   7.8805711e-04   3.4660459e-04   2.3247972e-04   8.3391130e-04   9.0533758e-05   2.0055867e-04   7.0706639e-04   1.4005936e-04   4.5249274e-04   9.1763002e-05   1.6465400e-04   1.1329469e-05   9.4517520e-05  -1.5852874e-04  -7.1914968e-05   3.6163849e-04  -9.2455489e-04   7.1319129e-04   3.0609540e-04   3.5378814e-04   1.9936809e-04   4.0800974e-04  -5.8290443e-06   4.4811657e-04   1.8374083e-04  -1.0800341e-04  -4.0676026e-04   3.9492190e-04   1.0102562e-03  -9.1126618e-05  -4.8383890e-04   2.2469235e-03   3.8045782e-04   4.9546790e-05  -1.6380736e-04   8.5236628e-05   5.5233366e-04   3.9586728e-04   2.0457552e-04   6.9668662e-04   5.4794888e-05   1.7064191e-04  -1.3003721e-04   1.8686832e-04   4.7471258e-04   4.0706382e-05   2.4535411e-04   2.0042174e-04   1.7229886e-03   1.6553355e-03
   7.7606860e-04   3.5022557e-04   2.2924149e-04   8.2373939e-04   7.1637609e-05   1.8236368e-04   6.8594469e-04   1.3966762e-04   4.1534106e-04   7.9357524e-05   1.6641048e-04   1.8586183e-05   3.9337316e-05  -1.3311842e-04  -1.0150099e-04   3.5824507e-04  -9.0020121e-04   7.2735106e-04   2.4908831e-04   3.3303574e-04   2.0801267e-04   4.6358781e-04   1.2662637e-04   4.3359652e-04   3.3591565e-04  -7.3768664e-05  -4.9352174e-04   1.5290835e-04   1.0123029e-03  -1.3145413e-04  -4.0772642e-04   2.2039863e-03   3.0726363e-04   2.4516561e-05  -1.5656075e-04   1.5572047e-04   4.7681032e-04   4.0453990e-04   1.5962980e-04   8.0628030e-04  -2.0674268e-04   1.5096131e-04   1.2427474e-04   2.8960948e-04   5.1765738e-04   8.8762426e-06   2.4430739e-04   1.8411422e-04   1.7322481e-03   1.6479602e-03
   7.7245646e-04   3.4189451e-04   2.4423483e-04   8.3147362e-04   8.7493812e-05   2.3083268e-04   7.4832933e-04   8.5893073e-05   5.1734078e-04   7.2781455e-05   1.6582363e-04   4.5798688e-06   8.7239496e-05  -1.4485036e-04  -3.4041204e-05   3.7321827e-04  -9.1035501e-04   6.9203624e-04   2.4934858e-04   3.2580539e-04   1.9483031e-04   4.1181289e-04   7.9671350e-05   4.0021274e-04   2.3640323e-04  -9.8460565e-05  -4.3842517e-04   1.4600919e-04   9.7398146e-04  -8.5387401e-05  -4.2093132e-04   2.1371797e-03   2.0254761e-04   7.0686168e-05  -2.3160581e-05   1.6916427e-04   5.0783821e-04   3.9244979e-04   2.0053443e-05   8.2406629e-04  -3.9029380e-04   1.0394170e-04  -7.1879273e-05   3.2574375e-04   3.7224521e-04   1.1941612e-04   2.5140413e-04   1.8970290e-04   1.7607753e-03   1.5181033e-03
   7.8107713e-04   3.4386723e-04   2.5301700e-04   7.7766133e-04   1.1630540e-04   1.8000000e-04   6.9488055e-04   1.9545712e-04   4.6307882e-04   8.8886605e-05   1.6550159e-04   3.5008377e-06   9.1639566e-05  -1.3169603e-04  -8.2660781e-06   3.2698625e-04  -8.5913436e-04   6.3464412e-04   1.6592641e-04   3.6265035e-04   1.8402682e-04   3.9849404e-04   8.5303720e-05   4.3854673e-04   2.0132975e-04  -8.6423890e-05  -3.4359228e-04   3.5217177e-04   9.3890214e-04  -2.7125039e-05  -4.3576740e-04   2.0985152e-03   2.7146790e-04   2.7664515e-05  -1.1032300e-04   1.8063709e-04   6.3595310e-04   3.8773584e-04   3.1399055e-04   7.1180414e-04  -1.9455570e-04   9.6382209e-05  -2.0578989e-05   7.1669579e-04   5.6872086e-04   1.4633867e-04   2.1392318e-04   1.4813233e-04   1.7200127e-03   1.5163427e-03
   7.8718795e-04   3.4534888e-04   2.5920151e-04   7.4451289e-04   8.7393091e-05   2.3280611e-04   6.7901931e-04   1.9107961e-04   4.6602509e-04   7.2380819e-05   1.4644528e-04   1.2422904e-05   5.7364308e-05  -1.1943167e-04  -2.5471350e-05   1.7788279e-04  -8.3106686e-04   3.0654969e-04   2.9223555e-04   2.9750983e-04   1.6461781e-04   4.2733227e-04   1.1557291e-05   3.7086580e-04   5.7928402e-05  -7.6985460e-05  -4.0433026e-04   1.2484549e-04   6.4539188e-04  -5.4986143e-05  -3.7457739e-04   1.6665735e-03   1.9944200e-06   9.5555668e-05  -1.2777286e-04   1.6986852e-04   4.7234865e-04   4.0920466e-04   3.6946538e-05   6.5805751e-04   1.9975522e-04   1.8211198e-04   1.4514843e-04   2.0885913e-04   3.2089278e-04   6.0728260e-05   1.3628857e-04   9.2995353e-05   1.5254701e-03   1.2781130e-03
   5.8536767e-04   2.4351645e-04   1.4876699e-04   6.1760750e-04   6.5244007e-05   2.4134392e-04   5.0569302e-04   1.1052508e-04   3.9009965e-04   7.7452409e-05   1.2831468e-04  -6.1384194e-06   1.1029125e-04  -2.1657117e-05   6.7178902e-05   1.5157166e-04  -6.9188833e-04   3.4383632e-04   1.9532981e-04   1.4804339e-04   7.9359103e-05   3.3975096e-04   6.3729247e-05   2.5889408e-04   4.1917205e-04  -3.2573451e-05  -1.6411037e-04   1.0823319e-04   5.4405554e-04   4.5514309e-05  -4.5438475e-04   8.5668830e-04   3.1627307e-04   2.2983528e-04  -1.0081618e-04   1.2627724e-04   3.8755522e-04   1.0811473e-04   1.7906661e-04   6.6149613e-04   3.0633117e-04   2.3001625e-04   1.6469909e-04   4.0807985e-04   3.9661152e-04   1.8688924e-04   6.7932488e-05   8.4382926e-05   1.2048185e-03   1.0612902e-03
   4.2676058e-04   1.3455351e-04   8.6556553e-05   5.0353148e-04   7.0467315e-05   1.5083473e-04   3.5634919e-04   1.6705200e-04   2.7091839e-04   3.4858822e-05   1.2083729e-04   3.8888360e-05   1.5886423e-04   6.6753200e-05   1.1819122e-04   8.6481239e-05  -6.9599657e-04  -1.0260728e-04   3.3146501e-04   4.0853003e-05   4.6369576e-05   3.2007461e-04   1.0352513e-04   2.5604296e-04   5.4251974e-05  -1.1576205e-05  -1.8110029e-04   2.9017241e-04   1.8531263e-04   1.6271108e-04  -5.0072384e-04   1.4251585e-05   4.7628506e-04   2.3035651e-04  -2.8554496e-05   2.7916708e-04   4.0814839e-04  -1.9967093e-04   2.6006420e-04   5.7623087e-04   4.9224403e-04   1.9607227e-04   2.8603896e-04   4.2541407e-04   1.9172100e-04   2.7971694e-04   3.1750966e-05   2.6266556e-05   8.8590180e-04   7.3493749e-04
   3.3385496e-04   1.1010549e-04   3.2413889e-05   2.7921147e-04   4.1522824e-05   1.8022134e-04   2.7391899e-04   1.8421754e-04   2.6578835e-04   1.2956753e-05   1.1439089e-04   5.5766854e-05   1.5233384e-04   6.8243811e-05   5.0221108e-05  -7.7212360e-05  -5.4754724e-04  -3.8317798e-04   4.4399669e-04  -9.9260308e-07   1.6921593e-05   3.5765764e-04   1.1995431e-04   2.2995558e-04   3.0233953e-04   6.3548185e-05  -9.9082048e-05   9.4097973e-05   1.3058724e-05   7.6991637e-05  -2.9031193e-04  -6.5437416e-05   4.8106929e-04   2.0506060e-04   1.0855380e-05   2.0085843e-04   2.3038947e-04  -3.5147002e-04   5.8973830e-05   5.1206886e-04   3.5525899e-04   2.4937905e-04  -8.0132028e-05   3.4396379e-04   3.3703895e-04   3.2920501e-04   1.9579482e-05   1.0901268e-04   6.9832022e-04   6.5626024e-04
   2.6144585e-04   6.6275687e-05   3.6724683e-05   2.2156986e-04   5.0756025e-05   1.1830685e-04   2.5162866e-04   1.4525435e-04   2.3821605e-04  -1.7186901e-06   9.6058000e-05   1.2601233e-05   1.6539363e-04   1.1613054e-04   1.9484397e-04  -9.9705276e-06  -4.0843265e-04  -3.1454006e-04   2.0921073e-04  -2.6287249e-05  -4.7902373e-05   3.2775264e-04   1.1545479e-04   1.4475145e-04  -3.7671562e-05   8.3415049e-05  -1.0235902e-05   5.9250560e-05  -7.8525954e-05   1.1170525e-04  -2.2940140e-04   6.0720395e-06   3.7816385e-04   3.4565703e-04   5.1326402e-05  -8.6817890e-06   2.2877620e-04  -3.4644300e-04   1.7306824e-04   5.4801832e-04   1.1842963e-04   2.8647002e-04   2.6146972e-04   1.1869126e-04   3.0597314e-04   3.9789596e-04   2.4253891e-06   1.3296412e-05   6.2232226e-04   5.7043298e-04
   2.2150406e-04   1.6348517e-05   3.7912687e-05   2.0314612e-04   3.4786914e-05   1.3678185e-04   2.2622276e-04   8.3831364e-05   1.7535991e-04  -1.9954248e-05   1.0475315e-04   9.2661121e-06   1.3709042e-04   1.2335024e-04   1.5831237e-04  -6.9481430e-06  -4.3028989e-04  -3.3664476e-04   2.7725686e-04  -4.0144758e-05  -7.1247436e-05   2.0705810e-04   5.3149262e-05   1.4349355e-04   1.0273090e-05   5.6380148e-05   5.0887658e-05   2.8312413e-04  -1.1446184e-04   1.2783399e-04  -2.8989100e-04  -1.5912580e-04   7.5694748e-05   2.5239619e-04  -1.0178739e-04   3.5359844e-05   2.6105269e-04  -3.6226626e-04   1.4572742e-04   4.7166707e-04   6.4165890e-04   2.4469892e-04   3.6621710e-05   2.9316658e-04   2.7513716e-04   3.0980137e-04  -5.8835030e-06   1.5996919e-05   5.5194745e-04   5.9957872e-04
   2.2041643e-04   4.5405770e-05   2.4687645e-06   2.1931450e-04   4.5411278e-05   1.5029903e-04   2.1879422e-04   6.5169552e-05   1.3333239e-04  -4.1996565e-05   9.6316078e-05   3.2595861e-05   1.3787016e-04   1.3312887e-04   1.1088798e-04  -5.4304524e-05  -4.6098907e-04  -4.7118336e-04   2.3480707e-04  -7.7788085e-05  -5.3654221e-05   2.7794272e-04   8.7341912e-05   1.0851449e-04   3.1327741e-05   1.1469395e-04   3.2660220e-05  -1.2482354e-05  -1.0948173e-04   8.7096276e-05  -3.4129576e-04  -1.8259909e-04   4.6792289e-04   1.6922748e-04   4.9635031e-07   4.2585325e-06   1.4093406e-04  -3.2514162e-04   2.0002265e-04   3.7894267e-04   1.6140788e-04   1.9359063e-04   3.1964152e-04   2.3336595e-04   2.0721492e-04   2.7296090e-04   1.5241001e-05   2.8220507e-05   5.3639128e-04   5.5045303e-04
   1.8071153e-04   4.2162690e-05  -1.4372418e-05   2.2019690e-04   4.5540433e-05   1.3884788e-04   1.7854659e-04   1.2149101e-04   9.4612005e-05  -5.5593166e-05   1.0709460e-04   4.7355657e-05   1.1013059e-04   1.0030558e-04   9.6636330e-05  -5.7753714e-05  -5.1167340e-04  -5.0472963e-04   2.9318247e-04  -9.1637659e-05  -3.4848621e-05   1.8411534e-04   3.3086235e-05   1.3951714e-04   9.8027427e-05   1.0242696e-04   2.7522483e-05   2.1965175e-04  -1.4242946e-04   1.0082393e-04  -3.9977249e-04  -3.2916167e-04   3.3539155e-04   2.6694537e-04  -3.6136247e-05   1.1607377e-04   1.2039544e-04  -2.8097423e-04   6.5787775e-05   3.9936687e-04   7.6244723e-05   2.3918370e-04   1.7208891e-04   7.7927762e-05   2.9656055e-04   1.9470930e-04   2.6426509e-05   3.6726113e-05   4.3737271e-04   4.2183892e-04
   1.9543823e-04   6.2030253e-05  -7.4382228e-06   2.2679960e-04   4.6498633e-05   1.4751975e-04   2.2604952e-04   1.5225611e-04   3.6929981e-05  -5.3866210e-05   1.1363970e-04   5.9064583e-05   1.3479117e-04   8.4254840e-05   1.1519613e-04  -7.2737879e-05  -5.4998795e-04  -5.3211802e-04   2.3743359e-04  -8.8256937e-05  -3.8465161e-05   2.3341163e-04   5.3245029e-05   1.4119265e-04   1.5121880e-04   4.9696533e-05  -5.4848319e-05   9.8117380e-05  -1.2333167e-04   1.4861734e-04  -3.7849793e-04  -3.8319401e-04   3.7841458e-04   2.6678666e-04  -4.7481724e-05   1.0934102e-04   1.9277846e-04  -2.4396113e-04   1.0081696e-04   4.7986198e-04   4.5772252e-04   1.1375507e-04   1.1894797e-04   1.2060512e-04   1.5329142e-04   1.3212244e-04   1.1847415e-05   1.3044082e-05   3.8992043e-04   4.7181340e-04
   1.9863428e-04   7.0790957e-05  -1.7804961e-05   2.2667316e-04   4.1377196e-05   1.3592782e-04   2.3458980e-04   2.0960414e-04   2.1501251e-04  -6.6066052e-05   9.5807918e-05   6.0931874e-05   1.3057636e-04   8.6208922e-05   1.1230077e-04  -9.8842625e-05  -5.4778537e-04  -5.5826223e-04   1.5626836e-04  -1.0571191e-04  -3.5306373e-05   2.7747260e-04   1.4460064e-04   1.3386497e-04   6.1723898e-05   4.6987701e-05  -1.2763390e-05   7.1840594e-05  -1.6247867e-04   8.9495086e-05  -3.8997622e-04  -4.2962565e-04  -1.4574489e-05   1.8381730e-04  -3.4744058e-05   3.9899762e-05   1.6112936e-04  -2.5645841e-04   3.5499953e-04   4.2669443e-04   2.5605081e-04   2.0261774e-04   1.4182324e-04   2.6917979e-04   1.4409397e-04   1.5234044e-04   1.4384563e-05  -6.5150140e-05   2.9745896e-04   4.8524517e-04
   1.6811390e-04   3.8988212e-05  -1.6576167e-05   1.9186419e-04   1.5567110e-05   1.5419303e-04   1.5707088e-04   8.2516846e-05   1.4802210e-04  -9.4989846e-05   8.6625907e-05   2.7729644e-05   1.2054123e-04   1.3185634e-04   5.5201264e-05  -8.7017332e-05  -4.2978639e-04  -5.1958940e-04   1.8425829e-04  -7.4590789e-05  -8.6473963e-05   2.2600358e-04   4.5296394e-05   1.0200327e-04   1.4830615e-04   5.3920521e-05   4.5069064e-06  -9.1023408e-05  -2.3731492e-04   9.3757189e-05  -2.4663846e-04  -3.9327226e-04   2.2361879e-04   2.8597319e-04  -9.2104056e-05  -2.0496660e-05   3.4732093e-05  -3.2857532e-04   1.5458360e-04   4.0051964e-04   4.4784870e-04   1.7900392e-04   5.6172712e-06   7.7881828e-05   8.1344107e-05   3.4990610e-04   1.7361603e-05  -3.4422770e-05   3.1405926e-04   4.4934958e-04
   1.5087936e-04   2.7852187e-05  -9.2950040e-06   1.4646903e-04   2.1576041e-05   1.3974107e-04   1.5967838e-04   1.1656062e-04  -3.9748698e-05  -9.5100731e-05   1.0302092e-04   3.3009179e-05   1.0356823e-04   1.0190740e-04   9.3154027e-05  -9.0794369e-05  -4.4517775e-04  -5.2761112e-04   9.7254058e-05  -7.7496406e-05  -1.0165669e-04   1.6312847e-04   1.4020981e-04   8.8121305e-05   3.6907037e-05   4.9545204e-05   7.4735930e-05   1.5020541e-06  -2.0032842e-04   1.3341317e-04  -3.2825471e-04  -4.8999104e-04   3.7046632e-04   2.4224380e-04  -7.4439988e-05   1.1796113e-04   1.5501837e-04  -3.8223143e-04   2.2210470e-05   3.7032762e-04   2.9773876e-04   1.0326672e-04   8.2248625e-05   1.5337022e-04   1.2204133e-04   3.2970315e-04   3.3053984e-06   5.0592636e-05   3.0625405e-04   3.7481089e-04
   1.5808901e-04   2.8374005e-05  -2.0292389e-05   1.6248599e-04  -2.0869870e-06   1.1999549e-04   1.3081050e-04   1.2913818e-04   1.4149281e-04  -1.0031333e-04   1.1278534e-04   3.6507146e-05   5.9938429e-05   9.4503666e-05   3.5738893e-05  -1.1897489e-04  -4.7422908e-04  -6.0388912e-04   5.2903186e-05  -1.0673372e-04  -8.2389146e-05   2.3635279e-04   9.3436181e-05   1.4029515e-04   1.7774213e-04   7.4499287e-05  -3.2361742e-05  -1.7740030e-04  -2.8782035e-04   7.1274597e-05  -3.2531828e-04  -4.9743080e-04   4.5118207e-04   2.7577308e-04   1.2080575e-04   9.9375517e-05   2.5392879e-05  -4.6021884e-04   8.3548090e-05   3.2439615e-04   2.2418152e-04   1.7222074e-04   9.3221563e-05   1.9286740e-04   1.9917914e-04   1.7405214e-04  -8.5560380e-08  -9.8443579e-06   3.6230401e-04   3.8391628e-04
   1.4068429e-04   3.8636961e-05  -3.0258427e-05   1.8604743e-04   1.0684456e-06   1.1952614e-04   1.6892592e-04   4.8122532e-05   1.0942925e-04  -9.6627504e-05   1.0567695e-04   3.3208107e-05   9.1484842e-05   6.5400462e-05   1.3324156e-04  -1.2693455e-04  -5.4018287e-04  -6.3142017e-04   1.6477163e-04  -1.0364281e-04  -5.0756906e-05   2.6392762e-04   4.4371933e-05   1.7245710e-04  -3.3618355e-05   3.1581520e-05  -6.6269763e-07  -1.4584154e-04  -2.2744796e-04   4.7944926e-05  -3.8402996e-04  -4.4473723e-04   1.8043054e-04   2.1172591e-04  -5.7644942e-05   5.2205123e-05   2.4676314e-05  -3.7587361e-04   7.5709781e-05   3.8007647e-04   1.0440950e-04   1.6579621e-04   9.8023833e-05   2.1996335e-04   2.1900413e-04   4.0936162e-04   2.6840855e-05  -6.2629348e-05   2.9489663e-04   3.3563862e-04
   1.3393453e-04   4.7459856e-05  -3.9251314e-05   2.0074903e-04   2.2245013e-06   9.2192357e-05   1.1995059e-04   7.2746763e-05   1.1887019e-04  -6.9288013e-05   1.2060722e-04   3.3611297e-05   3.2006013e-05   9.3662442e-05   6.2733154e-05  -1.1827561e-04  -5.9806998e-04  -6.4390048e-04   2.1183401e-04  -9.0527217e-05  -5.4909292e-06   3.4703605e-04   1.1884917e-04   1.4656007e-04   1.1314825e-04   5.3286254e-05  -1.1192540e-05  -8.0271806e-05  -1.6185301e-04   1.0395179e-04  -4.6488072e-04  -6.0511800e-04   3.3947537e-04   2.7859368e-04  -3.4594472e-05   1.7932723e-05   2.6159955e-04  -3.5552753e-04   9.5175426e-05   3.1241929e-04   9.8122218e-05   2.1471815e-04  -1.1090630e-05   2.1743428e-05   2.0338288e-04   3.4326997e-05   3.4520333e-05  -3.0181985e-05   2.8618760e-04   3.1069247e-04
   1.2201118e-04   5.4581364e-05  -3.2660926e-05   1.9070769e-04  -3.2629732e-06   5.3059219e-05   1.4060602e-04   1.0814214e-04  -1.3266283e-06  -6.4829379e-05   1.2720302e-04   4.2131862e-05   1.2528400e-05   4.0197661e-05   6.0829632e-05  -1.6172433e-04  -6.0469972e-04  -6.6209346e-04   2.3680176e-04  -1.1220501e-04   2.8888138e-05   4.2527381e-04  -8.3052710e-06   1.5518766e-04  -3.9456583e-05   2.0077783e-05   1.8855339e-05  -2.6805606e-04  -2.7994884e-04   4.9761147e-05  -4.2854334e-04  -4.5282175e-04   3.9372128e-04   3.5714504e-04  -4.4233686e-05   2.8764834e-05   3.6972151e-06  -4.3326715e-04   1.5282366e-04   3.6745315e-04   2.7786588e-04   1.3244641e-04   7.5835684e-05   1.3369345e-04   1.0262890e-04   3.9647572e-04  -9.4908000e-06  -1.2000564e-04   2.6389383e-04   3.6874748e-04
   1.0044619e-04   3.6201975e-05  -2.1429578e-05   1.7469248e-04  -2.1239319e-05   5.6903351e-05   1.2864366e-04   2.4603209e-05  -4.1276075e-05  -6.9339563e-05   1.2690113e-04   4.3175518e-05   5.8473903e-05   1.1273097e-05  -3.7330144e-06  -1.6264927e-04  -5.8200769e-04  -6.5361580e-04   1.9799602e-04  -8.3868857e-05   3.2481181e-05   3.7103557e-04   5.1766045e-05   1.8069759e-04   7.4930678e-05   2.1044671e-05  -6.6033957e-05  -2.1628250e-04  -3.3531591e-04   6.8475390e-05  -3.7615781e-04  -4.8243938e-04   3.6907138e-04   2.9332543e-04  -6.0674865e-05   6.3974927e-05   1.5389040e-04  -4.2366772e-04   3.7324742e-05   3.5409720e-04   3.1979664e-04   2.1060182e-04  -2.1891341e-05   2.4086129e-04   1.5638636e-04   2.9771696e-04   1.8627890e-05  -3.6986447e-05   2.7387551e-04   2.0530002e-04
   8.4258027e-05   2.6338314e-05  -2.8923092e-05   1.5874805e-04  -2.7752543e-05   7.3244140e-05   5.8666814e-05  -6.9731737e-05   1.6285016e-05  -6.7489324e-05   1.3655009e-04   3.9566316e-05   1.0750240e-04   5.5675770e-05  -4.9652692e-05  -1.5803125e-04  -5.7244190e-04  -5.9229246e-04   1.1451893e-04  -7.5224649e-05   3.1402556e-05   4.0071609e-04   7.1563358e-05   2.1709183e-04  -1.1403642e-04   4.2848314e-05   1.8662267e-04  -5.2307700e-05  -2.3885438e-04   1.0030010e-04  -4.2023594e-04  -3.4707700e-04   4.4596684e-04   2.6758335e-04  -5.0649800e-05   7.5640586e-05  -1.0314879e-05  -3.1854189e-04   1.1381585e-04   3.1161768e-04   1.1114943e-04   1.9931933e-04   1.6913479e-04   1.9722731e-05   1.2741332e-04   2.8529717e-04   1.6508278e-05  -8.7739340e-05   2.7128903e-04   1.7050597e-04
   1.2635200e-04   4.3923406e-05  -4.6398294e-05   1.9537988e-04  -2.1679973e-05   1.0673878e-04   1.0402881e-04   2.8018449e-05   6.0943123e-05  -4.9294042e-05   1.6923987e-04   5.2950207e-05   6.1625789e-05   3.3269389e-05   5.1183673e-05  -1.6742360e-04  -5.7335955e-04  -6.0696562e-04   1.4628589e-04  -8.9871028e-05   6.1644161e-05   3.8304616e-04   3.1187639e-05   2.5085939e-04   3.2579008e-04   1.8803388e-05  -1.7442437e-05  -1.7114234e-04  -2.3591684e-04   3.3018583e-05  -4.0691198e-04  -4.7096115e-04   9.8629273e-05   2.1903921e-04   1.0110177e-04   4.4544126e-05  -1.1833560e-04  -2.8819486e-04   2.1236767e-04   2.1237289e-04  -6.1704945e-05   1.2196222e-04  -1.4140515e-05   1.4351273e-04   3.4804070e-05   3.4236404e-04   1.0022557e-05  -5.4590364e-05   2.2154771e-04   1.7144054e-04
   8.8870336e-05   4.9805767e-05  -5.7798086e-05   1.9034534e-04  -3.8614737e-05   6.4884916e-05   8.5955267e-05   5.3861928e-05   1.3977107e-04  -4.8247835e-05   1.4671632e-04   7.3642572e-05   3.0700739e-05   2.5529314e-05  -3.0011083e-06  -1.5685383e-04  -5.6911755e-04  -6.0010765e-04   7.7043733e-05  -8.4385058e-05   4.3332049e-05   3.3372929e-04   3.7601971e-05   1.9817798e-04  -8.7910019e-05   3.1105148e-05  -7.2953473e-05  -2.6529247e-04  -2.6926582e-04   4.6100158e-05  -3.5735514e-04  -4.0811065e-04   9.6665375e-05   2.4674303e-04  -1.9815119e-05   9.5546449e-05  -1.0329209e-04  -3.1414611e-04   3.1434916e-04   2.7701026e-04   4.7092509e-04   2.1090361e-04   2.4517607e-05   2.8356022e-05   1.8596213e-05   2.8536495e-04   6.6714347e-06  -6.3908614e-05   1.8241804e-04   2.2808384e-04
   9.1879476e-05   4.6178589e-05  -5.7683323e-05   1.8530832e-04  -3.6028494e-05  -2.2364988e-05   5.8045702e-05   8.8159713e-06   1.8664483e-05  -4.3292224e-05   1.4699651e-04   8.5796295e-05   1.2584189e-05   1.5765427e-05  -7.8661998e-07  -1.3970012e-04  -5.4285623e-04  -5.3346867e-04   1.2373242e-04  -7.4991098e-05   1.4344824e-05   3.0369704e-04   2.5645537e-05   2.2120979e-04   1.1341902e-04   3.0078314e-05   7.5431963e-05   4.0358205e-05  -1.4797240e-04   8.6468470e-05  -4.1482333e-04  -3.3635151e-04   4.7794273e-04   2.3944541e-04   4.2802385e-05   8.2594670e-05   1.4612079e-04  -2.6033024e-04   2.3650486e-04   4.6154781e-04   3.0694663e-04   1.8979721e-04   4.6529265e-05  -1.3461141e-04   1.2314871e-04  -6.1704959e-05   9.2825239e-06  -8.8371635e-05   1.7648251e-04   1.4229098e-04
   9.2473405e-05   5.3436870e-05  -5.2492182e-05   1.7470962e-04  -2.8703396e-05   5.1318071e-05   8.0884551e-05   1.1640479e-04  -2.7122545e-05  -5.2333253e-05   1.4531307e-04   9.8364362e-05   3.6110003e-05   3.4351513e-05   1.1102445e-05  -1.5455918e-04  -5.5915210e-04  -5.5098243e-04   1.8308109e-04  -8.9417103e-05   3.3105629e-05   3.4823100e-04   6.2559971e-05   2.4344040e-04   1.9461344e-04   5.2836411e-05  -3.6375459e-07  -1.3700504e-04  -2.1539486e-04   4.7881727e-05  -4.4404418e-04  -3.4194818e-04   4.5603813e-04   2.4274566e-04  -2.9720042e-05   4.6472047e-05   4.6597988e-06  -2.5590652e-04   2.8920869e-04   1.3707145e-04  -1.2153339e-04   1.3780371e-04  -4.1182881e-05  -2.8085335e-05  -9.9202389e-06   1.8903294e-04   6.4514747e-06  -9.6735341e-05   1.9435574e-04   2.8501323e-04
   9.7812830e-05   6.1503706e-05  -6.9997564e-05   1.8362787e-04  -3.6246169e-05   3.3182230e-05   5.0142411e-05  -3.9697075e-05   1.3113716e-04  -5.0462168e-05   1.7201941e-04   9.8148717e-05   7.5579906e-06   1.6996424e-05   1.5344945e-05  -1.4395414e-04  -5.5799435e-04  -5.6615600e-04   2.8124532e-05  -8.6562693e-05   2.3990144e-05   3.1675620e-04  -4.1465384e-05   2.2315413e-04   7.8702586e-05   7.0821530e-05  -6.2404353e-05  -9.0328875e-05  -3.2656977e-04   2.3955748e-05  -3.9952705e-04  -4.1909292e-04   1.6855227e-04   2.0282203e-04   8.5287124e-05   1.2681627e-04   9.9873359e-05  -2.7083437e-04   2.0704608e-04   4.7699868e-04   2.1864171e-04   1.1848150e-04   1.0208364e-04   2.1672054e-04   1.8707689e-05   2.1931257e-05  -7.6927370e-07  -7.7509525e-05   1.8452285e-04   2.1524171e-04
   8.1307626e-05   7.6763259e-05  -6.2046303e-05   1.9329651e-04  -2.9329616e-05  -2.9804634e-05   8.6408079e-05   2.2101085e-05   7.8574718e-05  -5.4072589e-05   1.5759341e-04   9.7793200e-05   4.3705761e-05   2.6055666e-05   3.4164801e-05  -1.6340056e-04  -5.9556169e-04  -5.8237469e-04   1.6043712e-04  -1.0262672e-04   4.8232381e-05   3.2954119e-04   9.3673161e-06   1.5935353e-04  -3.2239532e-05   2.3443043e-05  -3.0464251e-05  -5.7119596e-05  -1.9168515e-04   7.9356658e-05  -4.7259318e-04  -4.7012101e-04   1.0390188e-04   2.0262306e-04  -3.5719841e-05   1.5720006e-04   5.2435211e-05  -2.4621459e-04   1.0238334e-04   3.8707265e-04  -3.9147621e-04   1.8365533e-04   1.3483071e-04   1.6516805e-04  -5.8847065e-05   2.5966749e-04   2.9720937e-05  -9.0611458e-05   1.7163875e-04   1.1649438e-04
   8.7706583e-05   8.9356683e-05  -6.8728943e-05   1.9624647e-04   7.4111094e-06   2.2048232e-05   8.7461245e-05   2.1793698e-05   1.7435758e-04  -4.7538946e-05   1.4614539e-04   1.1083957e-04   3.6564775e-06   1.7831064e-05   5.1099789e-05  -1.5158032e-04  -6.0184335e-04  -6.2386785e-04   8.9833004e-05  -1.2372763e-04   8.7221422e-05   3.3797300e-04  -1.2494973e-05   1.9761518e-04  -8.4437001e-05   4.2115066e-06  -5.7532448e-05  -3.9729126e-05  -1.5685933e-04   5.4081833e-05  -4.0962131e-04  -5.3539692e-04   3.2025867e-04   2.4256502e-04  -2.8422270e-05   3.4751625e-05   1.1652322e-04  -2.2056690e-04   2.0412621e-04   2.0456570e-04   2.3691887e-04   9.5425232e-05  -4.4236014e-05   1.4864861e-04  -5.8090016e-05   2.9169634e-04  -2.5592652e-05  -1.7846656e-05   1.4889121e-04   1.8797439e-04
   1.0203579e-04   9.4684772e-05  -7.2328730e-05   2.3196456e-04  -1.6800001e-05   9.2213893e-05   9.2351096e-05   9.2343034e-05   1.1635535e-04  -3.2111649e-05   1.3895467e-04   1.1098567e-04  -1.1150360e-05  -1.1058693e-05   9.1869457e-05  -1.6668464e-04  -5.9235585e-04  -5.9238821e-04   9.1886817e-05  -1.2456726e-04   1.0054190e-04   2.6455423e-04   3.9865085e-05   1.8748277e-04  -2.4136181e-05   2.9877672e-05  -8.1867991e-05  -2.0505534e-04  -2.2704934e-04   6.3794163e-05  -4.3935972e-04  -4.9372209e-04   2.9043588e-04   2.8832612e-04  -8.2924882e-05  -1.4699757e-05   2.8515993e-05  -2.1137478e-04   2.7228406e-04   2.7279463e-04   9.4633302e-05   1.2876010e-04   7.5100739e-05  -6.7376441e-06  -2.6167871e-05   2.3697004e-04  -1.7029133e-05  -1.2448315e-04   7.3565592e-05   1.6170838e-04
   1.1758036e-04   9.7160468e-05  -7.1033166e-05   2.4064793e-04  -1.1766833e-05   6.0567061e-05   7.6870245e-05   1.1654180e-04   1.0237856e-04  -8.4666881e-06   1.2725488e-04   1.0025718e-04   2.8515558e-05  -4.1002175e-05   3.1266813e-05  -1.2858087e-04  -6.1007618e-04  -5.6476495e-04   1.1482954e-04  -1.0948608e-04   1.3393738e-04   2.6172257e-04   4.1108306e-05   1.7559786e-04   2.4524031e-04   2.2891745e-05  -7.6005635e-05   1.8232447e-05  -1.3808350e-04   1.1783239e-04  -4.9766339e-04  -5.5025431e-04   2.4824272e-04   3.1191707e-04   8.5783679e-05  -1.2519228e-04   2.9915926e-04  -1.4530985e-04   2.2225661e-04   1.7986700e-04   1.7800910e-04   1.5053702e-04   6.3820175e-05   9.5986461e-06   4.9314426e-06   1.7832917e-04  -1.2318225e-05  -5.7570564e-05   1.5475378e-04   1.0059333e-04
   1.0618709e-04   1.0996747e-04  -6.3261272e-05   2.3974107e-04   1.7111666e-05   5.4161854e-05   1.1784911e-04   9.8566874e-05   7.6248398e-05  -1.2745496e-05   1.2984248e-04   1.1974075e-04  -8.0193549e-06  -2.4570509e-05   7.8639430e-05  -1.2767146e-04  -6.0927245e-04  -5.7284872e-04   2.6243451e-04  -1.4355585e-04   1.6714900e-04   2.6050751e-04   6.2243525e-05   1.8344707e-04   1.7820147e-04   2.0174271e-05  -3.6284935e-05   1.8528312e-04  -1.6281211e-04   1.0878631e-04  -4.8866327e-04  -5.2187307e-04   4.5611942e-04   1.6736536e-04   6.2900304e-05  -5.2972126e-05   2.1664071e-04  -1.5746686e-04   1.2914343e-04   3.1805492e-04  -1.9257952e-06   1.2314141e-04  -9.1654329e-05   2.3028797e-04  -5.1406936e-05   9.7338314e-05  -4.9721521e-06  -8.4385785e-05   1.5094111e-04   1.0865394e-04
   1.1572833e-04   1.3072295e-04  -7.8393117e-05   2.4996602e-04   1.6312732e-05   4.7020098e-05   1.1530165e-04   9.4690549e-05   1.3081869e-04   2.1941574e-05   1.2550149e-04   1.2447567e-04   5.1749441e-05  -4.3514397e-06   2.1540134e-05  -1.1958096e-04  -5.9031986e-04  -5.7126576e-04   2.1095500e-04  -1.2123516e-04   1.9249019e-04   2.6930479e-04   8.4434078e-06   1.5746019e-04  -8.0323553e-05   4.7625513e-06   1.8965635e-05  -8.4053994e-05  -1.6569113e-04   7.2110750e-05  -3.8890817e-04  -5.0797878e-04   1.4113149e-04   1.2696424e-04  -9.8722332e-05  -3.6140071e-05   8.8094937e-05  -1.5700053e-04   2.6245855e-04   3.0113859e-04   9.8874232e-05   1.0623293e-04  -3.8129037e-05   7.5513693e-05  -7.5227115e-05  -1.9927636e-05  -7.8400553e-06  -6.9037829e-05   1.4352895e-04   8.6778920e-05
   1.4210395e-04   1.1628796e-04  -6.7093730e-05   2.4267481e-04   3.5038105e-05   9.0487745e-05   1.3640366e-04   1.5937923e-04   6.3130312e-05   2.3356384e-05   1.2483055e-04   1.1866738e-04   2.2534497e-05   2.8168890e-05   2.5938973e-05  -1.3104205e-04  -5.7556864e-04  -5.5358117e-04   2.2868166e-04  -1.1435572e-04   1.9156179e-04   2.2610782e-04   1.9160076e-05   1.7343690e-04  -6.8304877e-07   1.8781942e-05  -3.9620274e-05  -4.3076489e-06  -1.7583680e-04   9.3406386e-05  -4.3683400e-04  -4.6276499e-04   9.1867645e-05   1.8197046e-04  -1.6329383e-06   2.0222114e-05   4.1995925e-05  -1.1891121e-04   6.4190746e-05   3.2614678e-04  -2.1113589e-04   8.3154802e-05  -7.3313407e-05   1.6217478e-04   4.8336482e-05   1.2265115e-04   1.4661260e-06  -2.9451205e-05   1.0539257e-04   1.5048317e-04
   9.7392185e-05   1.1137775e-04  -4.9458504e-05   2.3225181e-04   3.1605166e-05   9.2600334e-05   1.0901876e-04   1.7130801e-04   2.1327210e-04   1.7611046e-05   1.4912509e-04   1.1943644e-04   3.0242043e-05   1.4600023e-05   1.0022665e-04  -1.0033162e-04  -5.2983256e-04  -5.5229070e-04   2.3398946e-04  -8.6451262e-05   1.9696615e-04   2.6191230e-04  -4.9645954e-05   2.2887586e-04  -7.4024756e-05  -8.3774639e-06   5.1612904e-05   2.1691626e-04  -1.8635496e-04   1.4812758e-04  -3.8392271e-04  -5.1135774e-04   3.7566636e-04   2.2135513e-04   1.9261486e-05  -8.7353401e-06   2.2003026e-04  -2.6210194e-04   1.0943452e-04   3.4839564e-04  -1.8387151e-05   1.3561675e-04   4.3921948e-05   2.7910862e-04  -1.1232342e-04   2.9250133e-04  -6.1139431e-06  -9.8824530e-05   1.3171847e-04   9.3737915e-05
   9.1076538e-05   1.0078628e-04  -7.2689927e-06   2.0436670e-04   3.8044149e-05   6.1819585e-05   1.1207442e-04   1.1786973e-04   1.2892415e-04   3.5500863e-05   1.4033716e-04   1.4209660e-04   4.0165742e-05   4.6592362e-05   3.9636485e-05  -1.2934666e-04  -4.8162072e-04  -7.1952562e-04   3.8195480e-04  -1.1190921e-04   2.2729242e-04   3.3900596e-04   4.8039670e-05   1.9938055e-04   1.1720595e-04   3.2819622e-05   1.2542812e-05   6.4175038e-06  -4.4366610e-04   1.0015602e-04  -3.5308235e-04  -8.7109610e-04   2.9322781e-04   2.5006349e-04  -2.8758914e-05   1.4404787e-04   1.6994411e-04  -6.6747778e-04  -4.5504072e-05   3.0289931e-04   2.0055547e-04   1.4012429e-04  -3.1877702e-05   2.5510197e-04   1.6422618e-04   4.7057489e-05   3.7157918e-06  -9.1855814e-05   1.0897019e-04   6.2816165e-05
   5.9184844e-05   6.3657310e-05   5.5626857e-05   1.4989707e-04   2.4217252e-05   1.1075565e-04   5.4936547e-05   7.2330535e-05   1.0218500e-04   7.5168020e-05   1.0538669e-04   1.2857899e-04   6.2193169e-05   3.8479742e-05   7.5907330e-05   3.1855889e-05  -7.9703714e-05  -3.0140008e-04   1.7017876e-04   1.0866048e-05   1.9275157e-04   1.4814676e-04  -2.3260871e-05   8.8220993e-05  -1.0684751e-04   4.7826379e-05   3.8342052e-05  -2.0246567e-04  -1.1977357e-04   8.0370723e-05   3.7782669e-05  -2.7988674e-04   7.0110545e-05   2.5584942e-04   5.2111067e-05  -6.9152098e-05  -5.3848576e-05   5.0831390e-05   1.1171740e-04   2.7293395e-04   1.7011419e-04   1.1236696e-04  -7.3283474e-05   2.9984958e-04  -4.6800833e-05   1.0874630e-04  -2.2829136e-05  -5.8180420e-05   1.0171004e-04   1.1321947e-04
  -6.1976039e-05   5.3402132e-06   8.9473746e-05   5.4346034e-05   4.4451011e-05   4.0629046e-05  -8.6555687e-05   2.9722412e-05  -2.9963858e-06   1.0620274e-04   4.8192913e-05   8.7821260e-05   1.7654708e-04   1.4410330e-05   6.6007735e-05   1.1414885e-04   1.2069362e-04  -8.5211788e-05   1.7336183e-04   4.6933292e-05   1.6093836e-04   5.2149677e-05   1.3667973e-05   6.0744565e-05   4.2489784e-05   1.8141704e-05  -3.1707939e-05  -2.7301422e-04  -1.2567789e-04   8.0155842e-05  -2.1110840e-05  -3.0498722e-04   2.2482542e-04   1.3335477e-04   1.1828722e-05   2.0013318e-05  -2.6885647e-05  -1.2852289e-04   2.1935483e-04   9.6794232e-05  -7.1961690e-06   1.3850958e-04   5.2114217e-05   2.2080891e-04   1.6682368e-04   2.4067562e-04  -4.6508856e-05  -2.5893303e-05   3.5598874e-05   1.8767340e-04
  -9.1171591e-05  -2.0226968e-05   3.8736369e-05   1.6365662e-05   4.8237034e-06   3.4216628e-05  -9.6941774e-05  -7.9823920e-05   4.4054716e-05   3.8950817e-05   2.3857430e-05   5.1283820e-05   1.6139078e-04   6.5176944e-05   5.1177998e-05   1.8862404e-04   4.3212544e-04   1.7230921e-04   7.4307485e-05   6.4767805e-06  -5.7023695e-05  -1.2051446e-04  -8.7456174e-05  -1.1776084e-04  -3.5750807e-05   5.3393102e-05   2.3458470e-05  -3.2578717e-04  -1.8653081e-04   6.2176950e-05   1.9614733e-04  -2.5260859e-04   2.8443820e-04   5.7264875e-05   5.7908394e-05   9.9158409e-05  -1.3106891e-04  -5.2130756e-05   1.6080345e-04   2.1248330e-04   9.0235873e-05   4.4101325e-05   1.6131932e-04   1.5476375e-04  -4.2608783e-05   2.3650065e-04  -5.8047885e-05  -8.7344088e-06  -5.3420725e-05   1.4645759e-04
  -1.4296855e-04  -4.1048570e-05   5.5501765e-05  -3.5067958e-05   3.8088412e-05   4.1398376e-05  -1.3399326e-04  -2.2383814e-05  -4.8253922e-05   1.9810697e-05  -2.8265053e-05   7.1420756e-05   1.7008588e-04   2.6865286e-05   4.7637808e-05   3.1682212e-04   6.1567739e-04   5.4745394e-04   1.9577044e-04  -7.8156944e-07  -1.0628567e-04  -2.2878716e-04  -1.2569010e-04  -2.4723704e-04  -1.0359253e-04   9.0025525e-05   9.0507121e-05  -2.0917386e-04   1.7393727e-04   7.2984432e-05   4.0916441e-04   4.0097252e-04   9.3726107e-05   1.8321403e-04  -6.0460490e-05  -3.8014612e-05  -1.8604689e-04   5.3887907e-04   3.3958114e-04  -5.9477519e-05   1.4255036e-04   6.5164735e-05   9.1204463e-05  -7.0621977e-06  -5.6045533e-06  -5.0952538e-05  -8.6477434e-05  -5.7248832e-05  -7.2045577e-06   9.5463933e-05
  -1.5411951e-04  -8.3194318e-05   3.3372362e-05  -5.7488553e-05   1.4676129e-05   4.2453095e-05  -1.3903182e-04  -1.6852055e-04  -6.3602733e-05   9.5835938e-05   2.9452694e-06   5.5982237e-05   2.1108473e-04   1.3238909e-04   7.8763318e-05   4.0698017e-04   7.6204853e-04   8.5252640e-04   8.4397485e-05   8.9986985e-05  -1.2013042e-04  -2.3141190e-04  -5.2527168e-05  -2.0801908e-04  -1.7660290e-04   4.1183390e-05   9.9489378e-05  -1.8688403e-04   3.8045103e-04   2.8924587e-05   5.4428237e-04   7.6411752e-04  -3.9257098e-05   4.4681568e-05   5.4341050e-05   5.0664104e-05  -3.2193941e-04   6.8656489e-04   2.4299862e-04   2.1475664e-04   4.1767780e-04   9.1384325e-05   1.0165590e-04   2.1553913e-04   2.6052683e-05   1.0095754e-04  -9.8825782e-05  -5.1983250e-05   3.8352168e-06  -3.1335370e-05
  -1.3794271e-04  -8.5918196e-05   2.8779885e-05  -6.0002814e-05  -1.2444925e-05  -4.3240067e-05  -1.7035684e-04  -1.2371741e-04  -7.7310389e-05   9.6959418e-05  -4.5658894e-06   1.3656256e-05   1.1373309e-04   4.0221048e-06   1.1738992e-05   2.7386966e-04   4.8420235e-04   3.9416840e-04   5.7600769e-06   2.0219990e-05  -6.3471802e-05  -2.0475511e-04  -1.1465304e-04  -1.8090600e-04  -1.8699359e-04   3.1644147e-05   2.2968095e-05  -4.0620915e-04  -1.2385436e-05  -1.6626108e-06   1.9295857e-04   1.8235378e-04  -1.8846258e-04   7.9702586e-05  -1.5769256e-05  -1.2985812e-04  -2.1145538e-04   2.5489065e-04   2.3018982e-05  -1.7811239e-05   3.0955637e-04   6.4853244e-05   2.1447774e-04  -4.1712647e-05   1.8922714e-05   1.9499460e-04  -6.4804401e-05  -3.9520655e-05   2.1109268e-05  -3.5259669e-05
  -1.2044085e-04  -6.5612272e-05  -6.1222445e-06  -2.1995102e-05  -1.9849207e-05  -6.2645986e-06  -1.3720797e-04  -1.7521920e-04   2.7459519e-05   8.3022409e-05   5.5756195e-06   3.3475586e-05   7.8232420e-05   3.5261593e-05   3.7265891e-05   2.2347822e-04   4.7342843e-04   4.9262942e-04   2.4495870e-05   5.3118067e-05  -8.7321016e-05  -1.9791002e-04  -7.5430165e-05  -1.7133557e-04  -1.2622298e-04   5.1616709e-05   1.7937713e-05  -2.7104031e-04   1.5985331e-04   2.3152539e-05   1.9813362e-04   3.5881595e-04   1.5082884e-05   4.8479731e-05   2.7487273e-05   8.6923264e-06  -1.7472405e-04   3.6116861e-04   3.4568485e-04   1.3808615e-04   1.1191504e-04   9.6751013e-05  -3.0979343e-05  -6.6055778e-05  -2.3794952e-05   3.3838653e-05  -7.6600474e-05  -1.0144555e-05  -7.8302091e-06  -7.5847879e-07
  -6.0882376e-05  -3.8781862e-05  -3.0793326e-05  -2.1358830e-05   2.4551839e-05   1.9457890e-05  -1.1811299e-04  -1.1148307e-04  -4.2881838e-05   6.8309237e-05   1.8567296e-05   3.5484147e-05   5.2747750e-05  -2.0587951e-05   4.9432219e-05   1.4406315e-04   2.2759558e-04   2.2603216e-04  -1.5050889e-05  -2.6958465e-05   8.0529362e-06  -1.3366857e-04  -1.0662164e-04  -1.0963246e-04  -2.0606973e-04   3.9251168e-05  -5.0756212e-06  -1.9782098e-04   2.4781495e-05   1.1452642e-05   8.5330699e-05   5.9552553e-07  -8.9441652e-05   2.0622821e-05   1.2046569e-04  -1.0092841e-04  -1.8185523e-04   1.4253247e-04   2.0616522e-04   9.2588991e-05   3.1934821e-04   1.2401320e-04  -4.5229728e-05   3.9976107e-06  -1.5516031e-05   3.0831536e-04  -5.3777301e-05  -1.8039138e-05   4.8010523e-05   3.3729844e-05
  -3.3824781e-05  -4.2132593e-05   8.7647510e-07  -4.2282832e-06   5.4411562e-06   1.3133270e-05  -1.1750275e-04  -1.1772331e-04  -8.4533451e-05   6.6271990e-05   1.7708757e-05   3.1087653e-05   1.7070099e-05   1.6578502e-05  -1.0472704e-05   4.6788486e-05   1.8668652e-04  -1.1855483e-05   8.2907703e-05   5.6018985e-06   9.1773027e-06   2.3433855e-05  -1.0840940e-04  -2.3080489e-05  -2.4997804e-04   4.3457112e-06  -7.7994973e-06  -4.0130925e-04  -1.6694258e-04   2.1689932e-05  -8.1993403e-06  -1.6182907e-04   1.9785859e-05   5.2097799e-05  -2.0796513e-05  -5.2381209e-05  -1.0405837e-04  -1.5009432e-04   3.2794393e-05   7.6023127e-05   2.1383869e-04   1.3370774e-04  -2.3230092e-05   3.0005418e-05   1.4802146e-04  -9.5458563e-05  -2.2952046e-05  -1.0332607e-05  -1.6465132e-05   2.3473123e-05
  -5.0466402e-05  -3.6275884e-05  -1.8580004e-06  -1.4014200e-05   1.0093545e-05   4.3592208e-06  -6.9290523e-05  -9.7252225e-05  -6.9035836e-05   8.8217894e-05   3.7077003e-05   4.2398577e-05   2.5322486e-05  -1.4921560e-05  -3.3116059e-05   4.8191223e-06   7.9527017e-06  -1.3084915e-04   5.4345273e-05   2.8401280e-05   6.9976864e-05   9.2667979e-05  -1.6715561e-05   2.6713718e-05   1.0489758e-04  -2.6679210e-05  -1.6785796e-06  -4.6313321e-04  -1.4410693e-04   5.8113408e-05  -1.9330222e-05  -5.2930627e-05  -2.9106501e-05   4.0549119e-05  -4.6958539e-05  -4.3976601e-05  -1.6063594e-04  -1.3110288e-04   4.1157946e-05   1.2003111e-04   2.4349129e-04   1.1267860e-04   1.0152648e-04   6.5981287e-05   1.4695521e-04   3.2026655e-05  -2.6034759e-05  -2.6697075e-05   1.4762594e-05   7.2519688e-05
  -3.0616036e-05  -4.3810513e-05   1.3000218e-05  -4.4795564e-05   1.6993047e-07   4.1505726e-05  -6.5489687e-05  -1.4212361e-04  -4.2566877e-05   1.2567799e-04   2.1488040e-05   3.3590994e-05   9.9105331e-05   6.3537111e-05  -2.3532373e-05   1.0680742e-04   3.1398758e-04   3.1694808e-04   4.8671454e-06   1.0055765e-04   3.2453972e-05  -4.3731336e-05  -5.2541931e-05  -3.8360922e-06  -8.9417234e-05   4.3038821e-05  -1.2173559e-06  -2.5008313e-04   3.9492639e-05   2.0328864e-05   2.5989249e-04   2.5840761e-04  -1.4814905e-04   3.8719096e-05  -1.0498691e-04  -1.8284444e-04  -1.0051252e-04   3.2048920e-04   6.4189837e-05   1.0055373e-04   1.8378742e-04   9.4363953e-05   8.4359737e-05  -1.3289251e-04  -3.4548895e-05   2.9316169e-04  -7.2845840e-05   2.2420860e-05   8.5689077e-05  -6.9360353e-06
  -5.8148169e-05  -5.1594052e-05   6.2568520e-06  -5.9057907e-05  -2.9520497e-05  -4.5316152e-05  -6.5564265e-05  -2.2410255e-04  -6.4715561e-05   1.2940135e-04   2.3605446e-05   1.3472543e-05   5.7715686e-05   1.9760699e-05  -5.2452469e-05   1.8150738e-05   1.4521314e-04   8.2039296e-05   4.8410748e-05   7.1714603e-05   5.2596431e-05   5.6936497e-05  -1.1717793e-04  -1.2205544e-05  -6.8365312e-05  -2.1675911e-05   7.9697063e-05  -3.4322398e-04  -4.5777913e-05   4.1505984e-05   5.7620098e-05   1.5938762e-04  -8.1922772e-05   7.5805881e-05   7.9759884e-05   5.8800772e-05  -2.6450850e-04   2.2201588e-05   2.6664804e-04   1.7149896e-04   1.1984051e-04   1.3310074e-04   1.1822867e-04   3.4777990e-05  -2.9576211e-05   3.4682345e-04  -2.8682396e-05  -2.0069054e-05   1.6409822e-05  -2.3624654e-05
  -6.2254105e-05  -5.1494673e-05  -1.5820147e-07  -4.1746425e-05  -7.2595249e-06  -2.6407506e-05  -5.4524531e-05  -1.7833678e-04  -1.1292889e-04   1.1172621e-04   6.3694893e-06   2.2198605e-05   4.1436309e-05   2.3132496e-05  -1.8033685e-05   3.1758947e-05   1.4403845e-04   2.2571269e-04  -2.4881665e-06   7.5374868e-05   5.5531542e-05  -9.0977511e-07  -9.6401505e-05  -3.2223492e-05  -1.1963549e-04   2.2939337e-05   3.7069447e-05  -1.9882178e-04   1.1636542e-04   6.0487087e-05   1.6695248e-04   3.0876909e-04  -2.5980113e-05   3.1377655e-07  -7.5933865e-05  -1.1385044e-04  -2.3535220e-04   3.5169173e-04   1.3192183e-04   1.6251410e-05   2.9533848e-04   9.1547379e-05   1.1219622e-04  -4.0088977e-05   7.7660297e-05   2.5006357e-04  -5.8182122e-05   4.6214653e-05   1.0440489e-04   2.3982260e-05
  -6.0146958e-05  -5.0657272e-05  -5.1309070e-07  -4.2595544e-05  -1.1454634e-05  -6.9770809e-05  -6.7124609e-05  -6.9415364e-05  -9.0722635e-05   1.4175593e-04  -1.1577006e-05   1.8948533e-05   6.1485938e-05   2.2122760e-05  -8.9908426e-05   2.6384647e-05   1.0574530e-04   1.5104873e-04  -4.7851365e-05   6.0241655e-05   4.7365051e-05   6.0960956e-05  -8.5948297e-05  -1.2234348e-06  -1.8722691e-04   1.2406404e-05  -2.9911427e-05  -3.7332458e-04  -8.7079083e-05   2.7133206e-05   3.9761740e-05   1.9489898e-04  -1.8880854e-04  -6.6029446e-05   4.5625919e-05  -3.6546855e-05  -2.4551849e-04   7.5765856e-05   1.1352899e-05  -8.0394684e-06   2.4883394e-04   1.5338752e-04   1.9577181e-04   4.5707493e-05  -3.1275318e-05   2.8898017e-04  -4.1463183e-05   8.2263279e-05   9.1968286e-05   7.5865282e-05
  -8.5560358e-05  -6.6711582e-05   4.4861949e-06  -6.6547575e-05  -3.0206274e-05   3.4435452e-05  -1.1257405e-04  -2.3221780e-04  -1.1594007e-04   1.8075190e-04  -1.3938589e-05   2.8094762e-05   1.7286311e-05   5.3760627e-06  -1.0096063e-05   5.7703910e-05   1.5455221e-04   2.3627962e-04   3.0861705e-05   8.0995123e-05   5.3227253e-05   2.3935781e-05  -7.7515855e-05   4.6174577e-08  -3.0855397e-05  -3.1191478e-06  -4.6212521e-05  -3.3891218e-04  -6.7644487e-06   4.3944379e-05   7.4672600e-05   1.6873701e-04   8.4420253e-06  -3.1372514e-05  -3.1882173e-05  -8.4206877e-05  -1.5185300e-04   2.2889866e-04   1.1170100e-04   1.3418318e-04   1.1343599e-04   1.9982464e-04   1.5952892e-04  -1.2312901e-04   1.0156667e-05   2.1566165e-04  -6.2685693e-05   1.3739562e-05   6.4139793e-05   4.6086752e-05
  -5.3538788e-05  -4.1834468e-05  -3.6137313e-05  -5.7411406e-05  -3.3932774e-05  -4.2248619e-05  -8.2837410e-05  -1.6483893e-04  -9.8683806e-05   1.0142376e-04   5.2568166e-06   1.1099270e-05   7.3394425e-05   3.4753732e-06  -7.2296847e-05   6.3196647e-05   2.4122237e-04   3.2982876e-04  -3.8686481e-05   5.8109876e-05  -5.2086198e-05  -8.9026376e-05  -4.2495358e-05  -6.8006222e-05  -2.8491093e-04   2.2552744e-05  -1.0301831e-04  -4.8056809e-04  -1.6041964e-05  -2.4607907e-05   9.6462223e-05   2.0525604e-04  -6.1608509e-05  -7.2763178e-05  -1.0012812e-04  -1.6294059e-04  -3.6339814e-04   2.1818430e-04   2.2788696e-05  -7.2734918e-05   5.9858059e-05   8.3019870e-05   1.7723846e-04   5.2754458e-05   3.3655375e-05  -6.6547473e-05  -5.7299298e-05  -6.1606726e-05   4.6108315e-05  -4.4966349e-05
  -1.0162729e-04  -5.8270303e-05  -2.2091792e-05  -7.5345684e-05  -5.1085673e-05  -1.2452608e-04  -1.1336111e-04  -2.5760769e-04  -1.9459904e-04   7.3057403e-05  -1.4733024e-05   2.8321952e-05   5.3587639e-05  -4.2440752e-05  -8.6461267e-05   6.1414634e-05   2.9622132e-04   3.2690534e-04  -4.1710366e-05   6.4061118e-05  -4.5917644e-05  -1.8245491e-04  -1.2681614e-04  -1.1644347e-04  -2.4947891e-04  -1.1987653e-05  -1.5109492e-04  -4.9559388e-04  -3.2709348e-05  -2.1916798e-05   2.3956787e-04   4.6824606e-04   2.0971305e-05   9.4819683e-05  -2.8094651e-06  -3.7418533e-05  -3.7125417e-04   2.8750353e-04   7.9031313e-05  -5.7757698e-05   3.1278143e-04   5.0043531e-05   2.1745801e-04   1.4660999e-04  -2.2889639e-05   2.4819581e-04  -6.3379921e-05   7.3651339e-05   3.0684983e-05   1.3606227e-06
  -1.3365818e-04  -7.5350537e-05  -2.3136008e-05  -8.3375133e-05  -6.5638953e-05  -5.4693995e-05  -1.4739948e-04  -2.7107011e-04  -1.2532598e-04   5.5444678e-05   1.3491300e-06   3.7985072e-05   3.2315071e-05  -1.8874198e-05  -8.7067674e-05   5.7838744e-05   2.3666356e-04   3.0577841e-04  -9.4299918e-05   4.9661063e-05  -3.7485006e-05  -1.8833790e-04  -9.9573954e-05  -9.6972610e-05  -1.2953902e-04  -2.4560825e-06  -1.8993953e-04  -2.6045067e-04   1.8171882e-05   1.2153093e-05   2.5962270e-04   3.6966224e-04   5.1614810e-05  -2.2420571e-05  -7.6789052e-05  -3.2844712e-06  -1.7325286e-04   2.5117490e-04   1.8980622e-04   4.2233103e-05   1.0257110e-04   1.3102466e-04   4.0401759e-05  -7.8693833e-05   3.7448568e-05   4.1499356e-05  -8.3613275e-05   9.4427669e-06   4.5768640e-05   9.6050589e-06
  -9.2612012e-05  -6.3234111e-05  -5.1289313e-05  -6.0556667e-05  -7.6956145e-05  -1.5971515e-05  -7.6121891e-05  -2.3637862e-04  -2.2684160e-04   4.7231759e-05  -3.1552556e-06   4.9406750e-05  -1.8225726e-05  -6.1092447e-05  -5.3364824e-05  -3.0394453e-05   9.1671616e-05   1.3497578e-04  -5.5155913e-05   1.8821378e-05   2.5830377e-05  -1.0468495e-04  -1.1790502e-04  -2.8462751e-05  -1.4593027e-04  -4.1551757e-05  -9.0469621e-05  -5.3219002e-04  -1.7675546e-04  -5.2348143e-05  -5.3571082e-05   1.0008154e-04  -2.8903483e-04  -5.4209784e-05  -5.7636898e-05  -5.2206533e-06  -6.0088286e-04   3.7877242e-05  -1.5567857e-04  -7.9739446e-05   1.0106480e-05   8.1573955e-05   3.0579424e-04   1.6166999e-04   1.1423248e-07  -9.9173805e-05  -3.4507808e-05   1.6309170e-06   5.7955662e-05  -1.5466714e-05
  -8.0117672e-05  -4.2981897e-05  -7.0017544e-05  -2.3889206e-05  -7.4941010e-05   6.7934971e-06  -8.9701403e-05  -2.1187015e-04  -1.3850049e-04   3.3252632e-05   2.1404639e-05   6.1372593e-05  -9.8250850e-05  -8.3147432e-05  -1.1966065e-04  -1.6313512e-04  -1.8755026e-04  -2.2166604e-04   1.9001698e-05  -2.0739231e-05   8.8456414e-05  -2.5362735e-05  -5.0365277e-05   2.9876133e-05  -3.7041269e-04  -9.4475345e-06  -1.1374654e-04  -5.2563089e-04  -2.2201995e-04  -2.0302718e-05  -1.9811420e-04  -2.4200058e-04  -3.9507093e-05   5.2414827e-05  -1.0930653e-04   3.7086214e-05  -4.6887502e-04  -1.6263642e-04   2.1899512e-05  -3.4699133e-05  -2.0958856e-04   1.0684386e-04   2.0710232e-04  -3.2247254e-04  -1.3816252e-05   6.6787688e-05  -2.7148282e-05   1.5243150e-05   6.1807150e-05   3.1864110e-05
  -1.0078816e-04  -3.2201930e-05  -8.1259277e-05  -1.2339609e-05  -6.9543697e-05  -5.9955746e-05  -6.6766443e-05  -1.7484331e-04  -1.6434673e-04   3.8225367e-05   3.3478525e-05   6.2846397e-05  -3.6113317e-05  -5.4943303e-05  -8.6006403e-05  -1.6550886e-04  -2.7787290e-04  -2.7462066e-04  -1.0542340e-05  -4.8695249e-05   1.3164684e-04   2.0886233e-05   8.9075593e-06   3.1763222e-05  -1.4326452e-04  -2.9419241e-05  -5.0045957e-05  -2.2731995e-04  -1.9565322e-04   4.1088501e-07  -1.9783228e-04  -1.9178547e-04  -2.1109810e-04  -1.1507054e-04  -5.9332764e-05  -7.4610325e-05  -1.6888088e-04  -2.7880128e-04   6.2035193e-05   4.6492041e-05  -2.4031354e-04   1.4096148e-04   7.3473188e-05  -1.5826127e-04   4.1357405e-05  -6.7976995e-05  -3.0267778e-05  -1.7880449e-05   2.6488697e-05   4.9311611e-06
  -4.9013132e-05  -2.4294479e-05  -7.3951633e-05   7.8339344e-06  -7.1832219e-05  -5.3363674e-05  -1.7873275e-05  -7.4424323e-05  -8.7597509e-05   3.7175068e-05   3.3790733e-05   6.2946361e-05  -7.3319221e-05  -3.2444044e-05  -8.1449434e-05  -2.1843403e-04  -2.7115468e-04  -3.5539310e-04  -1.3118826e-06  -3.5010609e-05   1.7383744e-04   8.4239422e-05   1.5860780e-05   7.6683071e-05  -3.0732312e-04   2.2530252e-05  -1.3375616e-04  -4.6986531e-04  -3.2401853e-04  -6.1472936e-05  -2.5889825e-04  -4.2929556e-04   1.0659586e-04   1.6270149e-05  -2.6794016e-05  -8.6970329e-05  -3.2070503e-04  -2.8279793e-04   7.4837233e-05   7.0935494e-05   1.3161461e-04   1.5838159e-04   8.8825895e-05  -2.8526913e-05   1.0701513e-04   1.1910151e-04  -2.7258493e-05   7.9190009e-05   6.9276022e-05  -4.5081665e-06
  -6.8597132e-05  -2.4237983e-05  -7.3570780e-05   2.6240335e-07  -7.8633813e-05  -6.6595698e-05  -2.5001953e-05  -1.1605244e-04  -1.4767451e-04   6.8364221e-05   1.9899557e-05   3.7001137e-05  -7.8262028e-06   1.8656956e-05  -1.3881832e-04  -1.3367986e-04  -9.4302413e-05  -1.2050038e-04  -8.3629006e-05   3.2678777e-06   9.0595102e-05  -5.6551522e-05   3.3546694e-05  -4.5884724e-05  -1.8550621e-04   4.2839027e-05  -7.4253803e-05  -4.6303184e-04  -1.4581213e-04  -1.7934683e-05  -4.2563421e-05  -8.8182860e-05  -7.1384806e-05  -8.8109846e-05  -7.9149868e-06   1.1224722e-05  -2.2109358e-04  -1.7602883e-05   1.7362097e-05  -4.4264239e-06   1.3216036e-05   9.5650401e-05   2.5786122e-04   1.2403795e-04   5.0539315e-05   2.2719112e-05  -2.3477320e-05   1.5388494e-05   9.5045820e-05   2.9430930e-05
  -1.4124360e-04  -4.2719905e-05  -7.0350972e-05  -3.6830130e-05  -5.0250677e-05  -5.2169340e-05  -6.8445712e-05  -5.8522841e-05  -2.7300918e-04   6.3010666e-05  -2.1670652e-05   6.2852814e-05  -2.8023258e-05  -2.7838463e-05   2.7078284e-05  -6.8922171e-05  -6.6979264e-05  -2.3495993e-05  -8.9496294e-05  -3.5060817e-05   6.2297979e-05  -1.4298834e-04  -2.3247831e-06  -5.0222796e-05  -1.5156026e-04   4.6703452e-05  -4.5243789e-05  -1.6357780e-04  -9.6998825e-05   1.5045310e-05   4.1126052e-05  -5.9466063e-05  -9.2510149e-05  -3.9510618e-05  -1.8366669e-05  -8.4169013e-05  -1.5915962e-04   1.0641340e-04  -1.9951524e-04  -8.0655736e-05  -4.5435966e-04   7.2617651e-05   6.8716043e-05  -6.5289947e-05   4.5459929e-06  -4.7490917e-05  -2.8526143e-05  -5.8301455e-05   8.7685898e-05  -1.1778537e-04
  -1.1494806e-04  -2.7868864e-05  -6.3597421e-05  -3.5283021e-05  -3.6600231e-05  -3.0105975e-05  -4.3979617e-05  -9.5276424e-05  -1.3127319e-04   1.1001019e-04  -2.7405635e-05   5.4859865e-05   8.0535901e-05  -8.0675536e-06  -3.7474085e-05   1.4694090e-04   3.0962459e-04   5.1669200e-04  -1.2150253e-04   2.8184430e-05  -3.4304343e-05  -2.3767249e-04  -8.1221602e-05  -1.4240718e-04  -1.4416262e-04   3.0519521e-05   3.5561330e-05  -1.8528724e-04   1.5649306e-04  -1.8752713e-05   2.2620370e-04   4.6444256e-04  -1.2978990e-04  -2.6819411e-05  -5.3005017e-05  -2.2449121e-05  -3.3731022e-04   4.8195879e-04   1.3240604e-04  -3.7138251e-04   2.2782819e-04   3.2339223e-05  -6.0584630e-06   3.1398493e-04  -3.8801052e-05  -1.0065131e-04  -5.7553905e-05  -5.4216027e-05   1.0282654e-04  -1.0398519e-04
  -1.6564346e-04  -5.2761348e-05  -3.1415533e-05  -8.4783365e-05  -2.6079217e-05  -6.5381959e-05  -7.2532588e-05  -4.9799430e-05  -2.5337300e-04   8.7876448e-05  -3.3849414e-05   5.1944025e-05   4.1255713e-05   3.4555855e-05  -8.9964860e-06   1.5729568e-04   3.1087323e-04   4.5350104e-04  -8.0475373e-05   1.5804380e-05  -6.3684820e-05  -3.3512249e-04  -2.9112034e-05  -1.3986412e-04  -3.2609577e-07   6.1467421e-05  -1.6303362e-05  -4.1237206e-04   9.8069977e-05  -4.0631687e-05   2.5119167e-04   3.3584429e-04  -9.3274837e-05  -4.4820925e-05   1.8737022e-05  -7.7523437e-05  -4.3063945e-04   5.9859478e-04  -3.8404374e-05  -7.7722689e-05   1.7985042e-04   1.8417351e-05   5.3739768e-05  -2.5719489e-04  -4.0078048e-05   1.2206255e-04  -8.5400308e-05  -6.2664432e-05   3.6884510e-05  -1.0209806e-04
  -1.4125649e-04  -4.9185976e-05  -6.2747342e-05  -8.3945022e-05  -4.5836776e-05  -4.8728125e-05  -6.8773610e-05  -8.5128886e-05  -1.5080126e-04   1.6210237e-04  -4.3361615e-05   2.4926494e-05   8.5840191e-05  -1.9737181e-05  -4.1889445e-05   2.4002016e-04   4.0829385e-04   7.3624315e-04  -7.8007652e-05   5.4923043e-05   3.9591869e-06  -2.9816560e-04  -2.5943307e-05  -8.8754146e-05  -1.8771227e-04   3.2018470e-05  -1.6993461e-06  -8.2372542e-05   2.6440655e-04  -1.5083879e-05   2.7103207e-04   5.7903439e-04  -1.5606974e-04   4.2606458e-05  -4.6815745e-05  -7.4498348e-05  -4.1972712e-04   6.8484445e-04  -9.9343735e-05  -1.4215830e-04   7.3307609e-05  -1.5157594e-05  -5.3444364e-05  -4.5631960e-04  -1.5306890e-04  -1.9831215e-04  -1.0438472e-04  -6.6396504e-05   1.6290665e-04  -1.4541100e-04
  -1.1222621e-04  -2.9899524e-05  -5.3921485e-05  -5.6846282e-05  -3.2815569e-05  -8.2914143e-05  -8.5374129e-05  -1.0341276e-04  -1.4840702e-04   1.5489176e-04  -3.2442316e-05   3.8933878e-05   8.6585278e-05  -5.5676378e-06   3.9350120e-06   2.8794588e-04   4.9104891e-04   8.9666940e-04  -9.7094191e-05   9.4320276e-05   2.6221604e-05  -3.1520505e-04  -9.7327407e-05  -1.2466816e-04  -2.4695037e-04   3.8735543e-05  -2.3534042e-06  -1.1943871e-04   3.9552190e-04  -5.0183025e-05   4.1499187e-04   9.1372570e-04  -2.5243387e-05  -7.4193216e-05  -6.3028390e-05  -4.8454978e-05  -4.2465347e-04   8.8307919e-04   1.4700051e-04  -1.6296594e-04   3.2737880e-04  -1.1301912e-05  -9.7714314e-05  -1.6905864e-04  -1.2162753e-04  -7.4596988e-05  -1.0128030e-04  -3.2895987e-05   4.0050218e-05  -1.1256264e-04
  -8.5738619e-05  -4.0833609e-05  -6.8887210e-05  -5.8375033e-05  -4.1743901e-05  -7.5390861e-05  -5.4697859e-05  -1.6958470e-04  -8.9148438e-05   1.3778784e-04  -6.3559646e-06   3.1982945e-05  -2.6259236e-06  -3.0004781e-05  -5.5755390e-05   8.5437525e-05   1.5887893e-04   2.8507147e-04   2.3288658e-05   4.3264739e-05   6.8814305e-05  -1.4018708e-04  -4.6750552e-05  -2.9755831e-05  -3.3271317e-05  -3.2210628e-05  -1.2713691e-04  -3.5819813e-04   9.3889801e-05  -8.2369072e-05   4.5226901e-05   2.3209165e-04  -1.6295849e-04   5.7109642e-06  -2.1036118e-05   1.1901479e-05  -4.3979907e-04   3.4001216e-04  -2.5668772e-04  -7.5990945e-05   2.4083730e-04  -3.2933425e-05  -1.5855586e-04  -3.0510704e-04  -5.8744485e-05  -3.2391410e-05  -4.0268107e-05  -2.3265648e-05   7.7663339e-05  -5.0546772e-05
  -7.4651718e-05  -3.3252774e-05  -4.4563218e-05  -2.4950095e-05  -1.1757256e-05  -6.9359972e-05  -1.7504493e-05  -1.0174676e-04  -1.6304535e-05   2.0128817e-04   4.1537871e-05   4.8513608e-05   3.5164765e-05  -4.0183444e-05  -4.6030920e-05   2.7139684e-05   4.5318207e-05   1.3239906e-04  -5.5288463e-05   7.2476381e-05   1.1583268e-04  -5.5895100e-05   6.1985236e-05   8.7429835e-05  -2.3281362e-04  -2.1579335e-05  -1.9660629e-05  -1.5730194e-04  -7.1362345e-05  -2.7090631e-05   5.7209814e-05   1.1263121e-04  -1.3701126e-04  -4.5047600e-05  -1.9851577e-05  -2.2932734e-05  -2.7568440e-04   2.2361700e-04  -1.0654851e-04  -8.6675602e-05  -1.6229969e-04  -1.1058377e-05   9.5919686e-06  -8.9188958e-05  -3.9889059e-05   6.9593858e-05  -1.3119032e-05   3.9605525e-06   8.5488689e-05  -6.2386309e-05
  -7.4393130e-05  -2.2549366e-05  -3.7877318e-05  -2.2085585e-05  -1.0104582e-05  -6.3552718e-05  -8.5776574e-06  -8.4097963e-05  -1.0344779e-04   1.8353561e-04   3.4268087e-05   6.2843741e-05   3.0724976e-05  -1.1734115e-07  -2.6768686e-05   2.9225237e-06   2.4601897e-05   3.8373310e-05   6.9165195e-05   5.1197298e-05   1.6082794e-04  -3.4264203e-06  -6.9409107e-05   9.6426462e-05   1.7865583e-05   2.4443325e-05  -3.2822947e-05  -2.2045441e-04  -5.5090637e-05  -2.7778779e-05  -1.3974085e-05  -2.3234996e-05  -1.7494084e-04   6.5493885e-05  -2.1787831e-05   5.7655776e-05  -3.1997854e-04   9.1754897e-05   9.3215727e-05   1.2331746e-04   1.0797021e-04   2.8880781e-05  -7.8041412e-05   7.9981939e-05  -9.6761096e-06   6.2663812e-06   3.8611520e-06   8.1554266e-05   8.6187625e-05  -5.3958578e-05
  -6.6741646e-05  -2.0701205e-05  -3.2950331e-05  -4.9501564e-06  -2.5944205e-06  -4.0555537e-05  -1.4034991e-05  -4.7916590e-05   4.2747488e-05   1.6025675e-04   5.7450852e-05   8.7187684e-05   1.3295553e-05  -6.5123158e-06  -6.1687002e-05  -5.8477912e-05  -9.0839370e-05  -1.4261682e-04  -1.2571928e-05   3.1672607e-05   2.0787533e-04   8.3383311e-05   5.7652080e-05   7.9145335e-05   1.6084092e-05  -2.3198685e-05  -2.3580724e-05  -1.5291260e-04  -1.8541052e-04  -4.6111058e-05  -1.5586574e-04  -3.4012529e-04   1.0171761e-04   9.8889846e-05   3.6863090e-05   8.5520060e-06  -1.6357968e-04  -2.3276149e-04  -1.5401641e-04   2.8296859e-06   1.3341050e-04   9.7938180e-05   1.1997300e-04  -1.9171634e-05   9.6996373e-06  -8.0699079e-05   2.5518735e-05   3.3298555e-05   6.1660918e-05   3.3229069e-05
  -3.4500285e-05  -4.9415848e-06  -5.0451399e-05   1.8197798e-05   7.9943011e-06   8.6189084e-06  -7.0366855e-07  -6.4398417e-05  -6.7511805e-06   1.1456791e-04   9.4875671e-05   1.0464125e-04  -3.7708847e-05   7.1772920e-06  -9.4397183e-05  -1.3512763e-04  -1.9796193e-04  -3.4808880e-04   2.9498737e-05  -6.0461703e-06   2.2667446e-04   1.4856522e-04   1.7096412e-05   8.7432607e-05  -8.3059487e-05  -1.3661648e-05  -5.3987045e-05  -2.3446810e-04  -2.0779543e-04   2.1233782e-05  -7.7080047e-05  -3.7075573e-04   5.9620601e-05   1.1665097e-05   3.3491786e-05   1.9741925e-05  -1.0880583e-04  -2.6695221e-04  -8.9896275e-05  -9.2262373e-05   1.0327122e-05   5.5636308e-05  -4.7458660e-05   1.8373117e-05   8.3193399e-06  -2.6085741e-05   5.9773658e-05   8.0085629e-05   1.6119393e-05  -9.1783786e-06
  -5.4860029e-05   1.2691277e-05  -3.5305649e-05   1.8188412e-05   7.9782358e-06  -4.0119172e-05   4.9798498e-05  -2.5933314e-05   3.9741211e-05   4.9892260e-05   8.9981579e-05   1.2109547e-04   6.1822980e-06  -1.7344846e-05   7.7794884e-06  -1.0790737e-04  -1.2637116e-04  -2.7711102e-04   6.6107874e-05  -5.5028042e-05   1.7545687e-04   2.1635871e-05   9.4532610e-05   9.4597563e-05   9.3224575e-05  -1.1433802e-05  -2.3421584e-05  -1.0520098e-04  -2.0068986e-04  -7.3429792e-06  -9.5346120e-05  -3.9420405e-04   1.3197582e-04  -1.8577668e-05   6.9875030e-05   1.9595867e-04  -1.2699263e-04  -3.2482744e-04   2.2236428e-04  -6.6386805e-05   1.0239651e-04   1.0099765e-04   2.1140082e-05   6.6972541e-05   4.4842949e-05  -5.1847524e-05   5.8467976e-05   3.1708736e-05   4.6630954e-05  -4.4203793e-05
  -2.2755466e-05   1.2652878e-05  -3.8941544e-05   3.2545126e-05   2.1654509e-05  -3.0825620e-05   3.5698042e-05  -1.5733747e-05   8.8686727e-05   3.9698556e-05   8.6129352e-05   1.2755355e-04  -1.1552463e-05  -2.1352847e-05  -6.3910746e-05  -1.5180881e-04  -2.1611189e-04  -4.2034619e-04   3.0371195e-05  -7.9827725e-05   1.9997024e-04   5.8167941e-05   4.5753968e-05   9.6148084e-05  -6.9600246e-05  -8.8078123e-06  -7.0895127e-05  -1.9445729e-04  -3.3225515e-04  -1.1681625e-05  -7.2406023e-05  -4.3362621e-04   2.4305731e-04   8.4415369e-06   2.7881049e-05   1.2092887e-04  -1.9001064e-04  -3.3821524e-04   1.1395829e-05   7.8578218e-05   2.8644828e-04   5.3879405e-05   1.4545549e-04  -2.1980942e-04   1.0426187e-04   9.3932300e-05   4.7606776e-05   7.4467294e-05   5.0013699e-05   4.2976673e-05
  -5.3793428e-05  -7.9529027e-06  -1.8533547e-05   6.7860929e-06   6.9215253e-06   4.8441849e-05  -1.7007476e-05  -4.1514453e-05  -2.9920968e-06   6.3258805e-05   6.0433627e-05   1.3839461e-04   8.9704525e-05   4.2593630e-05   2.9243482e-05  -3.8859554e-05   2.3479799e-05  -6.3441010e-05   2.9583580e-06  -8.3829264e-06   1.1335584e-04  -5.2301333e-05   3.9418292e-06  -6.2877407e-06   1.2198734e-04   6.5863343e-05  -3.5865614e-06  -3.1031936e-06  -5.5153097e-05   5.3286964e-05   1.0718344e-04  -1.4117725e-07  -3.0865493e-05  -1.6932258e-06  -7.1929084e-05   8.4936466e-05   3.3690823e-05   9.6429940e-05  -2.2439879e-05  -1.1049180e-04  -1.1335692e-04   4.1935269e-05   4.2539163e-05   2.2152114e-04   1.9229231e-04  -7.7874729e-06  -6.8564159e-06   4.8999587e-05   6.7659916e-05  -2.9748026e-06
  -7.1784481e-05  -2.6436612e-05   4.3140017e-06  -2.6380427e-05   6.8162913e-06   3.7841874e-05  -3.3364038e-05  -4.3000205e-06   4.9516966e-06   8.1148064e-05   4.5804551e-05   1.1619060e-04   1.0901556e-04  -3.3954400e-06   6.8313791e-05   8.3540377e-05   2.1057221e-04   2.0045630e-04   1.4979899e-04   8.4738713e-06   6.8428330e-05  -1.2131753e-04   9.7903663e-05  -7.7512508e-05  -1.2626548e-04   4.1204505e-05  -2.4678589e-05  -1.4226115e-04  -1.8745888e-05  -9.5164532e-06   1.7225881e-04   2.4196310e-05  -1.3132869e-04   7.2719001e-07   3.9880553e-05   1.2268181e-04  -1.8860969e-04   1.2073934e-04   1.3639932e-04  -7.2386189e-05  -1.4955171e-04   2.4133103e-06   3.1041538e-05  -7.0838367e-05   8.4356934e-06   2.7096487e-05   3.1682695e-05   5.6376910e-05   1.0149838e-05  -4.7303573e-05
  -8.3874067e-05  -3.2621512e-05   2.1562359e-05  -3.5663194e-05   1.4183180e-05  -1.7205863e-05  -1.8420174e-05  -3.6990739e-05   7.1968854e-05   7.2218296e-05   4.9607141e-05   1.2850435e-04   7.4582531e-05   2.8407938e-05  -2.2590157e-05   7.7183497e-05   1.9120863e-04   1.8361997e-04   3.1446303e-05   9.0889607e-06   9.0176720e-05  -1.1644076e-04  -1.7792252e-05  -4.9713766e-05   3.1419586e-05   4.9303228e-05  -4.7280806e-05  -1.3824002e-04   4.2095377e-05   7.2814473e-06   2.5839056e-04   2.1985843e-04  -1.9396208e-05  -2.2989690e-05   7.5486746e-06   2.1762085e-05  -7.7886638e-05   2.6038432e-04   7.8080935e-05  -1.2793417e-04   2.8589187e-04   7.5578166e-05  -5.1437735e-05   2.7683654e-04   4.4112850e-05   4.3991178e-05  -1.4319529e-05   5.0029852e-05   6.7607689e-05  -3.3606266e-05
  -7.5965596e-05  -2.7747012e-05  -2.0773073e-06  -2.7837970e-05   7.9213878e-06   4.1012288e-05  -7.4072654e-05  -7.3313153e-05  -9.6516296e-06   6.9728507e-05   6.9172966e-05   1.2088040e-04   1.3204507e-04   3.1891879e-05  -1.2887056e-05   9.0141759e-05   2.1411704e-04   1.6334382e-04   2.5182730e-05  -4.4397711e-06   7.9801481e-05  -1.4072919e-04  -3.5427354e-05  -3.5865796e-05  -2.5692378e-04   2.3011409e-05  -7.1103183e-05  -3.4264347e-06  -4.7058318e-05   4.1195668e-05   1.6907619e-04  -1.1642496e-04   6.1016442e-05   9.1154281e-05  -2.6983245e-05   1.3020595e-04  -4.0121202e-05  -9.7793672e-05   7.8084471e-05   2.0576927e-05  -3.1319520e-05   6.2460771e-05   2.8697714e-05   9.4118855e-05   1.0659017e-04  -4.6845769e-05   1.2283303e-05   4.4231168e-05   4.9710008e-05  -2.5308987e-05
  -9.0208938e-05  -4.8294845e-05   2.6641112e-05  -4.8223388e-05   1.1759067e-06   4.2058141e-06  -5.2107993e-05  -7.0432150e-05   9.8355005e-05   2.6632806e-05   4.1595511e-05   1.0310519e-04   4.5002169e-05   9.7178845e-06  -5.2156913e-05  -3.2734708e-05   2.2160062e-05  -2.1137971e-04  -3.2714179e-06  -9.9728732e-06   1.2116352e-04  -2.8810704e-05   4.8984715e-05   4.2736279e-05   1.6956593e-04   3.4165365e-05  -1.4343603e-04  -4.0061472e-04  -2.3589031e-04  -1.7638553e-05  -5.4948898e-05  -3.8286194e-04  -1.2149700e-04   1.6403072e-04   4.5444282e-05   1.9708909e-04  -1.6482799e-04  -3.5290635e-04  -2.1291182e-04   5.3671378e-05   2.0244595e-04   8.0021287e-05   1.0909091e-04   1.1071503e-04   2.8711709e-05   2.9536139e-04   3.4239805e-05   3.2056846e-06  -1.8257839e-05   4.8919093e-05
  -4.4007287e-05  -3.5527984e-05   2.6553913e-05  -2.9962997e-05  -1.1922989e-05  -1.8765299e-05  -3.6475634e-05  -1.1855993e-04   1.1360871e-04  -9.2568325e-06   8.0767277e-05   1.0671054e-04  -8.2805054e-06  -3.8163969e-05  -3.5368306e-05  -1.0925755e-04  -1.0187334e-04  -3.8076821e-04   4.3534223e-05   7.4193681e-06   1.5716469e-04   7.3213290e-05   8.6888285e-05   8.1203310e-05   2.0865750e-04   8.9468977e-06  -4.1351181e-05  -3.1416226e-04  -3.6718944e-04   2.5715273e-05  -1.1278674e-04  -4.9479626e-04  -5.7825619e-05   6.1955936e-05   7.9530160e-05   1.0285564e-04  -6.1569597e-05  -4.3157864e-04   3.7841030e-05   1.0176323e-04  -1.5248012e-05   1.2757773e-04   1.7937520e-04  -1.9386064e-04   2.4560324e-05  -6.7771180e-05   4.9581962e-05   7.3309915e-05  -1.1367018e-05   4.1160391e-05
  -6.9532827e-05  -2.9415554e-05   3.3810760e-05  -2.0060928e-05   1.2439347e-05   1.7989112e-05   7.9106650e-07  -2.0600482e-05   4.1883592e-05  -1.5104058e-05   8.1273574e-05   1.1463011e-04   1.4205478e-05   8.2656174e-05  -9.5813506e-05  -8.5433152e-05  -1.2834163e-04  -3.8261854e-04  -1.4377674e-05  -1.5623695e-05   1.8039970e-04   1.1525684e-04   1.1456950e-06   7.1869283e-05   1.3906231e-04  -5.9871268e-06  -3.4537745e-05  -9.6562129e-05  -3.3552627e-04   5.5180331e-05  -2.3278572e-04  -5.0778658e-04   2.3069249e-04   1.1440473e-04   4.1760704e-05   6.0077513e-05  -6.4550695e-05  -5.3054647e-04   5.5712950e-05  -1.2816949e-04   3.5741943e-04   1.2143773e-04   2.0677052e-04   8.3072322e-05   1.3022816e-04   7.0050053e-05   6.0371280e-05   7.4715994e-05  -1.3758037e-05   3.0588213e-05
  -3.5924695e-05  -2.1437794e-05   4.3215863e-05  -1.3785883e-05  -1.9022154e-05  -2.6377951e-05   6.2143631e-06   4.8970778e-05   4.4769298e-05  -2.1695265e-05   6.8667570e-05   8.8715016e-05  -1.3193464e-05   1.8796325e-05  -4.7670379e-05  -9.9616453e-05  -1.1364232e-04  -4.0560844e-04   2.0519494e-06  -8.0890313e-06   1.8083990e-04   9.6779768e-05   5.0112465e-07   8.0116464e-05  -6.1016479e-05   5.0312177e-05  -1.7616396e-04  -2.2635084e-04  -3.3840415e-04   2.7629685e-05  -1.2364135e-04  -5.9135235e-04   6.4224056e-05   9.9639583e-05   7.1252041e-05   1.5664315e-04  -1.0132821e-04  -4.9776415e-04  -3.8144313e-05   9.5783435e-05   1.8484883e-04   9.7358185e-05   1.5387364e-04   3.4545950e-04   8.9872854e-05   4.0786825e-05   5.4911998e-05   3.0855888e-05   1.2039564e-05   1.6006400e-04
  -5.0960934e-05  -2.7847780e-05   4.1629170e-05  -3.4295921e-05  -8.8204752e-06  -3.9239152e-05  -6.9382906e-05   4.1110030e-05  -3.8131358e-05  -3.4447545e-05   6.8094829e-05   6.2992687e-05   5.3718035e-05  -1.8444432e-05  -9.6079784e-05  -8.1754159e-05  -9.8044286e-05  -3.6522333e-04   2.9592475e-05  -8.8021688e-06   1.4661849e-04   7.9386591e-05   3.3424112e-05   5.7770940e-05  -1.1126490e-05  -2.1511371e-06   5.7849069e-05  -1.9618000e-04  -2.8324666e-04   6.4252054e-05  -9.8686520e-05  -4.8954814e-04  -7.9259313e-05   8.8533387e-05   4.5244287e-05   1.2185222e-04   1.0412315e-05  -4.5938120e-04   9.4833900e-05  -1.0370439e-04   1.8785169e-06   1.5136509e-04   1.2511689e-05  -1.6036628e-04   2.9771334e-05  -9.3831855e-05   4.7037047e-05   8.7755820e-05  -1.7959561e-05   5.1091270e-06
  -7.0298483e-05  -3.1177689e-05   4.4123535e-05  -4.3970758e-05   2.0669490e-06   2.0381697e-06  -5.1590367e-05  -4.1648422e-05  -1.0405762e-04  -4.4655444e-05   6.2351064e-05   7.7463286e-05   3.6810328e-05   3.0334291e-05  -5.8131489e-05  -4.1865962e-05  -1.7026723e-05  -2.1404527e-04  -4.6884445e-05  -2.7159698e-05   1.2118018e-04   9.5516352e-06  -1.1028040e-05   5.2124004e-05   1.2484670e-04   1.8221634e-05  -2.8896948e-05  -9.2947594e-05  -1.4031104e-04   6.4288979e-05   7.8033285e-05  -3.0779507e-04   2.2518689e-04  -7.4586984e-05   2.9015757e-05   4.1053325e-05  -4.0269108e-05  -2.5222852e-04  -7.3365765e-05   1.4102596e-04  -7.4489784e-05   9.9238510e-05   1.6011450e-04   2.2433156e-05  -5.5970573e-05   1.7992964e-04   3.3439745e-05   7.2969975e-05  -3.0215202e-05  -5.1042339e-06
  -6.7326961e-05  -3.9112620e-05   3.8034352e-05  -7.0153183e-05  -1.3326341e-05   2.0063497e-05  -5.2582604e-05  -1.2345302e-04  -7.8043187e-05  -3.1457013e-05   3.6232879e-05   5.9296257e-05   8.3179286e-05   4.1516450e-05  -5.4951612e-05   7.8046382e-05   2.5597689e-04   1.3874538e-04   4.2613188e-05   3.3853288e-05   4.4063094e-05  -1.0179100e-04  -2.1475318e-05  -5.2681244e-05  -8.5910993e-05   4.2641528e-05   5.3258183e-05  -2.0777396e-04   4.0275958e-05   5.6033245e-05   3.6136943e-04   2.4506493e-04  -5.2960444e-05   8.4140178e-05  -2.1683174e-05   7.4731273e-05  -1.3276005e-04   1.7699595e-04   4.7308833e-05  -1.1231218e-04   2.9604277e-04   1.3527562e-04   1.1602996e-04   4.7504356e-05   7.7740086e-05  -1.3655917e-05   1.1720152e-06   3.2335643e-05  -3.4073248e-05  -7.0553389e-05
  -1.5333896e-04  -7.2925599e-05   5.3780510e-05  -1.2675363e-04  -1.4951681e-05  -1.4352198e-05  -1.2176183e-04  -6.6711174e-05  -4.4317854e-05   1.2861478e-06   4.2932879e-06   7.0111149e-05   1.3759783e-04   3.1559252e-05   7.9832193e-05   2.6209356e-04   4.5880003e-04   5.5964489e-04  -3.5768255e-05   6.0152055e-05  -4.3298198e-05  -2.8029061e-04  -5.7608337e-05  -9.7319265e-05  -1.9298875e-05   7.7770426e-05   4.4680801e-05  -7.6522068e-05   2.5532697e-04   9.2610426e-05   4.2518193e-04   5.4126489e-04  -2.1950905e-04   8.7399705e-05   5.1779525e-06   4.4802309e-05  -2.1808289e-04   5.0789316e-04   1.5134760e-04  -1.2941918e-04   2.3195216e-04   1.8008655e-05  -2.3393672e-05  -6.3876607e-05  -3.1902804e-05  -3.4495752e-05  -1.3543064e-06  -3.3337856e-05  -1.1002723e-05  -5.4529337e-05
  -1.3670570e-04  -6.8653811e-05   2.9203791e-05  -1.2175925e-04  -2.8300848e-05  -7.3162105e-06  -9.9542820e-05  -1.1820305e-04  -9.3294693e-05   3.3907530e-05  -8.1535518e-08   5.7029178e-05   3.8471073e-05   2.4954674e-05  -4.8394573e-05   1.4618118e-04   2.8778790e-04   2.6880964e-04  -1.4177099e-04   2.3141318e-05   2.1498799e-05  -1.7642189e-04   4.5965062e-05  -3.0732557e-05  -1.5189564e-04   1.0788392e-05  -6.9703361e-05  -1.0215145e-04  -2.3465058e-05   1.3780457e-05   1.3909156e-04   4.7293208e-05  -8.6521752e-05  -1.1793414e-05   1.2427448e-05   1.3822304e-04  -1.0313230e-04   1.6614757e-04   1.3730740e-05  -8.3182334e-05   2.2285771e-04   6.9204463e-05   3.9118084e-05   8.0145010e-06  -7.5699303e-05   4.6296551e-05   1.4648356e-05   7.0056958e-05   2.9004963e-05   1.9360770e-05
  -9.8928875e-05  -4.6376015e-05  -1.2081277e-05  -6.3713458e-05  -4.1999006e-05  -9.5603376e-05  -8.9679728e-05  -1.1214344e-04  -1.5352141e-04  -2.6687669e-06   2.8534840e-05   7.0309303e-05   1.4815755e-05   1.2075768e-06  -6.5113309e-05   1.5624288e-05   1.0724450e-04   1.0155277e-04  -1.5534273e-04   1.7970619e-05   4.8561451e-05  -1.2943668e-04  -7.7215911e-05  -6.9681839e-05   6.7401379e-05   1.7994560e-05  -7.5029398e-05  -2.2594184e-04  -7.9021484e-06   1.1497590e-05   1.2173805e-04   5.8298308e-05  -2.9452542e-05   9.4063289e-06  -4.8727750e-05   2.5694400e-05  -1.7959977e-04   9.8181670e-05   2.5309442e-04  -1.5963035e-04  -4.9603084e-05   5.0552626e-05   8.0909245e-05  -2.0225497e-04  -6.1273124e-05  -5.7839727e-05   3.3205404e-07   1.1174410e-05  -2.0601370e-05  -8.9351452e-05
  -1.0144285e-04  -5.1963125e-05  -7.3429196e-06  -5.9324266e-05  -3.1713436e-05  -7.2333140e-05  -1.1411286e-04  -1.1731339e-04  -1.0426091e-04   2.0967405e-05   1.3842782e-05   5.8510232e-05   4.0516052e-06   1.3475570e-05  -8.9161958e-06   3.9424922e-06   2.9069935e-05   2.1596301e-05  -5.6266152e-05   2.0735901e-05   8.1730483e-05  -3.3895671e-05  -2.9198360e-05  -4.8805134e-05  -2.1751234e-04  -5.5504529e-06  -5.6582223e-05  -9.8072145e-05   9.8652745e-06   4.8344966e-05  -1.6416769e-05  -2.9294726e-05  -1.2281536e-04   3.7926445e-06  -1.1223809e-05  -6.8675320e-07   2.5901536e-05  -1.9270370e-05  -1.5130144e-04   3.9438961e-05  -6.0525752e-05   7.2178198e-05  -4.6730740e-05   1.6271505e-04   9.9736186e-05  -8.2826584e-05   4.3610703e-06  -3.4102057e-05  -3.4566583e-05   2.6582844e-05
  -7.4301184e-05  -2.1805608e-05  -1.6731226e-05  -3.6909420e-05  -3.3952831e-05  -5.1129940e-05  -3.8793038e-05   3.3355696e-05  -1.7978081e-04   8.4458834e-06   6.1221517e-06   6.2809930e-05  -1.7141580e-05   1.6946247e-05  -4.5094512e-06  -9.5104711e-05  -1.2626224e-04  -1.8501238e-04   5.0814338e-05  -1.2213093e-05   1.3264433e-04   6.8961781e-05   1.0243268e-04   5.4473123e-05  -2.0171443e-04   3.4480433e-07   1.2743033e-06  -1.7484346e-04  -1.1530527e-04   5.1159921e-05  -1.2659338e-04  -1.5901243e-04   8.0987113e-05  -2.1526261e-05   4.7307993e-05   3.0860894e-05  -8.2456327e-06  -9.7543671e-05  -5.4884411e-05  -1.7025365e-04   1.0458193e-04   7.4641124e-05   1.3300557e-04   2.2555942e-04  -3.5870478e-05   2.8628474e-05   3.2208413e-06   8.0639613e-05   1.7798169e-05  -3.3795332e-05
  -2.5374282e-05  -2.9429777e-06  -3.6170572e-05   9.0371705e-06  -3.9163649e-05  -4.3995082e-05  -1.0897750e-05  -7.7713135e-05  -6.8884670e-05   3.8261984e-05   3.4775174e-05   5.6016459e-05  -2.6478792e-05   1.6008162e-05  -2.8668717e-07  -9.0354944e-05  -1.3740534e-04  -1.5723016e-04   1.3522235e-05   1.8264251e-05   1.5345866e-04   8.9012559e-05   3.9016191e-05   4.0200128e-05  -1.4293510e-04   3.6701822e-05   2.1093624e-06  -1.7919442e-04  -6.0309958e-05   1.2226917e-05  -5.6122899e-05  -5.0571725e-05   9.6959062e-05  -1.1074356e-04   1.6249021e-05   1.5479993e-05  -6.9271337e-06   1.4772592e-05   1.9858655e-04  -9.5077681e-05  -4.9704156e-04   3.4142944e-05   1.2479219e-04   4.4267137e-05   7.3468451e-05  -7.0083392e-05   3.7723723e-05  -7.3426213e-06   2.0025236e-05  -6.4719199e-05
  -5.2544881e-05  -6.2394411e-06  -1.0394636e-05  -1.8275370e-05  -2.3918834e-05  -6.6508648e-05  -5.5735280e-05  -1.0212267e-04  -1.0318799e-04   1.5031487e-04   1.6909706e-05   4.2583451e-05  -4.4972458e-05  -9.5853811e-06  -5.5849800e-05  -6.0294442e-05  -9.1338814e-05  -9.0971371e-05  -1.7676654e-06   3.5327601e-05   1.5799298e-04   1.2767324e-04  -2.5403295e-05   1.2955941e-04  -1.1504148e-06  -3.6047375e-05  -5.7409052e-05  -1.8847681e-04  -4.8038430e-05   7.0129223e-05  -1.1823437e-04  -9.7360826e-05  -2.9368442e-05   2.8285545e-05   6.1869949e-05   9.4021765e-05  -9.3896822e-05  -4.6021720e-05   2.1580998e-05  -3.2682121e-05   3.5190169e-04   1.5888012e-05   9.9087811e-05  -6.4342683e-05  -8.9465590e-05  -1.4437847e-04   3.5160396e-05   1.5184121e-05  -3.6280158e-05  -6.1381259e-05
  -1.9879490e-05   5.5298295e-07  -1.3857137e-05  -2.4344366e-05  -2.1251892e-05  -1.9583296e-05  -1.3647769e-05   1.4498441e-05  -2.2829505e-05   1.3308473e-04   5.4325505e-05   5.9674065e-05  -3.5586789e-05   1.2903342e-05   6.9934853e-05  -1.2632762e-04  -1.9664051e-04  -3.1951338e-04   5.6562818e-05  -5.2433829e-06   2.0898684e-04   1.8942465e-04   5.8627440e-05   1.4708443e-04  -1.7865475e-04   4.3341961e-06  -7.8101250e-05  -2.2768002e-04  -2.3762393e-04   4.1564184e-05  -2.6126191e-04  -4.7225846e-04   2.7918033e-04  -3.6927129e-05   6.6491950e-05   1.3784645e-04  -5.4407650e-05  -3.6019401e-04   2.7106089e-05  -1.4926188e-04   1.3467229e-04   7.8118646e-05  -1.1005836e-04   5.0727718e-05  -1.0791112e-04  -8.7011656e-05   5.5285509e-05  -5.5185141e-05   1.0665671e-05  -9.0107696e-06
  -1.0598203e-05   1.5519516e-05  -4.5566296e-05   2.1879810e-05  -2.7498561e-05  -1.6748229e-05  -3.7865779e-05   9.6211597e-06  -9.7414035e-05  -2.4999511e-06   4.0783503e-05   4.3046948e-05  -7.3173702e-05   5.1231846e-06  -7.8532597e-05  -1.7318336e-04  -2.4115882e-04  -4.1593291e-04   1.1519911e-05  -4.8419621e-05   1.6792389e-04   1.7431944e-04   8.7447115e-06   8.6282846e-05   2.4085584e-05   3.2628463e-06  -7.2696399e-05  -1.5356830e-04  -2.8393790e-04   3.2832384e-05  -2.4114168e-04  -4.3757641e-04   1.0046869e-04  -1.1635020e-04  -4.4703579e-06   5.4915654e-05   1.3474665e-05  -3.3405170e-04   3.7705508e-06  -3.7758095e-05   5.4853555e-04   7.9777936e-05   2.2665548e-04   9.1949398e-05   3.5894715e-05  -6.6520479e-05   5.2355201e-05  -4.5342273e-05  -2.9479836e-05  -6.4500782e-06
  -3.0321786e-05   4.1242538e-06  -3.4707293e-05  -6.0569835e-07  -9.9528788e-06  -5.5809280e-05  -3.0711668e-05  -1.3907236e-04  -3.0463007e-05  -1.1668715e-05   2.3496745e-05   6.3481682e-05  -6.0097806e-05   2.7389042e-05   3.3863053e-05  -1.3632547e-04  -1.4772831e-04  -2.8236228e-04  -1.1979057e-04  -4.3460655e-05   1.2405727e-04   8.3291678e-05   5.3471238e-05   3.8423790e-05  -6.5698943e-05   2.0739601e-05  -8.6042099e-05  -9.1743532e-05  -1.7722933e-04   8.1472266e-05  -2.6268011e-05  -2.3334750e-04  -1.2058852e-04   9.1466813e-05   6.6412962e-05   7.1524388e-05   1.4688102e-04  -1.5817347e-04   1.1010306e-04  -2.9724688e-05   2.6348629e-04   5.3640066e-05   2.3974798e-04  -1.4462305e-04  -1.4363983e-04   7.1619805e-05   2.9623747e-05   2.4283429e-05  -9.3412316e-05  -2.5263162e-05
  -4.8604259e-05   1.4470576e-05  -5.7263125e-05  -8.2046927e-06  -1.7402834e-05  -4.2993961e-05  -6.1712599e-05  -9.6701049e-05  -4.3181535e-05   1.0012564e-05   1.4069175e-05   5.2250623e-05  -3.5907618e-05   3.7522332e-05  -3.6844773e-07  -3.6012840e-05   4.9434355e-05   3.8471611e-05  -1.1081202e-04  -1.5949819e-05   6.0426228e-05  -4.7046560e-05  -5.0693809e-05  -1.4231563e-05  -2.4902181e-05   3.3275930e-05  -5.1422525e-05  -1.8476277e-04  -1.0749220e-04   7.4378327e-06   3.0411795e-05  -4.1470612e-05  -5.6289980e-05   6.1735038e-05   2.9445246e-05   1.1813849e-04  -2.5461300e-04  -1.2335527e-05   1.4914569e-05   3.2319213e-06   1.5745113e-04   9.8823577e-05  -2.3550334e-05   2.0942183e-05  -9.2951428e-05  -3.7250386e-05   4.5739245e-05  -6.2272840e-05  -4.7785816e-05   3.8540118e-05
  -2.6622820e-05  -2.4227186e-06  -4.4498738e-05   1.8997749e-05  -4.0251343e-05  -5.0688883e-05  -9.3139242e-05  -9.7404045e-05  -1.3508312e-04   1.9946106e-05   3.7980662e-05   8.0603924e-05  -5.5710916e-05  -9.7250650e-06   1.4183779e-05  -1.1235017e-04  -6.4396147e-05  -9.3741321e-05  -8.5345768e-05  -3.2512085e-05   4.8238679e-05  -4.8316149e-05   2.7831771e-05   2.8062477e-05  -1.3623679e-04   1.0143738e-05  -5.8689242e-05  -4.5470335e-04  -1.4521363e-04   9.7323800e-06  -1.6810822e-05  -1.2702002e-04  -2.8654566e-04   8.6029693e-05   4.1145158e-05  -4.5828663e-05  -9.8265744e-05  -8.9591216e-05  -1.6281666e-04   4.9745940e-05   1.1112264e-04   9.0772861e-05  -2.8550237e-05  -1.4194021e-04  -1.1679365e-05   1.5972224e-05   5.7584552e-05  -4.1679894e-05  -1.2728022e-05  -9.5367366e-05
  -2.2536771e-05   1.5657355e-05  -4.4125889e-05   9.8987121e-06  -1.2614008e-05  -2.9408442e-05  -4.2614884e-05  -3.9869607e-05  -1.4367894e-05   1.3076208e-05   3.0166912e-05   6.8519665e-05  -8.6593383e-05   2.3815261e-05  -4.6430559e-05  -1.1667942e-04  -1.4988548e-04  -1.8258671e-04  -4.5351586e-05  -3.7268284e-05   8.0371072e-05  -1.4824971e-05   1.8315761e-05   3.2949909e-05  -1.9712574e-04  -1.1427815e-05  -6.3132291e-05  -1.6134886e-04  -1.2498398e-04   7.1118848e-05  -1.1202829e-04  -3.1593750e-04   1.4721272e-04  -1.1806952e-05  -1.0505833e-05  -4.8274655e-05   4.5752633e-05  -1.2269845e-04  -1.0239598e-04  -8.2107948e-07   6.2146843e-05   7.8737292e-05  -1.7399879e-04  -1.0635814e-04  -1.1463620e-05   1.1162300e-04   3.1374089e-05  -5.6263376e-05   9.5939849e-06  -9.1424830e-05
   1.5904083e-05   1.5350199e-05  -3.3980847e-05   8.0208592e-06  -2.9712590e-05   2.3257492e-07  -2.2294418e-05  -1.1057911e-04  -9.1736838e-05   1.0805969e-05   2.1359230e-05   7.5877768e-05  -5.7384328e-05  -2.0821441e-05  -1.9655156e-06  -1.3598587e-04  -1.3213338e-04  -2.0139561e-04  -1.1919759e-04  -2.8857508e-05   9.1164235e-05  -3.9902616e-06   4.1503943e-05   1.7864311e-05   1.6690392e-04   1.4504149e-05  -3.1439227e-05  -3.3042583e-04  -1.6527316e-04   1.4504693e-06  -1.5523560e-04  -1.5894708e-04  -1.9751982e-05  -4.2586078e-05   4.4739823e-05   1.5294649e-05  -1.2870028e-04  -1.5843169e-04  -1.0163874e-04  -1.2120473e-04   2.3300614e-05   2.1780137e-05   4.5601664e-05   3.7752194e-05  -4.3317326e-05  -4.2229560e-05   4.9509930e-05  -4.4978689e-05   1.8551367e-05  -1.4290056e-04
   7.5687071e-06   3.5725559e-05  -5.1720657e-05   1.8022842e-05  -3.4004537e-05  -3.8577105e-05  -4.3218952e-05  -2.7122775e-05  -1.9546032e-04  -2.4670011e-05   1.9704199e-05   7.5222117e-05  -1.2080192e-04  -2.0788155e-05  -9.5296105e-05  -1.9005407e-04  -3.1114041e-04  -4.4442512e-04  -5.9988899e-05  -7.3290044e-05   1.4638515e-04   1.2953843e-04  -1.0937213e-05   8.1196093e-05  -2.0828962e-04   7.0150904e-06  -1.5883570e-04  -2.7267728e-04  -2.7496973e-04   2.2055632e-05  -2.0694012e-04  -4.1931780e-04   1.3649090e-04  -9.0852845e-06   1.0260486e-04   1.0464998e-04   1.2027698e-05  -3.7250004e-04  -1.3581755e-04   4.5216821e-06  -5.8254442e-05   7.7642719e-05   1.7771988e-05   2.2419727e-04  -3.2105527e-05   1.2817247e-04   4.2420026e-05  -8.7341432e-05  -3.7433714e-05  -9.2952168e-06
   5.7917159e-06   3.5450099e-05  -1.3820068e-05   1.0001550e-05  -2.6236999e-05  -7.5852717e-05  -3.1882060e-05  -7.1289207e-05  -1.0543528e-04  -3.2876702e-05   3.9965158e-05   9.3590163e-05  -1.1705291e-04   3.1767730e-05  -2.4719839e-06  -2.4042417e-04  -3.7577379e-04  -5.4177165e-04  -5.7376481e-05  -9.8306395e-05   1.7118597e-04   2.1295731e-04  -3.7524453e-05   9.6460906e-05   7.5263728e-05   4.9593377e-06   9.9498511e-06  -5.1178155e-05  -2.3425026e-04   7.7594552e-05  -3.7954011e-04  -6.6683447e-04   5.0131111e-05  -1.6522203e-05   8.3311170e-05   7.2063543e-05  -1.4877201e-05  -5.1293592e-04   9.0942303e-05  -2.0281637e-05  -5.3948890e-05   1.1830224e-04  -6.9912210e-05  -1.9730702e-04  -1.3825609e-04  -7.1645060e-05   7.0104848e-05  -1.1665211e-05  -5.9695780e-05   7.0662754e-06
   2.6803964e-05   4.5856363e-05  -3.5965837e-05   6.4041626e-05  -1.2106801e-05   1.9311905e-05  -2.7065864e-06   2.1185465e-06   3.6567420e-05  -3.3408152e-05   3.5597503e-05   8.3912702e-05  -1.1524873e-04  -7.9841520e-06  -6.5784101e-05  -2.2313121e-04  -3.8653790e-04  -5.6340516e-04   2.1721116e-05  -6.7490924e-05   2.0683496e-04   2.1343576e-04   1.9208852e-05   5.0861629e-05  -7.4792457e-05   1.8511231e-05  -4.4933742e-05  -2.8566876e-04  -2.9065640e-04   5.9057016e-05  -4.2607312e-04  -5.5942219e-04  -7.8757364e-07  -3.0188899e-05   1.9115476e-05   7.9376885e-05  -1.2078465e-05  -4.3197870e-04  -1.7325365e-05   1.9035899e-05   5.6530314e-04  -8.6656592e-06   1.5160067e-04   1.3724770e-04   5.0887360e-05  -8.7670232e-05   4.4576303e-05  -7.3754163e-05  -5.6295081e-05  -9.8764132e-05
   1.0604273e-05   5.0098901e-05  -3.8884802e-05   4.4955959e-05  -1.2827495e-05  -6.0345239e-05  -1.1917316e-05  -4.4281824e-05  -7.9541394e-05  -3.5142646e-05   2.1409689e-05   6.3937667e-05  -1.1448185e-04  -6.6735684e-06   3.5965528e-05  -2.0394148e-04  -3.4305436e-04  -4.4562269e-04   2.9849967e-05  -5.8490699e-05   2.1092498e-04   1.7522425e-04  -9.3105564e-06   8.0453676e-05   8.4649455e-06  -1.9481349e-06  -6.4753527e-05  -7.8193902e-05  -2.1763556e-04   6.7718443e-05  -3.2850081e-04  -5.1430747e-04   2.0735110e-04   4.4755070e-05   1.1057557e-04   1.5778802e-04   1.5071045e-04  -3.5351425e-04   1.0435222e-04  -8.8597153e-05  -2.0235994e-04   5.6408018e-05   3.9594244e-05   1.4544486e-04  -1.4873642e-04  -1.5638230e-05   7.3634284e-05  -3.2186013e-05  -4.9954695e-05  -2.2182921e-05
   2.8652430e-06   4.6303394e-05  -3.3740595e-05   3.9290833e-05   4.8371567e-06   9.2836927e-07  -4.2921907e-05   2.5487156e-05  -7.7964163e-05  -2.3248598e-05   1.7497412e-05   6.5283042e-05  -9.2085385e-05  -5.3165309e-06  -2.4433111e-05  -1.9464054e-04  -3.6990971e-04  -4.6848317e-04   4.6435875e-05  -9.7377299e-05   2.4228470e-04   1.9516665e-04   8.0577069e-05   9.7663353e-05  -4.5836068e-06   1.7672657e-05  -5.9436130e-05   3.2894834e-05  -2.9967431e-04   1.0517168e-04  -3.6910968e-04  -6.1129034e-04   8.7567081e-05   4.2054857e-05   1.4814379e-05   5.4976463e-05   1.4868376e-04  -5.2624900e-04  -1.0102784e-05   4.2767842e-05   6.7020001e-06   2.1497421e-05  -7.8400684e-05   3.0595442e-05  -6.2556304e-05   2.2175495e-06   6.8764224e-05   1.8789136e-05  -7.6177448e-06  -9.4555442e-05
   2.1114562e-05   6.8382295e-05  -5.5852743e-05   8.5300460e-05  -6.7438009e-07   4.7061872e-05   4.4480297e-05   3.6352805e-05  -4.0013234e-05  -2.3315095e-05   5.2509004e-05   5.3961801e-05  -1.2904425e-04  -1.2548499e-05  -3.0535604e-05  -2.6480632e-04  -5.0221634e-04  -6.5882748e-04   8.9636218e-05  -9.1644361e-05   2.7055474e-04   3.5340688e-04   7.8002362e-05   1.3199126e-04   5.6003792e-05   3.4029665e-05  -4.6562796e-05  -8.8889232e-05  -2.8833165e-04   5.4523938e-05  -4.0918213e-04  -7.1319885e-04   1.9765784e-04  -1.3648525e-05   6.3621861e-05   6.8740708e-05   2.6339744e-04  -5.1252882e-04   2.2153601e-05   3.1346393e-05   3.1636879e-04   6.5195702e-05   2.3223593e-05   1.0314739e-04  -2.0576868e-05  -3.7694113e-05   6.8201516e-05   3.2270094e-05  -7.6942757e-05  -2.9829980e-05
   7.0957763e-06   6.7505694e-05  -5.1236133e-05   5.8602451e-05   1.0887027e-05  -4.1536600e-06   2.0082580e-05   4.7764366e-05  -4.4933953e-05  -2.0660240e-05   3.9405128e-05   6.3406173e-05  -1.0405349e-04  -1.3238077e-05  -3.0143410e-05  -2.2760380e-04  -4.1171163e-04  -5.2560214e-04   2.5145526e-05  -7.8954174e-05   1.9644255e-04   1.8923686e-04   6.4709202e-05   9.9604913e-05  -2.1474673e-04   3.2666347e-05  -3.0531461e-05  -2.5274569e-05  -2.8065735e-04   8.6257525e-05  -2.7132823e-04  -6.3799508e-04  -5.1656402e-06   2.0155640e-05   7.5800948e-05   1.3099979e-04   2.3574340e-04  -4.1012964e-04  -2.8547163e-05  -6.1321734e-05   3.0911047e-05   9.5332298e-06  -2.2682850e-04   1.6435029e-04   5.6238881e-05  -1.8684892e-05   6.7490852e-05   2.2378057e-05  -4.4811950e-05   3.7506874e-05
   1.3688972e-05   7.2928109e-05  -4.0631894e-05   6.2532585e-05   3.0364242e-06   5.5934811e-07   1.7975108e-05   2.2780319e-05  -2.1625665e-05  -1.8060189e-05   2.7015702e-05   6.6208981e-05  -9.2637893e-05  -4.2093552e-06  -5.1282819e-05  -1.4835388e-04  -2.3766082e-04  -2.4069684e-04  -1.2057379e-05  -7.1659590e-05   1.3889134e-04   9.3910865e-05   3.2810494e-05   5.0620896e-05   1.3128931e-04   6.5506465e-06   1.8767534e-05   1.3337279e-04  -8.4860047e-05   6.9645052e-05  -1.4140290e-05  -9.5035211e-05   3.6554145e-05   3.4669782e-05  -2.9021285e-05  -6.8622121e-06   2.0429122e-04  -2.3206653e-06  -8.8303095e-05   9.1583834e-06  -7.3192365e-05   1.7934790e-05   2.1463591e-06  -3.2661442e-04   4.6201403e-05   4.1747415e-05   3.4694294e-05  -1.1841791e-04  -1.4636789e-05  -5.5459699e-05
  -3.1228232e-05   4.6650468e-05  -1.6289037e-05   2.6699676e-05   2.1564325e-05  -9.1670345e-06  -5.2765304e-06  -7.2448870e-06  -2.3528110e-05   1.1505909e-05  -3.4273576e-06   6.6495129e-05  -1.4625668e-05  -3.4540160e-05   9.4893221e-05  -3.7663212e-05  -1.3802219e-05  -1.1225585e-04   6.6008281e-05  -4.8661004e-05   4.5684192e-05  -6.0839720e-06  -1.3234507e-05   2.2156268e-05  -3.9139064e-05   5.8541722e-05   2.7622891e-05  -2.7661710e-05  -8.3948602e-05   7.1998322e-05   8.5671374e-05  -3.4485423e-04   3.1374107e-05  -2.7807393e-05  -2.8096027e-05   1.5443278e-04   1.1080502e-04  -1.8909357e-04   1.3058001e-04  -4.7446236e-05  -1.6677928e-04  -6.0228369e-05   1.6655440e-05  -3.8019957e-06   1.0679338e-04   6.7563319e-06   6.3343818e-05   1.8536270e-05   1.4939716e-05  -1.7040742e-05
  -6.9814552e-05   1.3151080e-05   2.6547648e-05  -1.5762043e-05   1.3106634e-05  -3.8432168e-05  -8.2180559e-05  -5.3346914e-05  -6.0799437e-05   2.4214218e-05  -2.2467080e-05   4.7983467e-05   1.3158257e-05  -2.0166201e-06  -1.0109837e-06   8.0917662e-06   1.0578407e-04   6.0422017e-06   8.3538298e-06  -7.1756594e-06   3.3633485e-06  -8.2002894e-05   4.0318311e-05  -1.2542033e-06  -3.0727886e-05   2.8442848e-05  -2.3162062e-05  -3.0899334e-06  -1.7273705e-05   1.0490385e-04   1.9685646e-04  -8.9887719e-05   5.2889372e-05   4.4439239e-05   1.0505893e-04   2.0055746e-05  -5.6144934e-05  -5.3993688e-05   6.2005463e-05   9.9222583e-05  -2.4714199e-04   2.8490587e-05   3.5953639e-05  -3.3720200e-05  -3.2943979e-05   2.0616471e-05   5.0247145e-05   2.2436972e-05  -5.7161436e-05  -2.8084705e-05
  -5.6326404e-05   1.4743568e-05   1.4378916e-05  -1.9439662e-05   2.1667984e-05  -2.7015267e-05  -1.8104116e-05  -6.2079351e-05   7.3204930e-05   1.4766380e-05  -4.2344650e-06   6.4882239e-05  -2.2326425e-05  -6.7400929e-06   2.5047859e-05  -1.0391042e-05   7.4434822e-05   1.3092019e-05   1.0717553e-04  -9.8247083e-06   4.2612046e-05  -5.3133132e-05   1.1167010e-05   3.5342337e-06  -2.3184068e-04   1.6369851e-05   2.0048701e-05  -7.9905119e-05  -9.7926750e-05   8.2670238e-05   1.0116209e-04  -2.1357130e-04   5.8642734e-05   2.3425764e-05   4.3152992e-05   2.8634751e-05   9.4065603e-05  -1.6767069e-04  -1.5068187e-05  -1.3369534e-04   1.2697378e-04   3.0521798e-05  -2.9534485e-05  -1.8737096e-04  -1.9932679e-06   3.3786779e-05   1.7559554e-05  -1.1523965e-06  -5.0230909e-05  -4.6116620e-05
  -7.5842596e-05   5.0987042e-06   3.9771010e-05  -3.9007464e-05  -2.5322406e-05   2.6233472e-06  -2.7687927e-05  -2.9159137e-05   1.3649958e-05  -2.4955198e-06   1.4473582e-06   4.9846258e-05  -9.4185771e-06  -3.6248286e-05   1.9504152e-05  -9.1317917e-05  -1.2750742e-04  -3.4268768e-04   1.3385926e-04  -3.3731714e-05   1.0746931e-04   9.2122551e-05  -1.4032616e-05   3.3367392e-05   1.7668885e-04   1.3049353e-05  -1.2467707e-04  -2.4688020e-04  -3.5583388e-04   5.8675487e-05  -2.7020127e-04  -7.2045979e-04   7.4249700e-05   3.2226813e-05   1.6907907e-07   1.1033298e-04   1.6682483e-05  -7.2752207e-04   2.4275765e-05   1.1718388e-04   1.0231762e-04   1.0138198e-04   1.6379348e-04   2.4666521e-04   1.5288834e-04  -1.8825314e-04   8.9098430e-05   4.6944235e-05  -8.9322239e-05   1.0505388e-04
  -5.1105515e-05   2.0075482e-05   4.0357281e-05  -2.2166923e-06   1.0158889e-05   2.6449905e-05  -2.5629677e-05   6.1801060e-05   4.5766654e-05  -4.8146216e-05   3.7860245e-05   4.4022978e-05  -4.4952834e-05  -5.3484146e-05  -1.6169763e-05  -2.0252334e-04  -3.4481793e-04  -6.9642172e-04   1.1197921e-04  -7.7996570e-05   1.8815542e-04   2.0786308e-04   3.7717669e-05   6.8610905e-05   6.6692788e-05  -9.8092312e-07  -1.4124751e-04  -1.0420409e-04  -4.8955926e-04   1.1354416e-04  -4.4113514e-04  -1.0037745e-03   1.7237031e-05   4.7194579e-05   3.7434573e-05  -3.2524167e-05   1.5592194e-04  -9.6221536e-04  -7.5393233e-05   2.2981258e-04   4.7692770e-06   1.1084985e-04   8.2274259e-05   1.8238674e-04   6.0173577e-05   5.1570583e-05   7.5804048e-05   8.8818990e-05  -5.6394445e-05   1.3835068e-04
  -2.5693960e-05   2.6633325e-05   4.3377375e-05   1.3772817e-05   1.7258484e-05  -3.3385822e-06   7.8050834e-06  -5.4264328e-05  -2.7193331e-05  -7.2176903e-05   5.9235306e-05   4.1383675e-05  -8.6989749e-05  -8.7132728e-05  -2.9338527e-05  -2.5451745e-04  -4.2927169e-04  -7.8266626e-04   7.1110662e-05  -8.6898159e-05   2.0939176e-04   3.1786019e-04   1.4706999e-04   1.3463893e-04   1.4830971e-04  -1.8864584e-05  -3.6847432e-05  -1.2689581e-04  -4.8075980e-04   5.0697014e-05  -5.1468809e-04  -1.0488072e-03   2.5174886e-04   3.4235087e-05   5.6059929e-05   1.4425773e-05   2.0712406e-04  -9.6090254e-04  -1.1554905e-04   7.7778517e-05   1.8221127e-04   1.0596068e-04   2.8721872e-04   2.0181977e-04   7.1794610e-05   1.5750637e-04   1.2239441e-04   5.6369761e-05  -1.3349261e-04   1.5174423e-04
  -1.8015859e-05   3.0680378e-05   2.3069748e-05   4.5855046e-05  -1.6442680e-05   5.0090872e-05   3.1508130e-06  -2.0835449e-05   6.2957421e-05  -3.4730529e-05   9.8576209e-05   6.0707043e-05  -5.9724607e-05  -4.1903364e-05   5.8632822e-06  -3.2932643e-04  -5.5281393e-04  -9.9291280e-04   2.1870577e-04  -9.8388569e-05   2.2035530e-04   4.3805712e-04   1.6011673e-04   2.5947299e-04   2.4914244e-04   1.9283643e-05  -1.5522170e-04  -1.8032546e-04  -5.6543574e-04   5.9821999e-05  -5.7737227e-04  -1.2305886e-03   2.1997507e-04   1.2510973e-04   8.0480750e-05   2.9512454e-04   2.4608913e-04  -1.1393911e-03   4.0379673e-05   1.5286695e-04   2.2364956e-04   1.5868731e-04   6.3820749e-05   1.8498111e-04   1.3129029e-04  -2.1705122e-05   1.8340323e-04   7.0431030e-05  -2.0107820e-05   6.0529554e-05
   1.6158809e-05   4.1512198e-05   3.3596090e-05   6.1814600e-05   1.7163886e-05   5.6834768e-05  -1.3588203e-06   1.4854856e-05   9.0272908e-05   2.4062210e-05   1.1026527e-04   1.0449703e-04  -7.2969983e-06  -6.1234068e-06  -4.0927014e-05  -2.3364955e-04  -4.1390286e-04  -7.0880062e-04   1.7135704e-04  -2.8293822e-05   1.6521754e-04   4.1302975e-04   7.4273237e-05   1.7175947e-04   2.0318163e-04   1.0161129e-05   7.3750904e-05   7.8974168e-05  -3.5248973e-04   1.4110905e-04  -3.3064446e-04  -7.0046907e-04   2.2069973e-04   7.8241283e-05   7.7141987e-05   8.4975843e-05   2.3940322e-04  -5.3649012e-04  -1.6904683e-04  -9.8318342e-05  -4.7694026e-05   4.8262678e-05   1.0383919e-04   5.6534693e-05   8.6753801e-07   2.1657989e-04   1.0514489e-04   1.1680476e-04  -5.2041486e-07   1.4662401e-04
  -8.7031985e-05   1.3727112e-05   8.0263853e-05  -6.1480758e-05   2.4384441e-05   6.8246525e-05  -4.0459472e-05   6.7696055e-05  -1.4893268e-05   3.4370860e-06   2.3912025e-05   6.6299552e-05   1.7498586e-04   9.9021199e-06   4.3132735e-05   1.6922760e-04   4.2761778e-04   1.8283544e-04   1.2106411e-04  -1.3686549e-05  -1.5708168e-04  -9.7731259e-05   4.9381655e-05  -1.0539505e-04   1.1857366e-04   9.7427685e-05   2.0383446e-05  -8.0818158e-05  -9.0037371e-05   1.1255320e-04   2.0616227e-04  -3.2141828e-04  -1.0706368e-04   1.7150871e-04   1.5760685e-04   1.3332644e-04   2.4765621e-05  -2.4130884e-04  -1.9531012e-04  -7.6191980e-05  -2.9965580e-05  -1.1955683e-05   1.1369819e-04   1.5669338e-04   1.7187022e-05  -1.5317518e-04   4.7809252e-05   2.0329742e-06  -1.3011876e-04   6.9258596e-05
  -1.4416085e-04  -2.7815633e-05   7.7499877e-05  -8.5328807e-05   1.1876799e-05   4.4397475e-05  -5.7383688e-05   3.3025619e-05  -9.2860442e-05  -2.3822533e-05  -1.4456235e-05   4.6825098e-05   1.4265151e-04  -6.9668153e-05   4.7601156e-05   1.6841592e-04   4.1607977e-04   2.0684249e-04   4.8231363e-05   1.3379425e-05  -1.5782772e-04  -1.4923702e-04  -3.6334248e-05  -1.2498075e-04   6.8921843e-05   7.1599316e-05   8.7651308e-05  -1.3433101e-04   6.4532112e-05   8.8303466e-05   2.7914593e-04   2.7622178e-05  -4.8753453e-05   4.6549594e-05   1.8419727e-04   1.0291815e-04   1.0963650e-04  -3.4037748e-06  -1.9185323e-05  -1.8901008e-04  -2.1902139e-04  -5.9075399e-05   6.8959860e-05   1.7123524e-04  -3.2203596e-05   7.1275666e-05   4.3278316e-05   1.2195778e-04  -1.2366968e-04   8.4586114e-05
  -1.3423113e-04  -2.3373821e-05   3.9437862e-05  -7.5111901e-05   2.6383548e-05   2.2681392e-05  -6.7709596e-05   2.3535456e-05  -5.4872784e-05  -1.0002371e-05  -2.4537250e-05   3.1836837e-05   8.4312909e-05   1.4488355e-05   8.2556107e-05   9.1977243e-05   1.9892295e-04   6.7862629e-06  -2.2356633e-06  -6.3768316e-06  -3.4600816e-05  -7.0215188e-05   3.4123306e-05  -5.3584929e-05   2.8576463e-04   5.1987423e-05   5.9331214e-05   6.9277041e-05   1.0960809e-05   8.9819929e-05   8.1435515e-05  -2.3213416e-04   1.5562073e-05  -1.0761387e-04   2.3860375e-05   1.1666006e-04   1.7635516e-04  -1.0664870e-04   1.1691778e-05   6.7212145e-06  -8.6432825e-05  -1.6163454e-05  -1.8262742e-04  -6.0451657e-05   1.9021876e-05   8.5706597e-05   6.2686013e-05   2.1958374e-05  -7.1079121e-05   2.8738970e-05
  -5.4813281e-05   9.6332451e-06   1.1250307e-05  -3.3599841e-05   1.2796115e-05  -2.5954498e-05  -3.8676913e-05   1.6193806e-05   4.9156944e-05   1.4276752e-05  -4.4338972e-06   2.4597803e-05  -8.0226891e-06   1.5870594e-06  -2.4614110e-05   8.2436878e-07   1.0276528e-04  -4.3339111e-05   1.2642611e-04  -2.2431268e-06   2.5969823e-05  -1.3881859e-05   5.0170322e-05  -3.8613602e-05   3.0022542e-05  -1.5918939e-05   1.3295265e-05  -1.6235151e-04   1.3655791e-05   1.6452521e-05  -5.6356323e-05  -1.3466558e-04  -1.2442071e-04  -3.7259368e-05  -1.0903073e-05   3.3028176e-05   1.6480940e-04  -4.4461605e-05  -5.7598907e-05  -8.1763494e-05  -1.7522564e-04  -3.9260016e-05   1.5516144e-04   3.2559456e-05   3.3167298e-06   1.0222372e-04   5.1637915e-05   4.7664791e-05  -7.6149598e-05   5.8775749e-05
  -8.8077206e-05   1.4853809e-05   7.0395522e-06  -1.6061511e-05  -6.9487005e-06  -2.8676170e-05  -3.9868378e-06   7.4849428e-05   1.8324705e-05   2.3343289e-05   2.2382208e-06   2.1078080e-05   7.7847417e-06  -2.6360167e-05   6.6073560e-05  -3.5665180e-06   9.8274970e-05  -2.7462678e-05   1.8160024e-05   9.1055817e-06   2.3503577e-05  -2.5240155e-05   7.6944118e-05  -5.2430503e-05  -1.0312385e-04   2.8617565e-05  -3.0920375e-05  -8.1509133e-05  -4.1476294e-05   2.0680174e-05  -3.7536145e-05  -1.4800212e-04   2.2925278e-04   7.5286029e-05   1.1297836e-04  -3.0972195e-05   2.1228319e-04  -1.6075028e-04   8.3104140e-05  -1.1834790e-04   4.1967785e-04  -5.2871626e-05  -9.8677374e-05  -3.5688950e-05  -5.6970079e-05  -1.8505268e-04   5.5132245e-05   4.8359405e-05  -8.0596728e-05   1.1653209e-04
  -1.9665327e-05   2.5910838e-05   1.7388288e-06   3.6964475e-06   1.6515558e-05  -3.8764316e-05  -8.5962065e-06   4.0361589e-05   4.6561727e-05   2.2557226e-05   1.0552576e-05   2.1392148e-05   4.5260754e-06  -2.6545315e-05  -3.8502672e-05  -1.4437246e-04  -1.4251684e-04  -3.1386415e-04   1.8947299e-04  -1.8373456e-05   6.9206115e-05   1.0770537e-04  -3.1894207e-05   7.4575277e-05   6.7642337e-05  -1.1940728e-05  -3.8264293e-06   1.0821936e-04  -1.8173737e-04   7.3291281e-05  -1.9844489e-04  -3.9442620e-04   3.3157899e-05  -4.3315893e-05  -1.8315422e-05   7.6652977e-05   3.1736374e-04  -4.3446783e-04   5.9564358e-05   9.0743524e-05   2.5525765e-04   3.6736019e-05   7.1419432e-05   1.0612847e-04   3.4653774e-05   2.3010971e-05   6.9695285e-05   3.0974028e-05  -7.3672709e-05   2.5653369e-05
   3.8094353e-05   5.5419008e-05  -6.5053682e-06   4.6952184e-05   1.0643628e-06   6.6739500e-05   3.2643529e-05   7.4452735e-05   1.5875378e-04   1.4480240e-05   2.0529103e-05  -7.7458944e-06  -3.9368268e-05  -1.5351598e-05   6.7926718e-05  -2.0977786e-04  -2.4728762e-04  -4.8339911e-04   7.5221375e-05  -3.6328023e-05   1.2826051e-04   2.2931598e-04   7.6597658e-05   8.1401369e-05  -1.2674015e-04   1.0549255e-05  -1.8194411e-05  -7.1599963e-05  -3.4232117e-04   1.2432994e-05  -3.5161103e-04  -5.3970452e-04   1.7053283e-04  -2.8739461e-05   6.8208326e-05   8.3204744e-05   1.5123897e-04  -6.1234139e-04  -1.5649417e-05   9.3359449e-05   8.0144837e-06   3.0338637e-05   2.1409652e-04   4.2977390e-05  -5.9120677e-05  -6.7152017e-05   8.1085353e-05   8.3275605e-05  -1.1198296e-04   1.0116777e-04
   3.8644452e-05   6.7785040e-05  -1.7899274e-05   5.0173770e-05   8.3912164e-06   3.2294161e-06   3.1593074e-05   7.3198265e-05  -5.9772278e-06   1.1322762e-05   3.9327599e-05   1.3298019e-05  -6.9954804e-05  -8.2249644e-06  -6.5710461e-05  -2.4962690e-04  -3.6228384e-04  -6.1180885e-04   1.1131438e-04  -3.7378417e-05   1.6237896e-04   2.6070452e-04   1.0501008e-04   1.2663793e-04   1.1000866e-04  -4.8828784e-05  -7.1773437e-05  -3.7543048e-06  -2.8931414e-04   4.4895361e-05  -3.3515581e-04  -6.6205137e-04   1.0057034e-04   4.3967293e-06   1.1149773e-05  -5.7294628e-06   2.0189270e-04  -6.0274417e-04  -6.0155602e-05  -6.9604248e-06  -1.7212042e-04  -3.9720376e-06  -7.4866934e-05   2.4529779e-04   6.8502733e-05   7.7657227e-05   9.9463250e-05   8.7927139e-05  -1.2370221e-04   6.4504551e-05
   5.7503006e-05   6.8065405e-05  -2.0132773e-05   8.3889492e-05   1.9611642e-05   3.9606388e-05   5.7053949e-05   8.6969713e-08   8.2851831e-05   1.4809310e-05   6.4914209e-05   4.4912949e-06  -6.2934218e-05  -1.5296693e-05  -2.4742605e-05  -2.2727285e-04  -3.3126475e-04  -5.3005578e-04   7.8865683e-05  -3.6270150e-05   1.3580648e-04   2.7750211e-04   1.4259397e-04   1.1901261e-04   6.6655070e-05   6.7584501e-06   2.4354425e-05   3.0688985e-04  -2.4596433e-04   8.9544490e-05  -2.3620803e-04  -4.0813198e-04   3.3385910e-05   5.2184656e-05   2.7986216e-06   5.4946679e-05   2.4103517e-04  -4.9169775e-04   5.1743122e-05   1.5402520e-04  -7.1010363e-05   2.6142578e-05   1.3734994e-04  -3.6721904e-06   2.3260256e-05  -1.5733590e-04   7.0297778e-05   1.1423884e-04  -5.0099530e-05   6.5260610e-05
   6.9297792e-05   5.6049019e-05  -1.1300374e-05   6.8091082e-05   2.8451739e-06   5.1873547e-05   2.6005575e-05   7.8902944e-05   9.7517761e-05   1.8673558e-05   2.2901102e-05   7.8189896e-06  -3.1964391e-05   1.6384829e-05   2.4672211e-06  -1.4507223e-04  -9.5308416e-05  -2.3707261e-04   1.0063271e-04  -6.5135150e-06   4.7630187e-05   1.2983313e-04   4.0542742e-05   4.4099361e-06   8.2549719e-05   4.2274882e-05   8.8227622e-05   9.1978116e-05  -1.4777077e-04   3.2207899e-05  -6.3109961e-05  -2.1932955e-04   2.4851377e-04   4.3095726e-05  -2.3571316e-05   2.7956339e-05   1.4301931e-04  -2.9518589e-04  -4.6763413e-05  -2.9236504e-05   1.7982474e-04   3.6738486e-05  -1.2007265e-04   1.4258470e-04  -5.4852862e-05  -8.3225372e-05   6.5093685e-05   1.2428543e-04  -8.5153464e-05   4.3531665e-05
   3.9136659e-05   5.6683395e-05   1.0063251e-05   2.5715477e-05   1.1678858e-05   1.3754698e-06   3.7646987e-06   7.2244715e-05   1.0300577e-04   1.8892677e-05  -2.5065463e-06   1.1237408e-05   4.7776637e-05   4.2734890e-05   2.8577284e-05   9.5258993e-06   1.7483319e-04   1.4783409e-04   6.3925967e-05   4.4790653e-05   9.3321960e-06  -1.3136066e-05   2.6496411e-05  -6.6054105e-05   4.2932443e-05   7.0596514e-05   2.0488181e-04   2.3198794e-04   1.2818135e-04   6.5765962e-05   3.2750945e-04   3.2188723e-04   1.4134698e-05   2.5112480e-05   3.7955697e-06   1.0640578e-04   2.2629736e-04   2.1593494e-04   3.0283592e-04  -1.2608763e-04   2.7782770e-04  -4.9779384e-05   1.9131992e-04   1.2538306e-04   2.7046303e-06  -4.1771382e-05  -9.9940853e-06   4.4908138e-05  -7.6550044e-05  -7.2174364e-05
  -7.6902645e-05  -1.3684062e-05   6.7139590e-05  -7.7517623e-05   2.8525845e-05   2.3399307e-05  -5.7158981e-05   6.6699147e-05  -9.0494381e-05  -1.6107735e-05   7.6991028e-06   2.9546732e-06   1.5959308e-04   6.2233928e-05   8.2845654e-06   1.7606489e-04   4.6137994e-04   4.8912427e-04   3.6516194e-05   3.8705188e-05  -8.6882676e-05  -1.0673689e-04  -5.5490018e-05  -1.0573254e-04  -1.2304848e-04   9.0211397e-05   1.0787370e-04   4.4715745e-04   1.4442526e-04   7.9361351e-05   4.1740166e-04   4.2160635e-04  -2.6206474e-04   1.2423837e-05   9.1077287e-05   5.3999240e-05   9.8881537e-05   2.1429156e-04  -1.1710872e-05  -1.2618107e-04  -1.7370151e-04  -2.5877105e-05   1.2791032e-04   2.1882606e-05   5.0257809e-06   2.6244164e-04  -8.7799554e-06   5.2061190e-05  -6.1758248e-05   7.8183017e-05
  -4.1498552e-05  -2.5718300e-05   4.1636606e-05  -7.2551004e-05   2.0068772e-05  -4.3422118e-05  -2.8248160e-05   9.2871909e-05   7.1526672e-05  -3.5914924e-05   6.4609371e-06  -1.3775902e-05   9.7561380e-05   9.0381101e-05   4.5457691e-05   9.6589756e-05   3.8245172e-04   3.8153087e-04  -2.6725444e-05   2.2089347e-05  -1.3951084e-04  -9.9664190e-05   2.6933392e-05  -1.0585885e-04  -9.1536123e-05   1.6471089e-05   6.1875035e-05   2.1290074e-05   7.1481256e-05   9.1162228e-06   2.5869563e-04   2.3009675e-04  -2.7313648e-04  -8.2569430e-05   1.5903528e-04   5.0204981e-05   7.8296565e-05   9.2447808e-05  -2.0055748e-04  -1.1656058e-04   1.2264666e-04  -8.3057173e-05  -6.0760005e-05   2.4635400e-04   2.7472714e-05  -4.1943244e-05  -4.0961200e-05   6.7986497e-05  -4.1503965e-05  -5.1986972e-05
  -4.3265525e-05  -2.4363693e-05   2.2293554e-05  -7.3661249e-05   1.5733351e-05   4.1038820e-05  -9.6107024e-06  -3.2116990e-05   3.0334197e-05  -1.8996314e-05  -1.4572432e-06  -1.4799283e-05   8.7496970e-05   7.2287774e-05  -2.6403141e-05   5.9994913e-05   2.8748307e-04   2.4087625e-04   7.3478232e-06   1.1914250e-05  -1.2310452e-04  -1.4090640e-04   1.2265943e-05  -5.6827714e-05   1.3366654e-04   7.0425049e-06   6.3085819e-05   1.5208664e-04   4.2152205e-05   2.8252349e-05   1.9205443e-04   2.2837748e-04   1.2075117e-06   1.4249969e-04   1.3972884e-04   3.9462113e-05   1.1367829e-04   7.3002841e-05  -7.1284444e-06  -1.5243459e-04  -9.9303594e-05   1.4123944e-05  -1.7065075e-04   9.0849506e-05  -1.5878304e-05   4.1833177e-05  -9.7952015e-06   4.9600552e-05  -5.2633513e-05   2.4992340e-05
  -3.6679907e-05  -3.5180026e-05   1.3019145e-05  -8.8590918e-05   3.0165873e-05  -1.0594117e-05  -1.1148321e-05   3.0545045e-05   2.7660990e-05  -3.4143388e-05  -5.3213230e-06  -2.3545430e-05   6.1960884e-05   9.9830286e-05   1.0912831e-04   4.7043115e-05   2.4229355e-04   2.0683539e-04  -1.7179314e-05   4.0247411e-05  -9.0281406e-05  -6.1696497e-05   4.1403240e-05  -1.6606547e-05  -4.8430702e-05   2.1312315e-05   8.7293753e-05   2.5921033e-04  -1.7352686e-05   4.2142376e-05   1.1107161e-04   5.1707859e-05  -1.7964665e-04   5.9277605e-05   2.5021995e-05   1.3372088e-04   1.9992863e-04  -1.6412608e-04   1.2186942e-04  -9.7970205e-06   1.6317068e-04   1.2750043e-05   1.7420956e-04  -1.7539195e-04  -7.8492412e-06   1.1200087e-04   6.6126509e-06   6.7023604e-05  -7.6781944e-05  -2.5527028e-05
   4.2601070e-05   1.3763021e-06   3.4110444e-06  -2.0780537e-05   6.6241505e-06   5.4574633e-05   8.0903097e-05   8.3952949e-07   1.0703379e-04  -2.4987619e-05   4.1391766e-05  -6.8627251e-06  -9.2632918e-06   7.1662143e-05   4.5542383e-05  -1.2069217e-04  -1.1107563e-04  -2.2092470e-04   1.5335542e-04  -5.0847179e-06   2.8817796e-05   8.4119754e-05   2.1288832e-04   9.1227739e-05   2.0627488e-04  -1.3319384e-05  -2.9602414e-05   2.0374484e-04  -9.1557013e-05   2.2947424e-05  -2.5631225e-04  -4.3295894e-04  -9.2138347e-05  -3.5133257e-06   9.1093556e-05   6.7198802e-05   6.1269260e-05  -5.1244762e-04  -9.1306363e-05   7.6139673e-05  -1.0447743e-04   5.1412550e-05   1.7752598e-05   3.2655461e-04  -7.2456364e-06   9.6438678e-05   7.1519782e-05   8.8786161e-05  -4.5632205e-05   2.3593124e-05
   3.0106894e-05   1.8760089e-05   3.0256266e-05   5.7159396e-06   2.0180041e-05   4.3495551e-05   1.0254120e-04   6.1307401e-05   1.2858371e-04  -6.6855231e-05   4.3659948e-05  -5.4542801e-07   8.6533455e-06   3.7405029e-05  -3.8464254e-06  -1.4373753e-04  -1.7025050e-04  -3.6648670e-04   1.0268054e-04  -1.5196992e-05   3.5416208e-05   9.9998746e-05   1.3080638e-04   6.8405629e-05   1.7264138e-04   3.1969117e-05   7.4382013e-05   2.0931028e-04  -2.0506223e-04   8.9749577e-05  -1.3355640e-04  -4.9154239e-04   2.0913062e-04   1.8790703e-04   7.4503849e-05   1.3641820e-04   2.3131780e-04  -4.5834968e-04   8.1297021e-06  -1.1157536e-05  -2.4804080e-04   7.6925673e-05   1.5981699e-04   5.3887197e-05   3.6796358e-05  -3.5547459e-05   6.4095562e-05   1.5408618e-04  -5.7643050e-05  -5.9786221e-06
   1.5238191e-05   1.5552985e-05   2.8515915e-05  -1.7675949e-05   4.6367823e-05   4.2943993e-05   1.1700451e-05   1.4500515e-04  -7.5605982e-05  -1.0093788e-04   9.7166239e-06   2.1928032e-05  -8.3295417e-06   5.5953387e-05   2.2864097e-05  -1.4691662e-04  -1.2381161e-04  -3.1961181e-04   2.3134697e-04  -5.2655811e-05   4.7234800e-05   3.4049695e-05   8.4749299e-05   2.4541991e-05   1.4881449e-05   3.2314692e-06   3.8254260e-05   2.7741262e-04  -2.5674957e-04   7.0588787e-05  -1.4657830e-04  -5.3767185e-04   2.2387713e-04   5.2878109e-05   6.9358073e-05  -4.0909676e-05   2.0623923e-04  -5.5520365e-04   1.3820012e-04   6.3091669e-05   4.5171291e-05   2.9452367e-05   6.5045388e-05  -9.6326185e-05  -3.5928850e-05   1.0494940e-04   5.8802838e-05   1.2075769e-04  -7.3726391e-05   1.5017579e-05
   3.5915149e-05   3.1215750e-05   2.3155522e-05   1.1674308e-06   3.5333698e-05   6.7788431e-05   4.9095488e-05   2.8011150e-06  -3.2688167e-05  -8.3855630e-05   2.3427519e-06   2.6844426e-05   2.1784199e-05   5.0742256e-05   1.1863438e-04  -5.8092439e-05  -1.9804869e-05  -1.1118096e-04   1.2562679e-04  -3.0184279e-05   4.3468714e-05  -3.7465972e-05   9.8413177e-05  -1.2840257e-05   1.0100030e-04   1.7900280e-05   4.8847043e-05   1.9279796e-04   4.1304855e-05   4.7230209e-05   2.3394253e-04   1.0120604e-04   7.3423151e-05   9.0186404e-05   9.4975316e-05   1.4581249e-04   9.8274693e-05   3.1621428e-04  -1.5436023e-04   3.6336354e-05   1.0725455e-04  -8.9766967e-05  -1.8513396e-04   1.1780972e-04   1.2383080e-04   1.3290436e-04  -3.4479097e-05   6.8013815e-06  -7.5904012e-05   2.2235457e-05
  -1.0664558e-05   1.1020241e-05   2.3367420e-05  -4.0506064e-05   4.0339710e-05   5.2056112e-05   6.2644700e-05   4.3328100e-06  -8.7947759e-05  -1.4387132e-06  -4.5938697e-07   1.7802966e-05   1.2650537e-04   6.1697094e-05   7.9193676e-05   2.0492838e-04   4.4465100e-04   5.5469450e-04   1.0539548e-04   5.3480235e-05  -1.7135870e-04  -2.2126673e-04   6.8817673e-05  -9.3866423e-05  -7.5025935e-05   5.1538766e-05   1.1659951e-04   1.7016382e-04   2.4719010e-04   4.0116749e-05   3.7068911e-04   4.3109251e-04  -9.3987801e-05  -5.9932467e-05   2.0289453e-05  -2.0425627e-05   1.0065909e-04   3.9130324e-04  -1.4215711e-06  -1.4193839e-04   2.3251533e-04  -7.5710173e-05   9.9679492e-05  -1.7241083e-04   3.3026423e-05  -1.9915391e-05  -1.2369277e-05   2.8652139e-05  -4.1989340e-05  -6.0543239e-06
  -2.9282881e-05  -1.1536580e-05   3.1207743e-05  -7.4375603e-05   4.3207139e-05   1.1706405e-04  -1.4402945e-06   5.4694508e-05  -2.6352718e-05  -1.5702157e-05  -2.7806986e-05  -9.9751696e-06   7.3786599e-05   5.9821643e-05   3.5952784e-05   1.5886199e-04   4.3330377e-04   4.8409656e-04   4.8603761e-05   4.2869309e-05  -1.4503967e-04  -2.0912389e-04   2.2929227e-05  -4.1611696e-05   8.8170033e-05   5.5102879e-05   1.4756979e-04   1.7925154e-04   1.0472014e-04  -1.3653736e-06   2.2362861e-04   3.4382386e-04  -7.7611796e-05   1.5076616e-05   1.3589331e-04  -2.2975388e-05   4.8207083e-05   2.5872662e-04   2.0016299e-04  -1.3032413e-04  -1.2185080e-04  -2.4314226e-05  -2.7215034e-05  -1.0945148e-04   7.5105813e-06   9.6691047e-06  -3.8863138e-05   1.9546522e-05  -6.6972752e-06   4.3552936e-05
  -3.1470211e-06  -1.8214176e-05   3.0641015e-05  -7.3293340e-05   1.7328304e-05   1.2855582e-05  -1.4887170e-05   3.9814851e-05  -2.2647505e-06  -1.0990623e-05  -1.6042366e-05  -3.8215669e-05   1.1279767e-04   1.1275035e-04   5.7844685e-05   1.4890307e-04   4.3661508e-04   5.1615079e-04   2.8329696e-05   6.2761792e-05  -9.4860305e-05  -2.0676554e-04   7.1170965e-05  -1.7492574e-05  -1.8908764e-04   6.2341242e-05   1.3384265e-04   8.8946930e-05   1.5618894e-04   2.4112794e-06   2.8529254e-04   3.5878195e-04  -3.0026355e-04  -7.1033021e-05   4.4222401e-05   3.2491669e-06   1.4329414e-04   3.1011563e-04   1.2383137e-05  -3.2276547e-04  -1.5798247e-04  -9.7137498e-05   1.9402411e-04  -1.3781915e-04   8.9792935e-05  -9.0480578e-05   1.2753015e-06   1.3991393e-05  -9.5907541e-05  -5.0089780e-05
  -9.4530114e-06  -3.0291353e-06   2.7217187e-05  -5.5767996e-05   5.5057015e-05   4.1314681e-05   9.0083668e-06   7.1260809e-05  -6.2189802e-06   6.2335499e-07  -1.1029464e-05  -2.7714663e-05   4.9991482e-05   5.9625178e-05  -1.9033210e-05   1.4618791e-04   3.3876259e-04   4.9302302e-04   6.1630053e-05   5.6554651e-05  -8.8287161e-05  -1.6911919e-04   5.8151305e-05  -4.0808594e-05   8.4684318e-05   2.9781773e-05   7.5524680e-05   2.1436230e-04   2.2937570e-04  -3.1345828e-06   2.4243561e-04   3.5508309e-04  -4.5989920e-05   3.0217652e-05   1.2582534e-05   6.9062953e-05   8.8028755e-05   2.1679679e-04  -1.1086071e-04  -7.8853431e-05  -6.2419327e-05  -3.5046312e-05   1.4093114e-04   2.0902493e-05   1.7064272e-05  -4.1043717e-05  -6.1328478e-07   9.9692756e-05  -1.2593545e-04  -2.9387622e-05
   5.2432348e-05   2.0923158e-05  -1.2082879e-05  -2.2049475e-05   2.9975781e-05   2.0820267e-05   8.3640756e-05   3.3652766e-05   1.0367989e-04  -1.1956658e-05  -7.7500172e-06  -2.8869732e-05   2.6586913e-06   7.6680859e-05  -3.2071424e-05   1.0777429e-05   1.1078048e-04   1.2562136e-04  -4.8976104e-05   4.2928812e-05  -4.9874565e-05  -9.3489012e-05   1.1057767e-04   3.8488561e-05   5.0416093e-05   2.7150434e-05   1.3902300e-04  -1.3559268e-04   1.5855301e-05  -6.9309433e-05   4.7832054e-05   1.6757296e-04  -1.0249449e-04  -1.6285303e-04   8.7726250e-05  -5.0498355e-05  -8.8342649e-06   5.6907553e-05  -2.0560779e-04  -5.6839734e-05   2.8850118e-05  -6.6071807e-05  -1.9694624e-05   7.0966700e-05   4.7046145e-05   2.5044004e-05  -1.1743440e-05   3.1717304e-05  -9.5358897e-05  -9.0376154e-05
   3.0067276e-05   1.5396823e-05  -7.1304544e-06  -2.5307691e-05   2.9737974e-05   4.8796755e-05   6.3226777e-05   2.7308741e-05   1.8150409e-05  -3.6917263e-05   1.4191770e-05  -3.5941939e-05  -8.2812785e-06   2.8989880e-05  -2.3984376e-05  -5.7848982e-05   1.5937299e-05  -5.8016842e-05   1.4431370e-04   4.0968622e-05  -1.9250441e-05  -2.0142510e-05   1.1319749e-04   4.0174804e-05   1.9693478e-04   2.5851713e-07   8.7553184e-05   1.3820417e-04   5.8917758e-06  -1.1850286e-05  -8.7442044e-05  -1.4044305e-05  -2.3943440e-04  -3.3635271e-05   5.6185738e-05  -6.5008339e-06   8.0644772e-05  -8.6854896e-05   1.3066857e-04  -1.0268891e-05  -6.1814462e-05  -4.3118500e-05   1.7840909e-04   1.0901626e-04  -4.6481960e-05   1.3691788e-04   1.7681681e-05   9.7911879e-06  -8.1907529e-05  -5.6510919e-05
   2.1278867e-05   1.4995258e-05   7.1814420e-06  -3.8843729e-05   2.6634685e-05   4.3134660e-05   5.8220237e-05   6.0876286e-05  -8.4618121e-05  -4.3352258e-05   2.3657042e-06  -3.7786147e-05  -2.7506834e-05   4.1247782e-05   1.7290979e-05  -7.6612843e-05   2.1912283e-05  -2.4205541e-05   3.5209290e-05   1.6410839e-05  -1.6130141e-05   5.1016109e-06   4.7022015e-05   6.6615939e-06   6.5235763e-05  -2.6147902e-05   6.7345478e-05   1.8589597e-04   2.8595297e-05  -1.3188943e-05   6.8018744e-05   1.1068554e-04  -1.5390805e-04  -1.0450330e-05  -7.3300580e-05   1.1641330e-04   1.7393485e-04  -7.6744545e-06  -2.8486971e-05  -1.3086222e-05  -3.4294269e-04  -1.2472684e-05   8.6090011e-05   9.0986869e-05   3.6910671e-05  -9.2143397e-05  -1.4596121e-05   6.4637301e-05  -2.1168749e-05  -6.4847110e-05
   5.1899806e-06   1.7933829e-05  -5.2378541e-06  -3.4093864e-05  -3.0416693e-06   7.6339034e-05   4.7951889e-05   8.2855178e-05  -5.3965006e-05  -3.4904017e-05  -1.7968452e-05  -3.4114448e-05  -3.6821839e-05   5.0919378e-05   3.3124350e-05  -2.8052451e-05   8.6954657e-05   5.4041306e-05   6.9105903e-05   5.3894937e-06  -3.6272468e-05  -1.1662526e-04   4.8022062e-05   1.4046806e-05   9.0786736e-05  -2.1061729e-05   3.5416102e-05   5.5051736e-05   2.3292643e-05  -3.1463031e-05   1.5408058e-04   1.7427503e-04  -2.3071453e-04   9.6409516e-05  -2.6767473e-06  -1.2027845e-04  -2.2307124e-05   1.6951599e-04   3.8033624e-05  -1.4295260e-04  -2.7422761e-04  -4.1423988e-05  -1.3947205e-04  -1.0074044e-04  -4.3618475e-05  -8.9806679e-05  -1.7612620e-05  -1.1699744e-05  -2.8632232e-05  -7.9218327e-05
  -4.3056767e-05  -1.5374839e-05   1.6747443e-05  -7.9498168e-05   3.2038758e-06   8.8700166e-05  -3.5348618e-05   8.6603060e-05  -3.7079972e-05  -1.1172814e-05  -3.2979264e-05  -6.3914595e-05   5.9666025e-05   5.2388794e-05  -2.9086315e-05   1.2769755e-04   4.0618182e-04   5.2953197e-04  -5.1127950e-05   6.6510765e-05  -9.1590548e-05  -2.2989164e-04   1.2160098e-04  -5.6465720e-05   2.4350049e-05   3.5858443e-06   1.9970391e-04   2.7378119e-04   2.3920086e-04  -2.0610252e-05   3.1100874e-04   4.6595879e-04  -1.6469427e-04  -1.0575463e-04  -4.0094848e-05  -5.3966905e-05   8.1493949e-05   4.4285861e-04   8.8525681e-05  -1.4927352e-05  -4.4525597e-05  -7.2594972e-05   5.1871015e-05  -3.0306977e-05  -3.5433080e-05  -1.0305474e-04  -2.6130772e-05  -7.2048720e-06  -8.0218117e-05  -9.8634999e-05
  -4.7308935e-05  -2.1878359e-05   2.0460520e-05  -1.0705130e-04  -1.3615630e-05   2.0130849e-06  -4.7904978e-05  -3.2085936e-05  -7.0699054e-05  -7.9150714e-06  -2.7168740e-05  -5.7336256e-05   2.0090909e-05   5.7462268e-05   1.1579157e-04   1.2788658e-04   4.1286548e-04   5.1638053e-04  -8.6296830e-05   2.4837318e-05  -1.3096718e-04  -2.4754254e-04  -6.5344611e-05  -8.1952639e-05   5.5993125e-05   3.1814609e-05   9.3068738e-05   9.5806281e-05   1.5485176e-04  -7.7126082e-05   3.3010007e-04   5.2362471e-04  -1.8447639e-04  -8.7829321e-05   8.6049324e-05  -9.8728415e-06  -2.4564753e-07   4.2398687e-04  -2.1534206e-05  -7.7309596e-05  -6.5978391e-05  -2.8996124e-05  -9.2587179e-05  -2.1750636e-04  -6.6833520e-05  -4.3126132e-05  -4.1133091e-05  -3.0611613e-05  -1.2768240e-04  -1.8503594e-04
  -5.2874504e-05  -2.1627971e-05  -9.2643140e-06  -9.5722651e-05  -2.8122506e-05   9.5562527e-06  -8.5497832e-06  -1.9080619e-05  -8.5573083e-05   3.1879185e-06  -5.1040202e-05  -5.6638757e-05   5.8191577e-05   8.5619849e-06   6.3646374e-05   1.4979295e-04   4.1882589e-04   6.2583340e-04  -1.2193843e-05   2.8281160e-05  -1.0536397e-04  -2.6976041e-04  -6.4780506e-05  -1.1160657e-04   7.0635760e-05   2.0945467e-05   1.3967212e-04   6.0908085e-05   2.4229393e-04  -6.6510838e-05   3.1263643e-04   4.9392501e-04  -2.7043754e-04  -6.2616404e-05   1.0174029e-05  -1.1269945e-04  -1.2398214e-04   4.0521316e-04   4.6037872e-05  -3.3412417e-04  -2.9156674e-04  -3.6274025e-05  -5.4931232e-05  -4.8957732e-05  -1.1846405e-04  -6.0932336e-05  -4.1337575e-05  -4.4147990e-05  -8.6015600e-05  -9.8967292e-05
  -6.7787354e-05  -1.8726154e-05  -7.4814361e-06  -8.9552348e-05   2.0603404e-06   2.6874863e-05  -5.7007193e-05  -3.8085480e-05   2.7123187e-06  -5.1698612e-06  -3.5415713e-05  -6.0576283e-05   5.8055823e-05   3.2287808e-05  -2.0544052e-05   9.3384719e-05   2.9162123e-04   4.3233344e-04  -1.1632568e-04   3.9808867e-05  -8.0211117e-05  -2.7320319e-04  -1.9893359e-05  -4.4117620e-05  -2.2642518e-05  -1.3169280e-05  -1.1033299e-05   8.9010879e-05   1.8208942e-04  -3.4139706e-05   1.6001221e-04   3.1862911e-04  -2.9856851e-04  -8.3476611e-05   1.7960514e-05  -7.8007739e-05   6.4769985e-05   3.3792912e-04  -8.0243568e-05  -2.3037993e-04  -1.4095534e-06  -9.4079776e-05   6.9779271e-05   2.1824171e-05   1.3889531e-05  -1.2842676e-04  -3.8947655e-05   5.8846425e-05  -1.1520943e-04  -1.2877450e-04
  -2.8430644e-05  -7.5772623e-06  -1.3899363e-05  -8.3945393e-05  -2.5882848e-05  -2.8518984e-05  -6.1718449e-05  -2.0096047e-06  -3.7203718e-05  -2.2118358e-05  -4.0031024e-05  -5.1801260e-05   2.1530586e-06  -1.8068067e-05   3.6346501e-05   1.1365785e-04   3.4173112e-04   4.7417160e-04   4.8126744e-06   2.7047467e-05  -6.8130103e-05  -2.2248272e-04  -5.0084789e-05  -8.5476720e-05   4.2068081e-05  -5.0983359e-05   6.8711168e-05  -4.5015498e-05   1.8360183e-04  -8.9598027e-05   3.6118139e-04   5.0774211e-04  -1.7551187e-04  -1.2306354e-04  -1.2565811e-05   2.2695011e-05  -1.2582315e-05   4.8453355e-04  -7.6387878e-05  -3.0600600e-04  -4.2140475e-04  -1.0062669e-04   8.7789695e-06  -2.3062414e-05  -3.4226028e-05   1.0754761e-05  -6.2296276e-05  -2.6488753e-05  -1.0422568e-04  -1.0202121e-04
  -7.8188299e-05  -1.6393989e-05  -3.4414788e-05  -8.3504572e-05  -3.5658584e-05  -6.5433553e-05  -5.2982585e-05   1.4389896e-05  -5.7242694e-05  -2.9738341e-05  -5.3338605e-05  -5.5295113e-05   6.6912376e-06  -5.5830154e-05   4.4008706e-05   5.7358062e-05   2.3016457e-04   2.5965390e-04  -7.1143913e-05   8.3952943e-07  -6.3066916e-05  -2.1175400e-04  -6.5659035e-05  -4.9573599e-05  -1.4809602e-04  -4.6166704e-05   5.0127433e-05  -1.0420664e-04   3.0702675e-05  -1.0594409e-04   1.1567332e-04   1.5280636e-04  -1.8341136e-04  -8.1194092e-05  -4.3912274e-05  -1.3420044e-04  -1.8575620e-04   9.9101533e-05  -2.4321978e-04  -1.5921135e-04  -6.6547065e-05  -7.7069169e-05   2.4083756e-05   1.1824953e-04  -1.0986150e-04  -8.0758262e-05  -4.9509094e-05   2.1509171e-05  -1.2317643e-04  -1.7228436e-04
  -7.4420423e-05  -1.9216466e-05  -8.8311498e-07  -9.1788461e-05  -2.2919077e-05  -1.9140904e-05  -3.9255778e-05  -4.0514660e-05  -8.3120147e-05   4.1475840e-05  -3.8425260e-05  -5.3817981e-05  -5.4019056e-06  -5.6900785e-06   1.5585465e-05   1.7982263e-06   4.8338730e-05   1.0628218e-06  -1.1794377e-04   6.5436589e-06  -2.7148488e-05  -2.6073574e-05  -4.0203604e-06   5.4891952e-05   9.2071481e-05  -2.5321922e-05  -8.6323445e-05  -5.6832578e-05  -4.8647329e-05  -2.9600300e-05  -8.1385755e-05  -2.3849237e-04  -1.4483152e-04  -1.3883632e-05  -4.3725580e-05   3.5293473e-05   1.1410166e-04  -1.4578919e-04  -1.9581385e-04  -1.0640114e-04  -1.6767853e-04  -7.7498371e-05   7.1549526e-05  -6.3575324e-05  -1.8223338e-05  -5.7688550e-05  -1.2547393e-05  -2.5380830e-05  -1.2344855e-04  -1.8987666e-04
  -3.3892335e-05  -6.8183465e-07  -3.3464388e-05  -5.7977617e-05  -4.4216853e-05  -4.1008261e-05  -1.4106869e-05   3.1910044e-05   4.3100303e-05  -5.0195631e-05  -1.1909809e-05  -5.2105213e-05  -8.9031601e-05  -4.6692767e-05  -7.1102419e-05  -1.5813527e-04  -1.1137676e-04  -3.2077989e-04  -6.1686238e-05  -4.9891358e-05  -6.7849280e-05   4.8358695e-05   1.4436038e-05   9.2983528e-06   2.1580304e-04  -4.3235734e-05   2.2484468e-05  -2.4047121e-04  -2.3986166e-04  -8.2837803e-05  -6.5537402e-05  -2.5100581e-04  -7.5605509e-05  -3.3455122e-05  -4.3413194e-05  -1.0262962e-04  -2.5300568e-04  -2.2907389e-04  -1.5153884e-05  -2.9535806e-05   1.2370205e-04  -1.4972753e-05  -2.6504977e-05  -4.6190980e-05  -3.7700080e-05  -1.1669933e-04  -8.8387360e-06  -3.1713324e-05  -1.4168418e-04  -8.7929468e-05
  -1.3453579e-04  -3.3721546e-05   8.9170562e-06  -1.1445051e-04  -3.2780066e-05   5.9530821e-06  -6.4112763e-05   1.5622445e-05  -1.2431925e-04  -6.1739178e-05  -5.3203636e-05   3.4895381e-06   2.3762053e-05   5.2960171e-05   7.3810224e-05  -1.0988357e-05   1.9360632e-04   4.9104681e-05  -5.3493113e-05  -6.4815446e-05  -9.1222682e-05  -1.6335389e-04  -2.1816410e-05  -8.3902931e-05  -6.7595895e-05  -2.5938050e-05   1.0668293e-04   1.5355869e-05  -7.1789880e-05  -6.6899476e-05   1.1668949e-04  -8.2906678e-05  -1.2617593e-04  -3.7701844e-05   3.1665422e-05  -7.4676755e-05  -1.4977340e-04  -8.8469184e-05   5.9290989e-05  -9.0980684e-05   2.6094865e-05  -2.5273815e-05  -1.9049490e-04  -3.6844365e-05  -9.1277325e-05  -2.2131635e-04  -6.9616017e-06   4.0351253e-05  -1.5963404e-04  -1.8249647e-04
  -1.1065203e-04  -3.8074948e-05  -1.5186246e-05  -1.0232052e-04  -2.2023047e-05  -1.0385953e-05  -1.1057356e-04  -9.4304211e-05  -9.5214979e-05  -5.6254758e-05  -6.3455940e-05  -2.3079650e-05  -7.1120699e-06   2.6758531e-05   2.4830499e-05   7.9208185e-06   2.0556249e-04   1.4338717e-04  -1.1981704e-04  -3.9552200e-05  -9.0918977e-05  -1.9352316e-04  -6.6644329e-06  -6.5169079e-05  -1.2217068e-04  -1.6159447e-05   1.2615978e-04   2.2677616e-05   4.9819109e-06  -2.6195821e-05   1.7125944e-04   1.1813975e-04   1.2348050e-05  -2.8585859e-05   9.9320838e-05  -1.6479800e-05   1.4503915e-05   6.8112648e-05   4.0335693e-05  -8.0367558e-05   2.1734394e-04  -1.2348157e-04   3.4039297e-06   2.0993748e-04   4.6045338e-05  -4.3557073e-05  -2.5647871e-05  -3.0543670e-05  -1.5107865e-04  -1.4092894e-04
