   2.3494790e-04   3.3096102e-04  -2.3318677e-05   1.3043656e-04   8.1066391e-05   2.4469176e-04   1.4499990e-04   2.2252747e-04   2.5695295e-04   6.5205392e-04   2.7441981e-04  -1.0733400e-05   6.0411377e-05   5.9008424e-05   5.2970427e-06  -6.5020162e-05  -9.0912223e-04  -1.1104991e-03  -1.3276786e-04  -2.1168789e-04  -2.0017600e-05   5.9707958e-04  -1.7703592e-04   4.2318631e-04   5.7517054e-06  -2.2301207e-04   3.5321972e-04   5.3302833e-04  -6.3590053e-04   2.0381606e-04  -5.2793702e-04  -6.7870261e-04   5.5783067e-04   1.9958449e-04   1.7590584e-04   3.4128214e-04   6.0917943e-04  -6.1580789e-04   1.4920262e-04   1.1198716e-04  -2.2419867e-04  -2.8457883e-04  -3.2267766e-04   2.1584862e-04   2.5564630e-04   2.3684639e-04   1.1537953e-04  -3.3990789e-04   2.2101201e-04  -3.3031689e-04
   7.8785181e-04   7.9343631e-04   4.1190957e-04   4.1363045e-04   4.7752616e-04   6.6173077e-04   5.4759131e-04   5.1584851e-04   5.9885549e-04   1.0021244e-03   4.5488204e-04   1.9658562e-04   3.7414057e-04   2.3772327e-04   3.3789946e-04   3.7308634e-04   8.6189015e-04   1.0165693e-03   2.1447071e-04   2.9115245e-04  -8.5856511e-05   6.7254208e-04  -2.4241541e-04   1.5419805e-04   1.5588441e-04   2.2778964e-04   4.5739132e-04   3.7864654e-04   1.2316981e-03  -1.0884969e-04   4.5589189e-04   9.4093743e-04   2.4308229e-04   9.6577576e-05   6.0380509e-05   3.2174939e-05   8.7541848e-05   1.7232187e-03  -2.4546569e-04   5.9795901e-05  -4.0931767e-04  -6.9307990e-04  -4.6073055e-04  -2.8098287e-04  -1.3426958e-04  -4.1289569e-04  -1.1353246e-04  -6.3625822e-04  -1.8952168e-04  -6.4381765e-04
   2.8867956e-04   2.4460111e-04   2.5699017e-05  -8.2572107e-05   7.5569522e-05   2.6322022e-04   6.8121866e-05   2.3111774e-04   8.1634927e-05   8.3582866e-04   1.3600408e-04  -1.2674002e-04   1.1572529e-04   9.7273885e-05  -1.7006529e-05   1.6705926e-04   9.5081335e-04   9.3871803e-04  -1.7661144e-04   3.7319776e-05  -4.7838359e-04   2.8024017e-04  -4.4694237e-04  -4.8660473e-05  -1.1594560e-04   3.0677311e-05   2.3797930e-04   1.8630616e-04   8.2325609e-04  -2.0982757e-04   1.6485906e-04   6.4921268e-04  -9.4793701e-05   4.0757641e-05  -2.4028594e-04  -3.0832930e-04   2.2209629e-06   9.7175693e-04  -3.3647823e-04  -1.5360277e-04  -7.9984713e-04  -9.0424012e-04  -7.5444108e-04  -5.0014514e-04  -4.7306178e-04  -4.9268978e-04  -3.6528066e-04  -8.7009842e-04  -5.9902773e-04  -8.3955342e-04
  -1.8179536e-04  -1.5628028e-04  -2.4571893e-04  -2.6329895e-04   2.9083285e-05   2.2449442e-04   5.5101387e-05   8.0137441e-05   2.7953862e-04   4.8483434e-04   5.6909459e-05  -1.4891381e-04   2.7555248e-05   1.6794127e-05  -2.1118412e-05   6.7163150e-05   4.9700792e-04   3.4932699e-04  -1.4109528e-04  -3.4494340e-05  -2.7814214e-04   2.9251107e-04  -2.7075747e-04   8.3360726e-05  -7.8578276e-05  -7.5618613e-05   1.8435834e-04   2.0840835e-04   2.7562724e-04   9.3099507e-06   4.1819731e-05   1.8605230e-04   8.5964501e-05   1.0010156e-04   2.1358714e-05   5.3235894e-05   2.5577354e-04   3.8845249e-04  -1.2266407e-04   1.1998137e-04  -7.3780632e-04  -7.0720841e-04  -6.0343981e-04   7.2398172e-05  -2.3765974e-04  -1.5108717e-04  -2.5507680e-04  -6.0415373e-04  -1.4371227e-04  -4.9925176e-04
   4.6201484e-04   5.1229005e-04   1.2211180e-04   1.1843495e-04   3.5119258e-04   5.0342409e-04   3.1358667e-04   3.6863724e-04   1.9679968e-04   2.5486149e-04   1.1124894e-04  -1.5911417e-05   8.1355669e-05   1.1312438e-04   9.8490018e-05   8.5260879e-05   8.2171508e-05  -5.9618696e-06  -2.2333756e-04  -1.7746579e-04  -2.3977234e-04   2.2738078e-04  -2.7961566e-04  -1.7770966e-05  -1.3642346e-04  -7.7035053e-05   2.9502332e-04   3.4404857e-04   2.0869900e-04   7.8358578e-05  -9.5359595e-05   2.4077935e-05   1.2195207e-04   1.1466894e-04  -5.3492345e-06  -2.0280286e-05   2.3043036e-04   3.8926120e-04   1.1462296e-06   1.1376036e-04  -7.3807203e-04  -8.1403489e-04  -7.0883118e-04  -3.1470260e-04  -3.6894548e-04  -3.8613210e-04  -4.6269127e-04  -7.9207501e-04  -5.1823485e-04  -7.5452583e-04
   1.8043333e-04   2.1856683e-04  -1.3121931e-04  -9.4899144e-05   1.0063552e-04   2.5275451e-04   6.1985600e-05   1.4699671e-04  -1.4033698e-04  -1.8746769e-05  -1.2267422e-04  -1.8928749e-04  -8.1550650e-05  -1.0333873e-04  -1.5176259e-04  -6.0919589e-05  -4.6784844e-05   5.4952779e-05  -5.2176265e-04  -4.9053261e-04  -4.6230445e-04  -9.6825788e-05  -5.3900265e-04  -2.3439640e-04  -3.9108048e-04  -2.6330046e-04   2.3544249e-04   4.1754937e-04   3.6768595e-04  -9.2378934e-05  -2.4573220e-04   5.4209697e-05  -5.1033992e-05  -2.7133830e-04  -9.2096008e-05  -1.8596963e-04   2.6533878e-04   6.2575983e-04   1.4033681e-05  -9.1714857e-05  -9.6691598e-04  -9.4971969e-04  -7.6335057e-04  -3.6463316e-04  -3.2934756e-04  -5.0778943e-04  -4.8637480e-04  -8.2787214e-04  -4.2921951e-04  -8.2228926e-04
   5.8481720e-04   6.1773055e-04   2.0008527e-04   2.2464409e-04   5.2643078e-04   5.9966475e-04   4.6986592e-04   3.7122524e-04   2.8470036e-04   2.6295634e-04   8.0223923e-05   4.6065747e-05   5.1047366e-05   7.4557007e-05   1.7872830e-05   5.8141497e-05  -5.8433063e-05   1.1660264e-05  -4.6141478e-04  -3.5785171e-04  -7.8260091e-05  -7.9720703e-05  -3.3705629e-04  -8.4779640e-05   1.2660642e-04  -1.3772160e-04   3.2390960e-04   6.0772349e-04   3.9599539e-04  -9.2175051e-06  -1.4668590e-04   5.3235613e-05  -2.1735681e-04  -2.3820606e-04  -1.0416209e-04  -1.3501583e-04   3.7319397e-04   5.4843625e-04  -1.2617234e-04  -8.2402177e-05  -9.8697701e-04  -9.9568395e-04  -1.0168008e-03  -3.7696096e-04  -4.4529166e-04  -5.2491686e-04  -5.8847596e-04  -9.4712817e-04  -5.4483878e-04  -8.5699779e-04
   3.7484922e-04   4.0901647e-04   1.4610835e-05   5.7596764e-05   2.6978450e-04   3.7670703e-04   2.5752271e-04   2.4319458e-04   5.0450173e-05   1.0709011e-04  -4.8139918e-05  -3.4709421e-05  -3.8432918e-05  -1.0540514e-05  -5.1863204e-05  -5.5583820e-05  -1.1503340e-04  -1.4105527e-05  -6.4550008e-04  -5.7642983e-04  -1.9003391e-04  -2.6484011e-04  -4.6874743e-04  -1.5892518e-04  -1.6048492e-04  -2.7447179e-04   2.4411237e-04   6.2508008e-04   3.2360374e-04  -7.8806996e-05  -3.2927873e-04   1.9612144e-05  -2.1721607e-04  -4.0666517e-04  -1.7696634e-04  -3.8566685e-04   2.7210356e-04   4.7492664e-04  -3.5428774e-04  -3.9284385e-04  -1.3027516e-03  -1.2267572e-03  -1.1402698e-03  -7.6601841e-04  -7.8372471e-04  -9.4806124e-04  -7.5894053e-04  -1.2232671e-03  -8.4735575e-04  -1.1803109e-03
   1.6657132e-04   2.2732711e-04  -3.7500973e-05   2.6907497e-05   3.1715009e-04   4.0452179e-04   2.9206794e-04   2.2705646e-04   5.8820733e-05   2.1020595e-04  -5.3222819e-05   1.8391343e-05  -6.0489750e-05  -5.7839177e-05  -7.5439290e-05  -5.4974804e-05  -1.3109493e-04  -6.8227768e-05  -5.2169152e-04  -5.2349712e-04  -3.3168923e-05  -2.6616070e-04  -3.7970970e-04  -1.0136839e-04  -1.0884854e-04  -2.8698705e-04   2.3151177e-04   6.0410466e-04   3.1927755e-04   3.1719912e-05  -2.4868530e-04  -6.8309688e-05  -2.9190260e-04  -3.3625821e-04  -8.0030703e-05  -3.9947301e-04   4.6315262e-04   4.5511904e-04  -6.1377046e-05  -1.5835789e-04  -1.0854614e-03  -1.0729926e-03  -1.1594468e-03  -4.1034727e-04  -5.7905650e-04  -7.5166195e-04  -6.5898610e-04  -1.0226247e-03  -7.0192013e-04  -1.0318528e-03
   3.0937334e-04   3.1568567e-04  -1.0705034e-05   2.2181155e-05   2.1429600e-04   2.9080579e-04   2.0645902e-04   1.8635442e-04  -5.0046401e-06   1.7891715e-04  -8.7767476e-05   2.6315407e-05  -5.7513585e-05  -2.3420778e-05  -2.1756929e-04  -8.5424319e-05  -1.3388392e-04  -1.1215665e-04  -6.3287374e-04  -6.2599621e-04  -5.5582175e-05  -3.9560936e-04  -4.0331823e-04  -1.7117047e-04  -1.9155860e-04  -3.8492124e-04   1.3936459e-04   6.3790893e-04   1.3648991e-04   3.6537585e-05  -2.8840004e-04  -1.3764697e-04  -4.5901182e-04  -4.9248495e-04  -2.0015588e-04  -4.2270662e-04   3.6167866e-04   2.4436045e-04  -2.9621311e-04  -3.5182247e-04  -1.1092804e-03  -1.1833395e-03  -1.0227626e-03  -6.7926844e-04  -7.3542295e-04  -7.9352799e-04  -7.4132852e-04  -1.1954338e-03  -9.0336660e-04  -1.2431395e-03
  -5.7931451e-05  -2.5446125e-05  -3.0321561e-04  -2.4671719e-04  -8.6493979e-05  -1.8810684e-05  -2.2386707e-04  -5.4629905e-05  -4.1850278e-04  -5.6086650e-05  -3.2079019e-04  -1.8026815e-04  -2.4556695e-04  -2.5485299e-04  -2.1850874e-04  -2.4338090e-04  -3.0431637e-04  -1.5896132e-04  -8.9650584e-04  -8.4795419e-04  -2.1619491e-04  -5.8171008e-04  -6.2102010e-04  -2.9724484e-04  -3.3354221e-04  -4.3109586e-04   8.2887302e-05   7.6589291e-04   2.4371053e-04   4.3909033e-05  -3.0078719e-04  -1.3725406e-04  -6.1137660e-04  -4.4112946e-04  -1.9920552e-04  -5.1109068e-04   5.1262841e-04   3.5953068e-04  -2.3027301e-04  -3.5206618e-04  -1.1681034e-03  -1.1146147e-03  -1.1793321e-03  -3.3890852e-04  -6.3255016e-04  -7.4713537e-04  -6.3587382e-04  -1.1073808e-03  -6.4830482e-04  -1.1185992e-03
   4.0572739e-04   4.3211962e-04   1.1122237e-04   1.1186051e-04   3.1869343e-04   4.2125993e-04   2.6853840e-04   2.6284088e-04   9.6928481e-05   3.1375838e-04  -4.8133985e-05   1.0015851e-04  -3.6314726e-05  -1.1311294e-04  -1.2352040e-04  -8.8766545e-05  -1.2227563e-04  -1.1586856e-04  -6.0671190e-04  -5.7709799e-04   9.6125994e-05  -3.9206282e-04  -4.5253604e-04  -1.3250321e-04  -2.7833201e-04  -3.6482024e-04   2.1456846e-04   7.9983793e-04   2.4687639e-04   2.9968765e-05  -2.2630504e-04  -8.4657804e-05  -5.5751292e-04  -5.4364250e-04  -1.8131726e-04  -5.0391559e-04   4.1550808e-04   4.3545821e-04  -2.8578687e-04  -4.1207991e-04  -1.2638555e-03  -1.0548260e-03  -1.2984739e-03  -6.5165159e-04  -8.5520092e-04  -1.1391343e-03  -6.3060399e-04  -1.1675131e-03  -8.9154311e-04  -1.2125702e-03
   1.6272810e-04   1.6345002e-04  -8.1595368e-05  -8.9872505e-05   4.5500343e-05   9.6857679e-05  -4.2122476e-05   8.1396400e-05  -2.3395706e-04   1.4645318e-04  -1.9478190e-04  -1.1882007e-05  -1.9569168e-04  -1.7956682e-04  -1.1613666e-04  -1.9910386e-04  -2.0229263e-04  -1.3315707e-04  -8.7413145e-04  -7.2876125e-04  -1.8970823e-05  -5.4554571e-04  -6.4207485e-04  -2.7897497e-04  -3.8652905e-04  -5.0383585e-04   3.4676956e-05   8.1590336e-04   1.8095442e-04  -4.7414956e-05  -4.2629446e-04  -1.9170615e-04  -7.2886772e-04  -6.4511731e-04  -2.9247018e-04  -6.2114955e-04   3.9946116e-04   2.8306330e-04  -4.3793031e-04  -7.3002226e-04  -1.6148738e-03  -1.2433605e-03  -1.2033097e-03  -8.1360555e-04  -1.1232393e-03  -1.2180728e-03  -8.2176330e-04  -1.3863746e-03  -1.1857257e-03  -1.4342051e-03
  -2.2800155e-04  -2.0048907e-04  -2.1842787e-04  -2.0432612e-04   4.8184229e-05   1.0043041e-04  -5.2547380e-06   4.1017865e-05  -1.8221578e-04   2.0948966e-04  -1.9013583e-04   1.1275744e-05  -1.4494061e-04  -2.1635457e-04  -1.9798808e-04  -1.9718154e-04  -1.8420717e-04  -1.7074973e-04  -7.3288276e-04  -5.8711029e-04   1.6483270e-04  -4.2985531e-04  -5.3876679e-04  -1.2289385e-04  -2.0805518e-04  -3.9764744e-04   1.8736564e-04   9.1672753e-04   2.1633680e-04   1.0376378e-04  -1.6888492e-04  -8.3428946e-05  -4.4353784e-04  -5.4167135e-04  -2.9396798e-04  -4.6487080e-04   7.1677333e-04   3.3277640e-04  -6.5224772e-06  -3.7729848e-04  -1.0689457e-03  -1.0599255e-03  -1.2088795e-03  -3.1027774e-04  -7.5547083e-04  -8.0449192e-04  -5.7067006e-04  -1.0519593e-03  -7.4602256e-04  -1.0782356e-03
   2.2449868e-04   2.2236987e-04   1.1146852e-05  -1.2225884e-05   1.0766754e-04   2.1496697e-04   6.2906562e-05   1.2469645e-04  -1.2018392e-04   2.5638458e-04  -1.4564420e-04   8.7074135e-05  -1.1710152e-04  -1.6396922e-04  -1.3031508e-04  -1.5930485e-04  -1.1420764e-04  -1.5717804e-04  -6.9348200e-04  -5.4820732e-04   2.0222101e-04  -4.2728990e-04  -4.9290375e-04  -1.4445376e-04  -2.4861822e-04  -3.7068030e-04   1.6035659e-04   9.3422952e-04   1.9445654e-04   5.6339304e-05  -1.9164693e-04  -8.9465859e-05  -5.1855529e-04  -5.7649676e-04  -1.6772212e-04  -4.5988985e-04   5.8660639e-04   2.7932637e-04  -3.5037531e-04  -4.8477662e-04  -1.2323622e-03  -1.0291823e-03  -1.2784987e-03  -8.0419314e-04  -9.1289828e-04  -9.4070850e-04  -6.3727575e-04  -1.0803408e-03  -1.0478165e-03  -1.2947348e-03
  -1.4437817e-04  -1.1940955e-04  -2.3505821e-04  -2.4423050e-04  -1.4761578e-04  -8.8920562e-05  -2.7926374e-04  -8.3357234e-05  -4.2321964e-04   3.2543368e-05  -3.3440508e-04  -9.8193013e-05  -2.7783733e-04  -3.3516920e-04  -2.5208533e-04  -2.9661637e-04  -2.5488462e-04  -1.5605100e-04  -1.0882920e-03  -7.7420793e-04  -2.7021930e-05  -6.5246498e-04  -6.9048128e-04  -3.1750771e-04  -4.5434205e-04  -5.4830185e-04   3.3425444e-05   9.1220578e-04   2.4432619e-04  -1.2873071e-04  -4.2716684e-04  -1.8903495e-04  -8.1141619e-04  -9.6945663e-04  -4.3150148e-04  -7.8833220e-04   4.4784709e-04   4.0413905e-04  -5.7887868e-04  -8.0357352e-04  -1.3641666e-03  -1.2073426e-03  -1.2357053e-03  -9.3473046e-04  -9.9445973e-04  -1.0807730e-03  -6.1722746e-04  -1.0886040e-03  -9.1176433e-04  -1.2187067e-03
   1.4540846e-04   2.2169472e-04   2.6315367e-05   6.0656766e-06   1.4437402e-04   1.9056584e-04   8.8382003e-05   1.1294377e-04  -5.8143807e-05   2.5815677e-04  -1.5260289e-04   6.5321663e-05  -1.3782308e-04  -2.1975626e-04  -1.8297404e-04  -2.0074619e-04  -1.1159815e-04  -9.3253278e-05  -7.8093895e-04  -4.6785956e-04   2.9143461e-04  -4.0937471e-04  -5.2902621e-04  -1.1423154e-04  -3.3824725e-04  -3.9443394e-04   9.6868425e-05   1.0908948e-03   3.0415435e-04   6.6561188e-05  -2.2337338e-04  -5.4784654e-05  -3.8787190e-04  -5.4407527e-04  -2.6825044e-04  -4.8615108e-04   5.9750810e-04   4.5402619e-04  -2.6800434e-04  -5.4185820e-04  -1.2490774e-03  -1.0134878e-03  -1.0828914e-03  -8.3313417e-04  -9.4671710e-04  -9.7761990e-04  -5.3356512e-04  -1.0405931e-03  -9.3067106e-04  -1.1940391e-03
   6.2661675e-05   9.2414375e-05  -2.9493431e-05  -6.6088644e-05   3.5195906e-05   1.0489056e-04  -7.8906538e-05   2.8096485e-05  -2.9936380e-04   1.6088081e-04  -1.8401984e-04   1.5379283e-05  -1.6479575e-04  -1.7520512e-04  -2.1332635e-04  -2.1379969e-04  -1.3394968e-04  -8.0788013e-05  -9.5252425e-04  -5.4202479e-04   1.9368036e-04  -5.0179812e-04  -6.1823940e-04  -2.2713683e-04  -2.3561725e-04  -4.8920215e-04   3.1379779e-05   8.5163768e-04   3.1431118e-04  -5.0625284e-05  -2.7574608e-04  -5.5367578e-05  -6.5572036e-04  -6.6527753e-04  -3.8193035e-04  -6.1681075e-04   5.0153618e-04   4.4852012e-04  -5.2688154e-04  -7.9907221e-04  -1.5658948e-03  -1.0834058e-03  -1.2823585e-03  -9.2546130e-04  -1.1260784e-03  -1.1030032e-03  -6.4388063e-04  -1.1947133e-03  -1.3048035e-03  -1.4480341e-03
  -3.3855296e-04  -3.4624941e-04  -3.7864386e-04  -3.7955240e-04  -3.0800150e-04  -3.2848443e-04  -4.9240631e-04  -2.0946648e-04  -6.7373150e-04  -1.4093201e-04  -4.5284853e-04  -2.3499240e-04  -3.8451434e-04  -4.4820571e-04  -4.0664981e-04  -3.8780749e-04  -2.8949158e-04  -1.2066542e-04  -1.1987002e-03  -8.0900633e-04  -5.9331112e-05  -7.3033001e-04  -8.2284666e-04  -3.8211764e-04  -4.8676960e-04  -6.0106721e-04  -1.0508948e-05   9.4951392e-04   3.2574724e-04  -1.3629270e-04  -3.3323097e-04  -1.1684379e-04  -8.0904935e-04  -7.5988914e-04  -3.8194528e-04  -6.1566720e-04   6.4738886e-04   4.6526935e-04  -3.5660737e-04  -7.8804186e-04  -1.4855624e-03  -1.0758705e-03  -1.2000942e-03  -8.3506468e-04  -1.0167068e-03  -1.1192368e-03  -5.5611378e-04  -1.1185131e-03  -8.8447414e-04  -1.2545915e-03
   1.2131855e-04   2.0124101e-04   3.0593899e-05   1.4272830e-05   1.2183563e-04   1.3673768e-04   4.5053785e-05  -1.7760449e-05  -2.3069824e-04   1.5870140e-04  -1.4801382e-04   1.5790174e-05  -1.4547870e-04  -2.8415144e-04  -1.2810221e-04  -2.0406589e-04  -1.5034276e-04  -8.6094289e-05  -8.4702036e-04  -4.7658646e-04   2.4636250e-04  -4.8941857e-04  -5.1676901e-04  -2.2717461e-04  -3.7242155e-04  -4.7205051e-04   1.0130196e-04   9.5554779e-04   3.0752379e-04  -6.6219640e-05  -2.6446732e-04  -1.0637283e-04  -6.7819125e-04  -8.3034491e-04  -3.3135497e-04  -5.6152086e-04   5.4038997e-04   4.4035233e-04  -3.8380030e-04  -7.0536061e-04  -1.0848060e-03  -1.0451173e-03  -1.1495075e-03  -8.1343483e-04  -1.0546694e-03  -9.5717289e-04  -5.5926869e-04  -1.1128073e-03  -1.0483748e-03  -1.2640697e-03
  -6.5738532e-05  -2.0940499e-05  -1.4033094e-04  -1.4110164e-04  -7.6920842e-05  -1.2354620e-04  -1.9862232e-04  -1.2418485e-04  -4.3247151e-04  -3.4483099e-05  -2.7647268e-04  -1.1764871e-04  -2.3735191e-04  -3.5050130e-04  -2.9379866e-04  -2.8421223e-04  -2.0600924e-04  -1.1614545e-04  -1.0622244e-03  -5.9859175e-04   1.1420961e-04  -6.0219952e-04  -7.4295496e-04  -3.2450704e-04  -4.7459931e-04  -5.6411116e-04  -3.8834391e-05   1.0501834e-03   2.8115531e-04  -1.4586795e-04  -4.1090290e-04  -1.0230178e-04  -9.1566693e-04  -9.6455088e-04  -4.0014044e-04  -8.4406807e-04   3.2647033e-04   4.0906522e-04  -6.4046541e-04  -1.0120732e-03  -1.3575094e-03  -1.2140323e-03  -1.3719790e-03  -1.3624931e-03  -1.4066385e-03  -1.1930026e-03  -7.2343898e-04  -1.3133526e-03  -1.3942638e-03  -1.5442236e-03
  -4.5063815e-04  -4.1016200e-04  -3.2899462e-04  -3.0659290e-04  -1.4643239e-04  -1.5950082e-04  -2.4772971e-04  -1.9296059e-04  -3.5591098e-04  -1.8567460e-05  -2.7582006e-04  -1.4218694e-04  -2.9302787e-04  -3.6985247e-04  -1.9823274e-04  -2.6906907e-04  -1.9568542e-04  -1.3544278e-04  -8.2041300e-04  -4.6397219e-04   2.6089835e-04  -5.2217668e-04  -5.6874211e-04  -2.2649023e-04  -2.5078841e-04  -4.7147041e-04  -2.4460838e-05   1.1197021e-03   3.1737777e-04  -1.4127809e-05  -2.6073275e-04  -7.2540512e-05  -8.0697436e-04  -6.7885674e-04  -3.0382312e-04  -6.8909355e-04   5.6754379e-04   4.5101639e-04  -3.1926614e-04  -7.0968491e-04  -1.5869570e-03  -1.0534603e-03  -1.0477284e-03  -8.7207305e-04  -9.6725801e-04  -8.6992863e-04  -5.2050647e-04  -1.0731769e-03  -9.4443170e-04  -1.1781795e-03
  -1.5426614e-05   3.7103629e-05  -9.0903719e-05  -7.8041245e-05  -4.2830852e-05  -1.7806543e-06  -1.1934599e-04  -5.8606118e-05  -4.7345072e-04  -3.5299050e-05  -2.2861183e-04  -1.0320483e-04  -1.9662168e-04  -2.9699883e-04  -1.9950779e-04  -2.1716271e-04  -1.0767746e-04  -1.2336082e-04  -9.3438558e-04  -4.5502259e-04   2.3151794e-04  -5.1176175e-04  -6.6016632e-04  -2.7159523e-04  -2.1568524e-04  -4.7867504e-04   1.1321560e-04   1.0630328e-03   3.0893506e-04  -4.3585413e-05  -2.3980832e-04  -5.8917594e-05  -8.3922164e-04  -8.0118742e-04  -3.5143821e-04  -7.0458988e-04   4.2426487e-04   3.3599202e-04  -5.2000885e-04  -8.1156363e-04  -1.2749865e-03  -1.1405738e-03  -1.0639210e-03  -8.3432102e-04  -1.1184764e-03  -1.1349974e-03  -6.1434990e-04  -1.1778158e-03  -1.1258696e-03  -1.3532826e-03
  -3.2895751e-04  -2.9080678e-04  -3.5454991e-04  -3.4890484e-04  -3.3572124e-04  -3.6259714e-04  -4.7797314e-04  -2.8691092e-04  -8.2631333e-04  -2.6392413e-04  -4.4612118e-04  -2.9426313e-04  -3.9349540e-04  -4.3213938e-04  -3.0276124e-04  -3.4864922e-04  -1.8969603e-04  -1.4080643e-04  -1.1489801e-03  -7.0544583e-04  -2.2375918e-05  -7.0763670e-04  -8.6207344e-04  -4.9366098e-04  -5.7470478e-04  -6.2452792e-04  -2.0929958e-06   9.7745913e-04   1.8550355e-04  -1.5995154e-04  -3.9206550e-04  -2.2037380e-04  -9.6986117e-04  -9.4021583e-04  -4.7972551e-04  -7.5119437e-04   3.8822042e-04   2.8840356e-04  -3.7346437e-04  -9.9098566e-04  -1.4321501e-03  -1.0676438e-03  -9.6949347e-04  -7.5451843e-04  -1.0125585e-03  -9.2166482e-04  -6.1114947e-04  -1.0324868e-03  -8.1267022e-04  -1.1372884e-03
  -1.4428583e-05   1.1597783e-04  -6.2940650e-05  -5.0580213e-05   1.6653144e-05   6.1174607e-05  -1.5077064e-05  -1.0391173e-04  -4.0169765e-04   1.5621104e-05  -2.0963524e-04  -9.7346143e-05  -1.9396003e-04  -2.3849341e-04  -1.9958956e-04  -1.5784123e-04   7.2345947e-06  -4.9261293e-05  -6.9776998e-04  -3.2637193e-04   3.1421019e-04  -3.9798958e-04  -5.3579186e-04  -2.0061147e-04  -1.2789028e-04  -3.9191602e-04   1.5248235e-04   1.1458184e-03   3.0260492e-04   8.5692838e-05  -1.6249964e-04   1.7602195e-05  -5.9827196e-04  -5.6557648e-04  -2.6554996e-04  -5.1741407e-04   4.9119978e-04   3.3581231e-04  -1.9472970e-04  -6.9728086e-04  -9.5938740e-04  -8.8230317e-04  -8.9786923e-04  -7.7444414e-04  -1.0278055e-03  -6.8579084e-04  -5.0554040e-04  -8.6979463e-04  -8.9223363e-04  -1.0484642e-03
  -7.7914941e-05   2.8257180e-05  -1.1889808e-04  -1.2086531e-04  -9.4630188e-05  -1.0613302e-04  -1.2342367e-04  -1.0005058e-04  -5.4012612e-04  -8.4462066e-05  -2.7079656e-04  -1.5608071e-04  -2.8245946e-04  -2.6842803e-04  -2.5298120e-04  -1.7849715e-04  -2.2545153e-05  -6.6709210e-05  -8.1961177e-04  -4.0742042e-04   1.9667258e-04  -4.8939564e-04  -6.5669813e-04  -2.9592481e-04  -5.3434039e-04  -4.1986202e-04   1.7806233e-05   1.1357804e-03   2.3868498e-04  -3.3685885e-06  -1.8627044e-04  -5.6447203e-05  -7.6455734e-04  -6.7048275e-04  -3.3721348e-04  -5.0100993e-04   3.8671863e-04   3.3168975e-04  -4.5900201e-04  -7.7194482e-04  -1.2951660e-03  -9.7985985e-04  -1.1654350e-03  -1.1621100e-03  -1.2045366e-03  -9.7535143e-04  -6.4501382e-04  -1.1177106e-03  -1.2196501e-03  -1.3621894e-03
  -4.7323806e-04  -4.1224415e-04  -4.4762777e-04  -4.3170238e-04  -4.1727538e-04  -4.5698549e-04  -5.5884686e-04  -3.1872647e-04  -9.3068217e-04  -3.4615328e-04  -5.0858600e-04  -3.8600489e-04  -3.7936153e-04  -4.5560472e-04  -3.3512196e-04  -2.9615412e-04  -1.3867096e-04  -7.2104856e-05  -8.3890191e-04  -4.3434685e-04   1.9274297e-04  -5.1310600e-04  -6.3310418e-04  -2.7295700e-04  -5.1602104e-04  -3.8614357e-04   1.0361728e-04   1.1746074e-03   3.4416595e-04   7.8268087e-05  -1.9022900e-04   3.9353621e-05  -7.5198931e-04  -5.9255346e-04  -2.3420616e-04  -5.5497652e-04   5.6941487e-04   4.2116269e-04  -1.3319752e-04  -6.0320576e-04  -1.0400405e-03  -8.4641221e-04  -9.5150643e-04  -6.0923956e-04  -8.0127787e-04  -8.8571158e-04  -3.9780754e-04  -8.0066489e-04  -6.4394780e-04  -9.8562974e-04
   1.9422427e-04   2.9550798e-04   1.0059298e-04   8.6431719e-05   1.3679861e-04   9.4004783e-05   5.8016685e-05   2.9090086e-05  -3.3106736e-04   2.3491993e-05  -1.4591427e-04  -5.6515390e-05  -1.2010356e-04  -2.1647156e-04  -9.1738635e-05  -1.1120350e-04  -1.6364585e-05  -8.2248735e-05  -6.2524207e-04  -2.6251236e-04   3.2458350e-04  -3.3665943e-04  -5.1968789e-04  -1.7761669e-04  -3.2630045e-04  -2.9866109e-04   1.4654989e-04   1.1613052e-03   3.9392200e-04   5.3613658e-06  -8.1864579e-05   1.3079448e-05  -6.8756036e-04  -5.5140717e-04  -2.2064289e-04  -4.6597488e-04   2.8973576e-04   3.9898654e-04  -2.5763718e-04  -5.8119133e-04  -1.1738538e-03  -8.8422705e-04  -9.4591925e-04  -9.4427640e-04  -8.9451828e-04  -9.1090665e-04  -4.4119649e-04  -7.7654381e-04  -8.6476014e-04  -1.0941568e-03
  -5.6012675e-05   2.3839806e-05  -1.3049046e-04  -1.3395523e-04  -1.1557476e-04  -1.5538638e-04  -2.1965799e-04  -6.8898844e-05  -6.3562073e-04  -1.4882570e-04  -2.6649280e-04  -1.7574648e-04  -2.2848583e-04  -3.3951024e-04  -1.7501428e-04  -1.9885840e-04  -8.3085266e-05  -9.5875490e-05  -8.5860497e-04  -4.1850956e-04   1.6231889e-04  -4.7096034e-04  -6.9716026e-04  -3.0926388e-04  -3.6613585e-04  -3.7943965e-04   8.1417988e-05   1.0071032e-03   3.1802291e-04  -1.0455793e-04  -2.4628764e-04  -3.6386435e-05  -6.9557450e-04  -8.0272742e-04  -3.7946724e-04  -5.9469626e-04   2.6889489e-04   3.5980201e-04  -4.9198925e-04  -9.2812313e-04  -1.5370462e-03  -1.0589141e-03  -1.3343451e-03  -1.1688191e-03  -1.2287251e-03  -1.0054351e-03  -6.1482639e-04  -1.0669868e-03  -1.1676041e-03  -1.4108365e-03
  -3.3819952e-04  -2.6224504e-04  -2.3073578e-04  -1.7889202e-04  -6.2510764e-05  -9.9644159e-05  -1.1522935e-04  -1.9862197e-04  -4.1265099e-04  -5.1302461e-05  -2.1522715e-04  -1.3350218e-04  -1.8601547e-04  -2.6548925e-04  -2.0725174e-04  -1.5180609e-04  -7.3511379e-05  -1.0845138e-04  -6.8647612e-04  -2.5528640e-04   3.3194051e-04  -3.1310838e-04  -5.4000947e-04  -1.6994988e-04  -3.2906485e-04  -3.2118047e-04   1.4021479e-04   1.1717792e-03   3.7537413e-04   3.7884405e-05  -6.5684508e-05  -7.8643076e-05  -4.5406615e-04  -5.2245188e-04  -2.1508272e-04  -4.7024179e-04   5.2379549e-04   4.7044264e-04  -2.5989526e-04  -4.8674093e-04  -1.1047942e-03  -7.9742022e-04  -8.0982741e-04  -3.8849970e-04  -7.8650570e-04  -7.2076864e-04  -3.7138510e-04  -7.1194611e-04  -6.7908515e-04  -1.0885100e-03
   1.4175102e-04   2.1395680e-04   2.2945498e-05   2.2652497e-05   5.7054305e-05   5.3796262e-05   2.8686325e-05  -8.1221559e-05  -4.6367198e-04   1.1948952e-05  -1.2521243e-04  -5.7213732e-05  -9.3094277e-05  -2.2821402e-04  -9.6971642e-05  -9.7980243e-05  -1.0324468e-05  -5.7820911e-05  -5.8123661e-04  -2.4569748e-04   3.3023648e-04  -3.0980780e-04  -5.3407217e-04  -1.5597197e-04  -1.4793676e-04  -2.5592043e-04   1.0651568e-04   1.0687116e-03   3.6097705e-04  -4.6946199e-05  -1.4011702e-04   3.0092569e-05  -4.5711987e-04  -5.1481911e-04  -2.8063243e-04  -4.8771003e-04   2.4781830e-04   4.5047427e-04  -3.8461652e-04  -6.6248520e-04  -1.4194871e-03  -8.8239607e-04  -9.9881226e-04  -6.7905395e-04  -9.3365333e-04  -8.1545778e-04  -4.6101876e-04  -7.8006566e-04  -8.8211807e-04  -1.1785689e-03
  -1.4824689e-04  -9.6356132e-05  -2.2287712e-04  -2.1379058e-04  -2.1403428e-04  -2.8046416e-04  -3.3184362e-04  -2.1392699e-04  -7.1958697e-04  -1.9768532e-04  -3.1107216e-04  -2.2496752e-04  -2.9822611e-04  -3.6625064e-04  -2.7182649e-04  -2.2355956e-04  -9.9522113e-05  -1.3122486e-04  -8.9723163e-04  -4.9039203e-04   7.4788026e-05  -5.3937850e-04  -6.7285675e-04  -3.1319429e-04  -4.7533892e-04  -4.1385929e-04  -6.0209644e-05   1.0859416e-03   2.2390965e-04  -1.5080128e-04  -2.6815024e-04  -1.9368686e-06  -6.6392793e-04  -8.1315567e-04  -4.6532199e-04  -6.2119530e-04   2.0101934e-04   3.8342708e-04  -4.9621501e-04  -9.0599555e-04  -1.1216900e-03  -9.8173565e-04  -9.9901867e-04  -8.6077623e-04  -8.7192276e-04  -9.3299249e-04  -3.9762119e-04  -7.8765769e-04  -6.6792336e-04  -1.0454666e-03
   1.2548461e-04   2.3734078e-04   2.4583940e-05   3.6907844e-05   8.1531769e-05   6.9456182e-05   5.3238895e-05  -3.2466134e-05  -3.7937512e-04   6.2872110e-05  -8.5324318e-05  -3.4174733e-05  -1.0589280e-04  -2.2632873e-04  -1.0767738e-04  -9.6349650e-05   5.1068811e-05  -8.5651373e-05  -5.5109622e-04  -1.7931884e-04   3.4656670e-04  -2.6254996e-04  -3.5173379e-04  -1.1095305e-04  -2.3792405e-04  -2.2882939e-04   1.2072735e-04   9.9387532e-04   3.4966969e-04   1.7535742e-05  -6.3193875e-05   4.5425248e-05  -3.4165135e-04  -4.0668077e-04  -2.2747280e-04  -3.3500165e-04   4.1154769e-04   3.8978606e-04  -2.3487856e-04  -5.6162081e-04  -1.1013625e-03  -8.2869764e-04  -1.0545449e-03  -6.8548415e-04  -7.8639714e-04  -7.2866870e-04  -3.3057167e-04  -6.3193263e-04  -6.8156415e-04  -9.5312821e-04
   6.1116552e-05   1.1388810e-04  -5.7650963e-05  -5.5770583e-05  -5.0666986e-05  -1.0023603e-04  -1.0510997e-04  -1.1129378e-04  -5.1321305e-04  -6.0381130e-06  -1.2899295e-04  -8.0016187e-05  -1.6135289e-04  -2.3551570e-04  -1.6243209e-04  -1.0087132e-04   6.1072678e-05  -7.3156290e-05  -6.7839544e-04  -2.5717536e-04   2.3057558e-04  -3.1889358e-04  -5.4876215e-04  -1.6798484e-04  -2.5286796e-04  -2.3394664e-04   5.8923575e-05   1.0242158e-03   3.0664090e-04  -4.4555272e-05  -8.2542276e-05   2.1157124e-05  -2.8875592e-04  -5.0182844e-04  -2.7120637e-04  -4.4105525e-04   3.6684889e-04   3.2946502e-04  -5.0682249e-04  -6.5054977e-04  -9.6512458e-04  -8.0784207e-04  -1.0750545e-03  -1.1263953e-03  -9.8599796e-04  -8.8882609e-04  -4.2421519e-04  -7.6335605e-04  -1.0367588e-03  -1.2038503e-03
  -3.3201350e-04  -3.5428509e-04  -4.0827593e-04  -4.0807220e-04  -3.9948561e-04  -4.6299840e-04  -5.3464930e-04  -3.0668007e-04  -8.7548146e-04  -2.3285157e-04  -3.6081386e-04  -2.9905094e-04  -3.1777046e-04  -3.9998474e-04  -2.6271181e-04  -2.1728019e-04   3.6463048e-06  -5.2883421e-05  -6.5301807e-04  -2.7280333e-04   2.0710315e-04  -3.6330085e-04  -4.9866427e-04  -1.4770545e-04  -2.6994498e-04  -2.6896648e-04   1.3602775e-04   1.1302812e-03   3.0236851e-04   7.5821430e-05  -2.7641405e-05   1.5177198e-04  -3.5793227e-04  -3.3105398e-04  -2.0341648e-04  -3.2355951e-04   3.1826817e-04   3.8526006e-04  -2.1972640e-04  -3.9895228e-04  -8.9078711e-04  -5.9866841e-04  -7.3165377e-04  -5.0502317e-04  -6.6198211e-04  -4.9505371e-04  -1.9007412e-04  -4.7623078e-04  -6.1919336e-04  -9.6214609e-04
   2.0836499e-04   2.3585590e-04   5.9280865e-05   3.7816826e-05   5.3564572e-06  -4.9495105e-05  -2.2073506e-05  -4.0137053e-05  -4.0290097e-04   1.0641439e-04  -5.5620989e-05  -1.7412485e-05  -6.6309251e-05  -2.4589506e-04  -7.1321214e-05  -8.2936000e-05   1.5478849e-04   9.9991266e-06  -5.2544498e-04  -1.3682696e-04   2.9239862e-04  -1.7970317e-04  -4.5867250e-04  -1.0213568e-04  -2.0580468e-04  -1.4763627e-04   7.2919589e-05   1.0543250e-03   3.3914053e-04   2.2149021e-05   5.4351789e-05   1.4370120e-04  -3.2990036e-04  -2.8216967e-04  -2.4377689e-04  -2.7543976e-04   2.7242434e-04   3.7291128e-04  -3.8041116e-04  -4.6970198e-04  -7.2090619e-04  -4.9908279e-04  -5.3331914e-04  -4.7479357e-04  -8.4666314e-04  -7.5481099e-04  -1.9626293e-04  -5.4870435e-04  -8.1357243e-04  -1.0187633e-03
  -5.9885522e-05  -9.7382137e-05  -1.6035969e-04  -1.9659374e-04  -2.0593971e-04  -2.2150687e-04  -3.0855188e-04  -1.4469330e-04  -6.5886526e-04  -2.4586667e-05  -1.9592578e-04  -1.4494229e-04  -2.3998774e-04  -3.0546627e-04  -1.7913932e-04  -1.3589123e-04   8.2561062e-05  -1.6334521e-05  -8.7945082e-04  -2.9182085e-04   1.0994742e-04  -3.4091328e-04  -4.2763117e-04  -1.9131269e-04  -1.7874541e-04  -2.7356064e-04   3.5468340e-05   9.8387199e-04   2.5063715e-04  -8.4905121e-05  -4.0330313e-05   8.4303501e-05  -5.0463981e-04  -5.1793107e-04  -3.5618292e-04  -5.1473884e-04   1.7897204e-04   3.2361047e-04  -4.6769902e-04  -7.1897998e-04  -9.7975519e-04  -6.4514304e-04  -6.5664796e-04  -1.1101373e-03  -1.2513223e-03  -8.5898116e-04  -3.0756649e-04  -7.3639501e-04  -9.1238529e-04  -1.0965053e-03
  -1.1778693e-04  -9.8596247e-05  -9.8415483e-05  -1.0091691e-04  -8.6129185e-05  -1.3754619e-05  -8.3862498e-05  -7.6839337e-05  -4.1142019e-04   1.5726330e-04  -7.9795602e-05  -4.1012114e-05  -1.0378950e-04  -2.5011957e-04  -1.2003954e-04  -7.2558680e-05   1.8356324e-04   7.2762568e-06  -4.6441978e-04  -3.3735043e-05   3.3336773e-04  -1.3027342e-04  -3.1926649e-04  -2.3762039e-05  -1.9491884e-04  -9.0720074e-05   1.8863968e-04   1.1679806e-03   3.7548778e-04   8.8157467e-05   1.5306380e-04   1.8782633e-04  -3.4323902e-04  -2.8995448e-04  -1.1928332e-04  -1.1973421e-04   4.6846911e-04   4.0463134e-04   8.2593782e-05  -3.4251233e-04  -6.4041466e-04  -3.5974663e-04  -4.4563349e-04  -4.7144684e-04  -6.8613596e-04  -5.4126873e-04  -2.1576339e-05  -4.0803329e-04  -6.1380252e-04  -9.0018584e-04
   1.8099650e-04   1.2843874e-04   6.1340099e-05  -5.8820733e-06  -2.0767468e-05   2.4879531e-05  -6.6056076e-05  -6.9970498e-05  -3.0758814e-04   2.1533186e-04   9.0933090e-06   4.0759111e-05  -5.4133612e-05  -1.5215443e-04  -2.7430966e-05  -1.9675950e-05   2.2664374e-04   4.6193087e-05  -5.9999852e-04   1.1519077e-05   3.3438081e-04  -8.4347266e-05  -3.2724519e-04  -2.6522655e-05   2.5932577e-05  -5.4189408e-05   1.3778846e-04   9.6027210e-04   3.6448467e-04   2.8406188e-05   9.2819813e-05   2.0057565e-04  -2.0599975e-04  -3.0822444e-04  -1.6616745e-04  -1.6771851e-04   1.5528461e-04   4.1040138e-04  -2.1609836e-04  -4.5315540e-04  -7.2595460e-04  -4.1873837e-04  -5.5516674e-04  -6.5771030e-04  -7.9041917e-04  -6.1105692e-04  -5.2294403e-05  -4.3328226e-04  -8.3118735e-04  -9.8019978e-04
  -7.2659401e-05  -1.6110329e-04  -1.4839647e-04  -2.3425996e-04  -2.3126733e-04  -3.0224730e-04  -3.9336598e-04  -2.4452357e-04  -6.4791646e-04   1.6744249e-05  -1.6404879e-04  -1.2581539e-04  -2.1743434e-04  -3.6658239e-04  -2.2018640e-04  -1.6238524e-04   8.9129615e-05   5.9304161e-06  -9.3900139e-04  -2.3745852e-04   9.0958638e-05  -2.7533722e-04  -4.3711151e-04  -2.0621976e-04  -3.3375752e-04  -2.0237842e-04   2.5007237e-05   8.7323878e-04   3.5233542e-04  -1.4466542e-04  -2.4130848e-05   1.8097159e-04  -3.7684376e-04  -3.4474832e-04  -2.5954915e-04  -2.7095721e-04   3.4434372e-04   4.5669478e-04  -2.3936701e-04  -4.4276062e-04  -1.2156435e-03  -3.7164794e-04  -5.0290360e-04  -6.3904177e-04  -5.4843666e-04  -6.1453920e-04   7.1318100e-05  -3.8665647e-04  -4.7675162e-04  -7.9238217e-04
   3.6162988e-04   3.1402774e-04   2.5778328e-04   1.5762387e-04   1.7257773e-04   1.9947151e-04   8.1336933e-05   1.0947987e-05  -8.5257197e-05   3.9200150e-04   1.7082113e-04   1.8034736e-04   8.2467050e-05  -1.0179493e-04   4.9241058e-05   7.0581184e-05   3.0892805e-04   5.3376021e-05  -3.4356216e-04   1.9470359e-04   4.7612842e-04   1.3074149e-04  -1.5074489e-04   1.1149954e-04  -9.5975774e-06   8.6133485e-05   1.4711804e-04   1.0394206e-03   3.6530721e-04   1.0700262e-05   2.4932128e-04   3.5616275e-04  -2.8502927e-05  -1.6926236e-04  -1.5811999e-04  -6.6586908e-05   3.2767889e-04   4.6634930e-04  -1.7372993e-04  -3.0576155e-04  -6.3386420e-04  -2.1316574e-04  -3.7820169e-04  -4.4434523e-04  -5.3591968e-04  -3.1344840e-04   1.3625559e-04  -2.5515302e-04  -5.2058708e-04  -6.5642322e-04
   2.8797096e-04   1.9986190e-04   1.9516793e-04   6.3927859e-05   1.1217119e-05  -4.3512104e-05  -5.1872066e-05   2.7533647e-06  -2.3991310e-04   3.1750349e-04   1.3576612e-04   1.3057052e-04   2.0718377e-05  -1.0854665e-04  -4.4463166e-05   3.6152098e-05   3.0726634e-04   3.4888086e-05  -4.5950271e-04   1.1720642e-04   3.4112739e-04   7.4023024e-05  -2.5606572e-04   7.6781522e-05  -3.3781802e-05   4.5351368e-05   9.8668526e-05   9.1805408e-04   3.3295096e-04  -3.6901565e-05   1.6493219e-04   2.6352511e-04  -2.4645394e-04  -7.1322036e-05  -1.5217914e-04  -2.1127949e-04   2.0088730e-04   3.9570953e-04  -2.9894747e-04  -4.2334135e-04  -7.4450416e-04  -3.9147501e-04  -4.8609957e-04  -5.1907927e-04  -7.6276792e-04  -6.6021859e-04   2.4315144e-05  -4.1872475e-04  -8.9282909e-04  -9.5053954e-04
  -1.3867109e-04  -2.5399629e-04  -1.2311568e-04  -2.4896199e-04  -2.0739521e-04  -2.9429566e-04  -3.6247316e-04  -1.8723373e-04  -3.8503378e-04   2.4802578e-04   3.2043943e-05   3.8528062e-05  -5.2758798e-05  -1.9476320e-04  -8.5867505e-05   2.9946220e-06   2.8249857e-04   8.2438659e-05  -3.7655272e-04   2.0661137e-04   4.3028072e-04   1.7057169e-04  -1.7878090e-04   1.6087337e-04   1.6019068e-05   9.9528872e-05   1.4678057e-04   8.7401114e-04   4.2503030e-04   4.0653442e-05   2.6927658e-04   2.8822172e-04  -2.0813959e-05   8.3998646e-07  -7.0162023e-05  -9.1347763e-05   2.7632149e-04   5.2613585e-04  -1.9478663e-04  -1.0515258e-04  -6.0219277e-04  -1.0102548e-04  -2.8625655e-04  -4.1777236e-04  -4.5769653e-04  -2.1954355e-04   3.2310386e-04  -5.1537958e-05  -3.2087183e-04  -5.3627539e-04
   5.2595546e-04   4.0860334e-04   4.1598911e-04   2.3176901e-04   2.2335218e-04   1.2196206e-04   9.6372358e-05   1.1641486e-04  -3.9465158e-06   5.1101553e-04   3.1791473e-04   2.7373136e-04   1.4523458e-04  -5.2265436e-06   1.7717599e-05   1.2792929e-04   3.9153357e-04   1.2968619e-04  -3.3414402e-04   3.4126098e-04   5.0571130e-04   3.0440421e-04  -1.0912673e-04   2.1451790e-04   1.9992111e-04   2.2817827e-04   2.0485766e-04   8.1487256e-04   4.8765083e-04  -4.9576796e-05   3.0796282e-04   3.6946050e-04  -4.2019685e-05  -1.4417881e-05  -4.6215144e-05  -2.9434098e-06   1.2704768e-04   5.8253214e-04  -2.6663678e-04  -1.6002047e-04  -4.0682041e-04  -1.5209315e-04  -4.5375948e-04  -4.4392960e-04  -3.9895737e-04  -2.5655873e-04   2.7713695e-04  -9.9816389e-05  -4.7135411e-04  -6.4141228e-04
   3.1779197e-04   1.7522575e-04   2.6916779e-04   8.7071458e-05   4.8474863e-05   6.6086150e-06  -6.6745422e-05   1.2823098e-05  -1.9789131e-04   3.6170296e-04   2.1428974e-04   1.6395529e-04   5.1715961e-05  -1.2591593e-04  -8.4571468e-05   5.7131027e-05   2.8382801e-04   7.7421537e-05  -5.2021985e-04   1.7770131e-04   3.1530039e-04   1.3704003e-04  -2.1017577e-04   1.0602323e-04   8.0292557e-05   1.1733003e-04   8.3256207e-05   6.6176098e-04   3.9280643e-04  -1.5362236e-04   1.3436012e-04   3.0713601e-04  -1.4820964e-04  -1.4831766e-04  -1.7930107e-04  -1.7254757e-04   5.5025044e-05   5.2437640e-04  -2.3229704e-04  -3.4890117e-04  -5.0452864e-04  -2.8399823e-04  -3.0039725e-04  -3.3093966e-04  -3.8397813e-04  -2.7685461e-04   3.3263452e-04  -1.4494343e-04  -2.4159862e-04  -4.9890950e-04
   5.3985394e-04   4.4761252e-04   4.7783158e-04   3.1761581e-04   3.2020712e-04   2.4688378e-04   2.5558757e-04   2.0850504e-04   1.7476558e-04   6.1301130e-04   4.2129768e-04   3.6736467e-04   2.5120151e-04   5.0062470e-05   1.4537592e-04   1.8962221e-04   4.3492444e-04   7.9971571e-05  -1.2474981e-04   5.0574064e-04   5.9578998e-04   4.4076506e-04   9.2952592e-05   3.8810336e-04   1.3245040e-04   3.3798916e-04   3.2433655e-04   7.7665586e-04   4.7171253e-04  -2.6361390e-06   3.2770660e-04   3.5019786e-04   2.5517750e-04   1.2198267e-04   7.6633260e-05   1.4452095e-04   3.1528125e-05   5.1965174e-04  -2.1307352e-04  -2.4745043e-05  -2.2837517e-04  -4.3475807e-06  -6.2288898e-05  -2.6915382e-04  -2.1770739e-04   1.0473765e-04   4.4319747e-04   1.1126697e-04  -1.6032833e-04  -3.3377754e-04
   5.8810716e-04   4.3041210e-04   5.1467289e-04   3.1251725e-04   2.8797201e-04   2.4444034e-04   1.8270467e-04   2.0088501e-04   9.2572431e-05   5.7277095e-04   4.2178037e-04   3.6405353e-04   2.4484712e-04   6.9419431e-05   1.7014089e-04   1.9712915e-04   4.2644024e-04   8.5519248e-05  -2.2252649e-04   4.6001544e-04   5.0853641e-04   3.9948418e-04  -1.1622967e-06   3.7551046e-04   6.0980587e-06   2.8606717e-04   2.1784517e-04   5.7153997e-04   3.2766638e-04  -5.9071219e-05   3.5495622e-04   3.5394821e-04   7.8244942e-05   9.9308032e-05   5.0669139e-05   4.3960117e-05  -1.1578904e-05   4.1981635e-04  -2.4316489e-04  -1.0379559e-04  -3.7854537e-04  -9.3080998e-05  -1.7021489e-04  -1.2546298e-04  -2.8779134e-04  -9.4094248e-05   3.4159620e-04   1.8430917e-05  -4.3720036e-04  -5.8140716e-04
   2.1461825e-04   6.3499821e-05   2.4630429e-04   6.9083704e-05   5.6596262e-05   4.3348391e-06  -3.3326640e-05   2.4934861e-05   5.4011954e-05   5.1828078e-04   3.6663259e-04   2.9613756e-04   2.2648122e-04   4.1866559e-05   1.2098409e-04   1.9689790e-04   4.7210357e-04   9.1909453e-05  -1.0926437e-04   5.7489797e-04   5.6727993e-04   4.9671461e-04   1.7023865e-04   4.2965921e-04   1.8761135e-04   4.2462535e-04   2.6015681e-04   7.0954289e-04   3.3101445e-04   8.5573192e-05   5.4323737e-04   4.3404271e-04   4.1025886e-04   3.0508213e-04   1.7028487e-04   1.7715800e-04   2.9100827e-04   4.4725731e-04   1.1894795e-04   1.1349227e-04  -1.1285897e-04   2.0129496e-04   8.7009052e-05  -1.2167495e-04  -2.5035302e-05  -1.2718431e-05   6.2836683e-04   3.4683719e-04   9.8203614e-05  -7.2830611e-05
   7.8532280e-04   5.6663266e-04   6.8347139e-04   4.4430560e-04   4.0768483e-04   3.4115845e-04   3.3626915e-04   2.9137687e-04   2.6555519e-04   7.1910885e-04   5.6708144e-04   4.7998625e-04   3.7450431e-04   2.8033493e-04   2.7591753e-04   3.4230840e-04   6.2958681e-04   1.5350847e-04   1.2477527e-04   7.0989528e-04   6.2357594e-04   5.7804602e-04   3.0250233e-04   5.6335854e-04   2.6082492e-04   5.6069868e-04   4.4084527e-04   6.6051388e-04   3.3178600e-04   1.4032889e-04   4.9853645e-04   4.9504958e-04   5.1219872e-04   4.6032210e-04   2.0423492e-04   3.3995515e-04   1.0297941e-04   3.7352071e-04   6.0044975e-05   7.5169279e-05   3.4841298e-04   3.6628140e-04   3.0891984e-04   3.1904787e-05  -4.6921764e-06   3.4555621e-04   6.6611840e-04   4.9027655e-04  -4.5191620e-05  -7.5309152e-05
   5.5286847e-04   3.4425463e-04   5.2022323e-04   2.8057359e-04   2.3015654e-04   2.2680291e-04   1.5196831e-04   2.2356509e-04   1.2287284e-04   5.6304148e-04   4.3388433e-04   3.4870041e-04   2.5709934e-04   2.2373073e-04   2.3911837e-04   2.9264225e-04   5.7219324e-04   1.5821731e-04  -2.4101048e-04   5.4671016e-04   4.2024854e-04   4.4603393e-04   6.4268308e-05   4.4563421e-04   3.0982538e-04   3.9526829e-04   3.5298150e-04   6.7675888e-04   3.6774986e-04   1.0874990e-04   4.5579445e-04   4.4460793e-04   3.6305279e-04   3.6525706e-04   5.5587574e-05   3.5237463e-04   2.1277711e-04   3.9767055e-04   1.5828620e-04   1.9694456e-04   2.7142934e-04   5.0411042e-04   4.4147036e-04   3.4309248e-04   1.8816772e-04   4.7400015e-04   7.8704493e-04   5.4449128e-04   2.6040888e-04   1.2660354e-04
   9.0472464e-04   6.8742130e-04   8.6441630e-04   5.9122517e-04   6.1582564e-04   6.1816297e-04   6.1055250e-04   5.1774981e-04   5.8634963e-04   9.2454773e-04   7.2667695e-04   6.3866703e-04   5.9414865e-04   4.8628126e-04   4.0984657e-04   5.1851314e-04   7.9631363e-04   2.7119240e-04   3.2343384e-04   1.0123732e-03   7.8729761e-04   8.2030549e-04   5.1198760e-04   7.5589574e-04   5.3070515e-04   7.4736716e-04   5.3854822e-04   6.6475041e-04   4.8138076e-04   2.9707514e-04   7.8246935e-04   7.1365968e-04   5.3763360e-04   8.1396470e-04   3.8997227e-04   6.1185646e-04   3.4155548e-04   5.3191918e-04   2.5800854e-04   4.6903503e-04   3.4544396e-04   7.1999035e-04   7.0195395e-04   4.1762670e-04   3.3373717e-04   6.7498657e-04   1.0183543e-03   8.7645155e-04   4.2771935e-04   3.2963316e-04
   1.0439481e-03   7.5090415e-04   9.6715643e-04   6.2725414e-04   6.3959276e-04   6.3629088e-04   6.0566369e-04   5.6579901e-04   6.0218427e-04   8.9699973e-04   7.8838319e-04   6.5141771e-04   5.9531810e-04   5.5709982e-04   4.3542910e-04   5.5693241e-04   7.9086277e-04   2.8745591e-04   2.9615103e-04   9.7304635e-04   7.0491369e-04   7.9555187e-04   4.5417846e-04   7.8168849e-04   3.9424788e-04   7.3128118e-04   5.8073923e-04   5.5103755e-04   4.5963508e-04   2.6157883e-04   6.4854760e-04   6.1345933e-04   4.3860756e-04   7.5658894e-04   3.1592164e-04   5.6688534e-04   2.3850889e-04   5.2315876e-04   3.5539607e-04   4.2287630e-04   3.5388028e-04   7.1609655e-04   5.4344634e-04   1.5541766e-04   2.8118154e-04   5.1873981e-04   9.2345366e-04   7.1453745e-04   1.8099548e-04   1.3830056e-04
   6.9910719e-04   4.3872761e-04   6.8821717e-04   3.9523799e-04   4.2448353e-04   3.3940375e-04   3.1104675e-04   4.1850496e-04   3.4015605e-04   6.9929019e-04   6.1010738e-04   4.8319952e-04   4.5164258e-04   4.0687050e-04   3.1257950e-04   4.8613866e-04   6.7104003e-04   2.6743292e-04   3.7891546e-04   9.7168755e-04   7.0074917e-04   7.6663244e-04   5.2075129e-04   8.0099743e-04   4.6577537e-04   7.6193572e-04   5.5053813e-04   9.0463436e-04   5.2935129e-04   3.2403585e-04   7.0350879e-04   6.4298685e-04   6.0264824e-04   8.1598078e-04   5.1730609e-04   7.5032929e-04   4.9626210e-04   6.1011122e-04   3.3312975e-04   7.6952431e-04   4.1103325e-04   7.3092739e-04   7.4050808e-04   3.4774502e-04   5.2383519e-04   8.7086420e-04   1.1962310e-03   9.9216378e-04   7.7868631e-04   4.8903737e-04
   1.4401851e-03   1.0443956e-03   1.2877187e-03   9.1699790e-04   1.0139311e-03   8.7284908e-04   9.4940822e-04   9.0264389e-04   8.2541246e-04   1.0985241e-03   1.0062591e-03   8.3871779e-04   8.0751133e-04   7.8133284e-04   5.6435255e-04   7.2516606e-04   8.0708112e-04   3.0002222e-04   5.9817830e-04   1.2071935e-03   8.7468681e-04   1.0159388e-03   6.9821940e-04   9.7993086e-04   6.2982249e-04   9.2852279e-04   7.1644818e-04   6.8397290e-04   5.5160688e-04   3.0670062e-04   8.1892771e-04   7.4884348e-04   8.9586648e-04   9.1018376e-04   5.5986689e-04   8.4688462e-04   3.0898806e-04   6.6048081e-04   4.2113950e-04   6.6814851e-04   4.9880077e-04   6.9488096e-04   5.7832839e-04   4.8084071e-04   6.3230685e-04   7.9711579e-04   1.1778694e-03   8.8782236e-04   6.9363037e-04   4.6850560e-04
   1.2523383e-03   8.7053416e-04   1.1272081e-03   7.8369793e-04   8.4221439e-04   7.8200822e-04   7.5842079e-04   8.2605041e-04   5.9950678e-04   9.4049872e-04   9.1430295e-04   7.1991893e-04   7.0655008e-04   6.8107038e-04   5.3548318e-04   6.2962988e-04   6.9328875e-04   2.7046169e-04   3.9356414e-04   9.9540548e-04   6.7586330e-04   8.0672588e-04   5.8680103e-04   8.5358589e-04   5.6784000e-04   7.6453574e-04   6.8472716e-04   7.2845438e-04   5.8440329e-04   2.3377768e-04   6.2152662e-04   6.6696020e-04   5.0796208e-04   7.6266460e-04   3.6081544e-04   5.4798170e-04   4.3460398e-04   5.8042246e-04   3.2154078e-04   4.1618323e-04   4.2091194e-04   4.4767756e-04   4.1684721e-04  -2.4040175e-05   3.3032606e-04   5.9568812e-04   9.0781349e-04   6.6705252e-04   2.9239964e-04   1.6673612e-04
   7.7322935e-04   4.6139525e-04   7.4248295e-04   4.8007263e-04   5.2709307e-04   4.8278857e-04   4.4909306e-04   5.7408726e-04   2.2405072e-04   6.2937522e-04   6.2403159e-04   4.4635104e-04   4.6000938e-04   4.1444018e-04   2.9499936e-04   4.4660256e-04   4.5015043e-04   1.5923452e-04   1.0439914e-04   6.3402898e-04   3.7428166e-04   5.1705609e-04   3.5597489e-04   5.6500291e-04   3.5613799e-04   4.9348513e-04   4.8845209e-04   8.9978724e-04   5.1617133e-04   1.2872675e-04   3.5075450e-04   5.2709458e-04   2.1051912e-04   3.5519112e-04   1.1605524e-04   2.9200912e-04   2.7508670e-04   5.5413623e-04   7.3171504e-05   1.3260318e-04  -1.4600587e-04   1.5869123e-04   1.4603419e-04   8.5438165e-05   2.5680737e-04   3.4479311e-04   7.9291838e-04   4.2703439e-04   4.4795271e-04   1.0933983e-04
   1.0685883e-03   7.6832628e-04   9.6231111e-04   7.2553242e-04   8.5723866e-04   7.6596334e-04   7.8721513e-04   7.3888304e-04   6.7929830e-04   8.9390378e-04   7.9658633e-04   6.0246245e-04   6.5259606e-04   6.1172835e-04   4.6127048e-04   5.9196708e-04   5.5053423e-04   1.8706657e-04   4.9777410e-04   8.9187501e-04   6.1687129e-04   7.2868192e-04   6.6606613e-04   7.6793606e-04   4.2193389e-04   6.7545759e-04   7.2552235e-04   1.0404506e-03   6.4642879e-04   3.3445010e-04   6.0718862e-04   6.4625707e-04   5.5447780e-04   6.0532562e-04   4.1563291e-04   5.5006385e-04   6.2812667e-04   6.8422646e-04   4.7693111e-04   5.9383042e-04   2.3737246e-04   3.3018950e-04   3.9269871e-04   4.3453509e-04   4.6681921e-04   4.9685215e-04   9.0134668e-04   5.1763997e-04   6.4116891e-04   2.7182998e-04
   1.2786336e-03   9.1605302e-04   1.1160756e-03   8.4569264e-04   9.6022454e-04   9.1016613e-04   9.4409159e-04   9.4421487e-04   7.3288230e-04   9.3938690e-04   8.9824962e-04   6.7408540e-04   7.1760418e-04   6.9818390e-04   5.1975012e-04   6.6324178e-04   5.6040369e-04   2.1022827e-04   4.1633175e-04   8.3786395e-04   5.6535902e-04   6.8985450e-04   6.9892389e-04   7.8892364e-04   6.5483956e-04   5.9557107e-04   6.9453917e-04   9.3605928e-04   5.7482859e-04   2.8542429e-04   5.1389640e-04   6.2108430e-04   4.6094880e-04   6.1095471e-04   3.5938460e-04   5.0965475e-04   4.1871137e-04   6.1793101e-04   2.3683743e-04   3.3947537e-04   2.4784941e-04   2.4279884e-04   1.8823789e-04   2.2123230e-04   3.4106383e-04   3.8526481e-04   7.6455373e-04   3.7599693e-04   3.7775913e-04   8.1646343e-05
   9.3285128e-04   6.2181643e-04   8.2212110e-04   6.0692115e-04   7.0706324e-04   7.1294286e-04   6.1648007e-04   7.1383599e-04   4.1236228e-04   6.8990514e-04   6.6649757e-04   4.4934454e-04   5.2670005e-04   5.0219911e-04   3.2896808e-04   5.1216420e-04   3.9730640e-04   1.4287778e-04   1.0651365e-04   5.4012699e-04   2.9618209e-04   3.9533869e-04   4.1931515e-04   5.2846479e-04   2.7695423e-04   4.0303881e-04   6.1202253e-04   9.3233038e-04   5.4492056e-04   1.8660414e-04   2.3413492e-04   4.4988640e-04   3.1176666e-04   3.1941995e-04   1.6552619e-04   2.6876561e-04   3.6832906e-04   5.1790918e-04   4.0949206e-05   1.3295136e-04  -1.0619290e-04   1.9118897e-05   1.0696548e-04  -1.5671965e-04  -3.7728052e-05   2.1482827e-05   4.7089646e-04   8.5605483e-05   1.2080246e-05  -2.0067843e-04
   5.2814267e-04   2.8087164e-04   5.4296514e-04   4.0527323e-04   5.8286532e-04   5.9387257e-04   5.2506011e-04   6.6013040e-04   4.2539882e-04   6.8410143e-04   5.8198714e-04   3.9326854e-04   4.6038494e-04   4.7473918e-04   2.8083124e-04   4.7971233e-04   3.2938758e-04   8.4111009e-05   2.6641108e-04   5.3831242e-04   3.4570330e-04   4.3123699e-04   5.2437902e-04   5.4300204e-04   2.2282307e-04   3.9326755e-04   6.7249662e-04   9.5160172e-04   4.3688680e-04   2.6442949e-04   2.8203227e-04   4.0813870e-04   2.3136177e-04   4.2262298e-04   2.6463950e-04   4.0692691e-04   4.9799203e-04   5.3360104e-04   3.7190472e-04   3.3538425e-04   8.2877763e-05   3.7950071e-05  -5.2501218e-06   2.3419801e-05   3.1246978e-04   2.5441937e-04   5.9123465e-04   1.6969231e-04   5.2188768e-04   6.8399400e-05
   1.0895272e-03   7.9679588e-04   8.8072190e-04   7.1826979e-04   8.3633006e-04   7.7405304e-04   7.7563466e-04   7.7621196e-04   5.1685190e-04   7.9614279e-04   7.0755358e-04   5.0888362e-04   5.5925135e-04   5.8655196e-04   3.5864286e-04   5.7487650e-04   3.4882154e-04   9.6894844e-05   2.8562004e-04   5.1544432e-04   3.4557653e-04   3.9853569e-04   4.5335852e-04   5.5320392e-04   2.9314362e-04   3.3230553e-04   6.0259964e-04   8.7372510e-04   4.8090395e-04   2.6054846e-04   2.9686431e-04   4.4379453e-04   2.2782433e-04   3.1837661e-04   2.2745368e-04   3.0709052e-04   5.3793000e-04   4.6280207e-04   3.3342247e-04   1.9892542e-04   8.9731839e-06  -6.0393522e-05   1.7977472e-05   1.1265427e-05   9.2248025e-05   2.3357509e-07   4.6192537e-04   1.4694365e-04   2.3180788e-04  -1.1107846e-04
   7.6272647e-04   5.3114246e-04   6.1362912e-04   4.9434532e-04   5.6844379e-04   5.2297232e-04   5.4334028e-04   7.4641732e-04   2.3817226e-04   6.0729496e-04   5.2419893e-04   3.3171297e-04   3.8995876e-04   4.0304780e-04   2.5234334e-04   4.3277477e-04   2.3630983e-04   5.3833079e-05   1.6110884e-05   2.5422958e-04   1.0073129e-04   1.4874696e-04   2.5441364e-04   3.3101012e-04   2.4015027e-04   1.9731140e-04   5.4145645e-04   9.8969520e-04   4.0148801e-04   1.5629074e-04   1.2261163e-04   2.3793260e-04  -4.9651403e-06  -2.8500774e-05   1.7614984e-05  -4.5592162e-05   3.6488529e-04   3.7286524e-04   1.2403705e-04  -9.4440380e-05  -1.7879815e-04  -2.1364648e-04  -2.6367037e-04  -2.9707563e-04  -2.6215636e-04  -2.8258210e-04   1.9719108e-04  -1.3084315e-04  -2.0884880e-04  -3.8282093e-04
   3.2566508e-04   1.3370608e-04   3.1549117e-04   2.7125626e-04   4.4079957e-04   4.8339184e-04   3.8132223e-04   5.4342841e-04   2.7274821e-04   5.8515061e-04   4.2878697e-04   2.5232768e-04   3.3174700e-04   3.6321065e-04   1.2643986e-04   3.6896110e-04   1.8715645e-04   2.7165395e-05   1.4832380e-04   2.8165980e-04   1.7960198e-04   1.8486998e-04   3.8692821e-04   3.6299627e-04   1.5398592e-04   1.4685918e-04   5.1306619e-04   9.8440796e-04   3.5627454e-04   2.5789285e-04   1.6183069e-04   2.6999819e-04  -2.7733581e-04   8.5695858e-05   1.2008019e-04   2.0467988e-04   6.5460050e-04   4.4985602e-04   2.6357119e-04   1.8397489e-04  -3.1795766e-04  -1.1791554e-04  -9.1109760e-05   7.1934664e-05   1.2288935e-04  -1.3280899e-04   3.6890339e-04   2.5777877e-06   3.4464293e-04  -1.5587440e-04
   8.8272797e-04   6.6838524e-04   6.7963032e-04   5.8345473e-04   6.8501238e-04   7.6664391e-04   6.8675692e-04   7.5494678e-04   3.9655023e-04   7.1085826e-04   5.3727027e-04   3.7955600e-04   4.2523397e-04   4.8677140e-04   1.9887074e-04   4.3234808e-04   1.7635192e-04   4.0658011e-05   2.3079959e-04   2.5842589e-04   1.9914260e-04   1.9602040e-04   3.3153250e-04   3.7131674e-04   2.2104473e-04   1.4309013e-04   4.6076393e-04   8.0218469e-04   3.4688596e-04   1.6063428e-04   2.9891444e-05   2.0377370e-04  -1.6252976e-04   5.6361074e-05  -1.0807440e-06   5.8557165e-05   4.5702056e-04   3.9028347e-04   1.7952688e-04   1.0490464e-05  -5.8416630e-05  -1.7860369e-04  -1.7534902e-04  -2.7574640e-04  -6.8077956e-05  -3.2657586e-04   2.3346789e-04  -1.0371268e-04   8.5454543e-05  -2.2171652e-04
   4.9614260e-04   3.4529628e-04   3.7290104e-04   3.4850545e-04   3.7897428e-04   4.4730611e-04   3.4602307e-04   5.1529589e-04   7.6194585e-05   5.0724496e-04   3.3037577e-04   1.9932391e-04   2.1348275e-04   2.9582134e-04   7.5241565e-05   2.6440833e-04   9.7520468e-05  -1.1320699e-05  -4.4128308e-05   1.0765541e-05  -3.5560934e-05  -4.9281054e-05   1.3033583e-04   1.5994880e-04  -1.3007870e-04  -8.7057218e-05   3.1853357e-04   9.2128722e-04   2.6330282e-04   9.9546771e-05  -5.0171784e-05   1.2152192e-04  -3.0070456e-04  -1.8467398e-04  -1.0298986e-04  -2.0420417e-04   4.4462908e-04   2.0033999e-04  -1.6140165e-04  -3.7618089e-04  -5.5906159e-04  -3.2010840e-04  -4.1074192e-04  -5.7747716e-04  -5.8580906e-04  -7.0068752e-04  -3.7310489e-05  -2.8951111e-04  -4.2275240e-04  -5.4546440e-04
  -7.7349374e-05  -1.8647267e-04  -1.0260614e-04  -6.0748403e-05  -6.5800945e-05  -3.6253154e-05  -1.0638269e-04   1.9680950e-04  -2.9827715e-04   2.2106765e-04   4.7945932e-06  -8.0684273e-05  -1.5203346e-05   6.5434484e-05  -1.2748696e-04   9.8639845e-05   3.0036397e-05  -3.0097026e-05  -1.9815707e-05  -7.1551323e-05  -5.3068357e-05  -5.5948993e-05   5.5617122e-05   5.9846127e-05   6.1617044e-05  -1.1162831e-04   3.3672157e-04   9.7472715e-04   2.1338556e-04   1.9737887e-04  -1.0468827e-04   9.0475151e-05  -2.5729870e-04  -2.3046829e-04  -1.1336585e-04  -1.0031102e-04   5.0500489e-04   2.2156027e-04   4.8767932e-05  -2.1218951e-04  -1.5236023e-04  -1.9423585e-04  -1.8503264e-04  -2.2020303e-04  -2.2828704e-04  -4.3538405e-04   7.6941593e-05  -1.2779790e-04   6.4765045e-05  -2.8029774e-04
   5.1379518e-04   4.1957188e-04   3.7600496e-04   3.7924908e-04   4.1239004e-04   4.8048093e-04   4.7280855e-04   5.4606196e-04   2.7040290e-04   6.1481301e-04   2.7517261e-04   2.1076229e-04   1.4575834e-04   2.0688205e-04   6.7066656e-05   2.2555389e-04   1.5014336e-04   2.4889789e-05   3.5147514e-05   6.7941233e-05   6.0080532e-05   5.1049068e-05   1.4584001e-04   1.3782302e-04  -1.4449065e-04  -1.9054894e-05   3.0553690e-04   7.2272896e-04   1.6717119e-04   1.1121485e-04  -1.8172095e-05   1.0239457e-04  -3.0307169e-04  -1.5127445e-04  -1.6944326e-04  -1.3629789e-04   4.0406344e-04   2.0027107e-04  -4.1930130e-06  -2.5241330e-04  -1.2329077e-04  -1.3843788e-04  -1.5701282e-04  -3.1266303e-04  -2.8661118e-04  -4.3939354e-04   2.5842259e-05  -7.3046831e-05  -1.2766955e-04  -3.1383193e-04
   1.9304623e-04   1.2063123e-04   1.1087220e-04   1.4395453e-04   1.0121983e-04   2.1176692e-04   1.3193430e-04   3.0643129e-04  -3.3847795e-05   4.3410726e-04   1.0164287e-04   6.3836051e-05   9.6318479e-07   7.4476156e-05  -4.3914191e-05   8.1926504e-05   5.4100234e-05  -9.9496892e-06  -9.4180490e-05  -8.4935215e-05  -9.5971081e-05  -7.8216501e-05  -5.6625311e-05  -1.1705212e-05  -9.9090597e-05  -1.6790006e-04   2.6095766e-04   7.4363145e-04   1.9064388e-04  -4.4216640e-06  -1.0531813e-04   7.0289803e-05  -5.2042003e-04  -3.3406951e-04  -2.7754510e-04  -3.1343760e-04   3.3699919e-04   1.9354212e-04  -1.2634507e-04  -5.0685625e-04  -3.3069568e-04  -2.8723295e-04  -5.1766954e-04  -6.7442597e-04  -6.6453760e-04  -7.5829355e-04  -1.5645294e-04  -3.5202104e-04  -5.0441793e-04  -6.5897143e-04
  -2.9176945e-04  -3.3964674e-04  -2.5561781e-04  -1.9554618e-04  -2.1541325e-04  -2.1330426e-04  -2.6786193e-04  -6.0539205e-06  -4.6083241e-04   1.3416781e-04  -1.7362501e-04  -2.0827143e-04  -2.5031660e-04  -2.0717115e-04  -2.5027397e-04  -1.2247644e-04  -1.3171227e-04  -1.4293742e-05  -3.6454533e-04  -3.3369494e-04  -2.6467166e-04  -2.9928080e-04  -1.9141672e-04  -1.4108176e-04  -2.7468224e-04  -3.0894671e-04   1.5973692e-05   7.9958688e-04   2.4466927e-04  -3.2972417e-05  -2.2645900e-04   9.6874528e-06  -5.3593970e-04  -3.9141573e-04  -3.0849062e-04  -3.9021199e-04   4.4893060e-04   2.9116138e-04  -1.2571325e-04  -2.8060909e-04  -4.1764448e-04  -3.0543384e-04  -2.5843596e-04  -3.5405890e-04  -3.7943674e-04  -6.0644897e-04  -2.2716324e-05  -1.9110096e-04  -9.0918249e-05  -5.3474668e-04
   2.9067905e-04   2.5944665e-04   2.0251480e-04   2.2593910e-04   2.8186053e-04   3.5417304e-04   2.9451831e-04   3.1843912e-04   1.3793183e-04   5.4917549e-04   1.2689845e-04   1.0937390e-04  -1.9271642e-05  -1.8575154e-05  -1.5475822e-05   3.5318215e-05  -3.3829324e-06  -9.5464811e-06  -3.5225705e-05   3.7596055e-05   5.9380538e-05   2.2805258e-05   2.5833142e-05   3.7005277e-05   1.3511558e-04  -1.3880112e-04   7.7800556e-05   6.1923114e-04   2.2366211e-04  -1.2685264e-04  -9.0942915e-05   4.1539501e-05  -1.9399545e-04  -3.2345063e-04  -1.8191022e-04  -3.1557697e-04   1.9849703e-04   3.4444663e-04  -2.2100889e-04  -3.4120530e-04  -7.0313038e-04  -3.0453134e-04  -4.3057927e-04  -3.0021297e-04  -3.6997069e-04  -4.7539399e-04   1.5535477e-05  -1.9723916e-04  -1.4958344e-04  -5.2301073e-04
   1.5834818e-04   1.0555734e-04   8.5193045e-05   1.2941593e-04   9.5917829e-05   1.3785611e-04   1.2444673e-04   1.4201397e-04  -5.5181226e-05   4.0367895e-04   5.0567523e-05   3.0765554e-05  -7.9895828e-05  -9.6845899e-05  -1.5682381e-04  -3.3218756e-05  -3.5969537e-05  -6.0980408e-05  -8.9271743e-05  -5.9058108e-05  -3.2294840e-05  -5.7911981e-05  -1.0749890e-04  -7.7031509e-05  -2.4586415e-04  -1.9599161e-04  -2.9705643e-06   5.8614596e-04   1.6067596e-04  -2.5537616e-04  -2.1755061e-04   1.4168720e-05  -3.8496518e-04  -4.4797259e-04  -4.2671358e-04  -4.6480808e-04   9.1696631e-05   2.6831156e-04  -3.9391845e-04  -4.3142383e-04  -6.6611526e-04  -4.3018011e-04  -5.3598557e-04  -6.6015369e-04  -6.7779218e-04  -7.5928192e-04  -1.2885020e-04  -3.5497683e-04  -4.5284035e-04  -6.9175661e-04
  -2.8398109e-04  -3.3882368e-04  -2.8091436e-04  -2.2090123e-04  -2.6200002e-04  -2.4750709e-04  -3.2922349e-04  -7.9501871e-05  -5.0184847e-04   1.3111417e-04  -2.0702266e-04  -1.9976974e-04  -2.9744851e-04  -3.1165284e-04  -3.1446031e-04  -2.0127514e-04  -1.3349585e-04  -8.2867817e-05  -2.8910220e-04  -1.4587476e-04  -9.7226482e-05  -1.1446013e-04  -1.7115717e-04  -1.3740122e-04  -1.0575700e-04  -2.5861373e-04  -3.3536144e-05   5.6296075e-04   1.2879181e-04  -1.9818658e-04  -7.6809461e-05  -8.6732049e-05  -2.4839124e-04  -5.2150129e-04  -3.9020868e-04  -2.9520571e-04   2.8431782e-04   2.4070911e-04  -2.3706020e-04  -3.7405017e-04  -7.5459393e-04  -4.2079075e-04  -3.4960272e-04  -5.1448646e-04  -3.5236240e-04  -6.2745827e-04  -1.2709314e-06  -9.6439035e-05  -5.9933996e-06  -4.7001228e-04
   2.4129201e-04   1.9291742e-04   1.5311324e-04   1.6047977e-04   1.2736284e-04   2.1253983e-04   1.3694480e-04   1.6986113e-04   9.8033452e-05   4.7541872e-04   5.9144812e-05   7.5307493e-05  -5.7576362e-05  -1.1998790e-04  -1.3314237e-04  -4.2566600e-05   1.5974249e-05  -1.1011867e-04  -6.5525492e-06   8.4622850e-05   5.9699625e-05   4.1097122e-05  -4.7809695e-05   1.9695000e-05  -1.9356718e-05  -1.4598522e-04   1.3954998e-05   3.7327476e-04   5.3259770e-05  -2.4705281e-04  -1.5200557e-06  -9.1837122e-05  -3.3504714e-04  -3.6541946e-04  -2.5739791e-04  -2.8424570e-04   7.5054646e-05   1.6538936e-04  -1.4171246e-04  -3.8236275e-04  -6.5276929e-04  -3.1671466e-04  -2.7651593e-04  -3.7396670e-04  -2.3615164e-04  -5.3897424e-04   3.0859308e-06  -8.1370519e-05  -2.0560525e-04  -4.7590153e-04
   1.9995152e-06  -7.2647555e-05  -3.8616188e-05  -3.2956861e-05  -1.1894722e-04  -9.4757641e-05  -9.7474032e-05   2.8441145e-05  -2.4765395e-04   3.1707875e-04  -6.1867533e-05  -4.1807562e-05  -1.7489574e-04  -2.2739932e-04  -1.6508422e-04  -9.0649730e-05   3.9260820e-05  -8.5760606e-05  -1.8149347e-04  -7.7692521e-06  -6.7008412e-05  -3.5629833e-05  -1.3282493e-04  -1.2385957e-04  -1.2905849e-04  -2.0602389e-04  -1.2888205e-04   3.4728402e-04   4.8212700e-05  -2.9788059e-04  -1.1385662e-04  -9.7288312e-06  -2.5046692e-04  -5.0585595e-04  -3.6198873e-04  -5.1448564e-04  -6.5853119e-06   9.4789859e-05  -5.6944147e-04  -5.3983345e-04  -4.4163593e-04  -4.2067061e-04  -3.6170220e-04  -7.0289429e-04  -5.4745638e-04  -6.5537897e-04  -1.7790853e-04  -2.0587340e-04  -5.6359119e-04  -6.5973081e-04
  -3.7685310e-04  -4.6849903e-04  -2.3085016e-04  -2.3411302e-04  -1.9169287e-04  -1.2071596e-04  -1.5881783e-04  -7.2204966e-05  -1.3832869e-04   3.5032682e-04  -8.2589984e-05  -5.6910798e-05  -1.3302639e-04  -2.4607661e-04  -1.3832854e-04  -8.0638878e-05   9.7838878e-05  -4.4976907e-05  -2.4929561e-05   1.7800936e-04   7.4860145e-05   1.0076092e-04  -1.2150224e-05   5.8507630e-06  -1.9626616e-04  -6.2590276e-05  -4.5859084e-05   4.8503972e-04   6.0168015e-05  -1.8981844e-04   1.0641207e-04   4.9322774e-05  -2.7893780e-04  -2.6251224e-04  -2.6561253e-04  -2.8696400e-04   2.2713216e-04   2.1705964e-04  -1.2924017e-04  -2.0768600e-04   3.0457853e-05  -1.4803870e-04  -1.8640052e-04  -3.2479598e-04  -1.9478275e-04  -4.3245853e-04   1.5854870e-04   2.1753054e-04   1.3257082e-05  -2.3951403e-04
   2.4358787e-04   1.0766963e-04   1.3828071e-04   7.4011994e-05   2.2655879e-05   5.7289919e-05   6.4920205e-05   5.3883788e-05  -9.3569950e-05   4.5786204e-04   4.7054036e-05   6.6235734e-05  -3.2840562e-05  -1.1583247e-04  -6.9367670e-05   1.7205870e-05   2.1685210e-04   1.5083509e-05  -5.3203818e-05   2.8792088e-04   1.3208640e-04   1.7080223e-04   3.5302139e-05   9.9288576e-05  -6.3809319e-05  -2.7119570e-06  -6.0675608e-05   2.5686959e-04   1.1722129e-04  -1.9631229e-04   1.3039315e-04   2.4335588e-04  -1.9288780e-04  -1.8006418e-04  -2.1917396e-04  -1.3048921e-04   6.1434184e-05   2.1479708e-04  -1.3778650e-04  -3.4605362e-04  -2.9436688e-04  -1.0974152e-04  -7.6206652e-06  -2.8053680e-04  -2.6798199e-04  -3.0464461e-04   1.3710024e-04   2.4201383e-04  -2.5542965e-04  -3.5236875e-04
  -2.2011958e-05  -1.7851530e-04  -4.4727865e-05  -1.2227717e-04  -1.8421112e-04  -1.5702377e-04  -2.0806689e-04  -8.3543426e-05  -3.9339671e-04   2.6333664e-04  -8.7359542e-05  -8.8075722e-05  -1.4758654e-04  -2.1542337e-04  -1.2737834e-04  -8.1348742e-05   1.3567934e-04   2.7279404e-05  -1.9929130e-04   1.0003453e-04  -9.0334557e-05   6.5971503e-06  -1.3480114e-04  -7.6861979e-05  -9.2097616e-05  -8.8621120e-05  -3.9951032e-05   4.5199838e-04   7.6662553e-05  -2.6231594e-04   8.7666755e-05   1.0106699e-04  -3.5882159e-04  -2.0295082e-04  -3.7742816e-04  -4.4550089e-04   8.0518403e-05   2.3017058e-04  -3.5519662e-04  -4.4053054e-04  -2.1682150e-04  -1.2047155e-04  -2.1854133e-04  -6.6175195e-04  -3.3631866e-04  -3.7812188e-04   1.3825693e-04   1.3137635e-04  -6.7589746e-05  -2.1326872e-04
   2.2799791e-04   1.2333892e-04   2.1277081e-04   1.1390294e-04   1.1967241e-04   1.7269433e-04   1.3834125e-04   5.4123760e-05   1.1569508e-04   5.1260344e-04   8.1420345e-05   1.0902411e-04   1.9951383e-05  -8.3200372e-05  -2.2079954e-05   4.5968271e-05   2.4720977e-04   5.1644598e-05   2.5091815e-04   4.6472030e-04   2.3435731e-04   2.9288704e-04   2.0764471e-04   2.2352884e-04   1.4083958e-04   1.1765178e-04   6.3200263e-05   5.4038345e-04   2.2887409e-04  -1.4464883e-04   2.2655122e-04   2.4986904e-04   6.3026586e-05  -5.7322745e-06  -3.3379903e-05  -3.9477716e-05   1.5837260e-04   3.9045591e-04  -1.6071861e-04  -4.5688936e-05   6.0358310e-05   9.8731631e-05   1.3354114e-04  -2.4631890e-04   5.6435576e-05  -6.4327505e-05   3.7570417e-04   4.0359859e-04   9.5874646e-05  -1.3964338e-04
   4.5804735e-04   2.4187921e-04   3.8829603e-04   2.0475606e-04   2.0027245e-04   2.0323454e-04   2.1091463e-04   1.9046161e-04   1.0853513e-04   5.2729162e-04   1.8924435e-04   1.7073344e-04   7.5828335e-05   3.8256312e-05   5.1823090e-06   1.3952005e-04   2.8734154e-04   9.1008180e-05   1.4091090e-04   4.8284634e-04   2.1202733e-04   3.0407085e-04   2.2809289e-04   2.5306889e-04   1.0507059e-05   1.7682393e-04   8.4689600e-05   3.2606785e-04   2.2924770e-04  -2.2198571e-04   2.4362214e-04   2.8103936e-04   7.5180760e-05   7.7151726e-06  -4.9432521e-05  -3.3624867e-05  -2.9834666e-06   3.7319830e-04  -2.5733371e-04  -1.3391821e-04  -9.0316884e-05   4.9725797e-05  -1.8054712e-05  -2.7419388e-04  -1.9192869e-04  -2.1971618e-04   3.2519730e-04   3.4287074e-04  -1.1673789e-04  -2.2169872e-04
   1.4832201e-04  -7.8556484e-05   1.4239002e-04  -2.7347851e-05  -5.8804879e-05  -6.0147144e-05  -1.3745867e-04   1.7919005e-05  -2.5986976e-04   2.6578005e-04  -1.8960092e-06  -2.3510698e-05  -3.8551276e-05  -1.2039813e-04  -9.4608717e-05   1.8991592e-05   1.4862568e-04   3.5372166e-05  -1.6071490e-04   2.1920499e-04  -3.3286778e-05   1.0890912e-04   1.0184564e-05   7.3543953e-05   5.9167593e-05  -6.2736144e-06  -1.4554739e-05   3.7329242e-04   2.5407536e-04  -3.1786962e-04   9.7360076e-05   2.0638012e-04   9.9277840e-06  -2.3807739e-04  -2.7448786e-04  -2.3937895e-04   2.1100406e-05   3.5610219e-04  -2.3139264e-04  -1.8535918e-04  -1.2676595e-04  -1.9513962e-05   9.6556658e-05  -2.8864123e-04   2.8826411e-05  -1.8978289e-04   3.5520984e-04   3.7804435e-04   1.7575308e-04  -9.6603399e-05
   5.4001145e-04   3.4162722e-04   4.7993823e-04   3.0050313e-04   3.4399124e-04   3.2199014e-04   3.3857371e-04   2.5208629e-04   2.3391932e-04   5.8347295e-04   2.3321474e-04   2.3265362e-04   1.9583043e-04   5.5800690e-05   1.4272392e-04   1.8876945e-04   3.4475702e-04   1.0325851e-04   3.2603668e-04   6.5361115e-04   3.2292618e-04   4.6118005e-04   3.3465005e-04   4.0303555e-04   2.1800559e-04   3.0140640e-04   1.3254730e-04   3.8783782e-04   3.0606196e-04  -1.5882736e-04   3.9881072e-04   3.2266777e-04   2.5895546e-04   2.0376703e-04  -6.0266243e-06   1.8653469e-05  -2.4404517e-05   4.3235510e-04   1.6526242e-06  -5.0637809e-05  -1.4075414e-04   1.0365105e-04   1.5240886e-04  -1.2672547e-04   5.3362604e-05   6.6321023e-05   4.9318117e-04   5.0578587e-04   2.4184317e-04   9.2262293e-05
   5.9041847e-04   3.5484773e-04   5.3531613e-04   3.1239702e-04   3.1523322e-04   3.0796346e-04   2.8240978e-04   2.6148069e-04   1.9307843e-04   5.1450555e-04   2.8083508e-04   2.1883076e-04   2.2710487e-04   1.4289244e-04   9.6406860e-05   2.1446765e-04   3.1693018e-04   9.5203904e-05   2.1788999e-04   5.8298954e-04   2.4308654e-04   3.4964981e-04   3.1376295e-04   3.2431734e-04   2.3340934e-04   2.4214410e-04   1.4762647e-04   2.4302572e-04   3.1753979e-04  -2.3347911e-04   2.1864481e-04   3.9770157e-04   3.3416552e-04   4.1528172e-05  -1.0865152e-04  -5.4583939e-05   3.8893435e-05   3.8542569e-04  -2.2198810e-04  -5.1610463e-05  -3.9142129e-04  -6.8939575e-05  -3.2447206e-05  -1.5363884e-04  -1.2077873e-04   5.1763520e-05   3.2174925e-04   2.9322921e-04  -3.5783985e-05  -1.9270857e-04
   1.9591824e-04  -5.4739117e-05   1.9413827e-04   3.0560425e-06   8.2093138e-06  -8.4312444e-05  -7.5719588e-05   1.1120913e-04  -1.7806592e-04   2.1178053e-04   4.5720990e-05  -5.3310691e-06   2.1857555e-05  -1.9949370e-05  -2.3000315e-05   8.0477519e-05   1.7898154e-04   2.8513268e-05   2.5216932e-05   2.7196936e-04  -3.2154214e-05   1.3205622e-04   6.8218324e-05   8.2863109e-05  -1.5804962e-05   6.7770234e-05   2.4292883e-06   4.8142459e-04   1.9308545e-04  -2.9715971e-04   1.2641614e-04   1.7609926e-04  -1.1569309e-04  -1.6072529e-04  -3.3319555e-04  -2.6704467e-04  -5.8571124e-05   3.2761492e-04  -2.4740153e-04  -3.1764046e-04  -5.0522329e-04  -1.4425861e-04   1.6480968e-07  -2.0174251e-04  -8.0408790e-05  -2.2898993e-04   2.9881467e-04   3.4205630e-04   2.5312870e-04  -1.0025851e-04
   5.1165180e-04   3.4471109e-04   4.6656738e-04   2.9877518e-04   3.4675686e-04   3.1166393e-04   3.5123562e-04   1.9535057e-04   1.1575929e-04   4.5772738e-04   2.3711573e-04   1.8010163e-04   2.4533001e-04   1.1688248e-04   1.4594274e-04   2.1882275e-04   3.3558920e-04   7.4483178e-05   5.0690636e-04   6.0695177e-04   2.6756141e-04   4.0745060e-04   2.6631317e-04   3.8323138e-04   3.4718929e-04   2.8725955e-04   2.1311830e-04   3.5430599e-04   3.2883545e-04  -1.5403169e-04   3.1984432e-04   3.5737068e-04   2.6818414e-04   1.6651678e-04  -9.1398497e-06   2.6348758e-05   1.1432647e-04   3.6957228e-04  -2.6810711e-05   7.5365751e-06   2.3463038e-04   2.9601730e-05   1.1134959e-05  -1.3964585e-04   4.1048992e-05  -1.4252079e-04   4.0387106e-04   3.9291373e-04   3.4441741e-04   1.1199450e-04
   5.9234444e-04   3.8636278e-04   5.2745111e-04   3.3308115e-04   3.6608917e-04   3.2392034e-04   3.4154142e-04   3.3130602e-04   1.4957746e-04   4.1439064e-04   2.7393294e-04   1.9443010e-04   2.7299841e-04   1.6888729e-04   1.4177001e-04   2.4525257e-04   3.2744114e-04   3.1293828e-05   2.6121188e-04   5.6294625e-04   1.9863591e-04   3.5294454e-04   3.6684793e-04   3.6868869e-04   5.3181120e-05   2.1407819e-04   1.8544373e-04   2.2699505e-04   1.9544919e-04  -2.2351630e-04   2.3840838e-04   2.8371724e-04   2.2916391e-04   1.6974758e-04  -5.7218735e-05  -9.4720461e-05  -7.3964176e-05   2.8167712e-04  -5.7391811e-05  -1.7571820e-04  -8.9014262e-05  -1.1696652e-04  -6.7139794e-05  -2.4232408e-04   1.0249669e-05   8.1488652e-05   2.7504997e-04   2.8130249e-04   1.1203277e-04  -1.0475360e-04
   2.3072182e-04   3.3253742e-05   2.2002625e-04   5.7947458e-05   7.8847690e-05   4.4822027e-05  -1.7354978e-05   1.7109125e-04  -2.3767857e-04   1.5044789e-04   7.9653837e-05  -1.3048979e-05   5.8623817e-05   2.8123310e-05   3.5830381e-06   1.1858431e-04   1.5754296e-04  -7.3584997e-05  -6.1744620e-05   2.5821800e-04  -5.5627555e-05   1.1130766e-04  -1.8492789e-05   1.2851847e-04  -3.4572204e-05   2.8653558e-05   6.7600209e-05   3.4906660e-04   1.0852158e-04  -2.8039748e-04   1.5054473e-04   1.1697530e-04   1.7474922e-04  -5.1640156e-05  -1.3067486e-04  -1.1370355e-04   3.1576451e-06   2.3973575e-04   7.3189112e-05  -4.6602057e-05  -5.4886925e-04  -1.2265277e-04  -1.6530635e-04  -3.6912679e-05   1.1428392e-04  -1.6751575e-04   2.8975401e-04   2.8136387e-04   4.5264524e-04   1.1153087e-04
   6.0199486e-04   4.5090818e-04   5.4356572e-04   3.8884667e-04   4.6263676e-04   4.4321542e-04   4.7188473e-04   4.2233447e-04   1.9307896e-04   4.3712175e-04   3.1538776e-04   2.2049196e-04   3.2967987e-04   2.1644033e-04   1.4562462e-04   2.8081506e-04   3.3959476e-04   1.0971416e-05   4.0835826e-04   6.1596814e-04   2.4735776e-04   4.2386752e-04   3.3922002e-04   4.0095535e-04   1.8229370e-04   3.1068598e-04   2.5941321e-04   2.7383049e-04   2.2778362e-04  -1.7312849e-04   3.1173349e-04   2.1810342e-04   3.0581452e-04   2.7556892e-04   4.3664691e-05  -2.7306369e-05   3.0044841e-05   2.8364782e-04  -1.9728187e-04  -3.6153164e-05  -3.9279461e-04  -9.0179034e-05  -1.2340683e-04  -4.8457605e-05   1.1003369e-04   2.0534860e-04   3.0870072e-04   3.7394790e-04   4.0046699e-04   1.9742537e-04
   5.2278704e-04   3.4209152e-04   4.6736546e-04   2.9507399e-04   3.3850275e-04   3.5898105e-04   3.3919120e-04   2.9832279e-04   4.0274121e-05   3.0857988e-04   2.4144175e-04   1.3004444e-04   2.4153851e-04   1.9876233e-04   2.0613830e-04   2.4014292e-04   3.3186359e-04  -2.9077128e-05   2.0722528e-04   4.6992960e-04   1.0230664e-04   3.1129751e-04   2.9006548e-04   2.8221248e-04   1.1866206e-04   1.5357854e-04   2.3180462e-04   1.5686906e-04   1.3407416e-04  -1.3186489e-04   2.7164017e-04   2.3376981e-04   3.2343494e-04   1.6425992e-04  -4.8507030e-05   8.3454086e-07   3.9751660e-05   1.6015134e-04  -1.3389882e-04  -6.2515846e-06  -1.6988245e-04  -1.7464547e-04  -1.7696078e-04  -1.7020571e-04  -1.2544858e-04  -1.5946264e-04   1.2923066e-04   1.7033024e-04  -1.4400464e-06  -6.1815459e-05
   2.9762423e-05  -1.6259014e-04   3.7115613e-05  -8.1750615e-05  -5.5966386e-05  -3.6304973e-05  -1.0797077e-04   4.0149247e-05  -4.2758507e-04   2.7459420e-05  -4.9068167e-05  -1.4048039e-04   2.9587547e-05   1.9429795e-05   9.7615710e-05   1.1857774e-04   2.6352005e-04  -1.3045336e-05   1.7007289e-04   3.8460986e-04   3.5082874e-05   2.3154460e-04   1.4816983e-04   2.4630167e-04   8.1372091e-05   1.7715756e-04   2.1821562e-04   5.6534272e-04   1.2343933e-04   5.3940275e-06   2.7695746e-04   2.3016945e-04   3.0532191e-04   2.0581053e-04   5.7955531e-05   1.1438929e-04   8.5691485e-05   1.5948758e-04   5.5901433e-05   1.3776349e-04  -1.3419744e-04   3.0367213e-05   1.4343121e-04   1.9845585e-04   1.3860481e-04   2.6669059e-04   3.1758007e-04   5.0438079e-04   5.4579065e-04   3.5200757e-04
   6.4330560e-04   4.9066724e-04   5.7100382e-04   4.1729255e-04   4.6508829e-04   4.9860770e-04   5.2420091e-04   4.5579529e-04   2.3823806e-04   4.4541821e-04   3.2595117e-04   2.3100979e-04   3.7930559e-04   3.5645912e-04   2.8166233e-04   3.3632823e-04   4.6776485e-04   7.9470912e-05   5.1264162e-04   5.8258104e-04   1.9467925e-04   4.0546726e-04   4.1090371e-04   3.7399697e-04   3.9101698e-04   3.2169453e-04   3.8256912e-04   3.4979999e-04   1.2696143e-04   1.8012515e-05   2.8822786e-04   3.2740179e-04   2.3082306e-04   3.0690353e-04   1.0790179e-04   1.5035283e-04   1.5394941e-04   1.7249081e-04   1.5420317e-05   1.3130407e-04   1.6621243e-04   1.6873538e-04   2.3787751e-04   8.4628104e-05   1.7163529e-04   1.2211213e-04   3.1091788e-04   4.6147616e-04   4.4845595e-04   3.3188149e-04
   4.1926722e-04   2.4644600e-04   3.6353769e-04   2.1213076e-04   2.4954355e-04   2.5220463e-04   2.7064988e-04   3.2496013e-04   7.0687443e-06   2.6974562e-04   1.9391124e-04   8.6546395e-05   2.7128961e-04   2.6346161e-04   2.2681095e-04   2.4570769e-04   3.8253522e-04   5.6238572e-05   2.9305115e-04   4.2136834e-04   4.6669724e-05   2.3508215e-04   2.8057644e-04   2.9270258e-04   4.7963778e-07   2.2657731e-04   1.2839299e-04   4.2066755e-04   1.0882250e-04  -4.5286188e-06   2.1208457e-04   2.1562369e-04   1.7924962e-04   5.3848544e-05   3.8042916e-05  -2.7473736e-05   1.3223896e-04   1.2660795e-04  -1.1439170e-04  -1.3778535e-04   1.1925191e-05   2.4261664e-05  -6.1795661e-05  -1.2119651e-04  -3.2510939e-05  -5.2045969e-05   1.3686575e-04   2.1017715e-04  -1.2389527e-05  -6.0126051e-05
  -6.8871486e-05  -2.3049364e-04  -2.5546597e-05  -1.3059822e-04  -5.6461711e-05  -6.9657894e-05  -1.0362980e-04   8.1694685e-05  -2.7996363e-04   8.5370739e-05  -1.5622775e-06  -8.5643063e-05   1.6103951e-04   6.3747335e-05   1.2732120e-04   1.7962810e-04   3.0175401e-04   3.3727363e-05   4.0221459e-04   4.3894077e-04   1.1097528e-04   2.6595898e-04   2.8791523e-04   2.6531320e-04   1.4370357e-04   2.3218035e-04   2.8319337e-04   5.0280400e-04   1.3203651e-04   7.8649027e-05   2.0400809e-04   1.9954648e-04   1.6388734e-04   2.8143113e-04   1.3580351e-04   7.3838426e-05   2.8417420e-04   1.8086525e-04   1.8415102e-04   3.1061342e-04   2.5298321e-04   1.4602664e-04   2.1536143e-04   6.5255255e-05   3.1739581e-04   3.1155601e-04   3.6662258e-04   5.1166862e-04   6.2861620e-04   4.1102315e-04
   7.1695051e-04   5.5800041e-04   5.9802405e-04   4.6386174e-04   5.2774290e-04   5.7977031e-04   5.8099005e-04   5.6118798e-04   2.4208274e-04   4.6085365e-04   3.6758251e-04   2.4839229e-04   4.3536318e-04   3.9314554e-04   3.7240819e-04   3.5147925e-04   4.0472535e-04   7.0705733e-05   4.9457216e-04   5.9026649e-04   2.4524360e-04   4.3876254e-04   4.0273799e-04   4.6030691e-04   3.0296177e-04   3.2071117e-04   4.0053308e-04   2.0919056e-04   1.9520415e-04   4.0157880e-05   2.9916389e-04   2.0201773e-04   5.5852107e-04   3.4662549e-04   9.0844995e-05   1.5468837e-04   1.4728741e-04   2.4037229e-04   2.0879238e-04   3.2722688e-04   2.1939467e-04   1.0290540e-04   1.4104616e-04   2.5294215e-04   1.6353210e-04   1.7821183e-05   3.6985794e-04   4.0291218e-04   4.8631360e-04   3.1532385e-04
   4.5942629e-04   3.2171761e-04   3.9092565e-04   2.6568340e-04   3.4212021e-04   3.3439518e-04   3.5333494e-04   4.0294111e-04   7.2226750e-05   2.9147751e-04   2.5210509e-04   1.2046699e-04   2.6957752e-04   2.5233379e-04   2.5801180e-04   2.6973852e-04   2.4742607e-04   3.6318605e-05   2.6569431e-04   3.8344375e-04   8.5686035e-05   2.6641318e-04   2.1409124e-04   2.4041771e-04   1.5101516e-04   1.5555954e-04   2.6451240e-04   2.9101162e-04   1.5234773e-04  -9.6172218e-05   8.0651575e-05   1.7220496e-04   1.6957989e-04  -3.2655844e-05   8.2770885e-07  -1.9460196e-05   2.6467189e-06   2.2702471e-04  -1.3826301e-04  -7.2858151e-05  -2.1194862e-06  -7.7256416e-05  -2.0499733e-04  -2.8900252e-04  -5.5453995e-05  -2.1076789e-04   1.4849973e-04   4.4094362e-05   4.6837264e-05  -1.3663010e-05
  -2.5245219e-05  -1.4723359e-04  -7.1708432e-06  -7.0568109e-05  -1.0953087e-05  -8.2922917e-05  -9.0340131e-05   1.2107137e-04  -2.6275998e-04   1.3036512e-05   2.0080621e-05  -1.2554660e-04   1.0181306e-04   2.2435714e-05   3.6635302e-05   1.0989734e-04   1.3042454e-04  -4.4695676e-05   2.3978652e-04   3.1806598e-04   7.8360797e-05   2.0937802e-04   2.4614041e-04   2.3880655e-04   7.2944946e-05   1.1773463e-04   2.9384144e-04   6.6767208e-04   2.4000558e-04   1.5939733e-05   1.6595675e-04   1.4573194e-04   3.3372024e-04   1.2263088e-04   1.7726084e-05   3.2293952e-05   1.8002430e-04   2.7234104e-04   5.7943656e-05   1.8912290e-04   1.7541133e-04   2.3436081e-05  -2.4193471e-04   6.7959176e-05   1.2595498e-04   6.6652523e-05   3.1106867e-04   3.2768698e-04   6.2719354e-04   2.4940187e-04
   7.0485740e-04   5.7379814e-04   5.8585312e-04   4.9164891e-04   6.0381636e-04   6.0572708e-04   6.5227947e-04   5.1581260e-04   3.7680691e-04   4.6975137e-04   4.0980114e-04   2.6732328e-04   4.1625529e-04   3.4606282e-04   3.2671756e-04   3.2046423e-04   2.6456881e-04   3.0750769e-05   5.0550158e-04   5.1347853e-04   2.5684389e-04   3.8370263e-04   3.5555987e-04   3.8802315e-04   4.2246230e-04   2.4705182e-04   4.3866676e-04   3.1736380e-04   2.1706343e-04  -6.7722511e-05   2.0721622e-04   2.3345310e-04   3.1893881e-04   2.0740434e-04   8.4388150e-05   9.4339171e-05   7.4709147e-05   3.2171162e-04   7.6325032e-06   1.6392373e-04  -3.2654896e-04  -4.2030009e-05  -1.0496132e-04  -2.3976963e-05   9.8640456e-05   1.6137061e-04   3.3870805e-04   2.9294894e-04   4.7958456e-04   1.8683678e-04
   4.6441553e-04   3.5599075e-04   3.9742092e-04   3.2541552e-04   4.0059714e-04   3.8459754e-04   3.9811339e-04   4.4345812e-04   1.5872400e-04   3.0292210e-04   3.1840208e-04   1.5096414e-04   2.6444669e-04   2.2465587e-04   2.0934075e-04   2.4528321e-04   1.9946080e-04  -6.8689774e-06   3.7996122e-04   3.2798375e-04   1.1816841e-04   2.7061306e-04   2.2603571e-04   2.3871219e-04   3.3937897e-05   1.1841257e-04   2.2265494e-04   2.6759479e-04   1.5003201e-04  -1.4394801e-04   8.7484157e-05   1.2270590e-04   2.4239570e-04  -6.1358973e-05  -5.5400476e-05  -9.4232113e-05  -1.8117680e-04   2.3595664e-04  -1.2645755e-04  -1.7943277e-04  -3.5388840e-04  -2.2103360e-04  -2.9972362e-04  -3.2356716e-04  -3.6721885e-05  -3.4521654e-04   8.8957138e-05  -4.1107622e-05   9.0593880e-05  -1.0364823e-04
  -2.2192711e-05  -1.1994335e-04  -6.4344285e-06  -2.8649139e-05   2.2931765e-05  -8.0898808e-06  -3.8419999e-05   1.1643145e-04  -2.8886361e-04   7.6799452e-06   1.9955687e-05  -1.1756869e-04   1.0820960e-05  -3.3958095e-05   1.0000774e-04   5.0266208e-05   3.6999943e-05  -5.4567114e-05   5.5908444e-05   7.7494711e-05  -4.4595796e-05   8.6454187e-05   1.3095103e-04   1.0467142e-04   1.0631369e-05   7.6939623e-06   1.8893572e-04   4.5770148e-04   1.3402442e-04  -8.4231906e-05   7.2528725e-05   3.9314065e-05   4.3940752e-05   9.5557472e-05  -9.3380630e-05  -5.9249185e-05   5.8994843e-05   2.0492791e-04  -5.4011784e-05   2.8760827e-05   3.9311515e-05  -1.4244838e-04  -1.9101497e-04  -2.5574613e-04   1.2269642e-04  -6.1857427e-05   1.9532778e-04   1.5593514e-04   5.0818478e-04   1.7586240e-04
   5.1463611e-04   4.5624067e-04   4.4186309e-04   4.0900870e-04   5.0714897e-04   5.3477380e-04   5.7858444e-04   4.2146456e-04   3.5752330e-04   4.1785746e-04   3.5224974e-04   2.1563936e-04   3.3547691e-04   2.1781682e-04   1.9620771e-04   2.5115567e-04   2.2360309e-04  -2.3729508e-05   3.9600948e-04   3.7902544e-04   2.1057477e-04   3.3227069e-04   3.0107098e-04   2.6997688e-04   2.7796332e-04   1.8231159e-04   2.5826393e-04   1.4369207e-04   1.3045792e-04  -1.1628217e-04   1.9131511e-04   1.4196713e-04   2.6430024e-04   1.0900440e-04   8.2131315e-05  -1.1139618e-04  -8.3791667e-05   2.2072931e-04   3.4535860e-05   2.6793125e-05  -1.5436776e-04  -1.5827511e-04  -1.0942842e-04  -1.8253251e-06   2.0076735e-04   1.5510479e-05   1.9480402e-04   1.2005396e-04   4.0713788e-04   9.5771298e-05
   3.0406634e-04   2.5125631e-04   2.6432466e-04   2.5455182e-04   2.6929192e-04   2.5193536e-04   3.2713378e-04   3.9831639e-04   4.2522941e-05   2.5378144e-04   2.4642612e-04   8.8935318e-05   1.8779759e-04   1.4725358e-04   1.3521178e-04   1.9525520e-04   2.0827234e-04  -9.5256655e-06   3.2584925e-04   2.5851303e-04   9.0232665e-05   2.0683944e-04   2.1369377e-04   1.7179732e-04   5.5934786e-05   8.7218905e-05   1.5344565e-04   1.1394725e-04   9.1293332e-05  -1.4580047e-04   1.1186297e-04   6.5450484e-05  -4.6817378e-05  -1.1346922e-04  -9.1997805e-05  -2.4564128e-04  -2.8799021e-05   1.7690961e-04  -3.3435342e-04  -1.4751597e-04  -4.0638779e-04  -2.6082748e-04  -3.3481757e-04  -4.5584870e-04  -1.3777865e-04  -1.8142212e-04   4.1255375e-05  -3.9449438e-05   3.6771755e-05  -1.2822989e-04
  -1.6219482e-04  -2.3535454e-04  -1.2081556e-04  -1.2207040e-04  -8.4386302e-05  -1.2379019e-04  -1.3773271e-04   1.1550633e-04  -2.8584880e-04  -1.7385215e-05  -2.3443334e-05  -1.5780743e-04  -1.0112928e-05  -6.4365457e-05   5.5816043e-05   5.3419833e-05   9.6568336e-05  -2.8294779e-05   1.2915883e-04   1.7245515e-04   2.9952353e-05   1.5914287e-04   8.9079600e-05   1.2398088e-04   2.3305596e-05  -1.0168667e-05   1.7863602e-04   3.3871378e-04   1.0009274e-04  -6.8392153e-05   6.9383284e-05   6.1074112e-05   2.6600913e-04  -5.3701788e-05  -7.4481904e-05  -1.8402394e-04   7.1122180e-05   2.6798726e-04  -4.0405666e-05  -6.4308042e-05  -3.7578438e-04  -1.0605871e-04  -1.7089522e-04  -1.0511737e-04   2.0246777e-04   1.2783367e-05   2.3792383e-04   2.2231553e-04   4.8470226e-04   6.8818408e-05
   4.0770604e-04   3.6568716e-04   3.5578795e-04   3.3895110e-04   4.0629390e-04   3.8194234e-04   4.3783771e-04   3.9445888e-04   2.9727348e-04   3.4538581e-04   2.8563794e-04   1.3553994e-04   2.3263640e-04   1.4084321e-04   1.1558555e-04   1.9911998e-04   2.0380769e-04   4.5685993e-05   3.1388493e-04   3.1718335e-04   1.6994344e-04   2.5968102e-04   2.4307174e-04   1.8987946e-04   1.5846832e-04   9.4349256e-05   1.8832547e-04   1.7198954e-04   2.0770784e-04  -1.5879943e-04   1.8118470e-04   1.8677622e-04   1.9127192e-05   1.4651934e-05  -6.1016843e-05  -1.3788300e-05  -1.6715737e-04   3.5577096e-04  -1.7262234e-04  -1.6936044e-04  -7.4766707e-05  -1.3309230e-04  -4.6546065e-05  -1.3441876e-04   2.9975463e-05  -2.3107132e-04   2.2610885e-04   1.4629873e-04   2.2824679e-04  -1.3860359e-05
   1.8755719e-04   9.8438097e-05   1.3657084e-04   1.4074636e-04   1.6545730e-04   2.0066102e-04   1.3353015e-04   2.4225259e-04   5.8384834e-05   1.8125832e-04   1.5829269e-04  -1.1147464e-06   9.5497890e-05   3.8076185e-05   4.9922397e-05   1.0097073e-04   1.1097312e-04  -8.6705023e-07   1.8764638e-04   1.5896215e-04   1.5988229e-05   1.2729608e-04   4.5911202e-05   9.6179820e-06  -1.3435647e-04  -5.3957523e-05   8.9462330e-05   1.9717196e-04   1.3179478e-04  -2.3389461e-04  -2.1141974e-05   9.0450572e-05  -1.0731370e-04  -3.0137799e-04  -1.4544287e-04  -2.7968900e-04  -1.4853124e-04   2.8536789e-04  -2.9443917e-04  -4.1349634e-04  -5.9972971e-04  -3.6055091e-04  -3.2092776e-04  -5.5546453e-04  -3.0765086e-04  -5.0620345e-04   9.2989039e-06  -1.1663816e-04  -2.2423662e-04  -3.6121826e-04
  -3.1282098e-04  -4.1867967e-04  -2.6604088e-04  -2.3726434e-04  -1.6373217e-04  -2.2583362e-04  -2.5665987e-04   8.1616243e-05  -3.0052208e-04  -6.4597996e-05  -9.0892463e-05  -2.2608702e-04  -6.8250505e-05  -1.8730180e-04  -9.8838696e-05  -1.4026719e-05   2.7779621e-05  -2.1217760e-05   1.7151477e-04   1.5617110e-04   5.5570654e-05   9.2648952e-05   1.2613679e-04   8.4989719e-05  -2.7765313e-06  -6.8138710e-05   1.2445479e-04   3.4718710e-04   1.8891778e-04  -1.3366013e-04   7.4061420e-05   9.4649120e-05   6.7924344e-07  -1.6298139e-04  -3.4550173e-06  -2.5567383e-04   6.1773841e-05   3.9014299e-04  -7.9914207e-05  -9.9532896e-05  -2.8579918e-04  -1.3530614e-04  -2.5148076e-04  -1.6918490e-04   1.6681843e-04  -2.4158618e-04   2.4694123e-04   1.5499623e-04   3.4128895e-04  -5.8157340e-05
   4.2313605e-04   3.7697106e-04   3.5369722e-04   3.5867660e-04   4.3504054e-04   4.5897873e-04   4.2879817e-04   3.9411560e-04   2.9410340e-04   3.5248289e-04   3.1136270e-04   1.3671999e-04   2.1421778e-04   7.5303920e-05   6.4546148e-05   1.6013194e-04   1.2759013e-04   3.9371786e-05   3.2733972e-04   3.3369506e-04   1.9788211e-04   2.3999850e-04   2.6113243e-04   1.6047710e-04   2.6427637e-04   3.0631676e-05   1.5695964e-04   8.1303824e-06   2.5085802e-04  -2.3015667e-04   9.8759294e-05   1.9348176e-04   6.0149850e-05  -1.3546477e-04  -6.8162044e-05  -1.8234276e-04  -1.7893739e-04   4.5298092e-04  -3.3183082e-04  -9.8009674e-05  -5.0898612e-04  -2.6955269e-04  -2.7904534e-04  -1.5410758e-04   1.6086991e-05  -2.6663308e-04   2.4524677e-04   2.2968280e-04   1.9009315e-04  -1.8015862e-04
   2.1362357e-04   1.1348711e-04   1.4915029e-04   1.6298956e-04   1.9291839e-04   2.0627677e-04   1.8362362e-04   2.7536426e-04   2.6593660e-05   1.7550016e-04   1.8959244e-04  -3.1149987e-06   1.0073622e-04  -2.1653081e-05   4.4346811e-07   7.3324743e-05   6.9339170e-05  -6.3511899e-05   1.3025220e-04   1.8011022e-04   4.2241525e-05   1.3026691e-04   5.1341289e-05   3.0895786e-05  -1.2147245e-04  -8.4095467e-05   4.7991914e-05   5.9445458e-05   1.0087203e-04  -3.0817051e-04   7.6918885e-05   9.5851916e-05   4.0271210e-05  -2.1045544e-04  -2.2816459e-04  -4.1324028e-04  -2.3897327e-04   3.0177052e-04  -3.2367324e-04  -4.4476092e-04  -2.8082897e-04  -4.3391340e-04  -4.2924334e-04  -4.8768779e-04  -4.0936028e-04  -4.6775417e-04   4.5800996e-05  -4.7545891e-05  -2.4294134e-04  -4.2127119e-04
  -3.0801925e-04  -3.9684304e-04  -2.6226538e-04  -2.2140743e-04  -1.8136155e-04  -2.0824044e-04  -2.7262382e-04   3.9337647e-05  -4.0902442e-04  -1.2730232e-04  -1.0388355e-04  -2.8510584e-04  -1.8334783e-04  -2.3350144e-04  -2.3898113e-04  -8.7879649e-05  -7.2566567e-05  -8.8447552e-05   6.6701850e-06   6.1255087e-05  -1.0597397e-05  -6.1835776e-06  -6.1803898e-06  -2.5763267e-05   3.0839736e-05  -1.8196387e-04   3.6240006e-05   3.8492738e-04   1.4994090e-04  -1.8913207e-04  -4.3573778e-05   1.0653185e-04   5.3016985e-05  -1.3865331e-04  -1.2307412e-04  -3.6475237e-04  -2.0314976e-06   3.4278553e-04  -3.0582485e-04  -1.1720834e-04  -4.3699736e-04  -3.2753756e-04  -3.2712982e-04   1.6009444e-04  -2.8464272e-06  -2.6732145e-04   2.3180810e-04   2.0042801e-04   3.0176615e-04  -1.8041543e-04
   3.6886329e-04   3.2610836e-04   3.0138885e-04   3.1367678e-04   4.0905521e-04   4.0985999e-04   4.4237240e-04   4.1178320e-04   2.8961079e-04   3.3624645e-04   3.0173722e-04   1.0975212e-04   1.9822741e-04   2.5719879e-05   8.4994826e-05   1.3375540e-04   9.2646209e-05  -2.7690270e-05   3.9208468e-04   3.4415798e-04   2.2059292e-04   2.1711223e-04   2.3145659e-04   1.1892550e-04   5.0855680e-05   1.4823604e-06   1.1060668e-04  -2.3270125e-07   1.5160095e-04  -2.9093848e-04   6.6860179e-05   1.6947876e-04   2.7047031e-04  -1.3914019e-04  -4.2678548e-05  -2.6102201e-04  -1.7432548e-04   3.8230442e-04  -2.2988275e-04  -2.3729014e-04  -4.4564612e-04  -3.6021828e-04  -3.5192154e-04  -6.7191082e-05   9.7253242e-06  -2.8055982e-04   2.1632337e-04   1.7578015e-04   1.6060499e-04  -2.1818785e-04
   1.7288562e-04   1.0155006e-04   1.3621144e-04   1.5778501e-04   1.7612467e-04   1.1867924e-04   1.5433210e-04   1.9257842e-04   4.3118194e-05   1.5133237e-04   1.7512920e-04  -2.3432427e-05   3.7807567e-05  -8.5946682e-05  -7.3328534e-05   5.6319583e-05   4.8414993e-05  -5.0079179e-05   2.3504090e-04   1.8980981e-04   9.8364661e-05   1.2208727e-04   3.0043554e-06  -6.7664178e-06   8.8399072e-05  -6.9520684e-05   4.1056443e-05  -6.1354253e-06   1.1243668e-04  -3.3932202e-04   3.7507889e-05   3.8971506e-05   5.0789167e-05  -2.3825915e-04  -2.5055371e-04  -4.2009211e-04  -1.6953668e-04   2.6728035e-04  -3.2121141e-04  -3.4807716e-04  -8.4243139e-04  -4.9285917e-04  -5.4006104e-04  -4.7414808e-04  -3.3019646e-04  -3.9575400e-04   2.1118116e-05  -7.5059848e-05  -2.5709969e-04  -4.5564811e-04
  -3.1969562e-04  -4.1248035e-04  -2.5343808e-04  -2.2899441e-04  -2.1686271e-04  -3.0390243e-04  -3.0157829e-04  -4.9528324e-05  -4.5001382e-04  -1.5343849e-04  -1.3321832e-04  -3.0353162e-04  -1.7651879e-04  -2.8096547e-04  -2.1156759e-04  -1.2845731e-04  -7.4975724e-05  -1.2239614e-04  -2.3641823e-04  -1.2607143e-04  -1.6787325e-04  -1.5557016e-04  -1.6162856e-04  -2.1831045e-04  -6.2119099e-05  -2.6176029e-04  -6.3512700e-05   1.3025475e-04   4.1285923e-05  -3.5974351e-04  -6.1333674e-05   3.1277752e-05  -4.8638904e-05  -2.6183514e-04  -2.2804814e-04  -4.4841622e-04  -8.1305800e-05   2.0464645e-04  -6.6795103e-05  -2.6236963e-04  -6.8707182e-04  -3.1822413e-04  -3.6825071e-04  -2.7078847e-04  -5.4942619e-05  -3.5186327e-04   7.5630611e-05   8.7706365e-05   1.6983386e-04  -3.1006301e-04
   1.8663293e-04   1.6978744e-04   1.7125420e-04   2.0495207e-04   2.3807104e-04   2.4717182e-04   2.8260684e-04   2.1089877e-04   2.0813833e-04   2.3564207e-04   1.9161747e-04   8.7640728e-06   8.3024315e-05  -1.4245426e-05  -5.5245691e-06   7.1343464e-05   1.5160501e-04  -3.4171870e-05   1.7460936e-04   2.8044576e-04   1.8652374e-04   2.2931206e-04   1.1280151e-04   3.1588101e-05   3.1951276e-05  -4.4182510e-05   7.7252851e-05  -8.8103894e-05  -2.3281691e-06  -2.7776475e-04   1.5785453e-04   1.0336953e-04   5.5601271e-05  -9.8331482e-05  -1.3842517e-04  -1.5610593e-04  -2.0412164e-04   2.2696141e-04  -1.7591099e-04  -2.1697675e-04  -3.5466172e-04  -2.5743831e-04  -3.3185887e-04  -7.3904062e-05  -1.6646105e-04  -2.0041039e-04   8.0269114e-05   1.6273468e-04   7.9616708e-05  -2.1890305e-04
   6.2124884e-05   4.2950989e-05   7.8647150e-05   7.8425299e-05   8.2737606e-05   5.3203668e-05   9.5355434e-05   5.7175275e-05  -4.6451678e-05   9.6166594e-05   1.1224800e-04  -6.7933724e-05  -1.5720751e-05  -7.6558143e-05  -9.2331175e-05   1.7503387e-05   1.5877478e-04  -5.6401455e-05   1.5197095e-04   1.8675203e-04   6.0276892e-05   7.0748174e-05   3.6669735e-05  -1.5760139e-05  -6.3890853e-05  -1.2152374e-04   2.4873243e-05  -1.4762262e-04   1.2255831e-05  -2.8126297e-04   7.8088058e-05   3.6777350e-05  -9.5417317e-06  -2.5816241e-04  -2.0964106e-04  -4.6010199e-04  -2.8606012e-04   1.4524927e-04  -2.5198827e-04  -2.7203470e-04  -2.5344893e-04  -4.1718522e-04  -2.5044582e-04  -3.4298387e-04  -3.4253890e-04  -5.5648910e-04  -6.3608379e-05   1.6727014e-05  -2.6508010e-04  -4.1524909e-04
  -3.5016992e-04  -4.1734322e-04  -2.6859235e-04  -2.6688789e-04  -2.3688191e-04  -3.2200041e-04  -3.0776206e-04  -1.3101974e-04  -4.6420269e-04  -1.8002841e-04  -1.6123567e-04  -3.2114596e-04  -2.1567650e-04  -2.5705088e-04  -2.5831297e-04  -1.3334044e-04   3.6109828e-05  -7.0569506e-05  -5.0199655e-05   4.2643635e-05  -2.6245170e-05  -3.7500940e-05  -3.1179825e-05  -8.8764209e-05  -1.3452323e-04  -1.2800319e-04   3.6091493e-05   3.2906635e-06  -1.9149644e-05  -1.9296825e-04   8.0957718e-05   1.1778709e-05  -5.6042645e-05  -1.3091373e-04  -1.6415535e-04  -2.1468355e-04  -3.3113244e-04   1.4493398e-04  -1.4396731e-04  -1.2726891e-04  -2.3507990e-04  -1.9849892e-04   5.9100199e-05   2.1993259e-05  -5.1924042e-05  -1.6297209e-04   8.4370236e-05   2.7409263e-04   1.8793366e-04  -1.5487410e-04
   1.5433603e-04   1.6051765e-04   1.6148135e-04   1.7332517e-04   1.6829169e-04   2.1667262e-04   1.9393671e-04   1.6840023e-04   1.7084324e-04   1.7730054e-04   1.4918658e-04  -2.7480788e-05   4.7871508e-05  -3.2056461e-05   2.4601954e-05   3.4615976e-05   2.0946455e-04  -1.9896546e-05   7.9515761e-05   2.4670831e-04   1.0536686e-04   1.3169674e-04   1.3360298e-04   3.3601456e-05   9.2584640e-05  -4.5462672e-05  -4.9974853e-05  -2.3054751e-04  -1.8551002e-05  -2.2300275e-04   1.4495905e-04   1.3101322e-04   8.5296298e-05  -1.5893175e-04  -1.1423339e-04  -1.3163287e-04  -2.2111928e-04   1.4583119e-04  -6.4375636e-05  -1.6988718e-04  -2.5969004e-04  -8.3669824e-05  -1.9108575e-04  -3.3519632e-04  -1.4997362e-04  -2.5120887e-04   9.6399221e-05   2.4165600e-04   9.4837242e-07  -1.8629323e-04
  -4.0584135e-05  -7.4242074e-05  -5.8404180e-06  -2.0216501e-05  -3.0665327e-05  -2.5065656e-05  -3.4437213e-05   5.3145955e-05  -1.1772355e-04   3.2653494e-05   1.2092161e-05  -1.4552768e-04  -7.9577607e-05  -1.4200852e-04  -4.7175705e-05  -1.9004909e-05   1.8609098e-04  -2.7650871e-05  -4.1828207e-05   1.1449378e-04  -3.4165132e-05   3.2056603e-05  -6.6888451e-06  -6.5762433e-05  -2.2483303e-04  -8.6447260e-05   8.2809587e-05  -1.6721753e-04  -1.0969624e-04  -2.4353138e-04   1.6709705e-04   7.8358149e-05  -1.5761080e-04  -2.3404269e-04  -2.3692423e-04  -2.3630697e-04  -2.5032135e-04   8.0412341e-05  -2.8147965e-04  -3.0800590e-04  -4.6437787e-04  -1.6796896e-04  -1.5622034e-04  -4.1942470e-04  -4.2696876e-04  -2.7032400e-04  -4.5880650e-05   8.8761459e-05  -2.9861272e-04  -4.7705948e-04
  -2.6401671e-04  -2.8771782e-04  -8.5091706e-05  -5.2831678e-05   2.2481465e-05   2.3861954e-05   9.1404610e-05   5.0577535e-05   1.4834016e-04   1.4956800e-04   7.2085015e-05  -7.1732837e-05   2.2544442e-05  -5.1198338e-05   4.4251901e-05   5.2077561e-05   2.6160057e-04   2.8756060e-05   1.9601552e-04   3.0152508e-04   1.3320582e-04   1.8132193e-04   1.4596428e-04   9.9787008e-05  -2.9182145e-05   3.1298052e-05   5.2756735e-05  -1.6418075e-04  -1.7619364e-05  -1.0706823e-04   3.4417247e-04   1.3823541e-04   2.6264668e-05  -3.8472213e-06  -2.3680737e-05   5.8912727e-05  -1.8257817e-04   2.1611528e-04  -1.6119466e-04   3.9233881e-05   1.3300724e-04   7.6738419e-05   3.1194027e-04  -1.3299614e-04  -5.8706533e-05  -8.0403865e-05   2.6179806e-04   4.7488866e-04   1.3266236e-04   3.6816621e-06
   1.6447155e-04   1.1493213e-04   1.6603453e-04   1.4076542e-04   1.3563182e-04   1.6282679e-04   1.6061241e-04   1.3153239e-04   1.1903195e-04   2.1687371e-04   1.6531779e-04   1.1471931e-05   8.1819831e-05   3.5911708e-05  -1.6011103e-05   9.3658098e-05   3.0794850e-04   5.1897434e-05   1.5498376e-04   3.1922388e-04   1.3437041e-04   1.7900318e-04   1.3302651e-04   1.2239373e-04   4.0456445e-05   9.3022900e-05   1.7364165e-04  -3.0444239e-04   1.5542091e-05  -9.5512245e-05   2.9784458e-04   2.5820269e-04   6.6021377e-05   2.7678212e-05   7.8533967e-06  -4.5547522e-06  -2.3175411e-04   2.0045269e-04  -2.0003958e-05  -1.7881506e-05  -1.0279974e-04   7.3366522e-05   5.0428738e-05  -2.7110724e-04  -2.2817096e-04  -5.5278451e-05   2.3046859e-04   4.0150603e-04  -8.5877175e-05  -7.2122217e-05
  -5.6786546e-05  -1.4301688e-04  -4.2115189e-05  -6.0484355e-05  -6.0419687e-05  -1.1335794e-04  -9.5605450e-05  -4.3347194e-05  -1.2436751e-04   1.7952179e-05   1.0901456e-05  -1.5879997e-04  -9.0382062e-05  -7.1706156e-05  -5.0205821e-05  -1.4358249e-05   1.8299295e-04   1.3206942e-05  -4.2758980e-05   9.2629030e-05  -9.7080403e-05  -3.9085844e-06  -3.7418576e-07  -7.7257515e-05  -2.4517588e-04  -9.8233948e-05   4.4552358e-05  -3.7873091e-05   7.8673993e-06  -2.0254594e-04   1.4435581e-04   2.3434653e-04  -1.3209977e-04  -2.8758557e-04  -1.2869592e-04  -1.2004600e-04  -1.4628956e-04   2.1563692e-04  -1.1128113e-04  -7.0280817e-05   4.0610856e-05   1.4780714e-04   1.9115758e-04  -7.0626556e-05  -2.4658148e-05   2.2178833e-04   3.3669270e-04   5.1416858e-04   2.0899881e-04   1.5961341e-05
   3.5842968e-04   2.8513846e-04   3.4021147e-04   2.8314741e-04   3.4499529e-04   3.5034816e-04   3.9103103e-04   2.1507850e-04   4.8933964e-04   3.9947717e-04   2.9655299e-04   1.4725632e-04   2.2864516e-04   1.6350544e-04   2.2488816e-04   2.1740390e-04   4.2069558e-04   1.1020470e-04   3.1519827e-04   5.1694957e-04   2.7666081e-04   4.0265956e-04   3.7986215e-04   2.6593864e-04   2.2308264e-04   2.3213247e-04   2.0558893e-04  -1.1973763e-04   1.2963824e-04  -4.2039487e-06   4.9417431e-04   3.9252368e-04   1.6198793e-04   2.1242467e-04   1.3424753e-04   3.0503585e-04  -5.0269759e-05   3.1932574e-04   4.6704597e-05   1.6281338e-04   1.7310955e-04   4.2736233e-04   2.1607583e-04   2.0675889e-04   1.1478937e-04   3.5714787e-05   4.7419904e-04   6.6101691e-04   2.6798577e-04   1.7036076e-04
   4.1892022e-04   3.1061872e-04   3.6782678e-04   2.8145165e-04   3.0092051e-04   3.1883674e-04   3.0659148e-04   1.7244271e-04   3.4407104e-04   3.5146045e-04   3.2694195e-04   1.5172164e-04   2.1145717e-04   2.1530180e-04   1.5831272e-04   2.1511305e-04   4.0945644e-04   1.4121551e-04   2.7509633e-04   4.5468129e-04   1.9462817e-04   3.1782227e-04   2.8027737e-04   2.4546174e-04   2.6981591e-04   1.9536799e-04   1.8348159e-04  -5.4142936e-05   9.3536510e-05  -3.5809626e-05   3.1921209e-04   3.7315849e-04   2.5151105e-04   1.6033860e-04   5.6776113e-05   3.7285667e-05  -1.7780869e-04   2.8408127e-04  -5.4681575e-05   1.2561749e-04   1.0134761e-04   2.0236155e-04   2.3484250e-04  -1.2970091e-04  -1.1019768e-04   5.6228750e-05   3.7429392e-04   4.7740067e-04  -9.3258590e-05  -9.8496654e-05
   2.7496664e-05  -1.0010528e-04   4.1128340e-05  -3.0551502e-05  -1.4681415e-05  -1.3044434e-04  -1.0771446e-04   4.4745862e-05  -6.5375978e-05   8.4846353e-05   9.0638860e-05  -7.6848890e-05  -2.0559946e-06   7.7121547e-07  -7.3037721e-05   1.1465421e-04   2.8762812e-04   1.2200602e-04   1.1780176e-04   3.7242938e-04   1.3129904e-04   2.3014468e-04   2.7629937e-04   1.9306495e-04   9.2992363e-05   1.4404795e-04   2.2198982e-04   6.8454588e-06   1.4176770e-04   4.0201558e-05   3.8432496e-04   4.2733760e-04   1.3623113e-04   2.4004572e-04   9.4103052e-05   2.0320855e-04  -8.4636107e-05   3.4121831e-04   2.7042101e-04   2.4469782e-04   2.0366641e-04   3.9853380e-04   4.2267321e-04   4.4712587e-04   1.5151619e-04   2.3215587e-04   5.6467729e-04   7.1194023e-04   4.5636046e-04   3.8779902e-04
   6.7596877e-04   5.2756496e-04   5.9615943e-04   4.6553076e-04   5.4755068e-04   4.9928139e-04   5.5775227e-04   4.2397247e-04   6.0849212e-04   5.4897438e-04   5.0467532e-04   3.1597703e-04   4.0054234e-04   3.5946464e-04   2.8632517e-04   3.5589884e-04   5.2175211e-04   1.8503240e-04   4.1480374e-04   6.3100341e-04   3.3384448e-04   5.3260225e-04   3.9655849e-04   3.3206266e-04   4.1740565e-04   3.7006088e-04   3.2410224e-04  -6.5177148e-05   1.5041552e-04   4.9829272e-05   5.2734429e-04   4.8200556e-04   4.7754418e-04   3.5989372e-04   2.6920220e-04   3.3005842e-04  -1.5785631e-04   3.2850771e-04   1.9895039e-04   2.2489391e-04   4.4780737e-04   4.8853841e-04   3.8985620e-04   2.9057084e-04   3.3772842e-04   4.0291552e-04   5.8913976e-04   7.3636480e-04   3.2418763e-04   3.7486354e-04
   4.5477820e-04   3.2395494e-04   4.0855259e-04   2.9742726e-04   2.8826628e-04   2.3284154e-04   2.5208140e-04   2.3619263e-04   3.4612423e-04   3.5585073e-04   3.9141672e-04   1.9002159e-04   2.5274415e-04   2.6389776e-04   1.9024378e-04   2.8586644e-04   4.7656338e-04   1.7295807e-04   3.6323056e-04   4.7853193e-04   1.7939269e-04   3.5473844e-04   3.3416884e-04   2.7875666e-04   2.4646084e-04   2.8965692e-04   2.5956592e-04   1.0724572e-05   1.1957265e-04   2.3659746e-05   3.9000178e-04   4.4942266e-04   4.2235624e-04   2.5960390e-04   1.3637030e-04   1.9008500e-04  -1.4916675e-04   2.5845828e-04   8.8949826e-05   7.7950855e-05   1.0398362e-05   3.0136321e-04   2.5383176e-04   1.2953438e-04   2.1006386e-05   1.1741782e-04   3.6326479e-04   4.9452623e-04  -5.8848378e-05   8.4871448e-05
  -9.2318478e-06  -1.3259395e-04   5.2194962e-05  -2.9910711e-05   4.1439940e-05  -6.9483649e-05  -4.1935709e-05   1.0218513e-04   1.8810143e-04   2.0823852e-04   2.2370454e-04   4.1773950e-05   1.4877881e-04   1.4949335e-04   1.8547692e-04   2.2523277e-04   4.2837029e-04   2.0968038e-04   3.5805433e-04   5.1396131e-04   2.3351562e-04   4.2029741e-04   3.7985982e-04   3.1269301e-04   3.4643942e-04   3.4543214e-04   3.8788197e-04  -2.5892969e-05   2.2105762e-04   7.4672018e-05   4.9193489e-04   4.5954686e-04   5.0730433e-04   4.6129437e-04   2.0294964e-04   3.3630023e-04  -2.9394496e-05   3.8082941e-04   1.6714708e-04   4.5973575e-04   3.3404864e-04   4.9900363e-04   4.1226164e-04   4.0645342e-04   3.9434378e-04   5.9937203e-04   5.8851729e-04   7.6435815e-04   5.3447398e-04   4.9498468e-04
   7.2802894e-04   5.6821608e-04   6.4313749e-04   4.9751834e-04   5.5949704e-04   4.7614548e-04   5.4928631e-04   4.2951491e-04   6.9192913e-04   5.1615725e-04   5.1889761e-04   3.3491611e-04   3.9041799e-04   3.8564389e-04   2.9683969e-04   3.8100511e-04   5.4938433e-04   2.4539937e-04   5.5158202e-04   6.2067463e-04   3.1796619e-04   5.6227704e-04   5.1294634e-04   4.1762614e-04   5.6313875e-04   4.3269779e-04   4.2394959e-04  -6.6640343e-05   2.1441960e-04   7.3207557e-05   5.2422885e-04   5.2971113e-04   4.9788546e-04   5.3290761e-04   3.4053210e-04   2.7061705e-04   5.6482389e-05   3.6133997e-04   2.0068785e-04   4.4521570e-04   4.5218103e-04   4.4056447e-04   3.9219347e-04   4.4484407e-04   3.6175482e-04   4.1154923e-04   5.3928886e-04   6.5622380e-04   3.1480004e-04   3.5421693e-04
   4.5253092e-04   3.2492576e-04   4.3275711e-04   3.1600628e-04   3.2323593e-04   2.8131108e-04   2.8769611e-04   2.6180435e-04   3.4610540e-04   3.3154828e-04   4.0524080e-04   2.0254368e-04   2.8439326e-04   3.0212192e-04   2.9346222e-04   3.1634633e-04   4.1425665e-04   1.7133966e-04   2.4970114e-04   4.2374877e-04   1.4628562e-04   3.6261990e-04   3.9812329e-04   2.5080206e-04   2.9690555e-04   3.1200776e-04   2.9901628e-04  -1.1581204e-04   1.7952090e-04  -2.6547439e-05   3.2403934e-04   3.8771745e-04   3.0996371e-04   2.9958470e-04   1.1126122e-04   2.2014798e-04  -3.5404327e-07   2.6887862e-04   3.9457424e-05   1.9027255e-04   1.8136828e-04   1.5425394e-04   1.7319576e-04  -1.9351239e-04   7.7644327e-05  -8.6207110e-06   2.8515625e-04   3.6758179e-04   5.5999189e-05   6.1264582e-05
   1.6108692e-04   6.7702844e-05   2.9946477e-04   2.1988613e-04   3.6724255e-04   3.3616941e-04   3.7949756e-04   3.2550958e-04   5.5591145e-04   3.9775748e-04   4.1727058e-04   2.4025353e-04   3.4959998e-04   3.1080432e-04   3.5407805e-04   3.3103651e-04   4.4618052e-04   1.5352172e-04   4.8694064e-04   5.3561572e-04   2.6316452e-04   4.6771939e-04   4.5076618e-04   3.2486147e-04   3.5970629e-04   4.0963228e-04   3.8326351e-04   4.5964141e-05   1.8251318e-04   1.1445246e-04   4.4519748e-04   4.1771127e-04   6.0365995e-04   5.1336945e-04   3.5307446e-04   4.6793572e-04   1.3700577e-04   2.9881205e-04   2.2472383e-04   4.7467998e-04   2.1307245e-05   4.1081969e-04   5.4264249e-04   5.7135901e-04   5.5550667e-04   3.2312781e-04   5.4044172e-04   6.5959169e-04   5.0870859e-04   4.3252707e-04
   6.2191044e-04   4.9009192e-04   5.6027988e-04   4.4796854e-04   5.0930883e-04   4.9091724e-04   5.0076953e-04   4.5042578e-04   6.3406606e-04   4.5681882e-04   5.2578741e-04   3.1714301e-04   4.1103340e-04   3.9943820e-04   2.8050988e-04   3.8211080e-04   4.6581568e-04   1.5614841e-04   4.9497251e-04   5.4588047e-04   2.5616324e-04   5.1720801e-04   4.2370101e-04   3.4958075e-04   3.7436053e-04   3.7973200e-04   4.1864757e-04  -4.8046462e-05   9.6705582e-05   1.3997951e-04   4.6836710e-04   3.8266493e-04   4.8261706e-04   5.5826869e-04   3.0750711e-04   4.4333350e-04   5.5909048e-05   1.4995135e-04   2.9236899e-04   4.4502053e-04   4.2768285e-04   3.9046639e-04   3.8144895e-04   3.0371695e-04   2.8227645e-04   3.0286043e-04   4.4026179e-04   6.0949766e-04   3.2789598e-04   3.2962416e-04
   3.0268225e-04   2.0460675e-04   2.9187041e-04   2.1258107e-04   2.4333320e-04   1.6107199e-04   1.8919811e-04   2.9064433e-04   4.1529912e-04   2.5263074e-04   3.2354420e-04   1.4303115e-04   2.0775037e-04   2.5340056e-04   2.0984873e-04   2.5834868e-04   3.2799074e-04   1.3700538e-04   2.0916674e-04   2.8809512e-04   3.2179905e-05   2.9613607e-04   2.7839045e-04   1.4708131e-04   2.4710892e-04   1.7993010e-04   3.6827807e-04  -1.2807379e-05   1.6627407e-04   1.3784497e-05   2.0451521e-04   3.5646235e-04   3.1840065e-04   1.9016153e-04   2.5435645e-04   1.6540817e-04  -8.3586317e-05   3.2416824e-04   1.9918515e-04   2.6584399e-04   1.2844577e-04   2.9246023e-04   2.8170590e-04   1.5479088e-04   4.4248477e-04   2.8645666e-04   5.1441236e-04   5.3679000e-04   5.2170479e-04   2.6938019e-04
   6.8911229e-04   5.8710744e-04   6.1847374e-04   5.2995031e-04   6.6580932e-04   5.9594464e-04   6.2824489e-04   5.7156524e-04   8.3916902e-04   5.0850940e-04   5.8592606e-04   3.6914783e-04   4.3554560e-04   4.4908508e-04   3.5007665e-04   4.1406590e-04   3.4759910e-04   1.1463669e-04   5.1685644e-04   5.3477898e-04   2.9356938e-04   5.4469268e-04   4.4776639e-04   3.5572916e-04   5.4130825e-04   3.6772128e-04   4.6945846e-04   1.8946599e-05   2.5651490e-04   9.1774826e-05   3.7706745e-04   4.0768631e-04   6.4413471e-04   4.5898976e-04   3.0884874e-04   3.5182005e-04  -2.1354606e-05   4.5906217e-04   2.0679191e-04   4.7684865e-04   1.5067843e-04   6.1198771e-05   6.1592713e-05   2.4411695e-04   4.2580388e-04   2.9325968e-04   5.3078146e-04   4.3494307e-04   5.5800605e-04   1.6044507e-04
   6.8369618e-04   5.7957612e-04   5.8751984e-04   5.3531793e-04   6.3490437e-04   5.8120396e-04   5.4957950e-04   4.9563503e-04   7.6839025e-04   3.9241728e-04   6.1422342e-04   3.2756192e-04   3.9552333e-04   3.2807802e-04   2.5179217e-04   3.2902267e-04   5.5881621e-05  -6.5507280e-05   3.5380546e-04   3.7850274e-04   2.0356714e-04   4.1478861e-04   3.7993220e-04   3.1349485e-04   2.3888130e-04   1.5475224e-04   4.5066711e-04  -8.2049177e-05   2.9582891e-04  -6.8741479e-05   1.6144605e-04   2.7551455e-04   3.3671726e-04   3.0163734e-04   1.6877045e-04   1.3743422e-04  -2.3704370e-05   4.8036489e-04  -1.5320746e-05   1.4513230e-04  -6.2297832e-04  -3.2347266e-04  -3.0913285e-04  -8.8685840e-05   3.7916470e-04  -6.0796199e-05   3.8656322e-04   9.9100122e-05   1.6749748e-04  -2.0833621e-04
   3.2918740e-04   2.1645418e-04   2.5698851e-04   2.5816011e-04   3.5981979e-04   2.7452575e-04   2.3168295e-04   4.2871112e-04   4.7455166e-04   1.5965449e-04   4.2689039e-04   1.3405895e-04   2.6126549e-04   1.4354158e-04   2.0353425e-04   2.2624413e-04  -1.2693496e-04  -1.5013409e-04   2.9657592e-04   3.3723109e-04   2.1002683e-04   3.7844983e-04   3.3901443e-04   2.8787446e-04   1.9237674e-04   1.2674507e-04   4.0347368e-04   3.2977110e-05   3.3264607e-04  -1.2852717e-05   1.2876384e-04   2.7424310e-04   4.1349733e-04   2.9885329e-04   2.4391686e-04   1.1229033e-04   1.9635218e-04   5.4075260e-04   5.5433808e-05   4.2349473e-04  -3.8732291e-04  -3.4163517e-04  -2.5877217e-04   1.5820187e-04   7.5489597e-04  -6.9431735e-05   5.5679126e-04   2.8717559e-04   6.7781890e-04   9.1067113e-06
   1.0625724e-03   8.6951337e-04   8.0718251e-04   7.6237257e-04   9.4047684e-04   8.5613923e-04   8.4019481e-04   7.3078618e-04   1.0791157e-03   5.4244354e-04   8.0841850e-04   5.1869213e-04   5.6127901e-04   3.9143124e-04   2.1501895e-04   4.0413337e-04  -1.0755929e-04  -1.9648229e-04   5.5981433e-04   4.2206954e-04   3.3526582e-04   4.9363112e-04   4.7746333e-04   4.4281950e-04   3.3612875e-04   1.4924638e-04   4.5462354e-04  -7.9105710e-05   2.3914302e-04  -6.0366841e-05   2.0082240e-04   3.0774696e-04   5.4097862e-04   2.4385298e-04   1.5635653e-04   2.1318969e-04   1.5304983e-04   4.4679511e-04   5.7424804e-05   2.8587642e-04  -5.5683672e-04  -4.4749829e-04  -4.1873907e-04   3.8468622e-04   5.6914997e-04   8.5194479e-06   4.3290755e-04   2.2369604e-04   4.8161746e-04  -1.2813153e-04
   7.2717830e-04   5.8103388e-04   5.2403833e-04   5.2476040e-04   5.9804443e-04   5.8021222e-04   5.4485229e-04   5.4070487e-04   7.8192377e-04   3.4821939e-04   6.2662526e-04   3.4577251e-04   3.7502166e-04   3.2937620e-04   1.7764684e-04   2.9958569e-04  -1.1952832e-04  -1.8553816e-04   2.8264849e-04   2.2582503e-04   1.2258382e-04   3.1525167e-04   3.2478868e-04   2.3533961e-04   7.6965429e-05   1.4506066e-06   2.5884490e-04  -8.5204694e-05   2.8462807e-04  -1.2127904e-04  -3.0839092e-06   2.2561476e-04   2.9354967e-04   6.1608480e-05   5.8775040e-05  -1.2620912e-04  -2.8794664e-05   4.8106231e-04  -5.1833762e-05   5.8640828e-05  -5.9270085e-04  -6.5225112e-04  -5.4658164e-04  -2.8630285e-04   2.2015550e-04  -2.8892371e-04   2.7804769e-04  -1.3630545e-04   2.6591303e-04  -4.0514921e-04
   5.8366230e-04   4.9915264e-04   4.9677771e-04   5.2881689e-04   7.1906613e-04   7.0725830e-04   7.1915222e-04   5.8249326e-04   9.0688496e-04   4.3051198e-04   6.9375947e-04   4.1109446e-04   5.3042272e-04   2.9575673e-04   1.4733621e-04   3.3373959e-04  -8.8470566e-05  -1.8202967e-04   5.1286042e-04   3.5298453e-04   2.4108384e-04   4.6681939e-04   4.4351889e-04   3.0971458e-04   2.8995139e-04   5.4144377e-05   3.7697487e-04  -2.4718920e-05   1.9713848e-04   2.3455017e-05   2.4956005e-04   3.1697325e-04   3.6205701e-04   2.4716507e-04   2.6552813e-04   1.0770141e-04   3.7024776e-04   4.2179952e-04   7.4940646e-05   3.1516532e-04  -3.6118625e-04  -5.2810257e-04  -2.6366406e-04   1.3512146e-04   6.9963245e-04   2.5340056e-05   3.6643486e-04   1.6431842e-04   5.7494541e-04  -1.8180466e-05
   8.6818181e-04   7.1305456e-04   6.1177916e-04   6.1552977e-04   7.4021833e-04   7.3398574e-04   7.5719866e-04   7.2256644e-04   9.8745723e-04   4.6275117e-04   7.3786947e-04   4.5999116e-04   4.5809086e-04   3.1739360e-04   1.3341388e-04   3.5292353e-04  -1.3679768e-04  -1.9317205e-04   5.3742860e-04   3.1543444e-04   2.4953583e-04   3.7506680e-04   4.5842020e-04   3.3887115e-04   2.5892441e-04   8.6300308e-05   3.6081680e-04  -1.8078834e-04   2.7705930e-04  -8.0387370e-05   1.2816748e-05   1.6954693e-04   4.9061759e-04   1.3672347e-04   1.5681837e-04  -2.0112759e-05   1.9895655e-04   4.5729728e-04  -4.8087924e-05   3.1459895e-05  -6.2051381e-04  -6.7463092e-04  -5.8052479e-04   2.4323327e-04   5.5909448e-04  -1.2089327e-04   2.7307874e-04  -4.1486874e-05   3.9285357e-04  -3.3181268e-04
   6.0708600e-04   5.2234402e-04   3.9550269e-04   4.5282207e-04   5.7108863e-04   5.3231727e-04   4.9843924e-04   5.1486574e-04   6.1719958e-04   2.1403152e-04   6.0152193e-04   2.7347979e-04   2.3194095e-04   9.8383018e-05  -2.4147370e-05   1.9693593e-04  -3.4977947e-04  -3.3167168e-04   1.7867771e-04   5.4064669e-05   3.2177577e-05   1.4906422e-04   1.7163335e-04   9.8322365e-05   1.3592085e-04  -1.6876469e-04   6.5408974e-05  -2.2741147e-04   2.5329064e-04  -2.0293790e-04  -1.0089147e-04   7.9807243e-05   1.8582809e-04  -8.0909500e-05  -7.6866330e-05  -3.0289209e-04  -1.6115591e-05   5.3497887e-04  -3.5348081e-04  -1.5296816e-04  -1.2839512e-03  -1.0458510e-03  -8.1297342e-04  -3.4535729e-04   3.2978042e-04  -6.3258695e-04   1.9842296e-04  -2.3428217e-04   4.5333148e-04  -4.7199425e-04
   8.7536528e-04   7.5776665e-04   5.7498133e-04   6.3688419e-04   8.1664178e-04   7.2811387e-04   7.6278462e-04   6.6406798e-04   9.3727373e-04   4.3016367e-04   7.4486079e-04   4.3999555e-04   3.9048051e-04   9.3221410e-05   3.2688324e-05   2.3178542e-04  -4.4375865e-04  -5.1729236e-04   4.5900408e-04   2.4577134e-04   2.9657982e-04   3.0211447e-04   4.2018943e-04   3.0955017e-04   4.2068292e-04  -1.4648592e-04   1.1808816e-04  -2.8204574e-04   1.9250423e-04  -8.2292012e-05  -2.4892215e-05   4.2040163e-05   2.9697255e-04   1.0488203e-04   1.3486503e-04  -2.1993161e-05   1.5156546e-04   5.0013384e-04  -1.1956112e-06   1.5535727e-04  -7.4392842e-04  -1.0212429e-03  -7.2075462e-04  -8.9387555e-05   7.1448222e-04  -4.2387506e-04   2.1333793e-04  -1.8437186e-04   5.6363700e-04  -3.8153803e-04
   9.4793661e-04   7.9890265e-04   5.9789163e-04   6.5905217e-04   7.7664544e-04   7.1989855e-04   7.0361578e-04   5.8373943e-04   8.6930336e-04   3.7958240e-04   7.5107859e-04   4.3752845e-04   3.6555019e-04   6.8110683e-05  -3.2116197e-05   1.9982090e-04  -4.6724835e-04  -5.3883321e-04   3.9816980e-04   1.4747556e-04   2.5284645e-04   2.7502302e-04   3.6930633e-04   2.7091693e-04   1.8611348e-04  -1.5946441e-04   2.8056797e-05  -4.0256217e-04   1.2311991e-04  -1.6289866e-04  -1.1275152e-04   3.6253772e-05   2.7211590e-04  -6.2637373e-05  -5.0611879e-06  -1.1495508e-04   9.9537108e-05   3.7895731e-04  -3.6741130e-05  -1.1700894e-05  -1.1737788e-03  -1.2657730e-03  -9.5042674e-04   5.3786658e-05   5.2652857e-04  -3.3314439e-04   3.8504320e-05  -3.5198478e-04   2.7757799e-04  -5.9351430e-04
   5.9317285e-04   4.7354406e-04   2.8141349e-04   4.2361949e-04   4.4172272e-04   4.0821021e-04   3.7421245e-04   4.2360681e-04   5.9188553e-04   1.0891558e-04   5.1630684e-04   1.9894434e-04   1.7106096e-04  -1.1514372e-04  -1.8678624e-04   2.0539488e-05  -6.4019364e-04  -6.2602159e-04  -1.6102786e-05  -1.3363127e-04   1.1046649e-05   1.6007725e-05   8.3423052e-05   7.8690697e-05   8.5808788e-05  -3.7152629e-04  -8.0032871e-05  -3.3001308e-04   1.1413632e-04  -2.6935790e-04  -2.6768414e-04  -1.7243081e-04   2.6626015e-04  -2.2937759e-04  -5.6219429e-05  -3.0068358e-04   3.3373828e-05   3.9388306e-04  -1.2132496e-04  -1.4147304e-04  -1.2652719e-03  -1.2171038e-03  -8.8126585e-04   1.2478138e-04   5.4245896e-04  -5.2958191e-04   7.8814301e-05  -3.5051291e-04   5.3151383e-04  -4.9846905e-04
   9.3867624e-04   7.9830998e-04   5.2818196e-04   6.5737171e-04   7.2831911e-04   6.9935684e-04   7.1901787e-04   5.7137688e-04   8.4100437e-04   3.8211117e-04   6.9853006e-04   3.9668879e-04   3.1639179e-04   3.8057191e-05  -7.0453687e-05   1.4472687e-04  -4.8477427e-04  -5.8696669e-04   3.2377089e-04   1.1717673e-04   2.5677233e-04   1.9154300e-04   3.1100598e-04   2.0753677e-04   1.0512379e-04  -2.0509807e-04  -2.4125255e-05  -5.0951232e-04   9.7438118e-05  -1.6105155e-04  -7.8286430e-05   3.7791873e-05   9.5846808e-05  -3.2546432e-05   4.8956997e-05  -1.6972632e-04   4.0330495e-05   3.7325657e-04  -1.2646212e-04   2.6393243e-05  -7.7695621e-04  -1.1680332e-03  -6.6784897e-04  -2.6323012e-04   4.1541018e-04  -4.0788608e-04   2.3496041e-05  -3.4739968e-04   3.5739198e-04  -4.2562268e-04
   7.6565542e-04   6.0471316e-04   3.6560398e-04   4.9616228e-04   4.8997090e-04   4.8459158e-04   4.6521737e-04   3.9518168e-04   6.7892962e-04   2.0772903e-04   5.3917413e-04   2.4223370e-04   1.9411942e-04  -5.6944551e-05  -1.6500926e-04   6.0406201e-05  -4.8919575e-04  -5.7585235e-04   1.5410483e-04  -3.1896117e-05   1.0526284e-04   7.6350872e-05   1.2506796e-04   6.3681124e-05   5.5715656e-05  -2.6017317e-04  -1.4798735e-04  -4.5864269e-04   4.2308711e-05  -1.9426763e-04  -2.4618342e-04  -5.2803600e-05   1.8512423e-05  -2.6526529e-04  -1.5759785e-04  -3.4442093e-04   4.5463626e-06   2.3146624e-04  -2.1406382e-04  -1.7275536e-04  -8.9376618e-04  -1.3277689e-03  -8.7025977e-04  -3.8028829e-04   1.7951078e-04  -6.7003747e-04  -1.7247976e-04  -5.4364145e-04   3.8175800e-05  -7.2431163e-04
   2.5525090e-04   1.5459585e-04  -3.1855019e-05   1.3221469e-04   1.6222152e-04   1.8493776e-04   9.8262797e-05   1.6133623e-04   4.4422090e-04   1.6448883e-05   3.1853412e-04   3.8242491e-05   5.0167953e-05  -1.8664819e-04  -1.9455183e-04  -2.2866028e-05  -4.8491251e-04  -6.1367219e-04   1.5495729e-04  -2.5401307e-05   1.2934887e-04   4.3986289e-05   1.0038664e-04   5.9330119e-05   1.4755198e-04  -2.6828676e-04  -1.8337612e-04  -3.0247000e-04   4.1970839e-06  -7.7920558e-05  -9.3913193e-05  -7.0115530e-05   1.2197538e-04  -1.3362183e-04  -2.8357621e-05  -2.2084299e-04   3.1650587e-04   2.0659396e-04   3.2266191e-05   7.4425247e-05  -8.3632307e-04  -1.1639377e-03  -8.0681278e-04  -5.4434504e-06   4.4003234e-04  -4.1404174e-04  -4.6206875e-05  -1.6307582e-04   4.3589936e-04  -3.6248853e-04
   8.6065102e-04   7.0522935e-04   4.2652478e-04   5.2532431e-04   5.2988605e-04   5.8289384e-04   5.6745118e-04   4.1273201e-04   6.2971190e-04   2.6974230e-04   5.0164544e-04   2.2730634e-04   1.6767709e-04  -5.0597690e-05  -5.8170695e-05   6.1778264e-05  -3.8334398e-04  -5.5542128e-04   1.1813640e-04   3.3240787e-05   1.8559280e-04   8.8907778e-05   2.2586182e-04   9.3071940e-05   1.9816465e-04  -1.9873279e-04  -1.2658139e-04  -3.4324621e-04   7.6715813e-05  -8.9761263e-05  -9.9930556e-05  -4.2540971e-05   9.9522527e-05  -7.7919482e-05   6.4868655e-05  -2.4743847e-04   1.7806927e-04   1.9640937e-04  -4.8106340e-05   1.8752347e-05  -7.0772442e-04  -1.1497481e-03  -7.2515174e-04  -5.3704636e-05   3.1628960e-04  -3.1455632e-04  -6.1372666e-05  -2.9493595e-04   2.0672567e-04  -4.1660728e-04
   5.6820601e-04   4.1685643e-04   1.8365726e-04   2.9828475e-04   2.7552329e-04   2.8504425e-04   2.5762129e-04   3.0858404e-04   3.7845792e-04   9.1404690e-05   3.5176246e-04   7.2608491e-05   7.2345298e-05  -1.8224158e-04  -2.0745739e-04  -3.7259026e-05  -4.8462625e-04  -5.7026726e-04   2.4483319e-05  -1.4885893e-04   6.5119812e-06  -7.0194248e-05  -2.8419559e-05  -1.0783083e-04   1.6659731e-05  -3.4882294e-04  -2.0822843e-04  -3.5661637e-04   2.8093909e-06  -1.7179991e-04  -2.4658057e-04  -1.0814033e-04   9.4638817e-05  -2.7344690e-04  -8.7780740e-05  -3.3427068e-04   1.3514837e-04   2.0820728e-04  -2.9102355e-04  -2.3234423e-04  -1.1413669e-03  -1.3241360e-03  -8.1139669e-04  -4.2297793e-04   4.8136644e-05  -6.2122830e-04  -1.8526618e-04  -4.8326325e-04  -4.9343165e-05  -7.1361411e-04
   4.5802811e-04   3.4114014e-04   2.0282369e-04   3.1584108e-04   3.9238104e-04   4.4653556e-04   3.7273826e-04   3.2953080e-04   5.8288348e-04   2.0576984e-04   3.7411760e-04   1.3632474e-04   8.8223562e-05  -1.2999339e-04  -1.2795588e-04  -4.7861795e-06  -4.2704763e-04  -5.5036426e-04   7.3406634e-05   3.3994194e-05   1.8024826e-04   8.7459608e-05   9.6561183e-05   4.5193399e-05   1.6357259e-04  -1.9584183e-04  -9.1645030e-05  -2.2833898e-04   6.4362852e-05  -4.0614210e-05  -4.9650265e-05   4.0269249e-05  -7.4992608e-06  -9.3558236e-05   3.3567543e-05  -8.9422218e-05   4.0790866e-04   2.6877833e-04   1.0067876e-04   4.6907124e-05  -6.8308326e-04  -1.0858041e-03  -6.8663870e-04  -1.7542667e-04   4.3466306e-04  -1.9873955e-04   3.8776496e-05  -1.9079341e-04   3.0229532e-04  -3.7668203e-04
   8.0325303e-04   5.7768525e-04   3.5108702e-04   4.1621240e-04   4.2855612e-04   4.9565593e-04   4.1812894e-04   3.7633922e-04   5.6005985e-04   2.3461829e-04   4.2436004e-04   1.7322855e-04   1.6853765e-04  -6.2864558e-05  -8.1016755e-05   4.6240835e-05  -3.5364358e-04  -5.2121014e-04   3.2928742e-06   6.2443512e-05   1.9438993e-04   1.1933996e-04   1.2867224e-04   7.3126743e-05   9.4390336e-05  -1.5382140e-04  -1.1276898e-04  -2.7456248e-04   1.9149893e-05  -6.6512919e-05  -7.0618167e-05   1.0108642e-04   2.4195606e-04  -5.9414419e-05   5.7243247e-05  -1.7295920e-04   2.4774086e-04   2.6745317e-04   1.3464747e-04  -2.7371534e-05  -8.7373686e-04  -1.1113774e-03  -8.3743455e-04  -2.8489076e-04   3.1977863e-04  -3.2628176e-04   4.9794553e-06  -3.0196403e-04   1.0445207e-05  -5.3203775e-04
   4.8533455e-04   2.8705777e-04   1.3100605e-04   1.9506134e-04   1.6767546e-04   1.2724000e-04   8.9393303e-05   1.7931349e-04   1.9665327e-04   5.6579634e-06   2.3149356e-04  -8.8037650e-06  -7.4912255e-06  -1.8538386e-04  -2.1473179e-04  -9.7119606e-05  -4.7568494e-04  -5.5512768e-04  -1.9561048e-04  -1.8028161e-04  -2.4013447e-05  -1.1077545e-04  -8.0106816e-05  -1.6171858e-04  -2.3764280e-05  -2.7854225e-04  -2.8842755e-04  -1.7104129e-04   3.8543767e-05  -1.8694322e-04  -2.8812286e-04  -4.0620034e-05  -1.7381714e-04  -3.8111786e-04  -1.4068729e-04  -4.4584123e-04   1.6608232e-04   2.9459404e-04  -1.9356304e-04  -2.2956257e-04  -9.6116983e-04  -1.1839027e-03  -8.5617928e-04  -7.5320611e-05   2.3218505e-04  -5.9210294e-04   9.7374723e-06  -3.1340381e-04   1.4545598e-04  -4.5498103e-04
   7.5718667e-04   5.9337803e-04   3.7130239e-04   4.2564890e-04   4.8668904e-04   4.7651416e-04   4.4010338e-04   3.9451633e-04   6.3271134e-04   2.3849335e-04   3.7176552e-04   1.5482829e-04   1.7625779e-04  -9.8891993e-05  -8.5964173e-05   5.5505307e-06  -3.9903226e-04  -5.3203391e-04   4.4895027e-05   1.1252566e-04   2.7136723e-04   1.5949810e-04   1.6781458e-04   9.3417533e-05   1.7694675e-04  -9.9351251e-05  -1.2462134e-04   8.1888778e-05   1.5258962e-04  -5.5590604e-05   4.6223336e-06   9.7060074e-05   3.6094938e-05   7.5055992e-05   1.4904414e-04  -6.2669351e-05   3.0438218e-04   3.6132231e-04  -1.2164548e-05   4.4858556e-05  -6.4792321e-04  -9.9690189e-04  -7.5109670e-04   1.3921937e-04   2.8008170e-04  -2.6087181e-04   1.1860145e-04  -1.2236797e-04   1.9881132e-04  -4.6425033e-04
