   2.3316679e-04   5.6330673e-04   5.4730272e-06   4.7362392e-04   2.5714812e-04   3.9071322e-04   3.5582462e-04   7.8664481e-05   3.2303779e-04   1.1135301e-04   3.2437293e-04   1.8659205e-04   3.9784485e-04   1.0210311e-04   7.5053438e-05   3.1778231e-06  -1.5350567e-04   6.8223148e-06  -1.6116818e-04  -1.3221007e-04  -5.7493693e-05   1.6044409e-04  -1.0308563e-04   6.7496971e-05  -1.1665990e-04  -1.2430252e-04   7.4467796e-05  -2.4747121e-04   2.2364236e-04  -9.3721668e-05  -2.6247229e-05   4.0653400e-04  -1.0170798e-04  -1.3646834e-04  -1.2129135e-04  -4.1633968e-05  -7.6390417e-05   6.1034394e-04  -7.6542259e-05  -3.3994027e-05  -3.2907462e-04  -2.8862356e-04  -1.6915254e-04  -2.4592257e-04   9.7396791e-05  -4.8963603e-04  -2.3729607e-04  -6.5159996e-04  -1.7900932e-04  -1.6880473e-04
  -9.9864490e-05   1.9740933e-04  -2.5328505e-04   1.5000024e-04   6.9879939e-06   4.6631289e-05   4.2694035e-05  -1.1037592e-04  -3.7896429e-05  -1.6577767e-04   7.0402995e-05  -6.5946566e-05   1.3310951e-04  -1.4797473e-04  -1.5800774e-04  -1.4752382e-04  -3.0028101e-04  -1.0720887e-05  -5.1933486e-04  -4.1500042e-04  -3.1113182e-04  -5.8219834e-05  -3.8817473e-04  -1.2471410e-04  -2.5126949e-04  -3.4371359e-04  -3.5935180e-05  -2.2399791e-04   2.0812187e-04  -2.0766520e-04  -2.0554794e-04   2.1238401e-04  -5.3826469e-04  -4.1446195e-04  -3.9816342e-04  -2.9380588e-04  -2.0852560e-04   5.6466548e-04  -3.6954682e-04  -3.9781778e-04  -5.3755159e-04  -5.2590464e-04  -4.1913177e-04  -6.5612013e-04  -1.4452459e-04  -6.6463999e-04  -4.8200565e-04  -8.6446496e-04  -6.5676065e-04  -4.9053814e-04
  -5.1152724e-04  -2.1638977e-04  -5.7286042e-04  -1.8532736e-04  -2.5679611e-04  -2.3933362e-04  -2.8368534e-04  -3.2459962e-04  -3.4094023e-04  -4.4519457e-04  -2.2601320e-04  -3.2713715e-04  -1.0706189e-04  -3.5787208e-04  -3.1165787e-04  -2.7826944e-04  -3.8314151e-04  -3.3618042e-05  -4.8371250e-04  -5.0011318e-04  -3.3938029e-04  -1.6757117e-04  -3.9758207e-04  -2.6164728e-04  -5.5866662e-05  -3.9885426e-04   1.1506320e-05   4.0906780e-05   2.5138364e-04  -1.3313610e-04  -1.3308167e-04   1.7471370e-04  -4.7698486e-04  -2.9234323e-04  -2.0503694e-04  -1.3979377e-04   4.2952968e-05   6.1558676e-04  -5.0879331e-05   3.3819531e-05  -1.9831580e-04  -4.1474239e-04  -3.9291955e-04  -1.7691689e-04   3.0930260e-05  -2.4549561e-04  -3.8757201e-04  -7.0990942e-04  -2.0534497e-05  -5.6501052e-05
  -1.6101476e-05   4.1515069e-04  -2.3349679e-04   3.5253615e-04   1.4357526e-04   3.4154789e-04   3.6319357e-04   4.3255764e-05   1.5523451e-04  -5.2145999e-05   8.8515910e-05  -7.6028962e-05   1.8538750e-04  -8.4243475e-05  -5.9368096e-05  -1.2117740e-04  -2.4889779e-04  -1.1258926e-05  -2.5430619e-04  -3.1180060e-04  -1.7624687e-04   1.7938144e-06  -2.5753130e-04  -1.9456974e-04  -1.4337592e-04  -3.3467670e-04   7.0240436e-05  -2.1537420e-04   2.0045295e-04  -1.1163406e-04  -1.0798690e-04   2.2786595e-04  -3.5512721e-04  -1.4206511e-04  -1.0525753e-04  -1.7056607e-04  -1.1483742e-04   6.7978597e-04  -7.0107424e-05  -1.1928043e-04  -5.0640351e-04  -4.7737898e-04  -2.5075598e-04  -2.3289229e-04  -1.8032731e-06  -5.4683723e-04  -4.1051619e-04  -6.8678771e-04  -7.7303441e-05  -1.2764017e-04
  -1.4894670e-04   2.7540748e-04  -3.1316665e-04   2.0635074e-04   7.7721334e-06   1.5581290e-04   1.1879988e-04  -1.3036543e-04   5.9022688e-05  -1.9647693e-04  -4.8287384e-05  -1.8429443e-04   7.4703494e-05  -2.0819336e-04  -1.0670926e-04  -1.7229677e-04  -2.9496252e-04  -1.3053485e-05  -3.4261125e-04  -4.6484836e-04  -3.2230283e-04  -1.5735682e-04  -4.2259155e-04  -3.3183326e-04  -2.9149128e-04  -3.7597187e-04  -8.5388281e-05  -2.5118614e-04   2.0999800e-04  -1.8251284e-04  -1.6192032e-04   1.5198506e-04  -4.6534700e-04  -4.6724422e-04  -3.7643741e-04  -3.5509144e-04  -1.7751794e-04   6.1133027e-04  -1.6198792e-04  -4.2677362e-04  -8.1514934e-04  -6.0915062e-04  -4.1121649e-04  -6.0826162e-04  -2.0996957e-04  -7.2001456e-04  -6.1043201e-04  -9.7694970e-04  -5.1527785e-04  -4.5770238e-04
  -4.8890064e-04  -1.1743480e-04  -5.7385658e-04  -1.1357760e-04  -2.4325593e-04  -1.5506116e-04  -2.2702037e-04  -2.8452787e-04  -3.2995784e-04  -4.4201169e-04  -2.8302707e-04  -4.0393305e-04  -1.6021745e-04  -3.2925949e-04  -3.0711226e-04  -3.1773414e-04  -4.3521746e-04  -5.2616193e-05  -5.9247093e-04  -7.2162424e-04  -5.3891650e-04  -3.5886854e-04  -6.4694381e-04  -5.1238650e-04  -3.2030561e-04  -6.0439121e-04  -2.6219775e-04  -1.2486773e-04   1.0463435e-04  -3.1750189e-04  -3.9702895e-04  -1.7167524e-05  -7.1252853e-04  -7.6310762e-04  -5.3709309e-04  -6.2472257e-04  -2.8152761e-04   5.1738427e-04  -4.3012877e-04  -6.6929369e-04  -7.6869043e-04  -8.3852414e-04  -7.4020587e-04  -8.4910140e-04  -6.2652410e-04  -8.9868554e-04  -7.6373765e-04  -1.1768094e-03  -4.4214606e-04  -5.2245485e-04
  -4.5965004e-04   6.2088482e-05  -5.2526098e-04   6.0817565e-05  -1.2370983e-04   7.3408402e-05   1.2196750e-04  -1.3028865e-04  -2.2164992e-05  -2.8935834e-04  -2.0550743e-04  -3.1756068e-04  -5.5202268e-05  -3.1181690e-04  -2.1540956e-04  -2.8893215e-04  -3.9254734e-04  -1.0257660e-04  -4.6781832e-04  -5.0247391e-04  -2.9194140e-04  -1.8768072e-04  -4.6028520e-04  -4.2529401e-04  -2.7198507e-04  -4.6330850e-04  -5.8160764e-05  -1.6946541e-04   1.5107098e-04  -1.9362815e-04  -2.7239753e-04   7.5850519e-05  -5.0531019e-04  -4.9165712e-04  -3.0920017e-04  -2.9699161e-04  -7.8237099e-05   6.2912004e-04  -7.1049777e-05  -2.5728051e-04  -8.1115257e-04  -6.6710386e-04  -5.5015093e-04  -4.3753203e-04  -5.6174458e-06  -6.5796560e-04  -6.1958819e-04  -9.6002582e-04  -2.6321865e-04  -3.7515216e-04
  -3.0792539e-04   1.6763690e-04  -4.6281019e-04   1.0225998e-04  -6.7148845e-05   9.9729725e-05   1.3246186e-04  -1.3048683e-04  -5.9172264e-05  -2.6086977e-04  -1.8615769e-04  -2.6763903e-04  -4.3782406e-05  -2.9975057e-04  -2.2021969e-04  -2.6285529e-04  -4.0343637e-04  -7.3632822e-05  -3.7962169e-04  -5.1661755e-04  -3.0794839e-04  -1.9977556e-04  -4.5482061e-04  -3.9098403e-04  -3.3127874e-04  -4.8211392e-04  -4.8906684e-05  -2.5026634e-04   1.3455989e-04  -2.4923787e-04  -3.0152136e-04   9.0304398e-05  -7.1964774e-04  -4.8396061e-04  -3.8385333e-04  -4.7785827e-04  -1.3518309e-04   6.2790274e-04  -4.2618849e-04  -3.4880583e-04  -8.2887901e-04  -6.8151753e-04  -6.4300257e-04  -4.8098428e-04  -3.3263330e-04  -6.4246549e-04  -6.2273705e-04  -1.1064030e-03  -4.2058798e-04  -4.8608379e-04
  -4.7297220e-04  -5.3429412e-05  -5.9069472e-04  -8.2160230e-05  -2.6636073e-04  -1.0324267e-04  -1.5541214e-04  -2.7549829e-04  -3.6489588e-04  -4.3630190e-04  -3.2770896e-04  -3.9918002e-04  -1.6054927e-04  -4.5222481e-04  -3.4672066e-04  -3.8237390e-04  -5.1526964e-04  -1.0108725e-04  -6.5158209e-04  -7.0904620e-04  -4.8695484e-04  -3.5707725e-04  -6.2773592e-04  -5.6316273e-04  -3.5418221e-04  -6.9391058e-04  -2.5668420e-04  -3.6861360e-04   1.1195473e-04  -3.6776200e-04  -4.1309185e-04  -1.7448001e-05  -9.2490413e-04  -7.7147066e-04  -5.0766399e-04  -6.2545971e-04  -3.6369669e-04   5.9303094e-04  -5.4898456e-04  -6.4185215e-04  -1.2513245e-03  -8.0683531e-04  -9.6768414e-04  -9.0516027e-04  -4.2710657e-04  -1.0110446e-03  -7.1946409e-04  -1.2091730e-03  -4.3460444e-04  -6.5063348e-04
  -4.9540610e-04   7.5892481e-06  -5.4912310e-04   4.9483838e-06  -1.6833447e-04   7.7932040e-05   7.3879870e-05  -2.7652521e-04  -1.6894251e-04  -2.8804786e-04  -2.5133416e-04  -2.9223712e-04  -1.2639392e-04  -3.9818435e-04  -3.3144315e-04  -3.3634441e-04  -4.7466601e-04  -1.5679217e-04  -4.0985900e-04  -5.1078195e-04  -2.5115372e-04  -2.0122017e-04  -4.5348395e-04  -3.9038819e-04  -5.9147505e-04  -5.5212382e-04  -1.4721158e-04  -2.5724969e-04   1.0713323e-04  -2.6752238e-04  -3.0057493e-04   9.3241288e-05  -5.3838344e-04  -4.7533371e-04  -2.9958304e-04  -3.7806740e-04  -1.6224623e-04   6.3167431e-04  -3.5464001e-04  -4.0091691e-04  -5.1424367e-04  -5.3649978e-04  -6.3359900e-04  -4.8235082e-04  -1.8979319e-04  -8.6049514e-04  -5.3331553e-04  -9.6467318e-04  -2.8420700e-04  -4.8944418e-04
  -3.1869317e-04   1.0163760e-04  -4.4886538e-04   5.6427070e-05  -1.6841956e-04   5.9918242e-05   1.0381663e-05  -1.9864360e-04  -6.6608358e-05  -2.8697134e-04  -1.6537393e-04  -2.3041593e-04  -6.4196734e-05  -3.4456994e-04  -3.1814523e-04  -3.1948942e-04  -4.1752591e-04  -1.1492408e-04  -4.9731007e-04  -4.8411445e-04  -2.8195107e-04  -1.8471874e-04  -5.0680991e-04  -3.3752070e-04  -3.4400978e-04  -5.4894557e-04  -1.7409518e-04  -4.0310447e-04   3.9084811e-05  -2.8425793e-04  -2.1138655e-04   2.3890996e-05  -6.9000653e-04  -6.6759362e-04  -3.6498875e-04  -4.3859365e-04  -2.9502099e-04   5.9875014e-04  -1.3646531e-04  -5.2192027e-04  -7.3371129e-04  -5.9663242e-04  -4.8309611e-04  -6.4404600e-04  -3.9726956e-04  -9.1865839e-04  -5.5600662e-04  -9.8172063e-04  -4.3272064e-04  -6.2944274e-04
  -5.0780392e-04  -1.5130326e-04  -5.7584542e-04  -1.7314497e-04  -3.4257164e-04  -2.6292718e-04  -2.4089168e-04  -3.8858439e-04  -3.8850514e-04  -4.4352768e-04  -3.3240300e-04  -3.5344984e-04  -2.4197489e-04  -4.8646357e-04  -4.1708176e-04  -4.2045905e-04  -5.4658682e-04  -1.6376149e-04  -5.0662120e-04  -7.0940959e-04  -4.6476815e-04  -3.7464779e-04  -7.1514008e-04  -5.0893344e-04  -4.0283453e-04  -6.8479835e-04  -3.0581001e-04  -2.1035031e-04   7.3331314e-05  -4.1867926e-04  -4.5657274e-04  -9.7252469e-06  -7.2294916e-04  -8.5397216e-04  -6.5589201e-04  -6.9319014e-04  -2.6990054e-04   6.0229388e-04  -5.4253911e-04  -8.8744913e-04  -1.2245734e-03  -7.7398203e-04  -8.4385724e-04  -9.7614044e-04  -5.2199338e-04  -1.3588024e-03  -6.0965214e-04  -1.1350499e-03  -4.3182541e-04  -7.0394378e-04
  -4.9740862e-04  -5.3900872e-05  -5.0300627e-04  -4.8656322e-05  -2.1397018e-04  -1.6873862e-05   3.5823236e-05  -2.7266835e-04  -8.3676234e-05  -2.4102391e-04  -2.2797298e-04  -2.1062665e-04  -7.4439988e-05  -3.9467341e-04  -3.4905615e-04  -3.6501972e-04  -4.5860669e-04  -1.6335960e-04  -2.4571380e-04  -4.3942724e-04  -1.7535927e-04  -1.6520670e-04  -4.6674613e-04  -3.1827914e-04  -3.7438524e-04  -5.2859483e-04  -1.7033484e-04  -1.9497100e-04   1.9057044e-04  -2.7646133e-04  -1.5667749e-04   7.6106327e-05  -4.7639347e-04  -5.1975163e-04  -3.2271098e-04  -2.5220923e-04  -3.0175183e-04   7.1384630e-04  -2.6994373e-04  -3.5777359e-04  -6.2291016e-04  -4.1789445e-04  -5.8648468e-04  -3.9614810e-04   3.3364802e-05  -6.6823483e-04  -3.5193231e-04  -7.6537667e-04  -6.7780144e-05  -3.5052968e-04
  -1.6049088e-04   1.8673646e-04  -3.0500148e-04   1.1214843e-04  -1.1569232e-04   7.3733456e-05   8.2031707e-05  -2.1372594e-04  -3.6134039e-05  -1.4562557e-04  -1.1067507e-04  -6.7178749e-05   1.9322179e-06  -3.3334887e-04  -3.0399219e-04  -3.0060392e-04  -4.1409911e-04  -1.3626495e-04  -1.3299778e-04  -3.4107396e-04  -1.2784214e-04  -1.1628986e-04  -4.1073459e-04  -2.4446641e-04  -2.2638311e-04  -4.6537622e-04  -2.0726786e-04  -3.5595382e-04   1.5066465e-04  -2.9259248e-04  -1.8459298e-04   1.0018252e-04  -4.8331948e-04  -5.8606628e-04  -3.7382025e-04  -3.7692959e-04  -1.3612279e-04   6.6612847e-04  -3.8460299e-04  -3.4556250e-04  -7.4570091e-04  -4.1073433e-04  -4.8341724e-04  -6.6609401e-04  -2.0981861e-04  -9.0089993e-04  -3.3096323e-04  -8.5752207e-04  -1.9229505e-04  -5.6056521e-04
  -2.8771616e-04  -1.4211006e-05  -3.7300418e-04  -6.3248706e-05  -2.5080712e-04  -1.2880674e-04  -1.6200036e-04  -3.4544774e-04  -3.1949987e-04  -2.8758997e-04  -1.9626471e-04  -1.5363767e-04  -1.3292876e-04  -4.5425899e-04  -3.4422861e-04  -3.9509890e-04  -4.7310258e-04  -1.4432614e-04  -4.9106963e-04  -5.3101429e-04  -3.0026821e-04  -2.5620955e-04  -5.3954095e-04  -3.4842751e-04  -4.0011428e-04  -5.5589498e-04  -3.5782205e-04  -3.0113405e-04   1.5782248e-04  -3.8466553e-04  -2.6089369e-04   9.5604322e-05  -5.2546710e-04  -6.8947574e-04  -5.1614054e-04  -5.0870888e-04  -3.6102458e-04   5.9541344e-04  -4.6615599e-04  -6.7453185e-04  -9.8232215e-04  -6.0691737e-04  -7.4437418e-04  -9.2383259e-04  -5.4691482e-04  -1.0154110e-03  -4.2483606e-04  -9.5060025e-04  -2.7332260e-04  -6.2296930e-04
  -2.6766950e-04   5.8672216e-05  -3.0492558e-04   2.9039589e-05  -1.2863427e-04   2.8565310e-05   3.6363574e-05  -2.8939368e-04   1.0087159e-04  -1.1474708e-04  -9.5335927e-05  -4.2041313e-05   1.2200628e-05  -3.6397722e-04  -2.8573524e-04  -2.9643171e-04  -3.1431954e-04  -8.3392093e-05  -5.7346308e-05  -2.1990803e-04  -3.7828893e-05  -3.0372035e-05  -2.6780405e-04  -1.5009436e-04  -1.9898353e-04  -3.6756773e-04  -1.6007973e-04  -2.1089490e-04   2.2385429e-04  -2.4130721e-04  -9.7462253e-05   1.8208609e-04  -1.7177955e-04  -3.6755783e-04  -2.7825162e-04  -2.3778518e-04  -4.4288437e-05   6.8633724e-04  -1.9272215e-04  -2.5188446e-04  -4.5757549e-04  -2.9370334e-04  -3.4457861e-04  -3.1179099e-04   5.2127620e-05  -6.3658098e-04  -1.7182474e-04  -6.3904829e-04   5.5137403e-05  -2.0165282e-04
   4.8382422e-05   2.9350835e-04  -8.3504339e-05   1.8461460e-04  -1.2491110e-05   1.1889741e-04   1.8136956e-04  -2.0833645e-04   4.4413606e-05  -6.5654722e-06   4.7275575e-05   7.3679774e-05   1.1169777e-04  -2.4560626e-04  -1.3165359e-04  -2.1685865e-04  -2.6265709e-04  -7.5724070e-05  -1.3459721e-04  -1.3061304e-04   6.7237165e-06   9.6465927e-05  -2.7817854e-04  -5.4810422e-05  -1.5425521e-04  -2.7940873e-04  -2.4192620e-04  -2.3678166e-04   1.2118050e-04  -2.2981230e-04  -3.1710410e-05   2.0057379e-04  -2.8512502e-04  -3.2890838e-04  -2.2637752e-04  -2.1717999e-04  -7.6704528e-05   6.4372487e-04  -1.6773981e-04  -2.1323581e-04  -6.2470033e-04  -2.7262370e-04  -3.9444430e-04  -4.8937090e-04  -3.3965429e-05  -5.8901776e-04  -1.5145804e-04  -6.0919218e-04  -1.4161876e-04  -3.8266066e-04
  -7.6749791e-05   9.8506454e-05  -1.6648439e-04   8.9776877e-06  -1.5593186e-04  -6.2525709e-05  -8.8841203e-05  -2.6695014e-04  -1.6916436e-04  -1.6607883e-04  -7.4070245e-05  -1.8901668e-05  -5.3310985e-05  -3.7186546e-04  -2.1966525e-04  -2.9475006e-04  -3.2296558e-04  -6.8143592e-05  -3.3944016e-04  -3.0363695e-04  -1.6898090e-04  -6.9452006e-05  -4.0663130e-04  -1.5247875e-04  -3.4852640e-04  -3.9840239e-04  -1.6283857e-04  -2.1459171e-04   1.5968620e-04  -3.2516062e-04  -9.7588265e-05   1.5163331e-04  -5.4801011e-04  -4.3642428e-04  -4.4739386e-04  -4.3639159e-04  -3.0547529e-04   5.4280012e-04  -4.4110575e-04  -5.9210981e-04  -5.6715467e-04  -4.3480049e-04  -6.1757595e-04  -9.1215974e-04  -2.6526183e-04  -7.0268835e-04  -2.5559246e-04  -7.6704513e-04  -1.8256165e-04  -4.0776256e-04
  -9.0360372e-05   1.6829780e-04  -1.2389511e-04   1.2213751e-04  -3.6068050e-05   7.6295997e-05   1.1643044e-04  -2.6255334e-04   1.1128162e-04   1.0598611e-05   2.8814995e-05   7.7582248e-05   1.0439937e-04  -2.7937163e-04  -1.3203162e-04  -2.3034815e-04  -2.3985215e-04  -6.6014552e-05   5.1114272e-05  -5.4716886e-05   7.5692173e-05   1.5751513e-04  -1.4007428e-04   5.7774061e-05  -1.2317612e-05  -2.1585275e-04  -4.6321140e-05  -1.6746565e-04   1.7381799e-04  -1.8139907e-04   4.5761783e-05   2.7350988e-04  -2.4740872e-04  -7.8518409e-05  -1.5943641e-04  -9.9921061e-05  -2.5947098e-04   6.6696311e-04  -2.6748952e-04  -1.1306602e-04  -2.6240101e-04  -2.2346713e-04  -2.7019400e-04   1.6205973e-05   1.1220424e-04  -5.0315773e-04   2.4820965e-06  -4.6806919e-04   1.2061567e-04  -9.7658245e-05
   1.8365865e-04   3.7803454e-04   5.7020537e-05   2.4636518e-04   9.9527373e-05   1.2289621e-04   1.7761516e-04  -1.0667048e-04   2.4554096e-04   5.2984833e-05   1.4998848e-04   1.7502483e-04   2.0608945e-04  -1.4714271e-04  -1.6638511e-04  -1.3692530e-04  -1.8036315e-04  -7.8440225e-06   3.9118418e-05   2.9130777e-05   9.8522833e-05   2.4099987e-04  -1.0077474e-04   1.4884061e-04  -3.8078255e-05  -1.5151853e-04  -1.2252072e-04  -2.3968646e-04   2.1899711e-04  -1.8538549e-04  -1.1459525e-05   3.6352643e-04  -1.3490494e-04  -6.5414868e-05  -1.6951759e-04  -1.6055843e-04  -1.4824510e-04   7.0291769e-04  -3.1431689e-04  -1.2586868e-04  -2.4144256e-05  -1.8913443e-04  -2.0896406e-04  -3.4304315e-04   9.3452123e-05  -5.9026910e-04  -3.3832614e-05  -4.5654250e-04  -8.6553373e-05  -2.2918903e-04
   7.4234442e-05   1.8450165e-04  -4.0258066e-05   9.5042189e-05  -5.4065000e-05  -2.1522390e-05  -7.1370399e-05  -2.6334301e-04   3.7521600e-05  -1.0981045e-04   2.6878666e-05   4.6074463e-05   9.2320442e-05  -3.0320243e-04  -2.1574760e-04  -2.0760426e-04  -2.3860387e-04   1.9691259e-05  -8.8210480e-05  -1.7338413e-04  -8.9240770e-05   6.8217778e-05  -3.3603414e-04  -6.0305105e-05  -2.4378834e-04  -3.1925744e-04  -1.1533091e-04  -2.0335538e-04   1.6990800e-04  -2.6901354e-04  -7.1003997e-05   3.3685871e-04  -4.3781559e-04  -3.6340550e-04  -4.1611455e-04  -3.7679487e-04  -3.4964748e-04   7.0112117e-04  -2.7135675e-04  -3.6289246e-04  -6.5778074e-04  -2.9503106e-04  -3.6256816e-04  -6.2627974e-04   2.7493237e-05  -6.3579949e-04  -6.4223073e-05  -4.7633561e-04   7.5210184e-05  -2.4652819e-04
   1.7127350e-04   3.5752921e-04   4.7501526e-05   2.7511545e-04   1.1850417e-04   1.6088417e-04   2.3791174e-04  -4.9692251e-05   2.5451524e-04   6.6809240e-05   1.8215289e-04   1.7007832e-04   2.5048744e-04  -1.9608607e-04  -7.6947901e-05  -1.0987712e-04  -1.7336680e-04   4.2617328e-05   2.8864076e-04   1.1881580e-04   1.8394666e-04   2.9195490e-04  -2.4674096e-06   1.9092453e-04   2.1145462e-04  -1.0628602e-04  -8.1262835e-05  -1.4481875e-04   3.3052568e-04  -1.1555514e-04   1.1928951e-04   4.7234283e-04   5.2136613e-05   5.2088744e-05  -6.3504544e-05   5.2255211e-05   1.6460576e-04   7.8398717e-04  -5.8761496e-05   7.7413948e-05  -1.4375956e-04  -7.9684607e-05  -9.5350166e-05  -1.3997790e-04   4.4377171e-04  -3.3295157e-04   1.2297074e-04  -2.7409240e-04   2.8052405e-04   5.0137285e-05
   3.6275559e-04   4.5990013e-04   1.8520195e-04   3.6438811e-04   2.1054046e-04   2.3822338e-04   3.1648297e-04  -3.6589488e-05   2.5382775e-04   9.0279551e-05   2.6881712e-04   2.2526813e-04   3.2878265e-04  -7.8731020e-05  -6.4144588e-05  -4.8331825e-05  -1.3217020e-04   7.3880772e-05   2.2465014e-04   1.2547371e-04   1.4296420e-04   2.9302298e-04  -3.5024026e-05   2.0221461e-04   7.5974014e-05  -7.8225108e-05   7.7088684e-05  -1.1206852e-04   3.2748783e-04  -1.4164961e-04   1.1358070e-04   5.7154062e-04  -1.1895651e-04  -9.9969169e-05  -1.3273893e-04   4.1124968e-05  -1.1661298e-04   7.8933616e-04  -8.9851121e-05  -7.5599499e-05  -4.6558102e-04  -8.9342109e-05  -2.0704608e-04  -2.7995149e-04   2.0240482e-04  -3.1796907e-04   7.4997530e-05  -3.7611328e-04  -1.0953954e-05  -1.1675614e-04
   1.7877563e-04   2.0068239e-04   3.2522592e-05   1.6350871e-04   4.4820961e-05  -1.9025409e-05   3.5880701e-05  -1.2700017e-04   3.1249059e-05  -1.1667336e-04   1.0600368e-04   6.2977990e-05   1.5834848e-04  -1.8721703e-04  -1.1010724e-04  -1.3555134e-04  -2.5526271e-04   2.4267141e-05   5.3133474e-05  -1.0633025e-04  -6.6588764e-05   8.6499793e-05  -1.9723433e-04   3.8691443e-05   2.0878766e-05  -2.4419988e-04  -1.3201045e-04  -7.7464365e-06   3.1905167e-04  -2.4917099e-04  -5.6511246e-05   4.1724276e-04  -2.5334221e-04  -2.7772630e-04  -3.3529644e-04  -3.0879374e-04  -1.2274270e-04   6.9696951e-04  -2.3063087e-04  -2.9989332e-04  -6.7774410e-04  -2.8153905e-04  -3.2130687e-04  -8.8784547e-04  -1.1271225e-04  -6.0741144e-04  -1.1240799e-04  -6.1401288e-04  -3.3840485e-04  -4.6659599e-04
  -1.4044982e-04  -1.0898136e-04  -1.4996402e-04  -1.1601699e-06  -4.5889286e-05  -1.3576351e-07   5.5163651e-05  -1.5802524e-04   1.0322033e-04  -9.7022683e-05   7.3452509e-05   3.6677789e-05   1.6638899e-04  -1.8767848e-04  -1.2179772e-04  -1.2902045e-04  -2.1037982e-04  -3.4173256e-05   1.8275215e-04   3.8816986e-05   1.0883445e-04   1.9779285e-04  -9.2786599e-05   1.4206731e-04   8.0711516e-06  -1.6360206e-04   2.0503410e-05   6.5012020e-05   3.3173323e-04  -9.9913355e-05   8.3029961e-05   3.8638659e-04  -8.6849162e-05  -4.9054182e-05  -5.0947809e-05   6.5214517e-05   2.5791620e-05   7.1886479e-04   1.7207059e-05   6.8650821e-05  -2.2121500e-04  -6.4825399e-05   1.3059362e-04  -1.4725464e-04   4.4705247e-04  -3.7207568e-04   1.0807726e-04  -2.3081510e-04   2.9038271e-04   1.2790853e-04
   4.2069019e-04   5.1337376e-04   2.0816248e-04   4.1856852e-04   2.7734111e-04   2.9587274e-04   3.5449443e-04   1.4017550e-04   2.9131872e-04   5.9332691e-05   2.8432332e-04   1.9329549e-04   3.2985117e-04  -8.4334160e-06  -2.3232909e-05  -1.3736164e-05  -1.5871481e-04  -5.8336609e-06   2.8679450e-04   1.2826933e-04   1.9201887e-04   3.2719169e-04   1.3723466e-04   2.5150340e-04   1.3924287e-04  -9.3826617e-05   8.7018714e-05   1.0468577e-04   3.3640733e-04  -3.4143530e-05   5.6686360e-05   3.5281121e-04  -1.2231563e-04   5.8733975e-05  -1.4038615e-04   1.2520506e-04   8.1513303e-05   6.5300753e-04  -1.8136951e-04  -1.1754102e-04  -2.2488252e-04  -1.0850609e-04  -9.3375005e-05  -1.7281690e-04   3.7334411e-04  -2.0846108e-04   7.6026779e-05  -1.9106208e-04   7.7192541e-05  -9.1298170e-05
   2.8276187e-04   3.3480881e-04   1.3345870e-04   2.5939164e-04   1.3892699e-04   8.3562983e-05   1.8217803e-04  -5.8776150e-05   1.3510798e-04  -9.7468110e-05   1.7464961e-04   7.2420829e-05   2.3635141e-04  -8.2774917e-05   9.2728023e-06  -9.1061702e-05  -2.1903111e-04  -2.6150628e-05   1.8423729e-04  -4.4206572e-05   1.6081889e-05   1.8567382e-04  -6.7470275e-05   1.1653620e-04  -1.3986086e-05  -2.1781650e-04   3.9866420e-05   7.0999668e-05   3.2960632e-04  -1.1257693e-04  -7.1786621e-06   3.9231096e-04  -1.6456371e-04  -4.7221554e-05  -2.1728614e-04  -4.3413034e-05   8.7891988e-07   5.7724083e-04  -2.4312704e-04  -2.2399474e-04  -2.2166387e-04  -2.5711631e-04  -2.7334059e-04  -4.8809341e-04   4.7345693e-05  -4.6734224e-04  -9.5965690e-05  -4.7435163e-04  -3.0904272e-04  -3.9221134e-04
  -1.0066555e-04  -7.6471762e-05  -1.5384611e-04  -6.0100538e-05  -1.1757448e-04  -2.0868173e-04  -1.1645119e-04  -1.9404734e-04  -1.6869564e-04  -3.4783335e-04  -9.1727001e-05  -1.7711322e-04  -4.8575052e-06  -2.8190343e-04  -1.7036253e-04  -2.3699517e-04  -3.3845959e-04  -4.8526843e-05  -1.8187585e-04  -3.2720715e-04  -2.3201956e-04  -4.9539336e-05  -3.7755794e-04  -1.7293703e-04  -2.1450863e-04  -3.8234546e-04  -1.3661952e-04   1.5900184e-04   2.7198487e-04  -2.3848367e-04  -1.3825837e-04   2.3558483e-04  -3.3964368e-04  -4.3050828e-04  -3.3149982e-04  -3.7662304e-04  -6.6733657e-05   5.6246133e-04  -3.0183993e-04  -3.0016422e-04  -4.5260086e-04  -3.2386318e-04  -1.9880760e-04  -2.4279235e-04   2.4385303e-05  -5.3031277e-04  -1.4205111e-04  -4.3883064e-04   6.9977832e-05  -1.2557639e-04
   1.4599014e-04   3.4182530e-04   3.1653253e-05   2.6712063e-04   1.5734747e-04   1.7939413e-04   2.8637316e-04   3.6726960e-05   1.7919253e-04  -6.0913790e-05   1.2591221e-04  -5.0594676e-06   2.3872800e-04  -8.2738974e-05   3.6799818e-05  -7.8250967e-05  -1.2943427e-04  -1.1625303e-05   2.6717037e-04   4.5476587e-05   1.3051360e-04   2.1603555e-04   2.3455303e-05   6.3442945e-05  -2.3031708e-04  -1.7418734e-04   6.5556887e-05   3.1270858e-04   2.8868252e-04  -9.2301852e-06   6.7021159e-05   3.4459209e-04  -3.6748266e-04  -5.0511517e-05  -1.1445604e-04   3.3811888e-05   1.0646581e-04   6.1754556e-04  -7.3859803e-05   1.9061765e-05  -5.6852296e-04  -2.2148850e-04  -2.0766350e-04  -4.9559667e-04   1.5870556e-04  -2.1887932e-04  -4.7701793e-05  -2.9797546e-04  -1.7905975e-05  -1.3484428e-05
   2.4507180e-04   3.6174865e-04   1.0387659e-04   2.9367796e-04   1.7215074e-04   2.0343970e-04   2.7115273e-04   6.4441811e-05   1.0821482e-04  -1.0245242e-04   1.1677595e-04  -1.4692922e-05   2.4555242e-04  -7.2897172e-05   8.1854450e-05  -6.8734822e-05  -1.0383992e-04   5.7554356e-05   3.1337069e-04  -9.9715016e-06   4.1675692e-05   1.9769074e-04  -5.1799616e-05   2.0231957e-05  -7.3967996e-05  -1.7395156e-04   4.1059568e-05   2.0924567e-04   2.6761365e-04  -6.1121435e-05   3.1595442e-05   3.2080361e-04  -3.2451024e-04  -9.4160321e-05  -1.3133431e-04  -1.1168027e-04   3.6496844e-05   5.8036397e-04  -2.6143703e-04  -2.6222793e-04  -4.1944103e-04  -2.7893423e-04  -2.0522442e-04  -3.4660404e-04  -8.7125605e-05  -4.5081426e-04  -1.8085456e-04  -3.9859622e-04  -3.0040418e-04  -2.6533700e-04
  -2.1012007e-05   4.7875426e-05  -1.0078555e-04   9.4404577e-06  -4.0552146e-05  -9.3682975e-05  -7.3024501e-05  -1.2631404e-04  -1.2738864e-04  -3.3100852e-04  -7.0518508e-05  -1.9929690e-04   1.3239337e-05  -2.4589608e-04  -7.7142482e-05  -1.9190407e-04  -2.3219379e-04   5.1985175e-05  -1.2323225e-04  -2.7248808e-04  -1.7772839e-04  -6.3944863e-05  -3.0844632e-04  -1.7813113e-04  -1.2891214e-04  -3.9190910e-04  -1.0318313e-04   1.8812840e-04   2.3196955e-04  -1.9974084e-04  -1.1473279e-04   2.4164176e-04  -4.0150867e-04  -3.6082455e-04  -3.9470519e-04  -4.1153032e-04  -7.0899572e-05   5.3437846e-04  -4.5576892e-04  -4.7594169e-04  -9.3539292e-04  -5.2055402e-04  -4.4771517e-04  -5.8710930e-04  -4.0677318e-04  -8.7966118e-04  -2.8895668e-04  -6.0703454e-04  -2.9098926e-04  -2.9671093e-04
  -2.1645574e-05   1.5010746e-04  -8.5600725e-05   1.6351980e-04   8.7867789e-05   1.1332412e-04   1.5067552e-04  -3.5861845e-05   1.7871894e-04  -1.8809464e-04   1.9334375e-05  -1.3651473e-04   1.5310491e-04  -1.5350456e-04  -7.2231887e-05  -1.4858494e-04  -1.7482397e-04   1.9556495e-05   2.3216300e-04  -7.8451863e-05   3.9380648e-05   7.0837355e-05  -1.7084093e-04  -3.6249861e-05  -1.0247031e-04  -2.5188687e-04   3.5510100e-05   1.5921562e-04   2.1191545e-04  -6.4676176e-05  -7.2097723e-06   3.0755129e-04  -1.8606627e-04  -6.4938013e-06  -1.7001390e-04  -1.4569149e-05   3.7474183e-05   6.2113808e-04   1.3565892e-04  -1.1832355e-04  -2.6952158e-04  -2.8761153e-04  -2.2564134e-04  -3.7122733e-04   3.6398458e-05  -3.4501764e-04  -1.5223435e-04  -3.7098906e-04  -1.3793961e-04  -2.5418671e-04
   1.2819759e-04   2.8625934e-04  -1.2759733e-06   2.3662846e-04   1.5093398e-04   1.8356346e-04   2.1039305e-04   3.6229521e-05   9.1724876e-05  -1.7359182e-04   5.9829501e-05  -7.6997494e-05   1.6723214e-04  -1.2645806e-04  -2.2205038e-06  -1.2619773e-04  -1.7778622e-04  -1.1146631e-05   3.3339259e-04  -9.6234362e-05   3.5638124e-05   9.2638147e-05  -1.2331131e-04  -1.2138346e-05  -1.2518496e-04  -2.8116908e-04   3.8514587e-05   1.8453707e-04   2.0057854e-04  -9.3537812e-05  -1.9834803e-05   2.2469946e-04  -3.1192927e-04  -1.9678503e-04  -2.3439228e-04  -1.4168878e-04  -9.8743461e-05   5.6729978e-04  -2.4098876e-05  -1.4866218e-04  -4.6680801e-04  -3.8831765e-04  -3.0424452e-04  -5.6029001e-04  -1.6010774e-04  -4.8967835e-04  -2.0507240e-04  -5.0895836e-04  -3.3128160e-04  -3.8712111e-04
  -7.8251076e-05   4.7135902e-05  -1.5997578e-04   3.3628250e-05  -3.5927238e-05  -9.9762336e-05  -2.1673748e-05  -1.3057004e-04  -1.8927403e-04  -3.6171882e-04  -1.0936781e-04  -2.3057190e-04   2.7373393e-05  -2.5188539e-04  -1.4260577e-04  -2.2494202e-04  -3.3518052e-04  -3.1825053e-05  -9.2148854e-05  -3.3922333e-04  -1.6317828e-04  -1.2977443e-04  -2.8038752e-04  -1.8072092e-04  -2.3749344e-04  -4.0060023e-04  -1.3085749e-04   1.7103287e-04   2.0232351e-04  -2.2265443e-04  -1.7610581e-04   2.3677567e-04  -5.2144018e-04  -4.1134312e-04  -4.4717759e-04  -3.8421820e-04  -1.5100345e-04   5.7854899e-04  -3.2024924e-04  -4.1438109e-04  -6.4014649e-04  -4.6806812e-04  -4.9712305e-04  -6.3311891e-04  -2.3225512e-04  -9.0425677e-04  -2.2414653e-04  -5.6822604e-04  -1.7941160e-04  -2.7119162e-04
   5.6938876e-05   2.6273160e-04  -6.2757696e-05   2.6145935e-04   1.3580805e-04   1.5092251e-04   3.0920745e-04   4.8448506e-05   1.3934460e-04  -1.5592951e-04   7.6385339e-05  -7.2957635e-05   2.2251769e-04  -1.2744876e-04  -9.6649810e-06  -1.3392797e-04  -2.3364861e-04  -1.7349475e-05   2.7285263e-04  -5.3156684e-05   1.3444817e-04   1.1364908e-04  -7.1935530e-05   2.8687797e-05   6.3798136e-05  -2.3676462e-04   9.4985255e-05   2.3526934e-04   2.9317301e-04  -5.3892407e-05  -2.5121653e-05   3.0436245e-04  -3.5143158e-04  -1.7225959e-04  -7.3234987e-05   4.2088377e-05   1.3133542e-04   7.0171116e-04  -5.0774546e-05   1.0390570e-04  -4.8065087e-04  -2.7107701e-04  -2.5764504e-04  -4.5205877e-04   5.5980428e-05  -4.9633783e-04  -2.7678336e-05  -3.6683067e-04   9.1960546e-06  -1.9328910e-04
   2.1620767e-04   3.6829896e-04   4.6131081e-05   3.4007180e-04   2.2390229e-04   1.9160952e-04   3.2003535e-04   1.4761514e-04   1.6036093e-04  -1.1046767e-04   1.3680446e-04   2.1445760e-05   2.9734627e-04  -6.3710948e-05   2.5994672e-05  -8.6934167e-05  -2.1671207e-04   2.9379728e-06   3.1951140e-04  -6.7965200e-05   1.2619664e-04   5.6982026e-05  -2.8166845e-05   6.8786474e-05  -7.4801450e-05  -2.1064932e-04   6.6130851e-05   2.2038494e-04   3.3448098e-04  -9.6413278e-05  -1.7966418e-05   3.8807705e-04  -8.0651698e-05  -2.6307467e-04  -1.8550552e-04  -7.6399236e-05  -9.4029339e-05   6.8041723e-04  -7.8516598e-05  -9.6002310e-05  -6.0391647e-04  -2.3931047e-04  -2.0928514e-04  -6.0476887e-04   3.9982697e-05  -6.0573203e-04  -1.1385835e-04  -3.6345745e-04  -1.6087787e-04  -3.4066665e-04
   3.7195383e-05   1.2230995e-04  -1.0972439e-04   1.2938387e-04   4.5394427e-05  -1.4196247e-05   7.3087569e-05  -1.1564761e-04  -4.5491182e-05  -2.9549692e-04  -2.0638478e-05  -1.1599183e-04   1.1296606e-04  -1.9913688e-04  -1.1081919e-04  -1.9382293e-04  -3.6899725e-04  -4.6463236e-05   1.3234308e-04  -2.9334042e-04  -8.1190075e-05  -7.1371986e-05  -2.6398100e-04  -1.9583231e-05  -1.7653854e-04  -3.2775872e-04  -1.2725154e-04   2.5665597e-04   2.5821329e-04  -2.0532247e-04  -7.5432275e-05   2.9758186e-04  -3.9419261e-04  -4.6061084e-04  -4.0948496e-04  -4.2549896e-04  -9.4115196e-05   6.5817067e-04  -1.7890691e-04  -2.5499068e-04  -6.8998162e-04  -2.5938303e-04  -3.2730179e-04  -7.9344376e-04   8.7802764e-05  -5.5245473e-04  -7.4953750e-05  -3.7081933e-04   1.0908226e-04  -2.6406709e-04
   2.0152717e-04   3.9866249e-04   3.8622231e-05   4.0563653e-04   2.7541016e-04   3.5140236e-04   4.2193450e-04   1.0702672e-04   3.0226106e-04  -1.0717002e-05   2.1753956e-04   1.0229344e-04   3.1529611e-04   7.5048933e-06   2.8498269e-05  -3.8394071e-05  -2.4896467e-04  -2.6950638e-05   3.8091920e-04   6.2893159e-05   2.6976757e-04   2.1425495e-04   8.1764694e-05   2.1720915e-04   1.8152481e-04  -1.2969717e-04   7.0236529e-05   2.1338633e-04   3.9781656e-04  -1.5965050e-05   1.7181388e-05   4.1315964e-04  -4.1446227e-05  -1.1071112e-04  -2.0744712e-05   6.7993278e-05   2.9560902e-05   7.7852333e-04   6.3728869e-05   2.1631044e-04  -4.1603457e-04  -9.1840695e-05   1.5504995e-05  -1.5877964e-04   3.3934051e-04  -2.6038842e-04   9.7949829e-05  -1.1579973e-04   2.5487476e-04  -7.4437870e-05
   3.8292474e-04   4.7628384e-04   1.5857439e-04   4.6249179e-04   3.4564044e-04   2.8852315e-04   4.7451569e-04   1.4547608e-04   3.1180898e-04   1.1857852e-05   2.7176278e-04   1.8525744e-04   3.9375800e-04   1.4547806e-05   1.1196239e-04  -2.0897838e-05  -1.9889428e-04  -7.6490005e-06   3.4422276e-04   4.9650906e-05   2.4782206e-04   2.6278815e-04   8.1593367e-05   2.1963679e-04   9.9345139e-05  -9.9786157e-05   8.9957670e-05   1.6274888e-04   3.2046757e-04  -6.3703075e-05   5.6012097e-05   4.1420403e-04  -8.7438471e-05  -8.3885854e-05  -6.5106782e-05  -1.7248327e-05   6.2734805e-05   7.2143064e-04   1.9572735e-05  -1.0799824e-05  -2.4604317e-04  -1.1611873e-04  -2.2751752e-04  -5.5386988e-04   1.7471811e-04  -3.6109303e-04   4.4347227e-05  -2.6073158e-04  -2.6188136e-06  -2.0429901e-04
   1.4043719e-04   2.0800656e-04  -1.4511248e-05   2.2906359e-04   1.5505766e-04   6.8673122e-05   1.2590286e-04  -1.8488954e-05   5.7834844e-05  -1.7497539e-04   9.7800577e-05   1.5404252e-05   1.8745869e-04  -1.0183197e-04  -2.2001437e-05  -1.2294164e-04  -3.2209945e-04  -2.2513288e-05   5.4132448e-05  -1.9534682e-04   2.8281165e-05   4.8615839e-05  -1.0110271e-04   9.6208874e-05  -1.0113049e-04  -2.8696665e-04  -5.8156813e-05   2.8169746e-04   3.3601606e-04  -1.7166160e-04  -5.7375088e-05   3.3383616e-04  -3.8574915e-04  -3.8006355e-04  -2.9239355e-04  -2.1947915e-04   3.2586788e-05   7.0772925e-04  -2.5568597e-04  -2.7398532e-04  -5.3265062e-04  -2.6816188e-04  -1.0714644e-04  -4.5672560e-04   2.7263019e-04  -5.8395852e-04   3.8428075e-06  -2.8467426e-04   1.8817456e-04  -9.7751457e-05
   2.9783408e-04   4.4833336e-04   1.1579583e-04   4.4093945e-04   3.4061616e-04   3.2019752e-04   4.5835233e-04   9.3897164e-05   3.2684096e-04   8.4715233e-05   2.5684320e-04   1.8824456e-04   4.2306739e-04   5.0112791e-05   7.5698925e-05   1.6053345e-06  -1.5888466e-04   3.2320062e-05   5.5232516e-04   1.2589571e-04   3.6190069e-04   2.5112907e-04   1.6622253e-04   3.5064007e-04   7.9713107e-05  -4.3380456e-05   1.7429062e-04   2.2473250e-04   4.1830869e-04   1.4597077e-05   2.1150039e-04   4.9437786e-04  -6.6406828e-05   3.4852896e-05  -9.4280040e-06   1.8167321e-04   1.6457128e-04   7.5483182e-04   4.6253026e-05   9.9350458e-05  -3.0315897e-04  -9.0945368e-06  -1.1601643e-04  -2.8543556e-04   3.3863343e-04  -8.9550565e-05   1.6823846e-04  -2.9116633e-05   3.6981056e-04   1.3668882e-04
   4.6766928e-04   5.3803966e-04   2.4096754e-04   5.0679804e-04   3.9617697e-04   4.0529299e-04   4.8244302e-04   2.3763342e-04   4.4155540e-04   1.2096966e-04   3.3726852e-04   2.5591609e-04   4.2591162e-04   1.0323100e-04   1.6592865e-04   5.3702272e-05  -8.5657863e-05   7.5844488e-05   4.1118282e-04   1.4700895e-04   3.4334551e-04   3.1868485e-04   1.7892601e-04   3.4419927e-04   2.3496960e-04  -5.9974730e-07   1.6661460e-04   1.3733191e-04   3.3473709e-04  -5.8191299e-06   1.5892072e-04   5.0124474e-04   1.0454853e-04  -2.0201311e-05   2.6075450e-06   1.0982145e-04   1.0266305e-04   6.9860858e-04  -1.1914658e-04   1.2068197e-04  -2.4678727e-04  -7.7748475e-05   7.2596347e-05  -3.7372581e-04   1.7876484e-04  -3.0179715e-04   8.5976761e-05  -1.2609056e-04   5.7675166e-05  -3.5346049e-05
   2.4271668e-04   2.8693044e-04   9.0818132e-05   2.7401475e-04   1.9332844e-04   1.4174086e-04   1.7398954e-04   2.5305750e-05   9.4007941e-05  -8.4657098e-05   1.6758061e-04   9.3135415e-05   2.6293116e-04  -7.7421419e-06   1.3770944e-05  -6.3157881e-05  -1.8578621e-04   5.1354775e-05   2.0666368e-04  -7.7228826e-05   1.3269637e-04   1.0349597e-04  -4.9443330e-05   1.7557522e-04   8.1810940e-05  -1.5332080e-04   4.5898472e-05   1.3455065e-04   3.0701002e-04  -1.1182625e-04  -2.1988091e-05   4.0001774e-04  -3.0263991e-04  -1.8613735e-04  -1.9772179e-04  -1.4483162e-04   1.7110910e-05   5.9958844e-04  -3.3528566e-05  -2.6679164e-04  -2.9600732e-04  -2.2951700e-04  -1.4389738e-04  -2.9985679e-04   1.2968174e-04  -5.2991771e-04  -3.3592728e-06  -2.2771988e-04   1.5563796e-04  -7.5563571e-06
   3.2831501e-04   4.3698688e-04   1.5189438e-04   4.0517777e-04   3.1815120e-04   4.1808176e-04   4.3996592e-04   1.6776675e-04   4.5008896e-04   1.1201949e-04   2.6632060e-04   1.9174472e-04   3.9283768e-04   4.5189532e-05   1.1924883e-04   2.1017559e-05  -1.1213715e-04   3.7807265e-05   4.3617829e-04   1.6219255e-04   3.8450913e-04   2.8051983e-04   1.8847518e-04   3.3351805e-04   1.0950806e-04   4.5212728e-05   2.1998688e-04   2.6178651e-04   3.6244665e-04   4.9187060e-05   2.2122335e-04   4.6795007e-04   1.5618943e-04   1.0724490e-04   6.4176282e-05   2.9584210e-04   7.5365337e-05   6.7206740e-04   1.3598216e-04   2.8106471e-04   1.9385142e-04  -3.3120610e-05   1.1005161e-04  -1.0712966e-04   3.8744762e-04   2.7629605e-06   1.6034857e-04   1.1686405e-04   2.9523397e-04   1.6861573e-04
   5.0231552e-04   5.4395036e-04   2.4576572e-04   4.8533268e-04   3.8250108e-04   4.2337703e-04   4.5136336e-04   3.0710481e-04   3.5205079e-04   1.4040201e-04   3.3940529e-04   2.5169150e-04   5.1264762e-04   1.2389792e-04   1.3443422e-04   5.4536591e-05  -7.7449316e-05   5.6671433e-05   5.3108495e-04   1.6459585e-04   3.5621572e-04   3.1326484e-04   2.1638740e-04   4.0058771e-04   2.0461493e-04   4.2965297e-05   1.9681061e-04   2.5087161e-04   3.0404085e-04   2.7302714e-05   1.6308660e-04   4.4450085e-04  -1.2465875e-05   7.5488366e-05  -2.6211830e-05   7.6687676e-05   1.1946855e-04   6.2217721e-04  -2.9722731e-05   2.1763524e-04  -1.3021518e-04  -9.1144961e-05   5.4533211e-05  -1.0417178e-04   3.9977464e-04  -1.3664718e-04   7.1860195e-05  -3.7382375e-05   1.2346273e-04  -2.0859256e-05
   3.2557940e-04   3.2058067e-04   1.0125484e-04   2.7408410e-04   2.0511917e-04   1.7299858e-04   2.1922769e-04   7.7577730e-05   2.3300840e-04  -5.4296685e-05   1.7687840e-04   9.5717543e-05   2.8016363e-04  -1.2431823e-05   1.3901878e-05  -4.0680454e-05  -2.0845115e-04   3.9954146e-05   2.5168041e-04  -6.5179178e-05   1.5187635e-04   1.2595508e-04  -3.4453426e-06   2.3156605e-04   4.0580824e-05  -1.2769348e-04   1.8208360e-05   2.2102537e-04   2.4349887e-04  -7.9344936e-05  -2.5027057e-05   3.0213472e-04  -3.3421276e-04  -1.2587415e-04  -2.0626931e-04  -1.3087109e-04   6.2238585e-05   5.8817485e-04  -8.4752406e-05   2.2308048e-05  -1.0643621e-04  -1.7676252e-04   1.1450136e-06  -2.5413139e-04   1.8770600e-04  -5.2679410e-05   7.4386742e-05  -5.1602114e-05   3.2164814e-04   7.2779927e-05
   4.1099577e-04   5.3470250e-04   1.9473248e-04   4.8595131e-04   3.8037953e-04   4.7448638e-04   5.0707941e-04   2.5002274e-04   4.1221920e-04   1.6026894e-04   3.2863452e-04   2.2768573e-04   4.6030970e-04   1.1368944e-04   1.4631385e-04   7.3454867e-05  -1.0830936e-04   2.7565651e-05   5.4048980e-04   1.9007358e-04   4.2416033e-04   3.4609807e-04   2.3801481e-04   4.1671714e-04   2.4014497e-04   5.8295474e-05   2.1020093e-04   2.5610355e-04   4.0056376e-04   1.0593360e-04   2.2464577e-04   5.3147139e-04   8.7802509e-05   2.0190314e-04   2.9939780e-05   1.9276343e-04   2.6495595e-04   6.7399221e-04   1.3297964e-04   3.3137217e-04  -4.2208339e-04   7.7435025e-06   1.8065448e-04  -3.2891519e-04   4.3633385e-04  -6.7814733e-05   1.8234203e-04   1.7553756e-04   3.4548569e-04   2.3674601e-04
   5.2938150e-04   5.7438493e-04   2.7487805e-04   4.9010705e-04   4.2433862e-04   4.1465228e-04   4.8371105e-04   3.4906116e-04   4.0629518e-04   1.3621280e-04   3.4549201e-04   2.4743506e-04   4.6460301e-04   2.1615067e-04   1.2216497e-04   7.4752039e-05  -7.1789138e-05   8.6781845e-05   4.0047881e-04   1.6587411e-04   3.4759974e-04   2.8540401e-04   2.6724883e-04   3.9517987e-04   2.0913372e-04   5.8555768e-05   1.2385672e-04   3.4368352e-04   4.5462881e-04   6.9783324e-05   1.9603196e-04   5.2755303e-04   1.3005643e-04   1.2911855e-04   5.8888727e-06   1.7270536e-04   2.3780158e-04   7.3053071e-04   1.5230154e-04   1.7538801e-04  -4.0747694e-04  -4.1720883e-05   1.1031271e-04  -2.4136236e-04   3.8672166e-04  -9.3152121e-05   9.5504322e-05   4.3382923e-05   8.5536863e-05   8.3550338e-05
   2.8987593e-04   2.8442085e-04   7.8622274e-05   2.5141239e-04   2.0542082e-04   2.0019394e-04   1.8492529e-04   1.2369445e-04   2.9397482e-04  -8.1056707e-05   1.7043392e-04   5.9767070e-05   2.7739006e-04   2.1313588e-05   2.8910874e-05  -5.6836227e-05  -1.9737445e-04   7.2244111e-05   7.9398407e-05  -8.4357271e-05   9.2025861e-05   7.1483206e-05   5.4401396e-05   2.0846605e-04  -7.8827536e-05  -1.9001716e-04   5.7314806e-05   2.7803806e-04   3.1988890e-04  -5.4136552e-05   1.8935400e-05   3.2849464e-04  -6.8910551e-05  -1.6896467e-04  -1.4192812e-04  -3.2313554e-05   1.7168876e-04   6.5648474e-04   9.4206428e-07  -1.8899985e-04  -4.3272614e-04  -1.2409854e-04  -7.0846007e-05  -5.6424044e-04   1.0994956e-04  -3.1391450e-04  -7.9686979e-06  -3.3508306e-05   2.3570526e-04   1.1339013e-05
   3.5765886e-04   4.7790137e-04   1.4792367e-04   4.4827897e-04   3.7710011e-04   3.9181049e-04   5.3767423e-04   2.7385406e-04   3.6637404e-04   1.3587235e-04   3.0350970e-04   1.8706135e-04   4.3424612e-04   1.1921959e-04   1.9177848e-04   6.1799990e-05  -8.9069203e-05   6.1596460e-05   5.7112228e-04   1.9176329e-04   3.6954708e-04   2.7304707e-04   2.7729917e-04   4.2189506e-04   3.3859670e-04   3.2573611e-05   1.1141612e-04   5.0240726e-04   4.7220103e-04   1.2962239e-04   2.4669364e-04   5.3178309e-04   7.6585282e-05   1.6823603e-04   1.8649205e-04   2.4569454e-04   3.1835373e-04   7.3452160e-04   2.0444496e-04   3.9327645e-04  -2.2878368e-05   2.9782694e-05   2.6570028e-04   1.8273968e-04   5.1130372e-04  -2.6216867e-04   1.9656520e-04   2.0396811e-04   4.0557963e-04   2.3970206e-04
   5.8345631e-04   6.0998328e-04   2.9706678e-04   5.3010992e-04   4.4357788e-04   5.0648162e-04   5.7823781e-04   3.5325732e-04   4.7358169e-04   1.8137229e-04   3.8705632e-04   2.5164644e-04   5.3346186e-04   2.3381342e-04   2.0478811e-04   1.2271854e-04  -3.9299248e-05   1.2489257e-04   4.8704076e-04   2.0596794e-04   3.4105658e-04   3.0816521e-04   3.3679459e-04   4.3444851e-04   2.1518725e-04   5.0114922e-05   2.9706408e-04   4.1615759e-04   4.8952765e-04   1.3219469e-04   2.1671754e-04   6.4617483e-04  -1.3690964e-04   1.1639294e-04   3.3298311e-05   2.4088410e-04   3.6415792e-04   7.2584022e-04   1.3906683e-04   2.1881667e-04   1.5500360e-04  -1.6839494e-05   2.6865696e-04  -4.2530344e-04   3.9519483e-04  -9.5240423e-05   9.6258096e-05   1.1410453e-04   1.4449895e-04   2.9908526e-05
   3.8112854e-04   3.5137226e-04   1.3920697e-04   2.8652619e-04   2.5295059e-04   2.8430449e-04   2.6750058e-04   2.4103966e-04   3.1657994e-04  -3.6467038e-05   1.8549440e-04   7.0621492e-05   3.5351605e-04   1.0078184e-04   6.4422908e-05   8.5424625e-07  -1.3067809e-04   1.0940465e-04   3.9039290e-04  -3.8516475e-05   9.2518480e-05   5.4995620e-05   9.0635585e-05   2.3387630e-04   8.5917316e-05  -1.4194385e-04   1.6115670e-04   3.6572269e-04   4.3911376e-04   1.7863282e-05   1.4909597e-04   4.4014247e-04  -1.8826747e-04  -8.2185674e-05  -1.6577223e-04  -4.5237328e-05   2.3112839e-04   6.3811050e-04  -1.3862914e-04  -1.1291781e-04  -4.5710060e-04  -2.8049172e-04  -1.0414571e-04  -6.4289122e-04   3.7169881e-05  -4.6237008e-04  -1.2088933e-04  -2.8060426e-04  -2.9512797e-04  -2.6344796e-04
  -4.2229745e-05  -9.4056231e-05  -1.7841342e-04  -8.0329191e-05  -6.0468254e-05  -1.5557370e-04  -9.3669070e-05  -4.9124170e-05  -2.6083342e-04  -3.1092248e-04  -1.1819960e-04  -1.9962108e-04   9.2167538e-05  -2.1311163e-04  -9.5138865e-05  -1.8272169e-04  -2.7346634e-04   4.8977658e-05  -4.6519795e-06  -3.6377084e-04  -1.8508361e-04  -1.9383640e-04  -2.0576820e-04  -4.2893007e-05  -2.8687561e-04  -3.6166821e-04  -1.4111066e-05   6.1261095e-04   3.5333488e-04  -1.3145625e-04  -2.1261088e-05   3.3639453e-04  -4.6212407e-04  -3.8026110e-04  -3.1350940e-04  -2.2844120e-04   1.6743668e-04   5.8227079e-04  -1.1735114e-04   2.9539908e-05  -3.6668900e-04  -2.3246948e-04  -4.2028030e-05  -2.9361024e-04   2.2050086e-04  -3.7657659e-04  -9.9241042e-05  -1.1262155e-04   1.0739100e-04  -8.4798587e-05
   2.6203337e-04   4.0285333e-04   6.5010361e-05   3.4344353e-04   2.7409793e-04   3.3467921e-04   4.3115878e-04   1.9864262e-04   3.6647107e-04   3.6174850e-05   1.5462302e-04   3.8528931e-05   3.5876950e-04   4.6957819e-05   1.7388261e-04  -8.7263370e-06  -3.9456714e-05   1.0992550e-04   4.0896542e-04   6.2208826e-05   1.9492087e-04   9.2026137e-05   1.5450170e-04   2.4821071e-04   1.6257197e-04  -5.4508087e-05   1.3767317e-04   6.7552709e-04   3.8189709e-04   1.1020013e-04   1.8138287e-04   3.8869074e-04  -1.2302583e-04   7.0455908e-06   8.8032693e-06   3.1955766e-05   3.3358921e-04   6.2642194e-04   1.2933073e-04   1.4639675e-04  -1.6880626e-04  -1.9073124e-04   7.4889009e-05  -4.0166971e-05   1.8367736e-04  -2.9357066e-04  -6.8026704e-05   3.0767785e-06   9.3783041e-05   3.7232930e-05
   3.4089878e-04   4.2680782e-04   1.2279279e-04   3.3544068e-04   2.7436853e-04   2.6176055e-04   3.7173028e-04   2.3936560e-04   3.1977906e-04  -1.4351129e-05   1.6706185e-04   3.4152861e-05   3.2298578e-04   4.1448144e-05   1.8086267e-04  -1.4068803e-05  -6.9303329e-05   8.3526509e-05   4.0304076e-04  -2.2219216e-05   9.4348601e-05   6.5538326e-05   1.3595712e-04   1.8598394e-04   1.2275830e-05  -8.7729146e-05   2.4989963e-04   5.5129081e-04   3.4346138e-04   5.9129798e-05   8.8958914e-06   3.7801071e-04  -2.4870894e-04  -1.2957162e-04  -7.5440985e-05  -5.4112868e-05   1.6580064e-04   5.2741769e-04  -1.4089605e-04  -1.4078157e-04  -2.5891585e-04  -3.1640811e-04  -1.0046132e-04  -4.3558530e-04   5.6830722e-05  -4.0245673e-04  -2.0930488e-04  -2.2181885e-04  -2.5337955e-04  -1.8069927e-04
   3.5304023e-05   7.3306139e-05  -1.1220679e-04   1.4486512e-05   3.5638739e-05  -1.6703432e-05   2.5568990e-05   6.1891711e-05  -1.0655920e-04  -2.6799890e-04  -7.9245910e-05  -1.7820697e-04   1.3185474e-04  -1.2104430e-04  -3.3276388e-07  -1.5657517e-04  -2.2017932e-04   4.2836306e-05   1.2210586e-04  -3.0260783e-04  -1.3801620e-04  -1.9266614e-04  -1.7305689e-04  -2.8388678e-05  -1.0884125e-04  -3.3588443e-04   5.2410596e-05   6.1744964e-04   3.2190239e-04  -7.0768423e-05  -1.2740731e-04   1.9538145e-04  -2.5878107e-04  -4.8738648e-04  -3.3664136e-04  -3.1040629e-04   1.2050658e-04   4.5311032e-04  -2.5613236e-04  -3.5760127e-04  -8.5541653e-04  -5.5513222e-04  -3.1091782e-04  -5.7130761e-04  -4.3518739e-04  -6.7987968e-04  -4.2741993e-04  -5.0882343e-04  -6.6930789e-04  -5.2127405e-04
  -3.9438441e-04  -3.4655063e-04  -4.0639547e-04  -3.0669093e-04  -1.8868812e-04  -2.9144739e-04  -3.0905582e-04  -1.5367339e-04  -2.1654363e-04  -4.0114258e-04  -2.5570637e-04  -3.3310874e-04   5.0463659e-05  -2.3404170e-04  -6.7554647e-05  -2.1804919e-04  -2.2598421e-04  -8.3306668e-06   1.6641177e-04  -2.2501104e-04  -5.5875447e-05  -1.8456315e-04  -9.6238800e-05  -3.1950934e-05  -1.5136795e-04  -2.7573455e-04   1.3884477e-04   6.8674341e-04   2.3692842e-04   1.0748666e-05  -3.6819954e-05   2.2682648e-04  -3.7596415e-04  -3.0730234e-04  -1.5556325e-04  -6.0293401e-05   1.2520624e-04   4.9164251e-04  -1.1948880e-04  -1.6816803e-04  -1.0711468e-04  -4.0257577e-04  -3.8862100e-04  -4.8323363e-04  -3.5409931e-07  -4.7695520e-04  -2.5554711e-04  -2.2223002e-04  -3.4954614e-05  -2.4038808e-04
   1.7524794e-04   3.4743734e-04  -2.5161313e-05   2.4937486e-04   1.8342135e-04   3.0768284e-04   2.7103399e-04   1.1203553e-04   1.9333704e-04  -1.5315620e-04   3.6703502e-06  -1.1311101e-04   2.2684138e-04  -8.9488552e-05  -5.0642062e-05  -1.1409609e-04  -1.7870576e-04   2.9333987e-05   2.3215427e-04  -1.6700264e-04  -1.5123816e-06  -8.4596206e-05  -7.4336100e-07   7.0085822e-05  -1.7678232e-05  -2.3453374e-04   3.8424121e-05   5.4035720e-04   2.6513272e-04  -1.3740849e-05  -6.8716072e-05   2.0682278e-04  -5.1476309e-05  -2.5098550e-04  -1.7603018e-04  -2.3264253e-04   3.3477954e-05   4.8001559e-04   1.0418431e-04  -2.6062332e-04  -4.4343321e-04  -3.8271581e-04  -1.5616186e-04  -4.6297724e-04  -9.1199712e-05  -4.9710262e-04  -2.7047348e-04  -2.7039836e-04  -2.4433876e-04  -2.6006103e-04
   1.7551889e-05   1.7334746e-04  -1.2416542e-04   1.1902426e-04   6.6118133e-05   9.1471869e-05   1.0338614e-04   4.4887827e-05  -9.9474411e-05  -2.7624090e-04  -9.3036695e-05  -1.9525294e-04   9.5045056e-05  -1.2537320e-04  -8.3210805e-05  -1.7825066e-04  -2.6371030e-04   7.3729962e-06   3.6115787e-06  -3.2541461e-04  -1.3866460e-04  -2.4863394e-04  -1.1424016e-04  -5.5688011e-05  -1.3321020e-04  -3.5311689e-04  -6.9752554e-05   5.8242620e-04   2.1919490e-04  -1.2110502e-04  -1.5446711e-04   1.2816938e-04  -3.8354195e-04  -5.3841050e-04  -3.6005166e-04  -4.3845494e-04   9.1811835e-06   4.6230407e-04  -1.5958707e-04  -4.3556621e-04  -7.4362243e-04  -5.4985762e-04  -3.9059538e-04  -9.0517534e-04  -4.0929572e-04  -8.4498269e-04  -4.2555196e-04  -5.3486769e-04  -7.2081754e-04  -6.1966071e-04
  -3.3310574e-04  -2.6881942e-04  -4.0074406e-04  -2.2982751e-04  -1.8695541e-04  -2.3465486e-04  -2.1544556e-04  -1.2187116e-04  -3.0254581e-04  -4.5820171e-04  -2.6822992e-04  -3.4986681e-04  -3.2011008e-07  -2.8738694e-04  -1.8671295e-04  -2.5317370e-04  -3.0366334e-04  -3.1721640e-05   8.4108127e-05  -2.8337099e-04  -6.9290982e-05  -2.1056495e-04  -1.3084659e-04  -4.3414460e-05   1.8631481e-05  -3.8235963e-04   2.5931553e-05   5.7862682e-04   2.4597638e-04  -3.9309736e-05  -1.0137120e-04   2.0053487e-04  -2.0516834e-04  -3.1426805e-04  -2.7911243e-04  -1.3715152e-04   1.8701481e-04   5.5658008e-04  -4.5799388e-05  -1.4273633e-04  -4.4191995e-04  -4.3287833e-04  -2.7108900e-04  -3.0295420e-04  -1.4392534e-04  -5.3883169e-04  -2.3537021e-04  -2.3704143e-04  -1.0183520e-04  -3.0540887e-04
   1.3493333e-04   3.2390363e-04  -4.8118047e-05   2.5904342e-04   1.7187819e-04   1.6174154e-04   2.4487247e-04   1.0448711e-04  -2.4748088e-05  -1.7299947e-04  -1.3821104e-06  -1.0128114e-04   2.1698233e-04  -7.8357843e-05  -2.7924914e-05  -1.4424296e-04  -1.9668032e-04   3.6140336e-06   9.1843489e-05  -2.0440397e-04   9.0063622e-06  -1.3604203e-04  -3.0359539e-05   3.8613292e-05   6.1653140e-05  -3.1534780e-04   2.7066453e-05   4.7456453e-04   3.2774790e-04  -5.7569108e-05  -7.1783536e-05   1.8749555e-04  -1.2889717e-04  -3.3735306e-04  -2.4206407e-04  -1.7757011e-04   1.1725732e-04   5.7824334e-04   4.4568565e-06  -1.3949670e-04  -6.7801308e-04  -4.1656088e-04  -2.5790816e-04  -6.5891707e-04  -5.3453427e-05  -5.8243377e-04  -2.4446443e-04  -2.5577750e-04  -2.6357782e-04  -4.4836884e-04
  -1.4828473e-05   1.1579643e-04  -1.4572838e-04   9.5873744e-05   3.7852707e-05  -6.5602981e-06  -6.4494698e-06   8.3371051e-06  -5.3454154e-05  -2.9704551e-04  -1.0919463e-04  -2.0023268e-04   9.5673997e-05  -1.8079247e-04  -7.0913113e-05  -2.0357469e-04  -2.6879052e-04  -9.8174269e-06  -1.0491870e-04  -3.6404052e-04  -1.3510924e-04  -2.8513558e-04  -1.5776479e-04  -8.1029772e-05  -1.5292378e-04  -3.8560524e-04  -8.0859405e-05   3.9543220e-04   2.4279678e-04  -1.7854689e-04  -1.1863082e-04   1.9309910e-04  -4.7076039e-04  -5.3038268e-04  -3.6723411e-04  -4.7396257e-04   6.1240775e-05   4.8824766e-04  -1.6888622e-04  -4.4275011e-04  -6.3610933e-04  -5.2120688e-04  -5.9700466e-04  -7.5038924e-04  -5.5798417e-04  -7.3020684e-04  -4.1501434e-04  -5.5722747e-04  -7.3373882e-04  -7.6445815e-04
  -4.1999819e-04  -3.4216861e-04  -4.2795972e-04  -2.7344545e-04  -2.0057141e-04  -2.8689441e-04  -3.0357859e-04  -1.8160140e-04  -3.0404766e-04  -4.3270327e-04  -2.8618416e-04  -3.2086219e-04   2.6500262e-05  -3.0199258e-04  -2.3598658e-04  -2.4648788e-04  -2.6209958e-04  -2.7390226e-06   1.1831723e-04  -2.7053311e-04  -3.5411755e-05  -2.1810806e-04  -3.9368773e-05  -1.3452811e-05  -1.9271721e-04  -3.3893317e-04  -1.0099143e-05   5.7056564e-04   2.7656692e-04  -8.2980529e-05  -6.4056927e-05   1.8194638e-04  -2.4147726e-04  -4.3156865e-04  -2.3314232e-04  -2.0086522e-04   1.2706976e-05   5.7882280e-04  -1.8581668e-04  -1.9940957e-04  -4.4611125e-04  -2.7033332e-04  -3.2383334e-04  -4.1740225e-04  -2.6925809e-05  -5.9888809e-04  -1.6334679e-04  -2.0912032e-04  -5.6242672e-05  -3.2855649e-04
   1.6414170e-04   3.6715259e-04   1.3975225e-05   3.0980696e-04   2.1642754e-04   2.1381551e-04   2.9707645e-04   1.5874200e-04   1.4804420e-04  -7.6484532e-05   5.5454439e-05  -3.6421516e-06   2.6437163e-04  -3.1171574e-05  -1.1800798e-05  -9.1113368e-05  -1.4767025e-04   2.5066853e-05   1.3480963e-04  -9.3746938e-05   1.2174579e-04  -2.7635506e-05   5.4456061e-05   1.1379691e-04  -2.5086908e-04  -2.4122208e-04  -1.6403110e-06   3.0178993e-04   3.1959478e-04  -7.2711977e-05   5.7200465e-05   2.1369575e-04  -2.2768254e-04  -3.4966823e-04  -1.6096752e-04  -7.9827900e-05   5.0773648e-05   5.2285870e-04  -1.7169741e-05  -2.6207877e-04  -3.9934943e-04  -3.1444032e-04  -1.8273805e-04  -4.2589885e-04  -1.4060481e-04  -4.2413358e-04  -1.3329710e-04  -1.1640295e-04  -1.7264907e-04  -3.2978976e-04
   8.4179032e-05   2.0597884e-04  -3.6694830e-05   1.6365417e-04   8.3920997e-05   5.1851725e-07   1.1457052e-04   4.9512117e-05  -5.3639069e-05  -1.7259074e-04  -2.2422912e-05  -7.5428426e-05   2.1698211e-04  -9.3680836e-05  -2.9133213e-05  -1.2284140e-04  -1.7230163e-04  -3.5524829e-06   1.0657862e-04  -2.2576543e-04  -3.1098755e-06  -1.1047959e-04  -8.9673464e-05   3.9019564e-05  -1.2368000e-04  -2.5722213e-04   1.6150187e-05   3.3556682e-04   2.7656826e-04  -1.3700579e-04  -3.2359327e-05   1.4260363e-04  -1.6291821e-04  -2.6492350e-04  -2.7107401e-04  -2.7237440e-04  -5.8454636e-05   4.5282388e-04  -1.8655857e-04  -4.1702180e-04  -6.4729265e-04  -3.9090365e-04  -4.1271962e-04  -7.6325872e-04  -2.9644693e-04  -8.1412954e-04  -2.7188275e-04  -3.4407328e-04  -6.0159946e-04  -5.9272448e-04
  -2.6569699e-04  -2.0002184e-04  -2.7706497e-04  -1.5884131e-04  -1.1777339e-04  -2.2551055e-04  -1.5305144e-04  -7.7113000e-05  -1.0959574e-04  -2.6139352e-04  -1.4406942e-04  -1.8305150e-04   1.1909140e-04  -2.0555928e-04  -9.2670642e-05  -1.5403460e-04  -1.5141263e-04   3.3998011e-05   1.4341495e-04  -1.1218669e-04   1.1538703e-04  -6.8638052e-05   4.0349150e-05   1.1882047e-04  -1.6041902e-04  -2.2741518e-04   5.5002176e-05   4.3738796e-04   3.3179176e-04  -3.2261582e-05   7.2103298e-06   2.8367437e-04  -2.8091157e-04  -1.6229690e-04  -1.2651265e-04  -3.9525712e-05   1.1369074e-04   5.3759414e-04  -2.0805017e-04  -4.2254869e-05  -3.1803493e-04  -2.4272002e-04  -2.6064902e-04  -4.7206522e-05   8.7582412e-05  -1.8397579e-04  -9.8338496e-06   5.5918604e-06   1.0887025e-04  -3.0747651e-05
   3.2642364e-04   4.5698369e-04   1.6604133e-04   3.8208580e-04   2.8252805e-04   3.1734403e-04   3.4336298e-04   2.8492627e-04   2.9313122e-04   7.3785552e-05   1.6332808e-04   1.2262326e-04   3.7220388e-04   2.7271140e-05   6.1397768e-05   2.4262610e-05  -1.9092655e-05   7.7501885e-05   3.9350399e-04   6.6230110e-05   2.6100417e-04   1.3562657e-04   2.0850249e-04   2.8433351e-04   4.7405414e-05  -4.0648625e-05   1.0561921e-04   2.4732738e-04   3.1377911e-04  -9.9083472e-06   1.9009400e-04   3.8750889e-04   1.8592618e-04  -1.8411463e-05  -4.4860564e-05   3.9951592e-05   9.6274656e-05   5.3907774e-04  -1.2781340e-04   8.2895058e-05  -3.3166425e-04  -1.2220127e-04   5.2104031e-05  -2.7181106e-04   1.2653024e-04  -2.3563534e-04   3.4160395e-05   3.2184693e-05  -3.4121269e-05  -1.0570087e-04
   2.5688831e-04   3.1906911e-04   1.2427149e-04   2.4452206e-04   1.9486307e-04   1.9100026e-04   1.8310384e-04   1.2242264e-04   1.2586347e-04  -1.7750910e-05   1.0943703e-04   6.7277892e-05   2.6508511e-04  -1.4259028e-05   9.7710072e-05  -1.6155880e-05  -6.9620277e-05   8.0389720e-05   1.6413152e-04  -5.2001746e-05   1.4213302e-04   2.4124784e-05   7.3343574e-05   2.0864843e-04   3.9921906e-05  -1.1404479e-04   6.6112356e-05   1.4516992e-04   2.1514508e-04  -8.8704845e-05   3.5148380e-05   2.4995313e-04  -1.2735107e-04  -2.1685087e-04  -2.9866141e-04  -1.0216370e-04  -3.9611448e-05   5.5007054e-04  -9.0577931e-05  -1.6915292e-04  -4.1607500e-04  -2.0902613e-04  -3.0533643e-04  -5.1038287e-04  -1.9973466e-04  -4.7258125e-04  -8.6948421e-05  -2.1384751e-04  -3.5226470e-04  -2.7006614e-04
  -3.8640661e-05  -2.2778309e-05  -1.1037559e-04  -2.4239698e-05  -1.0087467e-05  -4.4504726e-05  -3.8296104e-05  -7.5324177e-05   5.2102707e-05  -1.0735840e-04  -4.5296465e-06  -2.7838487e-05   1.9446455e-04  -9.1712544e-05  -3.4410692e-05  -4.0610954e-05  -9.5556999e-05   7.6322118e-05   2.1014101e-04   3.3667278e-05   2.4978095e-04   1.2330295e-04   1.9005068e-04   2.7053570e-04   1.1949104e-04  -1.0704693e-04   1.2885200e-04   2.4988028e-04   3.2413006e-04  -1.2346773e-05   1.2442717e-04   3.5586031e-04  -7.9629513e-05  -1.4007425e-04  -8.3085804e-05   9.4531038e-05   1.2639905e-05   6.0737890e-04   1.1505684e-04   2.0855505e-04  -2.1961304e-04  -1.2570518e-06  -7.2660019e-05  -3.8901624e-05   3.1583605e-04   5.0412436e-05   1.4994279e-04   1.5482646e-04   2.1431607e-04   9.1716582e-05
   4.7784395e-04   5.5736961e-04   2.9099017e-04   4.7238913e-04   3.5920704e-04   3.4843822e-04   4.4675075e-04   3.2747583e-04   4.2996879e-04   1.9865081e-04   3.1313588e-04   2.5937101e-04   4.4007236e-04   8.4196326e-05   1.7487913e-04   1.0746284e-04   6.7469205e-06   1.1885854e-04   2.8819471e-04   1.7637479e-04   3.6992325e-04   2.9962047e-04   2.1377770e-04   4.4491762e-04   2.8165113e-04   5.1106206e-05   1.7028772e-04   8.4577921e-05   3.7528062e-04   1.0230513e-05   1.9467986e-04   4.7824459e-04   1.3894647e-04   1.5222614e-04   7.9675112e-05   1.1022116e-04   5.2431944e-05   6.3714484e-04  -9.7973825e-05   1.6527604e-04   2.3859720e-04   1.3794964e-05   1.8080723e-04   2.5467834e-06   3.9551777e-04  -2.5063593e-04   1.9180802e-04   1.9122075e-04   1.3737859e-04   9.4748742e-05
   4.2338335e-04   4.2773364e-04   2.4364858e-04   3.6604793e-04   2.8582531e-04   2.5323700e-04   2.6270773e-04   1.6668376e-04   3.1027960e-04   1.2287826e-04   2.6287904e-04   2.1509659e-04   3.9925679e-04   1.0724574e-04   8.6802174e-05   8.1471575e-05  -6.5174863e-05   1.2161547e-04   1.9863714e-04   6.1260267e-05   2.5106053e-04   1.7371897e-04   2.2152637e-04   3.8334046e-04  -1.3498070e-05  -2.1667274e-05   5.3753818e-05   1.6947070e-04   3.3303860e-04  -5.2853964e-05   1.1264466e-04   4.4778327e-04   2.2217386e-05   8.4168016e-05  -2.2282766e-05  -1.2781571e-04  -2.9502235e-05   6.7001762e-04  -1.1101652e-04  -3.1335454e-05  -3.0096420e-04  -9.9553261e-05   2.7268352e-05  -2.4846749e-04   1.9479065e-05  -3.4006516e-04   7.9916463e-05   4.1994990e-06  -1.8383843e-04  -2.0832547e-04
   1.5995014e-04   9.5696822e-05   4.0373237e-05   1.5797371e-04   1.5536322e-04   1.0501866e-04   1.5826762e-04  -1.4081575e-05   3.1880228e-04   1.0051311e-04   2.2445375e-04   1.8131995e-04   4.0704821e-04   7.8535581e-05   4.5117959e-05   1.0102690e-04  -5.0652437e-05   1.2564134e-04   2.7075701e-04   1.6590730e-04   3.7288343e-04   2.4335741e-04   3.0610539e-04   4.7648555e-04   2.3390829e-04   4.6969850e-05   2.1215106e-04   2.8629674e-04   4.4030248e-04   1.5204371e-05   1.9099552e-04   5.3760706e-04   1.1336646e-04   1.7619735e-04   7.9327119e-06   2.6069293e-04   2.1725490e-04   7.8381528e-04   8.9588626e-05   2.1004720e-04   3.7937571e-05   1.2141436e-04   2.5280469e-04  -8.4444757e-05   4.4766607e-04   8.2539540e-05   3.0939959e-04   2.9690500e-04   4.4990482e-04   2.0025944e-04
   6.3040468e-04   6.1418844e-04   3.7898379e-04   5.6345167e-04   4.4031264e-04   4.4597458e-04   4.7748422e-04   3.1804436e-04   4.8804501e-04   2.9212626e-04   4.2033452e-04   3.6655137e-04   5.5403286e-04   2.4468108e-04   2.0521754e-04   2.0595086e-04   3.0641735e-05   1.6802462e-04   3.1257761e-04   2.6594335e-04   4.3242608e-04   3.6971841e-04   3.8356709e-04   5.5856124e-04   2.9122925e-04   9.3536233e-05   2.7923664e-04   2.8616749e-04   4.5840314e-04   4.5918317e-05   2.6731484e-04   5.8888731e-04   1.5439138e-04   3.2208889e-04   7.0916896e-05   1.5787130e-04   1.2191179e-04   7.6989777e-04  -2.5759844e-05   1.4782989e-04   7.6977471e-05   1.2863692e-04   2.5696267e-04  -1.1475469e-04   3.6041450e-04  -6.5659951e-05   3.2875407e-04   2.8295122e-04   2.0752159e-04   1.5763163e-04
   5.1331235e-04   4.3052534e-04   2.9688486e-04   3.8211027e-04   3.1428726e-04   2.5328732e-04   2.6945132e-04   1.8209525e-04   3.1187490e-04   1.5347292e-04   3.2168077e-04   2.5013697e-04   4.6538023e-04   1.6352748e-04   1.5697849e-04   1.4368596e-04  -3.9022275e-06   1.7731314e-04   1.7023282e-04   8.2972925e-05   2.3349620e-04   2.4693328e-04   1.6658675e-04   3.8917403e-04   2.6883031e-04  -3.1425931e-05   1.5569266e-04   2.5721086e-04   3.8735408e-04  -3.5265464e-05   1.5678680e-04   6.0737977e-04  -1.4017017e-04   5.5383198e-06  -8.7880435e-05  -5.5465421e-06   2.1598610e-04   6.6495565e-04  -1.8259260e-04  -1.2173293e-04  -2.6784735e-04  -4.4224747e-05   6.5224383e-05  -3.8094295e-04  -7.9631660e-05  -1.3369968e-04   7.6391356e-05  -2.8574757e-05  -2.2830389e-04  -1.3648851e-04
   1.4761332e-04   2.5666714e-05   1.0864464e-05   5.3403230e-05   3.8158771e-05  -9.8570075e-05  -7.3323892e-05   1.6008924e-05   3.2175802e-05  -1.1821443e-04   3.5172881e-05  -8.1361941e-06   1.8635164e-04  -7.5298922e-05  -3.9129871e-05   1.8625592e-06  -1.3418320e-04   1.1765587e-04  -1.6942367e-04  -2.1404910e-04  -1.6810262e-05  -1.5433531e-06  -6.8845088e-06   1.6964396e-04  -1.2226449e-05  -2.3406906e-04  -2.2621125e-05   4.4314188e-04   3.8608830e-04  -9.1803493e-05   1.1869544e-04   4.7122166e-04  -1.8474300e-04  -6.0436152e-05  -1.2993217e-04  -4.8485788e-05   1.9568246e-04   6.1504229e-04  -6.9819762e-06   1.1643787e-04   8.1501268e-05   1.6458902e-05   8.6953012e-05  -2.2302204e-04   2.3044647e-04   1.1040609e-04   1.4845254e-04   2.0491112e-04   2.2391957e-04   2.1214168e-04
   4.7897594e-04   5.1438215e-04   3.0575428e-04   4.8323887e-04   3.8993530e-04   5.0859561e-04   4.6073194e-04   3.7537460e-04   5.8865547e-04   2.8733554e-04   3.7747200e-04   2.6668320e-04   5.0278840e-04   2.4953246e-04   2.8837979e-04   2.1453037e-04   1.1924463e-04   1.8694444e-04   4.1871698e-04   2.2547576e-04   3.6383863e-04   3.3862260e-04   3.3950215e-04   4.6778622e-04   2.1367392e-04   6.8591049e-05   1.5312493e-04   4.3242413e-04   4.7151334e-04   9.1311653e-05   3.4104640e-04   6.6593749e-04   7.9381600e-05   2.7822956e-04   9.3524555e-05   1.4831767e-04   1.3368069e-04   6.5268826e-04   2.5991263e-04   3.4139646e-04   1.3816166e-04   6.7078203e-05   4.1072781e-04  -1.7277652e-04   3.9824427e-04   3.3795681e-05   2.6947766e-04   2.5718866e-04   2.4167019e-04   2.8040633e-04
   5.4587494e-04   5.1694515e-04   3.5600443e-04   4.4703772e-04   3.6566862e-04   3.9589891e-04   3.7626695e-04   3.2290371e-04   5.4987543e-04   2.3280195e-04   3.5172416e-04   2.4323992e-04   4.4075624e-04   2.0668213e-04   2.4347527e-04   2.0566526e-04   1.0227054e-04   1.9560463e-04   1.9685607e-04   1.3817944e-04   2.5175905e-04   2.0250495e-04   2.1067892e-04   4.0387356e-04   3.3694122e-04   3.7512826e-05   2.5755394e-04   3.2143365e-04   4.0204238e-04   7.8608660e-05   2.4475870e-04   4.8739254e-04  -1.3128560e-04   1.9861720e-04   1.0432557e-04   3.9368188e-05   1.5776491e-04   6.0120766e-04   6.6309163e-05   1.4906077e-04  -1.6911785e-04   1.0192904e-05   1.8460231e-04  -6.5103763e-05   1.3781326e-04   3.4184054e-06   9.5224408e-05   8.2076571e-05  -1.0470898e-04   6.2749561e-05
   2.3707743e-04   1.5741355e-04   1.1046600e-04   1.3123428e-04   1.2542239e-04   9.9290861e-05   9.0089270e-05   1.7319764e-04   1.2770994e-04  -2.3044358e-05   1.1446701e-04   1.7428516e-05   2.6494038e-04   4.8108937e-05   1.0120007e-05   5.7695306e-05  -4.6502864e-05   1.5355664e-04  -1.2262365e-04  -1.4521020e-04  -5.7803522e-06  -1.9540014e-06  -3.5698780e-05   1.7869158e-04   3.8200596e-05  -1.3439004e-04   7.6045799e-05   3.8031308e-04   3.3453421e-04  -4.3720320e-05   7.4752737e-05   4.1911614e-04  -1.2536853e-04  -9.7430384e-05  -1.7754578e-04  -2.0242682e-04   9.0412563e-05   4.7478813e-04  -8.9266694e-05  -1.7743604e-04  -4.8647391e-05  -2.5911166e-04  -1.8862271e-04  -7.0260849e-04  -2.9776231e-04  -5.4148451e-04  -1.5003225e-04  -2.2547382e-04  -4.9522106e-04  -2.1449488e-04
  -1.1818593e-04  -1.9180111e-04  -9.8278040e-05  -6.3498155e-05   1.0591653e-05   3.1176798e-05  -2.5587518e-05   7.1107286e-05   2.5738473e-04   4.4633484e-06   8.0669575e-05  -3.0042989e-05   2.4712514e-04  -1.6241154e-05   7.0056649e-06   4.9841772e-05  -4.6081635e-08   1.2546852e-04   1.3345802e-04  -1.6500431e-05   1.4725444e-04   6.0582559e-05   1.7182605e-04   2.5130506e-04  -2.5043189e-05  -6.5046646e-05   1.7286239e-04   5.9901323e-04   3.7538278e-04   5.2423409e-05   2.7267323e-04   4.1255538e-04  -1.0784391e-04   1.2516182e-04   3.5808731e-05   2.9220349e-05   3.0103041e-04   5.9941772e-04  -6.8153320e-05   1.5953543e-04  -1.8659697e-04  -2.7756043e-05   1.3677079e-04  -1.2057275e-04   1.5933851e-04  -5.7523499e-05   1.0869801e-04   1.0046958e-04   2.4607102e-04   1.8892619e-04
   4.4054238e-04   4.9854763e-04   2.3968592e-04   4.2580988e-04   3.3889076e-04   3.7078041e-04   3.8584034e-04   3.4940272e-04   4.5000031e-04   1.9769215e-04   2.7637099e-04   1.6092823e-04   4.1759110e-04   1.4326409e-04   1.6458514e-04   1.7908760e-04   3.7808473e-05   1.5724149e-04   1.4386066e-04   7.1891227e-05   1.9556755e-04   1.4598138e-04   1.4679293e-04   2.9495620e-04   1.6398948e-04  -8.7453291e-06   2.0228190e-04   4.6447726e-04   3.6957528e-04   7.0747104e-05   2.2096466e-04   4.6305510e-04   4.3954653e-05   1.3692862e-04   3.9249164e-05   1.5522428e-06   2.9005203e-05   5.1852228e-04   2.4981617e-05   1.5483830e-04  -3.1633470e-05  -5.6889960e-05   7.8912972e-06  -4.4895853e-05   5.8671787e-05   3.8940198e-05   7.0994814e-05   8.1794293e-05   7.6482953e-05   1.2343230e-04
   2.9860690e-04   3.1504696e-04   1.6602493e-04   2.5854242e-04   2.0856454e-04   2.0697937e-04   1.8395986e-04   2.8327835e-04   2.4188733e-04   5.8186401e-05   1.7431298e-04   5.7779191e-05   2.5412816e-04   7.2307666e-05   6.7129644e-05   8.2524362e-05  -9.7336917e-05   4.7073390e-05  -6.2527084e-05  -1.0860112e-04   2.4662559e-05  -2.2869124e-05   6.0059447e-05   1.6487134e-04   2.9341813e-06  -1.8676695e-04   1.1585555e-04   4.0689553e-04   2.9523589e-04  -3.2027703e-05  -2.8557601e-05   2.7975565e-04  -3.5661698e-04  -1.0240425e-04  -1.4920782e-04  -1.3819580e-04   5.3279196e-05   4.5115952e-04  -7.3364710e-05  -5.5325087e-05  -3.5281366e-04  -1.5859542e-04  -1.8683969e-04  -2.1930420e-04   5.5669225e-05  -3.4335384e-04  -7.6537690e-05  -2.2594002e-04  -2.7442473e-04  -2.7049042e-04
  -4.6113688e-05  -4.5424669e-05  -1.2918343e-04  -3.7078804e-05  -2.7885228e-05  -9.5892130e-05  -1.1308272e-04  -2.8890934e-06  -1.1602797e-05  -1.8220249e-04  -6.5076711e-05  -1.3536905e-04   5.7120473e-05  -1.1428572e-04  -1.3868787e-04  -1.0394210e-04  -2.6834200e-04   1.0700983e-05  -3.0252073e-04  -3.8039126e-04  -1.7268008e-04  -2.3624809e-04  -1.6947930e-04   4.9097627e-05  -1.4663865e-04  -3.0446189e-04   1.0940910e-04   4.6644840e-04   2.3382144e-04  -8.1005164e-05  -1.9535839e-05   1.8706752e-04  -5.7787442e-05  -1.2989600e-04  -1.7677844e-04  -1.4636983e-04   3.4236509e-05   3.7692138e-04   4.2621225e-05  -1.1949511e-05  -1.0428409e-04  -1.0573106e-04  -1.9215936e-04  -2.2615175e-04  -3.7752699e-05  -1.1716499e-04  -7.4160148e-06  -5.5321812e-05   9.2121460e-05   7.2426860e-06
   2.6600555e-04   3.7442704e-04   1.1639314e-04   3.2757525e-04   2.5435610e-04   2.8460179e-04   2.7353232e-04   1.9871355e-04   3.9374095e-04   1.4806546e-04   1.9901535e-04   1.0935856e-04   3.6257904e-04   8.3484796e-05   5.9527061e-05   6.6961838e-05  -7.3562624e-05   2.4096134e-05   9.8626930e-05  -6.6478256e-05   9.7700344e-05   8.8940778e-06   1.4263522e-06   1.8017473e-04  -5.6643628e-08  -1.5955148e-04   1.1844473e-04   2.4326421e-04   2.1434900e-04   4.5646456e-07   5.9685033e-05   3.2916342e-04  -1.0770833e-04  -6.5951419e-05  -1.3079612e-04  -1.0456012e-04   1.4050868e-04   4.0935166e-04   5.1418392e-05   1.9190160e-05  -2.1887587e-04  -1.0724167e-04  -6.4732361e-05  -1.0222552e-04   3.5308636e-05  -1.5613937e-04   1.9486461e-06  -7.3382158e-05   2.9795965e-05  -1.3267937e-05
   2.2378760e-04   2.8738388e-04   7.1939830e-05   2.3512231e-04   1.6863945e-04   1.8431905e-04   1.6710484e-04   1.8362777e-04   1.2613898e-04   5.2205483e-05   1.1442886e-04   3.3664011e-05   1.9097366e-04   3.6579771e-05  -1.9151541e-05   1.0838355e-05  -1.1807177e-04   3.8657608e-06  -1.4666487e-04  -1.7294748e-04  -2.0948093e-05  -7.6763507e-05  -6.8570429e-05   1.0410290e-04   3.5967103e-05  -2.1586224e-04   7.5262506e-05   1.4521128e-04   1.4300858e-04  -4.3843596e-05  -7.5206633e-05   2.4447043e-04  -1.4506448e-04  -1.3378996e-04  -2.1057155e-04  -1.9852722e-04  -3.1001702e-05   3.5162363e-04  -1.8983432e-04  -1.3786803e-04  -3.3542473e-04  -2.4433198e-04  -7.8225756e-05  -5.0311274e-04  -3.0657140e-04  -5.2771985e-04  -1.3215413e-04  -2.8714648e-04  -3.2613633e-04  -3.5198810e-04
  -1.2571368e-04  -1.0175312e-04  -2.0137658e-04  -7.1341230e-05  -8.7648557e-05  -1.1531002e-04  -1.5695821e-04  -7.4349911e-05  -1.4105647e-04  -2.0777417e-04  -1.1180610e-04  -1.7824945e-04   1.6874827e-06  -2.1475586e-04  -1.3069969e-04  -1.0444690e-04  -2.8830278e-04  -1.6124974e-05  -4.0517506e-04  -4.6825377e-04  -2.2616998e-04  -2.7219951e-04  -2.3041884e-04  -7.7660312e-05  -1.9368435e-04  -3.9584693e-04   3.6845140e-05   3.8137881e-04   1.8275363e-04  -1.2074167e-04  -4.1397125e-05   2.6035783e-04  -7.8661942e-05  -1.9350767e-04  -2.0062599e-04  -3.0332443e-04   7.3871975e-05   4.3668784e-04   1.3642569e-04  -2.3423172e-06  -2.3397987e-04  -2.0244607e-04  -1.8150012e-04  -1.6695494e-04   1.3431755e-04  -3.5002478e-04  -1.2760816e-05  -1.3111084e-04   9.8060365e-05  -1.6569199e-04
   2.3870841e-04   3.6423368e-04   7.4866584e-05   3.3696421e-04   2.3559835e-04   3.3788270e-04   3.2621252e-04   3.0797088e-04   3.4403938e-04   1.8441409e-04   1.9459672e-04   1.1797250e-04   3.0553577e-04   5.3948901e-05   1.6945534e-05   7.2283379e-05  -1.1039828e-04   5.2200971e-06   7.2161005e-05  -7.6332952e-05   1.1437116e-04   1.1665516e-05   7.8958125e-05   2.2026295e-04   3.1353065e-05  -1.6977683e-04   9.3178540e-05   3.2609946e-04   2.6546212e-04   3.8796779e-06   5.7996451e-05   2.6564125e-04  -1.9338970e-04  -4.6581124e-05  -1.6203898e-04  -7.7387471e-05   1.1281892e-04   4.9014797e-04   8.6535831e-05   2.7989896e-05  -1.3580818e-04  -8.1473132e-05   8.1494996e-05  -8.2705403e-05   1.0175744e-04  -3.5644849e-04   7.3527721e-05  -4.3068769e-05   9.1960661e-05  -1.9981150e-04
   2.1064523e-04   2.8131242e-04   6.1516243e-05   2.5373560e-04   1.5859939e-04   2.0252094e-04   1.5013738e-04   1.5928154e-04   1.6579939e-04   7.6024553e-05   1.2383876e-04   7.7098040e-05   2.7141281e-04   1.1088691e-05   6.7363821e-06   3.0560328e-05  -1.3102808e-04  -1.0613916e-05  -1.1079984e-04  -1.8269429e-04  -2.5682266e-06  -4.6850157e-05  -9.6544056e-05   1.2295533e-04  -2.3487232e-04  -2.4515091e-04   2.9339046e-05   3.1123983e-04   1.7626735e-04  -4.8793696e-05   3.7875205e-05   2.0377460e-04  -2.6224219e-04  -2.4726734e-04  -2.9189652e-04  -1.6706422e-04   9.7799726e-05   4.1281729e-04  -4.7455982e-05  -8.1221166e-05  -3.1543477e-04  -1.4513539e-04  -1.2163094e-04  -5.1633018e-04  -3.1660162e-04  -6.3091586e-04  -7.7177043e-05  -2.8536274e-04  -3.3499385e-04  -4.4270730e-04
  -1.4984790e-04  -1.1510869e-04  -2.1563562e-04  -1.0134329e-04  -1.0309146e-04  -1.6699353e-04  -1.8942436e-04  -1.0814924e-04  -7.5208198e-05  -1.5658628e-04  -1.0932698e-04  -1.4168287e-04   3.4118020e-05  -1.9106892e-04  -1.3217621e-04  -1.3107667e-04  -3.1888587e-04  -5.8903046e-05  -4.7274004e-04  -4.9278449e-04  -2.4406130e-04  -2.9567117e-04  -2.5458093e-04  -9.4976698e-05  -3.1288681e-04  -4.2163668e-04  -3.7213707e-05   3.4038746e-04   1.2347281e-04  -2.0072340e-04  -2.0570711e-04   1.2478096e-04  -3.9594574e-04  -4.8849330e-04  -4.6301808e-04  -5.8077852e-04  -1.2313374e-04   3.4866939e-04  -3.0818561e-04  -4.9202918e-04  -7.9579343e-04  -3.0408910e-04  -4.3059263e-04  -5.0790253e-04  -3.5045983e-04  -7.4651081e-04  -1.3057503e-04  -3.3110534e-04  -1.0462773e-04  -3.3253635e-04
   2.7642005e-05   2.0266228e-04  -6.3054998e-05   1.9771776e-04   1.1267405e-04   2.5657655e-04   1.8346118e-04   8.4518972e-05   2.5032804e-04   1.2254123e-04   8.0445745e-05   2.8763849e-05   1.9905678e-04  -3.0383388e-05   4.7609628e-05  -7.5075973e-06  -1.2149389e-04  -3.9721668e-05  -7.9411082e-05  -1.4828016e-04   7.9376892e-05  -2.3394316e-05   2.1228981e-05   7.3996904e-05  -1.3800181e-06  -2.2421572e-04   1.4565591e-04   4.5220947e-04   2.0762805e-04   1.0234118e-05   4.6519632e-05   2.5277838e-04  -1.9715479e-04  -8.4540574e-05  -6.6046050e-05  -4.3282416e-05   4.6184854e-05   3.8113852e-04   1.3272240e-04   5.4755201e-05  -2.5370301e-04  -6.2924155e-05  -1.0347720e-04  -1.6089113e-04  -5.8094316e-05  -4.6220887e-04   1.8096891e-05  -1.9938017e-05   1.2045576e-05  -1.7076971e-04
   1.9226123e-04   2.9821848e-04   4.2175401e-05   2.6583971e-04   1.7959173e-04   2.2230955e-04   2.2321055e-04   1.7271162e-04   1.7955137e-04   1.5311511e-04   1.2493494e-04   8.1922553e-05   2.7649285e-04   3.6490233e-06   5.5953613e-05   3.7649548e-05  -5.2097614e-05   7.8187026e-07  -9.7087977e-05  -1.3984654e-04   4.4591849e-05   5.2098505e-07   3.9218830e-06   1.1402112e-04  -5.7146812e-05  -1.7307576e-04   9.2701572e-05   2.2932485e-04   1.3867833e-04  -9.7938646e-06   7.9445781e-05   1.7400998e-04  -1.6092932e-04  -1.8938493e-04  -2.4422290e-04  -1.9983501e-04   8.6895714e-05   2.5037632e-04   3.4597157e-05  -1.3971997e-04  -2.2639766e-04  -9.4682786e-05  -1.0443365e-04  -1.9749808e-04  -2.1752063e-04  -2.9129494e-04  -5.9242389e-05  -2.3360086e-04  -2.4524020e-04  -2.6509710e-04
  -7.3425334e-05   4.9805253e-06  -1.3401489e-04   1.9210920e-06  -4.1371346e-05  -1.3357964e-04  -1.0355012e-04  -9.1315078e-06  -3.6580444e-05  -7.5439450e-05  -7.3031668e-05  -1.1448349e-04   5.9480866e-05  -9.9987788e-05  -1.3113512e-04  -8.4342922e-05  -1.7282172e-04  -4.0766248e-05  -3.4771275e-04  -3.8076434e-04  -1.9234713e-04  -2.1613523e-04  -2.2716857e-04  -6.2103660e-05  -1.8135607e-04  -3.5674233e-04   1.0407354e-05   3.0773267e-04   1.2728036e-04  -1.1591602e-04  -1.2555059e-04   3.6523332e-05  -3.9636358e-04  -3.8961979e-04  -3.4409334e-04  -3.8058570e-04  -6.5093955e-05   1.2376469e-04  -2.4357552e-04  -5.3671474e-04  -6.8732095e-04  -2.5070802e-04  -4.6663036e-04  -4.6495296e-04  -4.5367115e-04  -5.5696192e-04  -2.7144718e-04  -4.7002482e-04  -7.1328209e-04  -5.4979604e-04
  -4.8801606e-04  -4.3606965e-04  -4.1780135e-04  -3.6812402e-04  -2.8693766e-04  -3.7285188e-04  -3.5942293e-04  -1.8793911e-04  -3.4606460e-04  -2.0860779e-04  -2.6294705e-04  -2.9988843e-04  -7.6237906e-05  -2.4577137e-04  -1.4875892e-04  -1.5101356e-04  -1.2339730e-04  -2.0850781e-05  -1.9966952e-04  -2.9062477e-04  -9.1762886e-05  -1.5649336e-04  -1.9302189e-04  -7.7270808e-05  -2.2232468e-04  -2.9220717e-04   2.5837573e-05   5.1602320e-04   1.4543050e-04  -1.6126312e-05  -7.4022813e-05   2.5628635e-05  -3.5327708e-04  -2.1815677e-04  -1.5740012e-04  -1.1244411e-04   3.7717189e-05   2.0448487e-04  -9.7223157e-05  -2.2471466e-05  -2.0441026e-04  -7.9440564e-05  -8.1505976e-05  -3.3504595e-05  -1.2802034e-04  -4.4043118e-04  -3.5666504e-05  -1.3961959e-04   5.5951063e-05  -8.3222054e-05
   1.3381531e-04   3.2334510e-04   2.8609164e-05   2.4079821e-04   1.4178212e-04   2.7605920e-04   1.6996069e-04   1.5127241e-04   2.1274076e-04   1.3358989e-04   6.8634494e-05  -2.7523914e-05   1.7051892e-04  -1.7589329e-05   2.3752315e-05   2.6653313e-05  -3.7545105e-05   2.2631539e-05  -2.2475173e-04  -1.3913684e-04   1.7384757e-05   5.2291671e-05  -4.5580651e-05   3.2877768e-05  -5.9121088e-05  -1.3276617e-04   4.0637220e-05   2.9762473e-04   9.2053378e-05  -2.1393997e-05  -2.1677866e-05   1.0802620e-04  -7.9476958e-05  -8.5735039e-05  -8.4859872e-05  -1.8517287e-04   3.2626642e-05   1.8921356e-04  -1.0689620e-05  -6.6224595e-05   5.3722833e-06  -7.5736702e-05  -1.7390244e-05  -6.1373918e-05   1.4214594e-05  -2.5801890e-04  -5.0951778e-05  -1.5511793e-04  -9.5072559e-05  -2.0061442e-04
   1.4304728e-05   1.5270962e-04  -4.8086578e-05   8.2797058e-05   3.0350317e-05   2.2412036e-05  -2.3482264e-05   3.1397569e-05  -2.9082905e-05  -4.9418309e-06  -4.3771968e-05  -1.2719660e-04   3.8288548e-05  -8.3690444e-05  -7.4277123e-05  -3.0177223e-05  -9.1139191e-05  -1.6371552e-06  -2.1516066e-04  -2.6846171e-04  -1.2929218e-04  -1.4749846e-04  -1.8360811e-04  -7.0340830e-05  -1.2554806e-04  -2.4660310e-04  -2.0492482e-07   2.4611439e-04   6.4678847e-05  -8.7133834e-05  -8.3084080e-05   7.3390314e-05  -2.4504407e-04  -2.1658423e-04  -2.8465589e-04  -3.0581988e-04  -1.1034754e-04   1.1958268e-04  -3.8823072e-04  -2.8896547e-04  -4.2806266e-04  -2.2917397e-04  -2.1031295e-04  -5.4971379e-04  -4.5169896e-04  -3.2861109e-04  -2.3081624e-04  -3.4775393e-04  -5.1328237e-04  -5.0115917e-04
  -3.3739282e-04  -2.6500871e-04  -3.2715997e-04  -2.5621307e-04  -2.3357848e-04  -3.2774854e-04  -3.4038661e-04  -1.4243720e-04  -4.3322638e-04  -2.6629146e-04  -2.9216142e-04  -3.5696643e-04  -1.4371942e-04  -2.7273296e-04  -2.2619450e-04  -1.6914186e-04  -2.6099279e-04  -4.0925261e-05  -5.0295197e-04  -5.4669555e-04  -3.6973009e-04  -3.3726095e-04  -3.8801550e-04  -2.9900920e-04  -4.1056471e-04  -4.3094394e-04  -1.5421204e-04   2.9110626e-04   2.6512027e-05  -2.4005864e-04  -2.2602307e-04  -4.8737271e-05  -6.2934181e-04  -6.3138123e-04  -5.2849250e-04  -6.9987780e-04  -3.2140032e-04   6.6726767e-05  -2.8362536e-04  -5.8566197e-04  -5.3219695e-04  -4.2187158e-04  -5.5040745e-04  -6.6648528e-04  -6.7870889e-04  -8.9437695e-04  -3.2582381e-04  -4.5049874e-04  -3.7027843e-04  -3.4693163e-04
  -2.1125757e-04   2.0354564e-05  -2.1465452e-04   4.4001085e-06  -3.3149256e-05   2.9155262e-05   4.6399589e-05  -8.2365741e-06  -8.2634535e-05  -4.7274716e-05  -1.2623545e-04  -2.2448710e-04   3.0203333e-05  -1.3263948e-04  -9.1313945e-05  -7.4372700e-05  -1.3232829e-04  -4.8831065e-05  -2.9428097e-04  -2.4409218e-04  -8.7333763e-05  -1.4269730e-04  -2.2247725e-04  -9.0194364e-05  -4.1352818e-05  -2.3083208e-04  -3.3937136e-05   2.6570092e-04   3.1674870e-05  -6.6310975e-05  -1.3138416e-04   1.3247222e-06  -8.8038447e-05  -2.1247915e-04  -1.9403848e-04  -2.4252658e-04   3.4854813e-05   1.7708399e-04  -1.7252258e-05   7.8115236e-06  -2.8613748e-04  -1.5027120e-04  -1.0077662e-04  -1.7820738e-04  -1.4618004e-04  -1.9404008e-04  -1.4177746e-04  -2.6881840e-04  -1.8090301e-04  -2.0928518e-04
  -3.4457364e-05   1.4164810e-04  -9.9910176e-05   1.0187594e-04   1.4977873e-05   4.8788315e-05   4.8366797e-05  -7.6788028e-06  -4.4816650e-05  -3.0579708e-05  -7.0242953e-05  -1.7270501e-04   9.2024484e-06  -9.1330454e-05  -7.5875367e-05  -4.4516615e-05  -1.1982099e-04  -2.9149360e-05  -2.3794948e-04  -2.1964798e-04  -1.0849883e-04  -1.5842372e-04  -1.9691041e-04  -6.9972011e-05   5.4549804e-05  -2.5082700e-04  -6.1030907e-05   1.5641918e-04   1.0010246e-04  -9.0388130e-05  -6.5357119e-05   4.2011688e-05  -1.5182349e-04  -2.7605036e-04  -2.1624546e-04  -2.4529448e-04  -1.5609550e-04   1.8703981e-04  -8.6309912e-05  -2.0790784e-04  -5.0396664e-04  -1.8679639e-04  -2.6966550e-04  -4.9891073e-04  -3.0490512e-04  -3.4555129e-04  -2.0097698e-04  -3.0747030e-04  -3.6691659e-04  -3.6209126e-04
  -2.0985985e-04  -9.7217089e-05  -2.7089161e-04  -1.0807754e-04  -1.4591072e-04  -1.2853616e-04  -1.9822428e-04  -1.4812071e-04  -3.1868467e-04  -2.3023773e-04  -2.3882141e-04  -3.2266387e-04  -1.1408990e-04  -2.5418142e-04  -1.7643263e-04  -1.3980491e-04  -2.4776690e-04   4.3234579e-07  -4.6478456e-04  -4.6029213e-04  -3.2178161e-04  -2.9260633e-04  -3.8652646e-04  -2.7654684e-04  -2.7964995e-04  -4.3512744e-04  -1.9030034e-04   5.9546339e-05   5.1317282e-05  -2.2066456e-04  -1.9044768e-04  -2.2515062e-06  -4.1630788e-04  -5.1608309e-04  -4.4019066e-04  -4.6027527e-04  -1.7884561e-04   1.7793206e-04  -4.3795386e-04  -4.9139198e-04  -6.2166870e-04  -3.9591652e-04  -4.9526984e-04  -6.0581206e-04  -6.2819896e-04  -5.4720329e-04  -3.7548636e-04  -5.3183321e-04  -7.1398664e-04  -5.9951114e-04
  -4.3502482e-04  -3.1871448e-04  -3.4748824e-04  -1.7221096e-04  -1.5056590e-04  -3.4967350e-05  -9.6127078e-05  -1.1886776e-04  -8.5097905e-05  -1.4404005e-04  -1.9373561e-04  -2.8936940e-04  -1.2713353e-05  -1.8146374e-04  -9.7013923e-05  -9.1987728e-05  -1.4409854e-04  -9.0287194e-06  -2.6546195e-04  -2.2738249e-04  -1.1872901e-04  -1.4361316e-04  -2.0183752e-04  -1.0787562e-04  -6.0035971e-05  -2.2797707e-04  -1.3212762e-04   2.4187482e-04   1.6912413e-04  -9.5184223e-05  -2.8141892e-05   1.2764364e-04  -2.5182875e-04  -2.4527338e-04  -1.0056354e-04  -1.1623237e-04  -7.4926422e-05   2.5311706e-04  -2.2063745e-04  -5.8194524e-05  -4.1098022e-04  -1.0881769e-04  -1.8099559e-04  -1.6005260e-04  -1.5503274e-04  -1.7390489e-04  -1.0123212e-04  -1.7032068e-04  -6.2357234e-05  -2.3015804e-04
   1.9854635e-05   1.9569746e-04  -7.8588477e-05   1.3233289e-04   5.9537830e-05   1.1868883e-04   7.6510420e-05  -3.6069829e-05  -5.4867371e-05  -3.1531396e-05  -6.3366999e-05  -1.7556614e-04   6.0287141e-05  -8.8911351e-05  -2.6601010e-05  -4.2030701e-06  -7.5314536e-05   1.1075126e-05  -1.7254913e-04  -1.6464204e-04  -9.6052419e-05  -7.6630517e-05  -9.9705787e-05  -3.4121000e-05  -1.9988895e-05  -2.0255840e-04  -7.6450473e-05   1.4320490e-04   1.0737668e-04  -9.2099610e-05  -1.1761395e-04   1.0249073e-04  -3.3055441e-04  -1.3273540e-04  -1.7421898e-04  -2.3684997e-04  -1.1630305e-04   2.0630442e-04   4.8374527e-06  -1.8815020e-04  -1.5104357e-04  -1.4028829e-04  -1.5413892e-04  -1.5656732e-04  -2.8942147e-04  -3.4095955e-04  -1.6339515e-04  -1.7295915e-04  -2.9603567e-04  -2.7904651e-04
  -1.3880849e-04  -1.8132307e-05  -1.7480842e-04  -6.5248132e-05  -9.2421353e-05  -1.4674927e-04  -1.8062867e-04  -1.4850954e-04  -2.6663882e-04  -1.9534765e-04  -1.9954269e-04  -3.0636971e-04  -1.0021427e-04  -2.2080277e-04  -1.9866702e-04  -1.0236572e-04  -1.3102358e-04  -4.3412902e-06  -2.6776898e-04  -3.5221395e-04  -3.0555102e-04  -2.8018159e-04  -2.8612194e-04  -2.1631001e-04  -2.8041325e-04  -3.0824705e-04  -9.8319579e-05  -4.1399385e-06   4.9495673e-05  -1.8651194e-04  -1.5838590e-04   3.4620483e-05  -3.3833086e-04  -3.7732764e-04  -3.5119770e-04  -4.3390418e-04  -2.1812534e-04   1.3600975e-04  -3.3252902e-04  -4.0319929e-04  -6.6634046e-04  -2.9573237e-04  -3.9645541e-04  -5.7411683e-04  -7.4402848e-04  -5.0999795e-04  -3.6307625e-04  -4.4946623e-04  -7.0288923e-04  -6.2577659e-04
  -5.4887863e-04  -4.6027228e-04  -4.7164055e-04  -4.1274913e-04  -3.4767768e-04  -4.2689603e-04  -4.3617922e-04  -2.9813766e-04  -5.8270100e-04  -4.0271156e-04  -4.4377052e-04  -4.9982552e-04  -2.6335119e-04  -3.5843937e-04  -1.8904537e-04  -1.8817234e-04  -1.7716852e-04  -1.3906560e-05  -3.6969624e-04  -3.4486849e-04  -2.7613505e-04  -3.2887093e-04  -3.3024987e-04  -2.0793042e-04  -3.3210131e-04  -2.8794102e-04  -1.2170886e-04   2.7719414e-04   7.8775309e-05  -8.4699372e-05  -9.3291172e-05   3.0334424e-05  -4.3810269e-05  -2.2981950e-04  -2.4164862e-04  -1.8184789e-04  -1.3601026e-04   2.0589610e-04  -1.5670100e-04  -1.6149586e-04  -1.9322045e-04  -1.3588447e-04  -1.6216343e-04  -4.2988813e-05  -2.0545164e-04  -1.1900336e-04  -1.2319199e-04  -1.4054427e-04  -7.1618524e-05  -2.4132579e-04
   4.8576025e-05   2.4875480e-04  -3.1583004e-05   1.8560549e-04   1.0964360e-04   2.0095214e-04   1.5373144e-04   8.0595863e-05  -1.3879870e-06   2.2582006e-05  -2.9028521e-05  -1.3913421e-04   1.1529144e-04  -1.2591238e-04  -5.7194349e-05  -3.0166805e-06  -6.4401131e-05   2.6639162e-05  -4.6076439e-05  -1.0824842e-04  -1.0543400e-04  -7.1384551e-05  -6.4051244e-05  -1.4636598e-05  -7.4232041e-05  -1.7963847e-04  -7.8771642e-05   1.5058965e-04   1.2538950e-04  -9.9174285e-05  -3.5447863e-07   7.9278347e-05  -1.0745061e-04  -1.3191042e-04  -1.8944459e-04  -6.6288630e-05  -1.9351805e-04   2.3367863e-04  -4.1213832e-05  -6.0850958e-05  -2.2536519e-04  -1.1858696e-04  -3.1886640e-04  -1.9004293e-04  -1.6235589e-04  -4.3077604e-04  -8.7657390e-05  -9.6614625e-05  -1.2026104e-04  -2.7335953e-04
  -4.3698692e-05   1.1685474e-04  -8.3006540e-05   5.3876345e-05  -9.0126878e-06  -2.1808293e-05   1.7064714e-05  -9.9392550e-05  -1.3878765e-04  -8.8235487e-05  -1.0920220e-04  -2.2456075e-04   5.5248183e-06  -1.0479151e-04  -6.5313347e-05  -4.7529764e-05  -1.2273228e-04   1.4287386e-05  -2.3988266e-04  -2.3725478e-04  -2.3072799e-04  -1.6608035e-04  -1.7231615e-04  -9.7953656e-05  -1.3676705e-04  -2.0494319e-04  -1.6158432e-04  -8.6026695e-05   7.8193210e-05  -1.5406887e-04  -6.2246385e-05   9.5839234e-05  -2.9027078e-04  -2.7241395e-04  -2.1873758e-04  -3.2404580e-04  -2.8407990e-04   1.9900156e-04  -2.6057998e-04  -2.1001334e-04  -2.5793494e-04  -2.1817558e-04  -3.9091217e-04  -2.9517675e-04  -4.6374046e-04  -4.0857343e-04  -2.3561037e-04  -3.8576199e-04  -5.2226742e-04  -4.3787528e-04
  -3.7424479e-04  -3.1614487e-04  -3.5405110e-04  -2.8906830e-04  -2.5230899e-04  -3.4254676e-04  -3.5146126e-04  -2.8946277e-04  -5.1460712e-04  -3.3117778e-04  -3.6466133e-04  -4.4107487e-04  -2.0925826e-04  -3.3182072e-04  -2.5899985e-04  -2.0068110e-04  -2.6407948e-04   8.2645383e-06  -5.5238564e-04  -5.2024232e-04  -4.6770656e-04  -3.6878639e-04  -3.4689056e-04  -2.9931543e-04  -4.0664204e-04  -4.0640903e-04  -2.2430214e-04   1.0234716e-04   3.9517494e-05  -3.0391500e-04  -2.0738780e-04   3.7628099e-05  -7.5960980e-04  -5.8255187e-04  -5.3543103e-04  -6.6552899e-04  -3.3410135e-04   1.7025651e-04  -5.1223731e-04  -6.4805610e-04  -1.0545794e-03  -4.8289594e-04  -5.2557443e-04  -6.7070266e-04  -8.0038095e-04  -6.8886986e-04  -4.1447161e-04  -5.6847284e-04  -6.6111120e-04  -6.0338638e-04
  -4.3439073e-04  -2.7034481e-04  -3.2340040e-04  -1.2808020e-04  -1.5329359e-04  -1.2778484e-04  -8.4623163e-05  -9.2270398e-05  -2.1480191e-04  -1.4733560e-04  -2.3654825e-04  -3.2962445e-04  -5.5380926e-05  -2.8403048e-04  -1.9569749e-04  -1.1465354e-04  -1.3363427e-04   5.5125288e-06  -2.8380251e-04  -2.1411775e-04  -2.2324156e-04  -2.0781807e-04  -1.6291498e-04  -1.5297730e-04  -7.2083531e-05  -2.3430797e-04  -5.3994696e-05   5.8000074e-05   4.9325125e-05  -1.5757499e-04   5.9483151e-05   3.7334517e-05  -2.3263963e-05  -2.0111156e-04  -1.1813155e-04  -1.6992912e-04  -1.6139296e-04   2.3470148e-04  -8.0024358e-05  -2.4931585e-05  -2.2908108e-04  -1.6996276e-04  -1.6274997e-04  -1.3577766e-04  -1.8588474e-04  -2.6879122e-04  -1.4384862e-04  -1.6112119e-04  -1.5120972e-04  -2.9521552e-04
  -7.4141069e-05   1.2373521e-04  -1.1869835e-04   8.8505847e-05  -4.3734312e-06   3.0812225e-06   3.7884605e-05  -4.6697631e-05  -9.2205664e-05  -1.1078639e-04  -5.5842429e-05  -2.2455180e-04   2.8372458e-05  -1.3785363e-04  -9.0183901e-05  -5.4683431e-05  -5.2868905e-05   1.4253021e-07  -2.7187780e-04  -1.5204042e-04  -2.0709394e-04  -1.2541161e-04  -8.1328726e-05  -9.8698707e-05  -7.4505340e-05  -1.8415008e-04  -1.5100358e-04  -2.0241522e-04  -6.3744905e-05  -1.6061141e-04  -9.7850379e-06   9.4152681e-05  -2.0045419e-04  -1.6557635e-04  -2.4627088e-04  -1.8863486e-04  -2.3400293e-04   1.3774208e-04  -2.3087231e-04  -1.8600601e-04  -4.0709521e-04  -1.3590031e-04  -1.4686759e-04  -1.9970002e-04  -4.3850191e-04  -2.8835540e-04  -1.8502709e-04  -2.5038866e-04  -3.1487551e-04  -2.8399611e-04
  -1.8159499e-04  -5.4943313e-05  -2.1495293e-04  -9.4999901e-05  -1.4084665e-04  -1.9594877e-04  -1.8245030e-04  -2.1749813e-04  -2.7676340e-04  -2.5222742e-04  -1.8919144e-04  -3.4753399e-04  -1.4390887e-04  -2.2649838e-04  -1.6005727e-04  -1.3936566e-04  -1.3228052e-04  -2.1706262e-05  -3.1694846e-04  -3.3796550e-04  -3.9595089e-04  -3.0929883e-04  -2.2033033e-04  -1.7946982e-04  -4.0090916e-05  -2.8594781e-04  -2.2405773e-04  -2.0451864e-04  -7.7260323e-05  -2.5535948e-04  -1.0643813e-04   3.7458143e-05  -3.3475211e-04  -4.6385796e-04  -3.2122293e-04  -4.7329962e-04  -3.4186628e-04   6.1548672e-05  -2.4125677e-04  -3.4869762e-04  -2.9798306e-04  -3.9741618e-04  -2.3040942e-04  -4.0923076e-04  -7.1809796e-04  -7.3564902e-04  -3.7428344e-04  -4.2844695e-04  -7.0281676e-04  -5.8943086e-04
  -5.4062443e-04  -4.4748423e-04  -4.8504377e-04  -4.1012140e-04  -3.8365345e-04  -4.8411309e-04  -5.0859555e-04  -4.1417906e-04  -5.6522596e-04  -4.4718734e-04  -4.1896303e-04  -5.4641179e-04  -2.9691894e-04  -4.0689966e-04  -3.5491787e-04  -2.4358499e-04  -1.8656861e-04  -5.6420864e-05  -3.7797462e-04  -3.3917787e-04  -3.8108884e-04  -3.3120438e-04  -2.6594091e-04  -2.4357380e-04  -2.6221524e-04  -2.8517531e-04  -1.2348642e-04  -7.3177209e-05  -6.0289276e-05  -1.8716590e-04  -1.3187219e-05  -1.8829169e-05  -3.3673714e-04  -3.0130215e-04  -2.8452650e-04  -1.5238917e-04  -2.6229530e-04   7.3117233e-05  -9.2420130e-05  -1.5462871e-04  -8.6049968e-06  -2.0461789e-04  -2.1770368e-04  -1.9977821e-04  -2.6183488e-04  -3.1694162e-04  -1.7630649e-04  -1.9530577e-04  -8.1937200e-05  -2.5868739e-04
  -8.9268622e-05   1.5217940e-04  -1.1626382e-04   1.0008386e-04  -1.5192200e-05   4.4704502e-06   3.2476746e-05  -1.5600298e-04  -1.5472969e-04  -8.6415661e-05  -8.5332409e-05  -2.5551961e-04  -5.2132891e-05  -1.7918754e-04  -1.9767867e-04  -1.0739171e-04  -9.4891948e-05  -1.6498074e-05  -2.1659260e-04  -1.6834172e-04  -2.6120539e-04  -1.4121809e-04  -1.5024767e-04  -1.4306801e-04  -1.8363053e-04  -2.0706023e-04  -1.9762374e-04  -2.6179510e-04  -5.8061047e-05  -1.6868116e-04   3.9291059e-05  -9.0618769e-06  -1.1778290e-04  -1.1659627e-04  -1.5611877e-04  -1.6245784e-04  -3.8228213e-04   5.9907881e-05  -8.0549122e-05  -5.3911550e-05  -3.1414308e-04  -1.9238687e-04  -1.2596807e-04  -6.6055851e-05  -2.9409287e-04  -1.5448064e-04  -1.7476108e-04  -2.0819494e-04  -1.8333139e-04  -2.5376692e-04
  -1.7481601e-04   2.0187366e-05  -1.8195626e-04  -2.0210677e-05  -1.2851752e-04  -1.3753280e-04  -1.5971011e-04  -2.3910207e-04  -2.0180091e-04  -2.0493094e-04  -1.6533209e-04  -3.1189382e-04  -1.1385776e-04  -2.4619172e-04  -2.1963242e-04  -1.2702018e-04  -1.5071033e-04  -5.2455980e-05  -2.8603087e-04  -2.6134239e-04  -3.7388320e-04  -2.8405833e-04  -2.7178793e-04  -1.7631793e-04  -1.7986978e-04  -2.5432752e-04  -2.1885536e-04  -2.9421443e-04  -9.3463321e-05  -2.3382988e-04  -8.1851278e-05  -1.0791700e-05  -1.2408361e-04  -3.0174473e-04  -3.4997362e-04  -4.0922532e-04  -4.1363615e-04   8.8715678e-05  -2.7725557e-04  -3.4860102e-04  -3.9043816e-04  -2.3442463e-04  -6.1559236e-05  -4.8727726e-04  -5.8748422e-04  -5.8983685e-04  -2.8886512e-04  -4.0239160e-04  -5.5888976e-04  -5.2120903e-04
  -4.8092127e-04  -3.7442244e-04  -4.5429374e-04  -3.4429602e-04  -3.6297116e-04  -4.2836618e-04  -4.7320404e-04  -4.3105340e-04  -6.1571255e-04  -4.3180550e-04  -3.7373026e-04  -4.9632188e-04  -2.7204969e-04  -3.7872023e-04  -3.1579298e-04  -2.2332533e-04  -2.2324437e-04  -5.3062209e-05  -3.2464502e-04  -2.8808622e-04  -3.6286190e-04  -2.6320896e-04  -1.8815580e-04  -1.7052752e-04  -3.7585903e-04  -2.2573654e-04  -2.8652829e-04  -1.2792686e-04  -3.2356773e-05  -1.5023349e-04  -1.7301196e-05  -7.2306932e-05  -2.0738572e-04  -2.2578778e-04  -1.9066468e-04  -1.7027285e-04  -3.4429471e-04   1.6219026e-04  -1.0230198e-04  -1.5611280e-05  -2.7209591e-05  -8.9626628e-05  -7.3975381e-05   9.9705059e-05  -2.6980418e-04  -2.9595438e-04  -5.6974517e-05  -1.8133429e-05   4.5987148e-05  -1.3799676e-04
   5.2698095e-05   2.6389826e-04  -3.5768204e-05   2.2423887e-04   8.9009234e-05   1.3964297e-04   1.6959390e-04  -1.1988158e-04   2.2674624e-07   8.4570829e-06   2.9326620e-05  -1.2831388e-04   7.8222773e-05  -9.6451360e-05  -1.0821469e-04  -1.8977242e-05  -9.0705500e-05  -7.5814501e-06  -4.6494783e-06  -3.5417554e-05  -1.6769771e-04  -6.2862033e-05   1.3288686e-05   2.2444616e-05  -6.2625542e-05  -9.6792595e-05  -1.1534335e-04  -2.5257847e-04  -1.2001045e-05  -1.3200795e-04   5.8564499e-05   7.1011120e-05   9.5064141e-05  -3.7473510e-05  -7.3473624e-05  -1.2231104e-04  -3.8613856e-04   2.0441890e-04  -8.8221997e-05   9.7117678e-05   2.9272435e-04   3.4386234e-05   9.3235058e-06   4.6712298e-06  -1.7812780e-04  -2.6048676e-04  -1.2258578e-05   3.8096605e-05   2.4148330e-05  -1.3935527e-04
   7.2373232e-06   1.4699172e-04  -6.7557870e-05   1.1232997e-04  -2.8328604e-05  -1.7909931e-06  -4.8471097e-06  -2.1499305e-04  -8.6050139e-05  -1.1197651e-04  -3.5050823e-05  -1.9465413e-04   1.7455244e-05  -1.4669918e-04  -1.5419284e-04  -4.9771890e-05  -9.4519492e-05  -4.0037498e-06  -1.3526053e-04  -1.2770417e-04  -2.9062515e-04  -1.0220650e-04  -6.3902095e-05  -6.8504836e-05  -1.1275047e-04  -1.6393227e-04  -9.1290887e-05  -3.3982177e-04   7.4133541e-06  -1.9883209e-04  -3.8129472e-06   1.9683497e-04  -5.4282966e-05  -1.7022464e-04  -2.0030190e-04  -3.7200714e-04  -5.1649002e-04   1.5894078e-04  -2.2747079e-04  -1.1377312e-04  -4.9914181e-04  -1.0117346e-04  -7.3593743e-05  -3.9469995e-04  -4.1738932e-04  -3.6626309e-04  -1.5405071e-04  -1.7871826e-04  -3.7668835e-04  -4.3417353e-04
  -3.2875035e-04  -2.3480748e-04  -3.2763463e-04  -1.9169993e-04  -2.4174487e-04  -3.7742735e-04  -3.7265860e-04  -3.4020052e-04  -4.8289960e-04  -3.5760793e-04  -2.4805745e-04  -3.8397236e-04  -2.0496367e-04  -3.3911300e-04  -2.4307023e-04  -1.9758365e-04  -2.7469941e-04  -7.2398863e-05  -3.7255589e-04  -4.1700897e-04  -5.2836566e-04  -3.2165265e-04  -3.4703620e-04  -2.3778301e-04  -2.8970186e-04  -3.2512067e-04  -2.7710939e-04  -2.2128073e-04  -1.9866082e-05  -3.1762623e-04  -1.0679709e-04  -3.2894113e-05  -2.1862364e-04  -3.3054480e-04  -3.3463581e-04  -3.0627986e-04  -3.2069421e-04   1.4349005e-04  -2.1666489e-04  -2.0710858e-04  -8.5851592e-05  -1.1485605e-04  -1.0623119e-04  -8.6214553e-05  -2.0955685e-04  -3.9190726e-04  -2.1963511e-05  -2.6992391e-05   8.7821179e-05  -1.2622711e-04
   5.6951252e-05   2.5175273e-04  -3.0054587e-05   2.2442253e-04   9.6146810e-05   1.2894264e-04   1.6597152e-04  -1.5034385e-04   5.4562297e-05   1.3426566e-05   6.2692910e-05  -8.7334251e-05   1.0174893e-04  -5.5360229e-05   4.1899502e-06   3.5056783e-05   3.1363170e-06   7.6561810e-06   1.0587490e-04   8.4528234e-05  -1.0408031e-04   1.1957849e-04   1.3029651e-04   9.7348602e-05  -3.2206684e-05   1.4608813e-05  -8.9453322e-05  -2.2711600e-04   3.7397138e-05  -8.9684836e-05   1.4215522e-04   1.9654026e-04   8.5734609e-05   3.2230899e-05  -6.2459694e-05  -5.2659820e-05  -3.1126212e-04   2.3585834e-04  -4.2169122e-05  -1.8104101e-05   9.3032817e-05   4.6715527e-06   1.1159777e-04   1.5487165e-04  -1.0837032e-04  -1.3537412e-04   1.0940845e-04   1.0574003e-04   2.0932697e-04  -5.8116100e-05
   1.8200798e-04   3.0398843e-04   4.7308065e-05   2.5440953e-04   8.2396546e-05   1.4450340e-04   1.4701625e-04  -1.3923206e-04   1.4100558e-04  -3.0262373e-07   1.2303313e-04  -4.2517764e-05   1.4997947e-04  -6.2386454e-05  -8.3134228e-06   4.6950783e-05  -1.4237051e-05   2.2747474e-05   7.1438728e-05   6.5947308e-05  -1.7363025e-04   1.0425597e-04   3.3178385e-05   1.3892679e-04   1.0746685e-04  -1.7731754e-05  -6.5065127e-05  -4.3390671e-04   6.5040455e-05  -1.1647881e-04   3.8750833e-05   2.5578792e-04   3.2105303e-04  -3.1349395e-05  -1.5825870e-04  -1.3869604e-04  -2.4999454e-04   2.1131638e-04  -8.1578910e-05  -4.6953439e-05  -1.9268016e-04   2.3550127e-05   4.0130191e-05  -1.2236759e-04  -2.0801451e-04  -1.8285925e-04   4.0989293e-05   2.7306702e-05  -8.7597895e-05  -1.8423774e-04
  -9.7156553e-05  -2.1747046e-05  -1.6493624e-04  -1.9788684e-05  -1.2132700e-04  -2.4251911e-04  -1.7815022e-04  -3.1587671e-04  -1.5050253e-04  -2.3509015e-04  -6.7357323e-05  -2.2659919e-04  -8.5640626e-05  -2.2939334e-04  -1.3311960e-04  -9.6276555e-05  -1.4998058e-04   2.3467310e-05  -2.3443595e-04  -1.8199487e-04  -4.0645443e-04  -8.7897373e-05  -1.5062559e-04  -5.8964459e-05  -1.6098455e-04  -1.8126072e-04  -2.1391251e-04  -3.6606268e-04  -1.1066093e-05  -2.4180417e-04  -9.9108176e-05   9.0864050e-05  -9.9259196e-05  -2.3911052e-04  -2.9250712e-04  -2.7082700e-04  -3.7836767e-04   1.5097471e-04  -3.8688272e-04  -3.6826960e-04  -1.9162368e-04  -1.5340727e-04  -4.9656366e-05  -5.3321884e-04  -4.8708220e-04  -6.4026279e-04  -1.3789309e-04  -2.0796605e-04  -2.7859604e-04  -4.1404032e-04
  -1.9952007e-04  -9.4821546e-05  -1.7310960e-04   2.7656923e-05  -2.6951693e-05  -1.7418937e-05   6.1454607e-06  -2.1918830e-04   6.4008702e-05  -8.2149301e-05   2.6476442e-05  -1.4744127e-04   8.5600863e-05  -1.5120971e-04  -1.1144819e-04  -1.8038496e-05  -3.6326397e-05   1.5282387e-05   1.1114771e-04   7.0958798e-05  -1.7464525e-04   8.4343184e-05   9.9622048e-05   1.0590424e-04   7.0990354e-05  -4.1855499e-05  -1.1700428e-04  -2.1219402e-04   5.7267614e-05  -1.0193272e-04   1.0147221e-04   1.9535414e-04   1.1243855e-04   4.2615466e-05  -3.8837974e-05  -1.1234113e-04  -1.8292651e-04   2.9201660e-04  -1.5240206e-04   1.2869290e-04   4.5818742e-04   1.4044807e-04   4.4569551e-05   2.9604905e-04   1.4220651e-04  -1.3484060e-06   1.7524081e-04   3.2553420e-04   3.2571066e-04   3.2904536e-05
   2.1155448e-04   3.4622152e-04   6.2985433e-05   3.1518095e-04   1.4539779e-04   1.9739028e-04   1.5683263e-04  -7.6820768e-05   1.5830224e-04   3.0710824e-05   1.7491616e-04   1.3394101e-05   2.0969051e-04  -5.5325050e-05   5.0958803e-05   5.4633620e-05   3.5999099e-05   8.1050246e-05   1.2891086e-04   1.6068407e-04  -1.4079682e-04   1.8724841e-04   2.0576388e-04   1.8049286e-04   1.8502159e-04   5.8906953e-05  -1.7657085e-05  -4.2720704e-04   9.6899785e-05  -1.0758007e-04   1.8853588e-04   2.0730855e-04   3.9335020e-05   1.6016238e-04  -1.4288478e-05   6.3408741e-05  -3.9995587e-04   2.4083824e-04   8.2162202e-05   5.2445965e-05   5.5000233e-05   1.0057452e-04   2.6052311e-04   1.3501543e-04  -4.1097205e-06   1.6414310e-04   1.1983732e-04   1.6849089e-04   1.2943086e-04  -1.9123667e-05
   5.4155946e-05   1.4292239e-04  -4.0608636e-05   1.4413997e-04  -2.4768309e-05  -5.2385327e-05  -3.1027637e-05  -1.7946977e-04  -6.6288078e-05  -1.4332295e-04   5.0430783e-05  -1.1103803e-04   5.4826502e-05  -1.3921534e-04  -1.1629969e-04  -2.1550783e-05  -2.7662611e-05   7.0095550e-05  -6.2148501e-05  -2.8793809e-05  -3.4690162e-04   6.4314154e-05  -1.7417866e-05   4.9224589e-05  -2.3573637e-05  -5.7477650e-05  -1.5232743e-04  -4.8254183e-04   1.5672396e-05  -1.8377269e-04   3.7434482e-05   1.4751601e-04  -6.0535476e-06  -2.2707842e-05  -1.1993525e-04  -2.6413461e-04  -3.4127588e-04   1.8255216e-04  -2.2800741e-04  -5.5878331e-06  -2.8190317e-04  -6.7448767e-05   6.2338727e-06  -3.6813298e-04  -3.2850113e-04  -2.1127117e-04  -7.3207622e-05  -1.1987006e-04  -2.3485669e-04  -2.7192550e-04
  -2.9011190e-04  -2.4571741e-04  -3.1514757e-04  -1.8666314e-04  -2.3371557e-04  -2.9435899e-04  -3.1546431e-04  -3.6823103e-04  -3.3925433e-04  -3.8431602e-04  -1.9453290e-04  -3.3815837e-04  -1.2988719e-04  -2.8809064e-04  -2.8016360e-04  -1.7518898e-04  -2.2537631e-04   4.7595327e-06  -3.7065553e-04  -3.2285176e-04  -5.6099449e-04  -1.9768272e-04  -1.7474589e-04  -1.1677691e-04  -1.0278464e-04  -2.3230501e-04  -1.9035030e-04  -3.6168334e-04   4.0765091e-05  -3.1741895e-04  -2.4111205e-05   1.1118265e-04   6.9136346e-05  -1.5144818e-04  -1.9047734e-04  -1.6301946e-04  -3.1326656e-04   2.3337707e-04  -1.4767739e-04   4.8037713e-05  -3.4337707e-05  -7.4476877e-05   1.0220627e-04   2.1434424e-04   3.5028461e-05   1.7128883e-05   4.5049663e-05   6.1747734e-05   1.9969564e-04  -5.5730849e-05
   6.5491564e-05   2.7091618e-04  -3.0241266e-05   2.8499504e-04   1.0761237e-04   9.9934943e-05   1.7909192e-04  -1.3515752e-04   1.1538851e-04  -4.0606097e-05   1.3638723e-04  -3.9729384e-05   1.7108287e-04  -1.0971776e-04  -4.5740278e-05  -1.3220117e-07  -2.9644703e-05   1.7382181e-05   3.2373331e-04   1.0829019e-04  -2.1498377e-04   1.4166160e-04   1.7279890e-04   1.2391675e-04   1.7211270e-04  -1.5387594e-05  -1.2149341e-04  -4.6988323e-04   2.9672810e-05  -1.6522259e-04   1.7951643e-07   2.5329465e-04   2.1747289e-04  -9.0478781e-05  -2.2279470e-05  -3.5749450e-05  -4.5908018e-04   2.5280094e-04  -7.1213944e-05   1.4405038e-04   1.2733458e-04   8.5211788e-05   2.1663493e-04  -9.8238583e-05  -1.4297962e-05  -1.3948586e-04   8.9207002e-05   1.4721430e-04   2.8550287e-04  -1.1781293e-05
   5.7443776e-05   2.4467113e-04  -5.2694395e-05   2.4388533e-04   4.0814652e-05   1.7886179e-05   8.3112471e-05  -1.1486371e-04   1.3207464e-04  -1.0904219e-04   1.1604045e-04  -7.3128249e-05   8.3328297e-05  -1.1243787e-04  -1.5601672e-05  -3.4108900e-05  -8.3986975e-05  -1.7426964e-05   8.4769919e-05   1.5845784e-05  -2.9497655e-04   6.9574198e-05   1.3028611e-04   1.1939309e-04  -1.1123601e-05  -1.0005656e-04  -1.5755037e-04  -5.9812097e-04  -3.6769612e-05  -1.7712200e-04  -9.8876308e-06   1.2100908e-04   9.4245239e-05  -7.2741888e-05  -1.2838833e-04  -1.7635855e-04  -3.4742543e-04   2.3353568e-04  -1.8267134e-04   3.5952009e-05   3.0754859e-04  -4.7074911e-05   8.5973894e-05  -2.1065690e-04  -1.5349760e-04  -3.5547683e-04  -1.4194648e-05  -8.8715897e-05  -5.1169700e-05  -2.5256193e-04
  -2.3306093e-04  -1.0873027e-04  -2.6679906e-04  -3.2799824e-05  -1.6847062e-04  -2.2234827e-04  -1.8454081e-04  -3.5080069e-04  -1.6763758e-04  -3.4532914e-04  -1.1548874e-04  -2.7194741e-04  -1.0068082e-04  -2.7730447e-04  -3.0301834e-04  -1.5534072e-04  -2.1269092e-04  -3.0947853e-05  -8.8738256e-05  -1.7888797e-04  -4.4892167e-04  -9.4323732e-05  -1.1315369e-04  -8.7121140e-07  -5.8604066e-05  -1.7031589e-04  -1.6637295e-04  -4.0166199e-04  -1.8656780e-05  -1.9907211e-04   2.4422470e-05   1.3214070e-04   3.5297704e-05  -7.9448080e-05  -9.1745838e-05  -1.5277138e-04  -2.5175620e-04   2.3445355e-04  -2.7259174e-04   9.4822717e-05   5.3667536e-05   7.0532362e-05   1.1037670e-05   1.1532344e-04   1.2497318e-05  -6.4561609e-05   5.6942230e-05   1.0188975e-04   3.9738315e-04   4.1166983e-05
   1.1954655e-04   3.3329873e-04   2.3041666e-05   3.6703181e-04   1.2788783e-04   2.1596006e-04   2.1439545e-04  -8.7833963e-05   2.2607757e-04  -1.9367195e-05   2.0205764e-04   1.3002261e-05   2.1368277e-04  -2.6060176e-05  -4.8712929e-05   1.1444558e-05  -3.9581249e-05   1.0248658e-05   3.1879140e-04   1.4124998e-04  -1.9666388e-04   1.5755525e-04   2.1482950e-04   2.0904826e-04   1.6189211e-04   2.6294301e-05  -1.2085204e-04  -4.3519403e-04  -1.4091310e-05  -1.3388800e-04   1.2530705e-04   1.9251146e-04   2.5076733e-04  -1.1446768e-06  -5.2438350e-05   8.8250890e-05  -4.1625489e-04   2.8541373e-04  -1.5806731e-04   2.5093186e-04   1.3427032e-04   8.8049368e-05   2.1982702e-04   1.6315209e-04   1.2881047e-04  -3.3375961e-04   1.0622096e-04   2.2097163e-04   2.8655288e-04   2.4781892e-05
   3.4824789e-05   2.1207395e-04  -4.1300827e-05   2.3538595e-04   1.9845666e-05  -1.5796757e-05   6.5476343e-05  -2.0597110e-04   9.8382741e-05  -1.3062448e-04   1.1457948e-04  -7.1364128e-05   1.4590402e-04  -8.0927923e-05   9.3566123e-06  -3.2980050e-05  -7.7678262e-05   7.7079676e-06   2.8320577e-04   1.0748762e-05  -3.1362992e-04   5.8144193e-05   1.7231722e-04   8.2633407e-05  -1.0413157e-04  -9.4268049e-05  -1.3810872e-04  -4.8942887e-04  -1.5043207e-05  -1.8571583e-04   7.6187989e-06   1.3927619e-04   1.1808141e-04  -6.1875617e-05  -2.0295741e-04  -1.8396560e-04  -3.6826561e-04   2.3723822e-04  -3.0793733e-04  -1.0916742e-05  -4.0341871e-05  -9.2648668e-05   4.9252420e-05  -2.0492068e-04  -2.2768430e-04  -4.4329866e-04  -7.6002791e-05  -8.2952087e-05  -1.1308359e-04  -2.0932837e-04
  -3.2198269e-04  -2.0538665e-04  -3.1326746e-04  -1.1257975e-04  -2.4719897e-04  -3.2611479e-04  -2.1974300e-04  -4.0292030e-04  -3.4924495e-04  -3.7613750e-04  -1.6189407e-04  -3.2018052e-04  -1.0983503e-04  -2.8752247e-04  -1.6304934e-04  -1.7409863e-04  -1.4737702e-04  -6.2395652e-06   9.6593845e-05  -1.0698743e-04  -3.9952312e-04  -1.8455718e-05  -3.5154301e-06   1.3786866e-05  -4.0166833e-05  -1.4604673e-04  -1.1845034e-04  -3.0525742e-04  -2.8251685e-05  -1.3713430e-04   7.0446273e-05   1.2113342e-04   1.3016179e-04   5.5171942e-05  -2.6565611e-05   3.9822196e-05  -2.1629156e-04   2.3665922e-04   5.6510282e-05   6.4247528e-05   3.9341621e-04   1.1253776e-04   1.3084743e-04   3.8334573e-04   2.2991323e-04   6.5931992e-05   9.2011716e-05   2.2271025e-04   4.0719175e-04   2.0643040e-04
   1.6904950e-04   3.7988153e-04   6.9208378e-05   4.0902692e-04   1.9590645e-04   2.6196041e-04   3.1968291e-04  -4.1370193e-05   2.2450247e-04   5.8158515e-05   2.5152543e-04   6.9660942e-05   2.6472920e-04  -6.0370967e-06   5.9312199e-05   3.5977802e-05   4.4948592e-05   1.8000663e-05   3.8248362e-04   2.2851294e-04  -9.7849290e-05   2.4206640e-04   2.7223406e-04   2.4037452e-04   8.5368665e-05   5.3702010e-05  -1.3080519e-04  -4.3024105e-04   4.1488835e-05  -8.2976105e-05   1.2970013e-04   1.5367950e-04   3.5513003e-04   1.3077067e-04   8.9982481e-05   1.5476668e-04  -2.0636183e-04   2.7858134e-04   1.0786646e-04   2.3204662e-04   3.5477889e-04   1.7809152e-04   3.3760816e-04   1.0364022e-04   1.8692669e-04  -8.6834421e-05   1.8212282e-04   3.6556827e-04   4.1189778e-04   2.3711166e-04
   9.9939323e-05   3.0657052e-04   2.0823767e-05   3.2330939e-04   6.2756029e-05   1.3339297e-04   1.7000851e-04  -1.3808382e-04   7.5897711e-05  -4.9640144e-05   1.8649689e-04   1.4443692e-05   2.2710975e-04  -7.1151997e-05  -1.6885964e-05  -1.5049566e-05  -1.0605449e-06   1.3007092e-05   3.6076800e-04   1.2971509e-04  -2.0464328e-04   1.6264711e-04   1.3494429e-04   1.5743804e-04   2.0529689e-05  -1.4554891e-05  -6.2771673e-05  -5.3122890e-04  -8.9621471e-06  -1.2248830e-04   3.1359195e-05   1.7011110e-04   1.0127088e-04   4.7642137e-05  -6.1250976e-05  -7.7808392e-05  -3.7737438e-04   1.9138528e-04  -1.1100675e-04  -3.1290285e-05  -1.4820728e-04   4.3564080e-05   4.4541124e-05   8.4916919e-06  -4.1418902e-05  -2.0877937e-04  -1.3254801e-05   1.4304921e-04   4.1337495e-05  -1.1459696e-04
  -2.1875709e-04  -7.8181794e-05  -2.3269173e-04  -5.2984260e-06  -1.5140182e-04  -2.1984953e-04  -1.4090649e-04  -2.9518016e-04  -2.4338125e-04  -2.9658669e-04  -6.6980218e-05  -2.2168265e-04  -2.3254399e-05  -1.9620496e-04  -1.4235599e-04  -1.5081401e-04  -1.7005329e-04  -1.4574794e-05   9.0129943e-05  -7.0153001e-05  -3.3254785e-04   3.2126576e-05   6.9489790e-05   4.7598325e-05  -1.7573198e-05  -1.0710956e-04  -1.5071823e-04  -2.8740359e-04  -6.1827501e-05  -1.0695174e-04  -1.8087296e-05   1.1523623e-04   1.6639524e-04   1.3693473e-05   3.7361287e-06   1.1761104e-04  -1.4521796e-04   2.5114755e-04   6.8230023e-05   4.1568841e-04   3.6420336e-04   1.3737206e-04   2.8569257e-05   2.6533197e-04   1.9011545e-04  -4.3969958e-05   1.6289443e-04   3.3184487e-04   5.9440627e-04   3.1668667e-04
   2.5079318e-04   4.5905478e-04   1.2513259e-04   4.8235798e-04   2.4751955e-04   3.0821189e-04   3.8958635e-04  -2.1284797e-05   3.3231286e-04   1.2888221e-04   3.2324262e-04   1.4878779e-04   4.0417057e-04   5.9397884e-05   1.3373034e-04   6.1622661e-05   4.7175781e-05   1.4814011e-05   5.9296441e-04   3.2342214e-04   8.8813485e-06   3.2919741e-04   3.6872676e-04   3.4026906e-04   2.4008148e-04   1.4490019e-04  -1.0113036e-04  -3.8407472e-04   7.6338161e-05  -4.0719191e-05   2.0819392e-04   2.4090242e-04   2.9869154e-04   2.1006190e-04   1.2431628e-04   3.4923636e-04  -1.2724637e-04   3.0521274e-04   1.2333693e-04   3.6359971e-04   3.0618309e-04   2.4081831e-04   3.3147831e-04   1.7634606e-04   3.0818986e-04  -1.3393742e-05   2.1286968e-04   4.0405642e-04   5.8195763e-04   2.8830758e-04
   1.9702023e-04   4.1143550e-04   6.8464127e-05   4.0538641e-04   1.3212831e-04   1.8243685e-04   2.6592467e-04  -6.9121452e-05   2.6391365e-04   3.1079173e-05   2.7765773e-04   1.0039606e-04   2.8524059e-04   5.2575197e-06   7.0405054e-05   2.2068449e-05   3.5529065e-06   1.2232147e-05   3.6413106e-04   2.1194016e-04  -8.3949169e-05   2.3845094e-04   2.8815772e-04   2.9550109e-04   1.7423250e-05   9.3918323e-05  -1.9789073e-05  -4.8008829e-04   1.6447768e-05  -7.7334080e-05   7.5525335e-05   1.7304346e-04   2.4655991e-04   1.2429197e-04  -4.2938379e-07   7.7670767e-05  -1.9243585e-04   2.2372199e-04   6.5584318e-05   1.5250900e-04   2.4584396e-04   6.3803258e-05   2.4223360e-04   3.3690696e-05   1.2726638e-04  -7.5263728e-05   7.0194008e-05   2.3186264e-04   1.6116112e-04   1.5935060e-04
  -9.9797391e-05   5.1404822e-05  -1.6140148e-04   1.0435891e-04  -7.1856994e-05  -9.6110096e-05  -8.4992040e-05  -2.7031216e-04  -8.0562713e-05  -2.1147582e-04   4.7506823e-05  -1.1167906e-04   5.7815043e-05  -1.4393283e-04  -9.3342300e-05  -1.0406211e-04  -1.1095841e-04  -2.2305715e-06   2.8521771e-04  -3.5332356e-05  -2.8238949e-04   8.7341214e-05   1.9082533e-04   9.8267818e-05   1.5841040e-04  -2.0000229e-05  -1.8213574e-04  -3.3979630e-04  -7.9519348e-05  -1.1647322e-04  -3.4794346e-05   9.0150454e-05   1.8291755e-04   2.4118674e-05   7.4904798e-05   4.7769649e-05  -8.8841436e-05   2.5713968e-04   1.4167336e-04   3.4975726e-04   1.7803969e-04   1.5671983e-04   2.9844418e-04   2.0447467e-04   2.6662578e-04  -1.9438530e-05   1.6909993e-04   3.4935464e-04   6.0233334e-04   3.7953773e-04
   2.8040548e-04   5.1112444e-04   1.3563111e-04   5.1586010e-04   2.7605498e-04   3.4809342e-04   4.3793218e-04   2.9938823e-05   4.4256286e-04   1.6000096e-04   3.6126384e-04   2.0394876e-04   4.0712100e-04   1.2786018e-04   1.8218356e-04   8.6909095e-05   5.8749985e-05   2.3038430e-05   6.8432302e-04   3.5491528e-04   6.1820581e-05   3.5266421e-04   3.9306798e-04   3.7549631e-04   3.5063643e-04   1.9447450e-04   1.1290025e-05  -3.6578623e-04   1.4936423e-05   5.4775887e-07   1.9361527e-04   2.3602281e-04   2.1384929e-04   2.4033022e-04   2.4905347e-04   3.8261715e-04  -3.4269655e-05   2.8597846e-04   3.1145196e-04   3.3173896e-04   4.0183062e-04   2.5216606e-04   5.5714260e-04   3.7661855e-04   3.6365667e-04   3.9223843e-04   2.3996957e-04   4.1830013e-04   5.8868906e-04   4.6453215e-04
   2.4708963e-04   4.6226985e-04   8.7045548e-05   4.5576910e-04   1.5915054e-04   2.4072047e-04   3.7267769e-04   2.2072723e-05   3.5016850e-04   5.7597405e-05   3.3187371e-04   1.4665186e-04   3.4540237e-04   1.3564932e-04   1.5774055e-04   6.6911205e-05   2.7069530e-06   3.5558173e-06   4.7696722e-04   2.3711679e-04  -3.9893232e-05   2.7521819e-04   3.2961418e-04   2.9436738e-04   2.1583645e-04   1.2334983e-04  -8.4753672e-05  -4.4954932e-04  -6.2306381e-06  -2.1989898e-05   4.8548736e-05   1.9023987e-04   2.3635912e-04   8.9441790e-05   2.1805929e-05   2.6314121e-04  -1.6269344e-04   2.0142327e-04   9.5493291e-05   2.2316085e-04   1.2039549e-04   3.9646260e-05   1.6065233e-04  -9.5714247e-05   2.8399247e-04   1.6271788e-05   8.5000676e-05   2.4329266e-04   2.8137342e-04   2.2335873e-04
  -4.8708534e-05   1.3721740e-04  -1.4803241e-04   1.6964259e-04  -4.4149674e-05  -2.8392758e-05   4.6078359e-05  -1.4529657e-04  -3.2701550e-06  -1.7344074e-04   9.8320634e-05  -6.0262457e-05   1.0459795e-04  -8.5461994e-05   1.1996652e-05  -6.4021231e-05  -9.7600154e-05  -1.3931312e-05   4.2362497e-04   7.2754934e-05  -1.1709383e-04   1.6243265e-04   2.0971769e-04   2.4106140e-04   1.8512452e-04   7.2757910e-05  -8.1840466e-05  -3.3529988e-04  -1.1885661e-05   7.4200796e-07   9.2427646e-05   1.9331266e-04   2.2241102e-04   1.6017751e-04   2.1566568e-04   2.2721440e-04  -1.2586429e-04   2.5056646e-04   2.0858357e-05   3.6070304e-04   2.0822954e-04   1.9860669e-04   4.4974018e-04   4.3583964e-04   3.5901612e-04   7.4503994e-05   2.2399181e-04   3.1798973e-04   7.2928180e-04   4.9761945e-04
   3.4046278e-04   5.6508073e-04   1.3990798e-04   5.5352569e-04   2.8967435e-04   3.9507850e-04   5.0357572e-04   1.2068796e-04   4.4835519e-04   1.3778813e-04   3.9684697e-04   2.0921894e-04   4.2836263e-04   1.7082872e-04   2.5079699e-04   8.6275708e-05   9.0445919e-06   5.6305148e-06   6.9404877e-04   2.7932294e-04   6.1036488e-05   3.2851065e-04   4.1582508e-04   3.9454154e-04   2.2963683e-04   2.6460475e-04  -3.4046287e-05  -3.5700965e-04   7.8607220e-05   5.0838655e-05   6.8920839e-05   1.7650941e-04   2.5975369e-04   1.7367651e-04   1.9186150e-04   2.5965180e-04  -1.6295289e-04   2.8636560e-04   6.0605333e-05   3.9922871e-04   4.4129413e-04   2.7144881e-04   1.9901873e-04   4.1836672e-04   3.5365886e-04   2.3053773e-04   2.4348570e-04   3.6765382e-04   6.0920505e-04   4.8993988e-04
   2.4210685e-04   4.3045657e-04   5.1100342e-05   4.1596664e-04   1.5802751e-04   2.5428823e-04   3.1397707e-04  -4.1870033e-05   3.5633030e-04  -2.0464092e-06   3.0450331e-04   1.1745011e-04   3.2957824e-04   6.3718093e-05   1.2212279e-04   5.3502688e-05  -6.1593768e-05   7.2283342e-07   4.1433665e-04   1.3639293e-04  -6.7917725e-05   1.5161856e-04   2.7064615e-04   2.8163707e-04   3.3050650e-04   8.4103391e-05  -4.3791541e-05  -3.3864976e-04  -3.2861999e-07  -3.5491496e-05  -2.7681728e-05   4.6196095e-05  -5.3807830e-06   5.4879107e-05   4.5378132e-05   1.0075860e-04  -1.2486236e-04   2.4737470e-04   1.0812415e-04   1.2146264e-04  -9.2072012e-05   6.5145148e-05   2.4858266e-04   2.0364112e-04  -1.3596647e-05  -2.1206371e-04   8.4983818e-05   5.7307410e-05   2.3064618e-04   1.1432860e-04
  -6.5092361e-05   3.1435811e-05  -2.0513283e-04   9.3839983e-05  -6.2031846e-05  -6.6699045e-05   2.6934646e-05  -1.9264031e-04  -9.6978974e-06  -2.4075326e-04   6.7753237e-05  -1.0168043e-04   1.2488528e-04  -3.0476234e-05  -2.6534968e-05  -4.0773662e-05  -1.3317203e-04  -2.6331338e-05   4.0467145e-04   8.8522582e-05  -5.3583834e-05   1.1002184e-04   3.3103430e-04   2.4645592e-04   2.5156394e-04   4.8272635e-05   2.0155533e-06  -1.3484855e-04   3.8526745e-05   3.7970811e-05   4.1467847e-06   1.1181994e-04   1.0159847e-04   1.7342529e-04   2.4982661e-04   2.5840345e-04   8.8992811e-06   2.8858497e-04  -1.5447429e-05   4.6896716e-04   7.4870890e-04   1.7695499e-04   3.8037924e-04   1.6366455e-04   4.9496192e-04   4.1861218e-04   2.2439427e-04   3.2931293e-04   7.8123860e-04   5.3518848e-04
   4.6046975e-04   6.1642914e-04   1.8906164e-04   5.8980321e-04   3.6785912e-04   5.0974224e-04   5.9271837e-04   2.1652090e-04   4.2377156e-04   1.4062616e-04   4.2928272e-04   2.2854278e-04   4.1688967e-04   2.5492909e-04   1.9665202e-04   1.4436690e-04  -3.4434577e-06   2.1473026e-05   5.2670331e-04   2.4805739e-04   9.6980293e-05   2.6237842e-04   4.2635281e-04   3.8602052e-04   2.9758076e-04   2.6475763e-04   5.3059674e-05  -2.2574069e-04   1.2544428e-04   9.7073535e-05   1.6886444e-04   2.2110481e-04   2.7571028e-04   1.2628130e-04   2.5119528e-04   1.7909985e-04   5.0944709e-05   2.8104751e-04   2.7155248e-04   4.8852770e-04   3.0891225e-04   2.0880817e-04   3.5296040e-04   3.5565664e-04   5.0377031e-04   1.9477541e-04   2.1161627e-04   2.8420860e-04   6.5092958e-04   4.2676739e-04
   3.3048380e-04   4.7309377e-04   9.7346587e-05   4.2668779e-04   2.0942756e-04   2.5662355e-04   3.9014919e-04   5.1477029e-05   2.6663695e-04   3.3543656e-06   3.0768095e-04   1.1217216e-04   3.1564728e-04   1.3015093e-04   1.2339387e-04   7.4853473e-05  -5.1958472e-05  -8.0985919e-06   3.9569999e-04   9.9383316e-05  -5.1007704e-05   1.4664246e-04   2.6215322e-04   2.5658062e-04   1.7828279e-04   1.4987907e-04   2.8661764e-06  -2.3302193e-04   9.4534516e-06   3.3733959e-05  -5.6744109e-05   1.1535086e-04   1.2374188e-04   4.9704067e-05   1.4271290e-04   1.8296383e-04  -7.8078046e-05   1.8194529e-04   5.7770251e-07   1.9298140e-04   1.1473014e-04   1.7932856e-05   3.4926418e-04  -4.4403147e-05   1.9467382e-04  -1.2071226e-04   3.1288528e-05   6.5554828e-05   1.7855040e-04   1.7024133e-04
  -7.9390365e-06   5.6567143e-05  -1.6315687e-04   8.3713137e-05  -4.8607755e-05   9.7476886e-06   2.3339962e-05  -7.4624266e-05  -7.8559417e-05  -2.8096486e-04   1.8690138e-05  -1.6646556e-04   6.9645168e-05  -6.1608982e-05  -3.5032717e-05  -7.1158458e-05  -1.6560861e-04  -4.5473134e-05   1.7497440e-04  -1.5453865e-04  -2.1971081e-04  -8.4346160e-05   1.5314999e-04   4.6752764e-05   5.1925777e-05   1.4437600e-05  -6.7615285e-05  -9.2706439e-05  -3.2005748e-05   4.5116434e-05  -7.6585078e-05   3.8929778e-05  -9.8941027e-06   5.1603150e-05   1.6780430e-04   2.3480797e-04   1.0607764e-04   1.1631592e-04   1.8670241e-04   3.3190942e-04   7.2423258e-04   1.4136882e-04   3.0638013e-04   1.9162109e-04   3.9294842e-04   1.7125071e-04   9.1018796e-05   2.3218819e-04   6.0293532e-04   4.6624738e-04
   4.0094191e-04   5.5214419e-04   1.5475811e-04   4.8969925e-04   3.3594511e-04   4.9255398e-04   4.8824065e-04   2.2671238e-04   4.7608186e-04   8.3153609e-05   3.4370649e-04   1.1557826e-04   3.6824279e-04   2.4252736e-04   2.6140650e-04   1.1920499e-04   4.9064198e-05   1.0101053e-05   4.5692691e-04   1.8460111e-04   9.3651710e-05   1.4530028e-04   3.8587186e-04   2.5601898e-04   2.8428511e-04   2.1233039e-04   1.3842260e-05  -1.7430059e-04   2.8536281e-06   1.4611831e-04   5.1578027e-05   1.2428916e-04   1.3874847e-04   8.8846878e-05   2.9231419e-04   3.0180538e-04   1.2141172e-04   1.0043140e-04   2.4424808e-04   4.1184534e-04   3.1934582e-05   1.4427779e-04   4.3011660e-04   5.3478329e-04   3.2297461e-04   1.9996816e-04   1.0308461e-04   3.0105913e-04   4.9163261e-04   5.8178295e-04
   3.2619009e-04   4.4201111e-04   1.3501557e-04   3.6412454e-04   2.0945586e-04   2.8812763e-04   2.9302048e-04   1.0883644e-04   2.8527173e-04  -5.5294167e-05   2.3393205e-04   8.6718937e-06   2.5354765e-04   1.9024007e-04   2.0364618e-04   5.4923756e-05  -2.2672974e-05  -1.0424202e-04   2.6147102e-04   5.1841595e-05  -2.5512411e-05   4.3653668e-05   2.7951092e-04   1.6258794e-04   5.7598601e-05   1.4387698e-04   6.0268685e-05  -1.6918739e-04  -9.1416026e-05   1.1913598e-04  -1.7755370e-05  -5.4650818e-06  -6.2999105e-05   1.4815967e-04   1.3178698e-04   2.0531171e-04  -3.1914333e-06  -1.0902184e-04   2.6201658e-04   2.9127524e-04   3.5427151e-05   9.0096386e-05   3.7956206e-04   2.5029184e-04   1.8161676e-04   1.6806490e-04  -5.3635657e-05   9.0385765e-05   1.8012084e-04   2.6622287e-04
  -2.3794797e-05   5.4925666e-05  -1.5023524e-04   2.3621593e-05  -5.0719696e-05   5.5483929e-06  -2.3341510e-05   4.9385976e-06  -6.2937019e-05  -2.9911636e-04  -5.3613007e-06  -2.1291820e-04   2.4582025e-05  -3.3527333e-05  -4.6231260e-05  -9.1772978e-05  -1.5605798e-04  -6.3827902e-05  -1.0609255e-05  -2.3352192e-04  -2.5799579e-04  -1.7328338e-04   7.6689239e-06  -7.9884245e-05   2.9809960e-06  -7.8167788e-05  -8.4247848e-05  -1.5390971e-04  -7.5425261e-05  -1.2918465e-05  -9.2322742e-05  -3.4967401e-05  -2.1123866e-04  -7.5029842e-05   1.3796207e-04   1.6805413e-04  -1.3535000e-05  -3.0847215e-05   2.6963011e-04   2.3387725e-04   1.2884564e-04   7.6389144e-05   2.3972975e-04   3.1030300e-04   3.5098506e-04   3.6556931e-04   1.4361988e-05   1.4898578e-04   4.5301893e-04   4.5048338e-04
   2.4949148e-04   4.4198098e-04   6.8162481e-05   3.6207543e-04   2.3030197e-04   3.8471431e-04   3.8250181e-04   9.9495657e-05   3.5146932e-04  -1.5867043e-05   2.3963292e-04   1.1703809e-05   2.6093447e-04   1.6253430e-04   2.0904381e-04   4.7335972e-05  -2.2803486e-05  -3.1893538e-05   2.8707221e-04   7.8975398e-05   5.7980287e-05   2.4637788e-05   3.0758951e-04   1.7236943e-04   1.4952823e-04   1.3550678e-04  -3.3243017e-05  -1.2667365e-04  -4.5913363e-05   1.1579642e-04  -1.1062885e-05   2.0872467e-05   1.2646346e-05   1.0843787e-04   1.8291689e-04   2.2130394e-04   1.0632767e-04   4.3627158e-05   1.1448793e-04   3.3987439e-04   2.5877167e-04   1.4240047e-04   3.8307600e-04   3.6970191e-04   3.2788719e-04   3.8807551e-04   2.3310546e-05   1.6442269e-04   3.4583578e-04   3.7108271e-04
   2.4993691e-04   3.7261730e-04   3.4787841e-05   2.9244449e-04   1.4897890e-04   2.5296467e-04   2.2404153e-04   3.7197231e-05   2.0586659e-04  -1.3102860e-04   1.8422822e-04  -6.8264293e-05   1.9271491e-04   8.8099674e-05   1.5029087e-04  -1.6773860e-06  -8.6152308e-05  -3.3086537e-05   7.1098570e-05  -4.3750271e-05  -4.1350650e-05  -7.3895484e-05   1.8608599e-04   4.0610397e-05   1.7023698e-04   3.8234182e-05  -7.4753829e-05  -1.7422675e-04  -8.9244008e-05   4.1173756e-05  -8.4669853e-05   4.4318778e-05  -1.2940911e-04  -5.1803534e-05   2.6763142e-05  -5.1805804e-05  -4.8802664e-05   1.2416644e-05   1.8710671e-04  -9.8643841e-07   4.5739300e-05  -5.4556958e-06   1.6619956e-04  -1.5782137e-04  -8.9140913e-06  -9.7168857e-05  -1.1899618e-04  -1.1622944e-04  -3.9806921e-05   4.7485257e-05
  -8.2106562e-05  -2.1703290e-05  -2.2666577e-04  -2.5237083e-05  -9.8094890e-05   2.6561083e-05  -8.0960963e-05  -1.3148219e-04  -1.6297917e-04  -3.8558652e-04  -7.5653392e-05  -2.8307305e-04  -3.7174417e-05  -8.0444588e-05  -5.5479974e-05  -1.3860759e-04  -2.4072388e-04  -4.4733482e-05  -2.5239537e-04  -2.8573966e-04  -2.3054790e-04  -2.9662609e-04   2.4279992e-05  -8.5185180e-05  -2.1981163e-04  -1.3674966e-04  -7.4389376e-05   6.7303999e-06   7.5645454e-07   2.5172170e-05  -8.4369225e-05  -5.6726196e-05  -1.8294259e-04  -7.2364448e-05   9.9737510e-05   1.2533010e-04   1.1842770e-04   5.9187223e-05   9.0311107e-05   1.4754142e-04   2.8850979e-04   6.5174710e-05   2.1236502e-04   2.1584196e-05   7.5106203e-05   1.5017601e-04   7.1873046e-06   7.0799120e-05   3.4390227e-04   3.3517324e-04
