   2.3199024e-04   3.5727862e-05   1.6273491e-04   1.9448235e-04   8.1583850e-05   8.6277432e-05   2.0786752e-04   2.5562171e-04   7.9591082e-05  -5.3644332e-04  -8.7117616e-05  -2.8856285e-04  -5.6125162e-05  -5.9357018e-05   8.5409985e-05   3.4630595e-04   4.1963925e-04   1.0263385e-03  -2.4919713e-05   1.7412362e-04  -3.6693993e-04  -3.6122077e-04  -3.6973699e-05  -9.9899087e-05  -2.7830954e-04  -1.1692845e-04  -1.0120389e-04   2.6578392e-04   6.4663350e-04   2.0158554e-04   1.3862088e-04   1.1793193e-03  -2.9228523e-04  -1.6043893e-04  -5.5567405e-05  -1.5970871e-04   3.2567640e-04   1.1930646e-03   2.0509187e-04  -7.1550043e-05  -3.3115939e-05  -6.7211455e-05  -7.1845796e-05  -6.3393381e-05   9.4181574e-05   3.8832900e-04  -9.0796093e-05  -3.6834568e-05   3.9105094e-04   2.8855962e-04
   2.8669916e-04   4.5948989e-05   1.7571938e-04   1.9496285e-04   5.9099126e-05   3.9689461e-05   2.2479967e-04   1.8979740e-04   4.3682347e-05  -5.2328286e-04  -6.0952458e-05  -2.9308267e-04  -3.7140118e-05  -3.3639521e-05   8.8023269e-05   3.5635108e-04   4.5991017e-04   1.0820051e-03  -6.5401255e-05   2.0814834e-04  -3.9422026e-04  -2.9675651e-04   2.3385581e-05  -7.6751538e-05  -1.1873689e-04  -6.0005495e-05  -1.3830676e-04   2.0998217e-04   5.3898944e-04   1.0511355e-04   1.4930591e-04   1.3404546e-03  -3.9155316e-04  -1.8434376e-04  -1.2138151e-04  -1.1707887e-04   9.1254857e-05   1.0292669e-03   1.5660273e-04   1.3879115e-04  -2.8557872e-04  -5.2002139e-05   6.1408340e-05  -1.6634913e-04   2.8612631e-05   4.0190516e-04  -9.5387077e-05  -5.9481292e-05   4.4993311e-04   3.6833755e-04
   2.5421460e-04  -1.7650607e-06   1.6895616e-04   1.9240714e-04  -4.6850791e-06   4.3101254e-06   1.1601745e-04   1.0638024e-04   8.7569002e-05  -5.1001611e-04  -5.9396021e-05  -2.7324690e-04   1.5404045e-06  -2.4569285e-05   2.8274846e-05   3.0130605e-04   4.1888451e-04   9.0196764e-04  -1.0474800e-05   2.6030806e-04  -4.5880835e-04  -2.6646510e-04   1.0796676e-05  -8.0800266e-05  -2.3870077e-04  -8.2488790e-05  -1.4307340e-04   2.2281143e-04   5.3889398e-04   1.6221112e-04   4.7663114e-05   1.1495732e-03  -4.3944811e-04  -2.6805734e-04  -1.2145755e-04  -3.0614145e-05   1.8066172e-04   7.9592859e-04   1.3153710e-04   1.5033095e-04  -2.2441457e-04   9.8282733e-05   9.8755576e-05  -1.6232589e-04  -1.2339764e-04   2.7989250e-04  -7.3906944e-05  -5.8865138e-05   4.9009570e-04   3.7096540e-04
   2.4182745e-04   1.2663368e-05   1.5162362e-04   1.8995222e-04   1.9212994e-05   2.8971443e-05   1.9219439e-04   2.1533454e-04   1.2033601e-04  -5.0029764e-04  -4.7110127e-05  -2.5318278e-04  -2.2219247e-05   2.1971671e-05   5.4871121e-05   2.7848061e-04   3.6034305e-04   8.9659868e-04  -6.3212749e-05   2.4161296e-04  -4.4227517e-04  -2.5080363e-04   4.1387517e-05  -5.4960987e-05  -9.6051204e-05  -9.8595301e-05  -1.2342884e-04   1.9641151e-04   5.4504303e-04   1.4433882e-04   1.3510298e-04   1.3159710e-03  -4.1566126e-04  -3.1170546e-04  -8.7572567e-05  -4.3676235e-05   1.1994874e-04   7.6415861e-04   1.1976498e-04   2.3046660e-04   9.6489282e-05  -3.8107555e-05   5.6906920e-05  -2.3783915e-04  -9.7651682e-05   2.0109594e-04  -1.0984850e-04  -9.3213544e-05   5.7973113e-04   3.7223755e-04
   2.9048519e-04   2.2554987e-05   1.5566956e-04   2.2711081e-04  -2.3002745e-05   3.5233021e-05   2.2587919e-04   1.7617900e-04   1.2269730e-04  -4.1404110e-04  -1.7619583e-05  -2.3696886e-04  -2.8003735e-05   2.6223925e-05   5.7260746e-05   2.1899173e-04   3.3095462e-04   7.0667814e-04  -6.8125482e-05   2.8132528e-04  -4.6282646e-04  -2.2989494e-04   6.6198183e-05  -3.7026912e-05   8.7949142e-05  -1.0955494e-04  -1.4405015e-04   2.0481167e-04   5.5229146e-04   1.0786551e-04   8.8711538e-05   1.0928218e-03  -3.2407462e-04  -2.2863557e-04  -8.5917614e-05  -1.3867349e-04   7.1007576e-05   6.0371280e-04   1.9043853e-04   1.5691486e-04  -4.6704692e-04  -2.3327229e-05   6.2671061e-06  -2.6750605e-04  -1.8347282e-05   2.0265074e-04  -1.0783023e-04  -7.5322889e-05   5.3830782e-04   3.5457732e-04
   2.7539075e-04   3.1011925e-05   1.3148416e-04   2.4049592e-04  -8.3476698e-06  -1.8510461e-06   1.9231255e-04   1.4367234e-04   6.1544881e-05  -4.4295538e-04  -3.2630612e-06  -2.2479623e-04  -2.3607123e-05  -8.5842119e-05  -2.2332066e-05   2.0120420e-04   2.2815098e-04   5.4358650e-04  -1.2971253e-04   2.9424825e-04  -4.2702720e-04  -2.3205898e-04   1.3086331e-05  -4.7492198e-05  -1.7661255e-04  -3.6778787e-05  -1.7182558e-04   3.1639222e-04   4.9947744e-04   1.2392162e-04   1.0337471e-04   1.0711314e-03  -3.2278427e-04  -2.4018994e-04  -1.4622240e-04  -1.4830478e-04   7.4712101e-05   6.0394197e-04   2.1430345e-04   1.2378718e-04  -5.0527055e-05  -6.7516456e-05   1.2842905e-04  -3.1223142e-04  -5.2456468e-05   3.1720218e-05  -1.0248389e-04  -4.9919032e-05   5.9550384e-04   4.0183059e-04
   2.7676116e-04   6.1017770e-05   1.3306290e-04   2.5588376e-04   1.1207716e-05   8.3281429e-06   2.0699081e-04   2.0138618e-04   9.7675205e-05  -4.7939614e-04  -2.8724839e-05  -2.3394509e-04  -4.4566554e-05  -1.3084245e-04  -2.0976127e-05   1.7810598e-04   1.7217327e-04   3.7398183e-04   2.3950342e-06   2.1383891e-04  -3.4756286e-04  -2.1508349e-04  -7.0928007e-05  -7.8667945e-05  -1.3108412e-04  -1.1779522e-04  -2.0858995e-04  -1.2061508e-06   4.3836265e-04   1.0316275e-04  -1.7301869e-05   7.8425888e-04  -2.2952232e-04  -2.6271641e-04  -8.0851132e-05  -1.5725297e-04  -4.2356260e-05   5.0966832e-04  -7.3257121e-05   9.6101154e-05  -3.9645185e-04  -1.1993507e-04   4.2466178e-05   1.5687307e-04  -1.4011150e-04   9.1830283e-05  -9.6279822e-05  -6.3674786e-05   5.3491065e-04   3.1312054e-04
   2.5313775e-04   6.6963854e-05   1.1749037e-04   2.5105992e-04   1.0428512e-05   5.9753100e-05   1.9325707e-04   1.8957663e-04   3.9632545e-05  -5.0517567e-04  -4.9994207e-05  -2.4689306e-04  -7.3199837e-05  -1.0569009e-04   2.8963612e-05   1.5403518e-04   1.2157028e-04   2.6918916e-04   5.4365268e-05   1.7912123e-04  -3.2090541e-04  -2.6716467e-04  -3.6988269e-05  -7.5175332e-05  -1.4471837e-04  -1.2210301e-04  -2.4025280e-04   1.0687213e-04   3.1445385e-04   1.3245427e-04  -2.3137871e-05   5.5246474e-04  -5.7517180e-05  -2.5391718e-04  -1.1023695e-04  -7.4628209e-05   1.1756828e-06   3.4630619e-04   1.6227362e-04   2.0932443e-04  -8.6482549e-05  -1.1014982e-04  -7.4350122e-05  -2.1079479e-04  -1.6281010e-04   1.3696308e-04  -1.1221679e-04  -2.8473512e-05   4.3408657e-04   2.7050026e-04
   2.1593976e-04   3.8449671e-05   1.1836909e-04   2.2105359e-04   5.1903612e-06   5.4213127e-05   1.8433288e-04   2.0323214e-04   8.4342340e-05  -5.4239610e-04  -6.2672130e-05  -2.6749173e-04  -9.6615120e-05  -9.2966970e-05   5.2221517e-06   1.3704193e-04   2.0338195e-04   2.9832128e-04  -1.0428594e-04   2.0583767e-04  -3.6239103e-04  -2.0325775e-04  -1.4160912e-05  -6.0228056e-05  -1.9770388e-04  -1.5797582e-04  -2.3857903e-04   5.6940560e-05   3.0081626e-04   9.6131604e-05   1.1680192e-04   1.0199612e-03  -3.2356009e-04  -2.7956133e-04  -7.8558609e-05  -1.1614313e-04  -2.7375008e-05   4.6238489e-04   1.6734093e-04   2.1509980e-04  -5.6113313e-05  -7.3485928e-05   1.6423632e-04  -2.3508148e-04  -7.0936680e-05   1.9326591e-04  -1.3505321e-04  -1.0703225e-04   5.9562724e-04   3.6682878e-04
   1.8860023e-04  -1.9738391e-05   1.0801273e-04   1.9276149e-04  -4.3100201e-05  -3.1838554e-05   1.3075139e-04   4.2025840e-06   6.3302876e-05  -4.9191777e-04  -4.3351134e-05  -2.3407364e-04  -4.9594997e-05  -3.4040564e-05  -3.1928259e-05   2.1307581e-04   3.3624892e-04   7.3990389e-04  -8.3903644e-05   2.6156515e-04  -4.8426166e-04  -2.4215289e-04   3.9644028e-06  -2.5618989e-05  -1.7393612e-04  -1.4195664e-04  -1.4431951e-04   1.2961368e-04   4.6118809e-04   6.6311870e-05   9.9940204e-05   1.2974732e-03  -4.7688937e-04  -3.0001765e-04  -2.1506581e-04  -5.9974318e-05   1.3970499e-04   5.5120210e-04   7.3993797e-05   1.6685370e-04  -3.0649222e-05  -1.5170940e-05   1.9773772e-05  -5.1621225e-04  -1.3281933e-04   2.6657179e-05  -1.5719481e-04  -7.7815654e-05   5.8534782e-04   3.0653898e-04
   2.3458945e-04   5.4926804e-06   1.0124292e-04   2.4254774e-04  -2.4137140e-05  -3.8278336e-05   1.4662289e-04   1.3715064e-04   1.0586627e-04  -6.2533224e-04  -3.0745465e-05  -1.9956425e-04  -8.9294015e-05  -2.6936368e-05  -2.4534040e-05   1.9195887e-04   2.9213517e-04   4.2313352e-04  -6.4667249e-05   1.8458637e-04  -4.1001564e-04  -3.1941512e-04   5.5933033e-05   8.4253596e-05  -1.7597561e-04  -1.3656047e-04  -8.3374951e-05   2.2640661e-04   3.6417833e-04   1.6156661e-04   6.0062113e-05   6.5797998e-04  -3.4619105e-04  -2.0994541e-04  -1.3393183e-04  -6.9720481e-05   2.3293309e-04   4.4503613e-04   1.0920087e-04   8.4794796e-05  -1.4552429e-04  -5.0299397e-05   1.1882406e-04  -9.5321229e-05  -2.4373086e-04   1.0946138e-04  -8.2719467e-05  -1.2547518e-04   4.3187331e-04   2.1391400e-04
   7.2036573e-04  -4.2560211e-04   3.3502348e-04   1.9742553e-04  -1.0785826e-04   1.2129105e-04   1.9986644e-04   2.8685300e-04   3.2362473e-04  -1.6491767e-03  -2.4108745e-05   3.1569536e-05  -1.5837561e-04  -4.8815123e-06   3.1110758e-05   4.1220046e-05   2.3363944e-04  -1.7633186e-04  -4.0790168e-05   1.2147101e-06  -3.2072305e-04  -3.7790855e-04   1.0480289e-04   6.2609999e-04   4.6883626e-05  -7.9045582e-05  -2.1749309e-04   5.9791731e-05  -8.2195860e-05   1.5741809e-04   6.8174436e-06  -1.1797134e-04  -2.4207470e-04  -7.1244765e-05   3.0610343e-05   1.2906345e-04   1.1275167e-04   8.6656109e-05  -1.0187025e-05   2.9765495e-05  -1.8565138e-04   2.0434770e-04  -1.2620340e-05  -1.9114735e-04  -1.9686235e-04   4.5315461e-05   4.6464895e-05   1.7685546e-05   2.3171476e-04   5.4817374e-05
   8.9969079e-04  -5.8875489e-04   3.6802457e-04   5.4562079e-05  -1.0402506e-04   1.5576795e-04   1.6255825e-04   3.2245982e-04  -2.1792281e-05  -3.4368000e-04  -3.0772429e-05  -9.0268542e-05  -3.8500282e-05   1.9771993e-05   7.4048497e-05   1.6334403e-04   3.5132849e-04  -2.0118560e-04   2.9804880e-05  -1.6510747e-04  -2.7579482e-04  -4.4450309e-04   8.8901097e-06   2.9560228e-04   1.3901094e-04  -4.9628088e-05  -1.4125589e-04   1.5766027e-04  -1.4285806e-04   2.9459895e-04   8.1201659e-05  -4.3632474e-04  -8.7885906e-05   3.8154540e-05  -6.2074314e-06   4.3782362e-05   1.3232403e-04  -3.0873896e-04   9.7386081e-05  -2.1355185e-05   6.6190230e-05   2.1614255e-04   1.3564952e-04   8.7744866e-06  -3.3602249e-04   3.8278104e-05   7.0856542e-05   1.0463253e-04   6.2055420e-05   5.0780334e-05
   4.3315842e-04  -5.4017670e-04   1.8738375e-04  -1.4319592e-04  -3.2365948e-05   1.5642542e-04   8.4655032e-05   2.3271913e-04  -2.1906001e-04   2.5068442e-04  -1.6572070e-04  -3.1371391e-04   5.3853724e-05   9.1076625e-05   2.2411553e-04   2.8462822e-04   2.5140375e-04  -6.2181847e-05   2.4045390e-05  -1.9040810e-04  -2.5263467e-04  -3.9037011e-04  -1.5248697e-04  -9.3504350e-05   2.2332419e-05   4.9092314e-06  -1.8867305e-04   9.0200541e-05  -1.4212610e-04   3.0308223e-04  -4.6105444e-05  -5.6142313e-04  -1.2405530e-04   9.0711637e-06  -2.2362103e-05  -1.3163352e-05   2.1044640e-05  -4.3032737e-04   2.5497869e-04   3.6105597e-05  -6.6328698e-06   2.2541393e-04   5.7678062e-05  -2.6665144e-05  -1.8664823e-04  -8.7156106e-05   2.6655993e-05   1.9987156e-05   4.0099501e-05   1.3921972e-04
   1.2592608e-04  -2.6442375e-04   5.7637444e-05  -9.3970266e-05  -4.4025797e-05   6.4685606e-05   4.2662490e-05   6.4529733e-05  -1.5409516e-04  -3.6381290e-04  -1.9492445e-04  -3.6803272e-04   2.0722346e-05   1.1410040e-04   1.9081177e-05   1.4525207e-04  -7.5947944e-05  -3.2195737e-04   3.0457069e-05  -1.0592378e-04  -2.2086964e-04  -2.7427269e-04  -1.3527033e-04  -1.7485875e-04   1.0578126e-04  -3.9778010e-05  -2.9477768e-04   3.8268619e-05  -1.9739290e-04   2.6777812e-04  -7.9599056e-05  -6.4425461e-04   4.8655605e-05   4.8570073e-05   1.2355305e-05   5.4256951e-05   1.0334811e-04  -4.9250317e-04   1.6014730e-04   2.3894572e-05   7.6249198e-05   1.5908798e-04   1.1049169e-04  -1.1176830e-04  -1.5263756e-04   1.8189863e-04   6.4705387e-06  -2.2115605e-06   5.1702711e-05   1.3726806e-04
   6.4431348e-05  -2.5503853e-04   5.6617766e-05  -8.0417281e-05  -2.6566609e-05   3.4900753e-05   5.4190376e-05   8.8353547e-05  -2.3018068e-04  -4.7573863e-04  -2.3819745e-04  -3.7972181e-04  -3.9398092e-06   8.2587620e-05   5.1056952e-05   1.9402032e-04  -1.2170256e-05  -1.7218820e-04  -2.2816200e-06  -9.6457516e-05  -2.4426010e-04  -2.3116627e-04  -1.3105154e-04  -2.4250304e-04   6.4083019e-05   1.4805669e-05  -1.6660176e-04   8.7391209e-06  -1.3629159e-04   2.7338861e-04  -6.9236253e-06  -5.0494674e-04  -1.6251187e-04   5.5073569e-06  -2.5723519e-05  -7.4290328e-05   5.1986764e-05  -4.8940984e-04   3.5028304e-05   9.9780947e-05  -2.4866863e-04   1.5537777e-04   2.7042770e-04   2.2918751e-04  -1.2247254e-04   2.2892765e-04  -5.8223486e-05  -5.5247074e-05   8.1376973e-05   1.8387510e-04
   3.8570903e-05  -2.2225454e-04   3.3576474e-05  -4.4812343e-05  -5.2102296e-05   9.0319563e-06   4.6921639e-05   7.7255485e-05  -2.0906091e-04  -4.2737619e-04  -2.4443533e-04  -3.3396279e-04  -2.1529926e-05   3.8171638e-05  -5.3805516e-06   1.7888509e-04  -1.1034826e-04  -2.5693225e-04   1.2713654e-05  -1.0156070e-04  -1.6249943e-04  -1.7936312e-04  -1.9132702e-04  -2.1062318e-04   1.4883719e-04  -2.9920904e-05  -1.8914338e-04  -5.1046984e-05  -1.8043937e-04   2.3892162e-04  -1.4152702e-04  -6.9974799e-04  -5.4693195e-05   2.0527956e-05   2.8642202e-05   2.9163635e-05  -5.5065862e-05  -4.6492668e-04   6.6664252e-06   1.5711936e-04   1.8734601e-05   1.7134732e-04   5.7178921e-05   6.9883557e-05  -1.2729624e-04   2.7995513e-04  -3.0143041e-05  -1.9554458e-05   8.7743312e-05   2.8066110e-04
   5.5589033e-05  -1.6563747e-04   1.7550770e-05  -2.2492970e-05  -1.3593071e-05   1.1085202e-05   2.7265540e-05   1.3717244e-04  -1.6865353e-04  -3.9603407e-04  -2.4329356e-04  -2.8292567e-04  -3.9645565e-05   3.6006753e-05   2.6507061e-05   1.3302077e-04  -1.8778151e-04  -3.3700166e-04   4.7212856e-05  -8.5388754e-05  -1.1455601e-04  -1.9885357e-04  -8.2643259e-05  -1.6231439e-04   7.6766955e-05  -1.5669562e-05  -2.1379530e-04  -7.6806018e-06  -1.4808039e-04   2.3188611e-04  -1.4344489e-04  -6.8862020e-04  -2.5995223e-05  -2.1589945e-04  -6.1285973e-05   1.2253133e-04   2.3436747e-05  -3.8358441e-04   1.6935536e-04   2.7885026e-05  -8.8866887e-05   1.9571242e-04   3.7132319e-05   4.6356192e-05  -1.6556281e-05   1.6218636e-04   5.6460422e-06   3.7368234e-05   8.6525470e-05   1.4595680e-04
   7.9063466e-05  -1.0125437e-04   4.0902632e-05   2.3025264e-05  -2.1183787e-05   1.4638524e-05   5.1576182e-05   1.1415108e-04  -1.2468033e-04  -3.5539636e-04  -2.4343256e-04  -2.4305681e-04  -6.8316171e-05  -5.8424789e-06   3.2088814e-05   9.7249176e-05  -2.1213756e-04  -3.7495044e-04  -3.8500810e-05  -5.0234150e-05  -7.3679599e-05  -9.5070318e-05  -2.8718410e-05  -1.2597413e-04   1.6028283e-05  -1.6175460e-05  -2.8000446e-04  -1.3511811e-04  -1.8420562e-04   1.6861266e-04  -2.1799114e-04  -5.7285291e-04  -1.3884954e-04  -1.4450718e-04  -4.1279567e-05   3.8255759e-05  -1.4385919e-05  -3.1678862e-04   1.5674983e-04   5.7352932e-05   2.7478312e-05   9.6798140e-05  -7.5493095e-05   2.4502044e-05  -1.1551487e-04   8.9098859e-05   6.6300145e-06  -6.7110836e-05   3.4604062e-05   1.0447861e-04
   4.0473034e-05  -1.1649467e-04   2.6698501e-05   2.2475098e-05  -1.7746379e-05  -5.7846202e-05   6.8773159e-05   4.4838926e-05  -1.7770860e-04  -3.2587568e-04  -2.5447778e-04  -2.5002722e-04  -4.8813607e-05   3.1618863e-06   2.8998449e-05   1.1347815e-04  -1.8026422e-04  -2.9062896e-04  -3.2751406e-05  -4.6380123e-05  -9.3037779e-05  -1.4385197e-04  -1.2438564e-04  -1.3647207e-04   1.4062243e-04  -6.1250917e-05  -1.8255573e-04   9.3759627e-05  -1.6585006e-04   2.0747360e-04  -1.8598078e-04  -5.7049125e-04  -9.4035735e-05  -6.1771090e-05   3.7435791e-05  -5.0180090e-05  -6.2740030e-05  -2.8737285e-04  -1.8158356e-06   5.0878127e-05  -3.8910744e-05   9.4287287e-05  -2.1966616e-05  -1.0632426e-05  -2.3801946e-05   1.6515004e-04  -6.8441032e-06   3.0861900e-06   2.4452806e-05   9.7640957e-05
   1.1739874e-04  -8.5795116e-05   5.3837946e-05   3.2043383e-05   1.5340158e-05   3.5958788e-08   6.0504528e-05   4.0552433e-05  -1.1534503e-04  -2.8473372e-04  -2.5624826e-04  -2.3563036e-04  -8.4727566e-05   1.0918383e-05   9.6884969e-06   1.1049852e-04  -1.6702617e-04  -3.0758363e-04  -6.5537322e-05  -5.0967355e-05  -7.4345844e-05  -1.2768031e-04  -5.1962576e-05  -1.5504047e-04  -1.1946169e-04  -5.0927185e-05  -2.6353475e-04   2.0154075e-05  -2.0758364e-04   1.5646411e-04  -1.8999098e-04  -4.5929491e-04  -1.5601455e-04  -2.1099293e-04  -2.8056951e-05  -6.6335320e-05  -9.5480733e-05  -2.7182853e-04   1.4803457e-04  -2.1424443e-05  -7.2310184e-05   7.7562887e-05  -4.8244990e-05   1.0864186e-04  -8.1193321e-05   1.5504875e-04   1.3471928e-05  -3.4715820e-05   2.1247573e-05   9.1525922e-05
   9.4138777e-05  -8.3053776e-05   3.2015083e-05   4.2971038e-05  -9.7620650e-06   2.4823486e-05   4.2148444e-05   1.1252323e-04  -7.5152318e-05  -2.5922470e-04  -2.4001772e-04  -2.1253512e-04  -8.1517348e-05  -3.7528960e-05  -3.1609607e-06   9.1088077e-05  -1.9362882e-04  -3.1325212e-04   2.3956745e-05  -3.7202703e-05  -6.1974461e-05  -1.4261469e-04  -5.7456593e-05  -1.2742300e-04  -1.3184267e-04  -8.8669607e-05  -1.4035768e-04  -2.3938132e-05  -1.6596925e-04   1.7444682e-04  -1.3178801e-04  -5.7321147e-04  -1.9480845e-04  -1.7494262e-04   3.4303266e-05   8.0341044e-05   2.7903634e-05  -2.3554858e-04   7.4513286e-05   7.3493611e-05   8.1966236e-06   5.8033591e-05  -5.3643609e-05  -1.0393356e-04  -1.0318954e-04   3.2515618e-05   1.5275127e-05   3.5249370e-05   1.1955417e-04   1.6334302e-04
   1.1959559e-04  -8.6012122e-05   3.5903435e-05   4.3015305e-05   1.8835379e-05   6.8302732e-05   1.0625675e-04   9.4350005e-05  -1.8635488e-04  -2.4669408e-04  -2.3195481e-04  -1.9881195e-04  -6.5165696e-05   4.0277791e-05   4.1522846e-05   1.0621209e-04  -2.0308720e-04  -3.0601677e-04   4.8956372e-05  -5.5489341e-05  -5.1231607e-05  -1.0177548e-04  -8.2355451e-05  -1.1217589e-04  -2.6362190e-05  -5.3811116e-05  -1.5364555e-04   1.2437234e-04  -1.5314494e-04   2.1895448e-04  -1.9885607e-04  -5.0515612e-04  -1.7203523e-04  -6.3480104e-05  -1.1639027e-05  -7.0391347e-05  -6.7283319e-05  -2.4699079e-04   1.5906817e-05   1.9689036e-05  -1.3239887e-04   7.2913186e-05  -1.8073488e-05  -8.2361978e-05  -6.2509942e-05  -1.0450540e-05   6.9436587e-06   7.5993616e-05   1.1664457e-04   1.3010710e-04
   1.4111157e-04  -6.7015644e-05   4.6886053e-05   5.1211540e-05   2.1289679e-05   9.7965567e-05   1.0613749e-04   9.1959424e-05  -1.0450338e-04  -2.2030722e-04  -2.2917947e-04  -1.7566796e-04  -9.8465520e-05  -2.4860008e-05   5.6932211e-05   8.2088132e-05  -1.8977500e-04  -3.4009202e-04   1.0317007e-05  -1.3453405e-05  -4.6658039e-05  -9.8120807e-05  -4.3375265e-05  -1.0452573e-04  -3.9378407e-05  -4.4083637e-05  -1.3992681e-04   2.4849793e-05  -2.1314548e-04   1.6989620e-04  -2.1619261e-04  -5.8450416e-04  -2.5490133e-04  -1.4544808e-04   6.3463943e-07   1.5846359e-05  -6.2426974e-05  -2.3120416e-04   4.6824651e-05   6.5767344e-05  -3.0715452e-04   9.3333467e-05  -5.9157097e-05   6.9517577e-05  -1.3865028e-04  -6.7990136e-06   1.0576968e-05   5.2802911e-06   1.0676884e-04   2.0286559e-04
   1.4402767e-04  -8.3666397e-05   3.8976839e-05   5.1880146e-05   1.3161639e-05   7.6841556e-05   6.8622445e-05   1.0783967e-04  -1.4776933e-04  -2.1239775e-04  -2.2328219e-04  -1.6470115e-04  -6.3593572e-05  -2.1662148e-05   2.0801731e-06   7.5337412e-05  -2.3166710e-04  -3.6649400e-04  -1.6286938e-05  -8.8314655e-06  -5.0610815e-05  -1.1806638e-04  -1.0102794e-05  -8.9040695e-05  -7.5946562e-05  -6.0892737e-05  -2.5915104e-04   7.4603922e-05  -1.1964071e-04   2.0686250e-04  -1.9667826e-04  -5.5933796e-04  -9.7499949e-05  -7.8759243e-05   1.6899978e-05   1.1532295e-04   8.7139597e-05  -2.6445612e-04   2.5146559e-04   9.9150602e-05  -9.6309392e-05   9.8716817e-05  -1.9528403e-05   6.6406916e-05  -5.6021061e-05   2.0139219e-04   1.4529755e-05  -4.2377900e-07   1.2614731e-04   1.0004029e-04
   1.5716819e-04  -7.0282571e-05   4.9287723e-05   4.7333098e-05   3.1519612e-05   7.7299541e-05   1.0732003e-04   1.2509355e-04  -1.4951939e-05  -2.0667928e-04  -2.1895970e-04  -1.5895320e-04  -6.1487910e-05  -1.7129136e-05   4.0130533e-05   8.1038968e-05  -1.7459485e-04  -3.2192701e-04  -1.3711538e-05  -2.5843870e-05  -4.1503357e-05  -9.8098237e-05  -6.4413616e-06  -1.0000885e-04  -1.8250412e-05  -3.8469174e-05  -2.5728863e-04   1.2573945e-04  -1.8245437e-04   1.8059596e-04  -2.2276668e-04  -4.4904579e-04  -1.2479421e-04  -7.2405484e-05   6.0185780e-06  -2.7838150e-05   1.1630046e-04  -2.4786757e-04   4.6345980e-05   1.0741392e-04   3.5283263e-04   5.3935757e-05   8.1427090e-05   1.3046990e-04  -1.5826595e-04   1.3940367e-04   1.4148810e-05   3.3619890e-05   1.4004455e-04   1.6938189e-04
   1.4361789e-04  -7.4254836e-05   4.2994459e-05   5.4077947e-05   2.3850680e-05   5.0697650e-05   7.0257469e-05   1.4199388e-04  -1.1633630e-05  -1.9427406e-04  -2.2439290e-04  -1.5425339e-04  -2.1075157e-06   2.1965161e-05  -4.2067350e-05   8.1869381e-05  -1.9083019e-04  -3.2835631e-04   5.6437391e-05  -9.4520292e-06  -4.1925963e-05  -8.1261111e-05   2.8521621e-05  -7.4118885e-05  -1.4536170e-04  -6.5721406e-06  -2.3275126e-04   3.4730951e-05  -1.5096855e-04   1.8943918e-04  -1.5673687e-04  -5.0313195e-04   2.7370568e-05  -1.0686350e-04  -3.3635883e-05   1.0865133e-04   1.8929999e-04  -2.4974850e-04   1.9999770e-04   7.3324132e-05   8.8762070e-05   6.4618769e-05   4.0283972e-05   1.4974484e-04  -8.7096421e-05  -3.1862812e-05   3.9452319e-05   8.0420992e-05   1.6113579e-04   8.7153632e-05
   1.4612330e-04  -8.1691236e-05   4.6300891e-05   4.1539261e-05   3.2273219e-05   8.4324951e-05   1.1047721e-04   1.1093893e-04  -6.7064095e-05  -1.7175463e-04  -2.1861252e-04  -1.3798222e-04  -2.2445809e-05   2.4153092e-05   6.5899745e-05   1.1136020e-04  -1.7803896e-04  -2.9714842e-04   1.4121782e-04  -1.2798237e-05  -3.1394062e-05  -8.3503379e-05   2.1323158e-05  -4.8955488e-05   1.7977216e-04  -3.3351156e-05  -1.8907640e-04   1.1865261e-04  -1.1617890e-04   2.2729793e-04  -1.2957469e-04  -4.6211193e-04  -9.3667244e-05  -1.5024532e-04  -4.7212354e-05   4.3316970e-05   2.1232002e-04  -2.2492683e-04   1.8762446e-04   6.5213491e-05   5.7174493e-05   1.2931642e-04   1.4056846e-05   1.1430955e-04  -9.1104252e-05   1.5495488e-04   1.1273799e-05   1.1164158e-04   1.2491332e-04   1.5335304e-04
   1.5480457e-04  -8.0663718e-05   4.6881600e-05   5.4931530e-05   1.9303003e-05   5.1389496e-05   8.7961293e-05  -5.1596544e-06  -2.2508528e-05  -1.6351980e-04  -2.0191533e-04  -1.2998690e-04  -4.4450946e-05   2.8475883e-05   2.5876067e-05   7.9593003e-05  -1.7733121e-04  -2.9518318e-04   3.9660088e-05   1.0616378e-05  -2.7040620e-05  -4.8418933e-05   3.3505339e-06  -4.5936620e-05  -4.1828123e-05   5.6439512e-06  -2.2391042e-04   1.0711748e-04  -1.3326107e-04   2.0537183e-04  -1.6139455e-04  -4.4889946e-04  -1.3838503e-04  -1.4528148e-04   1.6309090e-05   4.9155682e-05   1.4677667e-04  -1.9684520e-04   2.0946654e-04   6.6695557e-06   1.5374110e-04   8.6376174e-05  -5.3581875e-06  -1.0375842e-04  -5.7560679e-05   5.6718065e-05   4.2719177e-05   9.5385818e-05   1.6002254e-04   1.7821295e-04
   1.5583045e-04  -9.6622847e-05   4.2164156e-05   5.1372692e-05   3.5487734e-05   1.0234858e-04   8.2653212e-05   1.6268026e-04  -1.4378908e-04  -1.5614883e-04  -1.9928975e-04  -1.1695963e-04  -2.4182973e-05   6.1312894e-05   4.3733020e-05   8.5278181e-05  -1.7347386e-04  -3.0083477e-04   1.0815261e-04   1.4575236e-05  -1.2989392e-05  -3.1645061e-05   2.7340627e-07  -2.5618559e-05  -9.8344299e-06  -7.9040783e-06  -1.5647018e-04   1.7342439e-04  -5.9314752e-05   2.5689745e-04  -1.8291535e-04  -4.2026732e-04  -5.8626279e-06  -1.0306477e-04   3.6410838e-05   1.2834309e-05   9.8900680e-05  -1.9479306e-04   4.7046600e-05   3.9874169e-05   2.3494731e-04   1.7209043e-04   1.0988158e-04  -2.8939863e-05  -1.1652763e-04   1.7303486e-05   4.2470554e-05   1.0144832e-04   1.4241890e-04   2.0673066e-04
   1.7313327e-04  -7.3443749e-05   5.6284902e-05   5.1507475e-05   4.4507709e-05   6.0344628e-05   1.2365563e-04   9.2992770e-05   4.9277540e-05  -1.5876566e-04  -1.8849017e-04  -1.1147504e-04  -1.8956011e-05   5.8269507e-05  -8.1066410e-06   8.9678942e-05  -1.8886202e-04  -2.9044907e-04   1.3608435e-04  -7.0885817e-06   4.4354733e-06  -3.4325378e-05   2.7023509e-05  -1.8676146e-05   6.5426548e-06  -4.6791731e-05  -1.3560298e-04   2.2208264e-04  -8.4107000e-05   1.9891384e-04  -6.6045366e-05  -4.1058596e-04  -1.9500418e-04  -4.4436190e-05  -2.7953761e-06   1.8724008e-05   7.7539516e-05  -1.5794396e-04   1.1902805e-04   1.4928496e-04  -3.5952227e-05   9.3981740e-05  -9.0230453e-05  -9.0090485e-05  -7.3197589e-05   1.0684050e-04   4.1232073e-05   7.5690019e-05   1.6753255e-04   1.6603767e-04
   1.8850122e-04  -6.5448803e-05   5.1718020e-05   6.2792540e-05   3.8856662e-05   3.2137803e-05   1.0093866e-04   1.4145031e-04  -2.5635020e-06  -1.4465033e-04  -1.9694144e-04  -9.9798432e-05   1.2912472e-05   6.0688642e-05  -2.6395006e-05   1.0218137e-04  -1.4855614e-04  -2.3695687e-04   7.2193448e-05  -2.5723484e-06  -1.5314448e-05  -3.4220368e-05   4.5729827e-05  -6.2537285e-05  -1.2138654e-05  -4.4267372e-06  -1.1039397e-04   1.1548887e-04  -1.0083097e-04   2.0099673e-04  -1.0883444e-04  -2.7632006e-04  -6.8833815e-06  -1.0204290e-04   9.6729682e-06  -8.5057472e-06   1.8130957e-04  -1.2982872e-04   2.6932373e-04   6.6603730e-05   7.1418960e-08   3.0467605e-05  -2.1947691e-05  -1.5824690e-04  -2.9833078e-05   9.4879993e-05   3.0463088e-05   1.7198954e-04   1.8424107e-04   1.6253482e-04
   1.6263449e-04  -6.7278153e-05   5.4915836e-05   4.7515288e-05   4.0053859e-05   1.0607059e-04   1.0684794e-04   1.5113210e-04  -8.9202949e-06  -1.3989421e-04  -1.9417210e-04  -9.6432377e-05  -2.5893711e-05   4.7689518e-05   7.7313554e-05   1.0574378e-04  -2.0027459e-04  -2.7945926e-04   2.8231703e-05   1.1858786e-05   2.2417156e-05  -3.5099743e-05   9.8129894e-05  -3.7415757e-05  -1.7431317e-05  -5.4557240e-05  -1.3948321e-04   2.9612012e-04  -1.0435025e-05   2.5897811e-04  -4.7234447e-05  -4.0938344e-04  -2.7390406e-05  -4.3184526e-05  -1.4702764e-06   1.1754359e-04   2.4563138e-04  -1.2700728e-04   1.8683655e-04   1.8096206e-04   2.0337872e-04   2.0378659e-05  -1.7322107e-05   8.9121961e-05  -9.5709627e-05   2.0826233e-04   2.4883915e-05   8.7499633e-05   2.0491175e-04   1.5216356e-04
   1.7648590e-04  -6.9961410e-05   7.8023142e-05   3.8982420e-05   7.6186152e-05   2.4948820e-05   1.6266915e-04   6.2423751e-05  -1.3721075e-05  -1.4727049e-04  -2.1118109e-04  -1.1005404e-04  -1.9269632e-05   5.2108437e-05   1.4570718e-04   1.3202861e-04  -1.2158883e-04  -2.3504678e-04   9.2163602e-05  -3.4403598e-05   1.3390523e-05  -1.3642425e-05   6.1362975e-05  -4.2416792e-05   9.1174814e-05  -3.8229304e-05  -1.2480754e-04   1.1595481e-04  -1.9462390e-05   2.2434452e-04  -1.4635938e-04  -4.2282385e-04   1.5955875e-04  -7.2298040e-05   6.5548789e-05   2.5801886e-05   1.8197928e-04  -1.3616768e-04   8.4533283e-05   1.0311073e-04   2.7307859e-04   9.5901771e-05  -1.3937401e-05   5.1642182e-05  -1.9850624e-05   1.0108228e-04   2.4589755e-05   7.7452481e-05   2.0580611e-04   1.0250510e-04
   1.7745422e-04  -4.4119133e-05   7.4868054e-05   5.4418546e-05   7.8500721e-05   7.4090858e-05   1.7108655e-04   1.7830808e-04  -6.4184620e-05  -1.4673539e-04  -2.2219760e-04  -1.2351408e-04  -4.1529265e-06   5.1214312e-05   4.8190708e-05   1.6231317e-04  -1.3590090e-04  -2.4913065e-04   6.3628220e-05  -2.1014674e-05   1.2738325e-05  -5.7325200e-05  -5.5076700e-05  -6.2424006e-05   1.1330053e-04  -4.5668890e-05  -1.2217415e-04   1.2034440e-04  -1.5919433e-05   2.6202825e-04  -6.7895227e-05  -4.7974949e-04  -2.5972668e-05  -1.2724278e-04  -6.1968836e-05   3.9674465e-05   2.3256967e-04  -1.7537308e-04   2.2652910e-04   2.3572837e-04   4.5145323e-05   1.2595799e-04   6.9034795e-05   7.8560857e-05  -9.3539838e-06   1.9567608e-04   4.2036019e-05   7.7661956e-05   1.7717335e-04   1.2498599e-04
   1.8095496e-04  -5.7363010e-05   7.8722260e-05   6.8856483e-05   1.0222646e-04   7.4971904e-05   1.6447791e-04   2.4910292e-04  -4.8624483e-05  -1.3572109e-04  -2.2370565e-04  -1.0113313e-04  -3.7038317e-05   5.0388397e-05   4.9745599e-05   1.1866381e-04  -2.2180688e-04  -3.1163412e-04   6.0144725e-05  -2.3160570e-05   4.5956982e-05   3.5584224e-05   2.4550709e-05  -7.0543145e-05  -1.3816183e-04  -4.5093209e-05  -1.4095122e-04   3.3062146e-04  -3.2562457e-05   2.4321386e-04  -1.0400156e-04  -5.2963855e-04  -2.6137339e-05   1.4942751e-04  -5.5276218e-05   2.3573818e-06   2.7517008e-04  -1.5778333e-04   1.9365287e-04   1.7920841e-04  -7.2836068e-05   1.8596947e-05   7.6193013e-05   1.8104570e-04  -5.4857486e-05   2.9109613e-04   1.8795912e-05   5.2718242e-05   1.5813869e-04   1.3153449e-04
   2.0756206e-04  -3.5228633e-05   8.3560313e-05   5.3661115e-05   9.0179135e-05   1.3458675e-04   1.4412035e-04   1.7828852e-04  -8.8225233e-06  -1.1535428e-04  -2.2292222e-04  -1.0998469e-04  -1.8815510e-05   2.4714087e-05   4.7039612e-05   1.1431101e-04  -1.8969906e-04  -3.0138521e-04   2.5404655e-05  -1.7250255e-05   4.7845777e-05   1.5533427e-05   4.7140180e-05  -3.6259615e-05   8.5106276e-06  -6.7776644e-05  -1.8841315e-04   2.1009269e-04  -3.2880416e-05   2.2640660e-04  -2.1981662e-04  -4.9851346e-04   1.4821808e-04   1.1531289e-04  -1.4271953e-05  -6.7913839e-05   2.0891918e-04  -1.2327090e-04   1.7769934e-04   1.8896212e-04  -4.3539821e-05   5.6380435e-05   4.1256255e-05  -8.0879960e-05   1.2041006e-06   2.8937531e-05   5.7977308e-05   8.8260756e-05   1.6138393e-04   1.6255397e-04
   2.3255555e-04  -3.6446509e-05   7.4971955e-05   8.7781329e-05   7.5458345e-05   1.5275078e-04   1.4302673e-04   1.8325148e-04  -6.1453859e-05  -8.9658657e-05  -2.2307620e-04  -9.7571348e-05  -6.5414906e-06   9.3056209e-05   6.3308551e-05   1.2237924e-04  -1.9206261e-04  -2.5153844e-04   6.4111038e-05   1.2610490e-05   4.6919373e-05   1.0509472e-05   8.9107562e-05  -3.1675812e-05  -2.6184045e-05  -6.2993640e-05  -1.5738561e-04   2.3725565e-04  -2.1022117e-05   2.4320016e-04  -1.4655855e-04  -3.2416970e-04   1.0925748e-04   4.2397103e-05  -6.6108456e-05   4.9249280e-05   3.1129539e-04  -4.7601188e-05   2.1473598e-04   1.3065025e-04  -4.9507540e-05   1.0054586e-05   8.4761567e-05   1.6313438e-04   1.5515569e-05  -2.7369657e-05   6.1716033e-05   1.0156155e-04   1.9028729e-04   1.6087710e-04
   2.5925931e-04  -1.5613949e-05   8.3812396e-05   9.9277262e-05   8.3758539e-05   8.1174527e-05   1.7082646e-04   2.3067613e-04   3.6191774e-05  -7.6794538e-05  -2.0240787e-04  -8.2723585e-05  -4.6058096e-05   1.1614339e-04   1.0175735e-04   1.2907445e-04  -1.4354728e-04  -1.8784247e-04  -3.9664828e-06  -7.0595925e-06   4.6894831e-05  -2.3733408e-05   8.2661882e-06  -5.3601361e-05   6.7125744e-05  -6.9954694e-05  -1.1526216e-04   1.6514442e-04  -5.2581527e-05   2.1159452e-04  -6.0073438e-05  -2.4422846e-04   1.3893651e-04  -5.5471162e-05   5.4931683e-05  -6.8639558e-05   2.4329657e-04  -3.7785587e-05  -2.9313625e-05   2.0288708e-04   1.3878851e-04   4.3357559e-05   1.7757498e-05  -5.2181690e-06  -3.5323621e-05   5.8924405e-05   2.3120454e-05   1.0435581e-04   1.9177030e-04   2.2479666e-04
   2.3856935e-04  -3.4274035e-05   8.0152022e-05   8.3437990e-05   8.9774519e-05   1.2202525e-04   1.5228004e-04   2.4604928e-04  -1.5759226e-05  -8.1175393e-05  -2.3519954e-04  -1.0367203e-04  -2.4853767e-05   1.1628187e-04   1.1543351e-04   1.4614961e-04  -9.9133089e-05  -1.2974672e-04  -2.9206820e-05  -3.0654376e-06   3.0619933e-05  -5.9087713e-05   1.0065223e-04  -8.8238216e-05   1.2065827e-04  -6.8206238e-05  -2.5536479e-05   2.4852259e-04  -8.5441225e-06   2.4102014e-04  -1.1244063e-04  -1.6479842e-04   1.5292231e-04   1.0247414e-04   4.3206022e-05   3.9550327e-05   2.0331820e-04  -4.5980509e-05   6.7734894e-05   2.9494846e-04  -9.8653771e-05   1.7000892e-05  -5.1306703e-05  -1.8978177e-04  -7.0198606e-05   1.2370558e-04   2.0681520e-05   4.9057198e-05   1.3342319e-04   1.9965020e-04
   2.1043222e-04  -6.2421706e-05   8.7164844e-05   3.2411754e-05   1.0772716e-04   1.0653624e-04   1.0751710e-04   2.2844766e-04  -9.7303171e-05  -9.0173839e-05  -2.3688363e-04  -1.2384070e-04  -4.8043574e-05   6.7848538e-05  -4.2190695e-05   1.7262614e-04  -6.4644642e-05  -5.9580114e-05   1.5178882e-04  -2.9644601e-05   1.4282607e-05  -4.8665133e-05   8.9081295e-05  -4.8828202e-05   1.6403534e-04  -3.0430829e-05  -1.0283191e-04   3.4465632e-04   4.3813936e-05   2.4487299e-04   2.2467300e-05  -1.2690398e-04   1.2016683e-04   5.7570851e-05   3.7178113e-05  -6.4560678e-05   2.3317280e-04  -1.9168483e-05   3.7950656e-04   2.8747387e-04  -3.8431765e-04   5.4052798e-06   1.1983437e-04   5.4193864e-05  -2.8460729e-05  -3.1837095e-05   4.7582771e-06   1.1732944e-04   1.8779261e-04   1.5007168e-04
   2.3505815e-04  -5.1642000e-05   8.4167303e-05   5.5309043e-05   7.1922543e-05   5.5949531e-05   1.2049975e-04   2.0161609e-04  -7.2648247e-05  -8.7448971e-05  -2.2702382e-04  -1.2219281e-04  -1.6197835e-05   7.3982781e-05  -4.0945429e-06   1.6983687e-04  -5.0110855e-05  -9.0718117e-05   9.6623198e-06  -2.9800509e-05   2.3913215e-05  -6.9608373e-05   4.3153916e-05  -7.8793397e-05   3.1655763e-05  -7.4184580e-05  -1.2157994e-04   2.3458595e-04  -2.4748411e-05   2.2675743e-04  -4.0528325e-06  -1.2518186e-04   2.5583289e-05   1.0551931e-04  -4.0450224e-05  -5.5516091e-05   3.2878286e-04  -3.5913079e-05   1.1016524e-04   2.8179478e-04  -4.7912086e-05  -2.3071563e-05  -1.9548609e-04   1.6141760e-04  -1.2601577e-04   1.2833734e-04   4.0849642e-05   8.8769746e-05   1.7049311e-04   1.4294649e-04
   2.0708730e-04  -4.9729268e-05   7.7779376e-05   5.1688676e-05   9.7983393e-05   9.1063928e-05   1.0794362e-04   2.1194592e-04  -6.1230239e-05  -8.7869172e-05  -2.4192357e-04  -1.2495089e-04  -3.2971708e-05   4.0677394e-05   1.5031619e-04   1.8352643e-04  -7.6278811e-05  -6.8085545e-05   2.0690582e-05  -1.7734068e-05   2.4682771e-05  -1.0783513e-04   3.3918273e-05  -1.0649621e-04   2.1945735e-04  -6.0494869e-05  -1.5008989e-04   3.1255480e-04   7.2643204e-05   2.8164775e-04  -5.8495869e-05  -1.4046027e-04   6.4540232e-05   5.0244860e-05   3.9340724e-05   1.7284920e-05   2.5150762e-04  -5.8229120e-06   2.0267945e-04   2.6647627e-04  -8.4082611e-05  -2.1330363e-08  -1.0348351e-04  -4.5061526e-05  -9.1174370e-06   9.7231401e-05  -1.9765857e-05   4.3885797e-05   1.9875210e-04   1.8231616e-04
   2.1925692e-04  -3.5463596e-05   7.8142606e-05   7.4925476e-05   7.6200886e-05   7.3972602e-05   1.3194286e-04   1.8656370e-04  -8.1371712e-05  -7.2315772e-05  -2.4399058e-04  -1.1788627e-04  -5.3532531e-05   6.2441119e-05   3.5702760e-05   1.5149520e-04  -1.5604126e-04  -1.3829583e-04  -3.8094586e-05  -1.7460346e-05   5.4458211e-05   1.2883428e-05   2.0145604e-05  -6.8885609e-05   7.0470291e-05  -4.6264962e-05  -1.3962819e-04   1.9704597e-04   6.0354920e-05   2.0692268e-04  -5.6990364e-05  -2.6202644e-04   1.1211122e-04   2.2486519e-04  -5.3834923e-05  -5.1772513e-05   2.3520105e-04  -2.6786765e-05   6.4732616e-05   2.7102439e-04  -1.6124138e-04  -8.9598916e-06  -6.9657712e-05   1.4799146e-04  -9.4599724e-05   2.0931897e-04   2.2553557e-05   8.3112514e-05   1.4701868e-04   1.1282627e-04
   2.0123311e-04  -3.2211883e-05   7.3162017e-05   7.1896051e-05   7.6312645e-05   8.9839770e-05   6.6984037e-05   1.0912200e-04  -2.9924146e-05  -7.1756389e-05  -2.4295284e-04  -1.0724942e-04  -7.5727890e-05   3.8844872e-05   5.7344947e-05   1.3525788e-04  -1.7081101e-04  -1.9988146e-04  -2.4249888e-05  -2.3145118e-05   5.3725540e-05  -4.0877378e-05  -1.8587121e-05  -3.7378049e-05   1.8272965e-04  -4.7316276e-05  -1.3594591e-04   1.7480708e-04   3.6795391e-06   2.2416199e-04  -1.0315061e-04  -3.2554090e-04   9.6380099e-05   1.6502150e-04  -1.3128520e-06  -1.1365137e-04   2.3383908e-04  -5.6199176e-05   7.5467637e-05   3.2839522e-04   1.9524996e-05   6.9359967e-06  -1.3851084e-06   1.3901404e-04  -9.5760217e-05   1.9411971e-04   2.2565930e-05   1.5713622e-05   1.7469983e-04   8.6203567e-05
   1.7665303e-04  -2.9170291e-05   6.6626337e-05   7.7568882e-05   7.9662874e-05   1.0896273e-04   1.1553774e-04   2.3035548e-04  -9.9127254e-05  -7.8046265e-05  -2.4061355e-04  -8.9359870e-05  -7.8468947e-05   1.4154174e-05   5.9000799e-05   1.2008725e-04  -1.9480506e-04  -2.6684342e-04  -5.6466284e-05  -4.0043218e-05   7.2030132e-05  -1.5814550e-05   5.7583842e-05  -4.9026254e-05   2.5237208e-05  -5.3468033e-05  -1.8540659e-04   1.2187584e-04  -7.3605488e-06   2.1725141e-04  -5.8767164e-05  -4.6140712e-04   1.1906170e-04   1.1615583e-04  -5.0579689e-05  -9.1996728e-05   2.2372749e-04  -1.0782140e-04   3.1617968e-05   1.7006689e-04   7.1627069e-06   5.4578554e-06  -6.1313527e-05   2.5892279e-05  -6.5018605e-05   1.8123373e-04   9.2663813e-06   4.4213411e-05   1.6288311e-04   9.5170144e-05
   1.7850404e-04  -2.9304798e-05   6.1950428e-05   6.8799585e-05   6.4009982e-05   6.9955677e-05   9.8290220e-05   1.0688057e-04  -2.0420817e-05  -7.5432574e-05  -2.3390801e-04  -7.0368915e-05  -4.7359270e-05   2.3134897e-05   1.4195996e-04   1.1258020e-04  -2.0274748e-04  -3.3460194e-04  -1.6784063e-05  -3.0788560e-05   7.1651353e-05  -7.0566530e-06   2.4217197e-05  -3.3579054e-05  -1.9579500e-04  -5.6374349e-05  -1.6253542e-04   1.2167306e-04  -8.1389306e-05   2.0660927e-04  -1.4335003e-04  -5.0060981e-04   1.0504033e-05   1.6002342e-04   7.5921635e-06  -7.2260074e-05   2.1824420e-04  -1.7788037e-04   3.3521173e-05   1.4993199e-04  -3.9014308e-06   4.6166882e-05   1.6279734e-04   2.0126073e-04  -8.8592540e-05   1.1819704e-04   2.7858021e-06   2.7565899e-05   1.3244961e-04   1.2377318e-04
   1.4944821e-04  -4.0582428e-05   5.6083227e-05   6.8368507e-05   6.2148087e-05   5.6344052e-05   4.8458020e-05   1.9891963e-04  -1.1986620e-04  -7.0243652e-05  -2.3787380e-04  -6.5510809e-05  -7.2013463e-05   5.9105452e-05   5.2994688e-05   1.0480507e-04  -2.1888029e-04  -3.6150162e-04   2.1938011e-05  -2.1431555e-05   7.5298354e-05  -1.9098856e-05   2.9083814e-05   1.1187678e-05  -6.7690475e-05  -2.8973171e-05  -1.6542232e-04   1.8002505e-04  -4.6982732e-06   2.8078997e-04  -1.2041736e-04  -5.0029188e-04   1.2916751e-04   1.2473812e-04  -4.3356104e-05  -1.7356953e-04   2.4930059e-04  -1.5643625e-04   2.9625231e-04   1.6773652e-04   1.5608937e-04   2.3000403e-05   2.6805797e-05   1.5252238e-04  -9.4869676e-05   1.6214096e-04   2.0820033e-05   7.8543206e-05   1.9187918e-04   1.1855247e-04
   1.7866262e-04  -1.8557830e-05   6.0850405e-05   9.3874878e-05   4.6696670e-05   2.4630546e-05   6.4967317e-05   1.7184380e-04  -1.0245149e-04  -6.7465611e-05  -2.2455709e-04  -5.2853931e-05  -8.1562124e-05   3.7570557e-05   5.2459374e-05   8.2358732e-05  -2.2660181e-04  -3.7908161e-04  -1.9868030e-05  -1.5718470e-05   7.3086660e-05  -1.3727898e-05   4.6863312e-05  -7.1003506e-06   7.2112227e-05  -6.1759536e-05  -1.4650500e-04   1.1657250e-04  -4.7369616e-05   2.2228299e-04  -1.6150888e-04  -5.2739668e-04   1.5434877e-04   1.4789110e-04  -7.1007562e-05  -1.0849464e-04   9.4064846e-05  -2.0812864e-04   2.1448785e-04   5.9498521e-05  -2.3996905e-05   3.7144684e-05  -6.8440750e-05   9.6643918e-05  -1.3224472e-04   6.2409134e-05   3.1661821e-05   5.6446490e-05   1.2853170e-04   1.2960330e-04
   1.1753776e-04  -3.5236986e-05   5.6545883e-05   7.7197161e-05   2.8227407e-05   2.5095744e-05   4.3780623e-05   1.6576369e-04  -6.3612308e-05  -6.3756277e-05  -2.2336046e-04  -4.1385469e-05  -6.2873267e-05   6.0072402e-06   6.3786480e-05   8.6074673e-05  -2.2334863e-04  -3.9485886e-04   3.1998748e-05  -1.1856913e-06   7.2622686e-05  -1.5916956e-05   9.0135851e-05   4.0115687e-05   9.9212521e-05  -5.7225145e-05  -1.4603109e-04   7.5542353e-05  -1.1171484e-04   2.2103963e-04  -1.1589429e-04  -5.5032765e-04   2.4661591e-04   1.7844133e-05  -4.4818491e-05  -1.7574794e-05   2.1562450e-04  -2.5105634e-04   9.8587050e-05   2.9389770e-04  -8.4207626e-05   3.9821371e-05  -1.2485716e-04   1.3802814e-05  -8.1136306e-05   2.0538598e-04   3.5965193e-05   7.5265183e-05   1.9225449e-04   1.8784842e-04
   1.2831147e-04  -2.1528129e-05   5.8131111e-05   7.4448668e-05   1.9856745e-05   3.7981896e-05   2.7925087e-05   7.7575743e-05  -4.8650520e-05  -5.3979355e-05  -2.2612179e-04  -1.3476679e-05  -8.8529348e-05   5.4985827e-05  -1.1868732e-05   7.1318580e-05  -2.2103435e-04  -3.6967636e-04   3.1392668e-05  -1.3917271e-05   7.8155805e-05   1.6664306e-05   6.7666966e-05   1.3576485e-05   5.3010386e-05  -5.6233945e-05  -1.8243209e-04   2.6045309e-05  -1.4666472e-04   1.9899629e-04  -6.6734712e-05  -4.9649889e-04   6.4106942e-05   9.1570262e-05  -3.7344686e-05  -3.3334203e-05   1.1960022e-04  -2.3011620e-04   1.2203921e-05   1.4354574e-04  -1.4251095e-04   3.3230619e-05   1.1937010e-04  -1.1199451e-04  -9.4811330e-05   1.2777913e-04   5.0984847e-05   1.0092265e-04   2.2196995e-04   1.1334622e-04
   9.1959686e-05  -3.7482267e-05   4.0233397e-05   6.3781474e-05   1.1981805e-06   2.6740388e-05   5.1127448e-05   1.2538330e-04  -9.4949801e-06  -4.9613394e-05  -2.2333275e-04  -1.2436744e-05  -8.2414619e-05   7.8387129e-05   7.8194986e-05   7.6485630e-05  -2.0683084e-04  -3.6737430e-04   2.7989661e-05  -4.7197314e-06   7.4659118e-05   7.2893845e-06   4.7513655e-05   1.9663721e-05  -1.5577253e-04  -3.0746509e-05  -1.6071113e-04   5.2895743e-05  -1.0988978e-04   2.2165585e-04  -1.8022723e-04  -4.9830257e-04   3.0438046e-04   8.0874946e-05  -4.2667096e-05  -1.0750610e-04   1.1334505e-04  -2.1115130e-04   2.0332345e-04   2.7931985e-04   6.0645027e-05   4.9366063e-05  -4.4231740e-05   4.7629368e-05  -1.0270962e-04   1.4587684e-04   3.8638904e-05   4.0628103e-05   1.1393667e-04   1.5090345e-04
   7.9921527e-05  -4.7848389e-05   4.6091140e-05   5.4450458e-05   1.9841522e-05  -2.0129598e-06   2.9206998e-05   7.8750723e-05  -8.6733431e-05  -6.5131921e-05  -2.3956517e-04  -2.0503054e-05  -4.3498840e-05   4.2562840e-07   2.6394906e-05   9.5642761e-05  -1.8411510e-04  -3.2651631e-04   7.0264563e-05  -4.3651562e-05   6.7799810e-05  -2.5582081e-05   3.9716961e-06  -2.7146616e-06  -3.3925994e-06  -5.5719709e-05  -1.1452228e-04   1.6408638e-04  -7.1290997e-05   2.1561068e-04  -1.4400284e-04  -4.3006189e-04   2.2694865e-06   5.7744448e-05  -3.7092657e-05  -1.1648698e-04   1.4922745e-04  -2.0672817e-04   5.5794389e-05   2.6798097e-04  -3.0913478e-04   7.5029056e-05  -1.7868626e-04   6.4767395e-05  -8.3946608e-05   1.7510245e-04   2.5678308e-05   7.1038638e-05   1.4662962e-04   1.4323957e-04
   8.2723673e-05  -4.0544415e-05   4.8738337e-05   5.7832916e-05   3.4120665e-06  -1.2904183e-05   6.9753420e-05   4.1480413e-05  -1.3135317e-04  -5.0789873e-05  -2.4129111e-04  -3.4243858e-05  -3.0142841e-05  -2.4692114e-05  -1.8377634e-05   1.0427154e-04  -1.6622496e-04  -3.1966553e-04  -9.4462644e-05  -1.9868450e-05   6.6443587e-05  -2.9157927e-05  -1.7478345e-05  -9.8077298e-06   4.1613795e-05  -4.4572691e-05  -1.6342236e-04   6.7786721e-05  -8.5312531e-05   1.9611108e-04  -2.6133526e-04  -4.7775340e-04   2.4204243e-04   9.5803567e-05   2.7705879e-05  -1.2832924e-04   5.0474140e-05  -2.0538743e-04   9.8368873e-05   1.1506441e-04  -8.8317705e-05  -3.7661757e-05   8.3023362e-05   2.4629280e-04   1.5654487e-05   3.2651820e-05   2.9828758e-05   8.8741835e-06   1.1887705e-04   1.0250547e-04
   3.1303727e-05  -5.9310561e-05   3.5824654e-05   3.6781443e-05  -1.2596660e-05   1.7797625e-05   3.8076792e-05   1.8906125e-05  -1.3326363e-04  -4.7608672e-05  -2.5133960e-04  -3.4338398e-05  -5.2485881e-05   1.8744548e-05  -5.4584172e-05   1.1147406e-04  -1.5301417e-04  -2.9500428e-04  -5.9443413e-05  -7.9322472e-06   5.7931971e-05  -5.0146347e-05   2.6571508e-05  -5.0655849e-06   2.1434941e-04  -6.3742882e-05  -1.4958740e-04   1.3411313e-04  -8.3827254e-05   2.1570608e-04  -7.7466539e-05  -4.0950999e-04   4.6810561e-05   9.1304959e-05  -1.3203613e-04  -3.5355046e-05   6.1235150e-05  -1.7486478e-04   2.3386235e-04   1.7967002e-04  -7.9537029e-05   1.9090468e-05  -8.2715771e-05   1.7818708e-04  -5.0555168e-06   3.9348117e-05   1.6322861e-05   3.0161389e-05   1.4040504e-04   1.1295574e-04
   6.7848217e-05  -4.9259233e-05   4.6207588e-05   4.2855761e-05   2.9237474e-06  -3.1755633e-05   6.9378781e-05   1.4315661e-06  -1.6493423e-04  -5.4291439e-05  -2.5702527e-04  -3.8429429e-05  -7.8853394e-05   1.4147626e-06   1.1353727e-05   7.9155761e-05  -1.5141803e-04  -3.3002027e-04  -5.2228188e-05  -5.2978863e-05   6.6952533e-05  -4.8128601e-05  -3.6615907e-05  -6.2573954e-06  -3.1337127e-05  -8.2821294e-05  -2.1360735e-04  -4.5277222e-05  -6.9583686e-05   1.6463982e-04  -1.5235785e-04  -4.5537457e-04   1.0601755e-04   1.4320030e-04   3.9901654e-05   7.6351907e-06   3.2621276e-05  -1.9181267e-04   1.7657092e-04   1.7309337e-04  -2.5602378e-04   6.7877581e-06   6.4097418e-05   2.1350793e-04  -2.0275665e-04   1.1719883e-04   5.8857178e-05   5.1305706e-05   1.4659585e-04   9.1928792e-05
   4.0509520e-05  -6.1957129e-05   3.3918404e-05   3.2295575e-05  -2.3919569e-05  -4.3018390e-05   4.0182855e-05  -1.6594691e-05  -1.7650706e-04  -4.5478348e-05  -2.5486463e-04  -3.1773096e-05  -9.0632762e-05  -1.0055261e-05  -1.1783911e-05   7.6558499e-05  -1.7119908e-04  -2.9615400e-04  -1.7085609e-05  -2.4993844e-05   6.9359361e-05  -6.9021509e-05   1.0392281e-05   7.9245383e-06  -1.8703757e-05  -3.4700930e-05  -3.0102106e-04   3.4244626e-05  -1.3126312e-04   2.0264750e-04  -1.1193434e-04  -4.5717493e-04   1.2613302e-04   1.5121991e-04  -2.8764478e-05  -2.1959302e-06   8.9987298e-05  -2.0623575e-04   3.9575258e-05   1.6015160e-04   4.7049685e-05  -7.7870945e-06   7.4970080e-06   9.1460613e-05  -1.0603108e-04   1.3138464e-04   4.3437405e-05   6.7326742e-05   1.3267428e-04   9.4871612e-05
   4.3395114e-05  -6.3448613e-05   3.6234658e-05   3.1345338e-05   1.9380359e-05  -8.0474356e-06   4.2825603e-05   7.6656055e-05  -1.4837550e-04  -5.5249286e-05  -2.7925122e-04  -3.4116158e-05  -1.0744745e-04  -1.7406630e-05  -1.6799644e-05   1.1348152e-04  -1.5068523e-04  -2.6474698e-04  -4.9036888e-05  -6.1396189e-05   8.0009493e-05  -2.3479543e-05  -1.0241026e-05  -1.5334652e-05  -9.6110540e-05  -5.9828551e-05  -2.4133842e-04   6.4194581e-05  -1.2415816e-04   1.9597402e-04  -1.4433303e-04  -4.3022432e-04   1.1411733e-04   1.9466790e-05  -1.9758449e-05  -8.4716681e-05  -1.4103553e-04  -1.8997640e-04   1.5262421e-04   2.5166440e-04  -7.1987602e-06   1.7039341e-05  -4.6687597e-05   1.5467558e-04  -4.2914584e-05   6.4141241e-05   1.9134504e-05   4.3091739e-05   1.5031460e-04   1.1310893e-04
   4.4402837e-05  -3.7239424e-05   4.0274608e-05   3.3445725e-05   1.9406291e-06   2.2805474e-05   5.9004851e-05   7.2786817e-05  -1.5277846e-04  -6.6625355e-05  -2.5653152e-04  -5.9300869e-06  -1.1696386e-04  -4.1993262e-05  -1.5447647e-07   8.5521766e-05  -2.0381666e-04  -3.5149322e-04  -2.3541872e-05  -9.0187772e-05   1.1722148e-04  -6.2147010e-05   3.2668158e-05   4.3793734e-05  -3.8244907e-06  -1.7980930e-05  -1.9942901e-04   2.3375262e-05  -1.8983963e-04   1.7357360e-04  -2.0881144e-04  -6.3582783e-04   1.3450599e-04   1.1818678e-04  -8.1824131e-05  -2.2976108e-05   1.5434448e-04  -2.3670851e-04   8.3336119e-05   1.4729952e-04  -1.3810705e-04   2.1375175e-05  -5.8894202e-05  -1.6500353e-04  -6.8890055e-05   5.3599531e-05   5.7600348e-05   6.1057333e-05   1.1076726e-04   9.7319877e-05
   8.0324189e-06  -3.2010572e-05   2.9173019e-05   1.5878861e-05   3.1105945e-05   3.9113933e-05   5.1878400e-05   1.0752808e-04  -2.1779111e-04  -9.1971844e-05  -2.5316948e-04  -8.2115747e-07  -8.0079815e-05  -7.1208182e-05   1.9259551e-05   8.9591675e-05  -2.3264761e-04  -4.2490158e-04   2.6577734e-05  -9.4651776e-05   1.5007453e-04  -8.4845764e-05  -8.3545630e-05  -7.7972186e-07  -2.4882103e-05  -3.7374593e-05  -1.9768221e-04   1.5845196e-04  -1.4160131e-04   2.4058434e-04  -2.5327815e-04  -6.9314055e-04  -3.8707432e-05  -1.7507247e-05   4.0364124e-05  -7.2726602e-06   7.0121125e-05  -1.6810308e-04   2.9828056e-04   9.7197284e-05  -1.1250073e-05   6.6538214e-06  -7.1818933e-05   4.9025843e-05  -3.4495832e-05   2.2409455e-04   7.7190198e-05   6.8671929e-05   9.3768700e-05   4.4242261e-05
   8.2662373e-05  -7.2457897e-06   5.5988086e-05   3.9470040e-05   7.5445052e-05   1.6903490e-05   1.0549100e-04   1.1337933e-04  -1.5737873e-04  -1.2999469e-04  -2.5275745e-04  -9.5302476e-06  -1.1821713e-04  -6.0771730e-05   6.4343600e-05   4.3380485e-05  -3.6953896e-04  -6.0586800e-04   3.4732417e-05  -1.2633194e-04   2.1183380e-04   3.9378749e-05  -4.9942035e-05   3.4618846e-05   2.6258512e-04  -5.2703432e-05  -1.8367868e-04   8.1180769e-05  -2.2726186e-04   1.9922464e-04  -2.8228533e-04  -9.4019069e-04   2.7279515e-04   8.1108337e-05   4.8645041e-05  -5.1677809e-05   1.0091162e-04  -1.8970238e-04  -1.2078781e-04   2.1096822e-04  -6.9788999e-05   1.2278148e-05  -1.7095607e-04   2.6501963e-04  -1.4166351e-04  -1.1015492e-05   5.9974485e-05   5.7802896e-05   3.1285417e-05   5.7687961e-05
   7.8831581e-05  -2.8708708e-05   3.6782785e-05   8.8231631e-05   5.3155491e-05  -2.4145746e-05   1.1552397e-04   4.7611615e-05  -2.1742829e-04  -8.5562540e-05  -2.5311616e-04   1.8971750e-05  -1.0519250e-04  -9.6655771e-05   1.2572995e-07  -3.8222970e-05  -4.4998771e-04  -5.7785452e-04  -5.2292376e-05  -6.9572292e-05   2.1694181e-04   3.8190090e-05  -1.9459230e-05   2.5217003e-05   5.5773788e-05  -5.1587358e-05  -1.6213227e-04   6.2568492e-05  -1.3276900e-04   1.7525458e-04  -1.5618218e-04  -5.2568549e-04  -6.1427447e-05  -2.3579958e-05  -1.6713708e-06  -4.0588271e-05   1.5388850e-04   6.0977854e-05   9.7835364e-05   9.9546014e-05  -2.5373491e-05   3.8383874e-05   5.0991897e-05   1.6721376e-04   1.3252451e-05  -2.2910046e-05   6.3865315e-05   2.6624690e-05   7.0525377e-05   6.8571326e-06
   1.3004117e-04  -1.2038340e-05   2.8707882e-05   1.1942360e-04   3.2938216e-05  -1.2115605e-05   7.6648008e-05   1.2451809e-04  -1.0762529e-04   2.1845726e-05  -2.0949815e-04   5.0637464e-05  -4.9174632e-05  -1.8688041e-05   2.7103852e-05   6.1099207e-05  -1.7392634e-04  -3.8042417e-05  -5.3298005e-05   2.0017236e-05   1.1702510e-04  -3.6962043e-05   4.4688699e-07   9.2574635e-05  -9.5096912e-05  -4.1772422e-05  -1.1211666e-04   1.4945991e-04   1.9705930e-04   1.4910563e-04   4.4163287e-05   3.5021396e-04  -4.9615952e-05  -7.0936949e-05   2.0886655e-06  -1.6121570e-05   1.6270370e-04   4.9736822e-04   8.8904992e-05   1.3892028e-04   1.6386197e-04  -3.0774994e-05  -3.3746079e-07   3.1122632e-05  -3.4696983e-05  -1.3611180e-04  -2.3781931e-05  -3.0624680e-05   1.6371971e-04   2.9268938e-05
   1.5516287e-04  -6.0231687e-05   2.7168664e-05   1.0758985e-04   4.1160562e-05   6.1834777e-05   1.3161497e-04   1.0814197e-04  -8.1357459e-05   1.5900041e-05  -1.8800226e-04   6.0712409e-05  -6.7959161e-05   6.5574292e-05   2.3023293e-05   6.7254136e-05  -7.0836519e-05   7.1271883e-05  -6.1962208e-05   3.1678323e-05   6.1350300e-05  -8.5045365e-05  -2.9372042e-05   1.3385748e-04  -8.9819201e-05  -5.9751947e-05  -1.1300454e-04   1.7477620e-04   1.3911919e-04   1.4352279e-04   2.1460035e-05   3.0758957e-04  -2.7939519e-05  -1.6884411e-05  -3.4943823e-05  -4.9976712e-05   8.6940730e-05   3.9842920e-04  -6.5323446e-05   7.0605114e-05  -3.1468386e-04  -1.8339746e-05   6.1918647e-05  -1.6993494e-04  -8.5330947e-05  -4.0173945e-06   6.2864419e-06  -1.0234479e-05   1.4825018e-04  -5.6271033e-06
   2.8160980e-04  -9.8171004e-05   7.3510899e-05   9.6687123e-05   1.5768484e-06  -2.8073107e-06   8.2383864e-05   8.0598096e-05  -1.6392166e-04  -2.5531175e-04  -2.4521575e-04   4.6147201e-05  -1.0286040e-04   7.2765404e-05   4.0800787e-05   1.1083805e-04   6.2395287e-05   3.3760600e-05  -1.1874484e-04  -2.2523578e-05   3.7428999e-05  -1.4917718e-04   1.9846831e-05   2.9771775e-04  -2.3650033e-04  -5.2211632e-05  -1.7344672e-04   2.4574556e-04   8.4845291e-05   2.0241371e-04   2.3810355e-05   1.4769609e-04  -4.9754417e-05   2.6901100e-05  -6.5609922e-05  -5.2299347e-05   1.7461879e-04   3.0241947e-04   1.7518195e-04  -1.2647767e-04  -6.7844288e-05  -9.4815605e-06  -9.7482851e-05  -1.8246012e-04  -7.7221674e-05   6.2134270e-05   1.7577309e-05   8.3419007e-05   1.5225669e-04  -2.2392394e-05
   6.6089106e-04  -4.7362069e-04   2.4322790e-04   3.4718025e-05  -4.0057905e-05   9.0448884e-05   1.0619149e-04   2.0799223e-04   1.1198487e-04  -8.5260358e-04  -7.9400292e-05   2.5607189e-04  -1.5186722e-04   3.4836015e-05   1.0303700e-04   1.0287433e-04   1.9835800e-04  -1.0380591e-04  -5.2187261e-05  -1.3789184e-04   4.5739864e-05  -2.1933171e-04   2.4186458e-05   4.5519863e-04   1.9455585e-04  -3.7614976e-05  -1.1254090e-04   1.1234250e-04  -1.1454303e-04   1.8527049e-04   1.1332969e-04  -3.1089308e-04   6.3564155e-05   5.0192313e-05   1.1737907e-05   8.8777771e-05   3.2227494e-05   4.3087279e-05   9.4014715e-05   3.7380916e-05   4.4440378e-05   3.3679877e-05   1.5672408e-04   1.6468829e-04  -1.2604272e-04  -4.6876235e-06   2.8872595e-05   9.4738825e-05   5.2328382e-05  -5.1982322e-05
   4.5346911e-04  -3.8855083e-04   1.0734727e-04  -8.1389029e-05  -6.1530402e-05   1.2542876e-04   2.3184148e-05   2.1049244e-04  -1.9944811e-04   3.2053093e-04  -1.2866156e-04   1.0569067e-04   2.4774998e-05   7.4018077e-05   1.0376548e-04   1.6079949e-04   1.8757720e-04  -1.5418101e-04  -9.4244300e-05  -1.9647698e-04   5.0934264e-05  -2.2629337e-04  -8.1786435e-05   1.6020726e-04   4.1832242e-05  -1.1933721e-05  -1.4358418e-04   4.1935098e-05  -2.1903544e-04   2.5717786e-04  -4.1478168e-05  -6.1103934e-04  -4.8258258e-05   1.4042595e-04   3.0787211e-05   5.4343855e-05   9.3457647e-06  -4.2653733e-04  -1.0249553e-04   9.6878539e-05  -1.1748909e-04   1.1503296e-04   9.7412580e-05   2.0583038e-04  -2.3489047e-05   5.9337643e-05   6.6271525e-05   6.4971828e-05   2.5536046e-05   3.3136987e-06
   1.4816994e-04  -2.1061263e-04   8.2882580e-06  -6.0254850e-05  -5.5275199e-05   1.6920350e-05  -2.3461114e-05   4.9793151e-05  -1.5049127e-04  -3.9082548e-05  -1.6466940e-04   2.4036903e-05  -4.5515266e-05   2.7164069e-05  -3.6917230e-05   3.0941905e-05  -1.4506317e-04  -5.0444115e-04   3.2063385e-06  -1.5732102e-04   1.0581695e-04  -4.8800721e-05  -7.8291807e-05   6.7043184e-05   1.7969309e-05   1.4442875e-05  -2.3744098e-04  -9.3078022e-05  -3.9598247e-04   1.4359408e-04  -1.7006042e-04  -1.0289692e-03   4.8305628e-05   7.1826711e-05   5.3090796e-05   1.6385558e-05  -9.0568319e-05  -6.5235893e-04   1.3265281e-04   1.9297174e-04   3.0473704e-05   1.2989168e-04   1.6297546e-04   4.0850635e-05  -1.1753825e-04  -4.9189821e-05   6.1632585e-05   7.9165089e-05  -4.3062224e-05   9.2452989e-05
   1.7834960e-05  -1.8188459e-04  -5.5450328e-05  -6.9337143e-06  -1.2455578e-04   4.5337641e-05  -4.4221306e-05   2.9339184e-05  -5.6664019e-05  -1.9746866e-04  -1.4521330e-04   5.6244585e-06  -2.8233717e-05  -3.9261409e-05   4.4178683e-05  -4.0341605e-05  -3.2054776e-04  -6.0578383e-04  -1.5833147e-04  -1.3778407e-04   1.6231388e-04   7.2723444e-05  -4.9386890e-05   1.5272091e-05  -1.2292476e-04  -8.3929572e-06  -2.1320516e-04  -1.5974136e-04  -3.2729769e-04   1.3703135e-04  -2.1915103e-04  -8.9403853e-04   1.3313796e-04  -3.1959655e-05  -8.6103508e-05  -3.4432527e-05  -8.8653105e-05  -5.4935063e-04   1.7265229e-04   8.0124104e-05   5.0339964e-05   9.2474642e-05   6.7927518e-05   2.0607914e-04  -1.0749332e-04   9.1764487e-06   6.4204389e-05   4.6285848e-05  -2.7065118e-05   7.9705467e-05
   1.2757616e-06  -1.6909414e-04  -6.6210479e-05   7.4260555e-07  -1.1941881e-04  -3.1075459e-05  -4.4126256e-05  -2.8687818e-05  -8.0253951e-05  -2.0718084e-04  -1.5353556e-04  -7.5435773e-06  -5.7389960e-05  -2.9701225e-05   7.9178280e-05  -2.7993856e-05  -3.1511058e-04  -5.6522823e-04  -4.8840113e-05  -1.3565904e-04   1.6867742e-04   6.1670755e-05  -1.1957620e-05   5.3703392e-05   2.5424146e-04  -2.4971456e-05  -2.7909520e-04  -1.7178740e-04  -3.3781127e-04   1.2172230e-04  -2.4447119e-04  -9.2500448e-04   1.3454923e-04   1.0904220e-04  -4.0173963e-05  -7.7447381e-05  -1.5473404e-04  -4.9647863e-04   2.3549295e-05   2.1439751e-05  -1.3771118e-04   9.3409093e-05  -4.5878045e-05   2.2170885e-04  -6.8786219e-05   1.2036563e-04   3.1310414e-05   8.3133401e-08  -4.0213828e-05   8.4901811e-05
  -8.3596087e-06  -1.5543698e-04  -8.3162326e-05  -5.4966340e-06  -1.3499543e-04  -5.6707933e-05  -4.7723312e-05  -5.6859837e-05  -1.8315756e-04  -1.6097841e-04  -1.7288468e-04  -1.4858490e-06  -4.3944954e-05  -2.9246021e-05   9.2383409e-05  -4.0102670e-05  -2.9141526e-04  -5.5644038e-04  -1.4766899e-04  -1.5587383e-04   1.6133598e-04   9.2163864e-06  -5.2095431e-05  -2.0002921e-05   1.0327712e-04  -1.1209605e-05  -2.5107566e-04  -2.0032366e-04  -3.9987112e-04   1.1453011e-04  -1.6440790e-04  -8.9971448e-04   2.3143180e-06   1.4948192e-06  -2.3018512e-05  -1.5924168e-05  -3.4417995e-04  -5.0799240e-04   2.3557202e-04   1.4867767e-04  -2.5173166e-04   5.7785626e-05  -5.2825075e-05   2.3723485e-05  -5.6730928e-06   1.1699724e-04   2.6539770e-05  -2.2679911e-05   1.8350880e-05   8.6019478e-05
  -1.0034337e-04  -1.7279964e-04  -1.1788742e-04  -2.5381827e-05  -1.4696435e-04  -1.0364752e-04  -6.7516237e-05   4.2261090e-05  -1.5212240e-04  -9.8819932e-05  -1.9460323e-04  -2.9599571e-05  -7.9503792e-05  -7.2704403e-05   3.0294706e-05   1.1299235e-05  -2.4528545e-04  -4.5818844e-04  -7.6913158e-05  -1.3809193e-04   1.4433186e-04   1.5514295e-05  -6.4426902e-05  -2.2915967e-05   7.5210424e-05  -2.2587928e-05  -2.9360809e-04  -1.6208467e-05  -2.7357286e-04   1.3847377e-04  -1.6079615e-04  -6.8465399e-04  -1.0089175e-04   9.6562166e-05  -4.7001879e-05  -7.4991905e-05  -6.9215530e-05  -3.5987585e-04  -2.8339569e-05   1.7429823e-04  -5.0313986e-04   2.7054437e-05  -2.1907569e-04   1.0851401e-04   8.6908658e-06   2.0206427e-04   1.6811249e-05   3.4151086e-05  -2.0494395e-05   1.2846718e-05
  -6.4868684e-05  -1.2799159e-04  -1.0425964e-04   5.4084303e-06  -1.6020535e-04  -7.0777860e-05  -5.1953524e-05  -9.5030271e-05  -1.2390601e-04  -6.8006746e-05  -2.0840376e-04  -1.3214190e-05  -9.5400457e-05  -7.9415360e-05  -8.0828841e-06  -2.6161879e-05  -2.8961108e-04  -4.4377524e-04  -1.0430523e-04  -1.2038858e-04   1.5871225e-04   3.0802275e-05  -1.2793505e-04  -9.8989776e-06  -6.5337852e-05  -4.5670629e-05  -2.2591295e-04  -1.8709441e-04  -2.9137655e-04   8.8462017e-05  -2.2202435e-04  -6.5163343e-04  -5.6422181e-05   1.4081433e-04  -1.3676545e-05  -1.3838675e-04  -2.1909924e-04  -3.2231474e-04   1.3792570e-04  -2.2678350e-05  -2.2598775e-05   6.0431968e-05   3.0884512e-05  -5.2013631e-05  -2.2749595e-05   1.9476870e-04   9.7752600e-06   2.7464223e-05  -6.5915742e-06   3.9626015e-05
  -9.5379226e-05  -1.3651322e-04  -1.1863728e-04   3.1780260e-06  -1.4698978e-04  -4.9751128e-05  -5.9389167e-05  -6.5686130e-05  -1.6542787e-04  -5.5934066e-05  -1.8210469e-04  -1.4666445e-05  -7.0170441e-05  -2.5524554e-05   4.7309069e-05  -1.0017038e-05  -2.7504360e-04  -4.1459349e-04  -1.8197688e-04  -1.1562906e-04   1.4692212e-04  -6.9721732e-06  -8.2394406e-05  -2.9392602e-05  -1.2562536e-04  -5.5067376e-05  -1.4062713e-04  -2.0221673e-04  -2.6139591e-04   1.1762027e-04  -1.2873427e-04  -7.3942466e-04   8.0443555e-05   1.0511075e-04  -4.5308374e-05   1.3573007e-05  -3.2565085e-04  -2.8928882e-04   2.2057247e-05   8.1948521e-05   5.7566187e-05   6.7660672e-05   3.6076104e-05   1.4873730e-05  -9.7048869e-05   1.0149675e-04   1.4332471e-05   2.8000126e-05   1.1268705e-05   6.8418223e-05
  -5.5110118e-05  -1.1636452e-04  -9.2214606e-05   2.0729922e-05  -1.2464361e-04  -7.4485673e-05  -2.6997508e-05  -4.4806518e-05  -1.3346743e-04  -5.1357165e-05  -2.0509321e-04  -1.5086561e-05  -7.8089746e-05  -9.4020470e-05   1.2902206e-05  -7.6316255e-06  -2.6172362e-04  -3.9879940e-04  -3.3893873e-05  -1.1361768e-04   1.5280816e-04   5.7879264e-05  -7.1551774e-05   2.8124000e-06  -3.4509383e-05  -4.5060151e-05  -2.1719724e-04  -1.4592722e-04  -2.9234454e-04   5.0301933e-05  -2.7590693e-04  -6.3692470e-04  -4.3420034e-05   1.9847543e-07  -3.1577725e-05  -2.4531095e-04  -2.5136623e-04  -2.9651786e-04   2.7578677e-05   4.7838689e-06   8.6331656e-06   4.7619636e-05   3.6040619e-05   5.9880738e-05  -6.9086745e-05   9.4998672e-05   5.1403521e-08   2.1149901e-05   2.4746125e-05   2.4482089e-05
  -1.3416198e-04  -1.3202307e-04  -1.1611870e-04   3.5742314e-06  -1.4414774e-04  -9.9836048e-05  -5.0135892e-05  -4.2648484e-05  -2.1555935e-04  -4.3647258e-05  -2.1045181e-04  -9.2564160e-06  -7.1058952e-05  -7.3046933e-05  -7.5137898e-05  -2.1711194e-05  -2.7805477e-04  -4.1336063e-04  -9.1348091e-05  -1.0403156e-04   1.4545488e-04   5.0021645e-05  -9.7572789e-05  -3.4508944e-06  -1.1048676e-04  -2.0493962e-05  -2.2238391e-04  -1.6608271e-04  -2.9619742e-04   6.7553912e-05  -2.0025784e-04  -6.5429352e-04   2.2339082e-06  -2.1687725e-05  -5.3604668e-05  -1.0410400e-04  -2.8011232e-04  -2.9519148e-04  -5.6476401e-05  -2.4021425e-05  -1.9300713e-05   5.7413414e-05   4.7242927e-05   2.2546800e-04   9.8513892e-06   7.2489755e-05   1.7653892e-05  -1.1079069e-05  -3.2008778e-05   9.5905067e-05
  -1.2202585e-04  -1.3826048e-04  -1.0998006e-04   1.3754363e-05  -1.3776313e-04  -4.4653741e-05  -4.4751741e-05  -1.6262406e-05  -1.5043363e-04  -5.2034698e-05  -2.0924999e-04  -9.5717978e-06  -7.0832568e-05  -9.6404860e-05  -3.8790993e-05  -1.4764819e-05  -2.7387033e-04  -4.3577101e-04  -1.1552871e-04  -1.2860160e-04   1.5276024e-04   6.9133115e-05  -1.4873382e-04  -1.0444491e-05   8.1035309e-05  -7.8168989e-05  -2.1581173e-04  -1.6733093e-04  -3.1116800e-04   9.0056688e-05  -2.5597628e-04  -6.4019667e-04   2.9315850e-05   1.6620736e-05  -1.1253058e-04  -1.7710683e-04  -2.9401277e-04  -2.7584017e-04   9.5961383e-05   5.6931960e-05  -2.4194809e-04   1.1269547e-05   5.6249678e-06  -6.1357918e-05  -3.4851004e-05   1.5745107e-04   3.6447996e-06  -2.9415003e-06   5.9461026e-06   4.1881471e-05
  -1.0776750e-04  -1.2288679e-04  -1.0225353e-04   1.8646813e-05  -1.7341683e-04  -1.3695756e-04  -6.4875894e-05  -1.0353319e-04  -1.8944377e-04  -4.2029213e-05  -2.0163467e-04  -1.2188668e-05  -7.7423538e-05  -1.5560366e-04  -9.3015842e-06  -2.2690794e-05  -2.7203449e-04  -4.2229120e-04  -1.3920941e-04  -1.0300984e-04   1.4882965e-04   8.1945996e-05  -9.2834722e-05   2.9587412e-05  -5.0096904e-05  -7.6385986e-05  -1.2418460e-04  -1.6348800e-04  -2.8875563e-04   3.3417928e-05  -1.6193993e-04  -5.7351025e-04  -4.5848414e-05  -4.9131264e-05  -7.2254283e-05  -1.3585370e-04  -4.0189247e-04  -2.6814500e-04   1.9326564e-05  -8.2687126e-05   4.9564234e-05   4.5498047e-05  -9.0419402e-05   8.9233188e-05  -2.4446412e-05   2.5259081e-07   2.2897568e-05   6.1428882e-06   9.3814242e-06   4.5142933e-05
  -1.1216901e-04  -1.3382205e-04  -1.1373989e-04   2.4738005e-05  -1.6550762e-04  -7.0456685e-05  -5.3559077e-05  -1.1013866e-04  -2.5089900e-04  -3.3740922e-05  -1.9261520e-04  -6.4979358e-06  -4.2776814e-05  -3.4062756e-05  -2.4465766e-05  -9.4016623e-06  -2.9721137e-04  -4.3674707e-04  -8.1557249e-05  -9.1770737e-05   1.5178254e-04   2.6161091e-05  -4.6798501e-05  -1.2416362e-05   1.5961814e-05  -9.9368015e-05  -1.7271133e-04  -5.0075083e-05  -2.5668152e-04   1.1154218e-04  -2.4025478e-04  -6.6144392e-04  -1.3069349e-04  -1.0241260e-04  -8.4056526e-05  -7.1331078e-06  -1.8412499e-04  -2.6075376e-04   1.2296262e-05  -4.5591521e-05   2.3368226e-05   6.2908701e-05  -1.2510446e-04  -2.2836150e-04   3.4308774e-05   1.4208279e-04   1.7348289e-05   4.2085496e-05   2.7133510e-05  -3.2814598e-05
  -8.3015206e-05  -1.1826405e-04  -7.3960458e-05   3.7589594e-05  -1.5078548e-04  -1.1342288e-04  -1.4255729e-05  -4.5006240e-05  -1.3714047e-04  -2.4674024e-05  -2.0829272e-04  -3.6275501e-06  -5.7481830e-05  -1.5314142e-04   1.7428862e-05  -3.5194495e-05  -2.7953068e-04  -4.3400287e-04  -8.5495842e-05  -1.1132644e-04   1.6707093e-04   4.3449720e-05  -7.0813570e-05   2.1242444e-05  -3.8143178e-06  -1.5076478e-05  -2.4345738e-04  -2.6672240e-04  -2.4366425e-04   4.5781493e-05  -2.4409390e-04  -6.5504160e-04  -6.6726658e-05  -8.6771659e-05  -1.6336629e-04  -1.7906450e-04  -2.6572074e-04  -2.6182344e-04   3.7941845e-05  -2.2216469e-05  -2.3156553e-04   6.9103342e-05  -1.4187895e-04   1.1159430e-05  -3.0168858e-05   1.0349028e-04   1.7534085e-05  -1.0301330e-05  -5.2187602e-06   6.4829932e-05
  -1.5328717e-04  -1.2150950e-04  -1.0751393e-04   3.3075099e-05  -1.6343454e-04  -1.2187706e-04  -5.0916653e-05  -7.9856240e-05  -1.8366058e-04  -2.9183613e-05  -2.1062215e-04  -6.2277622e-06  -4.5213666e-05  -1.2253663e-04  -3.0474288e-05  -2.3477151e-05  -2.9487399e-04  -4.2854642e-04  -7.8101693e-06  -9.6321353e-05   1.6665939e-04   2.0812786e-05  -1.0342016e-04   1.3581389e-06  -6.3176325e-05  -5.1211558e-05  -2.3812526e-04  -2.4490585e-04  -2.6348370e-04   7.7275974e-05  -2.1469237e-04  -7.5503608e-04   1.0613487e-06  -7.1383591e-05  -1.1755726e-04  -1.4969832e-04  -3.4427314e-04  -2.6749136e-04  -1.3962264e-04  -6.9384718e-05  -1.7524851e-04   5.2302137e-05  -1.0119583e-04   1.1292131e-04  -5.0723429e-05   1.2104442e-04   1.7484028e-05   2.9139817e-05   2.8664439e-05   4.7867441e-05
  -1.1293846e-04  -1.1892170e-04  -7.7404628e-05   4.4976161e-05  -1.0683567e-04  -4.6004177e-05  -1.6052885e-05   9.4680086e-05  -2.4940699e-04  -3.0979372e-05  -2.1184898e-04  -1.4567568e-06  -9.9822508e-05  -9.4048344e-05  -1.1145910e-04  -1.2807202e-05  -3.5958036e-04  -4.7435387e-04   3.8861449e-06  -1.1878837e-04   1.9355206e-04   4.7752121e-05  -9.0834175e-05  -6.8169311e-06  -1.4108214e-05  -7.2055307e-05  -1.4482290e-04  -6.5874010e-06  -2.2286832e-04   6.1352446e-05  -2.2379561e-04  -7.0485711e-04   9.1548500e-05  -1.5193236e-04  -1.1548347e-04  -1.5123637e-04  -1.9595033e-04  -2.7589215e-04  -2.0278728e-04  -4.4109715e-05  -3.5808669e-04  -3.1907894e-05  -1.0647122e-04   1.3836440e-04   2.8270708e-05   9.0748697e-05   2.3195384e-05   3.2899477e-06   4.3858058e-06  -1.4210488e-05
  -8.4620056e-05  -8.7198379e-05  -7.3205447e-05   5.7495967e-05  -1.0762614e-04  -6.2300882e-05  -1.8747425e-05   2.6636997e-05  -1.5800547e-04  -6.2482272e-06  -2.1088138e-04   1.0722884e-05  -6.5310072e-05  -1.7276687e-04  -5.1530837e-06  -4.9220125e-05  -3.4750899e-04  -4.8189788e-04   1.0249152e-04  -9.0921378e-05   2.0225078e-04   6.3843014e-05  -7.2836570e-05   4.6113499e-05  -2.5169557e-04  -5.8318612e-05  -1.4868956e-04  -6.3805099e-05  -2.6649784e-04   5.5908753e-05  -1.7216621e-04  -6.7986408e-04   1.6549170e-04   2.6476711e-05  -1.0464782e-04  -9.1955051e-05  -2.6760728e-04  -2.5432443e-04   1.6458078e-04  -5.0584522e-06  -4.4809854e-05  -3.1391068e-05  -1.3091047e-04   1.3559875e-04  -1.6140593e-05   3.0247331e-05   2.3273997e-05   4.0992509e-05  -2.5072794e-05  -4.1202525e-06
  -8.8400644e-05  -1.0456399e-04  -7.5764954e-05   6.5283341e-05  -1.0172051e-04  -6.2454325e-05   3.8184507e-07   1.3922749e-05  -2.2788311e-04   1.3810467e-05  -2.1219296e-04   1.5306669e-05  -5.1775100e-05  -1.3449448e-04  -1.3211024e-05  -2.5461384e-05  -3.4579076e-04  -4.6810234e-04  -2.4039833e-05  -7.4654046e-05   1.9744944e-04   5.8423571e-05  -9.5231393e-05   2.9683688e-05   1.6548979e-04  -4.5644818e-05  -1.7519107e-04  -6.7024730e-06  -1.3252410e-04   8.3989456e-05  -2.2032303e-04  -6.5101031e-04  -8.5086685e-06  -8.8213877e-05  -3.2860768e-05  -8.8059685e-05  -1.0124798e-04  -2.4637676e-04  -2.6936801e-05   6.2102110e-05  -4.2445165e-05   1.3869218e-05  -1.6342028e-04   5.3895357e-05  -1.3044826e-04   9.1443697e-05   1.3937897e-05  -3.5647940e-05   1.4794690e-05   3.7911988e-05
  -2.1750531e-05  -9.2641982e-05  -2.9970348e-05   4.7028698e-05  -4.6464094e-05  -3.4724748e-05   4.7937294e-05  -7.0818078e-06  -1.8493745e-04   1.5347337e-05  -2.2279704e-04   1.2773341e-05  -1.0875885e-04  -1.2677272e-04  -7.0449991e-05  -6.3053471e-06  -2.9786327e-04  -4.1884420e-04   6.3022533e-05  -8.4243962e-05   1.9134941e-04   4.7495800e-05   2.1565866e-05   2.6018124e-05   9.1073205e-05  -6.8089990e-05  -2.6158747e-04  -1.6080818e-04  -2.7467334e-04   5.0922001e-05  -1.9495403e-04  -6.7536888e-04  -7.8158890e-05   6.3876942e-05  -5.8669688e-05  -2.1835460e-04  -2.4712121e-04  -2.4963578e-04   2.4065144e-05   6.0694212e-05  -3.6981175e-04  -1.4678450e-05  -4.5265584e-05   2.4733160e-04  -1.1844928e-05   9.3416507e-05  -6.2377298e-06  -2.9163564e-05  -1.0432298e-05   4.1853058e-05
  -3.7435522e-05  -1.1909750e-04  -3.7743834e-05   2.5948333e-05  -7.2855473e-05  -3.8108308e-05   1.7337790e-05  -1.0220291e-05  -1.4047207e-04   2.5550775e-05  -2.2260133e-04   5.8440278e-06  -9.6789430e-05  -1.0201576e-04  -1.5101522e-05  -5.4859584e-06  -2.5997864e-04  -3.6357343e-04  -5.0416860e-05  -5.6185487e-05   1.8412170e-04   1.6572612e-05  -7.8941768e-05   3.7927377e-05  -1.9682851e-04  -8.4338062e-05  -2.1337019e-04  -2.4361933e-04  -2.6385571e-04   5.3392359e-05  -1.7922053e-04  -5.8718579e-04   2.9641119e-04  -8.7176217e-05  -4.5954199e-05  -1.1759932e-04  -2.2184312e-04  -2.1029534e-04   8.2144339e-05  -1.1398550e-06  -7.6116839e-06   9.6271879e-06  -7.5559670e-05   2.4977748e-04   3.0765134e-06   7.7965517e-05   1.6711600e-05  -5.5446344e-06   2.8236604e-05   3.5283429e-05
  -2.5093908e-05  -1.2721724e-04  -3.8002603e-05   3.3915407e-05  -6.8058354e-05  -2.4429546e-05   1.7071025e-05  -1.5717269e-05  -1.7063189e-04   3.7522601e-05  -2.1060336e-04   1.9555737e-05  -8.5290529e-05  -8.4923806e-05  -4.4657940e-05  -2.1303488e-06  -2.8552892e-04  -3.4901121e-04  -5.8580950e-05  -6.5555229e-05   1.7872783e-04   2.9078095e-05  -8.5837615e-05   4.5308992e-05  -5.7188648e-05  -3.6285008e-05  -1.8246904e-04  -1.2463288e-04  -1.9042118e-04   8.2093582e-05  -1.9192668e-04  -5.5004947e-04   9.0682246e-05  -1.1038216e-04  -1.2207871e-04  -1.9824177e-04  -1.6106700e-04  -1.8932199e-04   3.7902661e-05   4.8938262e-05   3.7219004e-05  -5.6588187e-06  -1.0172458e-04  -1.1565687e-04   4.8450838e-05   1.7245549e-04   2.4162891e-05  -6.7255933e-06   3.1748044e-05   7.2908522e-05
  -5.2210639e-06  -9.8890385e-05  -1.8225628e-05   4.8191730e-05  -7.1421324e-05  -1.0325584e-04   3.9081031e-05  -7.9251324e-05  -1.6239205e-04   5.4798031e-05  -2.0106352e-04   3.7631544e-05  -5.3318301e-05  -1.3228593e-04  -6.6529588e-05   7.0776541e-06  -2.6102399e-04  -3.4846939e-04   1.1964251e-05  -4.8527247e-05   1.7869110e-04   7.2869596e-05  -1.0586654e-04   6.2704363e-05   1.5445643e-04  -5.4817170e-05  -1.9821212e-04  -2.0573959e-04  -2.4254651e-04   5.2533265e-05  -1.4950681e-04  -5.0097326e-04  -8.7828630e-05  -7.3126175e-05  -9.6218821e-05  -1.0363076e-05  -2.2932148e-04  -1.6070982e-04   8.4739477e-06   6.9777019e-07  -2.1328227e-04   9.0547601e-06  -1.3611263e-04   9.2990143e-05  -2.7762914e-07  -2.0095800e-05   1.2599933e-05   5.6118977e-05   1.5056282e-05   4.0571111e-05
  -2.5568738e-06  -1.1244678e-04  -2.3803866e-05   5.3251726e-05  -5.0899900e-05  -2.8308525e-05   3.4654026e-05   4.2715692e-05  -1.5233082e-04   6.7940695e-05  -2.0156280e-04   4.3146669e-05  -4.9067039e-05  -7.0858456e-05  -9.0655985e-06  -1.7376240e-05  -2.9578357e-04  -3.6354389e-04  -4.4476095e-05  -3.5216421e-05   1.8732045e-04   9.1533002e-05  -3.8543523e-05   5.6527952e-05  -5.0040184e-05  -5.9685153e-05  -2.1387219e-04  -1.4793103e-05  -1.9611913e-04   8.9800720e-05  -1.4571002e-04  -5.0953624e-04   6.9254886e-05  -1.5097529e-04  -3.3413682e-05  -1.2136815e-04  -6.7746550e-05  -1.3199443e-04  -2.3656052e-05   8.0105980e-05  -1.3412148e-04   2.2984335e-05   7.2086346e-05   3.2403835e-04  -1.3325976e-04  -5.7221929e-05   1.0503297e-05   2.4594648e-05   3.2455930e-05  -7.9099091e-06
   5.7892783e-05  -9.5394935e-05   2.0896919e-06   5.6378500e-05  -2.5960086e-05  -7.6313125e-05   7.2792267e-05  -1.0994833e-04  -1.0008142e-04   8.0040518e-05  -1.9519420e-04   5.3435779e-05  -6.1386192e-05  -1.0189047e-04  -8.6102345e-06  -7.6041892e-06  -3.0754509e-04  -3.4547603e-04   6.6175882e-05  -5.3487744e-05   1.9500632e-04   7.9624893e-05  -2.7057267e-06   3.9552739e-05   2.7977729e-05  -5.3670985e-05  -1.5577889e-04  -7.0344315e-05  -1.9878059e-04   3.4183202e-05  -2.0360656e-04  -4.7429765e-04   9.5520132e-05   2.3561835e-05  -8.9752619e-05  -6.9482536e-05  -1.9552492e-04  -1.1152419e-04   4.0226732e-05   7.2777053e-05  -7.4482567e-05  -2.1011852e-05  -1.3829432e-04  -2.6729755e-04  -6.5802364e-05   2.9924753e-05   2.8553306e-05   1.9832503e-05   5.7660862e-05   5.2257579e-05
   5.3464013e-05  -1.0321952e-04  -7.7566519e-06   5.8339858e-05  -3.9909450e-05  -3.1689666e-05   2.8680151e-05  -5.0304989e-05  -1.3344862e-04   8.6023050e-05  -1.8875545e-04   6.4196705e-05  -8.0042162e-05  -8.6560693e-05   1.5036833e-05  -1.1749643e-05  -2.7027118e-04  -3.4347590e-04  -3.6474459e-05  -5.6989909e-05   1.9157938e-04   9.6585223e-05  -7.3756026e-05   6.2482184e-05  -4.4276174e-05  -3.7233542e-05  -1.5867886e-04  -5.2041763e-05  -1.9489185e-04   4.2997533e-05  -1.0666049e-04  -5.0084473e-04   1.5816427e-04  -1.0789818e-04  -7.2507079e-05  -1.1670625e-04  -1.7416287e-04  -1.2265942e-04   1.4241925e-04  -1.9763662e-05  -3.0965958e-04   2.1286736e-05   1.5166022e-07  -3.4431254e-05  -3.8824350e-05  -1.8150298e-05   3.8085032e-05   2.9029256e-05   1.1557326e-05   3.4621575e-05
   6.3329280e-05  -1.0818353e-04   3.2904675e-06   5.0363255e-05  -1.2403634e-05  -1.7297818e-05   6.4450003e-05   3.6562466e-05  -1.4109373e-04   8.0334583e-05  -1.9560820e-04   5.8184993e-05  -7.5143638e-05  -7.6114149e-05   1.8882396e-05   7.0184660e-06  -2.7807255e-04  -3.3328237e-04  -1.2599363e-04  -5.9287846e-05   2.0122154e-04   1.5664086e-04  -7.2919654e-05   6.5333348e-05  -2.2476929e-04  -5.3054398e-05  -1.6732665e-04  -2.7605607e-05  -1.5156785e-04   3.1742758e-05  -8.9088309e-05  -3.4389901e-04   1.0535686e-04   8.9489993e-05  -1.0049343e-04  -1.5120988e-04  -1.2106960e-04  -6.4902510e-05  -8.2337123e-05   1.0888165e-04  -2.7241569e-04   1.4326165e-05   5.1821822e-05  -1.4908543e-05  -3.9269657e-05  -3.1964853e-05  -1.0288202e-06  -2.1067606e-05   3.1171621e-05   5.6515764e-05
   7.6245633e-05  -9.6430282e-05   4.7031240e-06   4.5454988e-05  -3.0594289e-05  -7.1003356e-05   4.8246548e-05  -2.4753095e-05  -1.5102100e-04   1.0521823e-04  -1.6734832e-04   5.2193798e-05  -5.5814653e-05  -6.2840634e-05   3.8425125e-05  -1.0115534e-05  -2.4257082e-04  -2.7105643e-04  -1.8147939e-05  -4.3455737e-05   1.8777703e-04   1.0062183e-04   2.6376872e-06   3.8044978e-05  -9.5285468e-05  -7.2135059e-05  -2.2137375e-04  -1.2472726e-04  -1.7027638e-04   6.7485580e-06  -1.2025621e-04  -2.9574792e-04   2.7587140e-04  -4.9989310e-05  -1.3127748e-04  -1.8310298e-04  -4.6298173e-05  -5.4743221e-05  -1.6892834e-06   7.9067060e-05  -1.5665266e-04   2.5336436e-05  -8.3949708e-05   3.8218466e-05  -1.2128476e-04   2.4067301e-04   3.9121744e-05   5.7312745e-06   9.4276829e-06   6.2010455e-05
   6.6154753e-05  -1.0530077e-04   1.6065021e-06   5.2211250e-05  -1.7519695e-05   1.1156545e-05  -1.1751032e-05   3.4610284e-06  -9.9105157e-05   4.0540810e-05  -1.1985195e-04   4.8778849e-05  -8.0523037e-05  -7.7416647e-05  -6.8518377e-05   1.4658309e-05  -2.2907073e-04  -1.7015501e-04  -1.2173929e-05   1.0546968e-05   1.7548329e-04   1.1080231e-04  -6.3226893e-05   1.5341346e-04   3.0845167e-05  -2.5142677e-05  -1.9423808e-04  -1.3217935e-05  -7.9146121e-06   8.1006277e-05  -7.2211842e-05  -6.4184453e-05   1.5651518e-04  -3.8792874e-05  -6.5761960e-05   3.7659989e-05  -1.0860759e-04   8.4926724e-05   4.7139907e-05  -4.8591301e-05   1.6668567e-04   2.1624493e-05  -3.0155623e-05  -5.0910035e-05  -9.8639903e-05  -7.2877010e-05  -2.0563140e-05  -1.0551857e-05   7.9322363e-06   2.9519206e-05
   1.7959259e-04  -1.2290968e-04   5.6179804e-05   2.3641729e-05  -6.7643938e-05  -3.9488961e-05  -9.9458284e-06  -7.6603064e-05  -2.1494057e-05  -2.6690625e-04   1.7173927e-05   3.7961025e-05   1.9565594e-05  -3.0514513e-05  -5.1776744e-05  -2.6178830e-05  -2.5451448e-04  -2.2098827e-04   1.5909722e-05   1.6539670e-05   1.9330723e-04   2.1715714e-04  -2.3346438e-05   2.2318480e-04   8.9043730e-05   2.8660497e-05  -1.8766349e-04  -4.9667462e-05  -1.4800607e-04   4.7915117e-05  -8.9761597e-05  -7.4488657e-06   2.4864190e-05  -8.1448212e-05  -6.9220769e-05   4.5848443e-05  -1.2147482e-04   2.3964627e-05  -1.2545804e-04   1.0825682e-05  -2.4413400e-04  -5.2801743e-06  -4.3114196e-05  -2.5259760e-05  -6.7896071e-05  -8.0280144e-05  -6.1133527e-05  -6.4409149e-05  -1.2912057e-05  -4.7281999e-05
   1.6518118e-04  -1.4796111e-04   5.2300071e-05  -3.2773496e-05  -9.7458113e-05  -1.0930353e-04   1.0900721e-05  -6.2087762e-05  -4.4462417e-05  -2.9575502e-04   3.8315753e-05   1.0914275e-04   7.8743600e-05   1.5803023e-05  -4.7093999e-05  -2.7963870e-05  -3.1200924e-04  -3.0341637e-04  -1.2977560e-05   3.8348629e-05   2.2428362e-04   2.0053438e-04   6.2419851e-05   2.5087403e-04   6.4918691e-05   3.2799449e-05  -1.4650171e-04   4.8481474e-05  -3.0500561e-05   9.7231336e-05  -1.6132659e-04  -9.6309916e-05   2.1625090e-04   4.5379198e-05  -5.6274257e-05   9.0994683e-05  -7.2673305e-05  -1.0185474e-05   6.4493586e-05   8.5507985e-05   1.2760971e-05   5.5895660e-05  -6.6361608e-06   1.5702250e-04  -4.6226189e-05  -4.9709757e-05  -3.5235360e-05   1.9651041e-05  -2.6284093e-05  -4.7916354e-05
   1.5694297e-04  -1.2381451e-04   8.2325256e-05  -6.2491992e-05  -4.6357913e-05   1.9685373e-05   4.2554722e-05  -3.0466824e-06  -3.1601568e-05  -3.2944037e-04  -1.1560623e-05   1.0566047e-04   4.5194411e-05  -3.0254527e-05  -2.6736552e-05  -3.8950609e-05  -4.0517992e-04  -4.7129786e-04  -3.9827515e-05  -5.0864637e-05   3.4801423e-04   3.1699814e-04   7.2832219e-05   1.9530932e-04   7.4625947e-05   8.5840602e-06  -2.3633303e-04   6.5153836e-05  -1.3624826e-04   7.6138065e-05  -1.6459366e-04  -4.2182591e-04   2.1056132e-04   1.6460048e-04  -9.1032380e-05   9.4202136e-05  -1.1121714e-04  -7.3072522e-05  -1.8088748e-04   1.4475922e-04  -1.9118842e-04   2.5285446e-05  -9.0286710e-05  -8.2378123e-05  -1.6800219e-05  -5.7830188e-05  -1.4869019e-05  -4.6111414e-05  -5.7790759e-05  -3.6890262e-05
   1.1183862e-04  -1.2197025e-04   6.5520042e-05  -4.5694869e-05  -5.0994982e-05  -1.8840452e-05  -3.8762380e-05  -6.5166605e-05  -1.0313289e-04  -3.2195623e-04  -8.2665947e-06   1.3239244e-04   2.1732083e-05  -9.2704140e-06  -1.6998041e-05  -5.7761223e-05  -4.3569482e-04  -5.0642027e-04  -2.3786464e-05  -5.0618499e-05   3.4889468e-04   3.4482285e-04  -3.6869642e-05   1.8949262e-04   9.2129922e-05   1.9889982e-05  -2.0151933e-04   4.2824224e-05  -1.2452065e-04   1.0384966e-04  -2.2040946e-04  -4.7469928e-04   2.5835089e-04   2.3125134e-04  -4.4939141e-05  -2.6042479e-05  -6.2040010e-05  -1.2651423e-04   8.1797094e-05   8.6313477e-05  -3.2399944e-04   3.2783893e-05  -9.4197414e-05  -2.9630295e-05  -4.3399428e-05  -5.0932331e-06  -1.2671288e-06  -8.3164538e-05  -9.3004666e-05  -5.4664230e-05
   1.0241558e-04  -1.1979556e-04   5.4504897e-05  -5.0362836e-05  -2.7523138e-05  -5.0214010e-05   3.7237332e-05   2.8715642e-05  -9.3823794e-05  -2.9885210e-04  -4.6455175e-06   1.5295205e-04   4.8453854e-05   2.6628297e-06   2.0204068e-05  -1.5482681e-05  -4.1430825e-04  -4.7742311e-04   9.5249765e-05  -6.6677472e-05   3.3002635e-04   3.0600501e-04   5.7647540e-05   1.8748929e-04   8.4638577e-06   5.2306255e-05  -9.5380907e-05   2.2133443e-04  -1.1558486e-04   1.6992117e-04  -2.2199619e-04  -4.7180758e-04   4.0811527e-04   1.4689309e-04  -4.7382440e-05  -1.6302591e-05  -1.3554516e-05  -1.5081272e-04   1.8172276e-04   1.7083963e-04   4.9943406e-05   9.6084486e-06  -1.4327858e-05   1.0872124e-04   2.2923419e-05   2.1023934e-05  -7.1425507e-06  -6.0866812e-05  -7.6669421e-05  -3.8645427e-05
   6.6292741e-05  -1.1111873e-04   6.5979613e-05  -6.9509821e-05   4.4419130e-06  -2.9422879e-05   3.5810259e-05   9.1514317e-05  -7.1027142e-05  -3.3165910e-04  -3.7906091e-05   1.3236055e-04   2.9159692e-05   2.2783681e-05   5.7940408e-05  -3.7949743e-05  -5.2385638e-04  -7.3118386e-04   8.1390142e-05  -1.0585957e-04   3.9824494e-04   3.8945535e-04  -5.1908977e-05   1.5940338e-04   9.6789816e-05   3.7722282e-05  -1.2734147e-04  -3.0574669e-05  -3.1057419e-04   1.5304450e-04  -2.9017814e-04  -9.3356456e-04   4.0588868e-04   2.8909431e-04  -1.0093283e-04  -8.2563245e-05  -3.6040483e-06  -4.1095994e-04   7.9330319e-05   1.8953673e-04  -2.3669796e-05  -3.0791821e-06  -1.0701967e-04   6.9478709e-05  -4.0643386e-05   8.0116100e-05   8.3099303e-06  -1.0403276e-04  -1.2992212e-04  -6.4958353e-05
   2.6161531e-05  -1.1522178e-04   5.2728348e-05  -4.9221304e-05  -7.6351716e-06  -5.9811737e-06   3.5601402e-05   3.5027941e-05  -1.5649975e-04  -3.0420048e-04  -5.2078594e-05   1.3052981e-04   1.1975639e-05  -2.4313753e-05  -3.0198005e-06  -4.0743511e-05  -5.2830594e-04  -6.6577294e-04   7.4583673e-05  -6.6950248e-05   3.9146311e-04   4.7458312e-04  -6.7692046e-05   1.6558268e-04   1.2891089e-04   1.5042897e-05  -7.7987366e-05   1.4825913e-04  -2.4404477e-04   1.8486338e-04  -2.9219978e-04  -9.0533489e-04   4.2384723e-04   3.2893426e-04  -6.2344021e-05   5.9776925e-05   6.4079126e-05  -4.3428395e-04  -2.3087852e-05   1.7561163e-04   1.5237471e-04   9.3341569e-06  -1.0009904e-04  -6.9628339e-05  -7.2548268e-05   1.5180079e-04   1.6962293e-05  -4.9701361e-05  -9.9530975e-05  -5.1035604e-05
   3.1022297e-05  -1.0540339e-04   5.5809502e-05  -4.3247474e-05  -1.1258744e-05   4.9884060e-05   1.9141280e-05  -6.2606582e-06  -5.2080930e-05  -2.4332711e-04  -3.2257794e-05   1.3483656e-04   2.0800704e-05  -1.5072267e-05   8.3793302e-06  -4.5318302e-05  -5.1511097e-04  -6.8280782e-04   1.4013360e-04  -5.7586331e-05   3.7031455e-04   5.3886563e-04  -1.9524285e-05   2.0538236e-04   3.3633379e-04   2.1231031e-05  -1.4003119e-04   7.4883523e-05  -2.1208983e-04   1.6247945e-04  -3.0929007e-04  -7.9108262e-04   4.0119924e-04   2.8644508e-04  -3.2784428e-05  -3.6007132e-05  -6.2281128e-05  -3.8344617e-04   1.8160908e-05   1.7072819e-04  -1.5721848e-04   6.1711013e-05  -4.6522600e-05   2.5898049e-04  -5.0353381e-05   3.7943428e-05   2.9722465e-05  -3.1555250e-05  -1.1679537e-04  -4.3841996e-05
   3.7862563e-05  -1.2080091e-04   4.4911005e-05  -3.3895132e-05  -2.8533983e-05   1.7703194e-05   2.3884566e-05   5.1860934e-05  -1.0990087e-04  -2.2042023e-04  -3.5554494e-05   1.3445377e-04   4.8809543e-06  -1.1759164e-06  -3.0004192e-05  -4.3221076e-05  -4.9017934e-04  -6.1521580e-04   5.9735361e-05  -4.7372159e-05   3.5811626e-04   5.6059373e-04  -3.6323904e-06   1.5071197e-04   3.4928977e-05   3.9069408e-05  -1.9486020e-04   9.9168501e-05  -2.7042328e-04   1.5883653e-04  -2.5324503e-04  -6.6147017e-04   3.8916041e-04   1.8172142e-04  -4.8146125e-05  -4.6374556e-05   8.7444685e-05  -2.8165220e-04   9.3235685e-05   1.5766105e-04   1.5554407e-04  -1.0262459e-05  -5.0107201e-06   3.0333805e-04  -1.1377449e-05  -3.1611300e-05   3.3702294e-05  -5.2287385e-05  -5.4553184e-05  -2.3224497e-05
   1.6109749e-05  -1.1576982e-04   3.9770614e-05  -2.4949502e-05  -7.1070381e-06   1.1418440e-05   3.6938045e-06   1.3775258e-04  -1.1438807e-04  -1.9897727e-04  -3.5639994e-05   1.4087788e-04   5.3601576e-05  -4.3120158e-06  -2.1754480e-05  -1.8194347e-05  -4.8020977e-04  -5.3055573e-04   1.9984653e-04  -5.3780266e-05   3.6747483e-04   5.3890119e-04  -1.8584864e-05   1.7513728e-04   1.0552890e-04   2.7381449e-05  -1.1886839e-04   2.4662921e-04  -1.5643938e-04   1.8710192e-04  -2.5828779e-04  -7.0701569e-04   4.4742294e-04   1.8167686e-04   2.2224358e-05   7.7063545e-05   8.2201208e-05  -2.5825595e-04   1.6002874e-04   2.2233205e-04   2.2525247e-04   3.6649762e-05  -9.6478703e-05   3.2612527e-04  -5.6578359e-05  -2.6962634e-05   2.9680192e-05  -3.0070381e-05  -4.2632819e-05   2.1236146e-05
   2.7580589e-05  -8.5493659e-05   3.9659622e-05  -6.6827051e-06   4.5754805e-06   4.3915643e-05   1.6163789e-05   2.9019933e-05  -1.5244137e-04  -1.8613829e-04  -3.8295268e-05   1.3384197e-04  -5.8767014e-06  -1.1420882e-05   1.1144196e-04  -1.9816716e-05  -4.1972569e-04  -5.1164493e-04   4.7235651e-05  -4.1499927e-05   3.2739580e-04   4.8276474e-04  -2.3319009e-05   1.6131111e-04   8.6403954e-05   4.7861620e-05  -9.3984716e-05   1.4245801e-04  -1.9098319e-04   1.7800578e-04  -2.1089816e-04  -7.3773478e-04   3.6293204e-04   2.8684866e-04   4.0243795e-05  -3.4771761e-05   5.0801013e-05  -2.2952240e-04   2.0643505e-05   2.0259299e-04  -1.2137146e-04  -2.2863855e-05   1.3517933e-04  -2.4907264e-05  -1.1050636e-04   9.2089103e-05   4.3922271e-05   4.0694311e-05  -5.6400087e-05  -4.6138121e-05
   2.3018776e-05  -8.3265615e-05   4.0280171e-05  -7.3680030e-06   2.9040835e-05   4.9703041e-05   5.4741769e-05   1.3958092e-04  -1.4087754e-04  -1.9517423e-04  -2.6815300e-05   1.3482949e-04   1.5193883e-05  -1.6589936e-05  -2.1697373e-05  -1.5730528e-05  -4.4722081e-04  -4.5541491e-04   6.8471374e-05  -5.6878162e-05   3.6698332e-04   4.6004634e-04   6.4785701e-05   1.7778446e-04  -3.2841876e-05  -2.3740713e-05  -5.6066510e-05   2.2519390e-04  -7.9449805e-05   1.8322577e-04  -1.3202817e-04  -5.5064051e-04   2.8769264e-04   2.5545474e-04  -4.6635261e-05   9.5697171e-05   8.2711129e-05   7.2344837e-06   8.1999342e-06   1.4756837e-05  -5.8598889e-05  -5.1143265e-06  -1.2257083e-04   1.2855239e-04  -8.0221485e-05   1.1250659e-04   1.8577051e-05  -3.4035345e-06  -7.4758893e-05  -5.8983383e-05
   6.9684371e-05  -7.0886046e-05   4.7969963e-05   1.6823775e-05   2.1117345e-05   9.4758121e-05   5.8886428e-05   8.9160640e-05  -9.8854958e-05  -1.7184945e-04  -2.3594519e-05   1.4489064e-04   2.3619368e-05   2.7064827e-06   1.9605545e-06  -5.7924876e-06  -3.2688022e-04  -3.0769865e-04   6.6142689e-05  -2.0235346e-05   3.2473175e-04   4.2446851e-04   3.3235559e-05   1.9828980e-04  -1.6002137e-05  -9.7768734e-06  -9.3811002e-05   1.0091362e-04  -1.0234291e-04   1.0085428e-04  -8.8121888e-05  -3.3901833e-04   3.4403513e-04   2.0714079e-04   3.5585354e-06  -7.9341065e-05   1.3937822e-05   2.5043559e-05   7.4242293e-05   2.1450738e-04   1.6286052e-04  -4.3628374e-05  -5.9833397e-05  -1.2428098e-04   1.4232648e-05   1.8934683e-04   3.4522349e-05  -7.9639554e-05  -4.5172837e-05   3.4198667e-05
   3.7956066e-05  -9.5376839e-05   4.5325836e-05   7.1340064e-06   1.0202085e-05   7.4404226e-05   3.8050614e-05   1.1753928e-04  -4.6395107e-05  -1.6528097e-04  -4.3207569e-05   1.1508722e-04   4.4175704e-05  -6.0321101e-05  -5.6511635e-05   3.1364831e-05  -3.1795562e-04  -2.9970481e-04   3.8763087e-06  -2.6197147e-05   3.1690884e-04   3.8102330e-04  -4.7803631e-05   1.6871524e-04  -2.7915228e-05   2.5619576e-07  -1.9566371e-05   8.5074225e-06  -7.4097234e-06   1.4846734e-04  -1.7324646e-04  -3.4023618e-04   4.3822703e-04   2.3139885e-04  -2.3054085e-05   2.8085329e-05  -2.6583290e-05  -1.0669683e-05  -9.3647094e-07   5.7915066e-05   3.6659454e-05  -3.8890597e-05  -7.9198384e-05   2.3244237e-04  -3.5382156e-05   8.0999846e-05   4.7747057e-05   2.3765080e-05  -8.0242782e-05  -1.6630611e-05
   3.2502339e-05  -1.0952901e-04   4.6717578e-05  -1.5186621e-05   2.6628933e-05   4.4704211e-05  -7.5528123e-06   8.2146544e-05  -1.9492424e-04  -1.5380041e-04  -6.0544593e-05   1.1203235e-04   4.1124600e-05   2.8431896e-05   1.0605936e-05   8.7805536e-05  -2.5867659e-04  -1.0442302e-04   1.7333381e-04  -5.5569555e-05   3.0059548e-04   3.4465510e-04   4.4186505e-05   1.2521031e-04  -2.2968410e-05   2.9543768e-05  -5.3246600e-05   2.1453146e-04   5.3248667e-05   1.7140797e-04  -1.5954216e-04  -1.6383271e-04   4.0256209e-04   2.4833562e-04  -4.1203341e-05  -4.1154790e-06  -4.2926854e-06   1.4464086e-04  -5.2902818e-05   2.3393297e-04   4.6374262e-04  -2.1173400e-05  -7.8919247e-06   8.7304099e-05  -1.1731370e-04   1.4076760e-05   5.0285023e-05  -4.0703930e-05  -4.2515665e-05   4.8215925e-06
   4.9038568e-05  -8.9095585e-05   5.9516307e-05  -4.8778293e-06   2.8315446e-05  -3.5074283e-06   5.6606572e-05   5.9123424e-05  -8.2547092e-05  -1.3184673e-04  -5.2867221e-05   8.9462148e-05   8.0933271e-05  -3.1389773e-05  -8.4030980e-06   1.0267835e-04  -1.8734978e-04  -7.9732832e-05   2.1277760e-04  -2.3248005e-05   2.9938985e-04   3.1211041e-04  -3.4495646e-05   1.1855397e-04   4.4138043e-05   1.3649261e-05  -6.7886373e-05   1.2869961e-04   2.0339587e-05   1.2568593e-04  -5.6211815e-05  -1.5493763e-04   2.4568647e-04   1.9930254e-04  -8.4995590e-06   6.6052402e-05   2.7367008e-05   1.1589324e-04   1.7541744e-04   1.3464539e-04  -1.1029795e-05   1.6794647e-05  -2.4421391e-04   1.8392218e-04  -3.3465156e-05   1.5284028e-04   3.3826745e-05  -1.1852951e-05  -1.8511973e-05  -1.2184848e-05
   4.6716199e-05  -1.0225771e-04   4.8514015e-05  -1.9597102e-05   3.5871093e-05   3.2627829e-06   2.0149979e-05   1.6720709e-04  -1.1757483e-04  -1.2010957e-04  -6.6432425e-05   8.8539651e-05   5.1040890e-05   1.6982545e-05   3.8900609e-05   1.3159985e-04  -1.4051568e-04   1.6605640e-05   2.4233063e-04  -5.1323768e-06   2.7189322e-04   2.6731106e-04  -1.4757580e-06   1.3320519e-04   2.2151296e-05   1.6483365e-05   1.9345798e-05   2.5628242e-04   1.1391925e-04   1.7309046e-04  -3.4696204e-05  -1.0253625e-04   2.4230614e-04   1.0012843e-04  -1.1266889e-04  -5.0260431e-05   3.0706906e-05   2.0584441e-04  -3.6853355e-05  -2.4099965e-05   9.9719102e-05  -3.9974835e-05   9.9514546e-05   2.8036002e-04  -2.6285037e-05  -1.0313744e-04   3.9975228e-05  -8.0130321e-06   1.4465390e-05  -4.1601332e-05
   7.5054544e-05  -7.9985737e-05   7.7070923e-05  -1.1736851e-05   6.6432738e-05   5.2042160e-05   7.4138698e-05   1.2408348e-04  -4.8720990e-06  -1.0360764e-04  -4.9566381e-05   9.7513876e-05   3.2581091e-05   7.5300059e-06   9.0043097e-05   1.2293844e-04  -1.7026297e-04  -1.2055889e-05   6.3160645e-05  -2.9642928e-05   2.9625220e-04   3.2497972e-04  -6.7388683e-05   1.6081588e-04   1.4544216e-04   2.5054069e-05  -9.5004456e-05   2.8363892e-04   9.0881185e-05   1.3284927e-04  -7.4545416e-05  -1.0889774e-04   3.3092429e-04   2.7049263e-04   1.0141505e-04   4.7300215e-05   7.6669792e-05   1.4970839e-04   3.5263296e-05   1.2857937e-04  -8.7835215e-05   2.3451932e-05  -1.5345047e-04   1.0473178e-04  -7.8610858e-05   8.6336411e-05   4.0773004e-05  -1.1182187e-06  -2.1517842e-05  -5.1347297e-06
   7.1271519e-05  -7.2782772e-05   7.0860515e-05  -7.8825169e-06   6.5090630e-05   8.4026804e-05   5.6270906e-05   1.7299940e-04  -3.2224703e-05  -1.1450970e-04  -6.1923878e-05   1.1612575e-04   3.8300335e-05   1.6549056e-05   7.8314028e-05   7.6232020e-05  -2.5201906e-04  -2.2337543e-04   1.9341188e-04  -5.3201591e-05   3.4342552e-04   3.3628376e-04  -5.4311178e-05   1.4979101e-04   1.2559956e-04   3.1169141e-06  -8.2348110e-05   2.1691080e-04  -3.1343177e-05   1.5897180e-04  -8.5085027e-05  -4.1943422e-04   2.3712267e-04   2.8550584e-04   7.0057496e-05   1.0320895e-06   1.5410548e-04  -2.3382900e-05   2.8006531e-05   1.2643306e-04  -2.7439924e-05  -6.6173176e-05  -1.3751919e-05   2.1276649e-04   5.6411977e-06   1.2856137e-04   3.4383011e-05  -1.8939929e-05   1.5272077e-05   3.0014871e-05
   7.1193484e-05  -8.2253071e-05   6.8632675e-05  -6.8950503e-06   7.8910496e-05   8.7507367e-05   6.5464119e-05   1.7208663e-04  -4.2799369e-05  -1.0439705e-04  -6.7167603e-05   1.2261796e-04   3.1476713e-05  -1.7827029e-05   1.1789948e-05   7.0733637e-05  -2.6889378e-04  -2.5515165e-04   2.2563020e-04  -2.0313995e-05   3.4646291e-04   3.6442370e-04  -4.2487081e-05   1.6410224e-04   4.4551667e-05  -3.9657363e-05  -4.9694368e-05   3.8538617e-04   6.0678965e-05   1.9687899e-04  -8.8069690e-05  -3.1362270e-04   2.1814863e-04   2.8647119e-04  -4.5176207e-06   3.1936070e-05   2.1741357e-04  -1.6765684e-05   1.9387578e-04   2.6957807e-04  -7.6920122e-05  -2.9339488e-05  -6.6893685e-05   3.1598637e-04   1.0371512e-05   1.1797627e-04   3.7185662e-05   2.7688307e-05  -5.6233384e-06  -2.3432151e-05
   9.3816241e-05  -7.0741262e-05   6.7274479e-05  -8.9775722e-07   8.0279460e-05   1.1117852e-04   7.9336067e-05   1.5823216e-04  -9.4585470e-05  -9.0074580e-05  -7.2233306e-05   1.2783481e-04   1.2148284e-05  -3.7487080e-05   6.5408829e-05   6.9812355e-05  -2.3900442e-04  -2.3715729e-04   9.8461867e-05  -1.9247049e-05   3.4923345e-04   3.7920641e-04   3.8300081e-05   1.3343313e-04  -2.1213804e-05   1.3775904e-05  -5.4451277e-05   2.1201474e-04   1.1857699e-05   1.5406121e-04  -4.8183658e-05  -2.7886630e-04   9.8862329e-05   2.6177871e-04   1.9785544e-05   1.0442327e-05   7.1626433e-05   3.2062024e-05  -3.0904728e-05   1.9626730e-04  -8.4443651e-05  -3.7920337e-05  -1.1996001e-04   1.7334506e-04   2.6863945e-05   1.2525451e-05   1.5486527e-05  -1.4072290e-05  -1.0575659e-05  -1.4683787e-05
   6.1315921e-05  -8.6594097e-05   6.7972789e-05  -2.1777716e-05   7.0566610e-05   8.6376393e-05   8.3571642e-05   1.3707246e-04  -1.3221994e-04  -9.9057041e-05  -8.2440754e-05   1.1199948e-04   4.0473940e-05   1.5478376e-05   1.1287932e-04   1.0005668e-04  -1.9006305e-04  -1.4201754e-04   7.8790770e-05  -7.7897348e-06   3.3504091e-04   3.3172694e-04   1.6471946e-05   1.2763182e-04   5.4846831e-05  -1.6123957e-05  -7.0424212e-05   2.1481373e-04  -9.6093900e-06   1.9007490e-04  -1.4130521e-04  -2.2083259e-04   3.7185985e-04   2.8578358e-04  -4.1154919e-05  -3.9300553e-06   1.3955141e-04   7.1865856e-05   2.5056291e-04   2.0665437e-04  -6.4740670e-05  -2.0185889e-05  -8.1587204e-05   1.8999100e-04   8.9662090e-06  -7.0947848e-05   3.4511584e-05   5.5808523e-05   3.0330668e-05   5.0610834e-05
   7.6183394e-05  -7.5176060e-05   7.9012265e-05  -1.5276149e-05   8.4137420e-05   1.3100331e-04   1.0605731e-04   1.7176654e-04  -6.7764879e-05  -9.2114446e-05  -8.3799030e-05   1.2751119e-04   2.8528650e-05   1.5233149e-05   3.3992354e-05   1.1691919e-04  -1.7895130e-04  -1.2169518e-04   1.6821845e-04  -2.2129834e-05   3.4280311e-04   3.7513400e-04   3.5406043e-05   1.0273171e-04   1.9487675e-04   1.8422805e-05  -6.6261106e-05   2.2738711e-04   5.7412210e-05   1.6744838e-04  -6.7934358e-05  -3.0991514e-04   2.3712932e-04   2.1889528e-04  -6.0630202e-05   5.9752805e-05   2.3336946e-04   6.5743923e-05  -5.1275867e-05   2.1069669e-04   7.8431862e-05  -7.2164883e-05  -1.0474825e-04   1.4137605e-05   4.2360702e-05   3.7052152e-05  -2.2287638e-06   5.3826338e-05  -2.3279263e-05  -1.1912807e-05
   8.5515239e-05  -7.6409378e-05   7.3938158e-05  -1.1297978e-05   7.6420722e-05   1.0867197e-04   6.4704196e-05   1.5253430e-04  -1.2785682e-04  -8.0079772e-05  -7.6291217e-05   1.2996765e-04   2.7306533e-05   3.8838905e-05   5.5531797e-05   8.3260435e-05  -1.9127631e-04  -1.5875720e-04   1.1599010e-04  -1.8464500e-05   3.0236022e-04   3.2156988e-04   2.5337307e-05   1.2908679e-04   5.5388780e-05   6.5936379e-06  -6.1250932e-05   1.2024667e-04   7.5292569e-06   1.6259197e-04  -7.9007565e-05  -1.2175451e-04   2.4325626e-04   2.8041826e-04   7.8200959e-05   2.2042597e-05   6.6877306e-05   6.1697785e-05   1.0734034e-04   2.0876525e-04  -8.3045984e-07  -4.5100402e-05  -2.2217462e-06   4.6055138e-04   6.6991364e-05  -2.0483705e-05   1.7457282e-05   4.6401852e-05   3.8515941e-06   5.4931355e-05
   1.0087595e-04  -7.9217258e-05   6.5329790e-05  -2.6428061e-06   6.6964691e-05   1.0522275e-04   6.8230496e-05   1.1862053e-04  -7.1228387e-05  -6.6373992e-05  -7.0578419e-05   1.4641974e-04   3.6976442e-05   1.7114509e-05   7.1335460e-05   1.0141017e-04  -1.6895002e-04  -9.8724238e-05   1.5094520e-04   3.8288099e-06   3.0473241e-04   3.0937995e-04  -5.4271245e-06   1.3702334e-04   1.5401319e-04  -3.1943734e-06  -9.3547518e-05   2.3944874e-04   8.3330138e-05   1.9010169e-04  -1.2598616e-04  -1.2868301e-04   1.6228225e-04   2.2081644e-04   1.1636759e-05   6.8099966e-05   2.6234746e-04   1.1222560e-04   1.1008779e-04   2.0460831e-04   1.4498335e-04  -4.1920532e-05  -1.0108863e-04   4.1330972e-04   1.3596757e-05   1.6797154e-05   2.9287312e-06   4.8363319e-05   3.3854427e-05   7.8281257e-05
   1.1356711e-04  -6.0808015e-05   7.5313728e-05   1.0331913e-05   5.5272802e-05   1.0216841e-04   5.7629873e-05   1.3530947e-04  -1.2691428e-04  -2.4098910e-05  -4.3446871e-05   1.4717964e-04   1.9864585e-05   1.9000495e-06   5.1629390e-06   6.4151471e-05  -2.1886818e-04  -1.7298767e-04   3.9391016e-05   4.6582072e-06   3.3327643e-04   4.0339067e-04   3.1263658e-05   1.9725179e-04   1.7564090e-04   8.4608264e-06  -6.0485003e-05   1.9204499e-04  -3.5614871e-06   1.2805121e-04  -1.1239648e-04  -1.7329524e-04   2.3814330e-04   3.3051899e-04  -3.5740326e-05  -3.0807030e-06   7.9761070e-05   1.1406990e-04  -7.5145908e-05   2.6247741e-04  -1.7977593e-05   3.7141239e-05  -2.0842958e-04   4.6867379e-05  -5.1307081e-05   2.4984381e-04   1.5867085e-05   5.1071092e-05  -8.1434246e-06   2.0102056e-05
   9.3222021e-05  -6.3111955e-05   6.8365429e-05   1.4340487e-05   5.9908456e-05   1.2660357e-04   5.8216105e-05   1.1425585e-04  -2.6586744e-05  -1.6508186e-05  -3.7712554e-05   1.5634226e-04   3.5542311e-05   3.6646104e-06   1.0686047e-04   3.7705824e-05  -2.1612541e-04  -1.5739883e-04   8.3549581e-05   2.2961107e-05   3.3810473e-04   3.5090011e-04  -2.4914800e-05   1.8808109e-04   5.1490057e-05   1.0847329e-05  -2.1029617e-05   2.1926737e-04   7.0096423e-05   1.4400008e-04  -1.2682288e-04  -1.7552011e-04   1.5169315e-04   2.9772508e-04   3.8006422e-06  -1.0054729e-05   1.6766509e-04   1.0530229e-04   1.3414533e-04   2.8289107e-04   1.2189596e-04   2.5877973e-05  -6.0321276e-05  -1.2830398e-05   3.2850894e-05   1.3676177e-04   4.0352727e-05  -1.4593417e-05   6.2362719e-06   8.1296843e-05
   1.0725216e-04  -6.2661580e-05   7.5878670e-05   3.8439839e-06   5.1480783e-05   1.3989069e-04   6.6941873e-05   1.5594691e-04  -9.5992742e-05  -3.0556719e-05  -3.8653088e-05   1.5739865e-04   2.0698491e-05   4.4044418e-06   6.0268496e-05   5.1640640e-05  -1.9740558e-04  -1.6261688e-04  -2.0393642e-05   1.1984891e-05   3.2926886e-04   3.4350617e-04   9.1306123e-05   1.6025138e-04   1.3983611e-04   2.2295641e-05   3.6583540e-05   8.7289402e-05   3.0484618e-05   1.1090502e-04  -2.0214336e-05  -1.0566414e-04   3.2686995e-04   2.2622650e-04  -2.9575967e-05   1.1914661e-04   8.9581794e-05   1.0396144e-04  -1.3014950e-05   2.0254089e-04  -2.5497618e-04  -9.7423363e-06  -1.1515122e-04   4.8838119e-04   8.6055887e-05   6.9416048e-05   1.3706749e-05   3.4699020e-05  -3.2092248e-05   6.1774103e-05
   8.9468820e-05  -7.7894198e-05   5.5195789e-05  -1.8285331e-05   2.8650587e-05   1.2088238e-04   5.7684261e-05   1.3282039e-04  -9.1769645e-05  -2.8439026e-05  -3.0552208e-05   1.5285298e-04   5.8243888e-05  -1.1788547e-05   1.3205028e-05   8.5104482e-05  -1.6095812e-04  -5.5547564e-05  -3.5988942e-05   1.3468768e-05   2.7282728e-04   3.1031758e-04   4.7924685e-05   1.6468094e-04   2.3661269e-04  -1.0636392e-06  -5.3392218e-05   8.1955281e-05   4.4072069e-05   1.2056725e-04  -3.3580476e-05  -2.8454733e-06   2.9149983e-04   2.1225119e-04  -2.8965140e-05  -4.6999459e-05   9.6546930e-05   1.7041032e-04   1.7348146e-04   1.6358157e-04   1.5317858e-04  -1.6782777e-05   8.0656704e-05  -2.4954312e-05   1.3826579e-04   1.9317068e-04   1.4357383e-05  -1.4280396e-05  -2.7975146e-05   8.6522843e-05
   8.3711864e-05  -7.6148528e-05   5.4307144e-05  -1.7959894e-05   3.7200767e-05   1.4343321e-05  -1.0044646e-05   8.6810469e-05  -1.0062361e-04  -1.9416864e-05  -4.1822499e-05   1.6702000e-04   5.6221026e-05   2.5024014e-05   5.9943442e-05   8.2147817e-05  -1.5558304e-04  -8.9579815e-05   1.4539535e-05   1.6401777e-06   2.7272914e-04   2.9507084e-04  -3.4343746e-05   1.4767716e-04   1.5650614e-04   1.2537012e-05   5.7174861e-05   2.3645136e-04   8.9628658e-05   1.6484951e-04  -1.0550376e-05  -2.1270907e-05   2.1631428e-04   2.3476544e-04   5.5585078e-05  -9.8462740e-05   1.2477388e-04   1.7377072e-04   1.8841727e-04   5.0344726e-05  -1.5187052e-05  -1.6029766e-05  -3.6701160e-05   1.8560064e-04   6.3528651e-06   8.5612402e-05   1.2046513e-05   1.7730072e-05  -4.8165479e-05   1.1878348e-05
   8.7385124e-05  -6.3524589e-05   4.9429833e-05  -2.2021037e-05   9.3555764e-06   5.6578796e-05   3.1821019e-05  -2.1668937e-05  -2.1763949e-04  -2.4785439e-05  -4.9588427e-05   1.6686702e-04   5.8455171e-05  -8.9632013e-06  -1.1419639e-06   6.6929890e-05  -1.3689301e-04  -6.6159977e-05   4.4503122e-05   4.1999824e-06   2.7996648e-04   2.4353729e-04   4.2685842e-05   1.6907144e-04   1.7809799e-04  -6.1729966e-06  -9.6927412e-05   2.3500928e-05   4.3656193e-05   8.3009771e-05  -5.7547149e-05  -2.9173876e-05   3.3733653e-05   1.1902503e-04  -2.0447742e-05  -1.5269725e-05  -4.2869888e-05   1.7562239e-04   8.4216284e-05   1.2555944e-04   1.8420488e-04  -5.4586822e-06  -1.1832787e-04   4.1745585e-05  -2.0646123e-05  -1.1712680e-05   1.9940331e-05  -6.7103225e-05  -7.8817120e-06   4.5784127e-05
   2.8232811e-05  -7.4788491e-05   3.5114270e-05  -1.0694544e-05  -2.1996490e-05   3.9468130e-05  -2.3076685e-05   1.1987390e-04  -1.1306991e-04  -2.4398889e-05  -6.4576489e-05   1.8408269e-04   9.4420218e-05  -1.2342492e-05  -4.5381472e-05   6.2604806e-05  -1.2652989e-04  -6.8642519e-05  -6.5650352e-06   8.0737382e-06   2.7031280e-04   1.8815472e-04   3.5518053e-05   1.6379463e-04   1.5154887e-04  -9.0547583e-06  -8.5109423e-05   8.5525353e-05   8.7260036e-05   1.3117146e-04  -3.3041513e-05  -1.4803329e-05   4.5667293e-05   1.5693865e-04  -4.1143121e-05   8.7001965e-05  -1.3408556e-05   1.9735224e-04   9.4305804e-05   5.8451569e-05  -1.0133243e-04   1.0219227e-06   1.1587017e-04   1.7283596e-04  -6.7847519e-05  -1.0036418e-05  -1.3784279e-05  -3.1585601e-05   1.5187605e-05   1.9889914e-05
   5.0077288e-05  -6.3164429e-05   4.2751060e-05  -3.2240725e-05  -1.5098490e-05   5.4061638e-05  -2.4625497e-05   8.2385986e-07  -1.2046754e-05  -2.7760740e-05  -4.8993839e-05   1.6922910e-04   6.7051027e-05  -2.7226553e-05   6.0258039e-06   8.5321204e-05  -1.0828138e-04  -1.7345070e-05   3.2298172e-05  -9.0097710e-06   2.6289915e-04   1.6686824e-04   9.2904738e-06   1.5248565e-04   1.6571132e-04   1.8936350e-06  -6.0177797e-05  -1.0424040e-04   5.5305995e-06   9.0738460e-05   2.7094368e-06   6.3192292e-06   2.2135649e-04   1.5451475e-04   4.5201403e-05  -4.7573922e-05  -1.1374929e-04   1.9318590e-04   8.2944789e-06  -4.1373183e-05   1.0061217e-04  -2.2473187e-05  -2.7587408e-05   2.3055972e-04  -1.2091914e-04   1.1780304e-04  -6.9600055e-06  -6.9284506e-06  -3.7876027e-05   8.7857363e-05
   4.8878119e-06  -8.6285785e-05   1.7436778e-05  -4.0606617e-05  -5.2970769e-05   6.0713269e-06  -4.2505413e-05   2.0145555e-05  -1.8168401e-04  -4.1921739e-05  -5.7784051e-05   1.3986752e-04   6.8883608e-05  -4.3978903e-06   2.4370489e-05   9.2251787e-05  -7.8832360e-05   2.5292971e-05   1.7752169e-05  -1.1798843e-05   2.3210516e-04   1.0444269e-04   6.9545633e-05   1.2753664e-04   2.0596807e-04   1.7150947e-05  -2.1584827e-05   2.1886070e-05   5.7746511e-05   9.3731156e-05  -2.5841566e-06   5.9330159e-05   1.5026302e-04   2.1226703e-04   2.6288322e-05   3.8353232e-06   7.0345552e-05   2.2150361e-04  -3.8413332e-06   1.8054916e-04  -9.5849085e-05  -3.4289118e-05   7.3343022e-06   1.3530054e-04   3.4396668e-05   2.5958565e-05  -1.0634023e-05  -3.4556928e-05  -3.2940203e-05  -5.5029828e-05
  -2.8320692e-05  -9.8020457e-05   2.1946165e-05  -5.3316278e-05  -4.0785559e-05  -1.4706040e-05  -4.8671653e-05  -2.1358310e-05  -1.4095979e-04  -3.9674953e-05  -7.4809024e-05   1.4190954e-04   7.1032824e-05  -1.8380340e-05  -4.3506428e-05   1.1602296e-04  -7.9506586e-05   7.5301563e-05  -2.7729720e-05  -5.0147610e-05   2.2479933e-04   1.1427227e-04  -2.8133884e-06   1.2692358e-04  -1.2697686e-05  -1.8222463e-05  -5.4206968e-05   5.5412261e-06   1.1743312e-04   7.8768811e-05   5.7488309e-05   6.6655164e-05   1.1182958e-04   1.7489209e-04  -4.6096422e-05  -1.9998568e-05  -5.3301323e-05   2.3564641e-04  -2.7585425e-05   1.3319055e-04   8.0416568e-05  -2.2380812e-06  -1.5293068e-04  -6.1630446e-05  -3.0028310e-05   5.3974753e-05  -1.0537957e-05  -1.8218108e-05  -6.4261701e-05  -5.7055931e-06
  -3.7229329e-05  -9.2806105e-05   1.4481148e-05  -6.6489898e-05  -7.9520265e-05  -3.4685972e-06  -8.0272112e-05  -2.4355846e-05  -1.8321260e-04  -4.0336774e-05  -7.5356955e-05   1.0965869e-04   6.5751919e-05  -1.6822474e-05  -8.0428308e-06   1.0390558e-04  -3.3743952e-05   1.3490974e-04  -1.5812559e-04  -2.8619919e-05   2.0068149e-04   8.7239176e-05   4.2505937e-05   1.0174094e-04  -1.4342755e-04  -4.2493338e-07  -5.8923528e-05  -5.2094962e-05   2.7486603e-05   3.7968148e-05   9.3865776e-07   1.0529625e-04  -5.0780185e-05   1.2028054e-04  -4.7037851e-05   8.3464387e-05  -4.6871064e-05   2.6318125e-04   1.3880312e-04   2.3765337e-05   1.3033826e-04  -6.7410714e-05   2.9649489e-05   7.9430749e-05   5.7599857e-05   1.7827800e-04  -4.1640888e-06  -7.6665252e-05  -5.0164697e-05  -9.3502764e-05
  -8.9766036e-05  -1.0977610e-04  -1.1868684e-05  -7.3622454e-05  -1.1766556e-04  -6.4346226e-05  -9.6329131e-05  -7.0913295e-05  -1.4650406e-04  -4.6441590e-05  -9.9855177e-05   1.0331551e-04   2.6977916e-05  -4.3968546e-05  -3.7660047e-05   9.0445530e-05  -4.8258626e-05   9.8879209e-05   6.7767633e-06  -2.1847871e-05   1.9281326e-04   5.5046432e-05  -1.3636249e-07   1.0562645e-04  -1.1994694e-05  -4.2049458e-05  -9.5068703e-05  -1.0811229e-04   8.5812244e-05   8.0182966e-05   2.6141510e-05   1.4253978e-04   1.3275445e-04   1.0926127e-04  -4.3772641e-05  -4.6660651e-05  -9.7121614e-05   2.9887148e-04  -4.9348808e-05   3.2294014e-05   8.4732361e-05  -4.7889193e-05  -5.9762882e-05  -6.9815709e-05  -1.1324352e-05   1.3088087e-04  -1.1620588e-05  -8.3702573e-05  -5.7641108e-05  -4.8495021e-05
  -4.0356059e-05  -8.8343797e-05   4.7594813e-06  -6.0212831e-05  -8.2718747e-05  -2.0790958e-05  -1.2034145e-04  -1.2000177e-04  -1.3300791e-04  -5.7580917e-05  -1.0433421e-04   1.0066099e-04  -6.7060873e-06  -5.8419304e-05   5.1865918e-06   8.5322310e-05  -8.0023121e-05   4.2050335e-05  -1.7084631e-04  -4.4969722e-05   2.1745866e-04   9.3778202e-05  -3.2303669e-05   9.8682794e-05   2.3345251e-04   5.5703103e-06  -1.7891356e-05  -1.6867898e-04   4.4593584e-05   1.8565612e-05   2.1250935e-05   4.5565372e-05   1.0420924e-04   2.0291652e-04   2.8894239e-05  -7.1481758e-05  -1.9188273e-04   2.8788656e-04   1.1131780e-04   6.5665645e-06   7.2830808e-05  -9.0345573e-05  -2.1010100e-04   1.3852955e-04   2.1288619e-07   5.7574696e-05  -4.7587804e-05  -4.2119686e-05  -6.6501212e-05  -5.7032532e-05
  -1.1940907e-04  -9.2529153e-05  -2.8007873e-05  -7.7783538e-05  -1.3535647e-04  -6.4526983e-05  -8.2769184e-05  -3.6488658e-05  -2.3006785e-04  -6.0113012e-05  -1.1332468e-04   8.3923995e-05   3.5179546e-06  -1.1588230e-04  -1.7466371e-05   7.8284575e-05  -9.3213785e-05   4.1728355e-05  -1.9342249e-05  -5.3664447e-05   2.0843477e-04   3.9308434e-05  -3.5512261e-05   8.9886846e-05  -8.2861559e-05  -1.5630056e-05  -8.1788603e-05  -1.6330693e-04   1.9249268e-05   4.2420346e-05   2.0604264e-05   2.8775776e-05   3.2693562e-05   1.6650278e-04  -4.9913251e-05  -1.5889894e-04  -9.8490033e-05   2.3000246e-04   2.2217154e-04   2.9421682e-05   6.1881256e-05  -7.4874282e-05   1.1342250e-04  -1.3156678e-04  -7.2755320e-05  -1.7778691e-05  -3.4928122e-05  -3.3159664e-05  -2.7576261e-05  -2.9093206e-05
  -1.3331482e-04  -1.0851432e-04  -3.3977780e-05  -7.9633144e-05  -1.1413323e-04  -4.2145108e-05  -1.2101802e-04  -5.3166597e-05  -2.7795433e-04  -6.1468498e-05  -1.2383348e-04   7.5785720e-05   3.1993975e-06  -2.0042538e-05  -1.0677336e-04   7.0161463e-05  -1.1690841e-04   5.2867845e-06  -1.1357028e-04  -7.7941688e-05   2.1005656e-04   1.7662176e-05  -7.1254244e-06   6.6278502e-05   6.9407026e-05   1.2749825e-05  -6.5013912e-05  -2.8612572e-05   1.0087507e-04   7.2224437e-05  -8.4841158e-05  -5.8111968e-05  -3.6962803e-05   2.4216926e-04  -6.7588826e-06  -1.1150187e-04  -1.8508070e-04   2.2834445e-04  -2.9927714e-05   2.4073283e-04  -1.3268815e-04  -7.3851479e-05  -7.6066142e-05  -6.4949934e-05  -2.3001479e-05   7.9865109e-05  -5.8535876e-05  -3.5414643e-05  -1.0264984e-04  -9.1297312e-05
  -1.0226891e-04  -9.0217371e-05  -1.2527737e-05  -5.6232246e-05  -1.1997714e-04  -5.4796736e-05  -1.2310337e-04  -5.4655029e-05  -2.6871514e-04  -6.0972561e-05  -1.2562163e-04   7.0670591e-05  -1.1999478e-05  -8.9746405e-05   4.1661015e-06   6.2871935e-05  -1.1569169e-04  -7.0041697e-06  -1.0405273e-04  -6.7465488e-05   2.0751101e-04   6.6398759e-05  -6.8632282e-05   6.3249594e-05  -8.1545033e-05   1.5087356e-05  -9.1063048e-05  -1.6266938e-04  -1.2842096e-05   3.1208907e-05   1.9699055e-05   1.4411453e-05   1.1397733e-04   1.1700409e-04  -1.0153762e-05  -1.5768384e-04  -1.2968715e-04   2.2475609e-04  -4.8461312e-05   9.9391240e-05  -2.7302286e-04  -1.1098240e-04   4.6763547e-05  -1.1775730e-04  -8.4113650e-05  -3.7604441e-05  -4.5225512e-05  -9.9624820e-05  -6.0070641e-05  -8.8134344e-05
  -1.5169125e-04  -1.0608827e-04  -4.0470743e-05  -7.6470642e-05  -1.5230091e-04  -1.0588743e-04  -1.1988566e-04  -1.1759102e-04  -3.3372446e-04  -5.9212904e-05  -1.3420431e-04   6.4088083e-05  -2.7893189e-05  -8.3206760e-05  -3.7147936e-06   7.3374242e-05  -1.0432977e-04   2.6977068e-05  -1.2500930e-04  -4.9492533e-05   1.8715822e-04   3.9728624e-05  -4.4199543e-05   7.5124080e-05   1.5347431e-04  -1.5484649e-05  -5.6061468e-05  -3.7256352e-05   1.9085826e-05   4.0689116e-05  -1.8961562e-05   3.2494954e-05   5.7020643e-06   8.0600519e-05  -3.5384182e-05  -7.4029544e-05  -1.4780769e-04   2.1964680e-04  -2.0097641e-04  -3.3872449e-05  -2.6139640e-05  -6.6448571e-05  -1.5181252e-04   2.9222958e-04  -4.2290838e-05  -6.4869993e-05  -3.3981330e-05  -1.0591029e-04  -1.0691150e-04  -7.6835189e-05
  -1.2212757e-04  -1.0916715e-04  -1.8074925e-05  -6.5415363e-05  -1.0136508e-04  -9.5332944e-05  -9.3372160e-05  -1.1266366e-04  -2.1187853e-04  -6.4440763e-05  -1.3294736e-04   6.7873909e-05  -1.4705934e-05  -8.2346298e-05  -5.0446499e-05   6.4915781e-05  -9.2532195e-05   6.4415552e-05  -2.0569059e-04  -6.0266459e-05   1.9452958e-04   3.4192490e-05  -6.0355986e-05   5.7418583e-05  -7.9766229e-05  -1.2582122e-05  -1.4189025e-04  -1.7957935e-04   4.9918384e-05   8.1076432e-06   5.3480628e-05   1.5896093e-04   9.6412732e-05   5.7358655e-05  -8.0468519e-05  -1.4348785e-04  -1.5830266e-04   2.6153983e-04   6.7595342e-05   3.8222035e-05  -2.1359039e-04  -9.8682984e-05  -2.1677690e-04   1.6359657e-04  -3.3642758e-05   2.3564236e-05  -3.8802351e-05  -6.6404624e-05  -6.6488523e-05  -4.1160656e-05
  -1.1114027e-04  -8.7530636e-05  -8.2756023e-06  -4.9095503e-05  -1.1731576e-04  -4.6722689e-05  -1.1377058e-04  -7.5962183e-05  -2.2415446e-04  -4.7611884e-05  -1.2106954e-04   6.5842003e-05  -7.5649527e-06  -6.6488865e-05  -1.3559538e-05   6.5293018e-05  -8.2910919e-05   7.3232201e-05  -7.7409110e-05  -5.7849116e-05   1.8360102e-04   3.0447763e-05  -4.5365636e-05   9.3761162e-05   6.7541820e-05  -1.9904011e-05  -1.3801371e-04  -6.7700879e-05   3.5073237e-05   1.4712362e-05  -8.6471227e-05   1.6962747e-04   3.5743491e-05   7.1583803e-05  -3.7696522e-05  -1.3016966e-04  -1.1442193e-04   2.9100478e-04   1.5605337e-04  -7.9602878e-06  -1.1321691e-04  -1.0513140e-04  -2.9193940e-05  -2.2635022e-04  -6.7137062e-06  -1.4007755e-05  -6.2364445e-05  -3.5606176e-05  -8.1086946e-05  -6.4041524e-05
  -1.1416744e-04  -9.6859236e-05  -1.5240576e-05  -5.8354330e-05  -1.0435352e-04  -1.0986035e-04  -1.1215935e-04  -1.2245231e-04  -1.4111788e-04  -4.0532330e-05  -1.1475297e-04   6.8333502e-05  -8.3177116e-07  -6.7644156e-05  -3.8137212e-05   6.1848150e-05  -8.2221442e-05   9.3953859e-05  -1.7697309e-04  -2.4812476e-05   1.7462025e-04   1.0681071e-05  -4.8484209e-05   5.3672087e-05  -4.2826792e-05  -4.4922137e-05  -9.9352714e-05  -4.3988650e-05   1.1784859e-04   5.4515014e-05  -5.3688309e-05   2.2169606e-04   1.3421082e-04   1.8200590e-05  -7.4515724e-06  -5.0107832e-05  -6.6935580e-05   3.3048270e-04   3.7980550e-05   1.0872712e-04  -1.2609831e-04  -8.3059262e-05  -1.9599241e-04  -5.0453476e-05  -1.1400141e-04  -2.8702983e-05  -4.5600329e-05  -1.1803650e-04  -6.1510596e-05  -3.1355907e-05
  -7.1164417e-05  -7.0480164e-05   1.3418358e-05  -3.8732342e-05  -7.1512608e-05  -7.7973404e-05  -7.5589312e-05  -9.2864277e-05  -1.8665694e-04  -3.6409758e-05  -1.1205110e-04   6.9249836e-05   1.0674394e-05  -1.2356012e-04  -3.6381516e-05   7.0267255e-05  -6.7473404e-05   1.0083555e-04  -9.8242614e-05  -5.3526572e-05   1.7420418e-04   3.4181136e-05  -8.9732230e-06   6.9600414e-05   3.1887990e-05  -7.0690898e-05  -1.3761573e-04  -2.2869839e-04   3.5084697e-05  -5.9899976e-06   3.6000194e-05   2.6127024e-04   1.5730636e-04   1.3792083e-04  -9.7186028e-05  -3.3474527e-05  -2.9632449e-04   3.4300334e-04  -3.6469464e-05   4.4545908e-05  -2.3514558e-04  -9.0438538e-05   6.4471147e-05  -7.7831639e-05  -9.2815397e-05  -6.1805964e-05  -3.1274656e-05  -6.9477537e-05  -3.8319806e-05  -9.2412200e-05
  -1.0819929e-04  -8.8623980e-05  -7.1588515e-06  -4.1087507e-05  -1.1262296e-04  -7.1228824e-05  -9.4810493e-05  -1.0224430e-04  -1.0880394e-04  -2.6011516e-05  -1.0810901e-04   6.9987196e-05  -2.5687674e-05  -1.1733981e-04  -9.9486839e-05   8.4927000e-05  -5.2897889e-05   1.8942609e-04  -1.7924630e-04  -3.9977247e-05   1.6591359e-04   2.8111388e-05  -7.5990887e-05   7.1179289e-05  -1.8753465e-04  -4.7538662e-05  -1.8727273e-04  -1.6199726e-04   9.3588205e-05  -3.8427011e-06  -4.0120864e-05   3.1402323e-04   6.2150597e-05   1.5476694e-04   2.6398075e-05   6.8339927e-05  -1.9755676e-04   3.6433549e-04  -1.0052438e-04  -4.6085797e-06   1.7680875e-04  -1.0307284e-04  -2.5117525e-04   2.2030491e-04   1.7528633e-05   1.2106969e-04  -3.1359239e-05  -1.5088912e-05  -5.8465892e-05  -5.9619193e-05
  -9.2161492e-05  -9.5726311e-05   5.8355604e-06  -3.8145095e-05  -7.9861704e-05  -9.2055001e-05  -7.3261748e-05  -1.0517494e-04  -2.2721531e-04  -1.6501281e-05  -1.1516446e-04   7.2942326e-05   9.0967733e-06  -6.2451843e-05  -5.7034387e-05   8.9685098e-05  -4.3085016e-05   1.9940776e-04  -1.2148454e-04  -6.2681123e-05   1.6049763e-04   4.7959049e-05  -1.0754291e-04   6.1367507e-05   7.0720373e-05  -5.4634133e-05  -6.0199527e-05   2.8804567e-05   1.2542990e-04   4.5987148e-05   2.3770832e-05   3.1160194e-04   3.5153145e-05   9.5565694e-05  -2.5504940e-05  -8.2720755e-05  -1.6783019e-04   3.4504093e-04   2.4671433e-05   2.9191481e-06  -2.6305443e-06  -1.1930245e-04   3.4286484e-05  -2.3921057e-04  -7.2172814e-05  -8.2497041e-05  -4.2567099e-05  -7.8119501e-06  -3.0850999e-05  -8.6518085e-05
  -4.4520591e-05  -6.7394547e-05   1.8944016e-05  -2.7813088e-05  -6.9211696e-05  -1.0739190e-05  -5.3162534e-05  -1.2220829e-04  -1.5697198e-04  -3.5947844e-06  -1.0600795e-04   8.4232503e-05  -1.5745580e-05  -8.8870533e-05  -7.7004828e-05   6.6299915e-05  -6.5870328e-05   1.4888388e-04  -1.7386614e-04  -4.7038768e-05   1.7230559e-04   4.8947761e-05  -7.4206633e-05   8.5949854e-05   6.9439455e-05   8.0594500e-06  -1.3829050e-04  -1.4806775e-04   1.0846274e-04  -3.2578257e-05   1.0373280e-04   2.3372016e-04   1.7094436e-04   8.1015023e-05  -4.6279027e-05  -3.1790809e-05  -1.6932841e-04   3.6044154e-04  -8.5097185e-05   6.0221890e-05   1.6308950e-04  -5.3940574e-05  -2.8386907e-05   3.1804142e-05  -2.8205093e-05  -1.4790392e-04  -3.7148548e-05  -5.2643234e-05  -7.6171498e-05  -1.4577240e-04
  -7.9676174e-05  -6.8231529e-05  -1.1644709e-06  -1.3763333e-05  -1.0117513e-04  -5.9715803e-05  -1.0893900e-04  -9.3390496e-05  -9.7402131e-05   1.4893625e-05  -9.3859024e-05   1.0760516e-04  -9.3168856e-06  -6.1532184e-05  -3.3715773e-05   4.1565410e-05  -6.2621271e-05   1.4848456e-04  -1.6971737e-04  -2.8179877e-05   1.7430534e-04   8.0158723e-05  -5.9856291e-05   9.6704658e-05  -8.9602647e-05  -2.9006356e-05  -1.1815788e-04  -7.5683987e-05   5.4290838e-05  -5.7846814e-06  -4.6911740e-05   1.6085782e-04   2.0828382e-04   1.5929343e-04   5.5967401e-05  -4.4061573e-05  -1.1665058e-04   3.1484780e-04   2.7478913e-05   1.0100289e-04  -8.6498139e-06  -1.7560269e-05   2.2296797e-05   3.0943025e-05  -3.9830527e-05   4.7410165e-05  -1.2704817e-05  -4.7883415e-05  -4.4777851e-05  -1.5487238e-04
  -6.3246109e-05  -7.0181290e-05   7.5069793e-06  -2.5322122e-05  -6.7593101e-05   3.4815101e-05  -5.2105301e-05  -3.6695168e-05  -8.0326601e-05   1.0761620e-05  -9.7920507e-05   1.2272529e-04  -1.2623399e-05  -7.0249378e-05  -2.2697637e-05   6.9979556e-05  -6.4674306e-05   1.2601653e-04  -4.2912783e-05  -5.6745790e-05   1.8342541e-04   8.8806904e-05  -6.1062099e-05   1.0794167e-04  -1.1740025e-04  -2.1815227e-05  -1.2816547e-04  -5.4383581e-05   4.1367904e-05   5.3229869e-06   5.3601434e-05   2.8220881e-04   1.4152675e-04   7.5026139e-05  -3.7224592e-05  -4.2112188e-05  -1.1169431e-04   2.7858274e-04  -1.1459681e-04   8.7124063e-05   1.1720588e-04  -1.1482643e-05   8.3267922e-05  -1.5423466e-04  -9.0318041e-05  -3.2871863e-05  -4.2522184e-05  -8.3217630e-05  -3.8978589e-05  -3.4025066e-05
  -6.6469212e-05  -7.1264432e-05   1.7975099e-05  -3.6320034e-05  -8.9560723e-05  -3.3462551e-05  -5.5700926e-05  -6.5778848e-05  -1.0209962e-04   1.3264780e-05  -9.3334485e-05   1.0948157e-04  -8.8472729e-07  -7.4368647e-05  -6.9129594e-05   8.7613793e-05  -4.1268853e-05   1.5913663e-04   3.9163959e-05  -4.6525965e-05   1.6099289e-04   8.3173225e-05  -8.9051406e-05   7.3913317e-05   7.5566068e-06  -4.6650312e-05  -1.2929893e-04  -1.1046129e-04   6.0307219e-05  -8.6517939e-06  -1.6225555e-05   1.3455411e-04   2.4230921e-04   3.6761081e-05  -1.7637398e-05  -2.9398008e-05  -1.6736132e-04   2.6348422e-04  -5.6692799e-05   7.6382370e-05   1.1244584e-04   7.8875337e-06   1.9963654e-05   1.4932998e-05  -7.5685668e-05  -5.7492081e-05  -5.1078812e-05  -9.9025230e-05  -3.6989528e-05  -9.1201538e-05
  -6.9156500e-05  -8.0790262e-05   1.7791641e-05  -4.2635966e-05  -7.4439704e-05  -6.1138657e-05  -6.1948544e-05  -4.4940465e-05  -1.0052704e-04   1.7191991e-05  -8.3958155e-05   1.0888383e-04   3.8642687e-05  -6.7815563e-05  -2.0217316e-05   1.0598123e-04  -2.6273259e-05   1.5609192e-04  -1.0278567e-04  -3.1267558e-05   1.5722054e-04   7.8305377e-05  -1.0910463e-05   6.0159193e-05   1.2446637e-04   8.6755717e-06  -9.5973053e-05   5.6832114e-06   9.9688703e-05   5.7585701e-05  -7.4102372e-06   1.9059582e-04   1.4808358e-04   5.7979949e-05  -6.4818742e-05  -1.3805991e-05  -6.9485926e-05   2.6905138e-04   4.4136315e-05   8.3240186e-05  -1.1019049e-04  -4.9743881e-05   7.3149736e-06  -4.6287310e-05  -2.0267305e-05  -1.0206603e-04  -3.1673891e-05  -8.0631791e-05  -2.1703307e-05  -5.7135188e-05
  -3.0152294e-05  -5.5773638e-05   3.7600657e-05  -3.2938962e-05  -5.9642633e-05  -3.8897168e-05  -6.5281667e-05  -3.8354956e-05  -8.9985188e-05   1.6348102e-05  -8.6564869e-05   1.0662804e-04   5.6512808e-06  -3.5452842e-05  -6.4582971e-05   1.0024674e-04   2.1814614e-07   1.7576265e-04  -6.6815432e-05  -5.3565855e-05   1.7079872e-04   5.9272137e-05  -5.4366425e-05   6.1702325e-05  -1.1946886e-04  -3.6744721e-05  -6.1314538e-05  -9.3801595e-05   6.9981115e-06  -1.0505318e-05   9.3926938e-05   2.0539471e-04   1.2351516e-04   8.8700370e-05   7.3787283e-05  -2.6557349e-05  -1.5947386e-04   2.6401243e-04  -1.4572824e-07   7.0265327e-05   2.1606369e-04  -8.7879635e-05   1.4387231e-04   1.8844970e-04  -8.3429979e-05  -7.5284472e-05  -2.9658013e-05  -9.2465241e-05  -3.3266435e-05  -8.9565037e-05
  -7.7933597e-05  -7.1265356e-05   2.5656766e-05  -4.2854354e-05  -7.4889445e-05  -4.8365171e-05  -8.3445142e-05  -1.1039413e-04  -6.4144173e-05   2.0693971e-05  -8.7121123e-05   9.4770927e-05   3.1275265e-06  -5.4592685e-05   5.4430607e-06   1.1341627e-04   3.2352614e-06   1.8941757e-04  -9.8854391e-05  -4.7279249e-05   1.6435790e-04   3.6741785e-05  -7.9472644e-05   7.3791045e-05   1.7008440e-04   2.0859632e-05  -4.4745088e-05  -1.1309286e-04   4.8530062e-05   3.7270805e-05   8.8553636e-05   2.2267556e-04   7.3922247e-06   1.2601195e-04   3.5567016e-05   1.4775178e-04  -1.6182147e-04   2.6148101e-04   8.2906306e-05   1.7422714e-04   9.8858880e-05  -9.1767884e-05   7.8798708e-05   8.7671244e-05  -1.0685474e-04   4.2807784e-05  -1.1742859e-05  -6.7208806e-05  -1.5173036e-05  -4.0699484e-05
