   1.0408270e-04  -1.7365359e-05   1.4291461e-05   6.8926223e-05   4.3971017e-06   7.5072030e-06   2.8626357e-07   1.6495553e-04   1.1555487e-04  -3.2958566e-04   1.5939619e-04  -3.1797925e-04  -3.1010157e-05   2.1702952e-05  -4.0427869e-05  -1.2964790e-04  -2.7780642e-04  -5.1670085e-04   1.5890492e-04   6.4539476e-05   2.7776853e-04   2.3850407e-04   1.7649872e-06  -1.2486272e-04   3.8570623e-05  -5.6329583e-05   3.7582016e-05   1.0310240e-04  -2.8181690e-04   7.4855110e-05  -1.1151879e-04  -4.3373083e-04   3.9259667e-05   2.3958488e-05  -6.3011903e-05  -6.2188650e-05   9.3848015e-05  -2.6541090e-04   8.9918409e-05  -2.4236306e-05  -1.1321584e-04  -6.7532848e-05  -5.9892467e-05  -7.9818230e-05  -1.3067920e-05  -1.9156910e-04   1.0582552e-05  -1.0121032e-04   3.4840937e-07  -2.0911595e-04
   9.9507175e-05  -6.3943362e-06   2.2498862e-05   5.8296697e-05   6.3191701e-06   2.6585682e-05   1.4783721e-05   1.1841444e-04   6.0170958e-05  -2.7675217e-04   1.2266039e-04  -3.2822584e-04   7.7413519e-05   4.8958318e-05  -8.6739936e-05   2.3535905e-04   3.1928232e-04   5.3780759e-04   5.8707701e-05   1.1854179e-04   1.3421958e-04   1.8060093e-05  -5.0223793e-05  -2.4073489e-04   5.5843480e-05   8.9929936e-06   1.0093545e-04   1.0053885e-04   4.9339986e-04  -5.6594570e-05   8.3804378e-05   7.8235334e-04   5.6562527e-05   1.0932079e-05  -5.6570938e-05  -1.5410200e-04  -9.2309019e-05   1.2538837e-03  -6.9027948e-05  -1.2426575e-04  -5.3260004e-04  -1.7601319e-04  -2.8655317e-04  -1.2398124e-04  -1.2253415e-04  -2.0081575e-04  -5.4780554e-05  -2.0548847e-04  -3.8734788e-06  -2.2810597e-04
   2.2612103e-05  -8.9127047e-05   1.3720316e-06  -3.2382741e-05  -1.5794423e-05   1.0008052e-05  -9.2344337e-05   7.2442665e-05   9.6815183e-06  -2.6047422e-04   1.0289453e-04  -3.4553051e-04   8.0307451e-05  -3.1785468e-05   1.6386160e-05   2.5176437e-04   3.9448871e-04   5.6919234e-04   3.9339269e-05   1.0177222e-04   9.5696829e-05   2.0539450e-05  -6.8071298e-05  -2.6912559e-04   4.5647048e-05  -6.4213767e-05   5.8514092e-05   7.9402947e-05   3.7249626e-04  -3.7931692e-05   8.8473222e-05   5.8660825e-04   1.0508457e-04  -6.8247493e-05  -4.3012889e-05  -3.9775994e-05  -1.5723291e-04   7.6007820e-04  -8.8503686e-05  -1.8348930e-04  -1.8827729e-04  -1.6176852e-04  -3.6730165e-05   6.5970685e-06  -1.2124311e-04  -3.1436270e-04  -6.4017542e-05  -1.1754608e-04  -2.2918872e-05  -1.9707523e-04
   5.2371306e-06  -9.4475588e-05  -1.4773535e-05  -3.6808044e-05  -1.2562368e-05  -1.4020814e-05  -5.5900433e-05   1.0412515e-04  -7.1731003e-05  -3.2120373e-04   9.3618692e-05  -3.5611095e-04   3.5344681e-05   6.2899448e-06  -7.0485854e-05   1.2210644e-04   2.5152665e-04   2.3383774e-04   1.3212845e-04   6.7690009e-05   1.2290901e-04   3.0116122e-05  -1.1194762e-04  -2.3890892e-04  -2.9718474e-06  -3.6517948e-05   1.2433990e-04   3.6457583e-05   1.1929057e-04  -1.4718697e-05   4.8426820e-05   2.4035314e-04   1.3700354e-05   2.4560079e-05  -1.2975416e-04  -1.1215371e-04  -1.3925439e-05   3.3977526e-04   8.0622522e-05  -1.4035570e-04  -6.1983475e-05  -1.8083473e-04  -1.0502247e-04  -2.4239735e-04   5.7856956e-05  -3.5438873e-04  -6.2840823e-05  -1.1993689e-04  -2.7710683e-05  -2.0993434e-04
   1.8245599e-05  -5.0167764e-05  -1.1678533e-05   1.5331441e-05   5.3931700e-07  -5.4298129e-05  -2.9358149e-05   4.2696800e-05   3.8428170e-05  -3.4422512e-04   6.4535969e-05  -3.2550204e-04  -3.3048356e-05  -5.0946619e-05  -1.2705670e-04   4.3529675e-05   6.3210617e-05   3.8234426e-05   8.5303443e-05   4.4415508e-05   1.6976651e-04   6.7232526e-05  -7.9435158e-05  -2.3982373e-04   1.2708823e-04  -4.3954551e-05   7.5704584e-06   1.6093177e-04   7.9943347e-05  -1.1271770e-05   1.9294363e-05   9.4890667e-05  -9.0671550e-05  -1.2370589e-04  -1.1577660e-04  -1.6633833e-04   1.5993546e-04   3.2617417e-04  -7.2664276e-05  -2.5986656e-04  -3.0897386e-04  -2.2751452e-04  -2.0688795e-04  -6.7970657e-05  -8.7176879e-05  -2.1203147e-04  -5.4376254e-05  -1.2760036e-04   1.0974111e-05  -1.4335570e-04
   7.2106436e-06  -4.9812799e-05  -3.1438335e-06   3.7548773e-05   1.9348901e-05  -8.4503365e-05  -4.3370866e-05   1.0293601e-04   3.0221612e-05  -3.0667047e-04   6.0264960e-05  -2.9091878e-04  -3.5489029e-05  -2.0375455e-05   2.3325241e-05   6.7452267e-05   5.1716350e-05   9.9807796e-05   3.4419267e-05   5.7523921e-05   1.7573293e-04   3.7785536e-05  -4.1050651e-05  -2.5771992e-04   1.9198803e-04  -4.6090983e-05   1.2733956e-05   4.1158765e-04   2.1743121e-04   2.0704918e-05   5.6688259e-05   2.6633331e-04  -1.3617236e-04   1.2327173e-04  -1.7219852e-04  -1.4456065e-04   2.8678641e-04   5.0619961e-04  -6.5692213e-05  -1.1611807e-04  -1.3401126e-04  -1.8234168e-04  -3.3780743e-04  -3.8687180e-05  -2.6471947e-05  -1.6856444e-04  -7.1302646e-05  -9.6185868e-05   5.4901520e-05  -1.1268032e-04
   5.2662090e-05  -1.0352357e-05   9.5872092e-06   6.0918206e-05   1.4564373e-05  -2.1478845e-05  -6.1619007e-06   1.3941093e-04   6.2108040e-05  -2.9452436e-04   7.8878853e-05  -2.6652936e-04  -8.4695848e-06  -5.5389773e-05  -3.5565514e-05   3.1410309e-05   3.0895320e-05   3.6368489e-05   1.9028432e-04   2.8453314e-05   2.2111605e-04   4.5018554e-05   6.9672442e-06  -2.0901486e-04  -2.1553494e-04  -7.8929101e-05   2.7161601e-05   2.2219104e-04   1.6083434e-04  -1.5489459e-05   3.2507072e-05   2.0185558e-04   4.6172674e-05   7.0907285e-05  -3.6842652e-05  -1.6554276e-04   6.3132939e-05   4.6856250e-04   4.3997254e-05  -1.3489646e-04  -2.9129404e-04  -2.4883141e-04  -1.4314466e-04  -1.6704002e-04  -7.5921860e-05  -1.4018343e-04  -6.0056416e-05  -6.2304818e-05   2.7466769e-05  -1.1923024e-04
   4.3542284e-05  -1.8724219e-05   7.4152431e-06   5.9773643e-05   2.1716784e-05  -2.0843972e-05  -4.0859220e-05   1.5109852e-04   9.1573002e-06  -2.8271877e-04   7.6144934e-05  -2.5674904e-04  -2.5339197e-05  -5.7266734e-05  -7.0407681e-05   5.5770059e-05   5.8922033e-05   4.3271382e-05   1.9426299e-04   4.0846557e-05   2.3417840e-04  -3.7549522e-05  -6.2882813e-05  -2.4285312e-04  -4.3020905e-06  -8.9556677e-05   4.4755063e-05   2.7405773e-04   1.7257659e-04   2.3831171e-05   9.7017080e-05   1.4487654e-04  -2.1976298e-04  -1.5195790e-06  -1.6663711e-04  -1.1375928e-04   1.5444646e-04   4.3094630e-04   1.2058749e-04  -5.5310291e-05  -1.0330702e-04  -1.8346039e-04  -2.2748351e-04  -1.0082628e-04  -1.2297615e-04  -8.1984261e-05  -7.7972923e-05  -3.7989041e-05   5.0242434e-05  -1.4096787e-04
   3.2326745e-05  -5.9504582e-06   1.5547388e-05   6.3925116e-05   3.0019413e-05   3.9102438e-06   3.3888857e-05   1.5303418e-04   1.1689725e-04  -2.8233309e-04   8.9478926e-05  -2.3860052e-04   2.2056507e-05  -3.2665419e-05  -5.8423062e-05   3.7890746e-05   3.4892651e-05   4.2820928e-05   1.5286385e-04   3.6434427e-05   2.6267293e-04  -3.1398847e-06  -3.2843731e-05  -2.1455451e-04  -2.0896157e-05  -2.8345677e-05   1.4084885e-04   5.3069246e-04   1.9742823e-04   1.1520498e-05   7.1878101e-05   1.9285649e-04  -2.8728277e-06  -2.2391183e-05  -1.4702254e-04   6.3581727e-05   2.3509788e-04   4.1744634e-04  -4.7825051e-05  -1.2697814e-04  -1.6664655e-04  -1.9345163e-04  -8.1446757e-05  -1.4796520e-04  -6.4274762e-05  -6.3292384e-05  -5.3637097e-05  -9.6010750e-05   4.1004027e-05  -1.4522641e-04
   2.3620471e-05  -1.9837977e-05   1.4894775e-05   6.1225161e-05   2.5581656e-05   3.1025651e-05   2.3590933e-06   2.0008665e-04   7.7989898e-05  -2.6774916e-04   8.0352984e-05  -2.3715150e-04   2.1249693e-05  -2.8401580e-05   1.2316165e-04   4.0163697e-05   5.7080993e-05   7.0290930e-06   8.1086007e-05   4.4941782e-05   2.5537529e-04   2.4605857e-05  -5.2275242e-05  -1.9561079e-04  -2.0076905e-05  -1.2534874e-05   1.2977667e-04   4.9105159e-04   1.5460917e-04   4.8616494e-05   5.5222965e-05   1.0180870e-04   2.6230828e-05   4.7606318e-05  -8.7205313e-05  -6.3936190e-05   3.7173051e-04   2.9570781e-04   1.2553942e-04  -1.3768912e-04  -2.8973733e-04  -1.2338751e-04  -3.2240924e-04   3.5061184e-06  -1.2925112e-04  -1.6964735e-04  -6.0183000e-05  -4.0973631e-05  -1.1327085e-05  -8.0779944e-05
   3.0271343e-05  -2.1959597e-05   1.8855659e-05   7.3544201e-05   3.6337438e-05  -1.1604968e-05   4.4492739e-05   2.1131878e-04   8.7343367e-05  -2.4227264e-04   9.0474663e-05  -2.1597804e-04   7.4523023e-06  -1.2827738e-05  -2.2815655e-05   4.3964468e-05   4.3907876e-05   2.6758991e-05   1.9441392e-04   2.8715363e-05   2.5879176e-04   2.4455325e-05   2.1753287e-05  -1.7169080e-04   3.0853556e-05  -6.6541572e-05   1.7388604e-04   5.7952374e-04   1.6095373e-04   8.3252475e-05   2.5042875e-05   1.6580171e-04   1.1518275e-04  -1.1202948e-04  -7.0143404e-05   4.9607697e-05   4.7132792e-04   3.8870235e-04   7.7991645e-05  -6.0711707e-05  -2.9140152e-04  -1.6066621e-04  -1.8590983e-04  -3.2060876e-04  -5.2135289e-05  -2.3476595e-04  -4.6962607e-05  -9.9442320e-07   4.1112027e-05  -6.2721097e-05
   6.4878208e-05  -5.1734912e-07   2.6555770e-05   8.7306325e-05   4.7132376e-05   3.0610106e-05   9.5454343e-05   1.5326732e-04   1.4859847e-04  -2.3187764e-04   9.5291289e-05  -1.9051804e-04   3.4094090e-05   3.7541686e-05   9.9312048e-05   3.6554491e-05   2.3250885e-05   1.8581750e-05   1.5343967e-04   6.1767802e-05   2.6585811e-04   6.0998729e-05   3.7707341e-05  -1.7281887e-04   1.5667947e-04  -4.1555031e-06   8.5391985e-05   4.9129035e-04   2.3397281e-04   4.4212662e-05   3.2205626e-05   2.1156028e-04   7.7687459e-05  -3.4552047e-06  -9.6009797e-05   3.5975354e-05   3.7373122e-04   4.2140728e-04   5.1558261e-05  -5.9484322e-05  -1.2961704e-04  -2.0981720e-04  -7.1249473e-05  -6.8277390e-05   3.7712365e-05   1.8374019e-04  -4.8199276e-05   1.1028958e-05   7.2006755e-05  -4.7222176e-05
   4.1008938e-05  -1.3997303e-05   2.9134064e-05   9.0636146e-05   5.8591850e-05   6.7252549e-05   7.8062360e-05   1.9542486e-04   1.5202613e-04  -2.1853266e-04   9.4771349e-05  -1.9308864e-04   4.5870689e-05  -1.5097523e-05  -8.0220874e-05   6.5610271e-05   6.0484763e-05   1.8079854e-05   2.5427554e-04   7.6934353e-05   2.5875622e-04   4.4874931e-05   8.1519618e-05  -1.2806572e-04   3.9247094e-05   1.8599898e-05   1.9521936e-04   6.1287236e-04   1.8682865e-04   1.0249446e-04   8.1202852e-05   1.2215191e-04   8.0014710e-05  -5.8581165e-05  -1.0013619e-04  -7.3770803e-05   4.5218103e-04   3.4086531e-04   2.1080249e-04   8.9104151e-06   1.5187475e-05  -1.9317116e-04  -3.1676723e-04  -2.2912255e-04  -3.4084966e-05  -5.9291149e-05  -5.1705498e-05   3.0861142e-05   1.2983795e-05  -1.0658085e-04
   6.6573266e-05  -3.4886182e-06   3.7512393e-05   7.7747201e-05   6.4604668e-05   5.7225945e-05   9.1688627e-05   1.8474327e-04   2.3213813e-04  -2.1932532e-04   9.7726901e-05  -1.7390255e-04   1.6075435e-05   7.5095854e-06   3.5647041e-05   5.5561883e-05   2.7800043e-05   7.2783737e-06   3.3465249e-04   6.8655485e-05   2.6436831e-04   6.8008805e-05   1.0772813e-04  -1.4480746e-04   7.2728937e-05   1.6049333e-07   8.9604408e-05   7.6518406e-04   1.8656808e-04   9.5114308e-05  -2.2375887e-05   5.1055271e-05  -9.6533422e-06   9.6993157e-05   5.5797023e-05  -1.8161149e-05   3.7818306e-04   3.2393821e-04  -1.4317631e-04  -1.1247577e-04  -3.4413204e-04  -1.5388646e-04  -7.6663913e-05  -2.4248814e-04  -2.1183037e-05  -2.3165559e-04  -4.1158681e-05   2.2710141e-05   2.9029130e-05  -6.9855050e-05
   6.2963954e-05  -4.9932205e-06   4.7564241e-05   8.4310661e-05   7.0500828e-05   1.5454349e-05   8.0365979e-05   1.7210202e-04   1.8047178e-04  -2.0652148e-04   1.0460273e-04  -1.7453360e-04   4.2907344e-05   4.1866642e-05   6.0944520e-05   5.9780203e-05   6.0639275e-05   1.4511946e-05   2.8178858e-04   6.7245412e-05   2.3912881e-04   8.1693885e-05   7.6268159e-05  -1.2630294e-04   9.1511385e-05  -1.0038403e-05   1.2180254e-04   6.4603920e-04   1.5230308e-04   1.0755708e-04   1.6316453e-05   9.0285313e-05  -4.3757795e-05   2.1642461e-05  -1.3379630e-04  -4.0254876e-05   4.4477955e-04   3.0529610e-04   1.1021108e-04  -1.0701789e-04  -2.5559869e-04  -1.5331364e-04   6.8589186e-05  -4.0287750e-06  -3.2758988e-05  -6.7565867e-05  -4.4655502e-05  -1.8147208e-05   5.8522124e-05  -2.1531455e-06
   9.3098017e-05  -9.4860616e-06   4.9357288e-05   8.2151171e-05   7.4366966e-05   2.4130444e-05   9.5413336e-05   2.1526277e-04   1.4163846e-04  -1.7830766e-04   1.0145851e-04  -1.6047458e-04   5.0725153e-05   5.0629151e-05   2.0292342e-05   5.8593389e-05   6.0629412e-05   1.9127820e-05   3.2694091e-04   9.9409132e-05   2.2837445e-04   9.4671574e-05   6.2378516e-05  -1.2912024e-04   1.6780091e-04  -1.1302246e-05   8.7842898e-05   7.4037525e-04   1.6818556e-04   1.4018899e-04   8.1828854e-05   1.8910786e-04   3.9889903e-05   1.3059919e-04  -5.0993924e-05   1.7375794e-05   5.9078546e-04   4.0663552e-04   8.5905660e-05  -6.4156440e-05  -2.5018360e-04  -9.6958589e-05  -1.4063944e-04   7.7364029e-06  -8.3229788e-06  -8.3183091e-05  -3.7566846e-05  -3.6335998e-05   1.1090290e-04  -5.8803944e-05
   1.1459085e-04   2.0047726e-05   5.9753977e-05   9.9530036e-05   8.5650616e-05   1.0371334e-04   1.3051782e-04   1.9340435e-04   2.3158659e-04  -1.6665421e-04   1.1819486e-04  -1.4840504e-04   5.8720070e-05   2.5183384e-05   9.7142634e-05   7.1406990e-05   4.4515942e-05   3.6141391e-05   3.7108141e-04   7.1526520e-05   2.2410264e-04   1.4612563e-04   1.3097198e-04  -1.1891594e-04   2.3268843e-04   2.3924258e-05   2.0037864e-04   7.8915776e-04   2.4181847e-04   1.1792880e-04   1.2526271e-04   1.7281197e-04  -1.3815389e-04  -3.0949534e-05  -3.8786425e-06  -7.3458177e-05   5.6708552e-04   4.2223820e-04   4.9597416e-05  -1.3159334e-05  -1.3492515e-04  -1.1986569e-04  -1.5284108e-04   8.8353889e-05  -2.4708800e-06  -8.8183675e-05  -1.8153987e-05   4.8909922e-05   3.7626996e-05  -6.8157191e-05
   1.2243701e-04   6.3048251e-06   6.1216313e-05   1.1041333e-04   8.5764397e-05   5.4622535e-05   1.5907748e-04   2.2751282e-04   2.4240481e-04  -1.5229643e-04   1.0785019e-04  -1.4280934e-04   4.9066050e-05  -3.2760596e-05   9.5826537e-05   5.8106343e-05   4.7235779e-05   4.4890970e-05   4.1609828e-04   9.5064628e-05   2.0694915e-04   1.6484871e-04   1.5302698e-04  -9.9469631e-05   3.9998682e-05   3.7856204e-05   2.2812068e-04   9.8332344e-04   2.3594152e-04   1.2534289e-04   8.6230059e-05   1.9551550e-04  -2.0214376e-05  -2.3577382e-05  -1.5834443e-05  -1.1824421e-04   5.7832984e-04   4.3599564e-04   2.6870766e-04   3.4813937e-05   1.2457465e-04  -1.3798998e-04  -1.5135252e-04  -7.9494937e-05  -3.4164797e-05  -8.5285363e-05   1.0040206e-05   2.7557002e-05   1.0914909e-04  -5.0902727e-05
   1.2823516e-04   9.7841403e-06   6.9548747e-05   1.0432344e-04   1.1771230e-04   1.0401262e-04   1.2660096e-04   2.3559820e-04   2.0627676e-04  -1.2761346e-04   1.2625346e-04  -1.2664651e-04   5.4731827e-05   7.4803676e-05   1.3437033e-04   9.0348818e-05   5.9863120e-05   4.4017976e-05   3.8670332e-04   8.7424225e-05   1.8955301e-04   1.7065306e-04   1.3276550e-04  -1.1015502e-04   2.0794953e-04   9.9585586e-06   1.5380324e-04   9.2060317e-04   2.3006280e-04   1.5999934e-04   9.5159805e-05   1.9736473e-04   1.2137934e-04   6.8468894e-06  -1.7462502e-05  -1.0750416e-04   7.3354936e-04   4.4758257e-04   2.4698200e-05   8.4873900e-05   4.6304140e-05  -9.8046781e-05  -9.5520634e-05   6.5953289e-05   1.1439503e-04   1.7963419e-05   1.7919219e-05   4.4238845e-05   1.0461570e-04  -4.2688069e-05
   1.8230022e-04   2.8236806e-05   8.2424704e-05   1.3235681e-04   1.1390042e-04   1.2563725e-04   1.6322869e-04   3.1566291e-04   3.6348047e-04  -1.1622757e-04   1.3605061e-04  -1.1400496e-04   6.1425111e-05   9.6620599e-05   3.2929969e-05   5.6643003e-05   3.9154311e-05   9.4564066e-06   4.4607231e-04   1.0543704e-04   1.8577653e-04   1.9135921e-04   5.1462786e-05  -7.0726426e-05   1.7387808e-04   3.2051514e-05   1.3917952e-04   9.3795394e-04   2.6505272e-04   1.1878783e-04   1.0540420e-04   2.2826972e-04   1.0986277e-04   1.6455106e-04  -3.4391414e-05  -3.0841620e-05   6.2648667e-04   4.1850854e-04   5.8889367e-05   7.3254254e-05  -3.4426089e-04  -1.6250768e-04  -1.5686786e-04  -3.8958686e-05   1.1567355e-04  -1.7081585e-04   1.3981057e-05   6.9503585e-05   1.0431697e-04  -9.3491908e-05
   1.6683989e-04   2.9238656e-05   8.0039186e-05   1.2236967e-04   1.2586196e-04   1.4896842e-04   1.6135705e-04   3.0903736e-04   2.5091882e-04  -9.8402983e-05   1.4668536e-04  -1.0561392e-04   4.9535909e-05   8.5115920e-05   1.3616147e-04   7.4265241e-05   5.2175386e-05   1.4024452e-05   4.6174199e-04   1.0769142e-04   1.7073615e-04   2.0117941e-04   1.9013384e-04  -8.0950245e-05   1.7459900e-04   3.5271034e-05   2.0266563e-04   7.8060653e-04   2.5352312e-04   1.4166266e-04   1.8307945e-04   1.9302948e-04   2.0087979e-04   2.0152367e-04  -3.2100765e-05   9.5449483e-05   8.1740733e-04   4.1848444e-04   2.0013643e-04   7.6048753e-05  -1.8057792e-04  -9.7653363e-05  -1.5964073e-05   2.4848286e-04   1.4708668e-04  -1.6490665e-04   3.3510132e-05   4.9259044e-05   8.6087843e-05  -7.7159493e-05
   1.9813549e-04   3.8481277e-05   9.3701579e-05   1.3310091e-04   1.4445803e-04   1.6616164e-04   1.9557176e-04   3.5385729e-04   3.4710459e-04  -1.0151045e-04   1.5498647e-04  -7.5051146e-05   1.2512716e-04   8.4036335e-05   5.9969756e-05   7.4482152e-05   4.3047723e-05   2.0363421e-05   4.4767695e-04   9.1262656e-05   1.6967417e-04   2.7441650e-04   1.1229875e-04  -8.3727784e-05   9.7599514e-05   9.8014007e-06   2.9776007e-04   8.5479364e-04   2.5710976e-04   1.5088017e-04   1.4549417e-04   2.0793568e-04   2.5446984e-04   3.0217832e-05  -9.1872862e-06   1.0652079e-04   7.8897597e-04   4.1905334e-04   1.3707780e-04   1.0107255e-04   1.8312280e-04  -9.7596509e-05  -1.6825924e-04   6.1502207e-05   1.1083334e-04  -1.3865397e-04   3.1868571e-05   7.0183836e-05   1.1171978e-04  -1.0332684e-04
   2.1386222e-04   4.5876575e-05   1.0185598e-04   1.2536236e-04   1.4578459e-04   1.2617084e-04   1.8457137e-04   2.9603299e-04   3.9475411e-04  -8.1808961e-05   1.5655361e-04  -8.5764746e-05   8.1528000e-05   7.7189085e-05   8.5486630e-05   7.9683188e-05   4.3518608e-05   2.8183395e-05   4.7500920e-04   8.5913976e-05   1.4923657e-04   2.6829829e-04   1.5198431e-04  -5.1311730e-05   6.6860775e-05   2.1656102e-05   1.4627085e-04   8.7264314e-04   2.3459792e-04   1.6128922e-04   9.4450064e-05   1.2960008e-04   3.3198463e-04   1.5158772e-04   2.4951827e-05   1.0105844e-04   8.6652051e-04   3.4773035e-04   2.5074583e-04   1.1085429e-04  -3.8090126e-05  -3.4043926e-05  -1.7672784e-04  -9.7468474e-05   1.3955751e-04   3.5599780e-05   2.0991789e-05   9.5090312e-05   5.7137098e-05   8.6197124e-06
   2.1012446e-04   3.1422089e-05   1.0521130e-04   1.1791682e-04   1.5954906e-04   1.7219892e-04   2.0894741e-04   3.6005757e-04   4.2007951e-04  -6.6662134e-05   1.5208556e-04  -8.6995416e-05   9.6198208e-05   1.4650429e-04   2.6506568e-05   1.0798721e-04   8.0458638e-05   1.9894020e-05   4.4123313e-04   1.1353007e-04   1.3014402e-04   2.4983948e-04   1.6805631e-04  -4.7623649e-05   2.5932444e-04   2.8434153e-05   1.2831666e-04   9.6893212e-04   2.3416350e-04   1.9779331e-04   1.4665881e-04   2.4990612e-04   2.4973066e-04   1.1655939e-04  -2.0129111e-05   7.1956849e-05   9.6508081e-04   3.0204211e-04   7.2011062e-05   1.9558769e-04   2.2828457e-05  -5.3759195e-05  -1.9240007e-04  -7.6128454e-05   1.2068702e-04   1.1175831e-05   5.2079798e-05   1.0383019e-04   6.9624708e-05  -2.3594819e-05
   2.5105654e-04   5.1595322e-05   1.1744783e-04   1.2907344e-04   1.5886160e-04   1.6976369e-04   1.9771219e-04   4.1208245e-04   4.2112838e-04  -6.4419146e-05   1.6060223e-04  -6.5470078e-05   1.0636327e-04   9.2237307e-05   1.9694313e-04   7.5977252e-05   7.7884710e-05   1.8934144e-05   4.0518702e-04   8.1269056e-05   1.2582638e-04   2.9438874e-04   1.6248015e-04  -4.0701503e-05   1.4319771e-04   6.6064633e-05   1.9858073e-04   9.6986763e-04   2.0837196e-04   1.6893999e-04   2.0744925e-04   1.5027370e-04   2.1528656e-04   1.0107311e-04   5.9156591e-05   2.6851552e-05   9.3050255e-04   3.2060302e-04   7.6663157e-05   2.3906563e-04  -1.7332773e-04  -9.5377494e-05  -7.1654249e-05   8.8034278e-05   1.8265887e-04  -1.6835025e-04   2.7676442e-05   5.4591099e-05   8.9068315e-05  -6.8520174e-05
   2.5420013e-04   3.3544344e-05   1.1896011e-04   1.2077736e-04   1.6301670e-04   2.1220857e-04   1.5841052e-04   3.3376526e-04   3.9058461e-04  -5.3297328e-05   1.6870987e-04  -6.7888934e-05   1.4295292e-04   1.0537558e-04   2.0093583e-04   9.4766518e-05   9.3951603e-05   4.2009131e-05   3.5522785e-04   7.9545833e-05   1.0896006e-04   2.8912889e-04   1.9571235e-04  -3.5917590e-05   4.2194221e-04   4.7441317e-05   2.4116349e-04   9.6039439e-04   2.9284856e-04   1.6950961e-04   1.3654852e-04   1.8698646e-04   3.2359417e-04   1.2150427e-04   6.4227515e-06  -4.1159492e-05   9.2152873e-04   3.1789689e-04   2.3825362e-04   1.4426286e-04   1.8002076e-05  -6.1704806e-05   5.3190790e-05   3.1472181e-04   1.7325820e-04   2.6432073e-05   7.5426840e-05   1.5591613e-04   8.2364859e-05   3.5245695e-05
   2.6618983e-04   3.0027146e-05   1.2015563e-04   1.0686331e-04   1.8913427e-04   1.9943017e-04   1.6694356e-04   3.7117500e-04   4.6546155e-04  -4.1828491e-05   1.7786679e-04  -4.6327110e-05   9.0543181e-05   1.3482117e-04   1.2801068e-04   1.0969862e-04   6.7369045e-05   2.0779828e-05   4.1099533e-04   5.2116280e-05   1.0258002e-04   3.0105968e-04   1.6195516e-04  -2.9380069e-05   4.2395928e-04   2.3225432e-05   2.1920005e-04   1.0313400e-03   2.6480923e-04   1.8129652e-04   1.7795044e-04   1.2138689e-04   4.6996455e-04   1.7622291e-04  -3.3524790e-05   1.1033094e-04   9.0003683e-04   3.7802721e-04   1.0661531e-04   2.2965496e-04  -6.9699912e-05  -3.8418264e-05  -8.7096581e-05  -4.6746049e-05   5.1198356e-05   1.4821252e-04   3.4545126e-05   1.1344506e-04   4.9400263e-05  -8.5174986e-05
   2.9731719e-04   5.8613899e-05   1.1956831e-04   1.2667757e-04   1.6788498e-04   2.1323083e-04   2.1545177e-04   3.8463928e-04   4.2928697e-04  -4.3347412e-05   1.9124009e-04  -5.1925843e-05   1.0766106e-04   1.4357609e-04   1.4323450e-04   9.5584634e-05   7.4464668e-05   1.8401970e-05   2.9696216e-04   7.4439988e-05   9.6548625e-05   3.0600271e-04   2.0841988e-04  -2.3833292e-05   3.8286825e-04   2.8915596e-05   2.2870077e-04   8.6532976e-04   2.1323367e-04   1.6504216e-04   1.3767288e-04   1.5235519e-04   4.4911448e-04   1.8326433e-04  -2.2295331e-05   7.0311995e-05   1.0219227e-03   3.6766820e-04   1.1323443e-04   1.5031264e-04  -5.6712328e-05  -5.0827184e-05  -1.0385540e-04   2.8414925e-04   8.8207053e-05   1.2976442e-04   4.9446899e-05   4.5565073e-05   9.3884555e-05  -8.9771514e-05
   2.7239294e-04   3.7201968e-05   1.2887138e-04   1.2613775e-04   1.8828953e-04   2.2014973e-04   2.0696424e-04   3.6288344e-04   4.5047977e-04  -3.4501674e-05   1.8879575e-04  -5.3713149e-05   9.4540614e-05   1.7633892e-04   1.1007764e-04   1.1077257e-04   5.5962711e-05  -3.7241441e-06   3.2676439e-04   7.4733289e-05   8.8565255e-05   2.6772046e-04   2.3061028e-04  -2.5942845e-06   1.9342035e-04   1.6079879e-05   1.5633582e-04   1.0137206e-03   2.6496014e-04   1.7274670e-04   1.2559141e-04   1.2508141e-04   2.4418993e-04   2.8766520e-04   5.0351660e-05   2.3504970e-05   1.0039324e-03   3.5786617e-04   2.4310387e-04   2.2443398e-04   1.7873260e-04  -2.9263376e-05   1.5299993e-04   1.3700456e-04   1.6124429e-04   2.2617915e-06   5.2692354e-05   8.8401110e-05   4.6269368e-05  -4.2960801e-05
   2.7759120e-04   5.8200243e-05   1.2968792e-04   1.1784756e-04   1.8683622e-04   2.3308539e-04   1.9254870e-04   4.5636011e-04   4.4544638e-04  -4.6621186e-05   1.9181214e-04  -4.6156940e-05   1.2804080e-04   1.3361090e-04   1.6529315e-04   9.5013951e-05   5.2009564e-05  -1.3105447e-05   3.7815052e-04   6.4390639e-05   9.9862700e-05   2.6796362e-04   2.6856622e-04  -9.6370168e-06   4.0410497e-04   1.0875793e-04   2.3836253e-04   1.0377634e-03   2.8563172e-04   1.5872600e-04   1.4156532e-04   2.5344617e-04   3.1531998e-04   2.0753905e-04   4.7648886e-05   1.8211058e-04   9.1610005e-04   3.8552788e-04   1.6921143e-04   1.8521864e-04   1.5374593e-04  -9.5668496e-05  -1.8078853e-04  -1.2993262e-04   1.4586021e-04  -3.3032029e-05   5.0745883e-05   9.0589616e-05   6.4317726e-05  -5.1986670e-05
   2.8244889e-04   5.2696487e-05   1.3099397e-04   1.3670720e-04   1.8949118e-04   1.5930310e-04   1.6811393e-04   4.8316483e-04   4.8410750e-04  -4.9546998e-05   1.9402769e-04  -5.5173445e-05   8.5653788e-05   1.4080459e-04   9.2781054e-05   9.5292424e-05   3.6655834e-05  -1.7745599e-05   2.7390654e-04   7.5005650e-05   8.3492137e-05   2.9788367e-04   2.2667988e-04  -2.2527724e-05   1.6428567e-04   5.2274667e-05   2.6416846e-04   9.9903112e-04   2.9122067e-04   1.6836904e-04   2.1513616e-04   2.0661611e-04   2.5223347e-04   1.9989477e-04   8.0821788e-05   6.5918532e-05   9.7028568e-04   3.6949414e-04   2.4989792e-04   2.5440421e-04   1.1253056e-04  -9.9335106e-05  -3.5988232e-05  -9.6366339e-06   1.0183553e-04  -7.6703873e-06   5.5111072e-05   2.9112405e-05   2.9215411e-05  -9.5544237e-06
   2.6835149e-04   4.5049321e-05   1.4188624e-04   1.1710498e-04   1.9358420e-04   2.1002028e-04   2.0977971e-04   4.5413757e-04   3.8897936e-04  -5.2837422e-05   1.8277788e-04  -6.9110494e-05   1.4678946e-04   1.7523870e-04   1.8942184e-04   1.1962664e-04   6.8563546e-05  -6.0773014e-06   2.8982648e-04   9.6789874e-05   7.0882110e-05   3.0558510e-04   1.9152490e-04  -4.3325879e-05   3.7300476e-04   2.4887151e-05   2.8546058e-04   9.1533817e-04   3.3023712e-04   1.8703044e-04   1.7734818e-04   1.2587736e-04   2.9201820e-04   2.8598911e-04   8.3211664e-05  -1.0592754e-05   1.0131177e-03   3.5558469e-04   2.1875404e-04   3.2679670e-04  -1.4348706e-04  -3.9100782e-05  -2.1224456e-05   1.0553479e-04   9.3522933e-05   1.3126624e-04   2.5326370e-05   8.7372064e-05   7.6247052e-05  -3.3349144e-05
   2.9264926e-04   6.3402869e-05   1.3656728e-04   1.3049922e-04   1.8528737e-04   2.2135618e-04   1.9713743e-04   4.1943087e-04   5.1886414e-04  -5.3869058e-05   1.7811860e-04  -6.9930116e-05   1.2331839e-04   1.4039550e-04   1.4496267e-04   1.0765663e-04   5.7799392e-05   1.2718468e-05   3.3811049e-04   7.8744160e-05   7.7567136e-05   3.1936486e-04   1.6217351e-04  -1.7479584e-05   3.5347472e-04   6.6273569e-05   2.5482499e-04   1.0058902e-03   2.3874512e-04   1.6859555e-04   2.1675756e-04   2.1059223e-04   2.1912411e-04   2.0770622e-04   1.0530625e-04  -1.0640436e-05   8.9310535e-04   3.3953832e-04   1.8235903e-04   2.2076619e-04   1.2440390e-04  -5.7939760e-05   1.3710876e-04   1.3897303e-04   7.4319243e-05   6.9437716e-05   2.1831642e-05   2.4257966e-05   3.9199069e-05  -8.8759021e-05
   2.5831437e-04   4.8816477e-05   1.4184225e-04   1.2055890e-04   1.7768865e-04   2.3723461e-04   1.8332063e-04   4.4088022e-04   4.3896999e-04  -6.4930478e-05   1.7438194e-04  -7.1098853e-05   1.2981262e-04   1.6529433e-04   1.8160038e-04   1.0707129e-04   8.3777290e-05   1.6737111e-05   3.3824370e-04   8.5963729e-05   6.0216269e-05   2.7627341e-04   2.2573347e-04  -3.9727685e-05   2.6527600e-04   1.2340299e-05   2.7238484e-04   9.0971874e-04   2.1472300e-04   2.0488110e-04   1.9678418e-04   1.8560991e-04   7.9007834e-05   1.8199891e-04   5.3282984e-05   1.4560482e-05   8.0142322e-04   3.0444277e-04   4.2033245e-04   1.9368523e-04  -1.5482955e-04  -1.1067731e-04   2.6176401e-04   2.9473094e-04   9.3216295e-05   9.7358998e-06   2.7042612e-05   7.8947844e-05   3.9760998e-05  -2.4850455e-05
   2.4388322e-04   3.2968150e-05   1.3782838e-04   1.0833500e-04   1.8988704e-04   2.2731512e-04   1.7544166e-04   4.0805721e-04   4.2455070e-04  -5.5532000e-05   1.6270166e-04  -6.3344232e-05   1.1820784e-04   1.7589668e-04   1.9247414e-04   1.2500914e-04   7.4311894e-05   2.5182213e-05   3.0595067e-04   4.8014754e-05   5.6468649e-05   2.9935743e-04   1.6016221e-04  -6.4364474e-05   2.1645013e-04   5.7693051e-05   2.0621932e-04   1.0843000e-03   2.8196265e-04   2.1843707e-04   2.0466716e-04   1.6314187e-04   1.4684179e-04   1.6270543e-04   7.4568539e-05   5.2346903e-05   1.1381867e-03   3.3128067e-04   2.4494992e-04   2.3392706e-04   1.2017052e-05  -9.4862473e-05  -2.3557859e-05   2.9155084e-05   3.5904428e-05  -1.9858306e-04   9.9667868e-06   7.2482540e-06   5.2426742e-05   1.1541862e-05
   2.6619644e-04   3.7176211e-05   1.3359312e-04   1.1135597e-04   1.8929769e-04   2.6241050e-04   1.8133831e-04   4.1931082e-04   4.6502263e-04  -6.1259896e-05   1.6272356e-04  -7.4265387e-05   9.6818672e-05   2.4401443e-04   1.4775133e-04   1.1876597e-04   8.2931445e-05   2.7941989e-05   1.9935286e-04   7.9731362e-05   3.9191524e-05   2.4961145e-04   2.2834215e-04  -4.0452156e-05   3.2321262e-04   3.0144975e-05   2.9302930e-04   1.0135527e-03   2.7037668e-04   2.1805394e-04   1.4947583e-04   2.4097087e-04   1.2854472e-04   4.8482765e-05   1.0035680e-04  -1.4811172e-05   1.0601196e-03   3.0609593e-04   4.3903576e-04   1.7452499e-04  -7.1442868e-05  -1.5623510e-04  -7.7088422e-05  -1.5331866e-04   1.0290397e-04   1.4966134e-04   1.2373155e-05   5.4169963e-05   5.8706410e-06  -1.0615215e-05
   2.4759924e-04   2.6755539e-05   1.2732483e-04   1.0988803e-04   1.6448814e-04   2.0413235e-04   1.7827727e-04   3.9245581e-04   4.5897497e-04  -6.6366229e-05   1.5372211e-04  -7.4295815e-05   1.6207978e-04   1.9774983e-04   1.7313275e-04   1.0506705e-04   9.7788528e-05   4.3278807e-05   3.6187365e-04   9.1782058e-05   2.8897477e-05   2.7829374e-04   5.9950351e-05  -6.2483392e-05   1.5606600e-04   5.2616113e-05   2.7145079e-04   1.0078253e-03   3.1344572e-04   2.4973194e-04   1.0456816e-04   2.2223484e-04   8.2651677e-05   1.7631917e-04   2.6992166e-05   1.0726757e-04   1.1034295e-03   3.0083291e-04   3.1714252e-04   1.9076759e-04   3.9938201e-05  -9.9761557e-05  -3.5303063e-05   1.7659749e-04   1.8709006e-04  -5.7462297e-05   1.2941047e-05   1.0404451e-04   2.6912739e-05  -2.9106719e-05
   2.5657736e-04   3.9903483e-05   1.2423677e-04   1.0041709e-04   1.8091613e-04   1.6924420e-04   1.9641925e-04   3.4232895e-04   5.0480611e-04  -7.6341392e-05   1.5713953e-04  -7.3712356e-05   1.1266660e-04   2.0020657e-04   1.9602120e-04   1.0270523e-04   8.7118919e-05   3.6533183e-05   3.2332761e-04   7.2593000e-05   3.4124063e-05   3.1196428e-04   1.6068308e-04  -5.3232648e-05   2.8601900e-04   3.5168079e-05   2.0194244e-04   9.7008178e-04   2.4043221e-04   2.2207240e-04   1.3146685e-04   2.0603156e-04   1.8078461e-04   2.4297742e-04   4.2305888e-05   3.1562842e-05   1.0118884e-03   3.2064729e-04   3.5341611e-05   1.9429006e-04   1.1383949e-04  -8.0558624e-05   2.4701778e-05   3.4771881e-05   6.0091890e-05   1.7515631e-05  -6.8577087e-06   5.1263509e-05   8.6644122e-06   6.3321837e-05
   2.3706634e-04   3.0750765e-05   1.2410976e-04   1.1185229e-04   1.7155793e-04   1.5784644e-04   1.7827473e-04   4.3354346e-04   4.2240659e-04  -7.6681972e-05   1.4500473e-04  -7.9806123e-05   1.3639728e-04   1.6817260e-04   1.2157551e-04   9.2028262e-05   9.0482172e-05   3.4941455e-05   4.0926671e-04   7.7916637e-05   2.1968443e-05   2.7534319e-04   1.6881627e-04  -3.5094567e-05   9.1025518e-05   4.0588922e-05   2.2191738e-04   1.0116484e-03   2.4178883e-04   1.9488172e-04   1.7221988e-04   2.4001670e-04   1.1369917e-05   2.0145638e-04   2.4279681e-05   5.7927866e-07   1.1103522e-03   3.2855984e-04   2.2968133e-04   1.7441118e-04  -6.0986968e-06  -6.1335690e-05  -3.3367967e-05   6.3285283e-06   8.0360180e-05   6.7700006e-05   1.1165409e-06   1.8987672e-05   5.6652603e-05   3.9365925e-05
   2.3189136e-04   3.4454817e-05   1.2537961e-04   1.1445069e-04   1.6492602e-04   2.0245247e-04   1.9982149e-04   4.5273380e-04   4.1915156e-04  -7.7732395e-05   1.5558839e-04  -7.4648662e-05   1.2541428e-04   2.3814663e-04   1.6961197e-04   1.1583311e-04   5.4498178e-05   3.1119402e-05   4.6006573e-04   9.2628972e-05   2.2107875e-05   2.5209782e-04   5.0357063e-05  -2.1253156e-05   2.9179352e-04   3.8518305e-05   2.8451948e-04   1.1419430e-03   2.9793018e-04   2.4682030e-04   1.3198465e-04   2.4961805e-04   1.4713769e-04   9.2277369e-05   6.2158506e-05   4.2411448e-06   1.0255394e-03   3.9616640e-04   2.3844252e-04   1.6553904e-04   5.9919053e-04  -9.4060095e-05  -1.7259799e-05   2.3634838e-04  -8.3041023e-06   1.0643035e-04  -6.7912299e-07   7.3174473e-05   4.4438748e-05  -2.5372516e-05
   2.5475462e-04   5.2460746e-05   1.1230181e-04   1.1395209e-04   1.6950718e-04   1.4643210e-04   2.2932202e-04   4.5051740e-04   3.8758034e-04  -8.3777879e-05   1.4018039e-04  -8.1962622e-05   7.7163175e-05   1.8378287e-04   8.9848887e-05   7.9817401e-05   5.0155493e-05   2.9180928e-05   3.3562537e-04   8.7064844e-05   1.8788016e-05   2.2379958e-04   1.2226263e-04  -2.4448409e-05   1.9345742e-04   3.2563014e-05   3.2049156e-04   9.1506972e-04   3.1794875e-04   1.8330599e-04   1.0620950e-04   1.8516103e-04  -1.6118167e-05   1.0523201e-04   1.5166088e-04   2.6954967e-05   7.7504985e-04   3.6431508e-04   2.6958136e-04   1.5782792e-04   2.0829515e-04  -1.3461433e-04  -6.5606197e-05   1.8914648e-06   9.7247001e-05  -1.0819493e-04   2.2087024e-05   5.4475047e-05   7.0444665e-05  -8.2580576e-05
   2.2018953e-04   4.1809210e-05   1.1201090e-04   1.0626214e-04   1.7740449e-04   2.3673630e-04   1.6798110e-04   4.0078405e-04   3.2560725e-04  -9.8641634e-05   1.2386002e-04  -9.1066846e-05   7.4171279e-05   1.7592526e-04   1.6238884e-04   9.2315968e-05   6.3613908e-05   4.7982558e-05   2.5881513e-04   7.7822435e-05   1.6095684e-05   2.0010238e-04   1.1228649e-04  -5.8617548e-05   1.4265993e-04   1.6673119e-05   3.2844234e-04   8.1137446e-04   2.9109718e-04   2.0337384e-04   1.1175754e-04   2.1491926e-04   3.1343315e-04   3.8780825e-05   3.9819857e-05   6.7176472e-05   8.8939600e-04   3.1765850e-04   1.8962832e-04   1.7615169e-04   9.5356281e-06  -1.9856059e-05   1.0978863e-05   3.2227454e-05   7.4949290e-05   9.6128118e-05   8.0154168e-06   8.3451800e-05   9.3069779e-05   2.6464340e-05
   2.1680545e-04   3.5961777e-05   1.1239191e-04   1.0359832e-04   1.7237419e-04   2.2622413e-04   1.9530569e-04   3.9427850e-04   3.6343618e-04  -1.0990269e-04   1.1532918e-04  -8.9467067e-05   8.8717650e-05   1.7262377e-04   1.5593585e-04   8.2972147e-05   5.2595875e-05   3.4475972e-05   2.8077653e-04   5.8921545e-05   1.5303711e-05   1.5842995e-04   1.5136797e-04  -6.3523090e-05   2.2277387e-04   5.7433645e-05   3.1532580e-04   1.0951014e-03   2.9056339e-04   1.9114531e-04   1.1161149e-04   2.2753088e-04   1.8040476e-04   9.7474367e-05   6.0141461e-05   1.3232358e-04   8.4528775e-04   3.9207397e-04   2.4701553e-04   8.9743036e-05   1.4188247e-04  -1.1770584e-04  -9.5357500e-05   1.1903075e-04   1.6123273e-04  -5.8490608e-05  -1.1404660e-05  -1.0573898e-05   8.2408049e-05  -4.7615405e-05
   2.2963762e-04   5.3354408e-05   1.0176394e-04   1.2120408e-04   1.5877407e-04   2.1974732e-04   2.1330599e-04   3.9495519e-04   3.2372068e-04  -1.1704332e-04   9.8302837e-05  -9.4012146e-05   8.5855303e-05   1.5764401e-04   1.8420507e-04   8.6597975e-05   5.9189795e-05   6.2813662e-05   3.1687407e-04   6.9151021e-05   7.7312552e-06   1.5560836e-04   1.6115449e-04  -4.0686766e-05   4.2742249e-05   4.5737299e-05   2.7301238e-04   7.4502197e-04   2.8599426e-04   1.5717020e-04   1.4089240e-04   2.5998446e-04   1.8357669e-04   1.5675950e-04   2.9548768e-05  -5.4434772e-06   7.7238638e-04   4.0788882e-04   2.7759041e-04   9.0603477e-05  -1.1904878e-04  -1.4466324e-04   1.4391795e-04   1.6762163e-04   5.4192355e-05  -1.1773995e-04   5.3322942e-06  -1.7520274e-06   6.5096749e-05  -4.3121050e-05
   2.0848188e-04   5.2943527e-05   9.6158001e-05   1.0742876e-04   1.6541670e-04   1.3367174e-04   1.5340718e-04   4.0264332e-04   2.9608546e-04  -1.1841422e-04   1.0737756e-04  -9.5881485e-05   7.1962277e-05   1.7887789e-04   2.1250764e-04   7.8599354e-05   5.3792781e-05   2.5762465e-05   2.9573386e-04   6.4544816e-05   5.6750005e-06   1.3827595e-04   5.9363952e-05  -5.6210825e-05  -7.4141581e-06   4.0540542e-08   2.8815016e-04   8.6962077e-04   2.6906224e-04   1.7560215e-04   1.1819716e-04   1.8909876e-04   1.8661974e-04   2.6748799e-05  -7.7616050e-06  -2.4792333e-05   7.7345112e-04   3.9237191e-04   1.1704640e-04   1.6264994e-04   6.8195586e-05  -5.5313900e-05  -1.7543726e-04  -5.7263573e-05   8.1927421e-05   2.4288245e-06  -2.5657484e-05   5.4270669e-05   4.5669993e-05  -6.0562492e-05
   2.2759715e-04   6.1885257e-05   1.0207585e-04   9.7753371e-05   1.5028635e-04   2.0869003e-04   1.5976228e-04   3.3583620e-04   2.5136382e-04  -1.2531436e-04   9.8211523e-05  -1.0757307e-04   5.5532892e-05   1.4754798e-04   1.0417455e-04   7.1795053e-05   2.8766799e-05   2.0374769e-06   2.4123830e-04   3.8200105e-05   6.9484577e-06   1.7285963e-04   7.5439682e-05  -8.8876470e-05   2.8077807e-04   1.2199936e-05   2.1921878e-04   5.8073463e-04   1.9164654e-04   1.1123622e-04   1.9457618e-04   1.9499926e-04   3.4093828e-05   1.9076701e-04  -4.0088315e-05  -3.6729543e-05   6.9623970e-04   3.6667680e-04   2.6309222e-04   3.3094642e-05  -1.3982497e-04  -1.5448692e-04  -2.4458914e-04   2.3534146e-04   5.1275125e-05  -1.2841457e-04   5.2241030e-06  -2.0143198e-05   4.7364338e-05  -1.1291113e-04
   1.9700071e-04   5.0677489e-05   9.3031573e-05   9.1421047e-05   1.3758457e-04   1.6941293e-04   1.7553408e-04   3.5648700e-04   2.8345504e-04  -1.3492511e-04   9.6442294e-05  -1.1570237e-04   4.6217148e-05   1.4645726e-04   3.0073525e-05   6.1522769e-05   4.5028897e-05  -3.7229216e-05   3.0809492e-04   4.3662938e-05   1.1252804e-06   1.2942393e-04   1.0391721e-04  -9.0899732e-05   3.0887331e-04   2.4707178e-05   2.6262214e-04   6.3859264e-04   2.2511950e-04   1.2652720e-04   5.9070346e-05   1.7831718e-04   2.3506478e-04   1.4136496e-04  -6.4452055e-05   4.7657548e-05   6.9434213e-04   3.0130547e-04   2.1980194e-04   3.9372066e-05   7.0738693e-05  -9.1526621e-05   5.8596456e-06  -1.2216052e-04   8.2622046e-06  -7.9546320e-05  -1.9711879e-05  -1.6134973e-05   5.9967966e-05   9.5329551e-06
   1.8963176e-04   3.6625908e-05   7.5492797e-05   6.5013810e-05   1.5118587e-04   1.7630607e-04   1.5899811e-04   3.7194902e-04   2.1923833e-04  -1.4006057e-04   6.3572967e-05  -1.1029145e-04   4.5533106e-05   1.7361432e-04   8.5966887e-05   6.9635811e-05   5.6644836e-05  -1.0755429e-05   2.5391695e-04   1.6607761e-05   2.0542370e-06   1.1752361e-04   4.1550873e-05  -6.9114307e-05   1.8541378e-04  -1.5373203e-05   3.0024737e-04   6.6191854e-04   2.2269716e-04   1.1522203e-04  -2.6078756e-06   1.6910536e-04   6.3730935e-05   1.4690566e-04  -3.1591964e-05   8.4575571e-05   5.0159736e-04   2.6442649e-04   4.9737097e-05   1.4677632e-04   9.0936164e-06  -9.4426447e-05   2.2271092e-06   2.9248936e-04   1.0533182e-04   5.4220094e-05  -2.4892903e-05   3.7038466e-05   4.0236093e-05  -3.4305001e-05
   1.7609066e-04   2.9631568e-05   6.7296212e-05   5.2065239e-05   1.1154918e-04   1.9178723e-04   1.3111226e-04   3.5928685e-04   2.1798493e-04  -1.4464946e-04   5.2106461e-05  -1.2241902e-04   6.4379572e-05   1.2421449e-04   8.0117534e-05   5.9271031e-05   8.3039260e-05   1.1271184e-05   1.6552165e-04   1.0780870e-05  -1.4972042e-05   1.4723703e-04   3.5127923e-05  -9.2168411e-05   1.6493340e-04  -3.2591954e-05   1.4626687e-04   4.8694311e-04   1.5649961e-04   1.1159184e-04   1.8350393e-04   1.6511579e-04  -3.7904079e-05   9.5066789e-05  -5.3746055e-05  -4.2497126e-05   5.4344820e-04   2.0499527e-04   2.6621338e-04   2.2005016e-04  -2.0692039e-04  -8.4090876e-05   5.5531957e-05  -2.2341070e-05   3.5922923e-05  -3.9609495e-05  -3.6172587e-05  -6.4205808e-05   3.2310836e-05  -4.0276400e-06
   1.6128324e-04   1.1372475e-05   5.5667260e-05   4.0637944e-05   1.0097849e-04   9.9364210e-05   1.1975499e-04   3.1678085e-04   1.3580540e-04  -1.4627939e-04   5.2297415e-05  -1.3412254e-04   6.6163790e-05   1.3815737e-04   6.7956476e-05   5.0006009e-05   6.4835207e-05   2.8758208e-05   2.3251814e-04   6.2165814e-06  -2.8905370e-05   7.8400582e-05   7.0088579e-05  -9.7657547e-05  -6.9525973e-05   2.9848719e-05   1.5953837e-04   6.0002896e-04   1.6812574e-04   1.6951712e-04   8.3089049e-05   2.5611816e-04  -6.6505556e-05   9.6162985e-05   7.9908627e-05  -5.6661032e-05   6.5149239e-04   2.3141281e-04   1.3774012e-04   9.4874587e-05   3.6910849e-05  -4.1782307e-05   4.9071292e-05  -4.9639359e-05   4.5376883e-06  -5.6369139e-05  -4.6712819e-05   3.3096130e-05   3.4966099e-05   3.9662486e-05
   1.7928352e-04   2.0378006e-05   5.3200598e-05   3.5692661e-05   1.0615112e-04   1.3771390e-04   1.1302606e-04   2.9030567e-04   1.2755397e-04  -1.4666021e-04   3.5832367e-05  -1.3323783e-04   4.5293632e-06   1.1319929e-04   7.0705239e-05   4.8619182e-05   5.5348119e-05   2.2694891e-05   1.8406473e-04  -3.0558515e-06  -1.7871635e-05   1.3332683e-04   4.2902706e-05  -8.5497864e-05   8.9374480e-05   4.2386961e-05   2.1638958e-04   4.2765710e-04   1.3179264e-04   6.4729189e-05   4.4825105e-05   1.6208048e-04   1.3733591e-04   1.2441314e-05   2.8831701e-05   6.0599566e-05   2.8189988e-04   2.8930663e-04   1.0481130e-04   9.2750175e-05   2.0930263e-04  -3.8488619e-05   1.3395212e-05  -2.3191027e-05   7.7798737e-05  -8.0361751e-05  -3.6335052e-05  -2.2385500e-05   3.4688197e-05  -6.7742367e-05
   1.5963080e-04   9.1054162e-06   4.0492174e-05   3.8418322e-05   6.9157999e-05   8.7835433e-05   6.0546579e-05   2.7481129e-04   1.3175851e-05  -1.5367327e-04   1.4729055e-05  -1.4021940e-04  -1.1918988e-05   8.2319333e-05   5.8917147e-05   2.1526832e-05   4.3292384e-05   2.4147081e-05   2.4127068e-05  -1.1364574e-05  -2.4787883e-05   8.0478683e-05   7.9318903e-05  -1.1145145e-04   1.9972392e-04   2.2705370e-05   1.8464422e-04   3.8717582e-04   1.7205061e-04   7.3576186e-05   6.7506626e-05   2.3454732e-04   1.3908553e-04   1.8635725e-05   2.3575751e-05  -2.4424528e-05   4.3364495e-04   2.8496995e-04   2.0582553e-05   1.5782894e-05  -2.2610561e-04  -1.0376376e-04   6.0993512e-05   3.1825959e-05   3.8587343e-05   3.5091107e-05  -4.9017261e-05  -1.8396613e-05   1.3056085e-05  -1.8475621e-05
   1.2205463e-04   3.8980409e-07   2.5600159e-05   3.1366511e-05   5.2694297e-05   1.0955306e-04   6.6830318e-05   2.6611687e-04   3.4808800e-05  -1.5825653e-04   3.1349889e-05  -1.4226235e-04   1.9881170e-05   9.2047630e-05   4.4107146e-05   2.2482709e-05   3.1793934e-05   1.5619446e-05   5.8712110e-05  -4.4411972e-05  -1.2949844e-05   7.1037131e-05   1.3301911e-05  -1.1397202e-04   1.2087093e-04   3.0990079e-06   2.4969626e-04   3.6291595e-04   2.1253836e-04   8.8426306e-05   3.0570391e-05   2.3085537e-04   8.9515088e-05   5.4770269e-05  -7.5862234e-05  -3.4390265e-05   2.8075141e-04   3.3739323e-04   1.5311645e-04  -8.1241538e-05   2.6422829e-05  -9.3441224e-05  -1.1560298e-04   8.7219385e-05   6.2014384e-05  -1.8669528e-04  -7.7793047e-05  -8.9461646e-05  -3.3258104e-05  -3.9556180e-05
   1.1474443e-04   1.6571386e-05   1.7248969e-05   2.8604012e-05   3.6345333e-05   1.2208783e-04   5.8852886e-05   1.5789892e-04   5.9585353e-05  -1.5092685e-04   2.8112659e-05  -1.4531511e-04  -2.4230394e-05   3.5743742e-05   1.9487574e-05   3.4141678e-06   4.7235844e-06  -1.0160191e-05  -4.3942769e-06  -4.5601308e-05  -1.4675880e-05   6.0859213e-05   1.4343964e-05  -1.1270349e-04   1.2403011e-04  -3.2949760e-05   1.4715876e-04   2.0364336e-04   2.1943467e-04   2.6598609e-05   1.6008767e-05   1.9942415e-04  -9.9545941e-05   1.0325746e-04  -6.9116904e-05  -1.0818349e-04   2.1496232e-04   3.5841428e-04  -5.5517398e-06   9.0996131e-05   6.1875340e-05  -5.9790331e-05  -1.9791241e-05  -2.4123794e-05  -3.7666843e-05  -7.9909878e-05  -5.7220277e-05  -3.7822057e-05  -5.4469212e-05  -5.0873354e-05
   9.3632225e-05   4.1077783e-06   1.0687896e-05   1.6219074e-05   3.1233212e-05   7.7899494e-05   2.7807102e-05   1.0052550e-04   3.7540529e-05  -1.6285814e-04   2.2552204e-05  -1.4607920e-04  -2.0814774e-05   4.2714364e-05  -3.5354729e-05   5.5183223e-06  -3.5804675e-07  -2.2458429e-05   2.9612759e-06  -4.0001036e-05  -9.6930653e-06   5.3434258e-05  -4.2933534e-05  -1.3599520e-04   4.2327065e-05  -7.1447644e-06   8.8788212e-05   2.7995041e-04   1.6938390e-04   7.4145260e-05  -9.2830915e-06   1.8389829e-04   1.5029048e-04   7.1110439e-06  -3.9149490e-05  -8.8850167e-05   2.2401768e-04   3.4379543e-04   3.4820445e-05  -5.6145447e-05  -2.2989584e-04  -7.0945454e-05  -4.2576579e-05   2.5767987e-04   2.9999790e-06  -1.7242685e-04  -5.7821744e-05  -1.1584298e-04  -1.0906750e-05  -8.8477296e-05
   6.6834640e-05   6.0537641e-06  -9.4663301e-06   2.1947853e-05   1.9939262e-05   2.3795068e-05  -1.5668305e-05   1.7690247e-04   1.0678807e-04  -1.5444847e-04   2.3728728e-05  -1.4467347e-04  -1.7763370e-05   8.4993066e-05   2.2322300e-05   1.2540369e-06   2.7263359e-06  -3.3652490e-05   3.9173615e-06  -3.5706438e-05  -5.5597379e-06   2.8703522e-05  -2.9045323e-05  -1.2036532e-04   2.9042355e-06  -2.0026626e-05   2.0417136e-04   5.2714924e-04   2.1085101e-04   1.2425000e-04  -8.5408856e-06   1.4132139e-04   1.5630636e-04   4.2623396e-05  -2.1714604e-05  -3.0333407e-05   5.0261710e-04   3.5880110e-04   1.1220951e-04  -7.0653738e-07   1.0226056e-04  -8.2417275e-05  -7.7856515e-05  -2.0122594e-05  -5.6219182e-05  -1.2618970e-04  -8.6148961e-05  -4.9268128e-05   4.1730086e-06  -4.0147974e-05
   8.2106999e-05   3.8692971e-05  -4.4684389e-06   4.1620697e-05   3.4783388e-05   9.7157819e-05   7.8106073e-05   2.4610804e-04   6.6327797e-05  -1.5722729e-04   4.1465802e-05  -1.2603731e-04  -4.3830893e-05   5.4882163e-05  -4.1014904e-05  -5.1292739e-07  -8.6388391e-06  -1.9999545e-05  -9.0905123e-06  -4.7005025e-05   1.4924384e-05   8.3540355e-05  -4.2140331e-05  -1.2346072e-04   1.3574914e-04  -1.8480323e-05   1.2190916e-04   3.8386884e-04   2.0536996e-04   5.0054856e-05  -9.9070703e-06   1.4840435e-04   1.4826431e-05   7.6758355e-05  -4.5213652e-05  -1.8605664e-05   2.5009344e-04   4.1120953e-04  -5.0884453e-05  -4.3559885e-05  -1.2828923e-05  -1.1486635e-04  -1.1171493e-04  -1.2733419e-04   4.9297778e-05  -1.1350697e-04  -7.8479025e-05  -4.5801055e-05  -2.8220109e-05  -6.7791472e-05
   6.8294212e-05   2.9979268e-05  -6.1639253e-06   4.1227187e-05   2.4934872e-05   6.0728300e-05   7.2289522e-06   1.3787842e-04   5.0172504e-05  -1.5313781e-04   4.4186800e-05  -1.1995306e-04  -2.9151019e-05   3.5872497e-05  -2.2432330e-05  -1.6919688e-05  -1.8281791e-05  -3.6642185e-05   3.5465571e-05  -3.1411768e-05   1.8263596e-05   4.9224851e-05  -1.1938457e-04  -1.4814170e-04  -8.1932980e-05  -1.0395735e-05   1.7177519e-04   3.6943634e-04   2.2676890e-04   3.0083565e-05   3.3279564e-05   1.1766399e-04   3.7679300e-05  -5.4462298e-06  -7.0405265e-05  -1.0479254e-04   3.0643045e-04   3.7906834e-04   1.1967684e-04   2.8012439e-06  -1.8819787e-04  -1.4307829e-04  -5.9761220e-05  -1.1216388e-04  -5.4793345e-05  -2.1952858e-04  -8.6025997e-05  -9.3054288e-05  -1.1417190e-05  -8.3652660e-05
   4.5438737e-05   1.5675725e-05  -1.3921069e-05   3.6859725e-05   5.9978856e-06  -2.3869792e-05   1.2936468e-05   1.4841316e-04   4.1770294e-05  -1.5598904e-04   4.8031110e-05  -1.1892268e-04  -2.5169727e-05   8.6146007e-05   1.3214686e-05  -1.1630853e-05  -2.4589935e-05  -2.3475726e-05   6.0370068e-05  -3.4627112e-05   2.6093401e-05   4.7712452e-05  -8.9839552e-05  -1.3258358e-04   1.6180717e-05  -3.5079087e-05   8.8741552e-05   5.1703915e-04   1.9548617e-04   7.5556440e-05   9.2157708e-05   1.3587938e-04  -5.4532724e-05  -8.4293106e-06  -5.9397800e-05  -8.7613880e-05   4.4002346e-04   3.8149388e-04   9.0344802e-05  -4.6926383e-05  -1.7979871e-04  -1.4402691e-04  -2.6977251e-04  -8.5330234e-05   6.2108520e-05  -7.2734314e-05  -6.5423686e-05  -1.2097897e-04  -1.9540080e-06  -1.5038137e-04
   4.8988244e-05   2.5341771e-05  -1.1788655e-05   5.1015621e-05   2.6199968e-05   4.7247329e-05   4.2610685e-05   1.1556197e-04   7.9083620e-05  -1.5828734e-04   6.1550782e-05  -1.1042003e-04   1.2323289e-05   2.3965422e-05  -9.7304992e-06  -1.5723665e-05  -3.1622789e-05  -3.8818467e-05  -3.0046034e-05  -3.4608940e-05   4.2122574e-05   5.4241857e-05  -1.1935481e-04  -1.1262753e-04   1.7140433e-04  -4.2939962e-05   4.2299602e-05   6.3252932e-04   2.4405106e-04   5.4128046e-05   2.5701114e-05   1.3446677e-04   6.3056796e-05  -6.9012742e-05  -7.0900278e-05  -1.3772394e-04   4.4848627e-04   3.5453888e-04  -7.9117322e-05   3.4470817e-05   7.5629105e-05  -1.1899472e-04  -1.0537267e-04   9.7079836e-05  -3.1093874e-05  -2.5476195e-04  -6.6287677e-05   2.4249809e-06  -7.9291502e-05  -1.1392387e-04
   5.7580430e-05   3.7665701e-05   1.8808991e-07   6.2508836e-05   1.7936723e-05   1.0952132e-04   8.0271988e-05   2.1914956e-04   1.2823264e-04  -1.4327465e-04   6.7267494e-05  -1.0591470e-04  -2.5417157e-05   6.7866975e-05   1.5094212e-06  -2.7338770e-05  -2.2289509e-05  -5.0497172e-05   2.3933006e-05  -2.6054713e-05   4.5238972e-05   6.8413734e-05  -2.5047517e-05  -1.1212118e-04   1.3276747e-04  -2.0197976e-05   1.8899795e-04   4.4837379e-04   1.7877166e-04   3.2218890e-05  -2.7366207e-06   1.0301221e-04  -7.4301948e-05   9.7867933e-06  -5.5815501e-05  -6.5859342e-05   2.7094831e-04   3.2038151e-04  -9.9334145e-05   5.9788572e-06  -1.0620627e-04  -1.0508142e-04  -7.4657051e-05  -4.8406214e-06   4.4572596e-05  -9.8358556e-05  -8.3055420e-05  -1.1537130e-04  -1.4877782e-05  -8.3145846e-05
   5.0786944e-05   2.4264158e-05  -5.1956422e-06   6.1259088e-05   1.9882562e-05   1.0476807e-04   8.5110551e-06   6.5828419e-05   1.1947961e-04  -1.4923983e-04   5.9372735e-05  -1.0701898e-04  -2.7438906e-05   1.0142292e-04  -4.0252373e-05  -2.8312379e-05  -2.9008068e-05  -2.4582327e-05   2.4801950e-05  -1.9740712e-05   4.9628990e-05   7.9548074e-05  -1.0408835e-05  -1.0531265e-04  -8.4053536e-06  -6.3706873e-05   1.2375688e-04   4.6270961e-04   2.0579362e-04   8.4681327e-05  -2.9896488e-05   1.7731749e-04  -1.5942705e-05  -2.1813717e-06   2.1455917e-06   2.1921565e-05   4.4485097e-04   3.1634766e-04  -6.2996383e-05  -3.4092587e-05  -1.7796479e-04  -1.4281993e-04  -5.2918585e-05  -8.0826627e-05   8.4519650e-07  -8.9885521e-05  -7.1305629e-05  -1.0396021e-04  -5.4508828e-06  -8.9503061e-05
   4.5118355e-05   1.9137960e-05   3.7068819e-06   5.6917666e-05   3.9819301e-05   4.8161837e-05   9.8717042e-05   1.7569031e-04   1.6571999e-04  -1.4658518e-04   5.1648782e-05  -9.0419671e-05  -3.4719047e-05   5.9389778e-05   7.4122894e-05  -1.9120411e-05  -2.8947681e-05  -3.1769152e-05   9.0446483e-05  -3.3230219e-05   5.6447625e-05   9.1910486e-05  -8.9543217e-05  -1.1048043e-04   2.6629068e-05  -1.6875603e-05   1.5429103e-04   6.3511898e-04   2.3144737e-04   5.3244603e-05  -4.1329249e-06   1.4880922e-04   3.1247613e-04   2.7741293e-05  -4.3599211e-05  -9.5083546e-05   2.9454290e-04   3.2793960e-04  -4.0955452e-05  -1.2974448e-05   2.7361492e-04  -8.4919535e-05  -7.1828363e-05  -4.2673215e-05  -7.3514006e-05  -7.9238096e-05  -6.9697198e-05  -3.1883046e-05  -5.4607197e-05  -1.3631009e-04
   9.2564042e-05   3.8850285e-05  -2.9032960e-06   8.9260611e-05   3.6851518e-05   8.2010456e-06   7.5232827e-05   1.4550288e-04   1.8707254e-04  -1.3210192e-04   6.7335081e-05  -9.7127770e-05  -3.5895511e-05  -3.4796076e-07   4.0923122e-05  -2.6264375e-05  -1.2540592e-05  -3.3303149e-05   2.3868339e-05  -9.2143464e-06   6.5195272e-05   1.0275190e-04  -5.1173603e-05  -1.2784063e-04  -2.6675189e-05  -3.5179997e-05   1.4126861e-04   5.2813755e-04   1.8554510e-04   6.4785148e-05   7.8398931e-05   1.8039314e-04   1.4752510e-04  -8.3951272e-05   3.5758869e-05  -6.1218481e-05   3.3830770e-04   3.0846006e-04   4.7455387e-06   3.1645472e-05  -2.2846667e-04  -9.8134653e-05  -1.8526574e-05  -6.2907951e-05  -9.7181895e-05  -6.2186387e-05  -7.4073658e-05  -8.5064617e-05  -8.2066261e-05  -2.1132072e-04
   1.0134102e-04   3.6062349e-05   2.5226020e-06   6.7673056e-05   4.1367166e-05   3.8272337e-05   7.8789635e-05   2.0009575e-04   1.6452775e-04  -1.3897654e-04   6.6093104e-05  -1.0349081e-04   1.1009814e-05   2.9408222e-05   5.1171479e-05  -4.9331484e-06  -9.1653628e-06  -2.9035971e-05   5.5977678e-05  -9.5017895e-06   6.1615341e-05   1.0285821e-04  -4.6801204e-05  -1.5595340e-04   2.0417628e-04  -7.2939251e-06   1.6919580e-04   4.6934769e-04   1.1542215e-04   8.9303881e-05  -1.3416667e-06   1.2597603e-04   3.6572423e-05  -3.2855482e-05  -6.9456633e-05  -1.4117137e-06   3.8692335e-04   2.1085846e-04   1.6234939e-04   1.2416451e-04   3.4046931e-05  -1.2926827e-04  -5.9428867e-06   1.2149364e-04   5.2533342e-05   7.4586511e-05  -8.3956998e-05  -1.1630464e-04  -1.2210938e-05  -1.1151072e-04
   8.8814370e-05   1.6808706e-05   1.1030474e-05   4.7658014e-05   7.0108566e-05   1.3364317e-04   8.2976825e-05   2.1706941e-04   1.4974155e-04  -1.3860170e-04   5.8466630e-05  -8.6944863e-05  -7.9907732e-06   5.5955064e-05   9.7359807e-05   7.3741598e-06  -5.3675385e-06   1.4849114e-05  -2.4735671e-05  -3.5758261e-05   6.9107577e-05   5.5557666e-05  -3.0691815e-05  -1.0612989e-04  -1.1849190e-04  -1.6180013e-05   8.5811793e-05   6.9423183e-04   1.3893389e-04   1.3430836e-04   8.3515333e-05   1.3814740e-04  -2.3463244e-05   3.2575012e-06   3.7926725e-06  -8.7522849e-06   6.0494384e-04   2.2562749e-04   9.1960479e-05   1.6661061e-04  -1.9685203e-05  -8.3160798e-05  -5.1174233e-05  -8.6717395e-05  -7.5655640e-05  -4.9795883e-05  -7.8430232e-05  -4.7781621e-05   5.2558539e-06  -1.1388556e-04
   1.0858653e-04   4.1185041e-05   2.7811544e-05   5.9141166e-05   5.7997837e-05   9.5048104e-05   1.0334752e-04   2.1244783e-04   1.6689106e-04  -1.2626126e-04   5.4912882e-05  -8.4038795e-05   1.4676502e-05   1.0999756e-04   2.6481206e-05   1.3196236e-05   3.9936467e-06   2.5296284e-05   7.5874334e-05  -2.4535721e-05   6.9074580e-05   7.1088551e-05  -2.2189728e-05  -1.2934690e-04   2.3291991e-04  -5.2092058e-05   1.0093066e-04   6.5288797e-04   1.2269040e-04   7.9828213e-05   5.5901553e-05   1.4447441e-04   9.1895345e-06  -6.6057917e-05   9.5212039e-05   5.1861811e-05   5.1125884e-04   1.9671400e-04   3.6571917e-05   1.3080156e-04  -4.8723938e-05  -8.9734138e-05  -1.4933372e-04  -6.0885341e-08  -6.3645180e-05   4.0401730e-05  -6.3638756e-05  -1.2014079e-04  -2.9438303e-05  -1.7183652e-04
   1.0089489e-04   2.3799113e-05   2.0171648e-05   4.5875400e-05   7.0817820e-05   7.7660239e-05   1.1065933e-04   2.1986847e-04   1.6589808e-04  -1.2808370e-04   5.6005254e-05  -8.7548236e-05   1.5449505e-05   6.8882429e-05   4.0830917e-05   2.1555779e-05   3.3315842e-05   1.9026525e-05   8.1405760e-06  -1.6388380e-05   7.8455036e-05   3.5210938e-05  -1.8413870e-05  -1.2963713e-04   2.5264419e-05  -1.1626706e-05   1.0880329e-04   5.9436669e-04   1.0990491e-04   1.1246150e-04  -4.4270302e-05   9.6829281e-05   1.0723428e-04  -5.2321033e-05   1.6576192e-05   4.0703857e-05   5.0795614e-04   2.3550712e-04   1.8061461e-05   1.5744416e-04  -1.3146478e-04  -1.0392246e-04   6.8110603e-05   3.8948976e-05   2.9159071e-05   8.0671407e-06  -3.9338891e-05  -6.4857675e-05  -7.1739196e-05  -1.1538447e-04
   1.1521258e-04   2.7880997e-05   1.0600413e-05   4.2299926e-05   8.3190564e-05   1.3099147e-04   7.6800898e-05   2.7226680e-04   2.0353867e-04  -1.1071478e-04   5.1585437e-05  -7.8285229e-05   2.4470914e-05   9.7913791e-05   5.2991196e-05   3.0476196e-05   1.7194461e-06   3.1612391e-05   6.9843678e-05  -3.1560332e-05   9.0386646e-05   6.9792659e-05  -5.1345392e-05  -1.4030338e-04   1.1581466e-04   6.4535357e-06   2.6494221e-04   7.6852803e-04   1.5265183e-04   1.4127584e-04   6.6616129e-05   1.4791440e-04   1.1286089e-04  -6.4139225e-05   4.5935460e-05   9.0094305e-05   6.4381148e-04   3.0561647e-04   7.0660266e-05   8.5400461e-05   3.8505765e-05  -8.6005726e-05  -3.0307635e-04  -2.4863997e-05   9.3965291e-06  -2.2714940e-04  -5.5149903e-05  -1.0465542e-04  -2.8534843e-05  -1.1123710e-04
   1.3979712e-04   6.0623668e-05   3.2013846e-05   8.0519058e-05   8.1070735e-05   9.3740433e-05   1.1853962e-04   2.0468461e-04   2.7103533e-04  -1.1379318e-04   6.3713880e-05  -6.5289933e-05   1.9138597e-05   5.6205041e-05  -2.2758295e-05   2.3512084e-05  -8.4563981e-06   1.6789136e-05   1.4345947e-04  -1.8225144e-05   1.1042188e-04   6.5616667e-05  -9.0979658e-05  -1.2466515e-04  -1.4520442e-04  -1.9586581e-05   1.9334970e-04   5.9625175e-04   1.9831743e-04   4.5115456e-05   3.0510204e-05   1.3075878e-04  -2.1798433e-04  -4.4015287e-05  -7.7199962e-05  -2.3718310e-05   5.4234389e-04   3.3593530e-04   9.4996692e-05   7.0686030e-05   3.2656026e-05  -1.0369700e-04  -1.2190056e-04  -2.4680336e-04  -2.8548999e-05  -2.2066994e-04  -4.9972146e-05  -1.0718968e-04  -5.9755530e-05  -1.5947266e-04
   1.4242895e-04   5.9305105e-05   2.8563803e-05   5.8928516e-05   8.6480592e-05   1.2393252e-04   6.8172078e-05   2.6082282e-04   2.2361516e-04  -1.0701347e-04   5.4056600e-05  -6.2681116e-05  -1.2125181e-05   3.7505164e-05   8.2009290e-05   2.1646616e-05  -1.8813967e-05   5.1954032e-07   6.5307549e-06   1.1390046e-06   1.1619840e-04   2.0911852e-05  -7.0097376e-05  -1.1689612e-04   1.1956241e-04  -1.9932231e-05   1.6540679e-04   4.5430378e-04   1.5570060e-04   7.7562669e-05   7.1322742e-05   1.0350136e-04  -4.3747652e-05  -6.9962625e-05   5.8536873e-05  -1.1522277e-05   5.3525082e-04   2.9757922e-04   7.5777221e-05  -2.3955225e-05  -1.6500754e-04  -1.5680087e-04  -2.0716076e-04  -2.4396462e-05   3.5357520e-05  -1.1398370e-04  -6.6369015e-05  -9.5398122e-05  -9.1674803e-05  -1.9991906e-04
   1.4219817e-04   5.1138948e-05   3.3083506e-05   5.6824745e-05   1.0511835e-04   1.1443532e-04   9.5315845e-05   2.5664998e-04   1.7828342e-04  -1.0231262e-04   6.7421490e-05  -5.9227823e-05  -5.7721326e-07   5.6588164e-05   5.7930043e-05   5.4974244e-05   9.3992895e-07   1.6983480e-05   1.4674297e-04  -4.0619445e-05   1.2565280e-04   5.4879611e-06  -6.7063869e-05  -1.0545764e-04  -7.6285229e-05  -2.4913730e-05   1.5254343e-04   6.9106783e-04   1.9003052e-04   1.0709399e-04  -5.4351731e-05   1.4537001e-04  -1.3823538e-04   1.0696931e-04   5.8967387e-05  -7.8655154e-05   4.8523757e-04   2.6093167e-04   3.7106882e-05   6.6373294e-05   7.0240239e-05  -5.8648973e-05  -1.8086085e-04   3.5889505e-05  -9.0493741e-06  -4.2627827e-05  -6.7451765e-05  -1.6318637e-04  -1.1591442e-04  -1.6477390e-04
   1.4598336e-04   6.8308611e-05   3.2397620e-05   6.9678797e-05   1.0659166e-04   1.1390381e-04   1.3635520e-04   2.3318383e-04   1.4030792e-04  -1.1096810e-04   6.2492916e-05  -5.3901145e-05  -2.3214485e-05   2.2529259e-05   5.0754665e-05   2.5161949e-05  -1.5950437e-06  -3.8136175e-05   9.7356889e-05  -1.8056026e-05   1.4105636e-04   6.5594613e-05  -2.8332750e-05  -1.3006649e-04  -7.3777679e-05   4.8543200e-07   9.6203257e-05   5.4630789e-04   1.1567173e-04   6.7370311e-05  -2.0118479e-05   1.1640455e-04   1.3793293e-04   2.1746755e-05  -3.8454957e-05  -1.5983991e-05   4.4849925e-04   1.7500612e-04  -8.6339685e-05   7.9328704e-05   1.1109772e-04  -1.0856782e-04  -1.3138240e-04  -1.6687076e-05  -1.3800879e-04  -4.3852473e-05  -6.2514599e-05  -7.1812654e-05  -6.0676437e-05  -1.0433079e-04
   1.4165133e-04   5.2413670e-05   3.5569861e-05   4.4179927e-05   9.8047094e-05   1.5277324e-04   7.9064535e-05   2.1300979e-04   1.9290026e-04  -1.0353815e-04   6.2926105e-05  -6.1321785e-05   1.8553450e-05   8.8316454e-05   8.1107228e-06   3.6862271e-05   2.1632921e-05  -2.3183809e-05   6.3517233e-05  -1.3045861e-05   1.3064063e-04   1.2408173e-05  -7.8613426e-05  -8.1504841e-05   1.5744095e-06   1.7263901e-06   1.6999510e-04   6.1050733e-04   1.1343397e-04   1.1138942e-04   6.4074040e-05   6.5729386e-05  -1.5043734e-04   9.6721160e-05  -2.4780775e-05   5.4925142e-05   5.6778523e-04   1.5796455e-04   2.7806216e-04   5.0087732e-05   6.5566812e-05  -6.5658300e-05  -1.2279698e-04   1.9536317e-04  -1.0424898e-04  -4.3863245e-05  -2.4358573e-05  -1.1417326e-04  -6.1891777e-05  -1.3578784e-04
   1.5154883e-04   4.7166955e-05   2.9822468e-05   4.5695440e-05   9.4387869e-05   1.2278248e-04   1.0606813e-04   2.1851088e-04   1.9375770e-04  -1.0666027e-04   4.3590429e-05  -4.8096546e-05  -2.1192943e-06   7.5614473e-05   5.2234871e-05   3.5925506e-05   2.2590966e-05   3.5439050e-06   1.6104835e-04  -2.7713231e-05   1.4791211e-04   4.3961169e-05  -2.9679082e-05  -7.7640099e-05   2.1518307e-04  -1.9208441e-05   1.7043858e-04   6.1747682e-04   1.7924099e-04   1.0397525e-04   3.1827083e-05   1.5849872e-04   1.0136009e-04   1.1164338e-04   7.1837392e-05   6.7034671e-05   4.5989829e-04   2.0585298e-04   5.7497371e-05   8.6084343e-05  -3.0224668e-04  -6.0910905e-05   4.8495407e-05   1.2590442e-04  -1.3995028e-05   7.3361705e-05  -4.8197122e-05  -1.1184484e-04  -6.7235633e-05  -1.0775786e-04
   1.4609475e-04   4.7948881e-05   4.1758823e-05   5.4605989e-05   7.6253193e-05   1.5609751e-04   8.8272369e-05   2.6187100e-04   1.9581008e-04  -1.0258727e-04   4.1579216e-05  -5.4114284e-05   1.0296360e-05   7.1561299e-05   6.2560401e-05   4.2124306e-05   2.9106885e-05  -1.0182698e-07   1.1769956e-04  -2.6367399e-05   1.3703687e-04   6.7492074e-05  -5.4456723e-05  -1.0249524e-04   8.1111088e-05   2.5881200e-05   2.0652318e-04   6.2201131e-04   1.4807684e-04   9.0443376e-05   7.2042465e-05   6.6176690e-05   1.2677370e-04   7.3985037e-05   4.7815811e-06  -8.4606290e-05   4.9577828e-04   2.0053443e-04   6.0649018e-05   1.5547959e-04  -4.9375943e-05  -4.2218137e-05  -7.5383577e-05  -2.9352321e-05  -1.0532678e-04  -5.9074777e-05  -1.9347037e-05  -1.3499417e-04  -3.5178993e-05  -8.6954300e-05
   1.3748613e-04   3.2144391e-05   3.4347104e-05   3.1691376e-05   7.8236648e-05   1.0785795e-04   6.7099529e-05   2.7095745e-04   2.4577160e-04  -9.5193449e-05   3.8736991e-05  -4.8778631e-05   1.7762007e-06   1.0653278e-04   2.1734446e-05   6.9229849e-05   3.9785809e-05  -6.5422973e-06   6.3918858e-05  -7.2864682e-06   1.4225104e-04   3.9181341e-05  -7.3641939e-05  -8.5635635e-05  -4.8277070e-05   2.6124114e-06   1.1274696e-04   5.8995921e-04   1.4084209e-04   1.3544869e-04  -7.8927420e-05   1.5963269e-04  -4.5597480e-06  -1.4405340e-04   5.3532563e-05   6.4936437e-05   6.1406143e-04   2.3196952e-04   1.1509068e-04  -5.2579173e-05  -3.3002149e-04  -9.2560993e-05  -6.7065281e-05   2.0021558e-04  -8.4662854e-05  -9.0692905e-05  -2.4011088e-05  -5.8523296e-05  -3.5949270e-05  -1.8738108e-04
   1.6020046e-04   6.0248851e-05   4.0132596e-05   5.4161377e-05   8.9652844e-05   1.3185928e-04   1.2814706e-04   2.6483057e-04   1.7350947e-04  -8.7638509e-05   4.6220946e-05  -4.8052745e-05   3.1130562e-06   9.2284747e-05   6.5364344e-05   5.2811567e-05   2.1112201e-05   1.1484694e-05   7.7339144e-05  -1.9320803e-05   1.6039824e-04   7.9393227e-05  -9.5892465e-05  -1.0889856e-04   2.4317500e-05   2.9573801e-05   1.5940922e-04   4.4901986e-04   1.9731923e-04   6.9957838e-05   1.0090555e-04   1.6701902e-04   3.1671756e-05   7.0359863e-05  -1.4305828e-05   2.4165558e-05   4.3465718e-04   3.1202566e-04   1.7137686e-04   1.0995773e-05  -1.2712415e-04  -7.5447788e-05  -1.8278371e-04   2.6359266e-04  -1.9223869e-04  -2.1446802e-05  -1.9432040e-05  -6.5968663e-05  -4.2333846e-05  -1.1696448e-04
   1.2972578e-04   5.4451390e-05   2.6628555e-05   5.9487444e-05   8.1994731e-05   1.1775233e-04   7.2659524e-05   2.2817808e-04   1.5579084e-04  -8.2087943e-05   4.7317793e-05  -3.9588143e-05   3.3825247e-05   5.8364603e-05   6.7362118e-05   3.8014074e-05   1.7586781e-05  -1.5814179e-05   7.3999588e-05  -1.4297681e-05   1.5933029e-04   6.1130304e-05  -8.3680956e-05  -8.1476435e-05   1.1171011e-04  -7.4853938e-06   1.8996267e-04   4.5107404e-04   1.8824311e-04   6.4570850e-05   8.0129590e-05   1.3870795e-04  -4.7096317e-05   3.8740200e-05  -3.6603822e-05  -5.7961886e-05   4.5493487e-04   3.0190215e-04   8.9539266e-05  -4.5696699e-05  -3.2087820e-04  -9.8149438e-05  -4.1885716e-05   3.0540005e-07  -1.5695156e-05  -4.4439963e-05  -2.8211394e-05  -1.4684140e-04  -8.2233470e-05  -1.3811619e-04
   1.4005663e-04   4.8609050e-05   2.3163406e-05   5.0675437e-05   8.4520216e-05   1.2808491e-04   7.7464276e-05   2.1340176e-04   2.1034124e-04  -7.4310927e-05   5.1602507e-05  -3.5537199e-05   6.7095539e-06   1.0689107e-04   6.5805179e-05   4.3956727e-05   2.1947351e-05  -8.1261524e-06   7.8705882e-05  -1.1419525e-05   1.6294332e-04   1.7523085e-05  -6.1530736e-05  -9.5152252e-05  -6.9588401e-05  -7.4317131e-06   1.4337221e-04   6.3938420e-04   1.5528136e-04   1.1792751e-04   1.4056977e-05   1.6957935e-04  -1.7756251e-04   3.0068784e-05   3.0107432e-05  -2.6857850e-05   5.9071428e-04   2.9400206e-04   9.9287645e-05  -5.3025145e-05  -2.9480044e-04  -8.6648237e-05  -1.9682817e-04   1.1413577e-04  -1.4218924e-04  -7.6488126e-05  -2.2345555e-05  -8.3917046e-05  -4.0003251e-05  -1.2204404e-04
   1.5085588e-04   7.1204020e-05   3.3353706e-05   5.6760724e-05   7.4354008e-05   1.1882247e-04   9.4041665e-05   2.4055086e-04   1.9983585e-04  -7.4454882e-05   7.7023789e-05  -3.1578864e-05   3.1413165e-05   1.1207441e-04   3.5306119e-05   5.6932819e-05   8.9640871e-06  -3.4099287e-06   7.3097595e-05  -2.3372499e-05   1.8371463e-04   5.8400576e-05  -8.5692023e-05  -9.2563692e-05  -3.7082296e-05  -1.7069880e-05   1.6507234e-04   4.1356822e-04   1.8003370e-04   4.2134234e-05   8.5442029e-05   1.7610556e-04   1.4890233e-05  -3.9515053e-06   6.5612665e-05   3.4200089e-05   4.2570318e-04   3.1254918e-04  -5.6807763e-05   1.1257691e-04   3.9666025e-05  -7.9401820e-05  -5.2413474e-05   3.1405281e-05  -2.5579069e-05  -1.3558698e-04  -5.0382467e-05  -9.4005743e-05  -5.2360363e-05  -2.1824066e-04
   1.2041967e-04   5.6898160e-05   2.3795357e-05   5.1339674e-05   7.3140436e-05   8.7658889e-05   7.8775920e-05   2.4174602e-04   1.0716390e-04  -7.5982593e-05   5.3454391e-05  -2.8280232e-05   1.1228530e-05   6.9117028e-05   7.9808029e-05   4.5013865e-05   1.6475222e-05  -1.5280753e-05   2.2256128e-05  -2.1049062e-05   1.8505502e-04   7.4790303e-05  -1.2284865e-04  -5.5779499e-05  -5.2890719e-05   6.4328683e-06   1.4463016e-04   4.2344956e-04   1.5157367e-04   5.2411895e-05   1.3608548e-04   9.5695948e-05  -1.7056931e-04   7.9874604e-05   6.0104416e-05  -1.0826749e-05   2.8171871e-04   2.8919143e-04   8.1588187e-05  -1.0479824e-04  -8.4676303e-06  -3.6173184e-05  -7.0541755e-05  -4.1925516e-05  -3.0308636e-05  -1.8526035e-04  -6.6111361e-06  -9.8885837e-05  -6.6227847e-05  -1.2467823e-04
   1.0541768e-04   4.9261620e-05   2.4355741e-05   4.8249120e-05   6.8323163e-05   1.4318798e-04   5.3484913e-05   2.0576976e-04   8.3757819e-05  -6.7477158e-05   7.0686197e-05  -3.5105259e-05   3.3969827e-05   5.4967542e-05   7.3006799e-05   4.1193780e-05   1.0898964e-05  -2.0665520e-05  -5.4575547e-05  -1.5111800e-06   1.8472105e-04   3.3375742e-05  -9.8922763e-05  -3.0544372e-05   5.4006417e-05  -1.1529945e-05   1.8390318e-04   4.0712624e-04   2.0534113e-04   9.6918760e-05  -2.3184073e-05   1.4782319e-04   1.7074114e-04   3.5263263e-05   9.8876815e-05  -5.3357735e-06   4.6069574e-04   2.8097443e-04  -9.9362460e-06   2.4346727e-07   8.6712054e-05  -1.4152432e-04  -2.4751539e-04  -7.2315466e-05   4.2204470e-06   2.4154928e-05  -2.7633894e-05  -1.2869427e-04  -6.6643704e-05  -1.3853575e-04
   1.1475911e-04   7.1572598e-05   3.1793097e-05   5.0624396e-05   6.8055117e-05   1.6480735e-04   8.7872737e-05   2.9548546e-04   2.4989250e-04  -6.2818166e-05   6.8383895e-05  -2.0120498e-05  -5.3262797e-06   6.9808957e-05   4.9056940e-05   2.7886588e-05   1.1265091e-05  -5.1543830e-05  -7.3332951e-05  -2.4913177e-05   1.9759584e-04   6.0507889e-05   3.3035929e-05  -8.8580680e-05  -9.8797034e-05  -1.0905618e-05   1.3381173e-04   4.1723141e-04   8.7206739e-05   4.6927042e-05   7.2206618e-05   5.2550105e-05   7.5386837e-05   9.5641080e-05   6.3238360e-05   2.4279841e-05   2.8138515e-04   2.7615955e-04  -2.6112468e-05   9.1021036e-05  -4.5781088e-04  -1.3399860e-04  -1.0052331e-04   1.3557043e-04   5.2001276e-05   1.0861537e-04  -4.7883754e-05  -8.4768799e-05  -5.9874372e-05  -2.0456564e-04
   9.2757087e-05   6.3307758e-05   2.3552529e-05   4.5432436e-05   4.5760647e-05   1.2582575e-04   4.9762632e-05   1.9687822e-04   1.5631648e-04  -7.1134491e-05   7.9019803e-05  -2.1045536e-05   6.2650888e-06   5.4657492e-05   5.1680596e-05   2.1930689e-05   5.4417078e-06  -5.4524622e-05   3.5536566e-05  -3.4892804e-05   2.0146054e-04   4.5639201e-05  -1.0508423e-04  -8.5012376e-05   2.1425552e-04   3.2323485e-05   1.0689218e-04   2.5990373e-04   1.5272880e-04   4.0469564e-05   3.2780681e-05   3.1417105e-05   8.3270046e-05   5.0504244e-05   3.4875600e-05   7.3313655e-05   2.8096841e-04   2.1451224e-04  -1.0328640e-04   1.5552632e-04  -5.4596003e-05  -9.3625727e-05  -1.4943280e-04   1.1302535e-04  -7.5512893e-05  -2.7710357e-04  -4.2769992e-05  -1.0041585e-04  -5.9770326e-05  -1.3967005e-04
   8.4070110e-05   5.2366900e-05   1.9177201e-05   3.8306956e-05   5.7334975e-05   8.9761968e-05   5.8912974e-05   2.1274106e-04   1.4897506e-04  -6.2362335e-05   6.1244165e-05  -2.2557742e-05   2.8414132e-05   6.4392196e-05   7.0535484e-06   1.5850046e-05   9.7154134e-07  -7.4075353e-05   6.2803665e-05  -2.1539110e-05   2.0424425e-04   4.0647428e-05   1.2610670e-05  -6.8784560e-05   1.6069405e-05   1.3250288e-05   1.5802756e-04   3.2037325e-04   1.8157416e-04   7.4882541e-05  -1.4064060e-05   1.0182703e-04  -5.5147962e-07   1.0998787e-04   2.2790573e-05   6.4435924e-05   4.3000351e-04   1.9310901e-04  -7.7773300e-05   7.4516021e-05   2.6620261e-04  -5.3373537e-05   7.8527853e-05  -1.1568062e-05  -1.3263407e-05   1.7600133e-04  -3.9413313e-05  -1.9235316e-05  -7.2022762e-05  -1.9356153e-04
   1.0261626e-04   7.4261727e-05   2.7867984e-05   4.3707951e-05   5.2150870e-05   9.2681992e-05   5.4368193e-05   1.9510646e-04   2.0250745e-04  -5.5803619e-05   7.3882322e-05  -9.0260974e-06   1.5542993e-05   3.2556996e-05   8.8104389e-05   2.2518032e-05  -5.8049250e-06  -7.0695642e-05   4.1851981e-06  -4.7470792e-05   2.1515699e-04   5.1342202e-05  -3.2691234e-05  -6.3754356e-05   1.3174526e-04  -3.2918306e-05   7.6708515e-05   2.2609856e-04   1.1179120e-04   5.2594529e-05   1.5752692e-05   9.3963965e-05   8.1478451e-05   9.6991562e-06   3.0565967e-05   4.8290982e-05   1.9668034e-04   2.0978154e-04   1.6951733e-04   2.0245249e-04   2.3361297e-04  -8.0652651e-05   5.1113875e-05   1.4340882e-04  -1.2659879e-05  -1.1657974e-04  -3.1691899e-05  -9.2741720e-05  -5.5175482e-05  -2.3677142e-04
   7.2682400e-05   6.1248604e-05   1.1132295e-05   4.0009618e-05   2.7767099e-05   5.8879483e-05   2.1159833e-05   2.1401625e-04   1.2652724e-04  -6.3294901e-05   7.2442788e-05  -1.2678130e-05   2.8830904e-05   6.6555840e-05  -7.3987703e-06   2.6347956e-05   3.6089750e-06  -4.5043984e-05   6.4306309e-06  -3.4694160e-05   1.9882347e-04   4.4338238e-05  -6.6589797e-05  -4.9323520e-05   1.0828985e-04   4.7744299e-05   4.1178180e-05   4.1467662e-04   5.5508659e-05   5.6682511e-05  -2.4962543e-07   4.3058379e-05  -1.1133804e-04   1.8374107e-06   2.5397519e-05   5.7700604e-06   2.5402449e-04   1.4687114e-04   3.3825087e-05  -6.0172744e-05  -8.1351973e-05  -1.0262772e-05   6.2333071e-05  -1.0510044e-04  -4.0386749e-06  -3.5361729e-05  -3.0239606e-05  -1.0374338e-04  -3.2813394e-05  -1.1904251e-04
   6.6977474e-05   4.3495860e-05   1.9536648e-05   1.5604001e-05   4.3976575e-05   5.4640288e-05   6.7312671e-06   2.2980051e-04   1.7378427e-04  -5.9771617e-05   6.1508043e-05   1.7252927e-06   3.8896986e-05   6.7028959e-05  -1.9865362e-05   4.0479350e-05   1.7554674e-05  -2.4200714e-05   6.7032706e-05  -7.1106449e-05   2.0044403e-04   4.2076954e-05   7.5582420e-08  -6.4095068e-05   3.8540853e-05  -3.2376010e-06   1.3931825e-04   4.1147001e-04   9.4103845e-05   1.2586679e-04   5.2589341e-05   4.5867626e-05   5.5478544e-05   1.4493729e-05   7.1243162e-06   1.0774078e-05   4.6032621e-04   1.0559673e-04   6.5871733e-05   8.1842976e-05   2.6478549e-04  -5.7998259e-06   2.5558549e-05  -4.6572990e-05  -3.4159470e-06  -1.8089490e-04  -5.3270676e-05  -1.4249473e-04  -3.0709634e-05  -1.5801849e-04
   7.8810546e-05   4.6242178e-05   1.9765339e-05   1.7805140e-05   4.5194342e-05   8.7986489e-05   4.9141046e-05   1.6381571e-04   1.4618000e-04  -4.9948394e-05   4.8974653e-05  -1.3597987e-05   2.6155420e-05   6.1642677e-05   7.6437653e-05   3.7902108e-05   2.1296126e-05  -4.1625179e-05  -8.6036358e-05  -3.7788777e-05   1.9296742e-04   4.4723583e-05  -6.6147222e-05  -5.0504612e-05  -7.7514196e-05   4.7655735e-06   4.1352811e-05   1.3719758e-04   6.4157663e-05   5.3482217e-05   1.3852760e-04   1.8500095e-05   1.9255833e-04   5.8471553e-05   6.1008890e-05   7.0183065e-05   1.8660660e-04   1.0835889e-04   1.9568164e-04   9.5827607e-05   2.0969147e-04  -2.6678861e-05  -5.2521224e-05   1.1777732e-04  -2.0642190e-05   3.1567539e-05  -2.8591425e-05  -9.4762960e-05  -8.6338572e-05  -1.6176132e-04
   5.0239563e-05   3.3715416e-05   2.1810209e-05   1.4437363e-05   1.6605358e-05   7.7686738e-05   1.3647302e-05   1.5391906e-04   7.0676935e-05  -5.2658488e-05   4.0664192e-05  -9.9960853e-06   1.4619881e-05   5.9538692e-05   2.0738446e-05   4.5050921e-05   2.5192188e-05  -2.5669782e-05  -7.5210948e-05  -4.8148497e-05   1.8406913e-04   4.7209185e-05  -6.1703024e-05  -7.4573043e-05   2.8416319e-04   1.6927315e-05   2.4368186e-04   2.8086099e-04   8.5324828e-05   7.5382275e-05   2.6451646e-05   5.9539409e-05   8.3323721e-06   1.3752618e-04  -3.2713397e-05   8.5440763e-05   2.5567383e-04   1.1431476e-04   1.9398661e-04   1.4243506e-04   1.0008468e-04  -4.3968408e-05   1.2710787e-04  -1.0172913e-04  -1.4318836e-04  -1.2279142e-04  -5.2843938e-05  -9.1022433e-05  -4.3216816e-05  -1.0696617e-04
   5.5119697e-05   2.9188119e-05   1.6685495e-05   1.6859587e-05   4.7194881e-05   8.8974513e-05   5.4520128e-06   2.0352137e-04   1.7758396e-04  -5.5771372e-05   4.3513162e-05  -1.6113555e-06  -2.9989034e-05   1.0104913e-04   5.1633859e-05   2.9255532e-05   9.6929316e-06  -2.2671235e-05  -7.7224504e-05  -5.8723806e-05   2.0396859e-04   5.0180013e-05  -4.8656475e-05  -3.9155893e-06   3.8391998e-05   1.0932386e-05   1.0229271e-04   4.8747275e-04   1.3906018e-04   7.6275297e-05   1.3608050e-04   7.2221024e-05   2.2950966e-04   3.2744214e-05  -6.5756885e-06   1.3622937e-04   2.4320917e-04   1.4968227e-04  -1.4601600e-06  -5.7173278e-05  -1.3585764e-04  -1.8238376e-05  -1.6483649e-04   1.2795269e-04  -1.3229657e-04  -1.8995734e-04  -4.4393761e-05  -1.4514659e-04  -2.9936558e-05  -1.8020245e-04
   6.0367856e-05   5.4076594e-05   3.1788477e-05   2.5213114e-05   4.0753250e-05   3.8791746e-05   2.6275480e-05   1.1351870e-04   2.1798021e-04  -4.4703371e-05   5.2396765e-05   3.2034893e-06  -1.1034116e-05   2.5355543e-05  -1.3107215e-05   2.3226194e-05   1.5032864e-05  -3.2235686e-05  -4.6943966e-05  -5.9822356e-05   2.0094322e-04   1.5256024e-05  -1.5636178e-05  -9.7152413e-05   7.3674339e-05   2.7412456e-05   7.7767538e-05   2.4594206e-04   6.1334431e-05   1.4333267e-05   3.1460506e-05   1.2076656e-04  -2.1019780e-04  -2.6832882e-05   1.1505538e-04   4.6406709e-05   1.1126440e-04   1.6697681e-04  -7.9636782e-05  -3.5559846e-05  -1.1536120e-04  -4.3805271e-06  -1.4816732e-04  -2.1386312e-04  -6.1895975e-05   9.8800636e-05  -6.3444022e-05  -1.1215852e-04  -1.0264041e-04  -2.1166723e-04
   4.7847014e-05   4.1957017e-05   1.8570203e-05   3.9404560e-05   1.2540214e-05   5.5465694e-05  -1.6857359e-05   1.6474785e-04   9.1808106e-05  -4.7881847e-05   5.7566736e-05   2.0188334e-06  -8.3120431e-06   6.5423250e-05  -3.0025139e-06   2.3855684e-05   2.0664356e-05  -4.8153208e-05  -6.8875197e-05  -4.0725583e-05   2.0104561e-04   1.0866625e-05  -1.6205244e-05  -1.1234526e-05   7.6360593e-05   4.3905129e-05   1.4298690e-04   2.5682568e-04   1.1450778e-04   7.8428442e-05   7.0957351e-05   9.8464865e-05  -1.4989871e-05   1.0402773e-04  -1.1690359e-05   3.5437446e-05   2.9471220e-04   1.9761593e-04   4.9336231e-05  -6.8292179e-06  -1.1149209e-04  -5.5833465e-05  -4.0472260e-05   8.0118909e-05  -9.7578457e-05   6.6959046e-06  -3.3612105e-05  -5.1330742e-05  -8.1614126e-05  -1.8524849e-04
   6.8563284e-05   4.9204042e-05   2.0164973e-05   3.6153673e-05   4.5047433e-05   8.4877785e-05   2.7096065e-05   2.1760252e-04   9.3125054e-05  -3.5117569e-05   3.8474802e-05   1.6303198e-05  -1.4486631e-05   6.7403009e-05   5.6511413e-05   2.2240341e-05  -2.1671427e-05  -2.3425411e-05  -6.0807911e-06  -7.6596996e-05   2.0989636e-04   2.5212481e-05  -5.0339786e-05  -3.5017583e-05   1.0629163e-04   2.0718073e-05   1.3354566e-04   2.8166379e-04   8.3846026e-05   6.4341017e-05   3.2985037e-05   7.9444842e-05  -5.5709799e-05   3.2213127e-05   4.7482765e-05   2.7673992e-05   2.7467599e-04   2.3522909e-04   1.7703594e-05  -1.0174810e-05  -2.2214492e-04  -1.0299158e-04  -4.1021565e-05   2.5069896e-05   5.9427393e-06  -1.1984602e-04  -2.3108543e-05  -1.8615622e-04  -8.6407301e-05  -1.7008539e-04
   8.6514454e-05   7.6311611e-05   2.5864643e-05   5.3470401e-05   3.7551410e-05   5.7984289e-05   1.8111674e-06   2.1297690e-04   1.6627324e-04  -3.5271696e-05   6.9287809e-05   2.1936634e-05  -2.7659523e-06   3.0652387e-05  -7.9589672e-06   2.0347765e-05  -9.1073434e-06  -6.1407685e-05  -5.8607955e-05  -5.3108721e-05   2.0978659e-04   2.4784888e-05  -7.7199302e-06  -5.9294478e-05  -1.3670766e-04   2.5666645e-06  -5.5899050e-06   4.1420983e-05   8.2517821e-05   1.3809617e-05   3.3379754e-05   6.4575273e-05  -4.5759927e-05  -8.8105822e-05   7.8834355e-06  -1.2691339e-05   1.1355495e-04   2.2974066e-04   1.8196499e-05  -3.3409884e-05   2.2322864e-04  -7.7637313e-05  -2.0234137e-04  -1.3877365e-05  -6.9951489e-06  -1.5370142e-04  -4.8479778e-05  -1.5472119e-04  -8.2344028e-05  -2.1879065e-04
   6.2498926e-05   6.4418768e-05   1.7688513e-05   4.6623125e-05   1.2566546e-05   5.7953090e-05  -1.9101360e-06   1.0124225e-04   1.0216593e-04  -3.4470817e-05   3.8082599e-05   1.7006045e-05   1.9813779e-05   4.3494634e-05  -6.3296638e-06   3.9949100e-06  -2.0631891e-05  -5.8563161e-05  -1.0479132e-04  -3.0944764e-05   2.0945662e-04  -2.5494515e-05  -4.2928390e-05  -5.4862881e-05   2.2369160e-04   1.8453189e-06   1.5431982e-04   1.6157645e-04   1.1757698e-04   3.5949848e-05  -1.2648310e-05   6.9977985e-05  -9.2465460e-05   3.6233319e-05  -1.6133967e-05  -4.2293363e-05   3.0373770e-04   2.2244245e-04  -3.3370190e-05   5.3868425e-05   1.1064899e-04  -7.9193611e-05  -1.4714130e-04  -2.8008728e-05  -1.6069162e-04   4.5582696e-05  -2.5198458e-05  -9.9279947e-05  -8.7147433e-05  -1.9764809e-04
   6.1442362e-05   5.8535228e-05   1.9520876e-05   3.6404173e-05   3.9767823e-05   6.0152470e-05  -9.6848034e-06   1.8992669e-04   1.5863798e-04  -2.8023869e-05   5.2814739e-05   2.3657847e-05   3.1918797e-05   8.6883796e-05  -6.6268847e-05   4.0006023e-05  -1.5012301e-05  -4.5156452e-05  -1.7077804e-05  -5.0961004e-05   2.0860510e-04  -5.0293456e-05  -9.8882490e-05  -4.7635942e-05   6.0212792e-06  -2.1610982e-05   1.0695728e-04   3.4657851e-04   1.4270721e-04   5.8292411e-05   2.9243074e-06   6.6270804e-05   8.7083958e-05  -1.3028580e-04   7.2512928e-05   3.8940893e-06   3.5756614e-04   2.1592424e-04   2.8151380e-05  -2.2580036e-05  -2.8726767e-04  -9.1109665e-05  -1.1384258e-04   2.2386726e-04  -4.3620046e-05  -6.4768370e-05  -5.0132101e-05  -9.0894195e-05  -4.6334186e-05  -2.2881896e-04
   7.9019097e-05   7.6732969e-05   2.8118962e-05   3.6443915e-05   3.2781692e-05   4.9837785e-05   4.5969778e-06   2.1535868e-04   1.1409000e-04  -3.4313838e-05   5.3188694e-05   2.0063917e-05  -1.2347396e-05   5.8948601e-05   2.6374564e-05   2.6800522e-05   8.9144885e-07  -3.9011829e-05   1.7650178e-05  -2.1860889e-05   2.0975900e-04   2.0565126e-06  -3.6765712e-05  -2.3957005e-05  -3.8294005e-05  -4.4052813e-05   1.0806981e-04   1.8005230e-04   8.1705555e-05  -1.1252749e-05  -1.8490719e-05   7.4766394e-05  -7.7328870e-05  -6.0645951e-05  -3.6545960e-05   7.7016513e-05   1.6831218e-04   1.8421160e-04  -3.2988148e-05   1.4882201e-05  -8.0659884e-05  -6.5742257e-05  -1.1375583e-04  -3.1043441e-05  -1.3841032e-04  -3.1881395e-05  -3.2352749e-05  -3.5752113e-05  -7.9702280e-05  -2.0211282e-04
   6.8312707e-05   5.5317771e-05   1.7223703e-05   2.1702252e-05   3.3116390e-05   9.4967465e-05  -1.6761325e-05   4.9211121e-05   1.0416378e-04  -2.4877552e-05   4.4947337e-05   2.2815739e-05   2.6956699e-05   5.3423228e-05   2.0093095e-05   1.1961221e-05  -1.1874322e-05  -5.1074963e-05  -1.1237414e-04  -3.5938283e-05   1.9964408e-04  -2.0505027e-05  -8.8347733e-05  -4.7500202e-05   4.4085271e-05  -2.8647302e-05   1.7645530e-04   1.7710423e-04   6.7777291e-05   7.8537778e-06  -4.4574132e-05   7.5646727e-05   1.3300865e-04   2.4639738e-05   1.6479547e-05   1.9193496e-05   1.1158695e-04   1.8709475e-04   1.6643167e-04   1.3247950e-05   1.5353161e-04  -6.0861090e-05   4.7023691e-06   2.1324778e-04  -1.1462371e-04  -5.0255228e-05  -3.7424681e-05  -7.5956421e-05  -9.9315948e-05  -1.9556344e-04
   5.2951003e-05   5.2873609e-05   4.6717246e-06   1.9286528e-05   3.9131763e-05   1.0672888e-04   1.2529410e-05   1.0413010e-04   8.1349266e-05  -2.4588444e-05   3.2712625e-05   2.6853959e-05   2.8277113e-06   4.6916761e-05  -4.2368742e-05   2.7367312e-05   2.1243914e-05  -3.3874107e-06   3.5442859e-05  -5.7368659e-05   1.9979927e-04  -7.3107898e-05  -7.5245152e-06  -4.5321765e-05   5.6086657e-05   2.3329059e-05   1.0982570e-04   3.1423848e-04   1.2681259e-04   4.3555083e-05   5.2598742e-05   1.0619184e-04  -2.0938081e-04   7.1076254e-05   2.8618813e-05   1.3308201e-04   1.1284448e-04   2.2735825e-04   1.8084898e-05   3.3226959e-05   5.8438651e-05  -4.6637622e-05  -4.8952843e-05   4.6561518e-06  -1.1083378e-04  -1.5572454e-04  -6.2285188e-05  -8.7971413e-05  -8.5411448e-05  -1.7290517e-04
   8.4366409e-05   7.2845833e-05   1.8352943e-05   3.2950185e-05   2.9183962e-05   8.2113977e-05   3.9044149e-05   1.5525914e-04   5.2156556e-05  -1.3895457e-05   4.5775978e-05   3.6524332e-05   1.1104635e-05   2.7094558e-05   4.5605335e-05   1.5172839e-05   1.0297694e-06  -1.3358388e-05  -1.9053636e-05  -3.8359973e-05   2.0107705e-04  -5.9488910e-05  -5.2821761e-05  -2.9561150e-05   9.1204930e-07   4.2318502e-06   1.1879565e-04   3.0276751e-05   6.7552188e-05   2.5624199e-06  -3.3097444e-05   1.1685342e-04   4.6393452e-05  -2.7598287e-05   5.7802972e-05  -1.2277435e-04   2.4816048e-04   2.7914616e-04   6.1590777e-05   9.7669843e-05  -9.4967574e-05  -6.6277062e-05  -1.7734246e-04  -3.0163592e-06  -8.0525628e-05  -1.1364864e-05  -5.6150417e-05  -4.1828182e-05  -5.6272009e-05  -2.2104394e-04
   6.2958912e-05   6.2406412e-05   1.1557569e-05   3.1955238e-05   4.0759940e-05   3.7093014e-05   5.3851680e-05   1.1445472e-04   2.2781720e-05  -1.7023460e-05   3.1807544e-05   3.6967849e-05   8.4541798e-06   2.3588129e-05   3.3269680e-05   2.5998886e-05   2.5531835e-05  -4.3606533e-06  -7.5463257e-05  -3.8344668e-05   2.0040861e-04  -9.3740069e-05  -8.3119688e-05  -6.7466881e-06   1.1279823e-04  -8.3128504e-07   1.5414659e-04   1.3984976e-04   1.2644219e-04   1.4963808e-05   5.6072877e-05   1.8910113e-04  -5.4123204e-05   6.4706728e-05  -6.7452871e-05  -2.2738152e-05   2.1512178e-04   2.7902026e-04   6.8189816e-05   7.5482101e-05   1.2818610e-04  -3.8682425e-05  -2.2789651e-05   3.1374599e-05  -7.8961770e-05   3.9627485e-06  -1.5647667e-05  -4.2408563e-05  -6.6317101e-05  -1.5019903e-04
   6.7796049e-05   5.7565234e-05   6.7835704e-06   4.2877040e-05   3.8249142e-05   6.1256658e-05   2.4001243e-05   1.1583093e-04   4.6416390e-05  -1.4551020e-05   4.3163778e-05   4.9911578e-05   9.4303741e-06   6.7743633e-05   1.2119840e-07   3.9295403e-05  -6.7297797e-06   1.5213391e-05   4.1559892e-06  -5.3054500e-05   2.0898139e-04  -4.7681991e-05  -7.6912074e-05  -4.3148550e-05   8.8567031e-05  -8.9905079e-06   1.1365041e-04   3.4057320e-04   1.6347402e-04   2.1619206e-05  -1.5663969e-05   1.5900953e-04  -3.9009617e-05   3.4486460e-05  -1.4243749e-04   6.6082866e-05   1.6109088e-04   3.1208678e-04  -8.4366759e-05   1.7112510e-05  -2.6651855e-05  -1.6279652e-04  -6.7689034e-05  -3.2348864e-05  -1.4706957e-04  -1.0463122e-04  -4.4291457e-05  -7.0051989e-05  -4.9062124e-05  -2.1225266e-04
   1.1242418e-04   8.3270614e-05   1.9771078e-05   4.8600647e-05   4.8469352e-05   6.3522966e-05   7.8332960e-05   1.5506327e-04   1.4201303e-04  -1.9166109e-06   4.5413010e-05   4.5498502e-05   6.5840736e-06   3.7490245e-05   3.7446025e-05   1.4735678e-05  -5.9708202e-07  -3.2519110e-05  -1.5484680e-05  -3.0640826e-05   2.1269479e-04  -2.5687894e-05  -1.5005433e-04  -1.4642660e-05  -7.9507408e-05  -4.0007130e-06   8.8881257e-05   1.0596393e-04   8.7502915e-05  -4.2684336e-05   4.9460225e-05   1.2216659e-04  -2.8243205e-05   5.0334661e-06  -3.3105196e-05   3.1523279e-05   1.2009335e-04   3.6345987e-04   9.6141208e-05  -5.9256345e-05   1.0839601e-04  -9.2605245e-05  -2.0978460e-04  -1.2499244e-04  -5.8307367e-05  -2.9001878e-05  -4.0673291e-05  -1.7570223e-04  -7.1992348e-05  -1.6195382e-04
   8.2193284e-05   7.6667515e-05   9.0061903e-06   4.5079014e-05   2.4729907e-05   4.1120467e-05   1.8308845e-05   1.0517045e-04   8.5368374e-05  -1.0726404e-05   5.3247320e-05   4.1133866e-05   1.1323950e-05   4.4215896e-05  -1.8820914e-05   1.6042952e-05  -1.0303732e-05  -1.9443098e-05  -6.0872480e-05  -2.3546741e-05   2.0852018e-04  -7.1991111e-05  -5.3582953e-05  -2.0793736e-05   1.5607022e-04  -4.4688026e-05   1.1434791e-04   9.0194022e-05   1.2015877e-04   2.1143102e-05  -9.7460135e-05   1.6167416e-04  -1.9781542e-04  -7.1441464e-05  -4.6456387e-07   1.2845729e-04   1.8470637e-04   2.9910350e-04  -3.7425159e-06   6.5694228e-05  -3.8720781e-04  -1.1364942e-04  -1.6080411e-04   7.0041802e-05   2.8820610e-05  -1.1532166e-04  -4.4006934e-05  -1.3246626e-04  -6.8871173e-05  -2.2306868e-04
   9.2613052e-05   5.7419296e-05   7.6969727e-06   4.5068504e-05   5.6054785e-05   6.4299908e-05   2.9041994e-05   1.0552908e-04   1.1136782e-04   4.4200588e-06   5.2434261e-05   5.7209778e-05   4.7447335e-05   4.0015784e-05   9.6803247e-05   3.3088672e-05  -8.7193539e-06  -1.8453944e-05  -4.5921286e-05  -5.0546023e-05   2.1807749e-04  -3.7688842e-05  -5.9890033e-05  -2.9078292e-05  -5.9416026e-05   1.9342144e-06   1.5884916e-04   2.3399034e-04   1.1698836e-04   4.1582018e-05   1.0506305e-04   1.1574490e-04  -1.2154949e-04  -8.9534537e-05  -8.6508508e-06   1.1270837e-04   1.9854143e-04   3.0368372e-04   7.8715944e-05  -5.6074667e-05  -2.4916861e-05  -7.2250841e-05  -6.4894957e-05  -3.5972270e-04  -1.3556440e-05  -1.6548413e-04  -5.9074260e-05  -1.3703757e-04  -7.0352762e-05  -1.8785635e-04
   1.2430875e-04   8.4042789e-05   1.8595652e-05   6.6127170e-05   3.8939583e-05   7.8252961e-05   4.8499267e-05   6.3910629e-05   1.8135537e-04  -7.8926087e-06   6.2537758e-05   5.9283706e-05  -9.6376443e-06   5.3327865e-05  -2.8450226e-05   6.6548646e-06  -1.0298980e-05  -3.3162665e-05  -1.0946745e-04  -1.5192179e-05   2.3056014e-04   1.1102234e-05  -1.0619149e-04  -1.9014945e-07   6.7876979e-05  -3.2375930e-05   1.1871759e-04   4.4317326e-06   1.0908341e-04  -2.5106430e-05   9.1882197e-05   1.0682544e-04  -2.5777935e-04   2.7648801e-05  -1.9490955e-05   8.5011627e-05   4.8974158e-05   3.1827495e-04  -2.5910284e-05   9.0838803e-05   6.8315618e-05  -3.8020466e-05  -7.6813361e-05  -1.7551628e-04  -4.8591610e-05  -2.4474804e-05  -5.2732063e-05  -6.0316299e-05  -6.7398068e-05  -2.1261224e-04
   9.0094174e-05   7.8987592e-05   1.4722789e-05   4.8500860e-05   3.7761001e-05   1.3478505e-04   4.3229840e-05   1.0173517e-04   9.1334499e-05  -6.0501253e-07   6.4429114e-05   5.5876400e-05   4.0860872e-05   6.0909453e-05   3.6224401e-06   3.8294020e-06  -3.6285328e-06  -4.8271166e-05  -7.5080439e-05  -1.6238844e-05   2.2426574e-04  -2.4610736e-05  -6.5056006e-06  -1.6101247e-05  -1.8466578e-04  -6.1652376e-05   8.0899517e-05   4.0621017e-05   7.5357755e-05  -2.6607065e-06  -2.3703742e-05   1.1374948e-04  -1.0212947e-04  -6.8394074e-05   1.6121625e-05   4.8832102e-05   7.8364923e-05   2.6665765e-04  -5.7382542e-05  -3.7585531e-05   4.0442021e-05  -8.5672502e-05   1.2709860e-05  -7.3853473e-05  -7.8857141e-05  -1.0704377e-04  -6.9375528e-05  -8.7586472e-05  -5.4667649e-05  -1.5949762e-04
   9.7935546e-05   7.0580601e-05   9.4023344e-06   4.5834739e-05   6.4738677e-05   1.1312206e-04   3.4590972e-05   1.5570002e-04   1.0523656e-04   9.2681694e-06   5.6433320e-05   6.1230501e-05   1.4181913e-05   6.8480891e-05   4.0278224e-05   3.0075244e-05  -1.4388590e-06  -2.6375494e-05   8.4721862e-05  -1.6032129e-05   2.2402235e-04  -8.6603477e-06  -5.8101883e-05  -4.5424616e-07  -1.2492730e-04  -2.4281384e-05   1.0449420e-04   2.7681608e-04   9.8914163e-05   6.0733531e-05   5.2253392e-05   7.2329909e-05  -7.8973855e-05  -1.7496626e-05   8.7134031e-06   1.0706993e-04   2.8740402e-04   2.2149317e-04  -1.7729185e-04  -1.9557261e-05   2.9755582e-04  -1.4709235e-04  -2.4756800e-05   1.3564869e-04  -1.0716956e-04  -1.7430450e-05  -5.7803562e-05  -7.5346703e-05  -3.4097116e-05  -9.5904339e-05
   1.0666702e-04   8.2256331e-05   2.3945864e-05   4.3016735e-05   6.0271635e-05   1.0852244e-04   5.5514858e-05   1.5166256e-04   1.1425965e-04   3.7746254e-06   5.2647210e-05   6.0094360e-05   3.9308241e-05   2.5633490e-05   4.7672827e-05   2.9231323e-05   2.6842361e-05  -4.4895532e-05   1.2388086e-04  -1.8212713e-06   2.2608966e-04  -4.6723358e-06  -4.3876025e-05  -1.3981737e-06   1.3397977e-05   8.5536103e-06   6.9823967e-05   6.1998704e-05   9.6915181e-05   4.7801979e-07   1.3333853e-05   1.0006173e-04   2.4257502e-05  -4.1367461e-05   2.0910215e-05   2.9630366e-05   1.0321388e-04   1.9187748e-04   1.9645911e-05   7.3292314e-05   8.3062714e-06  -1.0387853e-04  -2.2080392e-05  -8.1949969e-05  -1.1441027e-05  -1.4517136e-04  -5.3428215e-05  -7.8821446e-05  -2.2076836e-05  -1.3937845e-04
   8.6597109e-05   7.0612114e-05   1.3602053e-05   4.4975124e-05   3.5988585e-05   9.7628690e-05   2.7848509e-05   1.4202544e-04   1.1739638e-04   6.8576696e-06   4.0598050e-05   5.5447770e-05   3.7962916e-05   2.3688557e-05   5.1461786e-05   2.3177407e-05   1.9867159e-05  -3.7875376e-05  -5.2239717e-05  -2.8479903e-05   2.2393987e-04   1.0952157e-05  -6.1506158e-05  -3.1055832e-05   4.5585064e-05   2.1662463e-05   6.3438070e-05   5.0438462e-05   2.2035025e-05  -1.5200390e-05   1.3490708e-05   8.2786930e-05   6.4426658e-06   4.1170137e-05   1.8749966e-05   2.4329415e-04   1.1936843e-04   1.6119535e-04   1.3729838e-05  -6.3028347e-05  -1.8051612e-04  -1.7325654e-05  -1.5196156e-04  -3.5681172e-05  -5.6726526e-06   2.6153270e-05  -5.8004702e-05  -1.0396352e-04  -3.5173929e-05  -1.6627013e-04
   7.4617281e-05   5.9109156e-05   6.5685517e-06   2.3262461e-05   3.5692068e-05   1.0203443e-04   4.3073801e-06   1.4509186e-04   1.3857777e-04   1.3572166e-05   3.5174209e-05   6.0930135e-05   4.2769188e-05   3.4269833e-05   1.0888721e-04   4.2522002e-05   3.8204635e-05  -2.6707638e-05   2.8871713e-05  -4.2684231e-05   2.1720685e-04  -1.0579913e-05  -3.7697806e-05   3.6492188e-06   6.5901848e-05  -1.4570224e-05   7.5595715e-05   1.5957680e-04   3.3289165e-05   1.3164718e-05   5.4153617e-05   6.6130277e-05   7.8627505e-05  -3.9368897e-06   3.6998790e-05   1.0499448e-04   3.5094825e-04   1.6462359e-04  -1.8633000e-05  -2.0106949e-05  -2.9646174e-07  -3.2826723e-05  -2.3737256e-04  -1.4577452e-04  -9.5404903e-05  -1.1136959e-04  -4.9411723e-05  -8.8094857e-05  -6.8621033e-05  -1.2428631e-04
   9.2218237e-05   6.5328160e-05   1.9960386e-05   1.9927213e-05   4.0248320e-05   3.2892236e-05   6.7533612e-05   4.5681489e-05   3.4812540e-05   6.1164942e-06   3.6670055e-05   6.1955019e-05   1.9818195e-05   1.7630333e-05  -3.5346286e-05   1.9952464e-05   5.2086456e-05  -4.5501252e-05   9.0054462e-05  -2.5910133e-05   2.0860948e-04   6.5073536e-06  -9.8676530e-05  -3.8087630e-06  -2.6393422e-05   7.2737307e-06   1.7058845e-04   3.5058907e-05  -2.1488031e-05  -1.4398472e-05   4.8800899e-05   4.5324803e-05  -1.0149375e-05   1.0323903e-04   5.0103456e-05   8.5151900e-05   5.0757561e-05   1.3199706e-04  -1.2824989e-04   1.1182913e-05   5.4908316e-05  -6.9002977e-05   1.5381047e-04   2.2881155e-04  -3.8855913e-05  -3.8739090e-05  -5.4310094e-05  -5.5037366e-05  -2.8026743e-05  -1.2762487e-04
   5.9414753e-05   4.9597733e-05  -5.6096616e-07   2.3834351e-05   2.2846089e-05   3.9362436e-05   2.8137278e-05  -2.1054713e-05   8.2116945e-05   1.3302648e-05   4.2336367e-05   6.2283216e-05   5.0704519e-05   6.5441818e-05  -7.0305719e-06   1.8884766e-05   6.0232403e-05  -2.0877813e-05   2.1786014e-05  -9.3511735e-06   2.0489373e-04  -5.1494466e-05  -5.6184868e-05   1.0310860e-06   1.4652063e-04  -8.0883292e-06  -5.4956021e-05  -8.3825153e-06   2.7415241e-05   2.7037427e-06  -1.1221315e-04   9.0651294e-05  -9.9591061e-06   3.9377475e-05   6.5293541e-05   3.0095320e-05   8.6848049e-05   1.0876158e-04   6.5767250e-05  -2.4715455e-05   3.3283452e-04  -3.6547815e-05  -2.5088075e-05  -4.6756559e-05  -7.9149133e-05  -2.3843940e-04  -4.5794382e-05  -8.2426450e-05  -4.0420698e-05  -2.5504134e-05
   5.9922055e-05   4.9093967e-05   1.4781603e-05   1.4857354e-05   3.1134277e-05   8.5347150e-05   2.0307320e-05   3.4799818e-05   3.9812636e-05   1.7331233e-05   4.3952135e-05   6.5858214e-05   2.3764316e-05   3.3056956e-05  -2.5012900e-05   1.0366458e-05   6.7759167e-05  -5.0705821e-06   5.8372507e-06  -2.1238820e-05   2.0560324e-04   1.0493674e-05  -7.2057388e-05  -1.5936772e-05   1.2337671e-04   2.3750516e-05   9.9828139e-05   3.4408899e-05   8.3622490e-06  -9.7369393e-06  -1.7680661e-05   1.7725541e-04   1.3935477e-04   6.8509762e-05   6.5518019e-05   2.4204070e-05   9.8566277e-05   1.7383373e-04   1.1119072e-04   1.1689631e-05   2.0808809e-05  -6.3646817e-06  -2.1969831e-04   2.8770117e-04   3.8412786e-06  -2.6345906e-06  -6.5589156e-05  -8.9689034e-05  -4.9019542e-05  -8.1012666e-05
   7.9379919e-05   4.3093307e-05   1.0369461e-05   1.6980819e-05   2.0913420e-05   6.4610656e-05   2.2192553e-05  -1.6936613e-07   9.4930976e-05   1.4218128e-05   4.5096509e-05   5.7058423e-05   3.3742064e-05   4.3149459e-05   6.2409883e-05   2.1460946e-05   5.0037812e-05  -1.9719879e-05   2.1994461e-05  -1.1677873e-05   1.9589154e-04   2.4091161e-05  -5.0047402e-06   4.3387772e-06  -1.1624525e-05   2.3498251e-06   1.9401321e-05   7.2143994e-05  -1.5373122e-05  -3.3585056e-05  -3.7397778e-05   1.2711744e-04  -2.5555357e-05  -1.5876834e-05  -1.1410452e-06   8.6510285e-05   5.5215696e-05   1.6099968e-04  -4.5708191e-05  -6.6972076e-05  -2.7402480e-06   3.0463601e-05   7.9941194e-05   1.7825983e-04   2.9713046e-05  -1.9576520e-04  -4.4298926e-05  -7.6915800e-05  -5.6847555e-05  -1.0270656e-04
   5.9192749e-05   3.8802569e-05   7.0410979e-06   1.6780974e-05   1.1064325e-05   4.5527697e-05  -9.5471732e-06   4.4058401e-05   5.3489290e-05   2.4853631e-05   3.3390555e-05   6.2263614e-05   7.8940138e-05   3.9493749e-05  -7.0963438e-06   3.8356815e-05   5.9762846e-05   5.6097151e-06  -4.2574498e-05  -6.2604145e-06   1.8526644e-04  -2.6211726e-05  -7.4466232e-05   9.5133009e-06   1.2515017e-04   2.5970856e-05   4.1910233e-05  -1.9135285e-05   5.6162415e-05   5.3765274e-05  -7.8243920e-06   1.3017953e-04   3.3400771e-05   1.1874382e-04  -1.2196640e-05   7.5061529e-05   1.5866569e-04   1.9222988e-04   5.2987252e-05   1.8702245e-05   2.5989025e-06  -3.9924180e-05  -7.9707301e-05   1.0215477e-04  -3.6267927e-05  -2.9678707e-04  -4.3870961e-05  -1.2379397e-04  -1.4140369e-05  -7.8566176e-05
   9.0442438e-05   5.3630352e-05   9.5842352e-06   2.5266245e-05   1.4671071e-05   5.1030845e-05   2.5428633e-05   3.1044834e-05  -4.3112272e-05   1.7917733e-05   4.2377094e-05   6.1504128e-05   2.2780025e-05   3.9032442e-05  -3.5205805e-05   8.4324920e-06   4.4433247e-05   1.6551554e-05   6.0511011e-05  -1.6768134e-05   1.9336298e-04  -1.7051458e-05  -6.3315034e-05  -3.2082371e-06   1.6186007e-04   2.9126837e-05   9.3785602e-05  -1.3666057e-04  -3.4519860e-05  -5.2247848e-05  -6.5702145e-05   1.6526182e-04   7.6879929e-05   3.8113922e-05   6.8326372e-05  -2.6515261e-05  -2.1957047e-04   2.2919230e-04   6.8579619e-05   2.5800906e-05   8.8681045e-05  -1.2172468e-04   7.3449701e-05  -4.4055083e-05  -5.8137277e-05   5.8699305e-05  -3.2640357e-05  -1.1909636e-04  -5.2805037e-05  -9.1595015e-05
   5.2646694e-05   3.5418841e-05  -6.9534320e-07   1.6543223e-05  -2.0256975e-05  -1.9791614e-05  -1.0606198e-05   6.0505713e-06  -1.7304106e-05   1.4570975e-05   2.6963851e-05   5.1392064e-05   2.2859465e-05  -3.1099167e-05  -4.9510163e-06   9.8070786e-06   6.1573781e-05   1.3795347e-05  -1.6893355e-05  -1.4776228e-05   1.7496260e-04  -3.4374112e-05  -6.8239620e-05  -1.9812951e-05  -2.0934314e-05   2.1185730e-05   8.2133854e-05  -2.5855796e-04   1.8236524e-05  -2.5318963e-05   7.1366798e-05   1.8112193e-04  -3.5340090e-05   7.5334215e-06   6.8042158e-05   1.5492849e-04   1.1728554e-05   2.0463108e-04   1.3173262e-04  -6.4056308e-05  -7.2629504e-05   2.4336947e-05  -6.8385845e-05  -4.9835980e-05   2.0567632e-05  -9.5936848e-05  -5.3277330e-05  -5.3264605e-05  -9.1427537e-06   1.8034474e-05
   4.4193323e-05   2.4186120e-05  -9.8024975e-06   6.0304519e-06  -1.0103276e-05   8.8434899e-05   5.6568269e-06  -4.5702232e-05   1.0461902e-05   1.5633981e-05   2.2311326e-05   4.9879785e-05   4.5503621e-05   3.6587160e-05   1.1474839e-04   1.3983538e-05   6.8416521e-05   5.8989717e-05  -1.2619844e-05  -5.2049927e-05   1.6911486e-04  -3.9584029e-05  -9.6422336e-05  -7.3450460e-06   3.7618869e-05   6.0512422e-05   1.0026951e-04   2.9179586e-05   5.4172280e-05  -5.9804493e-06   3.5992427e-05   1.5810627e-04   9.2945200e-05   6.4949920e-05   8.4513245e-05   9.1905189e-05   4.9012899e-05   2.2427582e-04  -1.5971175e-04   6.4503598e-05   1.9391287e-04  -5.1331419e-05  -9.5217503e-05  -1.6953947e-04   4.7782192e-05  -2.5010344e-05  -6.1313913e-05  -7.9343765e-05  -3.6392925e-05  -1.3361176e-04
   5.4572574e-05   4.6097368e-05  -1.8097307e-06   1.1572763e-05  -2.5658341e-05   1.1902962e-05  -3.9794464e-05  -9.3610462e-05  -1.8994228e-05   7.7059740e-06   2.0322532e-05   5.4202104e-05   4.0768787e-06  -3.0528929e-05   2.6344447e-05  -9.9238923e-06   5.8000081e-05   1.9784211e-05  -3.2556432e-05  -1.8865572e-05   1.6777117e-04  -6.8873029e-05  -2.9234119e-05   4.1671370e-05  -7.9760786e-05   2.0033078e-05   3.3070337e-05  -2.7749443e-04   1.3693727e-06  -8.0385420e-05   2.8275330e-05   1.7777839e-04  -1.0754251e-04   6.0143102e-05  -7.4108830e-06   4.8670205e-05  -6.7991154e-05   2.0596747e-04  -1.5751157e-05   1.0153055e-04   5.5216700e-05  -5.9264828e-05   1.0432090e-04  -4.1241074e-05  -7.9461774e-05  -1.0157479e-04  -7.6845754e-05  -7.2913535e-05  -2.9668454e-05  -1.0808521e-04
   8.1577255e-06   2.0678888e-05  -1.9906838e-05  -9.8933988e-06  -4.2027925e-05  -2.5247051e-05  -3.8742513e-05  -8.5098043e-05  -1.6526956e-05   9.5702189e-06   8.5388056e-06   4.6905490e-05   2.6325755e-05  -3.9682585e-05  -1.0773211e-05  -6.0445554e-06   6.5528962e-05   1.7891402e-05  -1.3964302e-04  -1.7224074e-05   1.5484619e-04  -5.3207736e-05  -1.0646660e-04  -2.0482488e-05  -2.6945994e-05   3.5975240e-06   1.0614171e-04  -2.6692828e-04   2.4023057e-06  -2.8166482e-05  -2.1474911e-05   1.3748309e-04  -2.8639907e-04   4.2017793e-05  -1.4844714e-05   7.5642609e-05   3.9762697e-05   1.7207007e-04  -3.7611298e-05  -2.4247251e-05   1.6117968e-04  -3.1858286e-05   3.9973573e-05  -1.6556116e-04  -5.6525907e-05  -9.0221190e-05  -6.1596962e-05  -7.1911461e-05  -4.3897599e-05  -1.3569013e-04
   6.6515406e-07   1.4280284e-05  -2.4369825e-05  -1.7470858e-05  -2.6503616e-05   2.6257740e-05  -2.8555954e-05  -4.5974219e-05  -3.9347920e-05   6.4118058e-07   2.0715152e-06   5.1681905e-05   1.1553687e-05   1.0466913e-05  -4.7154634e-05   2.0027765e-05   5.2516534e-05   3.3772692e-05  -8.6044573e-05  -3.7087630e-05   1.6299731e-04  -5.2180174e-05  -8.6231405e-05  -1.7425302e-06  -4.9392042e-05   3.6599426e-06  -3.8458798e-05   3.0844501e-05   4.1937084e-05  -4.0110099e-05   1.3901546e-05   2.0486341e-04  -1.9639869e-04  -1.8825958e-05   4.6490310e-05   6.5844870e-05   4.9753839e-06   2.5366753e-04   6.0577007e-05  -7.5038501e-05   6.6349414e-05  -7.3408562e-05   3.0719006e-05  -5.3826978e-05  -8.3923871e-05  -2.6339985e-04  -7.8800775e-05  -1.2095588e-04  -3.9132927e-05  -1.6259942e-04
   1.6436821e-05   3.8561011e-05  -2.3736065e-05  -1.3869483e-06  -4.5339733e-05   4.8983315e-05  -4.2221705e-05  -7.2263487e-05  -1.1873651e-04   1.6553284e-05   2.0603395e-05   4.3824817e-05   1.8161087e-05  -3.5795762e-05   2.4852604e-06   8.4284807e-07   6.4251239e-05   5.1789644e-05  -2.3238441e-04  -2.1011358e-05   1.5341726e-04  -6.4231201e-05  -1.1834116e-04  -1.2726347e-05  -2.6986480e-04   1.1180537e-05  -2.6124844e-05  -2.0540567e-04   8.2755587e-06  -7.8249446e-05  -1.4011734e-05   1.4810996e-04  -4.8585604e-05  -1.0073010e-04  -6.9873699e-05   1.6838426e-04  -2.5536030e-04   2.1049086e-04  -2.4534376e-05  -6.3701867e-05  -1.7375049e-04  -4.5538061e-05   1.1798534e-04  -1.4685455e-04  -1.1652254e-04  -3.3723885e-05  -8.0293379e-05  -5.0469826e-05  -1.1089390e-06  -1.0918816e-04
  -2.5365718e-05   2.6825484e-05  -4.1439074e-05  -2.6264257e-05  -5.3027576e-05  -3.0061376e-05  -5.8866921e-05  -7.3480471e-05  -1.5349577e-06   8.4933872e-06   7.2538473e-06   4.4025059e-05  -4.7221779e-06  -4.3080414e-05  -9.8599929e-05  -2.6897924e-05   5.6677582e-05   6.4950232e-06  -1.0665831e-04  -2.1696742e-05   1.5485787e-04  -5.8055561e-05  -1.9692251e-04   1.5290912e-05  -9.4172996e-05  -1.1638299e-05   1.7860821e-05  -4.3781365e-05   5.2654512e-05  -4.5633307e-05  -4.0453910e-05   9.9711135e-05   4.0169547e-05   9.3619565e-06   2.7387658e-05  -4.9467137e-05  -1.6454812e-04   2.0031835e-04   6.3498092e-06  -2.7506530e-05   1.7263669e-06   8.8130355e-06   3.5413257e-05   2.4786982e-04  -3.3702927e-05   1.2708723e-04  -3.8029659e-05  -7.4380907e-05  -3.5910882e-05  -1.3703169e-04
  -1.0519255e-05   3.1653948e-05  -3.2262731e-05  -1.9828647e-05  -5.0065330e-05  -1.6999076e-06  -5.2111915e-05  -5.0021397e-05  -6.2907005e-05   6.4278624e-06   5.8011224e-06   5.1458799e-05  -2.6511900e-05  -8.1211592e-06  -1.0363723e-04  -8.5297588e-06   6.0336868e-05  -1.5376536e-05  -7.6342090e-05  -3.4454071e-05   1.5966920e-04  -1.6841259e-05  -9.9000223e-05   2.0374493e-05  -5.2184791e-05  -1.2328355e-05   4.3134769e-05  -2.2337541e-04  -4.7936970e-05  -6.3764091e-05   3.1549205e-06   9.0038302e-05  -1.2285919e-04  -2.5487059e-05  -7.4037498e-06   1.3143668e-05  -2.5061326e-04   1.9071306e-04  -5.6539200e-05   7.6353845e-06   4.2065754e-04  -6.1827479e-05  -1.5628873e-04  -1.3778011e-04  -9.6573182e-05   1.5673068e-05  -8.3602288e-05  -1.2240282e-04  -3.8065842e-05  -1.4481750e-04
  -2.4851191e-05   2.9130673e-05  -3.9608873e-05  -1.0095294e-05  -4.8385966e-05  -2.0960204e-05  -6.4862194e-05  -1.2360542e-04  -9.3176473e-05   1.5132033e-05  -2.5746685e-06   5.9756814e-05  -1.2570397e-05  -4.6750643e-05   2.2251797e-05  -1.9191866e-05   4.7193425e-05  -1.7772159e-05  -9.3043585e-05  -3.3519358e-05   1.5331140e-04  -5.3386382e-05  -4.2457417e-05   6.1568670e-07  -1.4835849e-04  -2.9950802e-06   5.5766973e-06  -2.5647291e-04  -6.2397383e-05  -8.3277904e-05  -3.6496403e-05   1.5531719e-04  -5.7274385e-05  -3.3119297e-05  -1.1240339e-05  -1.1961450e-04  -2.2216227e-04   7.8588331e-05  -1.2585649e-04  -3.9149156e-05  -5.7493577e-05  -3.1554799e-05  -5.6522697e-07   3.3655873e-05   6.9788694e-05   5.6752342e-05  -8.1094440e-05  -1.4182371e-04  -5.1025236e-05  -8.5813263e-05
  -4.6282912e-05   1.0917228e-05  -4.7310768e-05  -2.8850205e-05  -7.1378447e-05   2.5143607e-05  -5.3401862e-05  -1.2873138e-04  -1.6694002e-04   1.8908106e-05   3.2085375e-06   5.0358460e-05   1.5566760e-05  -2.1874317e-05  -1.8038656e-05  -2.1865251e-05   5.6095643e-05   2.0251905e-06  -1.5632542e-04  -1.5097998e-05   1.3951749e-04  -8.5413958e-05  -1.4943285e-04   4.5555527e-05  -1.6861509e-04   6.1585102e-05  -2.5574942e-05  -6.9758215e-05   2.4162959e-05  -3.3529632e-05  -8.9526720e-06   9.5373398e-05  -2.2738207e-04   1.0117105e-04  -1.5438510e-04   6.0325633e-06   3.8011956e-05   2.2881027e-04  -5.7443813e-05  -3.6723727e-06   1.4836586e-04  -6.5734523e-05  -6.3694635e-05   1.5206028e-04  -1.1515363e-04  -6.3799140e-05  -7.4152980e-05  -1.2023929e-04   5.3208487e-06  -8.9731235e-05
   6.1012129e-06   5.0311457e-05  -3.5243796e-05   5.0027938e-06  -4.7022902e-05  -1.2381932e-05  -1.8543751e-05  -1.0572637e-04  -1.4772901e-04   2.1401431e-05   2.7983811e-05   6.8889771e-05  -1.4030968e-05  -1.1235039e-04  -6.0043178e-05  -4.5383498e-05  -4.0920013e-06  -2.0702299e-05  -8.5865991e-05  -1.9946807e-05   1.7752926e-04  -4.7073951e-05  -4.6688183e-05   3.0775031e-05  -1.7135676e-04  -3.3753218e-05  -1.6237231e-05  -2.3606978e-04   2.4218187e-05  -1.2246618e-04  -8.5045627e-05   1.0464901e-04  -2.8288079e-04  -2.5833046e-05  -6.6753186e-05  -9.1934344e-05  -1.4348175e-04   3.3213609e-04  -8.5765503e-05  -9.5030147e-05  -1.4652437e-04  -5.6017358e-05  -1.3267512e-04   6.8153458e-05   4.7112346e-05  -1.2120254e-04  -7.1274721e-05  -9.2936010e-05  -5.1924046e-05  -1.5633697e-04
   5.5093628e-06   5.5332519e-05  -4.4801011e-05   6.3737543e-06  -6.0377562e-05  -4.8518112e-05  -1.5086822e-05  -5.4436765e-05  -1.5065259e-04   2.7528649e-05   2.8146645e-05   7.3858486e-05  -1.9069552e-05  -7.6670251e-05  -6.8448004e-05  -5.8077712e-05  -6.5732245e-05  -1.2175678e-04  -1.1800524e-04  -1.6174441e-05   1.8761821e-04  -4.3011725e-05  -9.8605378e-05   3.8241476e-05   5.5153621e-05   1.2507785e-05  -8.1540406e-05  -1.6532333e-04   9.5136602e-06  -1.1482250e-04  -8.3409461e-05   4.8183738e-05  -8.0734782e-05  -1.0512875e-04  -1.2937716e-05  -5.5009870e-05  -1.0916268e-04   3.7827875e-04   5.0189425e-05  -8.5259657e-05   6.4510612e-05  -7.7418757e-05  -1.1507153e-04  -9.2638285e-05  -1.2170058e-04  -2.6954597e-04  -6.4638247e-05  -7.3679585e-05  -1.3757706e-05  -1.6092457e-04
   1.0527611e-05   5.7435896e-05  -4.5894478e-05   3.0251967e-05  -3.4285658e-05  -1.5206194e-05  -1.7051771e-05  -1.3086299e-04  -8.4959793e-05   2.9145220e-05   5.4886386e-05   8.4620806e-05  -3.4911969e-05  -5.7429635e-05  -1.8133032e-04  -6.1831648e-05  -1.0412127e-04  -1.5715489e-04  -8.1177066e-05  -3.3049044e-05   2.0009713e-04  -4.0324358e-06  -3.2010779e-05   6.7303226e-05   1.2082858e-04  -4.6990201e-05  -2.3421528e-05   1.3599017e-05   2.2242883e-05  -1.1040227e-04  -9.6368363e-05   1.5230719e-05  -1.1615132e-04  -9.4911644e-05  -3.7547139e-05  -4.5748504e-05  -2.5849984e-04   4.2267234e-04  -6.6032888e-05  -1.0719080e-04  -6.7293855e-05  -1.6687931e-04  -8.2617262e-05  -6.3611653e-05  -1.3558472e-04  -1.3042690e-04  -5.8432623e-05  -1.0948171e-04  -2.6845617e-05  -2.3363216e-04
   4.3916771e-05   1.0337060e-04  -4.0202071e-05   5.9815455e-05  -2.4227322e-05   4.0470086e-06   4.1263062e-05  -5.9949180e-05  -1.0844076e-04   4.6866768e-05   8.3438339e-05   8.9592373e-05  -4.3435866e-05  -1.0733599e-04  -2.9854164e-05  -1.1179979e-04  -1.4113208e-04  -2.2625526e-04  -1.5118210e-04   2.9217799e-06   2.1339279e-04   8.4967060e-06  -7.2352123e-05   7.0191207e-05   1.4241151e-05  -4.6381167e-05  -6.5224165e-05  -3.2219221e-04   4.4200282e-05  -1.4528976e-04  -1.2186050e-04  -6.3416728e-06  -1.6087096e-04  -4.8498976e-05   4.6948928e-05  -1.0802213e-04  -4.0241727e-04   3.7774682e-04   1.1475216e-05  -9.7236989e-05   1.5060618e-04  -1.4081315e-04   1.8004201e-05  -4.0295708e-04   9.3384160e-06  -2.2131749e-04  -6.1944622e-05  -1.6969087e-04  -4.1624233e-05  -1.8989992e-04
   1.2392216e-05   6.9239446e-05  -4.6780271e-05   3.5298661e-05  -3.2232387e-05   8.3949917e-06  -4.1285025e-06  -9.0914342e-05  -1.1875336e-04   3.2273118e-05   6.9822643e-05   7.7158089e-05  -2.9715848e-06  -1.2895044e-04  -1.2807334e-04  -9.0398607e-05  -9.8217643e-05  -1.5352896e-04  -1.4316960e-04   8.8048319e-06   1.9755281e-04  -5.6030713e-06  -8.7381006e-05   1.1078377e-04   1.4807198e-05  -3.8963441e-05   3.3821267e-05  -1.8124428e-04   2.6147727e-05  -1.1616739e-04  -1.0785235e-04   3.9565377e-05  -1.7132309e-04  -8.5688996e-05  -4.2226249e-05  -3.6186488e-05  -7.6537210e-05   4.2403469e-04  -2.1215787e-04  -1.7110075e-04  -3.1020583e-04  -1.4895092e-04  -1.1039859e-04  -2.2405673e-04  -2.5388155e-05  -2.5875989e-04  -4.7302856e-05  -4.6421650e-05  -7.5868731e-05  -1.9841724e-04
   5.1521562e-05   9.8986879e-05  -3.2578209e-05   4.3359170e-05   1.0074881e-06  -7.8757639e-06   7.7355653e-06   1.4519195e-05  -1.9200597e-05   4.7600592e-05   8.3779996e-05   9.5015028e-05  -9.7343560e-05  -1.3223624e-04  -6.8650101e-05  -8.3595340e-05  -9.1623282e-05  -1.6689238e-04  -1.2417066e-04  -1.2426194e-06   2.0295079e-04  -1.7508417e-05  -5.7978050e-05   7.6741111e-05   2.1538066e-05  -5.2308209e-05  -3.9407521e-05  -2.1125258e-04   2.2905440e-05  -1.2672755e-04  -3.3177374e-05   1.2521676e-04  -8.1747639e-05  -6.8715053e-05  -8.1579317e-05  -2.3902738e-05  -4.4986964e-04   3.5816568e-04  -2.7593789e-05  -1.6650945e-04   2.0558760e-05  -1.4275704e-04  -1.8287466e-05   5.2944222e-05  -1.8206285e-04  -2.5498884e-04  -7.0949340e-05  -1.0008058e-04  -3.1746658e-05  -1.8452658e-04
   2.5715311e-05   8.1998391e-05  -3.7721024e-05   4.1741576e-05  -8.1615235e-06   1.8588869e-05  -8.4935400e-06  -1.1261689e-04  -1.2468614e-04   3.9398561e-05   8.0090882e-05   9.1542817e-05  -2.2367389e-05  -1.2661348e-04  -8.0786966e-05  -1.0808322e-04  -1.0958839e-04  -1.7752658e-04  -1.9992283e-04   1.5416879e-06   2.0930002e-04  -1.5568106e-06  -1.0858042e-04   7.7297205e-05  -3.6259768e-05  -1.1314142e-04  -7.5609511e-05  -2.6792905e-04   2.7863305e-06  -1.4548619e-04  -7.4615920e-05   1.7490570e-06  -2.7978703e-04  -5.4903729e-05  -6.0383922e-05  -1.1487866e-05  -3.7457747e-04   3.9394479e-04  -1.2830095e-04  -3.2523250e-05  -3.0844001e-04  -2.0570359e-04  -1.6682662e-04  -3.8058899e-04  -8.4875777e-05  -2.4881368e-04  -4.7638092e-05  -9.2336406e-05  -2.7218921e-05  -2.0426641e-04
   4.2345157e-05   1.0290026e-04  -3.6472931e-05   6.6109045e-05  -1.1032711e-05  -1.9781930e-05   8.3488032e-07  -4.8586247e-05  -5.1281000e-05   5.4056152e-05   8.0700578e-05   1.1312457e-04  -6.5925174e-06  -1.5537554e-04  -6.9108275e-05  -1.0850176e-04  -1.4623391e-04  -2.0886581e-04  -9.6113588e-05   1.1063770e-05   2.1586112e-04  -6.4066726e-06  -6.6445340e-05   9.7080934e-05  -5.1089693e-05  -8.7717228e-05   2.6481077e-06  -1.1142327e-04   4.9822454e-05  -1.0392725e-04  -1.6776328e-04   5.3657568e-05  -2.6187659e-04  -1.8676318e-04  -1.2701477e-05  -7.0123111e-05  -8.9383073e-05   4.7002939e-04   5.6323184e-05  -2.2033919e-04   6.5022491e-06  -2.0232241e-04  -2.1000741e-04  -3.8969624e-06  -6.3279615e-05  -1.0106491e-04  -4.8879505e-05  -8.9622372e-05  -5.3243351e-05  -2.4423827e-04
   8.2025348e-05   1.4298795e-04  -2.3745341e-05   1.0234037e-04   3.7829495e-06  -7.0351807e-06   6.3598281e-06  -3.3585904e-05   5.9609163e-05   5.8842397e-05   1.2763015e-04   1.2788456e-04  -3.0277764e-05  -1.8831855e-04  -1.2955301e-04  -1.3623551e-04  -1.8465001e-04  -3.2506371e-04  -9.3591516e-05   6.9674002e-06   2.5780039e-04   6.5658918e-05  -5.0580311e-05   1.1515697e-04  -2.0796126e-04  -1.5562713e-05  -1.2322607e-04  -2.5483710e-04   3.3669930e-05  -1.1588094e-04  -1.2497563e-04  -2.1340193e-05  -7.5575706e-05  -1.4460887e-04  -3.5090667e-05  -1.0795842e-04  -2.1578639e-04   4.1321028e-04  -2.2679484e-04  -1.4369082e-04  -3.7781699e-04  -2.4859011e-04  -2.4363596e-04   4.6046280e-05  -1.4955879e-04  -1.6358547e-04  -2.8058721e-05  -6.9648486e-05  -5.0237555e-05  -3.2337022e-04
   7.0698159e-05   1.4002938e-04  -3.1637792e-05   1.0101921e-04  -5.0418957e-06  -2.1392152e-05   4.6265077e-06  -3.1604464e-05  -4.6498985e-06   6.4754888e-05   1.2728377e-04   1.2960107e-04  -2.9586083e-05  -2.0688944e-04  -1.4140368e-04  -1.4420022e-04  -1.8828554e-04  -3.4469701e-04  -1.6186603e-04   1.2913546e-05   2.5585396e-04   9.1489919e-06  -1.2667981e-04   1.1518300e-04  -7.9174417e-05  -9.7724354e-05  -1.5394446e-04  -3.1881678e-04   5.0773848e-05  -1.3791412e-04  -1.4249743e-04  -1.3534918e-04  -1.3613745e-04  -1.0448719e-04  -1.7884979e-05  -1.3601311e-04  -2.8296123e-04   3.6531221e-04  -1.9055911e-04  -1.9257057e-04  -1.5391625e-04  -1.6858432e-04  -1.7385397e-04  -4.0840337e-04  -1.7798424e-04  -3.3590279e-04  -3.2601558e-05  -1.3003216e-04  -2.5826779e-05  -2.8410828e-04
   4.9720002e-05   1.2995562e-04  -3.8945080e-05   8.3241997e-05   2.0688558e-06  -2.7449012e-05  -2.7524675e-05  -1.1046684e-04  -5.0246505e-05   7.9416961e-05   1.3424476e-04   1.2417704e-04  -7.6590848e-05  -2.1120372e-04  -1.3391604e-04  -1.4162928e-04  -1.9955005e-04  -3.6615468e-04  -3.9829840e-05   1.7065426e-05   2.6077373e-04   2.1366472e-05  -4.6951089e-05   9.6817923e-05  -1.5640655e-04  -6.3590764e-05  -1.7260613e-04  -2.0083383e-04   5.3089996e-05  -7.9556070e-05  -1.0882218e-04  -4.8517191e-05  -3.0205338e-04  -3.0146553e-05   4.2227771e-06  -1.0266533e-04  -3.3221178e-05   3.7449744e-04  -1.3588651e-04   1.5445661e-05  -3.6377493e-05  -2.3435170e-04  -2.6512126e-04  -3.1773889e-04  -8.9991154e-05  -2.1959093e-04  -2.9103319e-05  -5.3010757e-05  -7.8383200e-05  -2.7750636e-04
   7.6866410e-05   1.4964356e-04  -2.1882699e-05   1.1374787e-04   1.8107125e-05  -7.3116717e-06   1.2821917e-05  -6.8099152e-06   6.6057444e-05   7.5124241e-05   1.3065693e-04   1.2988500e-04  -2.3192119e-05  -2.2611658e-04  -1.0494663e-04  -1.4056377e-04  -1.7888771e-04  -3.4810160e-04  -7.4996322e-05   1.4830975e-05   2.6898787e-04   8.6733438e-05  -6.8592490e-05   1.1615412e-04   6.3322345e-06  -6.4654996e-05  -1.7046825e-04  -2.4409787e-04   4.5671372e-06  -1.4414583e-04  -1.5309778e-04  -1.0126639e-04  -4.2247189e-05  -1.7917519e-04  -8.6213520e-05  -1.5824917e-04  -2.1919285e-04   3.5961851e-04  -6.2333027e-05  -2.1042813e-04  -3.0725851e-04  -2.5102810e-04  -3.0160460e-04   7.8277269e-05   4.2665572e-05  -2.0434867e-04  -2.3328133e-05  -5.9193375e-05  -3.7968246e-05  -3.0173289e-04
   4.7011392e-05   1.1766625e-04  -3.5843590e-05   9.6417418e-05  -2.2237027e-06  -6.4630008e-06  -2.9700868e-06  -5.0816088e-05  -4.7086294e-05   9.1565518e-05   1.2304349e-04   1.2261083e-04  -4.5544326e-05  -1.8405092e-04  -1.0807138e-04  -1.4829985e-04  -1.6680792e-04  -3.2131010e-04  -1.1016343e-04   7.9952579e-06   2.4726198e-04   2.4095227e-05  -5.1514337e-05   1.2201656e-04  -9.8771612e-05  -1.1202537e-04  -1.2550852e-04  -1.6923838e-04  -2.9695466e-05  -9.5067066e-05  -5.6092758e-05  -1.0871251e-04  -8.4857580e-05  -3.8091814e-05   4.2632062e-05  -4.1790878e-05  -1.1663938e-04   3.0142337e-04  -1.2489250e-04  -2.1950190e-04  -4.4066078e-04  -1.8844767e-04  -2.6358501e-04  -1.5352803e-04  -5.3468299e-05  -3.9098170e-05  -6.2570512e-06  -3.2966855e-05  -4.4434226e-05  -2.1017947e-04
   2.3817418e-05   1.1100945e-04  -2.6621528e-05   8.5101252e-05   1.9679806e-06  -4.2966105e-05  -3.4629669e-05   4.4634940e-05  -4.5841873e-05   6.7754299e-05   1.3091875e-04   1.2923873e-04  -5.5763820e-05  -1.9478833e-04  -1.5501751e-04  -1.1656999e-04  -1.4956816e-04  -3.0675196e-04  -5.3947693e-05  -1.0192332e-05   2.5536644e-04   6.9415350e-05  -2.7174148e-05   9.8400211e-05  -2.0360808e-04  -6.5612228e-05  -3.4151515e-05  -5.3656870e-05   1.4569579e-05  -8.7669272e-05  -7.2494440e-05  -1.1877723e-04  -1.0188840e-04  -7.4416828e-05  -2.7521059e-05  -5.7693636e-05  -2.3697678e-04   2.4816723e-04  -1.2996382e-04  -1.5593339e-04  -2.0791752e-04  -2.4987245e-04  -2.2685455e-04  -1.1714859e-04  -1.9663859e-05  -1.4691720e-04  -1.1635396e-05  -1.3344931e-04  -2.1804595e-05  -2.0488395e-04
   5.3816737e-05   1.3607249e-04  -1.4081463e-05   9.1704838e-05   1.7911274e-05  -5.3913786e-06  -1.7421557e-05   4.8473652e-05   5.5095683e-05   7.6764132e-05   1.3529026e-04   1.3345007e-04  -4.3810822e-05  -1.8728057e-04  -1.3812781e-04  -1.2550868e-04  -1.5028694e-04  -3.3004506e-04  -1.1724491e-05   1.8966512e-06   2.5657361e-04   8.9170913e-05  -1.7149582e-04   8.4774940e-05  -2.0069786e-04  -6.2617262e-05  -1.4757513e-04  -2.2108319e-04  -1.1930206e-04  -1.1323728e-04  -8.0305625e-05  -1.3077851e-04  -6.3015832e-05  -1.1800372e-04  -1.2305321e-04  -1.5415246e-05  -1.5189120e-04   2.3676119e-04  -7.5016062e-05  -1.4473643e-04  -4.6229275e-04  -2.3278572e-04  -3.1814183e-04  -1.1770110e-04   6.0504190e-06  -2.1920330e-04  -1.1723065e-05  -2.1385433e-05  -1.4796824e-05  -2.2404938e-04
   2.7414610e-05   1.1753693e-04  -1.8237717e-05   8.8182940e-05   5.9868330e-06  -8.4437725e-06  -3.0358584e-05  -5.0776522e-05   1.0560648e-04   8.1578801e-05   1.2541701e-04   1.2738357e-04  -6.6522363e-05  -1.7645107e-04  -8.5583044e-05  -1.2404729e-04  -1.4532158e-04  -3.2158359e-04  -1.6556018e-04   1.9095671e-05   2.4531985e-04   6.0292114e-05  -5.5908258e-05   1.2569169e-04  -7.2436036e-05  -3.4631910e-05  -1.4458035e-04   2.6484749e-05   1.6354741e-05  -5.5433069e-05  -5.3405169e-05  -3.4233712e-05  -3.4698256e-04  -2.0756279e-04  -8.6886736e-05  -1.6104974e-04  -6.2749365e-05   2.8259025e-04   2.2398965e-05  -1.9842644e-04  -2.2716296e-04  -2.1865024e-04  -3.6665020e-04  -1.2498519e-04  -3.6654164e-05  -8.2503902e-05  -2.1562321e-06  -6.2928717e-05   4.9926221e-06  -1.2352661e-04
   4.9116337e-05   1.2831348e-04  -1.4280869e-05   9.3056886e-05   2.3113658e-05  -2.9342504e-05   4.6875757e-05   7.5670159e-06   6.3517953e-05   9.3003728e-05   1.4464284e-04   1.3030882e-04  -2.2269582e-05  -1.5076950e-04  -6.6971523e-05  -1.1357827e-04  -1.3088158e-04  -3.0540445e-04   2.7028000e-05   1.7124496e-05   2.5764495e-04   7.3542120e-05  -6.5263373e-07   1.1229298e-04  -1.7842517e-04  -5.4712764e-05  -1.7916666e-04   1.3887642e-06  -2.6350421e-05  -6.3827116e-05  -2.4323563e-05  -9.2837538e-05   9.4484923e-05  -5.0312847e-05  -7.4714876e-06  -8.5270309e-05  -2.3989247e-04   2.7471024e-04  -1.0788710e-04   1.9317431e-05  -2.5339558e-04  -1.9350532e-04  -1.5883963e-04   3.7527003e-05  -1.5671931e-05  -1.7992314e-04   7.9256524e-06  -3.7444075e-05  -4.7228932e-05  -1.0915574e-04
   3.7000467e-05   1.1466594e-04  -8.1200842e-06   9.7054799e-05   1.0493632e-05  -8.2167091e-05   1.0309418e-06  -2.1520673e-05   1.1582587e-04   9.6207950e-05   1.2890274e-04   1.3435613e-04  -4.1050072e-05  -1.4810270e-04  -9.3747600e-05  -1.2340513e-04  -1.1540930e-04  -2.8313504e-04  -3.4996688e-06   2.1398830e-05   2.4290624e-04   7.1652306e-05  -4.1803032e-05   1.0342531e-04  -9.1299298e-05  -6.6734894e-05  -1.7200704e-04  -9.4998468e-05   3.5263012e-05  -7.0206581e-05   2.7998429e-05  -1.0081405e-04  -2.3759063e-04  -8.4056235e-05  -1.4047811e-05  -2.5856007e-05  -1.9450799e-04   2.7211479e-04  -2.6178124e-04  -1.9131141e-04  -2.6460548e-04  -2.0774180e-04  -3.8346163e-05   8.8888482e-05  -9.0205271e-05  -1.5726550e-04   4.3499035e-06   2.4593124e-05   2.6922171e-05  -1.2146540e-04
   3.0970492e-05   1.1145137e-04  -1.5141229e-05   9.3463546e-05   1.1626725e-05   4.4172222e-05  -1.8136495e-06   2.1065529e-05   1.2552676e-04   1.0655382e-04   1.3360727e-04   1.2535750e-04  -4.0593346e-05  -1.6422475e-04  -2.5065654e-05  -1.0125798e-04  -1.1609400e-04  -2.6529198e-04  -4.9670027e-05   3.9691869e-05   2.4330197e-04   5.7562018e-05  -5.4495769e-05   1.4649135e-04   1.9418914e-05  -7.6566394e-05  -4.6350095e-05   1.2624956e-04   6.8656562e-05  -3.1704790e-06   2.2923643e-05  -6.1310864e-05   3.4094075e-05  -2.1194166e-05  -3.2581469e-05   1.6322798e-05  -5.6914841e-06   3.1925464e-04  -1.5389985e-04  -2.2535058e-04  -3.8347379e-04  -1.8520419e-04  -2.0343262e-04  -2.3894232e-04  -6.2513092e-05  -4.1007519e-05  -7.4017321e-06   4.1489511e-06  -1.0464422e-05  -1.9194218e-04
   7.9824677e-05   1.2698029e-04   2.1239262e-06   1.0565061e-04   2.5051049e-05   5.2230257e-06   3.5011468e-05   5.1324500e-05   9.4355841e-05   1.1632138e-04   1.5223946e-04   1.4181899e-04  -5.7029149e-05  -1.3203664e-04  -1.4517701e-05  -1.0631936e-04  -1.4372637e-04  -2.9770317e-04   9.4649135e-05   2.3244587e-05   2.5894644e-04   1.2590530e-04  -6.3494067e-06   1.3534582e-04   8.9667243e-05  -5.6661356e-05  -1.1156333e-04  -1.9285952e-04  -3.6879899e-06  -6.0414255e-05  -5.1025232e-05  -8.4400068e-05   1.6394780e-04  -1.2890175e-04  -5.5509096e-05  -9.5009738e-05  -1.4967818e-04   3.3733746e-04  -6.7900968e-05  -9.9488927e-05  -5.0524785e-04  -2.1276613e-04  -9.8889592e-05  -3.5696759e-04   9.3540766e-05  -1.9941716e-04   1.2387929e-05  -8.0741600e-05  -7.3692472e-06  -1.6922283e-04
