   4.5751303e-04  -4.5366131e-04  -2.1995677e-04   5.7870022e-04  -5.0513580e-04  -3.2822185e-04   3.1557865e-04  -3.9436275e-04  -4.7770736e-04  -3.5662600e-04   1.2837272e-04  -3.1675302e-04   3.9266818e-04  -1.8369997e-04  -5.2730041e-04   8.9752907e-04  -2.1438033e-03   1.2668533e-03  -2.6314487e-04  -2.9593296e-04  -8.0071979e-05  -1.3287923e-03  -6.0111895e-04  -1.6380634e-04  -2.6311334e-05  -6.6841108e-04  -1.0620654e-03   1.1285725e-04   1.9510625e-03  -5.7098339e-04  -6.3893787e-04   2.2756276e-03  -1.4610074e-05  -3.6423592e-04  -6.8154820e-04  -1.4915218e-04   6.8325544e-04   4.0636503e-04   4.0371134e-04   1.1158275e-03  -5.5272266e-04  -4.7807995e-04  -1.4724144e-03   3.4591118e-05   6.0427160e-04  -9.9491118e-04  -9.9502831e-06  -8.8061742e-04   2.4525458e-03   2.3433529e-03
   6.9539371e-04  -1.6712393e-04  -3.4042372e-05   8.5051684e-04  -3.2043719e-04  -8.7003154e-06   6.1112660e-04  -2.3780260e-04  -3.8349295e-05  -4.0249266e-05   3.5490809e-04  -1.0128933e-04   6.2415970e-04  -5.9983311e-05  -3.5681293e-04   1.0247986e-03  -1.9780598e-03   1.3356282e-03   1.5679767e-05   3.3728862e-05   2.3533906e-04  -1.1074217e-03  -4.4266318e-04   9.2693735e-05   1.4965700e-04  -4.4779095e-04  -8.3829719e-04   2.8596554e-04   2.0100996e-03  -3.7724079e-04  -4.2053618e-04   2.4483262e-03   2.7446868e-04  -2.5095016e-05  -4.7482623e-04   3.6319438e-05   7.9753256e-04   4.7687834e-04   6.6506263e-04   1.3103464e-03  -2.7129910e-04  -4.2012165e-04  -1.6066727e-03   5.6591296e-05   6.0681667e-04  -8.9196203e-04   6.0412924e-05  -8.1688148e-04   2.4910937e-03   2.3992755e-03
   7.2920043e-04  -2.0181757e-04   1.0896330e-05   7.8727829e-04  -3.4239647e-04  -1.5095744e-04   4.5310945e-04  -2.1561970e-04  -2.5095837e-04  -1.0566154e-04   3.2634242e-04  -1.0004181e-04   5.3094432e-04  -1.0725591e-04  -4.1624764e-04   9.5923373e-04  -1.9944429e-03   1.3079594e-03   7.4914474e-06  -9.3985640e-05   1.6159084e-04  -1.1437307e-03  -4.5004368e-04   5.8410271e-05   2.0258286e-04  -4.7136197e-04  -9.5940899e-04   2.4390769e-04   1.9773578e-03  -4.6726153e-04  -5.8056845e-04   2.3233327e-03   3.0878303e-04  -1.5119238e-04  -6.6866953e-04  -1.5812358e-04   6.5348292e-04   1.6848829e-04   5.8711169e-04   1.0052901e-03  -3.5389169e-04  -4.9196370e-04  -1.6491365e-03  -2.0636428e-04   5.6959369e-04  -1.1583429e-03  -3.4720812e-05  -9.7954297e-04   2.0996521e-03   2.1814394e-03
   4.2020058e-04  -5.5151281e-04  -2.3299268e-04   4.4342890e-04  -5.4659083e-04  -4.2123836e-04   1.6019923e-04  -4.6380004e-04  -5.3299754e-04  -3.5867843e-04   1.0120872e-04  -3.1601786e-04   3.5682481e-04  -2.9094768e-04  -6.1051844e-04   7.7541446e-04  -2.0480561e-03   1.1115110e-03  -1.6337406e-04  -3.3584874e-04  -5.4190295e-05  -1.3457099e-03  -7.3122449e-04  -1.9791619e-04   2.6565791e-05  -7.0901646e-04  -1.1781050e-03   3.5403634e-04   1.8599484e-03  -6.0843478e-04  -5.6966161e-04   2.2629041e-03   6.3085732e-05  -3.1018449e-04  -7.2264782e-04  -2.0473168e-04   6.8383454e-04   6.7745292e-05   2.8274307e-04   1.1045506e-03  -7.5960340e-04  -4.5147794e-04  -1.6357615e-03  -2.8250832e-04   5.1112648e-04  -9.1765058e-04   3.1686679e-05  -8.3844690e-04   2.4649748e-03   2.3878813e-03
   6.9129956e-04  -1.0955274e-04   7.7823628e-05   7.7726599e-04  -2.8697660e-04  -9.0178561e-05   5.2621681e-04  -2.4076828e-04  -7.8314122e-05   4.8082034e-05   3.6876503e-04   1.1668172e-05   5.1859656e-04  -4.1816627e-05  -3.5087738e-04   7.4814359e-04  -1.7906895e-03   7.1318430e-04   1.6915231e-04   7.3051917e-05   3.2366547e-04  -8.9252286e-04  -2.8987613e-04   1.7712603e-04   3.1064163e-04  -3.5640044e-04  -7.9186168e-04   9.3021466e-05   1.2701607e-03  -1.7582557e-04  -3.3170867e-04   2.0539227e-03   6.0269597e-04   1.8586409e-04  -4.0356393e-04  -7.5323245e-05   6.2921247e-04  -1.9050756e-04   5.1491486e-04   1.1618327e-03  -3.7948706e-04  -2.4866214e-04  -9.7491016e-04   3.2207512e-04   6.7551382e-04   5.0876337e-05  -1.6995685e-04  -7.3309091e-04   2.1237084e-03   2.3206968e-03
   5.9066759e-04  -1.1154426e-04   3.6416532e-05   6.9276855e-04  -2.8694770e-04  -2.3300579e-04   2.5923664e-04  -3.1873604e-04  -1.2067047e-04   6.0862327e-05   1.3665354e-04  -7.3243988e-05   2.5171207e-04   3.4859000e-05  -2.2610612e-04   6.8190834e-04  -1.4729762e-03   6.6803454e-04   1.3415920e-04  -7.4254334e-05   1.5324868e-04  -7.7867560e-04  -3.1771898e-04   4.6591304e-05  -3.5973528e-04  -2.1516088e-04  -4.6846198e-04   9.3094795e-06   9.5604680e-04  -9.9788034e-05  -6.6413009e-04   1.1440071e-03   3.2236104e-04   1.9588470e-04  -3.9993654e-04  -2.2235891e-04   9.3861418e-05  -1.2554681e-03   1.7703984e-04   6.1110547e-04   1.6406177e-04  -6.9277548e-06  -9.0575566e-05   1.6469847e-04   1.1858034e-04   1.6636395e-05  -3.8797164e-04  -7.7805668e-04   1.3169406e-03   1.4106371e-03
   3.9070957e-05  -4.1724977e-04  -2.1005225e-04   3.6475327e-04  -4.9134402e-04  -5.2097533e-04  -2.2190341e-04  -4.3371847e-04  -3.8392184e-04  -2.2054544e-04  -1.9741282e-04  -2.7107113e-04  -4.1529380e-05  -1.2559131e-04  -2.8698554e-04   4.0313805e-04  -1.6623156e-03  -1.7726966e-04  -1.7045320e-04  -4.3379271e-04  -9.5458017e-05  -7.1713689e-04  -4.5225947e-04  -1.2298430e-04  -1.7290197e-04  -3.0730892e-04  -4.7526753e-04   2.9838347e-06   1.1429359e-04  -1.8062010e-04  -1.0627317e-03   2.4978942e-04   2.3872119e-04  -1.7003951e-05  -5.0301570e-04  -5.5869640e-04  -6.5491287e-05  -1.9852391e-03  -2.6069608e-04   2.3282565e-04  -1.6962718e-04   9.0151210e-05  -3.0839737e-04  -1.5619262e-04   1.0039675e-04  -2.9122357e-05  -3.4235686e-04  -5.5056688e-04   1.0719409e-03   1.2036983e-03
   1.1462078e-04  -4.0894756e-05  -6.2172978e-05   3.3858913e-04  -2.1305251e-04  -2.1086006e-04   5.8497258e-06  -1.5673996e-04  -6.2162235e-06   8.7110631e-05  -1.1052946e-05   9.6150889e-06   1.4845120e-04   1.0699449e-04  -4.6474452e-06   3.6527077e-04  -1.2708544e-03  -5.8504293e-04   9.4901436e-05  -1.1342176e-04   1.6234118e-04  -2.9685604e-04  -1.3025798e-04   1.4467908e-04  -8.6282562e-06  -5.1214834e-06  -2.4904104e-04   1.1186615e-04  -2.1406982e-04   2.9240435e-05  -6.7851582e-04   2.9959271e-04   5.1720795e-04   3.0247355e-04  -1.4237409e-04  -5.9111597e-05   1.6477828e-04  -1.9543327e-03   1.7755650e-04   6.8734249e-04   4.2430958e-04   3.9920097e-04   5.7968288e-04   2.1026703e-04   1.7190738e-05   5.5649412e-05  -2.9429430e-04  -2.4550414e-04   1.0439804e-03   1.1746584e-03
   1.4699806e-04  -3.7570866e-05   4.4498855e-05   3.3528567e-04  -2.4320759e-04  -2.5216295e-04  -1.4059676e-05  -1.7388670e-04  -3.7139773e-05   3.2126187e-05  -3.9933358e-05  -8.3127903e-05   3.1992669e-05   2.0512470e-04  -2.9712566e-05   3.6102554e-04  -9.3664980e-04  -4.8528987e-04   1.4626102e-04  -1.3224890e-04   7.9202855e-06  -3.4542460e-04  -1.2509112e-04   5.4022676e-05   5.0774997e-05   6.3353684e-05  -2.0394550e-04   5.1607502e-05  -2.4822250e-04  -2.9016679e-05  -3.8107770e-04   3.1276015e-04   3.4656373e-04   2.5641348e-04  -2.6641716e-04   9.3923773e-05   2.3526982e-05  -1.8509609e-03  -1.8133618e-05   3.8359809e-04   8.8264362e-04   5.9777038e-04   7.6239643e-04   7.6293145e-05  -2.1833136e-04  -6.4284337e-05  -4.8111888e-04  -1.0201464e-04   5.3984160e-04   8.2742894e-04
  -2.0663641e-04  -4.0767260e-04  -1.7777107e-04   7.6135831e-05  -4.3154359e-04  -5.4555567e-04  -3.0465823e-04  -2.7010505e-04  -3.8174493e-04  -2.3068262e-04  -2.7206689e-04  -3.2775028e-04  -1.3398597e-04   2.5237123e-05  -1.1079776e-04   2.2653572e-04  -1.1094458e-03  -6.2660978e-04  -9.4397234e-05  -4.1609089e-04  -2.1441584e-04  -5.0683506e-04  -2.7978158e-04  -1.5620465e-04  -1.4085938e-04  -6.5453896e-05  -2.6136890e-04   1.0085823e-04  -2.3716645e-04  -1.4311961e-04  -6.9711887e-04   4.2678341e-05   6.1609596e-04   2.5954575e-04  -1.5363045e-04  -7.5647135e-06  -1.1327633e-05  -1.8952428e-03   2.7284867e-05   5.2531733e-04   2.5897822e-04   7.5328379e-04   8.4943383e-04   1.8681242e-04  -7.4255062e-05  -7.8711701e-06  -2.4195419e-04   2.0868701e-04   9.3873590e-04   8.2842069e-04
   1.2530839e-04   9.7077202e-05   6.9922993e-05   5.1228021e-04  -5.4644741e-05  -8.9316294e-05   1.5074984e-04   3.1542717e-05   1.3116737e-04   1.5522901e-04   8.7515655e-05   4.1254043e-05   1.4635549e-04   2.3018992e-04   1.6759314e-04   3.9337616e-04  -1.0416521e-03  -6.8272278e-04   3.7285293e-04  -1.6545286e-05   1.6607337e-04  -1.2629309e-04   8.4385742e-05   2.3178279e-04   1.5133426e-04   2.2754398e-04  -8.6934837e-05   1.6645416e-04  -3.1602039e-04   5.9756814e-05  -6.1701628e-04  -4.1890711e-05   5.8433262e-04   5.7259150e-04   4.3836630e-05   1.8570210e-04   6.2405714e-05  -1.7949090e-03   5.4344771e-05   7.6192472e-04   5.8233686e-04   7.6112809e-04   4.4935930e-04   3.6282220e-04   1.4508161e-04   3.0574095e-04  -7.2744559e-05   3.1512577e-04   8.1705512e-04   8.0300088e-04
   2.0684865e-04   1.5877666e-04   1.3520340e-04   5.3302583e-04  -1.1938071e-05  -9.3177441e-05   1.2140402e-04   4.7436279e-05   8.7673026e-05   7.1660630e-05   1.1235414e-04   8.6408523e-05   1.5821816e-04   2.1779499e-04   1.3036143e-04   3.4318931e-04  -1.1950565e-03  -7.5036660e-04   1.3725122e-04  -1.3207355e-04   1.1304650e-04  -4.1582887e-05   1.0850010e-04   2.2881996e-04   1.2411580e-04   1.5206494e-04  -8.8415567e-05  -1.4006288e-04  -3.4056872e-04  -3.9542456e-06  -8.1800565e-04  -1.5097499e-04   7.2568993e-04   5.1527930e-04  -3.0669573e-05  -1.4705467e-05  -3.5047738e-05  -1.7941329e-03   5.2850239e-05   4.9146207e-04   1.3529019e-04   3.9889847e-04   2.5356220e-04   1.5106153e-04  -1.2327151e-04   1.0129284e-04  -7.4569478e-05   2.8846907e-05   3.6920258e-04   5.2768120e-04
  -6.7348112e-05  -1.2447094e-04  -1.0046927e-04   2.8561382e-04  -1.6637018e-04  -3.2843361e-04  -2.0314948e-04  -1.5923998e-04  -1.0043370e-04  -1.8366457e-04  -7.9252095e-05  -7.7347133e-05  -1.4305981e-05   1.8146944e-05  -4.1279240e-05   2.0342841e-04  -1.4040698e-03  -8.7077700e-04  -7.5207649e-06  -4.0104377e-04  -9.2864590e-05  -2.6460190e-04  -1.3332542e-04   5.2811483e-05  -1.1492700e-04  -2.7698585e-05  -9.8591685e-05   1.6698650e-04  -3.7312697e-04  -1.3164020e-04  -9.2556124e-04  -1.7643081e-04   5.6754157e-04   3.2027520e-04  -1.2849596e-04  -1.1772804e-04  -2.0972786e-05  -1.6870023e-03   1.8938061e-05   4.6101509e-04   6.7677953e-05   3.3758167e-04   8.1325503e-05   3.3496474e-04   1.9478973e-04   2.9716478e-04  -2.3781759e-05   9.4166120e-05   7.2883890e-04   6.8888930e-04
   2.5041623e-04   2.8119792e-04   1.3838297e-04   6.4900238e-04   1.2276009e-04   1.0628672e-04   2.3805902e-04   9.4448114e-05   1.6596851e-04   1.9121690e-04   2.4444418e-04   2.0578186e-04   2.5608114e-04   2.6104579e-04   2.2790175e-04   4.1007280e-04  -1.1933114e-03  -8.2625396e-04   4.1653967e-04   2.1369503e-06   2.5610934e-04   1.5063556e-04   1.7242224e-04   4.0658729e-04   3.2206913e-04   3.0574028e-04   8.6420048e-05   2.9817484e-05  -3.5128221e-04   1.2991106e-04  -7.0517947e-04  -5.0105624e-05   1.1478359e-03   8.0762763e-04   2.2949491e-04   2.4441880e-04  -1.7778630e-05  -1.6455079e-03  -1.0439176e-06   6.7305285e-04   2.5765790e-04   4.0349868e-04   2.8302273e-04   3.8450470e-04   2.9267717e-04   4.5611663e-04   4.6498637e-05   2.3839681e-04   8.3281059e-04   7.5802690e-04
   3.7254486e-04   3.5416070e-04   2.6192071e-04   6.6625420e-04   1.5984135e-04   1.5285694e-05   2.2379003e-04   1.6938902e-04   1.7276805e-04   1.4003701e-04   2.4324571e-04   1.8807546e-04   2.4349769e-04   3.1245846e-04   2.6377899e-04   4.2480399e-04  -9.5333200e-04  -6.9794891e-04   3.0942127e-04  -2.0576148e-05   1.2281658e-04   1.0650827e-04   1.7766438e-04   3.9246544e-04   1.1179623e-04   2.4609407e-04   5.8148689e-05  -3.5577774e-05  -4.4058677e-04   1.5528908e-04  -5.5120682e-04   2.5506448e-05   7.8963052e-04   6.3586165e-04   1.7897641e-04   2.9672598e-04  -4.7394584e-05  -1.7108914e-03   1.3476099e-04   6.7729881e-04   1.5186924e-04   5.0277734e-04   6.4520416e-04   4.0797255e-04   1.6306867e-04   2.1345136e-04  -8.1184626e-05   1.8272323e-04   4.1371514e-04   5.5365666e-04
   6.0705657e-05   1.6847638e-05   2.4355906e-05   3.8834949e-04  -7.0536546e-05  -2.3392681e-04  -1.1646331e-04  -4.4632525e-05   8.5666921e-05  -1.1976581e-04   2.6641015e-05  -2.5151432e-05   7.2308787e-05   1.7949090e-04   6.2524239e-05   2.6976477e-04  -1.1537214e-03  -8.4657629e-04   9.7726726e-05  -2.8993189e-04  -1.1633084e-04  -8.7172441e-05  -5.0819515e-05   2.3976732e-04  -1.4245542e-05   3.6320609e-05  -8.2593411e-05   1.8927625e-05  -5.8365881e-04   3.7476388e-05  -7.2770310e-04  -1.2196423e-04   4.6315658e-04   4.6775222e-04   3.8175053e-06   2.3336215e-05  -1.5453121e-04  -1.8084774e-03   1.1750037e-04   4.2524518e-04   1.7308020e-04   5.9305970e-04   5.5763446e-04   3.8554549e-04   6.0979448e-05   1.5049637e-04  -6.8134000e-06   2.1087748e-04   6.5075350e-04   7.2714721e-04
   2.4887602e-04   2.8971583e-04   1.4400725e-04   6.2766013e-04   1.2220793e-04   6.8737281e-05   2.4352978e-04   1.4042560e-04   2.8905796e-04   1.5185488e-04   2.5472889e-04   1.7028718e-04   3.0779952e-04   3.4503936e-04   2.4570434e-04   3.6951821e-04  -1.1234147e-03  -9.1732782e-04   4.9294840e-04   4.8066603e-08   1.9025174e-04   1.6642375e-04   3.3245972e-04   5.7738199e-04   2.1996570e-04   2.4089905e-04   1.3611576e-04   6.8750705e-05  -5.6035252e-04   2.7847273e-04  -7.0195575e-04  -1.0224591e-04   8.6296716e-04   7.6708285e-04   1.8803467e-04   4.1240535e-04   6.9685106e-05  -1.7920429e-03   3.3138366e-04   9.5673796e-04   5.4859160e-04   7.9998950e-04   6.8408716e-04   7.1902818e-04   2.8044841e-04   6.1808084e-04   1.5573949e-04   4.6998780e-04   7.3156733e-04   8.3335821e-04
   3.9573622e-04   4.1028758e-04   2.4205499e-04   7.0002303e-04   2.0974781e-04   1.3319323e-04   2.6224813e-04   2.1461686e-04   3.5123894e-04   1.9763241e-04   3.5441670e-04   2.5796602e-04   3.2331998e-04   4.0221945e-04   2.0571459e-04   3.9055105e-04  -1.2357888e-03  -9.1798574e-04   4.5160062e-04  -6.3501176e-07   2.0072763e-04   2.1899043e-04   3.0915634e-04   6.1517151e-04   4.1688085e-04   2.4443460e-04   1.3651470e-04  -1.2139510e-04  -5.5320759e-04   2.5193763e-04  -8.0726051e-04  -1.0511826e-04   1.0530190e-03   7.8110391e-04   2.4031935e-04   3.9294665e-04   1.2063329e-04  -1.7094343e-03   2.3801773e-04   7.1062334e-04   4.2793507e-04   6.9324241e-04   5.5295322e-04   2.5240582e-04   1.9126556e-04   1.6520417e-04   1.0418577e-04   3.1675800e-04   5.2585365e-04   6.4169330e-04
   1.7781006e-04   1.8823300e-04   5.7551551e-05   4.9930444e-04   4.6588793e-05  -3.0597665e-05   8.1821032e-05   2.9347748e-05   9.5392432e-05   5.2182520e-05   2.0731578e-04   8.7222899e-05   2.1701881e-04   2.2021428e-04   1.2230531e-04   2.7087922e-04  -1.4933032e-03  -9.6412515e-04   2.5904874e-04  -2.3191770e-04   1.5798465e-05   3.2105781e-05   6.3895197e-05   4.9581472e-04   7.9251440e-05   2.0586987e-05   2.4318668e-05   3.1790566e-06  -5.6670193e-04   9.5140771e-05  -1.0549534e-03  -1.8585331e-04   9.0099528e-04   5.7526003e-04   1.2636519e-04   3.1051657e-04  -6.7805689e-05  -1.7187032e-03   2.4927541e-04   7.8053639e-04   4.8846664e-04   5.8271049e-04   4.5586866e-04   7.0606818e-04   2.4770939e-04   6.7494722e-04   1.7127780e-04   3.2197888e-04   8.6517795e-04   8.5563562e-04
   4.7007223e-04   5.1542267e-04   2.4179864e-04   8.3411724e-04   3.1154085e-04   3.3595893e-04   4.5897314e-04   2.4484936e-04   5.7411683e-04   3.9712703e-04   4.7684021e-04   3.2105696e-04   4.8863963e-04   4.5463938e-04   2.8650748e-04   4.5962757e-04  -1.3582296e-03  -9.7483979e-04   6.5756071e-04   1.5894485e-04   3.3507092e-04   4.5740133e-04   4.5749085e-04   8.0476917e-04   5.1139964e-04   2.9194797e-04   1.5001943e-04  -7.5067081e-05  -5.6763610e-04   2.9941191e-04  -8.8511611e-04  -2.2907229e-04   1.0813117e-03   8.5785950e-04   3.9252793e-04   4.6614229e-04   2.6011950e-05  -1.7703737e-03   3.3894664e-04   9.8052411e-04   6.9575844e-04   7.4698759e-04   6.8231585e-04   7.1018509e-04   4.4088968e-04   5.1529857e-04   2.3820027e-04   4.9568998e-04   8.5111801e-04   8.4092497e-04
   4.7957373e-04   4.9918646e-04   2.7433169e-04   7.6829619e-04   2.6754534e-04   2.5749186e-04   3.4273154e-04   2.0508865e-04   5.0812500e-04   3.3642841e-04   4.3119432e-04   2.2093176e-04   3.8709366e-04   4.9414602e-04   2.6691137e-04   4.2573755e-04  -1.3166359e-03  -9.7561546e-04   4.9501786e-04   6.4307904e-05   1.8911045e-04   4.3188166e-04   3.0285746e-04   7.0020813e-04   3.5492930e-04   2.0234133e-04   1.7982320e-04  -1.4184852e-04  -5.4912380e-04   2.8501090e-04  -9.3976315e-04  -1.9295306e-04   1.0225724e-03   7.8620750e-04   3.0363031e-04   4.4261981e-04  -1.2264708e-04  -1.7835137e-03   3.4699982e-04   8.3169091e-04   5.9923198e-04   6.3535641e-04   7.3805731e-04   3.8253516e-04   1.7783818e-04   2.6724287e-04   8.2485829e-05   2.7990274e-04   4.2679562e-04   6.3147652e-04
   1.5631027e-04   1.7549239e-04   8.1802691e-06   5.0603057e-04   4.4737630e-05  -1.6647666e-05   1.1874233e-04   1.3440303e-04   1.8529774e-04   1.1284181e-04   2.6412803e-04  -1.7275543e-05   1.4795369e-04   2.4975193e-04   1.7568884e-04   2.8837333e-04  -1.4592446e-03  -9.5574307e-04   3.4420108e-04  -2.0599058e-04  -4.2009844e-05   1.8492901e-04   7.1416871e-05   4.6892642e-04   3.5238249e-04  -3.8643113e-05  -1.3377836e-04  -1.5112611e-05  -5.1974558e-04   1.4730811e-04  -9.7724062e-04  -2.5069909e-04   6.7647785e-04   5.3054543e-04   8.8113135e-05   2.3290112e-04   8.7191125e-05  -1.6304340e-03   2.7835873e-04   7.3263218e-04   5.9808622e-04   6.0235371e-04   4.3877854e-04   5.3085736e-04   2.4286669e-04   2.0663565e-04   1.7142827e-04   3.6445976e-04   7.4283610e-04   7.6171249e-04
   3.8445092e-04   5.1809585e-04   1.6148035e-04   8.2646526e-04   2.9045396e-04   3.2792753e-04   5.0029473e-04   2.6647438e-04   5.8439304e-04   4.9371825e-04   5.0000526e-04   2.3964609e-04   4.5704114e-04   4.7199699e-04   2.6514471e-04   4.4682610e-04  -1.3408588e-03  -9.1416942e-04   6.8768469e-04   1.4699034e-04   2.8052274e-04   5.6541065e-04   4.5130105e-04   7.7359099e-04   2.2225112e-04   2.4848108e-04   2.5622541e-04  -6.0446517e-05  -4.9783377e-04   3.3818334e-04  -8.8760047e-04  -4.3407428e-05   1.2630519e-03   8.8393205e-04   2.7175702e-04   5.8146036e-04   1.2247171e-04  -1.5421644e-03   3.8866297e-04   1.0390080e-03   7.9181086e-04   7.4747042e-04   6.8821828e-04   5.7175895e-04   4.1695393e-04   3.6959711e-04   2.9540347e-04   3.9256108e-04   8.8391686e-04   7.5987971e-04
   4.9134193e-04   5.7912600e-04   2.2123424e-04   8.7189378e-04   3.4528525e-04   3.4601544e-04   4.9278798e-04   2.4695008e-04   4.7032017e-04   4.3162683e-04   5.4035190e-04   2.6962988e-04   4.8390898e-04   4.6045519e-04   2.7726556e-04   4.2851968e-04  -1.3366371e-03  -8.6251873e-04   7.0137030e-04   7.4847361e-05   1.7208217e-04   5.0308183e-04   3.6539335e-04   7.6257036e-04   4.9332192e-04   1.7839823e-04   2.2466890e-04  -7.7855198e-05  -4.9093139e-04   2.7742403e-04  -9.3302585e-04  -1.5564008e-04   1.1475267e-03   6.6338980e-04   2.5428340e-04   3.3780414e-04   6.1643979e-05  -1.5843944e-03   2.0758559e-04   7.8097993e-04   2.8506602e-04   5.6943303e-04   4.2414843e-04   5.3730671e-04   2.4126937e-04   2.5985108e-04   1.3810444e-04   1.8930154e-04   5.4741802e-04   5.2702369e-04
   1.9084018e-04   2.7179159e-04  -1.9970291e-06   5.7025719e-04   1.1241372e-04   1.4521442e-04   1.9721185e-04   1.5651110e-04   2.6384002e-04   1.5045919e-04   3.0048148e-04   5.4536904e-05   2.8317483e-04   2.7598665e-04   1.2644884e-04   2.8123331e-04  -1.3852781e-03  -8.7597669e-04   3.5668546e-04  -1.6914120e-04  -9.6389231e-05   2.2116021e-04   1.2779537e-04   4.8325676e-04   4.8597511e-05  -4.0684616e-05  -1.3477034e-05  -8.4653038e-05  -5.8267586e-04   1.4004920e-04  -9.4998622e-04  -3.4104087e-04   4.7814540e-04   4.6198725e-04  -9.7187658e-05   8.4329091e-05  -1.6225109e-04  -1.6327794e-03   3.5282563e-05   3.0522776e-04   1.3579236e-04   3.3987866e-04   1.5715680e-04   1.3485653e-04  -1.7605897e-04   1.3450021e-04  -2.8355342e-05  -3.7811467e-05   5.4134242e-04   3.9760504e-04
   1.7444014e-04   3.4466013e-04  -6.0856355e-06   6.8641384e-04   1.9849767e-04   3.0614916e-04   3.8367376e-04   1.8806764e-04   5.3971418e-04   3.2545760e-04   4.1132662e-04   1.5023792e-04   3.4786577e-04   3.4108965e-04   1.9966792e-04   3.1651626e-04  -1.3480805e-03  -9.0195664e-04   4.8548097e-04   9.4983970e-06   1.0146509e-04   3.8163096e-04   2.8252564e-04   6.1702746e-04   1.3417240e-04   8.7383472e-05   1.7646221e-04   1.9892519e-05  -5.2989920e-04   2.7530131e-04  -8.6959830e-04  -2.9221439e-04   7.6936075e-04   6.7397760e-04   2.5551676e-04   4.7972432e-04   8.1589809e-05  -1.5716093e-03   2.1284376e-04   9.7518152e-04   8.2985498e-04   5.2231911e-04   3.7221843e-04   6.9382600e-04   4.1121442e-04   3.6581530e-04   1.0905640e-04   1.9141621e-04   7.9689157e-04   5.3070602e-04
   3.3893803e-04   5.1999273e-04   8.5014944e-05   8.3481014e-04   2.9544311e-04   3.9406584e-04   4.8215271e-04   3.2067747e-04   4.3313747e-04   2.8586414e-04   4.5087171e-04   2.3806767e-04   4.3124778e-04   3.5492369e-04   1.6523270e-04   3.3692579e-04  -1.3742518e-03  -8.9174294e-04   5.9266458e-04  -4.1851159e-05   5.5819692e-05   3.7152795e-04   3.3416811e-04   6.2418845e-04   2.3965156e-04   5.8951071e-05   1.6307679e-04  -2.3767655e-04  -4.9706287e-04   2.4068746e-04  -9.8051399e-04  -3.7010817e-04   9.9789852e-04   5.4293667e-04   1.1067129e-04   2.2046367e-04  -1.6537147e-04  -1.6256620e-03   2.2185865e-04   5.6034490e-04   2.7264262e-04   4.3378375e-04   1.1584396e-04   3.1818534e-04   1.8933615e-04   3.6003563e-04   1.9376807e-06   1.7979248e-05   5.5630232e-04   4.5543496e-04
   1.2331811e-04   3.0849321e-04  -9.5713280e-05   6.3217187e-04   9.4063202e-05   1.9740280e-04   1.9626284e-04   1.0675057e-04   1.5910818e-04   5.2293104e-05   2.8325742e-04   9.1056398e-05   2.1334876e-04   1.8378184e-04   6.9775292e-06   2.0984508e-04  -1.5682873e-03  -1.0154760e-03   2.4602181e-04  -2.9596672e-04  -1.1669989e-04   1.2934835e-04   1.1309025e-04   5.0589320e-04   1.4618707e-04  -9.8533623e-05   4.5997463e-06  -1.4397375e-04  -6.2822574e-04   8.8327892e-05  -1.1911230e-03  -5.1722373e-04   7.7897130e-04   3.2356032e-04  -6.5050626e-05  -1.2585668e-04  -9.7334138e-05  -1.6668842e-03   9.2529372e-05   2.2767611e-04   3.7118813e-04   1.1716656e-04  -2.0291732e-04  -1.4023136e-06  -1.1872089e-04  -2.2407972e-04  -2.3243364e-04  -3.0419804e-04   1.4928132e-04   1.1665503e-04
  -1.5991477e-04   5.9444359e-05  -2.6066825e-04   5.1865558e-04   3.9323750e-05   1.6665718e-04   2.0876154e-04   1.1098442e-04   1.4233905e-04   7.8893230e-05   2.6968482e-04   7.4343799e-05   2.5317093e-04   1.5179695e-04   2.3426121e-05   1.9374747e-04  -1.6196701e-03  -1.0287233e-03   4.9265678e-04  -2.0022536e-04   6.0120550e-05   2.0998383e-04   2.4130176e-04   5.2364805e-04   2.3231251e-04   2.0904441e-05   1.4294834e-04  -4.5029319e-05  -6.5168249e-04   1.8193967e-04  -1.1732035e-03  -4.8680449e-04   6.8474648e-04   3.7059400e-04   1.4224609e-04   2.5570407e-04  -6.8809786e-05  -1.6019932e-03   1.9023831e-04   6.8530662e-04   2.2100545e-04   2.4170653e-04  -1.8570781e-05   5.2230753e-04   2.1909553e-04   2.1293260e-04  -4.0754137e-05  -1.4708037e-04   7.2564167e-04   4.3782397e-04
   1.8712496e-04   4.7300337e-04  -7.1042959e-05   7.8757596e-04   2.0733237e-04   2.3633287e-04   3.6053130e-04   1.9284354e-04   2.8467600e-04   1.4893913e-04   3.2377642e-04   1.6948943e-04   2.7842971e-04   1.9344379e-04   4.1961754e-05   2.3923829e-04  -1.5377814e-03  -1.0170341e-03   5.4168236e-04  -1.9254316e-04   7.8844525e-05   2.6118039e-04   1.8501900e-04   4.9079751e-04   2.4185787e-04   1.2895256e-05   8.5172098e-05  -3.0277279e-05  -5.9573131e-04   1.3875045e-04  -1.1423471e-03  -5.2673585e-04   6.7112676e-04   2.8662663e-04   7.2162016e-05   6.3580024e-05  -3.0224443e-05  -1.5821458e-03   1.4074448e-04   4.4495551e-04   4.7757560e-05   6.3982690e-05  -3.2583927e-04   3.6086529e-04   7.1202165e-05   1.2262016e-04  -1.6849660e-04  -2.1259174e-04   5.1610149e-04   2.3258626e-04
  -2.1930347e-05   2.6897871e-04  -2.1007382e-04   5.8867160e-04   5.2581378e-05   7.5572614e-05   1.6766124e-04   3.4187090e-06   4.4762495e-05  -3.5632296e-05   1.5965656e-04   4.1258983e-05   8.4148480e-05   4.9999311e-05  -2.2693863e-05   9.9590521e-05  -1.6414290e-03  -1.0298800e-03   2.3065074e-04  -4.1989022e-04  -1.0271010e-04   1.7720551e-05  -2.7255512e-05   3.2959640e-04  -1.1626281e-04  -1.6140427e-04  -9.7721531e-06  -8.3838393e-05  -6.0404948e-04  -2.5504534e-05  -1.2496735e-03  -6.0902501e-04   4.7016476e-04  -2.8478071e-05  -2.6740134e-04  -9.8986166e-05  -3.7680313e-04  -1.5956284e-03  -1.9364407e-04   2.7168967e-04  -5.0480384e-04  -2.0629467e-04  -5.3223385e-04  -3.2873570e-05  -4.1325382e-04  -3.1761557e-04  -3.9656644e-04  -5.8365788e-04  -5.5155964e-05  -1.6602248e-04
  -4.0132698e-04  -1.4530898e-04  -5.2021368e-04   2.6449090e-04  -1.8069417e-04  -2.0662139e-04  -1.6526393e-04  -7.6169061e-05  -1.7491389e-04  -2.4509896e-04  -8.2506835e-05  -1.7772698e-04  -4.0498759e-05  -1.4909066e-04  -1.7247950e-04   1.6951553e-05  -1.6951530e-03  -1.0659972e-03   1.9431859e-04  -4.1469713e-04  -3.6698140e-05   2.2076583e-05  -2.2767199e-06   2.8609575e-04  -7.2180112e-05  -1.3107303e-04  -3.9926148e-05   1.4822304e-04  -5.7842938e-04   1.0045242e-04  -1.1824411e-03  -6.4612727e-04   4.2059214e-04   2.0086428e-04  -7.9144957e-05   2.7716116e-05  -1.2043402e-04  -1.5258017e-03  -6.4459353e-05   3.8056407e-04   2.7154170e-05  -1.0208206e-04  -4.0947323e-04   2.0474193e-04   4.7207886e-05   1.0596630e-04  -2.3932083e-04  -3.1397832e-04   5.9906160e-04   2.6046045e-04
   1.1057638e-04   4.6936463e-04  -1.3850194e-04   7.9258607e-04   1.8653435e-04   3.5964060e-04   3.9350885e-04   2.5909307e-04   2.0504289e-04   1.2019667e-04   2.4785355e-04   1.3772206e-04   1.7225639e-04   4.7121786e-05   5.3918502e-05   1.1660290e-04  -1.5826963e-03  -1.0513351e-03   3.7129567e-04  -2.7879517e-04   7.6781682e-05   1.6493433e-04   1.4761489e-04   4.3708834e-04   2.1870119e-04  -2.7727072e-05  -6.7376546e-05  -6.4439919e-05  -5.8446580e-04   3.1041593e-05  -1.2178348e-03  -6.2897010e-04   7.1892265e-04   2.8211379e-04   5.3366570e-05   4.4504534e-07  -1.9258421e-04  -1.4979570e-03  -4.9566155e-05   4.3305199e-04  -2.3543098e-04  -1.4576265e-04  -3.2086359e-04   2.0683093e-04  -5.0431343e-05   4.4277695e-05  -2.9073673e-04  -4.1941219e-04   3.8131521e-04   1.8536769e-04
  -4.9285234e-05   3.1083293e-04  -2.1224619e-04   6.2343205e-04   2.7982365e-05   5.1050356e-05   1.2753360e-04   4.6896756e-05   5.1199961e-05  -2.5511141e-05   1.1709685e-04   2.2581828e-05   8.0479069e-05  -8.6097585e-05  -6.0732415e-05   4.9557391e-05  -1.5832112e-03  -1.0108954e-03   1.3424076e-04  -4.2202551e-04  -7.1320697e-05   4.5581815e-05  -1.9525423e-05   2.6057308e-04   1.8602208e-05  -1.3678121e-04  -1.0388998e-04  -1.2966592e-04  -5.5653212e-04  -8.1997452e-05  -1.1561189e-03  -6.3215988e-04   5.2339118e-04   7.2799419e-05  -2.2426204e-04  -3.1900196e-04  -1.8691536e-04  -1.5541819e-03  -1.0969053e-04  -6.1652900e-06  -6.4303225e-05  -2.4840367e-04  -5.4111896e-04  -1.9163229e-04  -5.3256383e-04  -2.8146477e-04  -5.1186071e-04  -6.7881291e-04  -1.2857097e-04  -2.8204621e-04
  -3.6535357e-04  -1.2192926e-04  -4.8038492e-04   2.4014908e-04  -2.3488891e-04  -2.3468203e-04  -2.1601509e-04  -1.9616248e-04  -3.3495369e-04  -3.1297171e-04  -1.4622885e-04  -2.5663181e-04  -1.5258674e-04  -2.5618533e-04  -2.9803283e-04  -1.3071347e-04  -1.6317778e-03  -1.1133276e-03  -1.3650593e-04  -6.9488189e-04  -3.1651490e-04  -1.9331637e-04  -1.8325158e-04  -3.7565944e-06  -1.9347882e-04  -3.9712363e-04  -3.1879090e-04  -7.5609954e-05  -7.4412819e-04  -1.9970341e-04  -1.2918841e-03  -8.5902872e-04   1.4025661e-04  -2.1613666e-04  -3.6441002e-04  -3.5889613e-04  -2.7915023e-04  -1.8017404e-03  -6.7614914e-05  -2.6424703e-05  -2.6686609e-04  -2.2011607e-04  -4.7794147e-04  -4.2487136e-05  -2.5519449e-04  -3.1259816e-04  -4.4830088e-04  -4.6980809e-04   2.9865961e-04   6.3741456e-05
  -1.2402571e-04   2.3847941e-04  -2.0459092e-04   5.0734333e-04  -4.9922641e-05   1.1571781e-04   1.0646049e-04   5.9278758e-05   1.2236138e-04   1.5471116e-04   1.0511320e-04  -5.5943186e-05   4.3714288e-05  -6.9792048e-05  -4.6348341e-05  -5.4925185e-06  -1.3994420e-03  -1.3349209e-03   2.6152754e-04  -2.7766571e-04  -4.7834917e-05   1.2237749e-04   2.3138960e-05   3.5428657e-04   1.2357816e-05  -1.5327160e-04  -1.7309288e-04  -2.0748908e-04  -1.1277995e-03   5.4497938e-05  -1.2468362e-03  -9.6756313e-04   6.3219713e-04   1.4592665e-04   4.6681816e-05  -5.2311098e-05  -3.6887481e-04  -2.2971630e-03   8.6281601e-05   1.6628919e-04  -6.0920509e-05   1.4862734e-05  -8.3929830e-05   4.3704693e-04  -2.8853738e-04   2.5593030e-04  -3.7675627e-04  -2.8041846e-04   3.4791572e-04   2.7839307e-04
  -2.2623809e-04   1.1186938e-04  -6.9135720e-05   2.6989757e-04  -1.7022766e-04  -1.3305116e-04  -1.4450384e-04  -9.0649737e-05  -1.1056833e-04   1.9362981e-04  -5.6022265e-05  -1.2979559e-04  -3.4532080e-05  -1.5180538e-04  -1.0330324e-04   3.5408131e-05  -4.3266139e-04  -6.0547440e-04   3.1199478e-04   1.4110042e-05  -2.3281177e-04   2.0075667e-04  -1.4223841e-04   1.4420576e-05   1.2070210e-04   1.1555204e-04  -2.3320146e-04  -7.8622077e-04  -4.8216380e-04  -1.7335647e-04  -1.5651563e-04  -3.6878747e-04   6.4368604e-04   5.5447159e-05  -1.9047984e-04  -2.0541082e-04  -8.4416050e-04  -1.1344077e-03  -2.9748652e-04  -8.7230561e-05  -2.1763399e-04  -1.3990917e-04  -2.4154870e-04  -3.3458065e-05  -4.5999628e-04  -4.7612702e-05  -5.9407682e-04  -5.2099850e-04  -1.5400442e-04  -7.2353025e-05
  -7.0011651e-04  -4.7679816e-04  -2.7950248e-04  -3.5299736e-04  -4.9809820e-04  -5.0430349e-04  -6.8686891e-04  -5.2146980e-04  -6.7433208e-04  -1.6432004e-04  -5.0964707e-04  -4.8190964e-04  -4.3775607e-04  -4.6084245e-04  -3.3744282e-04  -1.4171714e-04  -9.4803705e-05  -3.2913306e-04  -1.0377681e-04  -1.8357876e-04  -5.3350662e-04  -1.1598296e-04  -4.7294906e-04  -3.5699829e-04  -3.7885681e-04  -9.1123286e-05  -3.6997485e-04  -1.0991814e-03  -7.3093286e-04  -4.0627024e-04  -2.4705328e-04  -6.3907157e-04   1.5725686e-04   6.6102425e-06  -2.9295962e-04  -3.0585329e-04  -9.6212211e-04  -1.4389711e-03  -3.6239161e-04  -4.2980760e-06   4.1795480e-05  -3.3485376e-05  -6.5814544e-05   2.9028259e-04  -5.5921968e-04  -8.6368069e-05  -5.0523668e-04  -3.0702446e-04   1.7170359e-04   1.4049541e-05
  -4.7882125e-04  -1.0864157e-04  -1.0539514e-04  -6.2009130e-05  -2.8315731e-04  -2.0769240e-04  -4.0539686e-04  -4.6161667e-04  -3.9687255e-04  -1.8090852e-04  -3.4988744e-04  -3.4651838e-04  -2.2459295e-04  -3.1065551e-04  -1.7888806e-04  -1.3825857e-05   7.7423465e-04   2.2088758e-04   5.6712117e-05   7.0253147e-05  -5.3180312e-04   1.0345616e-04  -1.7656446e-04  -4.0246840e-04  -3.6874193e-05   2.6843505e-04  -2.1301908e-04  -1.0511965e-03  -5.2763871e-04  -2.2151583e-04   3.1233265e-04  -2.6386496e-04   7.8141660e-05   2.8550517e-04  -1.2382204e-04  -1.1965504e-04  -9.1527402e-04  -1.2374292e-03  -2.7416018e-04  -9.7682750e-05  -1.0240210e-04   9.1566697e-05  -1.2175480e-04   1.4351476e-04  -3.7105480e-04  -1.4557719e-04  -5.1439367e-04  -1.7417637e-04   1.0318804e-04   4.5146811e-05
  -6.1382103e-04  -2.4616311e-04  -9.7824741e-05  -2.5280088e-04  -3.6976163e-04  -4.1803080e-04  -6.1364396e-04  -4.8974593e-04  -6.0698122e-04  -2.8992977e-04  -4.7839779e-04  -3.5200804e-04  -2.8585043e-04  -3.7394185e-04  -1.5028665e-04   4.6630132e-05   1.2685679e-03   8.4949075e-04  -3.0461181e-04   3.5723799e-05  -6.0596585e-04  -1.6049003e-04  -3.4436333e-04  -6.7170605e-04  -1.6388507e-04   3.1128820e-04  -2.8112301e-04  -1.1020999e-03   1.2420391e-04  -3.8477880e-04   7.8842952e-04   1.2680913e-04  -1.8251871e-04  -9.8977735e-06  -1.8507265e-04  -2.5365874e-04  -1.0214591e-03  -6.4224628e-06  -6.8183069e-04  -1.7748776e-04  -3.6241207e-04  -1.3833866e-04  -1.6350254e-04  -2.0437855e-04  -9.4514643e-04  -5.2825367e-04  -5.6657108e-04  -3.8788555e-04  -5.9155747e-04  -5.1891129e-04
  -8.9263904e-04  -7.6087390e-04  -3.7594457e-04  -7.1294757e-04  -6.4632099e-04  -7.6832675e-04  -1.0449792e-03  -6.5227394e-04  -9.7688928e-04  -4.1174932e-04  -6.7488791e-04  -5.8835710e-04  -4.5337234e-04  -5.1000476e-04  -3.6383281e-04  -6.3878302e-05   1.6677732e-03   1.3802017e-03  -3.6245803e-04   1.2885513e-04  -7.4058282e-04  -2.3638952e-04  -4.8928300e-04  -6.5227807e-04  -1.6480911e-04   2.9688072e-04  -2.3669189e-04  -7.9335325e-04   4.9350318e-04  -4.4015437e-04   1.0353137e-03   5.0423393e-04  -1.8493974e-04   1.5252502e-05  -2.1670540e-04  -2.9217001e-04  -9.1809779e-04   4.3273167e-04  -5.6224322e-04  -1.2527249e-04  -3.2971974e-04  -8.0850750e-06   1.4917385e-04  -2.6284147e-04  -7.6927751e-04  -4.9843284e-04  -5.0394755e-04  -3.1067618e-06  -6.9836002e-05  -1.3335519e-04
  -3.9418988e-04  -1.5723490e-04  -4.3577005e-05  -2.4281876e-04  -3.4518295e-04  -2.6772171e-04  -5.5178377e-04  -5.9681869e-04  -2.9370832e-04  -1.2418039e-06  -2.7893318e-04  -2.5218638e-04  -2.4776021e-04  -2.6992473e-04  -1.5534418e-04  -2.3789800e-05   1.1310196e-03   6.9095229e-04  -3.7450587e-05   1.6498441e-04  -5.6680263e-04  -1.9932998e-04  -1.0798530e-04  -3.0926682e-04  -3.5323643e-05   2.6868816e-04  -2.3732246e-04  -1.0021044e-03  -4.0445928e-05  -3.6736365e-04   3.6311231e-04  -1.9153451e-04   1.0348466e-04   1.6104059e-04  -1.9837449e-05  -7.3215640e-05  -9.2148071e-04  -2.5188923e-04  -2.9490737e-04   8.7083841e-05  -1.7101438e-04   1.6374835e-04   2.7822447e-05   1.7218292e-04  -6.1857892e-04  -3.5974314e-04  -2.3750513e-04   1.9231167e-04  -1.7775955e-04  -1.0856953e-04
  -4.7556160e-04  -2.6010358e-04  -2.1134394e-04  -2.7195748e-04  -3.6535962e-04  -4.0742286e-04  -6.0971809e-04  -5.6434673e-04  -4.4344855e-04  -1.5135980e-04  -2.9495102e-04  -2.9975825e-04  -2.6827893e-04  -2.5920660e-04  -2.0943065e-04  -3.2075652e-05   1.0504385e-03   7.2715688e-04  -2.9324440e-04   2.1877708e-05  -6.9378060e-04  -2.4557198e-04  -2.5007856e-04  -3.9201605e-04  -1.3629258e-04   1.7906381e-04  -1.6991283e-04  -9.6075964e-04   1.3373182e-05  -4.5833623e-04   5.7344494e-04   1.8285098e-04  -3.1196256e-04  -8.2054231e-07  -2.1999713e-04  -2.8595878e-04  -9.5792551e-04  -1.7479626e-05  -5.8224564e-04  -3.0467179e-04   4.3149830e-05   3.6966489e-05   1.6286134e-04  -3.6540983e-04  -9.4925414e-04  -6.0030119e-04  -4.4282971e-04   4.1435596e-05  -4.9314054e-04  -4.4641248e-04
  -5.0594530e-04  -2.6655951e-04  -2.1798458e-04  -1.6513969e-04  -2.4080226e-04  -2.1350560e-04  -3.4853353e-04  -3.7861886e-04  -1.7523092e-04  -5.2265354e-05  -1.4551273e-04  -1.5786551e-04  -2.1027467e-04  -1.6055987e-04  -1.4743078e-04   2.9201944e-06   5.3219812e-04   3.4037212e-04   1.3529527e-05   1.2389322e-04  -3.5925873e-04  -1.0827865e-04   7.1123199e-05  -3.6291440e-05   1.2249801e-04   2.7516452e-04  -1.1530118e-04  -8.1647566e-04  -3.5202454e-05  -2.8211673e-04   2.7154610e-04   1.4569271e-04   1.7212357e-04   2.8848133e-04   1.5536153e-06   1.2270975e-04  -6.5175496e-04  -2.2302246e-04  -2.7704236e-04   3.0744591e-04   1.6900625e-04   3.7547905e-04   6.0561084e-04   3.1584702e-04  -3.2228100e-04  -1.8384469e-04  -3.3630462e-05   5.2267686e-04   7.6147048e-06  -2.4826068e-05
  -9.3660266e-05   8.4255662e-05   5.5983346e-05   3.4348301e-05  -1.0223566e-04  -1.0757577e-04  -1.7579322e-04  -2.8967203e-04   4.5739225e-06   7.6669785e-05   2.3326364e-05  -1.4566309e-05  -1.6289241e-05   5.0116047e-05   1.3508674e-05   7.0639508e-05   4.6977343e-04  -7.9148222e-06   1.4142533e-04   2.7071085e-04  -3.1242188e-04   6.3517480e-05   1.7503227e-04   1.6411235e-04   2.2351333e-04   2.7434027e-04  -4.9190468e-05  -7.3721306e-04  -4.2597635e-04  -1.5299299e-04   1.8814567e-04   2.7717062e-05   2.4956022e-04   3.4349615e-04   1.6526681e-04   2.0868792e-04  -6.5264921e-04  -5.7574461e-04  -1.4744558e-04   2.4249050e-04   3.2161921e-04   5.7434523e-04   8.8943378e-04   8.6159183e-05  -5.1694788e-04   2.2827709e-04   1.0017347e-05   6.1548891e-04  -1.4481071e-04   4.9751219e-05
  -2.4624896e-04  -1.2457999e-04  -8.5344145e-05  -1.5406546e-04  -2.3144267e-04  -2.8752300e-04  -3.5220248e-04  -4.0693287e-04  -1.3174814e-04  -6.5122375e-05  -5.7820580e-05  -1.0847496e-04  -1.3825620e-04  -2.6092324e-05  -8.8672983e-05  -4.4524702e-05  -2.7721273e-05  -1.9232492e-04   5.9184738e-05   3.0613901e-05  -4.2139780e-04  -1.3350116e-05  -2.3605560e-05   8.9874353e-05  -1.4972205e-04   1.7660644e-04  -1.9074522e-04  -5.6629814e-04  -3.5284404e-04  -1.5147912e-04  -6.7777561e-05  -1.3826281e-04   2.7854563e-04   2.0248222e-04   1.4925809e-04   1.6067229e-04  -4.5715430e-04  -5.0542975e-04  -1.5303766e-04   3.0072316e-04   4.5839386e-04   6.7300658e-04   8.2138058e-04   2.6255893e-04  -3.2431868e-04   2.8838762e-04   1.5420080e-04   7.2794210e-04   2.2984440e-04   2.3085682e-04
   3.9952345e-05   1.7890801e-04   1.7984789e-04   1.2462362e-04  -5.8386008e-06   1.9955403e-05  -2.0820215e-05  -1.2219413e-04   2.3960203e-04   3.6362061e-04   1.4536201e-04   1.3992716e-04   1.4347583e-04   1.8580897e-04   2.0518260e-04   2.5557610e-04   8.6779968e-04   6.7709095e-04   4.3434618e-04   6.5316871e-04  -1.8243717e-04   4.3426556e-04   2.2298619e-04   1.8459269e-04   3.5141443e-04   5.7148782e-04  -1.9554723e-06  -6.8520725e-04   2.6856607e-04  -4.2733900e-05   6.5928383e-04   6.2913756e-04   4.9938372e-04   4.9590488e-04   3.2514898e-04   3.4499454e-04  -5.4008968e-04   2.0555379e-04  -4.4203192e-05   4.0872299e-04   6.6331535e-04   6.5103499e-04   9.2605327e-04   2.5432426e-04  -1.5369467e-04   3.7456906e-05   2.4693331e-04   7.5987703e-04   5.1502691e-05   2.8136111e-04
   1.0046730e-05   7.4645635e-05   1.6989619e-04   1.8007084e-05  -4.3757362e-05  -3.9088303e-05  -1.4116465e-04  -1.9721904e-04   1.4229886e-04   2.5361701e-04   9.5714866e-05   5.6999594e-05   6.7417292e-05   1.7021908e-04   1.1734549e-04   1.4503524e-04   4.3295443e-04   2.8621918e-04   3.0376224e-04   4.1337017e-04  -3.2096248e-04   2.1556868e-04   2.4115264e-04   2.1487180e-04   1.3474895e-04   3.9724808e-04  -1.2991665e-04  -6.1527494e-04  -8.7681052e-05  -4.4293251e-05   3.5350607e-04   3.2079648e-04   2.7981022e-04   3.9658483e-04   6.1865554e-05   1.1920928e-04  -3.7620636e-04  -2.0952044e-04  -1.8355482e-04   2.2530834e-04   7.6613727e-04   7.2635844e-04   9.7449840e-04  -6.5823289e-05  -2.7666389e-04  -1.8036527e-04   1.2491469e-04   8.0359163e-04  -2.6597100e-04   1.3176537e-04
  -2.9873822e-04  -2.4281145e-04  -6.7984780e-05  -1.8352052e-04  -1.4826609e-04  -1.6906738e-04  -2.3088808e-04  -1.8594811e-04   1.2175462e-04   1.7093426e-04   4.2950538e-05  -2.2932429e-05   8.9624613e-05   1.4826532e-04   1.1578648e-04   2.0007562e-04   4.5651360e-04   4.7783891e-04   4.9023383e-04   5.5916636e-04  -2.1447644e-04   3.0885750e-04   2.1944281e-04   2.1263583e-04   2.6916977e-04   5.3205719e-04  -4.2196848e-06  -4.4878916e-04   2.9758099e-04   2.4043167e-05   6.1381696e-04   5.7781674e-04   3.6142609e-04   5.9225311e-04   3.3310521e-04   3.6989289e-04  -2.5643449e-04   3.5835369e-04   7.5934811e-05   5.7383609e-04   5.2760832e-04   7.4482174e-04   9.4090315e-04   4.4423711e-04   6.6808665e-05   2.3296321e-04   2.9352726e-04   9.5550797e-04   2.6536101e-04   4.3264861e-04
   2.1767936e-04   2.7603967e-04   3.0490750e-04   1.8906506e-04   1.1302478e-04   1.7251479e-04   1.1028405e-04  -9.3523093e-05   3.1618009e-04   4.0587576e-04   2.3154248e-04   1.1094602e-04   1.9734778e-04   2.8875697e-04   3.0850898e-04   2.8908942e-04   4.3141702e-04   3.7814106e-04   5.2410894e-04   5.9313816e-04  -2.3293404e-04   3.4018655e-04   3.2226249e-04   3.3345001e-04   4.1544286e-04   4.8553423e-04   5.6858709e-05  -4.6434731e-04   1.8566116e-05   7.0409063e-05   3.8222838e-04   3.0073719e-04   4.5927838e-04   6.9280795e-04   3.0136283e-04   3.4184527e-04  -2.7470366e-04  -6.6285276e-05   1.1328116e-04   5.5092998e-04   6.7845691e-04   8.2560937e-04   1.1299145e-03   2.1765471e-04   1.0281751e-04   2.7060803e-04   3.3269136e-04   8.7670644e-04   6.8505236e-05   4.0473987e-04
   6.2373161e-05   6.8783585e-05   1.8740335e-04   1.5763000e-05  -1.2964573e-05  -1.0607481e-04  -5.3353790e-05  -1.0507189e-04   1.3265540e-04   3.6823677e-04   1.1266749e-04  -4.0967101e-05   1.4566669e-04   2.1865781e-04   1.7313128e-04   2.0878295e-04   3.9538241e-04   4.8709955e-04   2.9283864e-04   4.3280298e-04  -3.9047707e-04   1.6702163e-04   1.5880416e-04   1.6056573e-04   8.4872227e-05   3.8409256e-04  -2.4684436e-05  -5.2218436e-04   1.2683705e-04  -5.6893754e-05   1.8350178e-04   3.6723263e-04   1.9427598e-04   3.3198411e-04   1.5804828e-04   1.7520781e-04  -3.3827248e-04   9.2503062e-05  -5.1637478e-05   1.5229519e-04   5.1039929e-04   5.9553847e-04   8.6075993e-04   3.0633062e-04  -4.0447019e-05   2.3819529e-04   3.1292412e-04   8.7327708e-04   3.0160701e-04   3.2643715e-04
   2.1992104e-04   3.4336740e-04   2.6048828e-04   3.0006233e-04   2.2800454e-04   2.7065637e-04   2.3978509e-04   7.3704134e-05   3.8843704e-04   3.0822353e-04   2.7210638e-04   9.7056749e-05   2.8352978e-04   3.4374843e-04   3.8039920e-04   3.5733404e-04   7.1917963e-04   7.3408504e-04   4.9641752e-04   6.3602300e-04  -2.6072896e-04   3.8352219e-04   3.2186625e-04   2.5361148e-04   6.6046667e-04   6.1119813e-04   1.7402851e-04  -4.4458976e-04   2.4143375e-04   1.3001639e-04   6.8030163e-04   5.8218092e-04   3.4958479e-04   6.5550348e-04   4.4375795e-04   5.4814678e-04  -2.2602097e-04   1.0058824e-04   1.5348099e-04   7.0490997e-04   8.3721330e-04   7.4989838e-04   1.0649221e-03   3.9560365e-04   2.6948377e-04   6.8431930e-04   4.0288974e-04   1.0655723e-03   4.0585923e-04   6.4587704e-04
   2.8396363e-04   3.3551795e-04   3.4119331e-04   2.6911061e-04   1.6655520e-04   2.0284489e-04   1.2445706e-04   2.2589040e-05   3.9097088e-04   2.0705916e-04   3.1891852e-04   1.3470245e-04   2.9397220e-04   3.7902454e-04   3.2849432e-04   3.5128795e-04   8.2605245e-04   7.3684950e-04   3.2240158e-04   5.1921181e-04  -3.4846339e-04   2.6770442e-04   2.9245985e-04   2.0701445e-04   4.4286301e-04   5.3823786e-04   1.8552484e-04  -5.1977654e-04   2.4976931e-04   1.0158615e-04   8.0647087e-04   5.2239920e-04  -2.8294726e-05   2.8134181e-04   2.8044183e-04   3.2836525e-04  -2.3488340e-04   1.7461623e-04   8.0616577e-05   5.2221533e-04   6.9153978e-04   7.0308626e-04   8.6538342e-04  -1.1488236e-04   9.3036208e-05   3.0452595e-04   2.6450603e-04   7.2165520e-04   4.9713515e-05   4.0073638e-04
  -6.4604697e-05  -5.4717066e-06   5.3869378e-05  -5.7550376e-05  -5.4993336e-05  -1.2213780e-04  -1.3953006e-04  -1.0629968e-04   4.1929237e-05  -8.7912071e-05   7.7067401e-05  -5.8247082e-05   8.1022685e-05   2.2983285e-04   1.7263077e-04   2.0189813e-04   5.8975234e-04   5.9372670e-04   8.6811677e-05   1.8045717e-04  -5.6058250e-04  -8.5828717e-05   8.4941450e-05  -2.9663264e-05   4.2773227e-05   3.1369022e-04   1.8933734e-04  -4.4347745e-04   1.7582811e-04   5.8474921e-05   5.1604182e-04   4.9637246e-04  -2.1897066e-04   2.9006589e-04   3.1144210e-04   3.3697131e-04  -1.4636274e-04   1.0876427e-04   1.2431327e-04   4.4445918e-04   7.1194075e-04   6.9811026e-04   1.0754135e-03   4.2995723e-04   2.6397977e-04   5.1383278e-04   3.1325821e-04   9.3792495e-04   4.0772773e-04   6.2444812e-04
   2.9869546e-04   4.4328661e-04   2.8490467e-04   3.7839971e-04   3.1341455e-04   3.4007031e-04   4.0319035e-04   1.9527205e-04   6.7315000e-04   3.1117658e-04   4.3899732e-04   2.9885632e-04   4.2248328e-04   5.3251447e-04   3.9121922e-04   3.8289037e-04   3.9122571e-04   3.3971152e-04   4.4517947e-04   4.9648399e-04  -1.2126196e-04   1.7275043e-04   5.2848621e-04   3.9700684e-04   5.2786910e-04   5.3295813e-04   2.0928949e-04  -3.0957107e-04   2.8375789e-05   2.4636643e-04   2.4696960e-04   2.2726160e-04   2.8856148e-04   5.0641934e-04   4.9404864e-04   4.9915584e-04   1.8757589e-04  -1.8077815e-04   5.0112349e-04   7.7567220e-04   9.0958306e-04   8.4696041e-04   9.1292488e-04   3.6107574e-04   3.5577180e-04   8.8681775e-04   3.6772652e-04   1.0223461e-03   4.2666218e-04   7.5424090e-04
   3.3575424e-04   5.0264015e-04   2.2287246e-04   4.4196434e-04   3.0518547e-04   2.8915517e-04   3.7121811e-04   1.7697267e-04   5.6899426e-04   1.7995041e-04   4.7246108e-04   3.2242623e-04   3.8916236e-04   5.2224612e-04   3.0495116e-04   2.6116229e-04  -3.6418511e-04  -2.8418365e-04   3.0129321e-04   1.9050922e-04  -1.3130007e-04   5.1792675e-05   4.2922149e-04   4.7018050e-04   5.0144631e-04   2.8776305e-04   1.6198802e-04  -1.5376862e-04  -3.6564510e-04   2.9680523e-04  -2.1650495e-04   1.1170425e-06   1.6335775e-04   3.1903834e-04   4.5075917e-04   3.2222050e-04   1.8585038e-04  -4.7222766e-04   2.9031400e-04   5.2673597e-04   1.1555885e-03   7.8989379e-04   9.1936794e-04   4.8740729e-04   1.9438076e-04   5.9185229e-04   2.4714856e-04   7.5140782e-04   8.1662853e-05   4.7320485e-04
   5.9168848e-05   1.8324252e-04  -5.2350777e-05   2.2792442e-04   1.0463201e-04   1.3379513e-04   1.6830720e-04   8.2503102e-05   2.7668016e-04  -8.9005720e-05   2.4480277e-04   8.9897672e-05   1.6051429e-04   3.6825109e-04   1.4201755e-04   8.3105493e-05  -6.8742374e-04  -4.7345663e-04   1.9768447e-04  -1.1439747e-04  -2.8545145e-04  -1.6890513e-04   1.9524714e-04   2.8621682e-04   1.3329653e-04   9.6419397e-05   6.1075516e-05  -7.4404503e-05  -4.9011392e-04   2.6963538e-04  -3.5446958e-04  -3.0791978e-04   1.9132582e-04   3.5088044e-04   4.0205385e-04   4.1509338e-04   2.2888910e-04  -6.1952934e-04   3.3478910e-04   5.4774567e-04   1.1113472e-03   7.5460941e-04   1.1027051e-03   7.0784014e-04   3.6954510e-04   6.9395476e-04   2.7356320e-04   8.1431720e-04   5.1489682e-04   6.9662096e-04
   3.3209810e-04   5.4519001e-04   1.7367602e-04   5.4937776e-04   3.7300339e-04   5.1783101e-04   5.8744778e-04   2.7547366e-04   6.6956278e-04   2.7460713e-04   5.2070891e-04   3.6206417e-04   4.7226244e-04   5.9840042e-04   3.6185488e-04   2.4783687e-04  -6.1186834e-04  -5.6270877e-04   6.0643861e-04   2.1271969e-04   5.0344526e-05   1.1332153e-04   4.6225882e-04   5.2886509e-04   5.7654275e-04   2.3523769e-04   1.7095584e-04  -1.0976350e-04  -5.3438218e-04   4.1965186e-04  -4.1375932e-04  -2.9979312e-04   2.1618188e-04   3.8048220e-04   5.6130782e-04   6.1588176e-04   2.7808594e-04  -6.5553532e-04   4.3771404e-04   6.0300843e-04   9.5729541e-04   7.3958392e-04   9.4046118e-04   6.7068182e-04   3.8241068e-04   6.9068425e-04   3.0881414e-04   7.2778988e-04   4.2527387e-04   7.0148776e-04
   2.6121500e-04   5.0945865e-04   1.1015862e-04   4.8953609e-04   3.0229846e-04   4.0988112e-04   4.2566506e-04   2.3650622e-04   5.4675271e-04   1.9797726e-04   3.6229065e-04   2.2753110e-04   3.4250814e-04   4.2513781e-04   4.1403921e-04   2.4090269e-04  -2.1854004e-04  -9.6133168e-05   4.4852565e-04   1.0315425e-04  -2.7896592e-04   4.7610338e-05   2.0506246e-04   1.8981067e-04   1.6963499e-04   2.6339211e-04   1.7632361e-04  -4.0950265e-05  -2.1337187e-04   3.1003749e-04   7.3920834e-05  -7.3512398e-05  -2.6397525e-05   2.4002006e-04   3.0263182e-04   2.4419802e-04   7.2428673e-05  -2.8137543e-04   3.1846683e-04   3.0322335e-04   5.8240246e-04   4.2112861e-04   4.6436963e-04   6.4000022e-05  -1.5373782e-05   3.7867669e-04  -1.0291965e-05   3.5697126e-04  -8.5713444e-05   2.1765291e-04
  -1.6804381e-04   2.1392631e-05  -1.5879424e-04   5.4149317e-05  -1.9065763e-05  -2.8225497e-05  -2.2778120e-05  -1.9918847e-05   1.5977930e-04  -1.8137592e-04  -2.2714603e-05  -8.3194645e-05   5.9650152e-05   1.4380073e-04   5.4491367e-05   1.5033314e-05  -3.1629816e-04  -9.6409567e-05   6.8739748e-05  -2.8283702e-04  -5.3571869e-04  -3.2367921e-04  -7.7516386e-05  -1.3043963e-04  -9.7392134e-05   1.1359950e-05  -3.7970294e-05  -3.2394742e-06  -1.7369271e-04   9.6766176e-05  -2.5231717e-04  -2.7266750e-04  -2.2988407e-04  -1.5323947e-04   1.0705648e-05  -6.2111852e-05  -1.2408252e-06  -1.5425660e-04   1.2496141e-04   4.6386951e-05   5.7414587e-04   1.3832617e-04   1.9555361e-04   3.1441529e-04  -8.1833910e-05   2.5912572e-04  -8.9964444e-05   2.5295650e-04   1.6296736e-04   2.8814690e-04
  -4.5329740e-05   2.7694280e-04  -6.3045486e-06   2.3601259e-04   1.1660566e-04   2.6779276e-04   1.9728382e-04   1.9663738e-04   3.2138679e-04   1.5164795e-04   3.1757088e-05   6.5324448e-06   2.0860283e-04   2.1659977e-04   3.2230513e-04   2.5825025e-04   7.5942662e-04   8.5842639e-04   2.8953014e-04   1.1294425e-04  -3.4915772e-04  -1.9793928e-04   4.8289214e-05  -2.7593659e-04   1.8373538e-04   4.0681055e-04   8.3665167e-05   5.6046552e-05   4.2984521e-04   1.9572815e-04   6.1279722e-04   2.4377790e-04  -2.6615971e-04  -1.4070423e-05   2.8151521e-04   5.2377651e-05   4.7160698e-05   4.3219724e-04  -1.4449130e-05   6.0057786e-04   1.0385128e-04  -1.3643923e-05   2.5869359e-04   8.4747307e-06  -1.0397332e-05   2.3149406e-04  -2.2004207e-04   1.6168632e-04   6.6374138e-05   1.8759903e-04
  -6.7022505e-05   2.2307265e-04   3.6993879e-05   1.3466128e-04   7.9708785e-05   2.6746266e-04   1.0844565e-04   1.0404957e-04   2.5882843e-04   4.4624936e-05  -1.6854741e-05  -3.8186445e-05   1.4503171e-04   8.5118794e-05   1.8055578e-04   1.4620987e-04   7.2193641e-04   7.5151917e-04   3.8215028e-05  -4.9090322e-06  -4.4624144e-04  -3.4123403e-04  -7.7224446e-05  -3.2147701e-04  -4.9391547e-05   2.1061240e-04  -3.5351164e-05  -9.6711330e-05   2.9691137e-04   3.3351240e-05   4.8194776e-04   2.0591890e-04  -4.9905520e-04  -1.3478528e-04  -1.7504972e-05  -7.8609046e-05  -2.2824104e-05   6.2915630e-04  -8.0308564e-05   4.9552531e-05  -4.0234416e-04  -1.2447733e-04   1.1604828e-07   1.5591386e-05  -3.0332201e-04  -4.3352693e-04  -3.2105920e-04  -6.3168438e-05  -3.3851663e-04  -2.2453115e-04
  -4.0614171e-04  -1.5837974e-04  -2.5239584e-04  -2.0131352e-04  -1.3888589e-04  -1.1116963e-04  -3.2557800e-04  -1.4227552e-04  -2.2923213e-04  -1.5242635e-04  -3.0579802e-04  -3.0459548e-04  -1.0607782e-04  -1.4032918e-04   5.1153882e-05   5.5472541e-05   8.3754020e-04   1.1457838e-03  -1.9167173e-04  -1.7694138e-04  -6.5402448e-04  -6.4000755e-04  -3.7798539e-04  -6.5079401e-04  -2.3733333e-04  -4.0260406e-06  -1.6197296e-04  -1.3510113e-04   5.7854812e-04  -2.0764337e-04   3.1945261e-04   1.6894079e-04  -6.9493457e-04  -6.2851782e-04  -2.5538425e-04  -5.4513878e-04  -1.5261122e-04   6.8932207e-04  -2.0768822e-04  -3.0318773e-04  -6.2250282e-04  -4.5000218e-04  -1.6848568e-04   2.3422760e-06  -5.2046240e-04  -4.0078547e-04  -4.6532645e-04  -2.1536522e-04  -3.5786937e-04  -2.8267116e-04
  -2.7139790e-04   7.3490708e-05  -1.6749573e-04  -1.9161063e-05  -3.5177956e-05   2.1493385e-04   8.2462902e-06   2.0364068e-05   1.6482292e-04   7.2183939e-05  -1.4123556e-04  -2.1495165e-04   1.6838121e-05  -7.3263604e-05   1.1855690e-04   1.5178336e-04   1.1288956e-03   1.4611878e-03   8.0882048e-05   2.0094139e-04  -3.9068112e-04  -3.4170665e-04  -1.5443086e-04  -5.1165064e-04   1.4052325e-04   2.2668397e-04  -8.5258425e-06  -3.6759251e-05   1.0446963e-03  -5.9573074e-05   8.5495348e-04   5.3680589e-04  -6.3499110e-04  -2.7342420e-04  -1.4395979e-05  -3.4970010e-04  -5.5757378e-06   1.1407862e-03  -2.3754459e-04   2.1804700e-04  -4.4653812e-04  -4.0612096e-04   1.8017798e-05  -9.3116883e-05  -4.3225521e-04  -5.1609834e-04  -4.0808113e-04  -1.5775679e-04  -2.5271624e-04  -2.7916563e-04
  -1.4516298e-04   9.0236950e-05  -1.0486745e-04  -1.2614565e-05  -1.3024969e-05   2.2548575e-04   1.5639116e-05   8.2046987e-05   1.5104738e-04   2.5007141e-05  -1.2819048e-04  -1.9510766e-04  -4.3326101e-05  -4.4628985e-05  -4.6880068e-06  -5.4960343e-05   3.1507178e-04   3.6519469e-04  -8.3534360e-05  -4.8177671e-06  -3.9809456e-04  -4.8553495e-04  -1.3708665e-04  -2.7746719e-04  -1.7850129e-04  -5.4482320e-05  -1.7025117e-04  -1.6152018e-04   9.4578914e-05  -8.6946624e-05   1.8704111e-04  -2.7992404e-05  -3.6197412e-04  -3.5019880e-04  -1.3292141e-04  -3.3941076e-04   6.0757729e-06   3.4807270e-04   2.9585892e-05   1.4476723e-05  -2.4840288e-04  -1.9360417e-04   2.0035543e-04  -6.9562971e-05  -4.5810224e-04  -3.9590776e-04  -3.4753521e-04  -1.9771546e-04  -5.0400023e-04  -4.2972504e-04
  -3.9806816e-04  -2.1004694e-04  -3.2729813e-04  -2.4512128e-04  -2.4343791e-04  -7.3160125e-05  -2.6844328e-04  -1.3422298e-04  -1.5714593e-04  -3.7047033e-05  -2.8953049e-04  -3.7056414e-04  -2.4580097e-04  -1.8752310e-04  -2.1456595e-04  -1.9717378e-04  -4.9547216e-05   6.9656475e-05  -6.4347856e-05  -2.2130640e-04  -5.6586188e-04  -5.5378809e-04  -4.0166691e-04  -4.0437834e-04  -2.1881526e-04  -3.0717542e-04  -3.3779917e-04  -1.1038571e-04  -2.4976101e-05  -1.4719434e-04  -1.6958349e-04  -1.9064691e-04  -5.2694709e-04  -5.1724375e-04  -3.0645865e-04  -4.6166417e-04  -1.0831433e-04   7.5714139e-05  -2.7123454e-04  -3.9868668e-04  -2.4167889e-04  -2.6581288e-04  -1.2207931e-04  -5.8641279e-04  -7.4221980e-04  -7.4085750e-04  -4.3944953e-04  -3.4966847e-04  -6.4547715e-04  -4.6227479e-04
  -4.5168246e-04  -2.1814728e-04  -3.1168677e-04  -1.8294762e-04  -1.8337667e-04   6.8010544e-05  -7.7033576e-05  -4.7657930e-05   1.3729592e-04   4.3384192e-05  -1.9579171e-04  -3.4159722e-04  -1.8557192e-04  -1.5675421e-04  -1.8519556e-04  -1.9364987e-04  -8.2293082e-05  -9.9202771e-05   8.9639507e-05  -2.2080350e-05  -3.3952121e-04  -2.9868510e-04  -1.5800456e-04  -2.5411739e-04  -2.1861756e-04  -1.8026165e-04  -2.3218585e-04   9.6856756e-06  -1.5123389e-04   3.7696766e-06  -1.2571021e-04  -3.1556483e-04  -1.6685035e-04  -2.5756346e-04  -1.0535885e-05  -1.2851645e-04   7.2641458e-05  -3.9616381e-05  -1.7613215e-04  -1.1496968e-04  -5.6114579e-05  -1.2470899e-05   1.7401711e-04   9.4534575e-05  -2.8986420e-04  -2.6581428e-04  -2.3791508e-04  -1.1122101e-04  -2.0960033e-04  -2.0533829e-04
  -2.2743070e-04  -3.4804663e-05  -1.5847066e-04  -6.1464751e-05  -1.2409117e-04   1.1517003e-04  -7.1919085e-06  -6.4370070e-05   7.7983772e-05   4.8757658e-05  -9.2154434e-05  -2.9097617e-04  -1.4748084e-04  -1.3472636e-04  -1.5226915e-04  -1.8082099e-04  -3.4079692e-04  -4.0208292e-04   2.0057720e-04  -3.9595572e-05  -2.5505511e-04  -2.2494874e-04  -2.3897106e-04  -1.6878289e-04  -2.2413870e-04  -1.9130910e-04  -3.1679112e-04  -2.3412453e-04  -4.3444074e-04   8.7828903e-06  -4.4608442e-04  -5.4045802e-04  -1.8242659e-04  -2.7394519e-04  -1.2017190e-04  -9.0821472e-05  -5.4184537e-05  -4.6517447e-04  -1.7715172e-05  -1.7513416e-04  -2.8207776e-04  -3.6031921e-05   4.2480788e-05  -3.7889618e-05  -4.1337204e-04  -1.6204965e-04  -1.9984307e-04  -1.2588916e-04  -3.7898426e-04  -3.3869260e-04
  -3.7500844e-04  -2.0829403e-04  -3.2396836e-04  -1.7312173e-04  -3.0606796e-04  -1.9773992e-04  -2.1602355e-04  -1.7767222e-04  -1.6785479e-04  -3.3070435e-04  -2.2508411e-04  -4.2396990e-04  -2.7066231e-04  -2.8025499e-04  -2.9497911e-04  -3.5966787e-04  -7.0106011e-04  -7.5175142e-04  -1.0399247e-04  -4.0948272e-04  -3.8128532e-04  -4.0051242e-04  -3.5108256e-04  -3.6539996e-04  -3.2556397e-04  -3.7254265e-04  -3.9928293e-04  -8.1441773e-05  -6.9686637e-04  -4.9270981e-05  -4.7929765e-04  -6.1568874e-04  -3.1173305e-04  -4.3925570e-04  -2.5136102e-04  -3.5561822e-04  -1.4815727e-04  -4.9380859e-04  -2.9105489e-04  -4.3687029e-04  -3.5328604e-04  -1.4392374e-04  -7.9363082e-05  -4.3324305e-04  -6.2338740e-04  -5.0932396e-04  -3.6965538e-04  -3.7436528e-04  -6.1214925e-04  -5.2929186e-04
  -5.6468870e-04  -3.9206003e-04  -3.4443595e-04  -2.2240686e-04  -2.6890758e-04  -8.0269550e-05  -1.8929999e-04  -1.6685980e-04  -1.4436699e-04  -3.6914772e-04  -2.3859755e-04  -4.1841296e-04  -2.8254543e-04  -2.9260886e-04  -2.8933454e-04  -3.3007844e-04  -4.9730652e-04  -6.2410894e-04  -3.8951453e-05  -3.1879745e-04  -2.7811175e-04  -2.6207714e-04  -3.0160247e-04  -3.1541986e-04  -2.6454323e-04  -2.3068853e-04  -3.7290709e-04  -2.8514923e-04  -6.9947430e-04   2.5977375e-05  -4.0285147e-04  -6.3331332e-04  -2.8238186e-04  -2.1016726e-04  -1.0095262e-04  -2.1340119e-04  -8.1218721e-05  -5.2589143e-04  -3.6875330e-04  -1.7328977e-04  -9.8934179e-05   1.6148239e-05   1.6313630e-04   4.2451851e-05  -1.9159033e-04  -1.3143347e-04  -1.7779921e-04  -3.7073849e-05  -2.2745454e-04  -1.5272135e-04
  -2.9034083e-04  -7.7472490e-05  -2.1378318e-04  -2.2882874e-05  -1.8159792e-04  -4.1437681e-05  -5.2916090e-05  -1.4791827e-04  -1.0303964e-04  -3.6336461e-04  -1.3277138e-04  -2.9528295e-04  -2.7029539e-04  -2.2602777e-04  -2.3367627e-04  -3.1249464e-04  -7.3094753e-04  -8.4740546e-04  -5.9235590e-05  -3.7981325e-04  -2.3414441e-04  -2.3647488e-04  -1.8006911e-04  -2.5971234e-04  -1.9351134e-04  -2.7879543e-04  -3.2010963e-04  -3.5531854e-04  -7.5120956e-04   1.4355913e-05  -4.9025810e-04  -6.2603509e-04  -3.4921110e-04  -2.4380669e-04  -9.9723591e-05  -1.3934732e-04  -2.0735146e-05  -5.5816467e-04  -2.0712352e-04  -3.4166325e-04  -3.2993019e-04   3.1666510e-05   6.7649940e-05   9.0047404e-05  -4.0051286e-04  -2.7640321e-04  -2.2033049e-04  -1.5083778e-04  -4.8884255e-04  -2.9982242e-04
  -4.6662227e-04  -3.5275301e-04  -3.0102482e-04  -2.7748439e-04  -3.7357715e-04  -3.4273931e-04  -3.6201222e-04  -2.8558495e-04  -3.6979822e-04  -5.2103167e-04  -3.5832534e-04  -4.4995555e-04  -4.0830439e-04  -3.5808168e-04  -3.2711943e-04  -3.0890177e-04  -1.8625728e-04  -2.3129287e-04  -2.7539991e-04  -4.4421919e-04  -5.1190291e-04  -4.3819984e-04  -4.2122137e-04  -5.2720529e-04  -4.9152662e-04  -2.5651476e-04  -3.6944778e-04  -3.5144811e-04  -3.1360256e-04  -1.5612887e-04   4.4397388e-05  -2.8921574e-04  -3.8092071e-04  -5.0629134e-04  -2.0437293e-04  -4.4124451e-04  -3.6758001e-04   9.2903443e-05  -3.1636117e-04  -5.1192875e-04  -1.1500979e-04  -1.1679526e-04   3.1871379e-05  -3.1045103e-04  -6.0423778e-04  -2.4503967e-04  -2.5990070e-04  -1.7693307e-04  -3.1685125e-04  -3.0122636e-04
  -2.8952360e-04  -1.2645760e-04  -6.8261848e-05  -1.4903197e-04  -2.2384965e-04  -1.4962444e-04  -1.7557158e-04  -1.2510040e-04  -1.7297947e-04  -2.2700054e-04  -2.7363101e-04  -2.7896080e-04  -2.3471897e-04  -2.0815116e-04  -1.7791353e-04  -1.2184139e-04   4.4999347e-04   2.8067961e-04  -1.4452595e-04  -3.6574689e-05  -3.1166262e-04  -2.0994928e-04  -3.3760039e-04  -4.0882867e-04   1.3997876e-05   4.5477489e-05  -2.0345654e-04  -2.8794853e-04  -9.2670845e-05   1.7829021e-05   4.1220072e-04   3.1834261e-06  -1.7311591e-04  -1.5793627e-04  -6.6587905e-05  -2.4499054e-04  -1.7149362e-04   1.7371816e-04  -3.1490118e-04  -2.8333376e-04  -1.3318293e-04  -1.6685735e-05   9.5107564e-05   3.5160985e-05  -3.4732639e-04  -1.5691508e-04  -1.7800604e-04  -2.5314499e-05  -2.5202640e-04  -1.9282875e-04
  -2.6907586e-04  -1.7973076e-04  -1.5709376e-05  -2.3109654e-04  -2.3520621e-04  -1.8311794e-04  -2.7433728e-04  -2.0786782e-04  -2.9714394e-04  -3.1119003e-04  -2.9672557e-04  -2.6828420e-04  -2.6579018e-04  -2.4048073e-04  -1.2557903e-04  -1.3341029e-04   3.5876682e-04   2.1439564e-04  -1.7224750e-04  -1.5658133e-04  -3.5541161e-04  -3.5453209e-04  -2.8836899e-04  -3.9796229e-04  -2.3909724e-04  -2.0510672e-05  -2.3227528e-04  -4.7126980e-04  -6.8244823e-05  -1.2466186e-04   3.9098691e-04   4.3807646e-05  -3.2925495e-04  -2.2367940e-04  -1.6198639e-04  -2.6213852e-04  -3.7554651e-04   3.7300168e-04  -3.6905342e-04  -3.8007542e-04  -5.9869979e-04  -2.0815581e-04  -5.9838553e-06  -6.0768088e-04  -5.8399764e-04  -4.3755755e-04  -2.5936656e-04  -1.9436190e-04  -6.7055091e-04  -4.7696236e-04
  -4.8373555e-04  -4.7101491e-04  -2.7474249e-04  -4.6813718e-04  -4.2124381e-04  -4.7168465e-04  -5.1393785e-04  -3.1390646e-04  -5.3646491e-04  -5.7718606e-04  -4.5529427e-04  -4.6421669e-04  -4.8604820e-04  -3.4448982e-04  -2.6486279e-04  -2.3105358e-04   3.3565247e-04   1.4208442e-04  -3.5775712e-04  -2.7806693e-04  -5.6129473e-04  -4.7089678e-04  -3.8930072e-04  -5.1258242e-04  -1.3721190e-04  -1.4208221e-04  -2.4941447e-04  -2.9166590e-04  -3.8556443e-04  -5.1839354e-05   2.0106460e-04  -2.8051395e-04  -3.4796394e-04  -2.7092785e-04  -2.0774476e-05  -2.6142108e-04  -2.6269394e-04  -2.6134693e-04  -2.9621946e-04  -2.9774284e-04   1.4280099e-04   4.0258441e-05   3.0996092e-04   6.6945329e-05  -2.2718888e-04   2.4406289e-05  -1.0320081e-04   1.7709415e-04  -1.2096462e-04  -2.5069510e-05
  -8.8006374e-05  -6.0789830e-06   1.0713594e-04  -8.6675493e-05  -1.0857102e-04  -5.4132820e-06  -2.9623940e-05  -4.2486114e-05   1.3625953e-05  -1.7616959e-04  -6.5408552e-05  -1.0435837e-04  -1.4194338e-04  -4.3779903e-05  -1.1671434e-05  -3.9755530e-05   6.1892140e-05  -3.4337031e-04   1.4283777e-04   8.1006525e-05  -1.1185906e-04  -5.7038338e-05  -6.5396634e-05  -7.8972284e-05  -1.0933301e-04  -6.7003916e-06  -1.4311659e-04  -5.2944943e-04  -6.4710545e-04   7.3537958e-05  -3.6294092e-05  -4.2372971e-04   1.8861738e-04  -7.3458337e-05   1.0910843e-04  -6.7525289e-05  -2.4199995e-04  -5.2507309e-04   1.6398428e-04  -8.3416853e-05   2.9427058e-04   3.2726259e-04   4.6166926e-04   1.3687780e-04   1.0546780e-04   7.0156246e-05   1.3989951e-04   4.3554825e-04   3.6127964e-05   1.4182222e-04
  -9.5993892e-05  -1.0003517e-05   7.1164410e-05  -9.4596769e-05  -1.2527473e-04  -5.2632604e-05  -9.4579140e-05  -4.4773478e-05  -5.2304396e-05  -3.0330985e-04  -1.4718081e-05  -8.6903186e-05  -1.0888564e-04   3.6987920e-05  -8.0428195e-05  -7.8946985e-05  -2.8605328e-04  -6.8549952e-04  -1.3381895e-05  -4.9313720e-05  -1.5002165e-04  -1.2635376e-04  -1.2495415e-04  -3.0562474e-05  -2.8289991e-04  -8.2352708e-05  -1.9041472e-04  -5.2728207e-04  -7.0857367e-04   1.1341058e-04  -2.5783706e-04  -4.7488959e-04   7.1655857e-05   4.2891981e-05   1.3329768e-05  -3.2195851e-05  -1.5900297e-04  -6.5565848e-04  -6.4828739e-05  -3.5469283e-04   1.6073992e-04   2.8437859e-04   3.0217701e-04   2.0104456e-04  -5.5041182e-05   2.7131970e-04   6.8943809e-05   1.9985804e-04  -2.8727870e-04  -8.7644170e-05
  -3.9041261e-04  -3.5926671e-04  -2.0474081e-04  -3.8159231e-04  -3.4771030e-04  -3.2583563e-04  -3.9460833e-04  -2.3988454e-04  -2.3609547e-04  -4.6318851e-04  -1.6269830e-04  -2.2860878e-04  -2.2185718e-04  -1.3171509e-04  -9.8095355e-05  -1.2312525e-04  -3.7261745e-04  -6.6139188e-04   1.2801273e-04  -4.8062280e-05  -8.4025545e-05  -7.4643372e-05  -3.6874146e-05   8.0980295e-05  -1.0005638e-04  -4.9869464e-05  -1.1260467e-04  -3.2337103e-04  -7.3156547e-04   2.3428860e-04  -2.2419075e-04  -5.9928244e-04   6.2682157e-05   1.0846828e-04   1.5201852e-04   2.9105970e-04  -3.1610660e-05  -7.7363662e-04   6.8840789e-05   1.3830741e-04   2.7680784e-04   4.4026010e-04   3.7827346e-04   4.2111703e-04   2.9964716e-04   5.1614409e-04   2.7597617e-04   5.2619819e-04   3.2014772e-04   4.0291139e-04
   1.2327479e-04   2.0990676e-04   2.2825276e-04   1.0307975e-04   6.0649461e-05   1.3148482e-04   1.3439314e-04   4.3015512e-05   2.3175031e-04  -7.3349314e-05   2.4050647e-04   8.0100952e-05   1.0823293e-04   1.8586851e-04   7.5245123e-05   6.3758263e-05  -2.4871412e-04  -6.3807383e-04   2.8326400e-04   1.3583391e-04   6.3691274e-05   1.8555016e-04   1.4914638e-04   2.9944346e-04   2.5629721e-04   2.5019624e-05   9.0951464e-05  -5.0581002e-04  -7.0679252e-04   2.9375622e-04  -1.8616524e-04  -3.9198651e-04   3.5377860e-04   2.5272314e-04   2.6787643e-04   3.2562637e-04  -6.8019493e-05  -6.8596448e-04   1.4497049e-04   8.3557898e-06   2.4406043e-04   5.0963683e-04   5.2653986e-04   2.4597006e-04   4.1910910e-04   5.4657034e-04   3.1662831e-04   4.9571437e-04   2.0729557e-04   2.1214508e-04
  -2.6028107e-05   3.1557764e-05   1.3237694e-04  -7.7272074e-05  -7.1019931e-05  -3.9814181e-06  -6.2810759e-05  -2.2333914e-05   8.4485117e-05  -2.1164326e-04   1.2265772e-04  -2.6345586e-05  -4.1087304e-05   1.6117097e-04   9.7635457e-05   3.4684541e-05  -2.1371561e-04  -5.6128134e-04   9.9082492e-05   1.0399155e-05  -1.2243862e-04   7.8187899e-05   2.7961225e-06   1.6572585e-04   6.2726707e-05  -1.7995315e-05  -1.3640283e-04  -4.3708429e-04  -7.1078300e-04   2.4387748e-04  -2.4485486e-04  -4.0125390e-04   3.1543415e-04   1.0203590e-04   1.1346559e-04   1.1796009e-04  -1.5459694e-04  -6.8717066e-04  -2.9325508e-06   1.2029041e-05   2.3716468e-04   3.1016977e-04   4.3714754e-04   2.9322441e-04   1.6886301e-04   4.1042181e-04   1.4225436e-04   1.9051344e-04  -1.7592407e-04   2.9011486e-05
  -4.3142689e-04  -4.0967015e-04  -1.8789197e-04  -4.1922633e-04  -3.1319042e-04  -3.5491007e-04  -4.0456429e-04  -1.5539509e-04  -1.3713051e-04  -4.1799512e-04  -9.9367397e-05  -2.1511639e-04  -1.4606553e-04  -2.1973630e-05  -2.3734374e-05  -8.7250601e-06  -9.3854564e-05  -3.5467476e-04   1.7426790e-04   2.4952091e-05  -1.0743946e-04   8.9854431e-05   4.7401527e-06   8.3092782e-05   2.2033578e-06   6.8535766e-05   1.6811546e-05  -2.0944607e-04  -4.6150814e-04   2.7933498e-04   2.2517563e-05  -2.8562755e-04   8.8349239e-05   3.0354652e-04   2.5355315e-04   3.0938353e-04  -6.3431478e-05  -3.3606737e-04   2.0099101e-04  -2.6133897e-05   4.8368721e-04   3.8475319e-04   4.1507251e-04   4.0326972e-04   4.4459556e-04   3.6557039e-04   2.7866146e-04   4.1272823e-04   3.3872112e-04   3.7928534e-04
   9.6475371e-05   1.8345207e-04   2.4188199e-04   5.7441484e-05   3.9941606e-05   9.8995813e-05   6.3190673e-05   2.1287835e-04   2.3458616e-04  -4.0919029e-05   1.5672029e-04   4.7623857e-05   1.0050791e-04   1.9191958e-04   2.7520605e-04   2.3057801e-04   7.1328826e-04   4.0765174e-04   1.5208407e-04   2.7092747e-04  -1.1975662e-04   2.2527573e-04   1.6348269e-05  -3.8674094e-05   2.1758272e-04   3.4791694e-04   9.3783929e-05  -3.3526655e-04   8.1072729e-05   2.1950422e-04   7.5720018e-04   3.2125457e-04   8.7527362e-05   2.6063548e-04   2.6063769e-04   2.0128467e-04  -1.8371176e-04   3.8090863e-04   6.8783091e-05   6.9722504e-05   3.6161335e-05   1.7720685e-04   3.6921180e-04   2.7175623e-04   6.4347740e-05   3.9995278e-04   1.5820275e-04   3.6388068e-04   8.0022219e-05   1.7811262e-04
  -1.1475937e-04  -9.3559254e-05   2.0700306e-04  -2.6796781e-04  -9.9406418e-05  -5.7240177e-05  -2.2790181e-04   2.3100925e-05  -1.9327975e-04  -1.1871028e-04  -6.1697370e-05  -6.0888673e-05  -7.2058106e-06   5.4299282e-05   1.5386211e-04   2.5207142e-04   1.2019620e-03   1.0628029e-03  -9.7605800e-05   1.8057194e-04  -2.9951634e-04  -1.5319081e-07  -1.4132289e-04  -3.1460385e-04   3.5792858e-05   2.8631015e-04   3.9753013e-05  -4.5077869e-04   5.5357191e-04  -2.5644495e-05   8.4600906e-04   4.6763668e-04  -1.0347295e-04  -1.6235852e-05  -4.7572980e-06  -1.3151095e-04  -3.3446564e-04   8.2459126e-04  -2.2298984e-04  -2.6983232e-04  -2.2344217e-04  -8.0632082e-05   1.1340858e-04  -2.7523551e-04  -3.2361658e-04  -2.1271314e-04  -7.1905975e-05   6.2011030e-05  -4.7367590e-04  -3.2688136e-04
  -4.2174975e-04  -4.4140249e-04  -3.9496055e-05  -4.4743746e-04  -1.4871852e-04  -1.5076886e-04  -2.6385079e-04  -3.5567227e-05  -5.2358475e-05  -6.5910659e-05   8.5616884e-06  -8.0284175e-05  -5.6807976e-06   2.0728306e-05   1.4991047e-04   1.4085692e-04   7.2824495e-04   4.6986152e-04   9.1053080e-05   1.7299347e-04  -1.3263148e-04  -6.2033330e-05   2.3135186e-05   2.6941336e-05   2.0172655e-04   1.5925948e-04   8.8501576e-05  -3.8561586e-04   1.1047422e-04   1.0651947e-04   4.3950105e-04   2.3253467e-04  -5.4508022e-05   2.0435698e-04   2.2907992e-04   9.3394970e-05  -1.2413022e-04   4.4812591e-04  -1.0061077e-05   1.1969553e-04   7.9455851e-05   1.9502173e-04   4.5111228e-04   2.4013154e-04   2.7809187e-04   1.5729383e-04   2.4800940e-04   4.4168002e-04   1.7640159e-04   1.4291317e-04
   1.2777031e-04   1.7894073e-04   1.5751160e-04   3.1498632e-05   1.2461354e-04   2.1432069e-04   1.3847183e-04   1.2798765e-04   3.1083691e-04   4.5542678e-05   2.4719047e-04   1.3571985e-04   1.5378243e-04   2.1403338e-04   1.9212306e-04   2.0381084e-04   3.9397352e-04   1.7836447e-04   2.4797278e-04   2.0090543e-04  -1.3360733e-05   6.8774651e-05   2.3283521e-04   1.9791878e-04   3.7832109e-05   2.1722385e-04   1.3618245e-04  -3.7033611e-04   5.6459437e-05   1.5536083e-04   4.3429009e-04   2.7869322e-04  -3.6674355e-05   2.3068165e-04   2.6294179e-04   1.6662554e-04  -1.0402184e-04   3.3109565e-04  -6.8931855e-05   1.0585518e-04   3.3132068e-04   2.5658609e-04   4.8781207e-04   2.5392935e-04   1.1850269e-04   3.5697440e-04   1.9152102e-04   4.8028078e-04  -5.3841231e-05   1.3759799e-04
  -4.5707071e-05  -5.2575983e-06   1.9791521e-05  -1.2232039e-04  -4.3942541e-06   5.1531159e-05  -2.1433852e-05   1.1817505e-04   2.3809900e-05  -1.3854206e-04   7.8217287e-05   6.9033517e-06  -5.7379026e-07   1.2158159e-04   6.7885747e-05   9.2895927e-05   1.0280681e-04   4.4591307e-05   8.3937310e-05   3.7180946e-06  -1.2662227e-04  -1.1591455e-04   6.5956810e-05   7.7617777e-05   1.6010652e-04   3.9952738e-05   4.4760386e-06  -2.0714980e-04  -1.1453484e-04   7.1431088e-05  -3.1865387e-05  -4.1989668e-05   2.7205129e-05   7.3580322e-06   4.1889321e-05  -1.1983803e-04  -2.1264789e-04   8.8583962e-05   4.6775709e-05  -2.2013563e-04   6.7243665e-05   7.2151757e-05   3.0725938e-04  -4.1010071e-04  -2.6889192e-04   2.6719314e-05   5.0641553e-05   2.7598353e-04  -4.1343886e-04  -3.0184124e-04
  -2.8926265e-04  -2.5762105e-04  -1.6400943e-04  -1.7039115e-04  -5.2525163e-05   1.8996290e-05   1.5436759e-05  -6.1019189e-05   3.3689168e-04  -9.1586800e-05   1.2499008e-04   1.2251075e-05   6.3548061e-05   1.3090255e-04   7.1806120e-05   3.5934863e-05  -2.8995876e-04  -3.3679535e-04   3.1044253e-04   8.9009925e-05   1.1412957e-04   2.9805329e-05   1.4206221e-04   1.9813119e-04   2.4367654e-04   5.5770248e-05   1.3659292e-05   8.4261505e-05  -2.1304302e-04   1.8784484e-04  -1.4366039e-04  -1.5484820e-04   1.2103048e-04   2.9784377e-04   2.4058956e-04   2.6102370e-04  -4.7024856e-05   6.1645580e-05   2.1442809e-04   3.8072467e-04   2.8033095e-04   3.0281275e-04   4.4154705e-04   1.3488281e-04   3.4583866e-04   3.3849946e-04   3.1635832e-04   5.2444014e-04   2.3546013e-04   2.3658328e-04
   2.3099824e-04   3.3956877e-04   1.2445098e-04   2.6139279e-04   2.1511658e-04   3.0963655e-04   3.1947767e-04   2.7010153e-04   4.1735699e-04   1.4682527e-04   3.0993237e-04   2.0122340e-04   2.3171905e-04   2.9668718e-04   1.6862390e-04   1.2050557e-04  -2.6717028e-04  -2.6969638e-04   4.5218429e-04   1.8378125e-04   2.0073577e-04   1.8607674e-04   3.0671002e-04   3.3588347e-04   3.0402275e-04   1.0076183e-04   7.0713082e-05  -1.2779277e-04  -1.3195242e-04   1.8954625e-04   1.7906292e-05  -1.2018329e-05   1.4042937e-04   3.4612618e-04   2.0770870e-04   1.6555459e-04  -1.0346612e-04   2.3857239e-04   1.0991234e-05   1.5267282e-04   6.4117758e-04   2.5929735e-04   3.1616268e-04  -3.4651577e-05   1.4094783e-04   3.5989916e-04   2.1786673e-04   4.2263357e-04  -1.1943969e-05   7.5333737e-05
   2.9993289e-05   9.9659395e-05   2.1661586e-05   4.5538338e-05   5.4562744e-05   9.7004959e-05   4.6398131e-05   1.5226063e-04   2.5029568e-04   3.1971742e-04   1.6092387e-04  -6.7000160e-06   1.3022257e-04   1.6736618e-04   1.0699760e-04   1.2178292e-05  -2.6822870e-04  -2.0682160e-04   3.2469016e-04   2.3211111e-05  -4.4445583e-06   4.2819553e-05   1.5811181e-04   1.8154280e-04  -3.7794816e-05  -5.8001740e-05  -5.0570507e-06  -1.0714885e-05  -1.9865598e-04   4.4583277e-05  -2.6377925e-04  -2.5116027e-04   1.3511674e-04  -4.1601310e-05  -1.9554196e-05  -1.0405235e-04  -4.0191782e-05   2.6929907e-05  -7.0609647e-05  -1.6425720e-04  -1.0128238e-04   1.2083600e-04   4.4771870e-05  -1.4369223e-04   1.8785497e-05   3.4625358e-05   7.7958452e-05   1.5681524e-04  -1.0419935e-04  -1.8528935e-04
  -8.1628619e-05   5.4165455e-05  -2.2058122e-05   1.0298694e-04   1.0250025e-04   1.7584652e-04   2.1366765e-04   1.2277643e-04   4.3421049e-04   3.8117243e-04   2.6353411e-04   2.8858833e-05   1.8185514e-04   1.8574308e-04   1.2923480e-05   7.2696771e-06  -4.8732717e-04  -5.3659058e-04   4.8688165e-04   1.3750263e-04   2.0571430e-04   2.2381866e-04   3.1213491e-04   3.7134567e-04   3.2743806e-04  -3.8937753e-05   3.9435476e-05   4.4834745e-05  -4.9654697e-04   2.1762995e-04  -3.7641270e-04  -4.1177147e-04   1.4064227e-04   2.9450262e-04   2.3343855e-04   2.6557702e-04   8.7753862e-05  -3.3977465e-04   1.8362698e-04   3.4392532e-04   3.8169263e-04   3.5131071e-04   6.1878172e-04   3.4766033e-04   4.4225145e-04   6.0070842e-04   2.4908589e-04   5.2788109e-04   2.3345315e-04   1.8081945e-04
   1.4951102e-04   3.2448667e-04   8.5427710e-05   3.1023708e-04   2.3325649e-04   2.8926836e-04   3.5979264e-04   1.9906444e-04   5.7045557e-04   1.7861379e-05   3.5390214e-04   8.1458282e-05   2.3048627e-04   2.6191067e-04   1.7850519e-04   1.1527934e-06  -6.2106329e-04  -7.3341589e-04   3.8606452e-04   1.5481801e-05   2.1596190e-04   2.1743160e-04   3.4515929e-04   3.1611568e-04   9.0974834e-05  -1.7011493e-05  -1.4076204e-06  -2.4229221e-04  -5.5376382e-04   2.1541805e-04  -3.4304924e-04  -4.3222104e-04   2.3020391e-04   2.7186086e-04   2.3673862e-04   2.5973513e-04  -3.5251272e-05  -3.4754086e-04   1.7771339e-04   1.2706034e-04   1.9559755e-05   3.2185874e-04   2.3860064e-04   1.7222362e-04   2.0840003e-04   3.8248929e-04   1.5457567e-04   4.3760226e-04   3.6006390e-05   2.0477593e-05
  -6.7902234e-05   8.6392822e-05  -9.0920126e-05   1.1248816e-04   2.8548995e-05   7.6897297e-05   7.7185476e-05   1.5536617e-04   1.3776591e-04  -1.9687995e-04   1.1396086e-04  -5.5125893e-05   7.5523989e-05   7.9976897e-05  -4.5866465e-05  -1.1612567e-04  -4.9315044e-04  -5.5681431e-04   1.6022721e-04  -2.5420438e-04  -7.5052099e-05  -8.1038030e-05   3.6605084e-05   5.1868126e-05  -7.0624068e-05  -1.5114761e-04  -7.3193172e-05  -2.0476713e-04  -5.0302973e-04   6.7068257e-05  -2.9242132e-04  -4.2600205e-04   1.5385936e-05  -2.7267737e-04  -5.6771518e-05  -1.3892997e-04  -3.2514712e-04  -1.1414599e-04  -1.1380832e-04  -2.6800620e-04  -1.9396337e-04   8.0682614e-05  -5.4629141e-05   1.4048775e-04   8.0604797e-05  -7.4143107e-05   7.6861528e-05   2.5263894e-04   1.4395124e-04  -8.1654427e-05
  -9.3086401e-06   2.3343282e-04  -4.2721942e-05   2.4810815e-04   1.6687362e-04   2.5307626e-04   2.6312665e-04   2.1324010e-04   4.2580941e-04   6.8444417e-05   1.6025722e-04   7.2561714e-05   1.7846617e-04   1.3188852e-04   9.8487326e-05  -1.3083708e-05   8.4665029e-05   3.8104929e-05   3.6269089e-04   2.9411834e-05   7.2023126e-05   9.9532066e-05   2.6339493e-04   9.3969451e-05   5.1050061e-05   1.0355141e-04   6.2747745e-08  -4.2128447e-04  -1.9037536e-04   1.0358795e-04   2.7997300e-04  -4.7899910e-05   1.8430075e-05  -8.9123432e-06   1.5448556e-04   7.0454640e-05  -7.1534705e-05   1.6014943e-04   5.8724119e-05   5.3397194e-05   2.0779335e-04   1.7296236e-04   5.5046356e-04   7.7808676e-05   2.7276837e-04   2.1860152e-04   1.3430117e-04   4.7032465e-04   1.4577714e-04  -4.7953586e-06
   5.5111213e-05   2.5643155e-04  -2.6976827e-06   2.3278965e-04   1.5210603e-04   1.9661797e-04   2.5879772e-04   9.4002447e-05   4.2931430e-04   3.1632222e-05   1.9322363e-04   1.2658651e-04   1.2323410e-04   1.1576234e-04  -2.8717455e-05  -8.8384564e-05  -2.6640031e-04  -3.1054631e-04   1.6870526e-04  -1.2118580e-04   1.6670398e-05  -3.6864465e-05   2.3066343e-04   1.5318765e-04   3.8206283e-05  -1.0014470e-05  -5.5023556e-05  -3.4586250e-04  -3.0455459e-04   2.7180318e-05  -9.5912728e-05  -2.2435495e-04   7.5257893e-05  -1.2028535e-04   1.0334706e-04   1.0073084e-04  -1.8425866e-04   7.8821431e-05   1.3582740e-04  -2.3533934e-04  -6.6392546e-05   1.1123918e-04   2.9811883e-04   8.4081752e-05  -2.9446576e-06  -3.4227112e-06   3.6991845e-05   3.2889241e-04  -1.3164716e-04  -9.8916076e-05
  -1.9901815e-04   2.5507323e-05  -1.9949020e-04   4.1606072e-05  -1.7839684e-05  -5.4427885e-05  -7.1775867e-05  -8.8535686e-05  -1.9510822e-05  -2.0921281e-04  -3.6204083e-06  -1.9397017e-05  -1.4999320e-05  -1.0976863e-04  -9.3250637e-05  -2.0544848e-04  -5.6197046e-04  -4.0600993e-04  -3.7820060e-05  -4.2623124e-04  -1.2593805e-04  -3.3810738e-04   1.2804009e-05  -1.8256131e-05  -6.2980493e-05  -1.8026307e-04  -1.7721043e-04  -3.6827032e-04  -3.7819424e-04  -8.7898603e-05  -4.2298075e-04  -3.6657107e-04  -3.6344939e-04  -1.9825048e-04   5.0722705e-05  -1.2573863e-05  -1.6033390e-04   1.1751092e-06   6.7692126e-05  -8.7210319e-05  -3.9025178e-07   1.1571039e-04   4.1835252e-04   2.2227968e-04   1.9564305e-04   2.9560284e-05   1.2522131e-04   3.6444250e-04   1.5515406e-04   8.2393213e-05
   1.1269726e-04   3.4214358e-04   6.9044268e-05   3.2921339e-04   2.0394883e-04   2.8097880e-04   3.3882839e-04   1.6843648e-04   5.8636832e-04   1.7045437e-04   2.8305047e-04   2.6047940e-04   1.9205121e-04   1.8626390e-04   4.9914121e-05  -3.8829523e-05  -3.3246764e-04  -4.2347566e-04   3.4263488e-04   8.2668012e-06   2.3344089e-04   1.2582607e-04   3.0992285e-04   3.5084278e-04  -4.0433126e-05   2.7373220e-05  -8.8442990e-05  -3.0295795e-04  -4.0243575e-04   7.5173935e-05  -2.1825444e-04  -3.6899373e-04   7.8975732e-05   7.5016600e-05   1.7875238e-04   2.0202484e-04  -6.0270351e-05  -3.1433174e-05   1.5611398e-04   2.3315546e-04   2.0236259e-04   2.6490111e-04   2.3240846e-04   1.5743972e-04   3.6973599e-04   1.1449111e-04   1.9546204e-04   4.8435087e-04   2.1063550e-04   2.3256407e-04
   1.8148447e-04   3.5554531e-04   9.2384696e-05   3.6137190e-04   2.2051953e-04   2.4358922e-04   2.9939899e-04   5.6354776e-05   4.9631635e-04   1.0106700e-04   3.1662930e-04   3.0923975e-04   1.7249961e-04   1.0641020e-04   3.0140078e-05  -1.0306700e-04  -8.1346277e-04  -7.9760607e-04   2.5127575e-04  -1.3010284e-04   2.7021859e-04   3.9234954e-05   3.0663260e-04   3.5828789e-04   1.2525912e-04  -8.8021683e-05  -1.6906650e-05  -2.7432942e-04  -5.9946178e-04   1.0038668e-04  -5.7752430e-04  -5.3377886e-04   2.4166080e-05  -7.3063842e-05   3.9342758e-05   6.4933018e-05  -9.8575583e-05  -3.1605634e-04   1.0752657e-04  -5.1934898e-05   3.1750221e-04   2.3847475e-04   3.4290450e-04  -2.2228404e-04   1.2674544e-04  -4.2508382e-05   1.3166452e-04   3.7272891e-04  -1.0883104e-04  -9.0786940e-05
  -9.8569057e-05  -6.7491383e-06  -1.2762284e-04   6.9881753e-05  -4.3857115e-05  -2.3812257e-05   3.2935241e-05  -3.4960845e-05   2.1466095e-04  -1.9941096e-04   1.0832482e-04   9.0287591e-05   3.3869587e-06  -3.1672214e-05  -1.9193659e-04  -2.2938667e-04  -1.0694063e-03  -1.0276274e-03   1.6061532e-04  -3.3701159e-04   1.5578160e-04  -6.6582317e-05   2.2437528e-04   3.0396591e-04  -1.0907638e-04  -2.0097225e-04  -1.6442982e-04   6.7976311e-05  -8.1159698e-04   1.8747395e-04  -7.7083689e-04  -7.2916347e-04   2.3389440e-04   2.3651899e-05   1.5880808e-04   2.0616752e-04   1.8088234e-04  -5.3572340e-04   3.4583663e-05   5.9860180e-05   5.1626930e-04   3.2757563e-04   4.3291732e-04   5.8069330e-04   5.4098835e-04   3.6275029e-04   2.9249367e-04   4.8695478e-04   4.2728940e-04   2.3751675e-04
   3.2100311e-04   4.4401878e-04   2.0542306e-04   4.7371356e-04   2.9683090e-04   3.3538381e-04   4.9854838e-04   2.2469784e-04   5.2922021e-04   2.4450614e-04   4.2229437e-04   4.3130232e-04   2.6359461e-04   2.2278378e-04   1.4869832e-04  -4.4286200e-05  -9.5604867e-04  -9.3486672e-04   5.0755742e-04   2.5107989e-05   5.1331619e-04   3.0797048e-04   4.1290277e-04   5.1320158e-04   2.3779536e-04   3.8584272e-05  -4.9127179e-06  -3.5973198e-06  -6.5306638e-04   1.7523595e-04  -5.1696517e-04  -5.4261542e-04   4.8877794e-04   1.6063818e-04   2.7333578e-04   2.3879160e-04   1.0731721e-04  -3.6403490e-04   1.7199681e-04   1.5364224e-04  -3.5389684e-04   4.5909113e-04   2.9285313e-04   1.7821747e-04   4.6035254e-04   5.1023409e-04   3.3256673e-04   5.1317923e-04   3.5339393e-04   2.6853188e-04
   2.8184347e-04   3.2310595e-04   1.7389753e-04   3.6490613e-04   2.0504635e-04   2.2232375e-04   2.9322188e-04   1.5139389e-04   3.9144329e-04   1.0540058e-04   2.9667545e-04   3.4026394e-04   1.6403032e-04   8.9542511e-05  -4.8290742e-05  -9.2735143e-05  -8.9156599e-04  -7.8698609e-04   3.8330295e-04  -7.3589334e-05   4.0777933e-04   2.2436795e-04   2.8513727e-04   3.1207260e-04  -8.0801901e-06   2.3750063e-05  -6.7387147e-05  -9.1941110e-05  -5.7779765e-04   8.7132743e-05  -6.0710765e-04  -5.3802662e-04   2.2714655e-04  -1.5101155e-05   5.3236414e-05  -2.5672660e-05  -1.1698932e-04  -3.2704879e-04  -1.1283057e-04  -5.7491252e-05   2.9346350e-04   1.1331174e-04   9.5769094e-05  -7.5439391e-05   2.6121386e-04   2.5674412e-05   9.9434394e-05   1.7232362e-04   5.0818562e-06  -1.5324017e-04
  -8.0859827e-05  -7.8793128e-05  -1.0207782e-04   2.3721002e-05  -4.9939223e-05  -1.4337125e-04  -3.3232234e-05  -4.9420283e-05   2.6542821e-05  -1.7956497e-04  -1.4314626e-06   4.9471248e-05  -1.0638661e-04  -1.4150946e-04  -1.3626287e-04  -2.4743073e-04  -1.0590205e-03  -8.8119914e-04   2.1318480e-04  -2.6070623e-04   2.7766908e-04   9.9796351e-05   4.8047186e-05   2.2807086e-04   2.6509417e-05  -1.2689117e-04  -1.1303214e-04   2.0440824e-04  -5.7009171e-04   1.2485871e-04  -8.8594365e-04  -8.4089831e-04   4.6128684e-04   4.2359119e-05   1.4532919e-04   1.3270680e-04   9.3404873e-05  -5.6124321e-04   7.1809583e-05   1.9678509e-05   1.4625784e-04   1.9946560e-04   1.7657848e-04   4.4827751e-04   5.3659215e-04   4.0394222e-04   2.2755221e-04   3.1390044e-04   4.1957700e-04   2.2696056e-04
   3.3902383e-04   3.9673244e-04   1.9883989e-04   4.5763218e-04   2.5976275e-04   2.7965655e-04   4.3458375e-04   1.8149252e-04   5.4951612e-04   2.1127029e-04   3.9073153e-04   3.2516799e-04   2.0252145e-04   1.2120236e-04   2.3736849e-05  -1.2187642e-04  -1.2357761e-03  -1.1675351e-03   4.1017093e-04  -7.1609553e-05   5.6209153e-04   3.2830011e-04   3.1042617e-04   4.3356820e-04   7.0462673e-05  -6.9724381e-05  -1.1893045e-04   1.1341841e-04  -7.3851307e-04   1.6046659e-04  -8.0268295e-04  -6.9503457e-04   4.9357355e-04   1.7269883e-04   1.8551781e-04   1.5239540e-04   5.2830888e-05  -4.6631444e-04   3.9252431e-05   5.6134722e-05  -1.2731519e-04   2.4082950e-04   2.2665902e-04   2.5358197e-04   4.2492908e-04   2.4747927e-04   2.3178726e-04   2.7780948e-04   3.0770010e-04   1.1989073e-04
   2.6577062e-04   2.4871191e-04   1.4245133e-04   3.2087459e-04   1.3880307e-04   1.1417506e-04   2.0643347e-04   8.3737614e-05   2.6719226e-04   2.0979767e-05   2.4586052e-04   2.1699935e-04   9.1672911e-05   1.9404857e-05  -2.8522498e-05  -1.5665499e-04  -1.0199950e-03  -9.4266952e-04   1.8251610e-04  -2.3952438e-04   3.1738335e-04   2.2610664e-04   1.5850950e-04   2.3165839e-04   1.3589326e-04  -7.0872062e-05  -1.2629376e-04   6.4400898e-05  -6.4462464e-04   6.1912069e-05  -7.3649065e-04  -6.2755856e-04   4.1784646e-04   4.8631637e-06   5.1841831e-05  -1.2793268e-04  -2.1850408e-05  -4.3223851e-04   3.3167260e-05  -1.3454596e-04  -1.9944677e-04   8.1675433e-05   1.2851812e-04  -1.7682435e-04   9.5383650e-05   9.0688009e-05   8.2668805e-05   2.7509153e-05  -1.0663008e-04  -3.1517821e-04
  -1.0783907e-04  -1.6946922e-04  -1.2038193e-04  -9.8056671e-06  -6.1526334e-05  -2.0115012e-04  -8.6075401e-05  -9.7008378e-05   3.4471798e-06  -1.2541206e-04   4.8508326e-05   6.1261475e-05  -2.0129337e-05  -1.2361782e-04  -5.7324072e-05  -1.6027357e-04  -6.3809118e-04  -5.0021533e-04   1.8411415e-04  -1.1801223e-04   3.0224476e-04   2.0271364e-04   1.3456884e-04   1.3978293e-04  -3.3924196e-05   4.4858021e-05  -7.0852577e-05   1.5868914e-04  -1.2911303e-04   5.4193282e-05  -6.8365800e-05  -2.3866260e-04   2.0981800e-04   9.5534051e-05   1.4845766e-04   5.9022659e-05  -2.0473135e-05   2.8629604e-04   7.5520125e-05  -3.5111778e-05   6.9428606e-05   4.2175732e-05   6.4404107e-05   3.4496575e-04   1.8406940e-04   6.3995526e-06   1.6220586e-04   2.1923083e-04   2.4783667e-04   2.1545377e-05
   2.9203043e-04   2.2527554e-04   2.7636357e-04   2.0407271e-04   9.5674994e-05   7.7546567e-05   7.1989569e-05   8.3430859e-05   1.2542144e-04   8.4061103e-05   1.1544008e-04   1.7762945e-04   2.8507768e-05  -3.0595220e-05  -5.9392692e-05  -6.9713002e-05  -6.5764589e-06  -1.8068713e-04   1.0091053e-07   3.3765114e-06   2.6247025e-04   1.7994309e-04   1.5606415e-04   9.5524792e-06   2.3041819e-05   8.4621992e-05  -9.8710814e-05  -1.1135266e-04  -3.0305743e-04   1.4374932e-05   9.7576349e-06  -1.8256568e-04   1.6137039e-04   7.8824138e-05   1.2900875e-04  -1.3693534e-04  -1.6643957e-04  -1.7316204e-04  -1.5527109e-04  -1.6540360e-04   1.9457785e-04   1.3957790e-04   5.6321755e-05   2.0704335e-04   1.1519057e-04   1.2548291e-04   1.2464797e-04   1.0422460e-04   3.8912447e-05  -7.0678667e-05
   4.9631376e-06  -1.4673348e-04   1.7491607e-04  -1.4599132e-04  -1.1036530e-04  -1.9212795e-04  -2.0913966e-04  -3.0600058e-05  -2.6612030e-04  -1.3781835e-04  -1.3157737e-04   5.3190142e-06  -1.5795136e-04  -1.8891069e-04  -6.7260000e-05  -1.3348144e-04   1.9378783e-04  -9.5972446e-06  -2.2104448e-04  -1.5571006e-04   2.3311357e-05  -9.8878809e-06  -1.8153599e-04  -2.5846713e-04  -1.5201926e-04  -3.9081460e-05  -1.7027592e-04  -1.3087261e-04  -1.9350385e-04  -1.2881977e-04   1.3018410e-05  -1.9982408e-04  -1.2250674e-04  -2.2974821e-04  -1.8558424e-04  -2.7074220e-04  -2.3011712e-04   2.4084189e-05  -3.2359039e-04  -5.6463794e-04  -2.4049198e-04  -1.5822750e-04  -2.4373387e-04  -2.5358668e-04  -1.3742101e-04  -2.7351631e-04   1.8660659e-05  -1.7019613e-04  -1.1265046e-04  -3.1422474e-04
  -1.3364891e-04  -2.0021235e-04   9.8557408e-05  -1.2216892e-04  -7.2817318e-05  -5.7104458e-05  -1.1766300e-04   2.2929124e-05  -7.6582735e-05  -3.0215979e-05  -1.4298063e-05   7.8179241e-05  -6.6369714e-05  -1.6254451e-04  -4.5838158e-05  -6.9430680e-05   1.9362215e-04  -2.9823110e-05  -4.7383070e-05   8.8382818e-05   2.6688937e-04   1.3288078e-04   2.3045808e-05  -8.2518818e-05   1.7382129e-04   1.0911250e-04  -1.0364129e-04  -1.1495115e-05  -2.4449671e-04   4.4090830e-05   1.8985599e-04  -2.5159051e-04   1.2815495e-04   7.5637050e-05   1.0120353e-04   8.7440012e-06  -1.4167876e-04  -8.4296524e-05   4.8630987e-05   1.0623344e-05  -1.8098197e-04   1.2825681e-04   1.6419010e-04   4.7807736e-04   3.7557606e-04   1.8080187e-04   2.6780710e-04   1.9851873e-04   2.9294533e-04   2.5576307e-04
   2.1644785e-04   5.0464372e-05   3.3650218e-04   6.1606811e-06   2.8697708e-05  -1.8060024e-05  -1.7545490e-05   1.1894933e-05   5.1453379e-05   1.5362299e-05   9.8039600e-05   1.7912433e-04  -4.9672923e-05  -2.0891668e-05  -3.3208118e-05  -9.0173889e-05  -2.5007478e-04  -6.1185448e-04   3.6187190e-05   7.6882512e-05   4.6869431e-04   2.2885998e-04   1.0114121e-04   1.5739010e-04  -1.2118354e-04  -8.3847226e-06  -6.0759470e-05  -3.3387262e-04  -8.2294218e-04   1.3626186e-05  -5.2000157e-04  -7.5927656e-04   3.9021057e-04   1.3000979e-04   1.0434038e-04   6.6663284e-05  -1.6125759e-04  -9.8902732e-04   1.4031965e-05  -1.9100308e-04  -7.4060692e-05   1.7628932e-04  -9.0124850e-05   2.1944506e-04   3.3464847e-04   5.6208688e-04   3.0937258e-04   1.8723751e-04   2.2482801e-04   7.7895587e-05
  -9.7551401e-06  -1.2230182e-04   1.4879968e-04  -1.2116647e-04  -1.0229513e-04  -2.3133635e-04  -1.6835838e-04  -1.2540845e-04  -1.6534814e-04  -2.3187241e-04   5.9381335e-05   5.0275903e-06  -1.5853357e-04  -1.0916244e-04  -1.7399849e-04  -2.1463913e-04  -8.8450115e-04  -1.1922094e-03  -5.0911302e-05  -1.9887237e-04   3.7052608e-04   2.1008006e-04  -1.6023006e-04   1.0355299e-04  -2.7851414e-04  -2.6014826e-04  -1.1865063e-04  -1.9752602e-04  -1.1552081e-03   3.1957028e-05  -9.6254254e-04  -1.1071187e-03   5.0636596e-04  -2.4253654e-06  -5.5544042e-05   4.8275517e-05  -2.2279184e-04  -1.4205792e-03   1.6411992e-05  -5.4625201e-04  -7.9122066e-05   1.5355193e-04  -7.8843615e-05   3.0423494e-04   3.7652947e-04   3.5314335e-04   3.4544224e-04   1.0515944e-04   2.7327251e-04   1.7533543e-04
   5.2533429e-05   6.9825961e-05   2.2927542e-04   7.4141448e-05   4.0586008e-05   6.0188675e-05   1.3343443e-04   1.4569289e-04   2.3071823e-04  -3.0294885e-05   2.7467837e-04   1.3574198e-04   1.6791349e-05   5.4489778e-05  -8.5918160e-05  -1.5583802e-04  -1.0313283e-03  -1.3765435e-03   2.5813241e-04   1.4686074e-05   6.5606897e-04   4.5691399e-04   5.7656056e-05   4.3347606e-04  -4.5169574e-05  -1.1590283e-04  -9.1663613e-05  -2.3192630e-04  -1.1627268e-03   1.8911854e-04  -9.8009233e-04  -9.6034323e-04   6.3641957e-04   3.3242514e-04   2.7156828e-04   4.1290562e-04  -3.2802727e-05  -1.2546241e-03   2.2127121e-04   5.8871628e-06   1.1470952e-04   3.9493863e-04  -8.0943755e-05   4.7730573e-04   6.4611301e-04   4.1966754e-04   5.3931546e-04   2.7810427e-04   5.1597587e-04   3.0961534e-04
   2.2892132e-04   1.8799338e-04   2.8096905e-04   1.8238886e-04   1.1096968e-04   6.9724629e-05   2.0922869e-04   1.2048659e-04   2.5397801e-04   1.3742014e-04   4.3651595e-04   2.2721829e-04   5.8623311e-05   1.3312607e-04  -7.8142002e-05  -1.6395346e-04  -1.3456226e-03  -1.6841448e-03   2.0661893e-04  -9.1796275e-05   5.8605167e-04   5.0719240e-04   7.5866796e-05   5.2578718e-04  -5.2943364e-05  -2.9932603e-04  -4.6051100e-05  -1.8140004e-04  -1.4585784e-03   2.3691673e-04  -1.3653825e-03  -1.1165268e-03   8.0411008e-04   2.4703130e-04   1.7099950e-04   1.4304866e-04  -5.3235588e-05  -1.4562638e-03   7.7582496e-05  -1.2303096e-04   6.7117697e-05   4.3568446e-04  -2.8486707e-05   4.4676097e-04   4.5653005e-04   4.8941682e-04   6.1401952e-04   9.8081793e-05   1.6301147e-04   2.3160668e-04
  -7.4807496e-05  -1.2418731e-04   5.0046012e-05  -7.5123993e-05  -1.3251368e-04  -2.1861437e-04  -9.9847253e-05  -1.2851788e-05  -1.2131070e-05   1.1010168e-04   1.9511038e-04  -4.6722403e-06  -1.4290810e-04  -5.0860774e-05  -1.5206885e-04  -2.3591871e-04  -1.0967640e-03  -1.2622335e-03   2.8884955e-05  -1.6532793e-04   1.6695922e-04   4.2237923e-04  -1.6363942e-04   1.4804323e-04  -2.4705299e-04  -2.6782823e-04  -2.1285699e-04  -4.2681400e-05  -8.8765990e-04   1.9644187e-05  -6.3518266e-04  -7.3648774e-04   4.3231031e-04  -2.8984463e-05  -1.2782798e-04  -8.7527158e-05  -1.6716321e-04  -6.1840325e-04   9.4360530e-06  -2.1865946e-04  -1.4553231e-04   1.7189387e-04  -2.8465842e-04   3.3938180e-04   3.7239373e-04   6.6354674e-05   3.6436488e-04  -1.0692779e-04   1.5449843e-04  -2.0087720e-05
  -4.1777072e-05   1.3102156e-05   3.4766700e-04  -6.6220222e-05   1.9706520e-05  -3.6950991e-05  -4.8667574e-05   1.1920950e-04  -1.2840172e-04   2.7711449e-05   8.8793357e-05   5.9783924e-05   9.9239951e-06  -5.2548246e-05   1.8908580e-04   1.2129264e-04   1.0957838e-03   4.0347985e-04   7.8573530e-06   2.6593931e-04   2.3154388e-04   4.7983177e-04  -8.3519830e-05  -3.4608092e-04   5.6762630e-05   2.7875544e-04   4.9595339e-05  -1.2500651e-04  -1.7387883e-04   1.3345934e-04   4.9807021e-04  -1.3046796e-04   2.5636953e-04   1.6006484e-04   5.0413011e-05   6.2544008e-05  -1.8099145e-04  -2.3985210e-04   1.7133701e-04  -1.0103819e-04  -1.1995684e-04   7.4646796e-06  -2.4751565e-04   3.5889412e-04   3.8497415e-04   3.9494023e-04   3.4595191e-04   7.1340146e-06   2.7607279e-04   1.9974823e-04
  -9.5241870e-05  -7.2545357e-05   3.5228982e-04  -1.8252288e-04  -5.5741066e-06  -7.7781493e-05  -1.3908013e-04   1.0692613e-04  -2.0043382e-04  -6.8584472e-05   3.9176444e-05   8.1967082e-05  -7.5418451e-05  -9.9741292e-06   6.6144166e-05   7.7300458e-05   1.0941629e-03   4.3793058e-04  -1.7986579e-04   2.2110308e-04   1.6314458e-04   2.6498726e-04  -1.3028584e-04  -3.6743324e-04  -4.3383992e-05   2.3023030e-04  -5.8453348e-05  -2.3465492e-04   1.9932317e-05   3.4208447e-06   7.1614911e-04   1.4174124e-04   2.4577552e-05   5.9704653e-05  -1.5057497e-04  -1.0951763e-04  -3.7517920e-04   1.5609927e-04  -9.9675221e-05  -2.0957387e-04  -2.8482309e-04  -6.3819039e-05  -3.7976395e-04  -1.8591712e-05   9.2200440e-05  -1.2357645e-04   1.8395222e-04  -2.1612263e-04  -1.7845322e-04  -2.3911889e-04
  -4.1235078e-04  -4.3376561e-04   1.4567436e-05  -5.1146379e-04  -2.1069334e-04  -3.3851826e-04  -4.5772351e-04  -1.3949897e-04  -5.1462516e-04  -2.8917214e-04  -2.0203248e-04  -1.0052996e-04  -3.1940144e-04  -2.8917359e-04  -2.0426845e-04  -1.4741361e-04   4.1878136e-04   2.0071320e-05  -4.0447310e-04  -1.8461903e-04   3.6750433e-05  -7.0792754e-05  -2.7462409e-04  -3.0703284e-04  -3.6191478e-04  -1.1312271e-04  -1.9185196e-04  -2.1651349e-04  -2.0127666e-04  -1.5239351e-04   2.5821975e-05  -1.4078082e-04  -8.4014260e-05   3.6044851e-06  -8.2425147e-05  -1.6732808e-04  -2.1596566e-04   1.1451106e-04  -1.9263169e-04  -2.4279379e-04  -8.7155437e-05  -6.6601904e-05  -1.2399642e-04   1.5215951e-04   1.8351160e-04   2.0188974e-05   2.8458695e-04  -1.6966780e-05   9.5059717e-05   2.0113957e-05
   7.6225851e-06   9.0891670e-05   2.0467154e-04  -2.4887380e-05   1.1870366e-04   1.3006781e-04   6.9197413e-05   1.2163071e-04   5.2109739e-05   1.7476606e-04   1.7725889e-04   2.2104810e-04   2.5362213e-05  -2.0062465e-05   6.0165305e-05   1.1491739e-05   3.2973679e-04  -5.0137449e-05  -1.0450926e-04   2.4857599e-04   4.3363776e-04   3.6207336e-04   5.9908187e-05   9.3644398e-05   1.3822835e-04   1.6644078e-04   1.1295076e-05  -1.8805962e-04  -1.1090069e-04  -1.1081630e-05   2.8961702e-04   1.1983407e-04   2.8625043e-04   1.7374569e-04   9.3696406e-05   5.1487805e-05  -2.6788213e-04   3.4453959e-04   6.7666755e-05  -1.2972282e-05   3.2962485e-05   5.6791716e-05  -2.4120939e-04  -3.5834044e-05   2.6712747e-04  -1.0664222e-05   3.1436974e-04   3.0592415e-05   5.2094929e-05   3.7022569e-06
   1.2379370e-04   7.7972771e-05   1.9144284e-04  -5.0476090e-05   1.1658386e-04   1.2066238e-04   8.6836030e-07   2.9305105e-05  -7.9813290e-05   1.0139792e-04   1.6132537e-04   2.0102899e-04  -1.6281581e-05   1.6893833e-05  -5.7141267e-05   2.2684810e-05   3.1894766e-04   4.1095653e-05  -1.4195497e-04   1.5679609e-04   3.2113705e-04   2.5693447e-04   1.4882659e-05   8.8784058e-05   6.6478329e-05   5.6682173e-05   7.4535633e-06  -1.3150282e-04  -7.2389637e-05  -5.0039325e-05   1.2471766e-04  -7.3717251e-06  -1.6629278e-04  -1.9857647e-05  -1.1291181e-04  -2.6756681e-05  -3.2522730e-04   7.3583717e-05  -1.5511640e-04  -1.6890408e-04  -6.8439788e-04   1.6574526e-05  -2.0628751e-04  -1.0284422e-04   2.5545703e-05   7.7111457e-05   2.3520000e-04  -6.8265006e-05  -3.5219220e-04  -2.3219257e-04
  -1.6758936e-04  -2.5433287e-04  -1.1629466e-04  -2.8472801e-04  -1.4932652e-04  -2.0378258e-04  -2.5573579e-04  -1.1207138e-04  -2.2123192e-04  -2.0070006e-04  -5.2189989e-05  -1.5857335e-05  -2.2250542e-04  -1.1883327e-04  -1.8797773e-04  -2.3787594e-04  -4.4977700e-04  -6.4720470e-04  -4.1615643e-04  -2.0968157e-04   1.4848760e-04   4.1666393e-05  -2.5630165e-05   6.9345413e-05  -2.4791397e-04  -2.7927398e-04  -1.0225359e-04   2.1539152e-05  -5.1876053e-04  -1.1228583e-04  -3.6178800e-04  -3.4598575e-04   4.2329793e-05  -4.7401012e-05   4.0677874e-05  -2.8618655e-05  -1.6484439e-04  -2.6875240e-04  -6.4022985e-05  -1.9485841e-04  -1.7918705e-04   9.9637538e-05  -1.3645837e-04   6.5195077e-06   2.4295393e-04   1.6603373e-04   3.5372694e-04   1.4374108e-04   5.5465760e-05   8.8846755e-05
   1.5941342e-04   2.0044285e-04   1.4143033e-04   1.4809109e-04   1.9491938e-04   1.5694452e-04   2.5926979e-04   1.3705766e-04   2.1273295e-04   1.9385281e-04   2.9415655e-04   2.3342465e-04   9.5810334e-05   1.2984440e-04  -1.8841851e-05  -7.9565471e-05  -5.7379296e-04  -8.4836764e-04   1.9911927e-04   1.5737572e-04   5.9780397e-04   4.6658350e-04   2.4069364e-04   4.1252509e-04   2.8350949e-04  -6.9571295e-05   2.2775977e-05   5.1016428e-05  -6.2600459e-04   1.3014392e-04  -4.7281201e-04  -4.8192000e-04   3.6988928e-04   2.1759710e-04   1.4424918e-04   2.2388864e-04   6.3820611e-05  -5.0139218e-04   1.1458768e-04   1.4995884e-05   1.4000277e-04   2.9396845e-04  -1.2988901e-04   1.7768727e-04   4.0576069e-04   3.2745049e-04   4.9398857e-04   1.8632598e-04   1.4631118e-04   1.8221592e-04
   2.3815090e-04   2.0742512e-04   1.1689821e-04   1.9368686e-04   1.6189432e-04   1.1822222e-04   1.9560439e-04   7.6584765e-05   2.5495936e-04   8.9821580e-05   3.0170378e-04   2.1785947e-04   1.1064311e-04   1.4312151e-04   1.6720420e-05  -1.4491298e-04  -8.6038315e-04  -1.0062970e-03   6.5011001e-05  -1.6613960e-05   5.3723110e-04   4.4061945e-04   2.2644002e-04   3.6650262e-04  -1.4335318e-05  -1.1765742e-04   4.1766078e-05   9.4084426e-05  -7.5208745e-04   9.9677265e-05  -6.0187356e-04  -4.9682433e-04   3.3273452e-04   1.1731440e-04   9.2380105e-05   1.6708377e-04   2.6896012e-05  -5.0883915e-04   1.3714356e-04  -6.6660301e-05   2.7801387e-04   2.2524735e-04  -6.8342279e-06  -1.9174707e-04   4.9967675e-05  -3.4758417e-05   3.1217837e-04  -3.0541007e-05  -2.2274922e-04  -1.1936413e-04
  -1.4667583e-04  -1.4469070e-04  -1.5873220e-04  -1.0797298e-04  -7.2148534e-05  -2.1972183e-04  -1.2946229e-04  -3.9979161e-05  -1.1443606e-04  -1.7910470e-04   1.7158936e-05  -4.7629732e-05  -1.2571079e-04  -5.8775091e-05  -1.7846319e-04  -2.8763100e-04  -9.6341694e-04  -9.7188965e-04  -9.7832999e-05  -3.0281022e-04   2.3336650e-04   1.9834482e-04  -1.0091381e-04   1.0958586e-04  -1.9289946e-04  -2.9377476e-04  -8.0887548e-05   1.5920056e-04  -6.4482773e-04  -1.2841827e-05  -5.7455956e-04  -5.9804664e-04   2.6784863e-04  -6.1598432e-05   1.1849376e-05  -4.1596254e-06   9.6034826e-05  -2.4253277e-04  -3.4522452e-07  -2.1989256e-04   1.1158026e-04   1.1400442e-04  -1.2364051e-04   3.5648296e-05   1.9206983e-04   2.1103276e-04   3.0587066e-04  -3.5798935e-06   2.1028567e-05   2.7912927e-05
   1.3861276e-04   1.8832070e-04   8.9725516e-05   1.6997135e-04   1.5470701e-04   8.6526015e-05   1.9083820e-04   5.2831710e-05   2.1925276e-04   1.0570916e-04   1.8699463e-04   1.6112652e-04   1.1440094e-04   9.4167779e-05   4.1871630e-05  -8.4833468e-05  -2.4890550e-04  -3.5222142e-04   1.9275371e-06   6.6646498e-05   3.2794959e-04   4.0676852e-04   1.9429129e-04   1.7656476e-04   7.3634692e-05   1.9434026e-05   8.3883577e-07   1.5391382e-04  -3.3298001e-04   6.3709325e-05  -6.8301837e-05  -1.8324819e-04  -3.0587653e-05   4.2489341e-05   1.4468029e-04   1.3144010e-04   6.4372340e-05   9.4353072e-06   6.9695350e-05  -1.1033653e-04  -1.3920180e-04   5.8339749e-05   4.0831143e-05  -8.5568674e-05   1.6342485e-04   1.3229944e-04   3.0392487e-04  -2.5022151e-05  -4.2077565e-05  -2.0024495e-06
   4.8526737e-05   6.4286811e-05   9.1277921e-05   2.6816468e-05   4.9899820e-05  -9.0261630e-05  -1.8222569e-05  -1.1191452e-05  -5.6451558e-05  -6.0584421e-06   2.6119944e-05   1.1919004e-04  -8.4032745e-06   1.7448207e-05   6.4064647e-05  -2.3055924e-05   4.7212638e-04   2.4364352e-04  -1.2997036e-04   8.7770510e-05   1.6469117e-04   2.8484798e-04  -4.1878840e-05  -1.5740494e-04   6.3312878e-06   7.6621167e-05   1.1348117e-05   1.2311595e-04   2.2643160e-04  -8.3133382e-05   6.1661674e-04   2.7392249e-04  -1.5203941e-04  -1.9053217e-04  -7.8916433e-05  -2.5948044e-04  -2.9797741e-04   6.5368338e-04  -4.5828224e-04  -3.3122941e-04  -5.0627731e-04  -2.3807841e-04  -3.6931928e-04  -4.3443238e-04  -3.1151646e-04  -2.2500144e-04  -8.9938621e-05  -2.7873093e-04  -6.4142351e-04  -3.8171659e-04
  -4.1927255e-04  -5.3153996e-04  -8.7105014e-05  -5.8917160e-04  -2.9427768e-04  -4.4273250e-04  -5.8177958e-04  -2.2898013e-04  -4.6804044e-04  -3.2707865e-04  -2.9857122e-04  -2.4852826e-04  -2.9325977e-04  -2.1999404e-04  -7.6135169e-05  -8.2796680e-05   1.1075076e-03   7.8719505e-04  -3.3795155e-04   1.0776684e-04  -6.9780639e-05   1.4075740e-04  -1.6017220e-04  -4.0166755e-04  -6.8605987e-05   8.1349041e-05   1.6996721e-04   2.4968566e-04   4.8652515e-04  -6.5231950e-05   8.5192232e-04   3.6509565e-04  -1.1752278e-04  -1.3501836e-04  -8.5719621e-05  -1.0133215e-04  -6.6218556e-05   6.1082147e-04  -9.1720118e-05  -1.8857248e-04   2.6807693e-05  -1.6979525e-04  -1.8218684e-04   8.2215760e-05  -1.4024382e-04  -3.5992279e-04  -5.3819196e-05  -8.8935512e-06  -2.1013475e-04  -2.2332088e-04
  -5.2326115e-05  -2.1144684e-05   1.5789237e-04  -1.5497133e-04   1.6767281e-05   7.7982397e-05  -7.5431097e-05  -3.6318728e-05  -6.7639136e-05   8.7083563e-06  -6.2021991e-07   4.4391465e-05  -9.5356045e-05   7.7818122e-06   4.6440015e-05   3.2019679e-07   9.9916372e-04   6.6592294e-04  -2.6986978e-04   1.1813871e-04   4.6964583e-06   1.5078127e-04  -6.3328116e-05  -2.4605298e-04  -9.0269914e-06   9.2946808e-05   1.1488441e-04  -2.2179645e-05   9.8770179e-05  -1.4757206e-04   6.0573680e-04   2.5233431e-04  -1.0708283e-04   1.9341308e-06  -1.2147518e-04  -1.9493993e-05  -2.3993221e-04   4.3996566e-04   3.1752872e-06  -1.3832943e-04  -5.9464346e-05  -5.9726804e-05   2.4718328e-04  -2.4418192e-04  -1.9173168e-04  -1.3044919e-05  -4.2251995e-05   7.5277720e-05  -4.6128433e-04  -2.0165536e-04
  -1.9627702e-04  -1.6832602e-04  -1.4448361e-05  -2.8321025e-04  -9.8535842e-05  -1.7126172e-04  -2.5707320e-04  -4.6429104e-05  -2.0216985e-04  -1.3302153e-04  -1.4156071e-04  -5.9326383e-05  -2.5410191e-04  -9.4939060e-05  -1.7793045e-05  -1.0101504e-04   7.1822625e-04   3.8824091e-04  -4.8853434e-04  -8.5750893e-05  -1.2862192e-04  -8.5126747e-05  -1.9533568e-04  -3.6073878e-04  -3.3820464e-04  -4.9214417e-05   7.3797491e-05  -5.4813405e-05  -4.3836320e-05  -1.7793549e-04   3.7249975e-04   3.5754101e-06  -4.7093150e-04  -4.0679119e-04  -2.5786253e-04  -2.2970102e-04  -2.5808910e-04   3.7396542e-04  -1.3263122e-04  -3.9643733e-04   4.8320766e-05  -8.5257961e-05   2.3234272e-04  -7.0708245e-04  -5.7474914e-04  -3.7963342e-04  -2.1083528e-04  -7.2894523e-05  -1.0233609e-03  -7.0137531e-04
  -5.8429159e-04  -6.4788625e-04  -3.0539039e-04  -5.9864635e-04  -3.4642348e-04  -3.7645726e-04  -4.8879097e-04  -2.9955295e-04  -2.4971680e-04  -2.0053223e-04  -2.6791872e-04  -2.0742867e-04  -3.0209182e-04  -9.4667688e-05  -1.5460273e-04  -1.6165336e-04   5.4756523e-04   2.5347280e-04  -1.6152272e-04   4.2839933e-05  -5.0545401e-05  -4.8775732e-05  -8.3278363e-05  -1.3739713e-04  -2.0290755e-04  -5.1637784e-05   1.2848596e-04   3.0838270e-04  -8.2933810e-05  -3.2435459e-05   2.3867901e-04  -1.1669956e-05  -1.6403609e-04  -1.6408517e-04   2.1815295e-05   2.8653409e-05  -4.4766052e-06   9.8174904e-05  -1.3775838e-04  -6.6823559e-05   3.0219887e-04   3.2014935e-04   4.6386934e-04   3.1905301e-04  -6.6900888e-05  -6.1777806e-05   1.0874296e-04   3.9277261e-04  -1.7930985e-04  -1.8380463e-04
  -1.7289289e-05   1.0019684e-04   2.6939750e-05   4.0673058e-05   5.0013834e-05   4.3901789e-05   4.1959982e-05   6.4540000e-05   9.8114579e-05   7.8846053e-05   9.0199777e-05   1.4582698e-04  -6.7857807e-05   8.9611553e-05  -1.2912772e-05  -1.0906606e-04  -2.7656864e-04  -3.8954851e-04  -3.9743241e-05   5.0464143e-05   1.9887926e-04   1.4876877e-04  -8.9570029e-05   2.2107181e-04  -1.6172486e-04  -8.9634465e-05   1.4816750e-04   1.2391980e-04  -5.0432584e-04   1.4566566e-05  -4.3809923e-04  -5.4274191e-04   2.4495448e-04  -2.5054282e-05   8.9907553e-05   1.4128009e-04   9.7134471e-05  -4.8284009e-04   1.6107727e-04  -1.9549958e-04   2.0050679e-04   2.1323583e-04   1.8426277e-04  -1.1102862e-04   3.7524049e-05  -3.9646620e-06   2.2743043e-04   2.7840390e-04  -3.0067403e-04  -1.6778261e-04
  -1.7167044e-04  -5.2810701e-05  -6.3975545e-05  -9.7395350e-05  -3.3004093e-05  -1.1909306e-04  -1.4311285e-04  -2.0107716e-05  -1.4657583e-04  -2.0679859e-04  -4.7951606e-05  -4.8856167e-05  -2.1616455e-04   3.2815378e-06  -6.2805819e-05  -1.9645355e-04  -4.7559306e-04  -6.5322377e-04  -2.6435574e-04  -2.6013004e-04  -2.5636848e-05   7.2689589e-05  -1.9547829e-04  -1.1019842e-04  -2.5547884e-04  -2.0216711e-04   6.7861380e-05   2.2123037e-04  -6.2176207e-04   6.2947083e-06  -3.2434496e-04  -5.5395655e-04  -1.8329106e-04  -3.5845046e-04  -9.9179473e-05  -1.7454823e-04  -1.2529043e-04  -4.3120346e-04  -5.1304061e-05  -4.0954587e-04   2.1739602e-04  -4.9577222e-05  -1.7931192e-04  -2.1399905e-04  -3.6600060e-04  -2.0508844e-04  -6.1039700e-06  -1.2269247e-04  -5.0596613e-04  -3.8382105e-04
  -3.6014704e-04  -2.2208679e-04  -9.3809867e-05  -1.3958436e-04  -5.9251055e-05  -6.6423519e-05  -2.7595068e-05  -8.0803547e-05   9.2747490e-05  -1.6846070e-04  -5.1783620e-05   2.1684933e-05  -1.5335510e-04  -2.7937325e-05  -1.5746371e-05  -1.6772981e-04  -2.8400359e-04  -5.2695832e-04  -2.2948597e-04  -1.9440633e-04   1.7434901e-04   1.4549652e-04  -8.0556538e-06   6.8101865e-05  -2.1534313e-05  -8.2038365e-05   1.5446251e-04   1.1077547e-04  -5.9317186e-04   7.1896524e-05  -3.5416672e-04  -6.8065297e-04  -3.0033718e-05   2.3188804e-05   1.5536138e-04   2.9025506e-04   6.2136016e-05  -4.5941983e-04   2.8374503e-05  -4.2953507e-05   1.2111625e-04   1.8435864e-04   6.6649052e-05   5.1399792e-04   1.7105331e-04   1.2621918e-04   2.0276215e-04   1.0406273e-04  -9.5823299e-05  -9.0579255e-05
  -1.1958643e-04   5.1157585e-05   4.0085091e-05   3.1981599e-05   7.0844340e-05  -3.2775719e-05   3.6935460e-05   1.4073597e-04   1.1897185e-05  -1.2757727e-04   7.1068534e-06   1.3612473e-04  -1.0939888e-04   8.8454253e-06  -1.4917494e-05  -9.4126211e-05  -3.6667647e-05  -1.5093738e-04  -2.6631329e-04  -1.0314437e-04   1.9505226e-04   1.9147614e-04  -1.1016515e-04  -3.1925021e-05  -5.5495617e-05   6.4634347e-05   1.9041980e-04   1.0086785e-04   1.2322824e-04  -1.8924371e-06   3.8150357e-04   2.3938896e-04  -1.2090849e-04  -1.2849730e-04   4.7110716e-05  -1.1712364e-04  -8.2083869e-05   8.9985254e-04   1.1436924e-04  -2.8557586e-04  -1.9178614e-04  -2.0294391e-04   5.7020203e-05  -4.5668782e-04  -3.8854903e-04  -4.5001690e-04  -8.3569830e-05  -2.1390080e-04  -5.3043687e-04  -5.8782607e-04
  -2.8719188e-04  -2.3283652e-04  -7.3470488e-05  -3.0118498e-04  -1.5896736e-04  -3.5485666e-04  -4.2122175e-04  -1.0900367e-04  -3.3163070e-04  -1.6459129e-04  -2.7075820e-04  -7.8068348e-05  -2.3897132e-04  -1.9299057e-04  -2.7046191e-05  -5.2028048e-05   1.0258731e-03   8.9648436e-04  -6.2207779e-04  -1.8893801e-04  -1.6427616e-04  -1.9120483e-04  -4.1730911e-04  -5.1354105e-04  -1.7466633e-04  -1.6361832e-06   6.1054729e-05  -5.4824537e-05   4.1362434e-04  -2.6791869e-04   7.0303469e-04   3.7054491e-04  -4.6289043e-04  -3.2317429e-04  -1.3322177e-04  -2.1880040e-04  -3.0141394e-04   8.9657301e-04  -1.1936066e-04  -2.3230461e-04  -4.3261360e-04  -2.6573395e-04  -1.6637117e-04  -7.5339223e-05  -3.3518151e-04  -3.4548977e-04  -2.4595891e-05  -1.0829680e-04  -2.6175144e-04  -3.7520324e-04
  -9.8199896e-05  -3.2524495e-05   1.1865697e-04  -1.5181804e-04   4.3560331e-06  -8.3171944e-05  -7.6675125e-05  -1.7380988e-05  -9.6168997e-06   9.1124253e-05  -6.2134095e-05   1.0763073e-04  -6.6264904e-05  -2.4405274e-05   1.2463449e-04   5.6515120e-05   1.1325117e-03   8.5646688e-04  -3.3435496e-04   8.6646789e-05   7.6319142e-05  -4.6640830e-06  -7.5462711e-05  -2.3379194e-04  -7.5282849e-05   1.2334662e-04   1.2409473e-04  -3.1676045e-05   4.3839178e-04  -8.3897889e-05   7.6939171e-04   3.8131652e-04  -2.9671279e-04  -1.3544393e-04  -5.3157361e-05  -4.7469030e-06  -1.5669623e-04   7.8634702e-04  -2.2146030e-04  -8.3743696e-05  -1.0352487e-04  -6.8304886e-05   1.7077466e-04  -2.5791445e-05  -1.8414720e-04  -2.1099800e-04   1.7129294e-04   8.5673841e-05  -2.9118315e-04  -3.5672789e-04
  -9.0587251e-05  -7.6388496e-05   9.5939708e-05  -2.0231272e-04  -2.5404348e-05  -5.7389967e-05  -1.4535908e-04  -5.2059429e-05  -1.3799332e-04   1.8242286e-05  -8.1736565e-05   1.1160637e-04  -1.1550225e-04  -8.4508414e-05   3.7845348e-05   2.0873751e-05   1.0630423e-03   8.9204952e-04  -3.9720887e-04   2.7526774e-05   2.5152525e-05  -9.1071714e-05  -1.5345315e-04  -1.5632359e-04   1.3331421e-04  -6.8152889e-07   6.9394104e-05  -2.6384905e-05   4.1930878e-04  -1.9611484e-04   5.6174252e-04   3.7241066e-04  -1.9957051e-04  -1.5351547e-04  -1.1847439e-04  -1.6978585e-04  -3.5114834e-04   8.5355219e-04  -1.4458706e-04  -5.1159691e-06   1.7431217e-05  -5.4812976e-05  -2.7713180e-04  -3.6808135e-04  -4.9045798e-04  -4.0030430e-04   4.4223740e-05  -1.1704864e-04  -5.9256412e-04  -5.5591780e-04
  -3.1643282e-04  -3.5202948e-04  -1.5082741e-04  -4.3670560e-04  -2.3926748e-04  -3.1916727e-04  -4.1308321e-04  -2.3031939e-04  -3.8181618e-04  -2.1082921e-04  -2.4594247e-04  -1.3122513e-04  -2.6782983e-04  -1.8590911e-04  -6.3912194e-05  -1.0314644e-04   8.1008364e-04   7.7413092e-04  -4.2833187e-04  -3.7007470e-05  -1.0495559e-04  -1.3855251e-04  -2.3391561e-04  -1.8806246e-04  -2.5206388e-04  -2.6293887e-05   1.5943621e-04   1.3228593e-04   3.5391049e-04  -1.4200796e-04   4.3970844e-04   2.3322247e-04  -3.0986266e-04  -1.7766243e-04  -6.8705499e-06  -5.8353206e-05  -6.6331959e-05   7.9402566e-04  -1.1842195e-05   1.9222765e-05   7.5022399e-05   2.5417809e-05  -3.0583113e-05  -2.0583779e-04  -5.0264029e-05  -1.1676789e-04   2.1620964e-04   5.6921977e-05   2.5866255e-05  -1.6829827e-04
   1.8736227e-04   2.2975492e-04   1.4999295e-04   1.1874636e-04   2.2003193e-04   2.4787770e-04   2.0705111e-04   1.4139064e-04   1.9882356e-04   2.4131409e-04   2.4580566e-04   2.8861311e-04   1.1173099e-04   1.2461402e-04   1.6046806e-04   6.2960542e-05   3.7801219e-04   2.9049057e-04  -5.4964308e-05   2.2540688e-04   2.4077398e-04   2.1526060e-04   1.4184731e-04   2.1669337e-04   4.5724275e-05   7.3656505e-05   1.7486414e-04   2.2383809e-05   1.8312257e-04  -4.8297683e-05   2.2070561e-04   1.7707110e-04   5.1942458e-05   1.6960733e-04   5.7972728e-05   2.1923141e-04  -7.5691260e-06   5.8162323e-04   2.2418684e-04   1.7290194e-04   1.4824556e-04   2.4637076e-04   2.3543207e-04  -5.6660898e-05   2.7369282e-05   7.3482355e-05   3.2467872e-04   2.0527508e-04  -6.3987049e-05   6.1353050e-05
   2.2536116e-04   1.7509237e-04   1.4817025e-04   8.0130740e-05   1.6794911e-04   1.3230662e-04   1.2179934e-04   1.2860242e-04   1.7397589e-04   8.9686073e-05   2.2028349e-04   2.3526113e-04   4.6667272e-05   1.7203463e-04   6.5269523e-05   1.4364355e-06   5.6188870e-05  -6.4603511e-05  -2.1318832e-04   6.9501279e-05   1.6513818e-04   1.7914285e-04   3.2922559e-05   2.2438834e-04  -1.1592222e-04  -7.7271125e-06   1.6741300e-04  -1.3328398e-05  -5.8771169e-05  -3.0937223e-05   1.2540555e-04  -9.0302774e-06   8.7849912e-05   3.5644580e-06  -1.1797973e-06   9.9162702e-05  -1.2507898e-05   3.2658008e-04  -9.3160641e-05  -1.3543111e-04   1.7865040e-04   1.5187349e-04  -5.5895522e-05  -3.4572885e-04  -1.6300756e-04  -2.7364714e-04   1.5710565e-04   4.2773845e-05  -3.8529144e-04  -3.1866954e-04
  -1.2801841e-04  -1.8115417e-04  -4.9673432e-05  -1.8213972e-04   2.4271449e-05  -3.6555073e-05  -3.4577690e-05   2.2939619e-06   1.4808783e-04   1.2420548e-05   1.2004656e-04   1.4134507e-04   4.1570551e-05   1.0269996e-04   4.7929931e-05   2.3052924e-05   1.3774469e-04  -2.5692680e-06  -3.3152905e-05   1.5495552e-04   2.4167969e-04   2.7241890e-04   1.5483596e-04   2.8387483e-04   4.9592338e-05   1.2817167e-04   2.7364949e-04   2.3208301e-04   9.5097050e-05   7.3377472e-05   2.0565142e-04   4.7144647e-05   2.3095701e-04   1.6810399e-04   2.4047890e-04   1.9806606e-04   1.0774293e-04   5.1184598e-04   2.3202860e-04   2.2390223e-04   5.5885827e-04   2.6749860e-04   1.9323669e-04   8.6476175e-05   2.5766206e-04   1.9372560e-04   4.0166770e-04   2.8404937e-04   9.5478295e-05   1.1387075e-04
   3.8330938e-04   3.3649811e-04   2.7927369e-04   1.9757032e-04   3.3266511e-04   2.4147549e-04   2.8257904e-04   2.1016446e-04   3.5305767e-04   1.8864749e-04   3.2080282e-04   3.1551078e-04   2.1806730e-04   2.5940541e-04   2.0688305e-04   1.3278365e-04   3.7408824e-04   2.3192103e-04   5.6824167e-05   2.7497366e-04   2.6794043e-04   4.3847805e-04   1.9499211e-04   2.9042904e-04   9.0753601e-05   2.4829849e-04   3.8111265e-04   8.3815321e-05   2.0183012e-04   8.2087776e-05   4.5478644e-04   2.9313678e-04   2.8434061e-04   1.6836899e-04   2.0229985e-04   3.6509434e-04   4.8533835e-05   7.7827199e-04   2.2105346e-04   2.4354405e-04   4.6787629e-04   1.9118078e-04   3.2840326e-04   6.2267121e-05   1.3176097e-04   1.5972285e-04   3.2549948e-04   2.2819596e-04  -2.0135066e-04  -5.8869569e-05
   1.9485237e-04   3.7451326e-05   2.3527296e-04  -1.3097560e-04   8.9346344e-05  -5.3770476e-05  -5.5416767e-05   4.7524296e-05   6.9655566e-06   6.7086999e-05   1.0147000e-04   1.1523910e-04   3.3416396e-05   1.4463182e-04   2.1003849e-04   1.3389185e-04   1.0920558e-03   9.9885149e-04  -2.2933906e-04   1.9446215e-04   1.3949330e-05   1.8544702e-04  -1.2467853e-04  -2.4929541e-06  -1.7402954e-05   2.0819598e-04   2.0297714e-04   9.9964433e-05   6.5423705e-04  -1.0125521e-04   7.6211028e-04   6.5969350e-04  -2.6944478e-04   5.9632494e-06   1.0822994e-05  -5.1430809e-05  -1.4812298e-04   1.0595815e-03  -1.2950927e-04  -2.0502094e-04   7.5881515e-05  -7.6666620e-05  -5.3591397e-05  -4.1858695e-04  -3.4311780e-04  -2.8306519e-04   1.6548768e-04   4.3306212e-05  -2.1012145e-04  -2.4535679e-04
   1.8886526e-04   8.1340608e-05   2.5228289e-04  -6.5043350e-05   1.6010158e-04   1.2678614e-04   1.0074554e-04   1.5910916e-04   1.8158868e-04   2.3187869e-04   1.5064023e-04   1.7553550e-04   1.4525412e-04   1.7094389e-04   1.4463690e-04   1.5984218e-04   1.1548784e-03   1.0014428e-03   3.6970591e-06   3.8593556e-04   1.2268916e-04   2.8453924e-04   1.9269524e-04   1.0091554e-04   2.0695983e-04   2.9559777e-04   4.0266756e-04   1.7579315e-04   7.6307502e-04   1.6788637e-05   8.8576309e-04   6.8369869e-04  -2.3744626e-05   2.0923234e-04   1.0798382e-04   2.3774986e-04   3.0678926e-05   1.1310870e-03   1.7269315e-04   1.6152584e-04   2.3883354e-04   3.9477407e-05   1.7952423e-04   2.2852711e-05   1.0555017e-04  -1.2299541e-04   3.4806793e-04   2.4160878e-04   3.4566449e-06  -1.7472694e-05
   3.6587453e-04   2.3134940e-04   3.0953353e-04   2.6369586e-05   2.7004036e-04   1.9656964e-04   1.1268469e-04   1.9970768e-04   1.8169520e-04   2.2114205e-04   2.1523109e-04   2.1883725e-04   1.3412915e-04   2.2676378e-04   1.9932321e-04   2.1707868e-04   1.2167819e-03   1.1582102e-03  -1.4520255e-04   3.8821291e-04   1.2433420e-04   2.0865371e-04   1.6447416e-04   7.0529721e-05   1.0621266e-04   3.0586554e-04   2.4779511e-04   7.0175374e-05   7.4460992e-04  -9.6853619e-05   7.3278416e-04   5.8782758e-04  -3.1215084e-05   7.7451601e-05   5.0972711e-05   1.2423415e-04   7.2380985e-06   1.0326611e-03   2.5851386e-06   1.5547476e-04   3.0792353e-04  -5.8229507e-05  -4.3072829e-05  -3.0239715e-04  -3.0222498e-05  -1.7465875e-04   2.1743415e-04   9.0109395e-05  -2.7146423e-04  -2.7352691e-04
   1.5089696e-04  -2.3951861e-05   1.3419727e-04  -2.1214297e-04   6.0238159e-05  -4.6265486e-05  -1.1479380e-04   1.1554338e-04  -1.2034825e-04  -3.5029891e-05   9.0379372e-06   1.5629676e-05  -8.6779706e-05   2.0020387e-05   8.5177562e-05   5.1461044e-05   7.7257451e-04   7.3300075e-04  -2.4713355e-04   6.0704755e-05  -6.1118742e-05   1.6655958e-05  -4.9010996e-05  -1.0901318e-04  -1.5017558e-04   4.8212780e-05   2.6588581e-04   2.3803666e-04   5.3162640e-04  -2.0788309e-04   4.0242812e-04   3.4741714e-04  -1.4659698e-04  -1.2867144e-04  -1.5073275e-04  -9.9496843e-05  -5.3586878e-05   8.9451845e-04  -4.8155380e-05  -9.9201461e-05  -1.7052451e-04  -1.1043913e-04  -1.5800424e-04  -2.7890821e-04  -1.8320821e-05  -5.6020530e-05   1.7218154e-04   9.0297544e-06   1.2584339e-05  -1.3849513e-04
   3.5697193e-04   2.8426168e-04   2.9422995e-04   9.4323754e-05   3.1955546e-04   3.1926928e-04   2.7908265e-04   2.4202373e-04   2.9652807e-04   2.6040993e-04   2.6597368e-04   2.5365193e-04   2.1792442e-04   2.3228223e-04   2.3020673e-04   2.1540828e-04   1.0253950e-03   8.6811616e-04   9.5948431e-05   4.8103003e-04   2.2911285e-04   3.5667486e-04   2.7744271e-04   1.5070997e-04   1.5966732e-04   4.2133516e-04   4.0949802e-04   2.7484135e-04   7.3359872e-04   3.6224395e-05   7.8410393e-04   6.0195738e-04   8.7616718e-05   3.0224567e-04   1.8466254e-04   1.9692906e-04   7.3425763e-05   1.1919549e-03   2.0000299e-04   4.2060137e-04   4.5091822e-04  -2.5802965e-06   2.4780607e-06   2.3850402e-05   1.6219124e-04   1.1837982e-05   3.0167532e-04   1.8950460e-04   8.2389859e-05  -6.8143869e-05
   5.3267472e-04   3.7709455e-04   3.9715960e-04   1.3220678e-04   3.8852054e-04   3.4401478e-04   2.4995851e-04   2.6440792e-04   2.2305250e-04   2.3700979e-04   3.0745077e-04   2.6785195e-04   2.0649607e-04   3.2034470e-04   2.0320265e-04   1.9248181e-04   7.7550655e-04   5.2486063e-04   1.1481808e-04   3.9539419e-04   2.1669875e-04   3.2988124e-04   2.8225381e-04   2.1132235e-04   2.3873361e-04   2.4740846e-04   3.4436848e-04   3.4887315e-05   3.4910155e-04  -5.7375273e-06   3.7164058e-04   2.2808478e-04   2.3335870e-04   2.2055552e-04   1.5459495e-04   1.9381261e-04   6.1529914e-05   5.1989453e-04   2.6877737e-04   8.9389163e-05   1.1932084e-04   5.4934476e-06   3.4027969e-05  -1.2411222e-04   1.8419846e-04   1.8670973e-04   2.6147402e-04   7.1438451e-05  -8.8288958e-05  -7.6215634e-05
   2.1910523e-04   7.3923620e-05   1.9027626e-04  -1.0307159e-04   1.6613658e-04   7.5085620e-05   9.0839012e-06   2.1374946e-04   7.6294837e-06   2.1835396e-04   1.2415058e-04   7.9774836e-05   2.5451514e-05   1.3690448e-04   3.8264287e-05   1.5414153e-05   2.2678371e-04   6.3691390e-05   7.6026474e-05   1.4639663e-04  -4.7000434e-05   2.2770722e-04   3.5308320e-05   1.8946774e-04  -1.3197989e-04  -4.6614085e-05   3.1150298e-04   3.7366690e-04   6.0373677e-05  -6.5489826e-06  -3.9428789e-05  -2.5408630e-05   2.3168116e-04   1.6204194e-04   1.4183996e-04   1.2927005e-04   1.1874757e-04   1.4109444e-04   3.2543732e-04   2.0000110e-04   4.3777915e-04   1.9998076e-04   9.8598161e-05   2.3044574e-04   4.0149179e-04   2.8146760e-04   4.1788715e-04   2.7311521e-04   2.9633107e-04   3.1367323e-04
   5.1583513e-04   4.7257749e-04   3.6171428e-04   3.4134262e-04   5.2646623e-04   5.2255084e-04   5.5009866e-04   4.7997633e-04   4.5702234e-04   3.2395055e-04   4.8552486e-04   3.1568023e-04   3.4833161e-04   4.4156559e-04   2.8379407e-04   1.5397192e-04  -1.0324405e-04  -4.1844993e-04   4.2244152e-04   4.0976153e-04   3.0527727e-04   6.6087197e-04   4.1210800e-04   4.5973290e-04   1.5311572e-04   2.4135337e-04   4.1128648e-04   3.2541639e-04  -1.3627055e-04   2.7048038e-04   1.0951994e-04  -1.1047783e-04   5.3881813e-04   4.9066497e-04   4.0546092e-04   5.1242264e-04   4.8286622e-04   8.7147768e-05   2.5828846e-04   3.0850217e-04   2.2500336e-04   2.9655060e-04   3.0368156e-04   5.3490832e-04   5.8330240e-04   5.3695810e-04   5.0334050e-04   4.4123534e-04   3.8802394e-04   3.4939070e-04
   4.9865613e-04   3.8680245e-04   5.0302962e-04   1.7800443e-04   3.8669838e-04   3.0701346e-04   2.9193226e-04   4.0342368e-04   2.0242558e-04   1.7402061e-04   2.6340754e-04   3.0060107e-04   2.0780596e-04   2.8575503e-04   2.1947111e-04   1.7360134e-04   6.3277141e-04   2.1111064e-04   9.7399170e-05   2.8509076e-04   2.1561616e-04   4.5606474e-04   2.0535618e-04   1.6471738e-04   1.6438565e-04   2.8329203e-04   3.2025774e-04   1.6561184e-04   6.9337169e-05   2.1698771e-04   3.1360966e-04   1.0162732e-04   2.1084079e-04   2.9501854e-04   2.0160727e-04   2.5398310e-04   2.4777523e-04   2.3423301e-04   1.4434883e-04   1.8281977e-04   1.3846562e-04   1.5890856e-04   3.1182094e-04   1.8971374e-04   2.5798910e-04   3.0363246e-04   3.6043097e-04   1.2223824e-04   5.7537443e-05   8.0280595e-05
   1.1270637e-04   4.5288587e-05   1.9308148e-04  -8.2897364e-05   1.7345068e-04   7.4115109e-05   6.6521810e-05   2.7392019e-04  -5.6859804e-05  -7.9219870e-05   2.1274691e-05   1.0908826e-04  -1.0120129e-05   9.9138015e-05   9.1812035e-05  -5.7745906e-06   5.1829906e-04   2.2385365e-04  -7.2892421e-05   1.6580376e-05   1.5771468e-05   1.5411235e-04  -2.8037439e-05  -1.1883141e-04   9.6601623e-05   8.9002133e-05   1.5585493e-04   2.2929320e-04   9.4143164e-05   5.1531506e-06   3.7077421e-04   3.0770057e-05  -1.4416809e-04   4.6318954e-05  -5.7386103e-05   4.0650888e-05   1.1763245e-05   4.2000250e-04   2.8321389e-05  -7.3596704e-05  -1.1631069e-04   9.8263350e-05   9.4694180e-05  -1.1398338e-05   1.2633587e-04   1.2544203e-04   2.6905595e-04   1.8448131e-04   2.2515662e-04   1.2932274e-04
