   3.4522463e-04   1.7393359e-04   1.4756715e-04   2.3548419e-04   1.5584289e-04   2.6311082e-04   2.3571130e-04   2.3263504e-04   2.4045644e-04   5.4655346e-04   8.8336143e-05   3.6141722e-04   1.0497063e-04   4.8746999e-05   1.5274581e-04   1.0196040e-04   1.3983227e-05   9.1264039e-05   1.3923344e-04   5.7881047e-05   5.5039400e-04   2.3320575e-04   1.3876766e-04   3.0118946e-04   1.9079653e-04   2.6909638e-05   1.8075692e-04   3.7632810e-04   1.4300311e-04   1.2088693e-04   1.8683584e-05   2.0769607e-04   1.6842074e-04   1.0176606e-04   4.3328197e-05  -4.9004964e-05   2.4536854e-04   1.7741734e-04   1.3116476e-04  -3.5088397e-05   5.2378989e-05   9.2888942e-05   5.3727203e-05   5.3423650e-05   1.5817766e-04   1.7537187e-04   1.3113747e-04   8.7561093e-05   5.1200190e-05   1.3300411e-04
   3.4590339e-04   1.9094901e-04   1.3241595e-04   2.4840696e-04   1.6260274e-04   1.8453828e-04   2.4106761e-04   2.8271860e-04   2.9539588e-04   5.4132153e-04   9.1075257e-05   3.6015690e-04   8.2660095e-05   5.1560441e-05   1.0857554e-04   7.6602038e-05   2.0899990e-05   7.3693358e-05   2.2714873e-04   3.7657926e-05   5.4759445e-04   3.0908445e-04   8.6742744e-05   2.9693497e-04   1.3674525e-04   2.3017414e-05  -8.0594214e-07   1.5123577e-04   8.3042883e-05   9.0378249e-05  -1.1918818e-05   1.2477109e-04   7.1828958e-06   3.1968757e-05   1.3676623e-04  -1.1230459e-04   3.1396284e-04   1.5590544e-04   1.6051490e-05  -1.4582552e-05   1.3062143e-04   4.9395894e-05  -8.0474842e-05  -1.6269670e-04   1.2493906e-04   1.6699939e-04   9.1292204e-05   9.4422008e-05   9.6807846e-05   2.3411942e-04
   3.2154296e-04   1.6950579e-04   1.3756068e-04   2.1947514e-04   1.3680659e-04   2.2805770e-04   2.2021061e-04   3.1078869e-04   2.0221499e-04   5.4400763e-04   7.8010838e-05   3.5164115e-04   4.0623643e-05   3.2425160e-05   6.5323038e-05   9.4663425e-05   5.8145037e-05   1.4995913e-04   1.4214215e-04   4.0892744e-05   5.3061912e-04   2.5836509e-04   1.1768770e-04   2.6194137e-04   1.1405097e-04   7.8378334e-06   1.3980464e-05   4.4181739e-05   7.5648095e-05   8.3163352e-05   2.0536052e-05   2.6290392e-04   3.7553255e-04   5.7221710e-05   8.2720551e-05  -4.8585523e-05   2.6350075e-04   2.0653947e-04  -4.0163250e-05   8.0532176e-05   2.9577415e-05   1.7166020e-04   1.1657891e-04   1.9841466e-06   1.3448787e-05   1.9220282e-04   1.1801674e-04   6.5340748e-05   3.9685598e-05   1.1443607e-04
   3.1031563e-04   1.4891637e-04   1.4195616e-04   2.1260796e-04   1.2540563e-04   1.1911384e-04   1.8148102e-04   3.2247993e-04   2.7516184e-04   5.4787030e-04   9.8064040e-05   3.4508272e-04   7.6362347e-05   4.4615037e-05   8.6997934e-05   1.0163135e-04   9.2510476e-05   1.9488668e-04   1.9868519e-04   5.0283375e-05   4.8958784e-04   2.1362385e-04   7.5237840e-05   3.1188451e-04   1.7809719e-04   1.7015926e-05   1.0442155e-04   2.8411718e-04   1.3097921e-04   1.1294655e-04   1.1772808e-04   2.7960804e-04   1.2862243e-04   4.3973181e-05   4.6958561e-05   2.3019598e-05   2.1024783e-04   2.5418229e-04   2.9586710e-04   6.9384543e-05   3.7815195e-04   1.6485187e-04  -6.2822714e-05   1.0408778e-05   4.7522088e-05  -1.9978570e-05   1.2143866e-04   4.5017650e-06   1.0177571e-04   1.4659257e-04
   3.1802029e-04   1.5459409e-04   1.2830597e-04   2.1251477e-04   1.0813476e-04   2.6701379e-04   2.0175846e-04   1.9547646e-04   2.1802657e-04   5.2891596e-04   9.8716271e-05   3.3718921e-04   4.4448559e-05   8.4205400e-05   8.6084634e-05   1.0544073e-04   1.4171063e-04   2.4598921e-04   8.9096662e-05   4.5417357e-05   4.8052726e-04   2.1796844e-04   7.5471267e-05   2.9555755e-04   7.8369376e-05   2.9484616e-05   7.9924459e-05  -6.9188369e-05   8.3861210e-05   3.7443358e-05   1.6530856e-04   4.0681544e-04   1.1576850e-04   2.4812021e-05   5.7285699e-05   1.3977568e-05   2.2721704e-04   3.1755833e-04   7.9716461e-05   6.1137551e-05  -5.1389026e-05   1.1851790e-04  -4.0049254e-05  -2.8674889e-04   2.9314199e-04   1.5019487e-04   9.2001872e-05   1.6223629e-04   4.3539178e-05   1.3683345e-04
   3.0482109e-04   1.4536522e-04   1.3298572e-04   1.8988604e-04   9.8043944e-05   1.3938878e-04   1.5571933e-04   1.5975126e-04   2.3155904e-04   5.2941719e-04   8.6398533e-05   3.3205972e-04   8.8169443e-05   5.1906376e-05   9.8507255e-05   1.1110100e-04   1.4231804e-04   2.3452257e-04   1.0221641e-04   5.0342500e-05   4.6508992e-04   1.3048839e-04   4.2235992e-05   2.8111300e-04   6.3888896e-05   1.0161582e-05   8.0905149e-05   8.2678089e-05   1.3245978e-04   6.5857814e-05   1.4793196e-04   3.7922343e-04   3.7090773e-05   5.6509260e-05  -2.2191336e-05  -7.6904442e-05   3.8872862e-05   2.9217513e-04   1.8895397e-04   3.4938959e-05   1.9157003e-04   1.2972370e-04   2.3288127e-04   9.6408156e-05   1.4315060e-04   2.1032048e-04   8.8265180e-05   1.3806266e-04   3.6439749e-05   1.1655147e-04
   3.0581673e-04   1.4053348e-04   1.3634231e-04   1.9641385e-04   1.2327015e-04   1.7642054e-04   1.8345783e-04   1.1860453e-04   1.5149928e-04   5.1396003e-04   6.8951871e-05   3.1663082e-04   7.8136916e-05   6.0686260e-05   5.5190445e-05   1.0670672e-04   1.3367995e-04   2.4445442e-04   1.7138058e-04   1.7332672e-05   4.7171334e-04   1.5834236e-04   9.9946868e-05   2.5465142e-04   1.8411173e-04   3.1750118e-05   7.6184297e-05   4.8177295e-05   7.9890902e-05   8.0825637e-05   1.1541742e-04   4.1480197e-04   1.1382993e-04   3.2424930e-05  -2.4459248e-05  -6.2186380e-05   1.2394412e-04   3.0674352e-04   1.8387844e-05   1.7068288e-04   2.3971773e-04   9.6917975e-05  -7.9444126e-06   1.1421652e-04   1.8129662e-05   2.0203042e-04   1.0105234e-04   7.2209652e-05   8.2769140e-05   1.2666464e-04
   2.6222796e-04   1.4966619e-04   9.8300021e-05   2.0597418e-04   8.8647961e-05   8.1926657e-05   1.6499746e-04   1.7662472e-04   2.1446109e-04   5.2731577e-04   8.4047781e-05   3.4554044e-04   3.6695779e-05   3.2678628e-05   1.2179771e-04   7.4267416e-05   7.8068457e-05   2.1221180e-04   8.3469138e-05   2.3970035e-05   4.6527546e-04   1.6894241e-04   1.3562341e-04   2.4367370e-04  -2.0837021e-04  -4.0852130e-05  -5.0556559e-07   4.7440528e-05   1.1500524e-04   5.5129171e-05   8.2072656e-05   3.0825578e-04  -2.9072398e-05   4.2982629e-05   8.1829749e-05  -1.1350943e-04  -7.9062647e-06   2.9825506e-04   1.7840622e-04   5.2292642e-05   2.1363350e-04   1.1053630e-04   6.8393172e-05  -9.3397546e-05   2.7316446e-05   6.7328139e-05   7.0360875e-05   6.6571542e-05   4.7797996e-05   5.6947301e-05
   2.8477385e-04   1.4418334e-04   1.1855732e-04   1.8457329e-04   1.0136058e-04   1.4120172e-04   1.3664112e-04   1.7818145e-04   1.4570059e-04   5.0800940e-04   5.7812875e-05   3.2752496e-04   5.4827091e-05   5.2922729e-05   1.0540245e-04   7.3405419e-05   9.1962422e-05   5.6208391e-05   1.2996692e-04   2.8630197e-05   4.4535805e-04   1.8458345e-04   9.1908543e-05   2.3153980e-04  -4.2479729e-05   1.1395279e-05   1.2809636e-04  -3.9895207e-05  -4.7859103e-05   1.1468727e-04   1.0261327e-05   2.2580034e-06  -6.5779124e-05   8.4868509e-05  -4.3937856e-05   8.8438697e-05   3.8016311e-04  -2.6831633e-04   9.7576092e-05  -1.9124534e-05  -5.4525470e-05   1.5323808e-04   4.9940812e-05   1.8463710e-04   3.1014930e-05   1.4104127e-04   9.5010299e-05   1.4005404e-04   1.9346891e-05   1.5184474e-04
   2.5286444e-04   1.1869943e-04   1.3686737e-04   1.6299270e-04   9.2659255e-05   2.0352488e-04   1.8957118e-04   1.7227241e-04   1.5378791e-04   4.8763707e-04   5.8931204e-05   3.3350103e-04   3.1989239e-05   5.1896553e-05   1.1982828e-04   4.9372415e-05   4.4717181e-05   3.7870701e-05   8.8877619e-05   8.8819917e-07   4.6249037e-04   1.9100490e-04   2.6840626e-05   2.7749734e-04  -8.5995038e-05   9.8982109e-06  -4.9038259e-05   1.6437636e-05  -3.5531462e-05   8.1113001e-05   2.5118585e-05   2.6253536e-05   2.2491952e-04   1.5367547e-04  -3.2610154e-05   1.1548296e-04   6.5147666e-05  -4.5584773e-05   1.4210182e-04  -5.3300042e-05  -4.2847445e-05   9.6344309e-05   3.0178149e-05  -1.1190635e-04   1.4267869e-04   1.4180334e-04   9.1391346e-05   1.2313164e-04   4.7914065e-05   1.5510916e-04
   2.6241335e-04   1.2925618e-04   1.1957245e-04   1.6253091e-04   8.5100757e-05   1.9298817e-04   1.6468963e-04   1.1102628e-04   2.5415357e-04   4.9423455e-04   5.5514603e-05   3.2226823e-04  -8.0455429e-06   5.5909411e-05   7.6857636e-05   6.3716543e-05   6.7430126e-05   1.0335318e-04   8.8178167e-05   9.0203844e-07   4.4963404e-04   2.0995838e-04   1.2051545e-04   2.2274684e-04   1.2054127e-04  -8.5877937e-06   3.8634487e-05  -2.7457176e-05   2.9591405e-05   7.0981543e-05   7.7558318e-05   1.8095764e-04   3.5572084e-04   1.1860476e-04   8.3363368e-05  -1.0811361e-04   3.6906890e-04   5.4582175e-05   1.8708262e-04   1.8908295e-05   8.1858387e-05   9.1370348e-05   9.8803161e-05  -1.6898609e-04   1.1146105e-05   2.8475429e-04   9.2724389e-05   4.2682255e-05   4.9771410e-05   8.1975180e-05
   2.4925583e-04   1.2847273e-04   1.0926300e-04   1.7461853e-04   8.4799700e-05   1.8836444e-04   1.2549164e-04   1.6705255e-04   1.5184293e-04   4.9019355e-04   7.4198324e-05   3.3792024e-04   5.6860630e-05   6.0727161e-05   1.4300955e-06   4.7439997e-05   3.4833269e-05   1.1080471e-04   7.4937408e-05   3.5197121e-05   4.5314553e-04   1.4649774e-04   9.0603862e-05   2.5573588e-04   2.0490988e-04   2.5291640e-05   6.3156833e-05   1.5140553e-04   5.2646807e-05   1.1865157e-04   3.1352483e-05   2.3016668e-04   1.6635704e-04   1.2284530e-04  -4.3185111e-05   7.0837399e-05   1.7318480e-04   1.2266234e-04   3.7011539e-04   6.3178217e-05   3.2460343e-04   1.0140879e-04   1.7571055e-04   8.0927610e-05   3.8848433e-05   3.6871112e-05   8.9305075e-05   6.0929859e-05   6.3480496e-05   7.4656142e-05
   2.6576701e-04   1.4630116e-04   1.0290676e-04   1.9708034e-04   6.8377405e-05   1.1513321e-04   1.7705515e-04   1.3311142e-04   1.8045650e-04   4.8504284e-04   6.6434353e-05   3.3423852e-04   1.2535571e-05   4.3922613e-05   3.9159087e-05   5.5334502e-05   5.5639630e-05   1.1994048e-04   1.4968272e-05   1.3094938e-05   4.5971692e-04   1.6431244e-04   7.9042846e-05   2.6270948e-04  -5.7459747e-05   1.3972410e-05   1.1819295e-04  -1.6541588e-05   5.2401905e-05   1.3320681e-05  -6.3577580e-05   1.8212774e-04   2.1327488e-04   1.7418393e-05  -1.4817342e-05  -7.0956870e-05   1.4971672e-05   1.4819618e-04  -6.3876061e-05   9.8550241e-05   8.3151383e-05   1.3093904e-04   2.5154222e-05   7.3996671e-05   1.2960867e-04   1.8575386e-04   7.0006427e-05   6.1071318e-05  -4.1161215e-07   1.4635004e-04
   2.5688787e-04   1.4025089e-04   9.6195370e-05   1.9105716e-04   8.1350256e-05   1.0432251e-04   1.4420076e-04   9.5624287e-05   1.2792432e-04   4.5517096e-04   9.6563177e-05   3.3250163e-04  -1.1162169e-05   2.6553278e-05  -1.1225569e-06   3.4061410e-05   2.1995655e-05   1.0553592e-04  -5.4904667e-06   2.3771596e-05   4.5798792e-04   1.3227935e-04   7.4239630e-05   2.6270168e-04   1.6826027e-05  -4.1263847e-05   3.7710940e-06   3.7032398e-05   1.6516155e-05   6.7617730e-05  -1.6573522e-05   2.1126539e-04   4.1104824e-05   1.4277172e-04   2.9686773e-05  -1.0235972e-04   1.0219660e-04   1.8422351e-04   1.1036611e-04   1.8604394e-04   3.5469505e-04   7.1042465e-05  -1.0706917e-04   9.5634359e-06   2.0505450e-04   1.2913834e-05   7.7506935e-05   3.5164412e-05   2.2914204e-05   1.3918697e-04
   2.4135281e-04   1.4447533e-04   8.7039931e-05   2.1803193e-04   7.9724690e-05   1.1331035e-04   1.4215923e-04   1.5188912e-04   9.7919990e-05   4.3801049e-04   8.9337736e-05   3.4423839e-04  -1.8729716e-05   7.4504037e-06   7.1873896e-05   3.9707229e-05  -1.6147163e-05   8.4233798e-05   8.7982444e-05   1.0066168e-05   4.6541658e-04   1.3287734e-04   4.7544203e-05   2.5771110e-04   5.4487511e-05  -2.2136544e-05  -7.0515098e-06   7.3703428e-05   6.9404559e-05   4.5637345e-05  -5.3068443e-06   2.5012379e-04   1.3312092e-05   9.1904192e-05   1.6365630e-05  -6.7961832e-05   1.0428709e-04   1.7760105e-04  -5.2057592e-05   2.7588577e-04  -2.7737228e-04   1.1121175e-04   1.4803013e-04   2.3735533e-05   1.4450576e-05   2.5493515e-05   3.7372844e-05   8.8939174e-05   8.7998087e-05   5.2707706e-05
   2.4560842e-04   1.3852297e-04   8.4916355e-05   2.0204467e-04   6.5368775e-05   1.2020030e-04   1.5316175e-04   1.3199818e-04   1.5928518e-04   4.5756169e-04   9.9461475e-05   3.3276365e-04   3.0472671e-05   3.8525544e-05   3.2234453e-05   6.5738932e-05   8.8092835e-05   1.8726851e-04   3.1193267e-06   3.3861532e-05   4.4378050e-04   1.5927876e-04   3.2670075e-06   2.5512720e-04   1.1749552e-04  -1.2514774e-05   9.1024311e-05  -7.2141884e-05   1.1649507e-04   1.6422136e-05   1.3912588e-04   3.8368412e-04   1.3447700e-05   3.1965159e-05  -4.9377639e-05  -8.0359881e-05  -1.9013281e-05   3.4133252e-04   1.2965998e-04   4.8302874e-05   2.7293368e-04   4.6922240e-05   3.8006361e-05   2.3010465e-05   6.2344247e-05   9.3332324e-05   3.8501068e-05   5.8246380e-05   5.2274445e-05   4.6564866e-05
   2.3857474e-04   1.1925470e-04   9.9168072e-05   1.6772833e-04   6.8919588e-05   9.6091739e-05   1.1814755e-04   1.3898763e-04   5.1791183e-05   4.3699815e-04   8.3796280e-05   3.2113519e-04   7.1549613e-05   2.7404662e-05   4.0115236e-05   1.0150732e-04   1.4909227e-04   2.7475553e-04   5.1649873e-05   6.2608487e-05   4.2305727e-04   8.9281930e-05  -3.0967090e-05   2.0855614e-04   2.3491077e-05  -3.9443072e-05   5.8530381e-06   2.7055252e-05   2.1807228e-04   6.1062208e-05   1.8211319e-04   4.4448528e-04   5.2827079e-05   7.9814505e-05  -1.2767893e-05   3.1178577e-05   5.0369865e-05   3.5623932e-04   1.0988142e-04   1.5277881e-05   3.4277913e-05   7.7885452e-05  -8.0972088e-05  -3.0041032e-05   1.1269971e-04  -4.1059022e-05   4.4101471e-05   4.3484142e-05   3.9326223e-05   1.5879457e-04
   2.2839486e-04   1.1621377e-04   1.0809941e-04   1.4746778e-04   6.0445032e-05   1.1638644e-04   1.2529339e-04   2.1118872e-04   4.4648670e-05   4.2898077e-04   6.3117732e-05   3.0510075e-04   3.9810297e-05   2.0841246e-05   1.0122440e-04   1.0686231e-04   1.9348702e-04   3.2959707e-04   1.6177573e-05   4.5243498e-05   4.2313605e-04   9.3685623e-05   1.7770646e-05   1.9571467e-04  -1.6658416e-05  -8.0356631e-06   7.0067828e-05   9.7835058e-05   1.5760602e-04   5.4562261e-05   1.9690878e-04   3.5689046e-04  -5.0238061e-05   1.4131057e-05   4.8297414e-05  -3.9675928e-05   1.1875568e-04   3.4185953e-04   6.2661238e-05   9.3387862e-05   4.1352509e-04   9.4650904e-06  -5.2919302e-05   2.0294854e-06   1.5516409e-05   7.8783836e-05   2.1237011e-05   4.1498653e-05   6.3662737e-05   1.1990355e-04
   2.1859079e-04   1.0659115e-04   1.2897202e-04   1.3612107e-04   5.9847414e-05   1.5081145e-04   1.3677249e-04   1.5136256e-04   1.4070132e-05   4.1575261e-04   2.5176576e-05   2.7609331e-04   2.5199974e-05   5.2122296e-06  -1.5580374e-05   1.4602729e-04   2.2328025e-04   3.9004319e-04   1.7138247e-04   1.8903200e-05   4.1257095e-04   1.8299828e-05   5.0570270e-05   1.9977929e-04   2.0283915e-05   9.6036874e-06   5.8696132e-05  -7.6702723e-05   2.4678168e-04   6.7825553e-05   7.4859025e-05   3.6787617e-04  -2.0705657e-04   1.0545229e-04  -8.8557863e-05  -7.9606267e-05   3.5091196e-06   3.9546590e-04   1.9513565e-04   1.4477488e-04  -4.6611658e-05   7.5748714e-05  -3.1634874e-05  -1.5052860e-05  -3.1662021e-05   4.8305104e-05   4.8799073e-05   1.9285826e-06   5.9184586e-05   6.8335168e-05
   2.0072186e-04   1.0147529e-04   1.1027901e-04   1.3580867e-04   7.2821211e-05   1.1615183e-04   9.2556002e-05   1.0308764e-04   7.1154391e-05   4.0839805e-04   2.9720881e-05   2.6722622e-04   3.4428202e-05  -1.8656754e-05  -2.6579242e-05   1.4410181e-04   1.9516230e-04   4.1742547e-04  -5.6152225e-05   3.8613201e-05   4.0741017e-04   4.0585848e-05  -3.4453748e-05   1.7582801e-04   6.5360405e-06  -3.0797131e-05   9.3252267e-05   2.6448059e-04   2.4366385e-04   8.4666135e-05   1.3863684e-04   4.7918514e-04   4.0067986e-05   8.3544175e-05   8.3614432e-05  -4.0955401e-05   1.7231960e-04   5.0328876e-04   2.8773412e-04  -1.1429851e-05   7.3214651e-05  -1.8069359e-06   3.0105466e-05  -6.1646941e-05   4.7505866e-05  -1.3155078e-04   2.9226550e-05  -7.9437468e-06   6.1253551e-05   6.4169784e-05
   2.1598079e-04   1.1419516e-04   8.0963204e-05   1.6352448e-04   5.3846761e-05   8.7849607e-05   1.8194379e-04   6.6358669e-05   3.8966329e-05   4.3634209e-04   3.5352834e-05   2.8915919e-04   1.9072211e-05  -1.2533452e-05   5.8371363e-05   1.0633249e-04   1.6254450e-04   3.4578404e-04   1.2109670e-05   1.8692263e-05   4.3409495e-04   5.2860956e-05   3.5774901e-05   1.7230850e-04  -5.7591289e-05  -9.6365593e-06   2.2379421e-05   1.2672500e-04   1.7742612e-04   3.6293375e-05   9.2051472e-05   3.9951992e-04  -2.4428745e-04   9.6330499e-05   5.4206935e-06  -3.7826550e-05   2.7243793e-04   4.7913910e-04  -5.8129172e-05  -6.2376552e-05  -2.5999002e-04   4.7616089e-05   1.3200208e-04   3.1175390e-05   3.0429157e-05   1.1516887e-04   3.2378284e-05  -1.0577154e-05   3.6870231e-05   5.3089420e-06
   2.2967946e-04   1.2183922e-04   8.2195576e-05   1.6430356e-04   6.2702995e-05   1.1164691e-04   1.5502208e-04   9.9219251e-05   8.0299615e-05   4.3061815e-04   3.4349814e-05   2.8813427e-04   2.6887694e-05  -2.8505113e-07   8.3335464e-05   1.2120137e-04   1.4706219e-04   3.4364639e-04   3.1824649e-05   1.4469081e-05   4.3377391e-04   2.3370094e-05  -2.7227863e-05   1.9300883e-04   3.0853631e-04  -1.6864829e-05   1.4685497e-05   9.5246527e-05   1.9779328e-04   4.8298924e-05   6.1689621e-05   4.0767388e-04   2.2574258e-04   4.9246079e-05  -4.8343732e-05  -2.9710558e-05   2.2436412e-04   4.2894698e-04   8.3349230e-05  -5.1240891e-05  -1.0201630e-04   2.4163086e-05   3.6685677e-05   6.3312953e-05   6.5966109e-05  -1.0985032e-04   2.8725764e-05  -5.6900390e-06   3.8227918e-05   1.3561992e-04
   2.1311437e-04   1.0557312e-04   8.8532812e-05   1.4614545e-04   7.1637915e-05   1.0490369e-04   1.7058672e-04   8.6180036e-05   4.5513825e-05   4.3779204e-04   4.2392643e-05   2.8369197e-04   7.6767050e-05   3.0203322e-05   3.5731220e-05   1.3823211e-04   1.4332592e-04   3.3227881e-04  -7.4990821e-05  -1.4060985e-05   4.2856604e-04   5.7653935e-05   1.4263118e-05   1.9354510e-04   9.3427050e-05  -4.4387518e-05  -3.2520114e-05   2.1810214e-04   1.8673963e-04   7.9104473e-05   1.2850558e-04   3.2713573e-04  -4.1665389e-05  -3.6305457e-05   9.5363277e-05  -6.3199572e-05   1.7810146e-04   3.8009597e-04   9.3446157e-05   1.3774756e-04  -1.6478995e-04   1.0133099e-04  -3.7455325e-07  -1.9600036e-04  -1.2485450e-05   1.4016926e-04   8.3579098e-06   7.1744464e-05   6.2957064e-05   3.9413273e-05
   2.1965225e-04   1.1399290e-04   9.6131320e-05   1.4615912e-04   6.9811926e-05   7.4749594e-05   1.5057735e-04   9.6931581e-05  -4.8762613e-06   4.3214273e-04   1.7554084e-05   2.7554485e-04  -4.1639316e-07  -2.5355590e-05  -1.5771197e-05   1.3146545e-04   1.5400953e-04   3.3992666e-04   5.8424303e-05   3.1558004e-05   4.3510454e-04   5.8531485e-05  -6.1918428e-05   1.7350685e-04  -2.0443977e-06  -2.3622712e-05   2.9419996e-06   6.7395165e-05   1.6365472e-04   4.4887667e-05   1.3916210e-04   3.9215677e-04  -3.0337436e-05   6.7550180e-05   2.9500909e-05  -6.6749068e-05   5.2334854e-05   3.7389612e-04   5.3030031e-05   1.5119422e-04   3.2783599e-05   8.8733424e-05  -1.4634040e-04   9.2195485e-05   7.2889394e-05   9.1253532e-05   2.7010070e-05  -4.0543899e-05   7.2630573e-05   8.7262903e-05
   2.2821032e-04   9.7918957e-05   9.5432821e-05   1.4165464e-04   6.0495498e-05   8.8048633e-05   1.5667184e-04   6.9738540e-05   1.8905097e-05   4.2947536e-04   2.8086783e-05   2.6785929e-04   6.1541643e-05   6.2148392e-06  -7.9196852e-06   1.3893069e-04   1.9352220e-04   3.7226337e-04  -5.1138668e-05   3.4087843e-05   4.2135097e-04   7.2838004e-05  -8.1557984e-05   1.8237851e-04  -6.8672648e-06  -8.9915432e-07   4.6591711e-05   9.8328846e-06   1.9717991e-04   6.4644366e-05   2.1546651e-04   4.4901852e-04  -7.3101044e-05   1.1428638e-04   1.4044055e-05  -1.4322921e-05   2.1276194e-04   4.3433573e-04   3.0018936e-04   2.1599016e-04  -2.8059847e-04   8.6788656e-05  -1.4024787e-05  -9.2825852e-05   5.7410063e-05   3.4249882e-04   5.4494121e-05   3.0521172e-05   7.7613431e-06   7.4375843e-05
   2.2679722e-04   9.6313575e-05   9.9668861e-05   1.3794517e-04   5.2444284e-05   6.3286192e-05   1.1510790e-04   1.1524834e-04   9.7427119e-06   4.2431158e-04   2.0009969e-05   2.6388353e-04  -9.0386748e-06   1.3721550e-05   5.7359157e-05   1.5119388e-04   2.1010370e-04   4.2591360e-04   4.9413004e-05   7.5925454e-06   4.2363140e-04   7.5665717e-05  -2.5286829e-05   2.0212009e-04  -1.2201494e-05  -2.8411407e-05   3.7743757e-05   5.1344923e-05   1.9673369e-04   3.8193462e-05   7.1278853e-05   4.4237147e-04  -4.1192085e-05   1.4642146e-04  -1.0047263e-05   2.9503786e-05   1.6342866e-04   3.2927512e-04   4.1075858e-05   1.3406135e-04  -1.6796689e-04   5.2221541e-05   3.6987411e-05   8.0305865e-05   3.0970303e-05   2.6875298e-04  -2.6001338e-05  -3.1996806e-05   7.2169300e-06   9.4396615e-05
   2.7527413e-04  -2.9245480e-06   2.6817858e-04  -4.1402789e-05   1.1240819e-05  -6.5969027e-05   9.4333089e-05  -8.0994350e-06   2.3637245e-05  -2.3912084e-04   7.4610754e-05  -1.1598987e-04   1.3653713e-04   1.4968647e-04  -3.7657555e-05   9.6377873e-05   5.3144035e-05  -8.3107416e-06  -1.0906013e-04  -3.6972509e-05   5.5346522e-04   1.8065727e-04  -4.8659076e-05   4.1997369e-04   2.5668371e-04  -1.3754390e-06   1.1002935e-04   6.6528650e-05   6.9876944e-05   1.1738416e-04  -1.6491651e-04  -1.1474636e-05  -4.0192885e-05   2.3389369e-04   6.4405867e-05   2.2409127e-04   2.8056413e-05  -5.4058200e-05   4.5361783e-05   8.7725508e-05  -7.9194077e-05   1.2204100e-04   1.3846111e-04  -1.4127359e-04  -1.0900324e-04  -3.1625250e-04  -2.4524074e-05  -6.0932984e-05  -4.1975836e-05  -2.5378620e-06
   2.5635766e-04   5.2191185e-06   2.5466047e-04  -7.0431110e-05  -8.7369972e-06   3.2553140e-05   1.0167000e-04   2.9418958e-05   1.3890758e-04  -2.3957509e-04   1.0862283e-04   4.7055473e-05   1.0682134e-04   9.6250384e-05  -4.7774643e-05   1.0359536e-04   1.5838141e-06  -5.5833953e-05   3.5308953e-05  -2.7881240e-05   4.6327023e-04   1.5835732e-04  -2.6830008e-05   2.6401813e-04   3.3107316e-04  -1.1222151e-05  -4.1283574e-06   2.8038165e-04   1.1541211e-04   1.4140733e-04   1.0853040e-04   1.5929299e-04  -4.6380723e-05   4.3078062e-06  -3.0774198e-05   9.4085684e-05   3.7840565e-04   2.4015870e-04   1.1160319e-04   3.7359667e-05   3.1567522e-04   6.6274060e-06  -8.7689696e-05  -4.0326591e-04   3.8574843e-05   3.8197944e-05  -2.2227061e-05  -7.5037788e-05   3.0147314e-05  -4.3967080e-05
   1.8759197e-04   7.7590317e-05   1.2552350e-04   1.9218200e-05   1.4056856e-05  -1.7224851e-05   1.0866408e-04   3.1007876e-05   6.7609326e-05   2.4504870e-05   9.8696211e-05   2.7148111e-04   6.8445559e-05   9.3643808e-05  -6.5255522e-06   1.0794483e-04   1.3687437e-04   1.9582004e-04   2.7497177e-05  -6.5830686e-06   4.2775917e-04   8.3687417e-05  -3.9991719e-05   2.0063823e-04   2.6834427e-04  -1.0706017e-05   4.2013766e-05   4.2125004e-05   7.2318864e-05   5.0843457e-05   8.9799738e-05   2.7451952e-04   7.4396863e-05   6.8949281e-05   1.3708610e-05  -1.6246388e-05  -2.0655410e-05   2.8904254e-04   3.7912851e-05  -2.2766118e-05  -3.3327096e-04   2.3168528e-05  -2.5703596e-06  -3.8637205e-05   1.1084837e-04  -2.3085242e-05   1.1547801e-05  -1.1215168e-04   5.8956481e-05   7.9667291e-07
   1.5261104e-04   6.3116611e-05   1.0786812e-04   2.6826465e-05   3.5370711e-05   1.0347802e-05   9.4269672e-05   1.1090149e-04   9.6668682e-06   1.1456474e-04   3.5352306e-05   2.5054332e-04   7.4867792e-05   4.5873661e-05   2.5430478e-05   1.5153148e-04   2.1337628e-04   3.1998163e-04   5.8841219e-05  -2.0037694e-05   4.1517540e-04  -1.7670734e-05  -4.5531502e-05   1.8287900e-04  -1.0049947e-04   7.8771391e-06  -1.3327777e-05   8.0636266e-05   1.3905903e-04   4.5605695e-05   1.7868631e-04   5.2198465e-04   1.1868717e-04   6.9502319e-05   9.2575348e-05  -6.2918545e-05   1.9730529e-04   3.9614478e-04   1.3780000e-04   3.5865225e-05   1.9121480e-05   2.8915198e-05   2.3919909e-05  -1.7294785e-04  -5.2572741e-06   4.7102323e-05   4.9899536e-06  -3.4700759e-05   3.1952717e-05  -1.2301150e-05
   1.5444899e-04   5.3599895e-05   9.5182120e-05   2.9958124e-05   4.2664888e-05   1.1537675e-04   3.3502536e-05   3.6242971e-05  -4.1413161e-05   1.5600899e-04   2.1424936e-05   2.5702707e-04   3.1165117e-05   6.9582515e-05  -6.6957698e-05   1.4091085e-04   2.2074814e-04   3.6401948e-04  -1.8164235e-05  -1.5541154e-05   4.2146861e-04   1.5590576e-05  -2.9558130e-05   1.8115832e-04   2.9747945e-04  -4.6201756e-05   3.2932610e-05   1.3446146e-04   1.6283353e-04   4.0215615e-05   7.6161901e-05   5.9006963e-04   2.6526322e-05   6.9430411e-05   7.2917945e-05  -9.1170288e-05   8.9698435e-05   6.2243076e-04  -3.1423537e-05  -6.3852982e-05  -6.1514766e-05   1.8087898e-05  -1.3710398e-04  -8.9076275e-05  -1.0566728e-05  -4.2515418e-05  -2.1129436e-07  -8.8092638e-05  -9.9894232e-06  -1.5089355e-05
   9.4107272e-05   1.9630344e-05   1.3451697e-04  -2.6383716e-05   2.9324898e-05   1.5460058e-05   3.3923614e-05   8.0313235e-05  -6.3719373e-05   2.4977178e-04   2.2615946e-05   2.1684865e-04   1.9643402e-04   2.0724942e-04  -8.5752919e-07   4.1685175e-04   7.7378406e-04   1.0305068e-03   1.2597817e-05   6.5428039e-06   2.7964989e-04  -1.2854891e-04  -4.5112651e-05  -1.4099078e-05  -8.0647136e-05   1.7416945e-05   2.1115740e-05  -4.7541929e-05   3.2891612e-04  -1.2501755e-05   3.9128074e-04   9.8907715e-04  -8.3969899e-05   1.6989344e-06   6.1783954e-05   3.4137815e-05  -2.2519183e-05   6.9096015e-04  -1.1024091e-04   3.3685643e-05  -2.3078140e-04  -2.7548809e-05   9.2407608e-05  -4.8813647e-05   3.3349268e-05   2.5543035e-04  -4.8295595e-05  -3.9628008e-05  -1.8401437e-05   2.7311300e-05
   1.2955115e-05  -7.0461443e-05   1.5695773e-04  -8.3035156e-05  -2.8283253e-06   3.0190939e-05  -4.1597985e-05  -8.6411259e-05  -1.4181656e-04   2.3707478e-04  -1.8305087e-05   2.0879800e-04   2.5618944e-04   1.4340231e-04   3.7551137e-05   4.1742050e-04   8.0943166e-04   1.0498030e-03  -1.6576954e-04   2.5494512e-05   2.1225344e-04  -2.1670465e-04  -1.0526037e-04  -1.5140711e-05  -1.8471775e-04   3.2987366e-05   1.4137586e-04  -8.2805200e-05   3.5785441e-04   1.0712489e-06   4.5885792e-04   1.0032003e-03  -1.9358848e-04  -1.7103774e-05   7.0696777e-05   1.8737543e-05  -5.5932080e-05   7.5252075e-04   3.0461838e-04   3.3383818e-05   1.9520715e-04   9.1834590e-06  -3.8150243e-05  -4.8312526e-05   5.3737411e-05  -8.1071375e-06  -6.2952255e-05  -8.1776627e-05  -3.8472564e-05   6.1193947e-05
   1.7886234e-05  -6.8742280e-05   9.7380478e-05  -5.8332960e-05  -4.1887612e-05   7.7388804e-06  -8.0699967e-05  -1.6658867e-04  -3.9802184e-05   2.4846397e-04   9.7094135e-06   2.2721851e-04   1.0871257e-04   9.0213704e-05  -4.7989000e-05   2.2536248e-04   5.9326168e-04   7.3256850e-04  -1.5050189e-04   2.0227959e-05   2.2447761e-04  -1.5963390e-04  -7.3878720e-05   5.7927380e-05  -1.9622227e-04   4.5695080e-05  -4.7935453e-05  -3.5870736e-04   2.4398846e-04  -7.2134346e-05   4.9113197e-04   9.4687194e-04  -1.5298399e-04   2.8875564e-05   7.6722594e-05  -9.3583199e-05  -2.4041247e-04   7.1071787e-04   2.1287931e-05   2.7207119e-05  -2.1648612e-04   2.0334069e-06   5.9203188e-07  -2.2380560e-04  -5.1917141e-05   3.8885400e-06  -8.1683938e-05  -1.2871188e-04  -1.9420246e-05  -3.0970277e-05
  -5.2946427e-05  -8.3166247e-05   8.7701126e-05  -8.9835317e-05  -4.8823604e-05  -7.0396214e-05  -1.1532244e-04  -1.9781238e-04  -9.4387549e-05   2.6892099e-04  -2.1557767e-05   2.1519196e-04   1.8658245e-04   8.0096303e-05  -3.6834204e-05   3.0898597e-04   6.9462869e-04   9.1728964e-04  -9.8501907e-05   9.3183571e-06   1.9725366e-04  -2.7829618e-04  -1.5713226e-04  -3.2659300e-05  -9.9734869e-05   4.4224369e-05   1.1631667e-04  -2.2193036e-04   3.2759961e-04  -5.5047742e-05   5.1854330e-04   1.3243132e-03  -5.8505455e-05  -2.5630437e-05  -1.4103251e-05  -3.5065787e-05  -2.0301294e-04   1.2109107e-03   1.6230598e-04  -1.3982004e-04  -3.0209994e-04  -1.5129795e-05   3.3865708e-05  -1.1528363e-04  -1.8563456e-04  -1.1308260e-04  -7.9072110e-05  -1.6192219e-04  -4.2767333e-05  -1.6702894e-05
  -4.3417400e-05  -1.0970727e-04   8.1387734e-05  -1.1137684e-04  -6.4107953e-05  -8.6567845e-05  -1.1867099e-04  -2.3158282e-04  -1.8955105e-04   2.9960938e-04  -1.5213761e-05   1.9514562e-04   1.5848169e-04   8.4006409e-05  -7.3801653e-05   3.2411364e-04   6.6894316e-04   9.4353402e-04  -1.8962350e-04   8.4193407e-06   2.2967563e-04  -1.9104419e-04  -2.1460322e-04  -2.7831817e-07  -1.1667847e-05   5.4837442e-06  -4.8638973e-05  -1.5335216e-04   3.1940680e-04  -3.9961109e-05   3.7722042e-04   9.8810648e-04  -2.7200754e-04  -1.5131732e-05  -7.1276532e-05   6.6721957e-05  -1.9507448e-04   7.8233652e-04   3.1880416e-05  -1.0672572e-04   3.2247085e-04  -5.0284529e-05  -1.3499010e-05  -6.1328583e-06   7.8218574e-05   1.2900452e-04  -8.5683219e-05  -1.1939685e-04   2.0922751e-05   1.4151705e-05
  -3.0310612e-05  -8.7939909e-05   6.9689668e-05  -1.0520132e-04  -6.3204694e-05  -3.8020928e-05  -1.0179975e-04  -2.3326365e-04  -8.6498039e-05   2.7993071e-04  -2.4569807e-05   2.0601568e-04   1.1546689e-04   5.9512720e-05   4.2382726e-05   2.4330361e-04   5.6363252e-04   7.2311366e-04  -1.3106542e-04   1.2586725e-05   2.4601817e-04  -1.9606297e-04  -1.5689686e-04   4.0396926e-06  -2.1868169e-04  -3.0950894e-05  -3.2702417e-05  -4.1376668e-04   2.0105875e-04  -7.8390753e-05   2.8645294e-04   8.7820663e-04  -5.2137137e-04  -6.5205713e-05  -1.0255311e-05  -2.5975502e-05  -2.7532128e-04   6.3640112e-04  -1.5695325e-05  -3.1794476e-05  -1.4623810e-04   3.5438472e-06   1.7517344e-04  -2.3427005e-04   3.7979429e-05   7.0432849e-05  -6.7517925e-05  -1.3248429e-04  -2.2240927e-05   2.0953979e-05
  -6.3631735e-05  -8.3033075e-05   3.6128102e-05  -8.9134628e-05  -7.1731090e-05  -1.1726909e-04  -1.2963898e-04  -2.1894269e-04  -1.6831403e-04   2.7067840e-04  -1.6360407e-05   2.2322065e-04   4.5132740e-05   3.9455940e-06  -1.4119466e-05   1.2258645e-04   3.9068342e-04   4.6739989e-04  -1.3246048e-04   2.6250025e-06   3.0664189e-04  -1.5314246e-04  -9.2071074e-05   7.9411009e-05  -8.0852056e-05  -3.5517434e-05  -9.2276787e-05  -2.0086589e-04   1.0530546e-04  -3.6409063e-05   1.9079566e-04   5.6756078e-04  -1.1181784e-04   4.2979358e-05  -1.1058872e-04  -5.7461326e-05  -1.3320512e-04   3.4007968e-04  -5.0970841e-05  -1.1070754e-04   1.5140150e-04   6.7786954e-05   1.4145848e-04   7.7950172e-05  -7.6337041e-05   1.8074614e-04  -2.4214143e-05  -6.1977291e-05   1.5063762e-06  -5.3470076e-06
  -5.7287598e-05  -7.3662210e-05   3.1217838e-05  -7.0484188e-05  -4.4589720e-05  -1.2013297e-05  -6.9928334e-05  -1.1303875e-04  -1.6387590e-04   2.7676654e-04  -2.8079081e-05   2.4017254e-04   5.1563577e-05   4.9144077e-05  -5.3011816e-05   1.0889840e-04   3.0762749e-04   3.7991948e-04  -1.4571450e-04  -2.6590604e-05   3.3461052e-04  -1.2796586e-04  -7.3717805e-05   8.3784362e-05  -2.4964308e-04  -3.6083715e-05  -1.9508274e-05  -1.0309845e-05   1.0157279e-04  -1.4260817e-05   1.1870543e-04   4.8939046e-04  -2.1278039e-04  -5.9170725e-07   8.2092294e-05  -5.7453086e-05  -2.6399201e-05   2.2446249e-04   3.0966188e-05   1.1171091e-04  -5.1311501e-05   1.0292122e-05   1.2513241e-04   2.6348126e-04  -3.7929516e-05  -7.0598217e-05  -3.9303701e-05  -6.2570747e-05   3.9620722e-06   4.2497937e-05
  -2.5647414e-05  -4.8948838e-05   3.1437128e-05  -5.1577041e-05  -5.8038742e-05  -3.6629728e-05  -4.2797186e-05  -1.8667997e-04  -1.4695016e-04   2.8072784e-04  -2.1782564e-06   2.3385568e-04   3.7711750e-05   3.7377027e-05   4.4491659e-05   8.0929989e-05   2.5164476e-04   3.1824870e-04  -1.9869063e-04  -2.3625112e-06   3.3361837e-04  -7.0900031e-05   1.9775365e-07   1.0109681e-04  -1.4065350e-04   5.4893612e-06  -2.1650274e-05  -1.5116618e-04   7.2685631e-05  -3.9840625e-06   1.4451142e-04   4.8338025e-04  -5.7916186e-05  -3.0110161e-05   9.3185459e-05  -4.6403929e-05  -5.0361676e-05   2.3267152e-04   2.7498423e-05   1.4223414e-04   2.1229063e-04   2.3043116e-05  -2.5846261e-05  -2.7553021e-04  -7.6744465e-05  -6.2177627e-05  -2.6003594e-05  -8.9244611e-05  -2.0972207e-05  -1.5192867e-05
  -3.4113862e-05  -5.5146658e-05   1.2375263e-05  -3.5371897e-05  -6.0163831e-05  -1.5378360e-05  -8.0109683e-05  -9.0715075e-05  -1.3294659e-04   2.8444594e-04   6.5633121e-06   2.4531066e-04   6.0303621e-05   6.8064706e-05   1.7534951e-05   6.8051799e-05   2.1249687e-04   2.8769529e-04  -1.5045340e-04  -6.6293119e-06   3.1673431e-04  -5.1571667e-05  -5.6427605e-05   1.2636614e-04  -8.0340360e-05  -1.4021896e-06   8.0324397e-05   1.4011012e-04   7.9834506e-05   2.9604189e-05   2.1762558e-04   4.2055242e-04  -1.5204653e-04   2.9334744e-05  -1.5635818e-05   2.1313498e-04   5.6036210e-05   2.1488794e-04  -4.8690956e-05  -4.7820497e-05   1.8383561e-04   8.0891696e-05   1.7556104e-04  -1.6985116e-04   1.7511431e-05  -1.7451443e-04  -2.3781273e-05  -1.3262122e-04  -2.6708492e-05   2.5980908e-06
  -4.4195425e-05  -4.5000739e-05   1.3705542e-05  -3.8507438e-05  -5.3724281e-05   3.7855731e-05  -2.5618783e-06  -6.4889537e-05  -1.0640043e-04   2.6323824e-04   2.3561361e-05   2.6210217e-04   2.1872049e-05   7.4323412e-05  -4.2375308e-05   6.9574955e-05   2.1028223e-04   2.7256025e-04  -9.4682022e-05  -7.3278752e-06   3.2223939e-04  -5.5558226e-05  -1.4449037e-07   1.3312117e-04  -1.8144545e-05  -1.3201704e-05  -4.3583503e-05  -1.5724399e-05   4.3624186e-05  -1.3208947e-06   5.5933680e-05   3.6658969e-04  -3.1188145e-04  -7.2631425e-05  -5.8534286e-05  -6.2839848e-05   3.8268267e-05   1.9506487e-04   2.3374716e-05   2.1008456e-05   2.3346116e-04  -2.3974988e-05  -3.4762696e-05   2.9213570e-05  -1.3048966e-05  -1.0960915e-05  -5.3904103e-05  -6.2129999e-05   2.1024152e-05  -8.4279767e-05
  -4.1804189e-05  -5.5406614e-05   3.2629043e-06  -1.5194229e-05  -7.0230410e-05  -4.8645263e-05  -1.4203863e-05  -1.4337416e-04  -5.6627396e-05   2.6981693e-04   3.4700064e-05   2.7332647e-04   4.0846135e-05   1.3202573e-05  -7.4950862e-05   5.4974964e-05   1.9024032e-04   2.2651385e-04  -1.2368892e-04   1.1669183e-07   3.2012037e-04  -3.2737495e-05  -4.9424430e-05   1.5374691e-04   3.3507393e-05  -9.9814670e-06  -8.8316701e-05  -2.4561592e-05   2.6717078e-05   3.2408030e-07   1.5058951e-05   3.0185035e-04  -3.0195696e-04   4.1536936e-05   3.5000794e-05   7.4921016e-05   3.4697382e-06   1.5740316e-04   2.0725376e-04  -7.8303943e-05  -7.2452145e-05   5.3091666e-05  -2.0425954e-05  -5.2742522e-05  -7.5699736e-06  -7.2444818e-05  -6.1115534e-05  -1.0016549e-04   2.4718311e-05  -7.3456874e-07
  -5.8816648e-05  -4.5282017e-05   1.4981065e-06  -8.1880307e-06  -4.4148535e-05  -3.6790621e-05  -1.8651799e-05  -1.1817874e-04  -1.3758699e-04   2.7339722e-04   4.5336939e-05   2.7558554e-04   2.6724783e-05   3.2317777e-05  -1.8328399e-05   4.7113241e-05   1.3885985e-04   2.0265739e-04  -1.2449385e-04  -2.9320863e-06   3.2399094e-04  -1.0062381e-04  -3.0256140e-05   1.6008494e-04  -4.7713507e-05  -5.9362028e-05  -4.2949141e-05   1.2904691e-04   9.7203891e-05   5.3916530e-05   5.6508670e-05   4.0865125e-04  -2.9527323e-04  -4.2357413e-05   6.4332657e-05   1.5563746e-04   6.7468340e-05   1.8090583e-04   8.9784546e-05  -4.1156502e-05   2.2770879e-04   6.0419206e-05  -2.1816481e-05  -1.3894735e-04  -1.1457501e-04   1.2215161e-04  -2.5426176e-05  -4.8045418e-05   5.2243937e-05  -3.9402639e-05
  -4.4779528e-05  -1.4958394e-05   5.8116343e-06   7.1391532e-06  -4.1538526e-05  -5.6695599e-06  -3.4187301e-06  -1.0594516e-04  -1.0362887e-04   2.5737574e-04   3.0854480e-05   2.7580163e-04  -6.1739019e-07   4.5818684e-05  -8.4074156e-05  -5.0664462e-06   3.5902394e-05   7.5511431e-05  -1.9225894e-04  -2.3671479e-05   3.7988406e-04  -3.1649557e-05  -3.1210606e-05   1.4497559e-04   8.6091941e-06   1.1292767e-05  -3.6222718e-05  -9.7627788e-05   5.3402946e-05  -1.4728234e-05  -3.1931540e-05   1.6958214e-04  -1.3516723e-04  -3.4940231e-06  -4.2658045e-05  -2.2115584e-05  -4.3239655e-05   1.0863661e-04   5.9214988e-05  -1.7306324e-05   6.7684763e-05   2.7244938e-05  -1.8894386e-04  -7.2041665e-05  -1.9575455e-05  -1.0716003e-04  -2.3712164e-05  -2.2391261e-05   3.8789867e-06   1.4600003e-05
  -2.3169894e-05   9.5417017e-06   2.6466080e-06   2.9683217e-05  -3.5690100e-05  -4.5211294e-05   8.5827623e-06  -9.9441713e-05  -1.1042006e-04   2.4249301e-04   3.6445806e-05   2.8047903e-04   1.2015704e-05  -2.4733892e-05  -9.2489507e-05  -1.3777914e-05   1.2410579e-05   7.3118863e-05  -1.1265174e-04  -1.4592402e-05   3.9353914e-04  -5.3218595e-05   1.9678309e-06   1.7543334e-04  -2.5910353e-05  -5.1441362e-05   3.9709881e-05   4.8917969e-05   1.3645852e-05   9.1964666e-06  -4.6382743e-06   1.5226020e-04  -9.4019881e-05  -1.9046140e-05  -2.5523625e-05   8.7696520e-05  -4.2391466e-07   1.0118556e-04  -9.5634874e-05   6.6907203e-05   4.2148691e-04   2.2309630e-05   8.2483102e-06  -1.5261673e-04  -1.3489529e-05   6.7141795e-05  -4.1955864e-05  -7.0868729e-05   1.3689476e-05   9.4333564e-06
  -3.8975017e-05   3.8908488e-06   6.0144462e-06   3.9510418e-05  -3.0190276e-05   2.2261074e-05   2.1925912e-06  -3.8102600e-05  -4.8081467e-05   2.3444896e-04   2.0109335e-05   2.5674782e-04  -6.2414556e-06   6.2177678e-05   2.7022879e-05  -6.7111910e-06   3.7533860e-05   9.9895653e-05  -4.3556938e-05  -4.7533042e-05   3.9677136e-04  -3.3680491e-05  -2.6850099e-05   1.4383877e-04   1.1458615e-04  -6.5574600e-06   3.0768500e-05   1.1632797e-04  -2.7403244e-06   3.5806454e-05   2.2189830e-05   2.7659535e-04  -2.1393661e-04  -1.3405448e-04   2.0524440e-05  -1.8242050e-05   2.0817225e-04   7.3496347e-05   4.7560330e-05  -7.9654223e-05  -4.2563981e-05   6.8131034e-05  -2.0806861e-05   1.1280131e-04  -9.4045194e-05   4.0240808e-05  -4.5171724e-05  -5.1970790e-05   8.8904944e-06   2.2907814e-05
  -8.4209432e-06   7.2802078e-07   1.2944209e-05   3.3933440e-05  -3.7115056e-05  -5.2592455e-05   1.7477445e-05   3.8979015e-05  -5.1535804e-05   2.4406723e-04   2.7195538e-05   2.5145715e-04   3.4503952e-05  -7.1998916e-06  -1.6518967e-05  -6.5764661e-06   1.2756303e-05   5.9309910e-05  -9.2007627e-05  -3.2308268e-05   4.1086911e-04  -1.0391943e-05  -4.0148145e-05   1.6974148e-04  -1.2248410e-04  -1.9363699e-05  -5.1992265e-05   1.6640730e-05  -5.5837918e-06   1.8503493e-05  -1.3679799e-04   9.9164659e-05  -5.1573930e-05  -1.4801449e-04   2.7857537e-05   1.0868714e-05   1.4799614e-04   6.5295171e-05   3.6832298e-05   4.0773816e-06   2.3965180e-04   9.9980771e-06   2.8347647e-05  -2.4515777e-04  -1.3419124e-04   1.0937350e-04  -3.3626846e-05  -5.9391699e-05   8.2580118e-05  -3.8883547e-05
  -2.5400324e-05   1.0791171e-05  -4.2272641e-06   5.5786932e-05  -2.7787451e-05  -7.7364297e-05   5.5785298e-05  -2.9641993e-05   1.9618974e-05   2.4064103e-04   2.4615296e-05   2.5790627e-04   9.6546827e-08   9.6556414e-06  -4.6642167e-06  -2.7226957e-05  -5.5568391e-05   8.7467542e-06  -9.5086049e-05  -2.4739629e-05   4.2062526e-04   1.0946886e-05  -1.6417096e-06   1.4649231e-04   3.0183071e-05  -5.4480624e-06  -3.3362499e-05   8.3211889e-05   2.7176113e-05   3.1193998e-05  -2.1838401e-05   9.1754395e-05  -1.5750201e-04  -4.6984289e-05   4.4832745e-05  -1.3207627e-05   1.2553488e-04   1.9537569e-05   4.8678645e-05   6.0042163e-05  -1.6245336e-04   1.0117379e-05  -2.8456736e-05  -4.4354561e-05   4.3871674e-05   1.0524268e-05  -4.5234305e-05  -3.1591451e-05  -7.4396298e-06   3.8746344e-05
  -3.3880606e-06   2.3847975e-05  -7.0435285e-06   2.9502477e-05  -1.7895474e-05  -1.9051236e-05   6.9763133e-05   4.3462984e-05   3.9237937e-05   2.3654006e-04   3.0649117e-05   2.5890846e-04   3.3393189e-06  -9.2312766e-06  -3.5008306e-05  -5.0757062e-05  -6.8705514e-05   2.0432164e-05  -9.5692551e-05  -5.8645783e-05   4.3047551e-04  -1.4184287e-05  -4.6977799e-05   1.5911603e-04   2.8119826e-05  -1.9948809e-05  -7.3600720e-05   2.6158747e-05   1.7644228e-05   9.3102062e-06  -4.3442011e-05   6.0945738e-05  -2.2679121e-04  -1.2368929e-04   3.8619237e-06   6.6204375e-05   1.5415213e-04   4.7798774e-05  -1.3475765e-04   4.2883927e-05  -2.1079257e-04  -2.5526471e-05   2.6944264e-05  -3.8605769e-05   9.8221011e-05   1.5265254e-05  -4.7970068e-05   1.6906464e-05   5.2210911e-05  -1.6797063e-05
   1.0492989e-05   1.9463661e-05  -2.3046812e-06   7.0926231e-05  -1.3902283e-05  -1.0923621e-05   3.4034383e-05   5.5356642e-05   9.4376792e-06   2.4243277e-04   3.1413449e-05   2.7748023e-04   5.1033062e-06   2.9502340e-05   3.1988031e-05  -2.1448368e-05  -9.0128291e-05  -3.3146320e-05  -1.5758913e-05  -3.1486419e-05   4.2721303e-04  -6.5938284e-06   2.9939747e-05   1.7802406e-04   8.4259111e-05  -6.4028078e-05  -8.6529020e-05  -9.0388658e-06   4.1343432e-05   1.4795693e-05  -1.0028903e-04  -3.5604764e-06   3.6479701e-06  -1.3373551e-04  -5.8874313e-05  -6.0340608e-05   1.1346361e-04   4.3191743e-05  -7.8230747e-05   5.9750848e-05   1.6681655e-04   3.5469599e-05  -4.1148494e-05   1.8410012e-04   1.2143214e-04   5.3082866e-05  -4.5682697e-05  -7.3992902e-05   4.6851932e-05   5.0437764e-05
   5.2494165e-06   3.4634431e-05   8.8903511e-07   7.2579052e-05  -8.9360674e-06  -4.6034187e-05   5.2947678e-05   1.1573618e-05   4.1033629e-05   2.4185746e-04   2.5597401e-05   2.7769510e-04   2.4069041e-05   3.8398415e-05   3.6065303e-05  -4.1412586e-05  -1.0089949e-04  -4.7027333e-05  -4.7572463e-05  -2.9906134e-05   4.1713633e-04   4.1445437e-05   4.3325308e-05   1.9719214e-04   8.2724655e-05  -6.0201128e-05  -1.0726477e-05   2.2034904e-04   8.1587030e-05   5.3846390e-05  -8.5523461e-05   9.0810659e-05  -3.3644645e-04  -1.7892235e-04  -7.8984258e-06  -7.4180702e-05   2.4535469e-04   4.7922986e-05  -4.6494100e-05  -1.5954896e-04   1.8945301e-04   2.0007436e-05   2.8809194e-05   3.0910951e-04  -2.5473882e-05   1.3589478e-04  -3.5668003e-05  -6.5390494e-05   3.8698763e-05   1.1806477e-05
   3.0458494e-05   3.6147740e-05  -3.8667190e-06   8.3618215e-05  -1.8999306e-05   1.7154838e-05   7.4342723e-05  -2.5665217e-05  -7.3996025e-06   2.4993380e-04   3.8417333e-05   2.7862206e-04  -5.1795832e-06   3.8608264e-06  -3.8323371e-05  -4.7648809e-05  -8.8440669e-05  -4.4170920e-05  -2.9647414e-05  -2.3743556e-05   4.2845943e-04   5.7447745e-05  -4.7760091e-06   1.6877054e-04   8.6912114e-06  -5.4909353e-05  -1.5143645e-05   7.2577677e-05   3.7977676e-05  -1.5459922e-06   1.6816924e-05   4.3333213e-05  -2.7279349e-04   6.5878943e-05   2.2313634e-05  -8.0266736e-06   8.9515197e-05   4.4218443e-05  -3.9781848e-05   1.5363484e-04   1.0994615e-04   2.0653466e-05   1.2113010e-04  -6.8562222e-05  -1.1475421e-04  -1.1833921e-04  -5.4425102e-05  -3.3852484e-05   6.7469882e-05  -6.2673054e-05
  -2.9842002e-05   2.0883521e-05   1.6515623e-05   6.2900290e-05  -1.9092500e-05  -1.5614343e-05   3.3425596e-05  -7.1843853e-05   4.3261512e-05   2.4525981e-04   3.1210195e-05   2.6080859e-04   2.7446829e-05   2.2045917e-05  -4.2033912e-07  -2.8264873e-05  -6.3980973e-05  -2.0447877e-05  -1.8335615e-05  -2.5179432e-05   4.2212827e-04   6.8128484e-06  -5.8039073e-05   1.5612721e-04  -3.3294514e-04  -4.8807855e-05   2.0916282e-06   1.3599434e-04   2.5008223e-05   3.1867479e-05  -5.7982808e-05   1.1813702e-04  -1.4530150e-04  -6.9692060e-06   3.0247600e-05  -6.8872854e-05   1.6978513e-04   5.6584169e-05  -6.5301101e-05   1.9060122e-04  -1.1213466e-04  -8.6746950e-06   7.2989511e-05  -5.9398219e-05  -3.6465026e-05   7.8071047e-05  -5.1584128e-05  -5.8974849e-05   5.9056289e-05  -2.7571694e-05
  -4.4513734e-05   9.7692009e-06   5.1507468e-05   3.1302672e-05  -3.9246979e-06  -1.6672755e-05   2.0713640e-05  -2.4137637e-06  -5.1704188e-05   3.3053785e-04   2.2342907e-05   2.3579186e-04   7.1437731e-05   3.7277976e-05   2.7030716e-05   2.3964792e-05  -2.7724143e-05  -1.3938131e-05   5.6320900e-05  -1.4437808e-05   4.7992449e-04   1.0918025e-04   4.8808855e-05   2.5840793e-04  -7.6904456e-05  -1.6964748e-05   5.4952256e-05   1.5003442e-04   1.4679421e-07   4.6427569e-05  -6.4769483e-05   3.4838085e-05  -1.5693629e-05   4.0792471e-05   1.2326236e-04   1.2033644e-05   4.3702017e-05  -3.1671862e-05   1.3364661e-04   1.2189355e-04   6.2359066e-04   5.3606469e-05   3.7810652e-05   1.6627494e-04   4.7954563e-06   2.7682050e-04  -1.6890983e-05  -1.2587794e-04  -2.6497552e-05  -1.2911748e-05
  -6.5947810e-05  -3.8561866e-05   8.8551424e-05  -3.0653049e-05  -3.7460199e-05  -3.1815915e-05  -5.0866714e-05  -2.1358994e-05  -7.6661308e-05   4.3374099e-04   2.9196615e-05   3.1924443e-04   1.7842581e-04   7.3153067e-05   3.8580201e-05   3.1982973e-04   5.8045762e-04   8.3579117e-04   9.9379082e-05   1.7691539e-04   2.4840442e-04   1.1987467e-04  -4.0933908e-05   2.0684689e-04   8.4044012e-05   2.9309090e-06   1.1206421e-04  -8.8977380e-05   4.5823865e-04  -1.1945009e-06   5.0688029e-04   1.1053946e-03   3.8376260e-05  -2.4706069e-05   6.0598606e-05   6.5328168e-05   4.3145916e-05   1.1371031e-03  -5.6861641e-05  -4.6520930e-05   2.4394797e-04  -7.3829586e-05  -2.6578825e-06   1.2352641e-04  -1.0013968e-04  -1.4151778e-04  -5.8073976e-05  -9.3449802e-05   5.4568274e-05  -7.5490461e-05
  -1.0916063e-04  -8.7923021e-05   9.4024886e-05  -1.1161651e-04  -4.9414433e-05  -2.2632466e-05  -9.7730488e-05  -1.1185189e-04  -1.7091187e-04   4.1513934e-04   2.8452673e-06   2.0107420e-04   1.6514225e-04   7.6551660e-05  -3.6701404e-06   3.0968760e-04   6.0539815e-04   8.0190093e-04  -1.1722900e-05   1.5713020e-04   1.8815980e-04   4.5927482e-05   7.3237125e-06   2.2004142e-04   4.0492250e-05   5.4896586e-06  -5.2281208e-05  -1.0835217e-04   3.4065591e-04  -2.0987667e-05   3.7429019e-04   7.5558078e-04  -6.8028523e-05  -3.5721947e-05   8.9753648e-06  -5.7265530e-05   4.5898894e-05   7.6095661e-04   9.8653662e-05  -1.2709809e-04   1.5862029e-04   2.2355184e-06  -8.3271756e-05  -3.5437428e-05   1.0303022e-04  -1.4565130e-04  -4.4222779e-05  -7.3960669e-05  -4.4418157e-05   5.1651521e-05
  -1.1113662e-04  -4.8433390e-05   2.6520149e-05  -7.2034265e-05  -4.4455392e-05  -8.8637105e-05  -7.7500990e-05  -9.3628390e-05  -7.5090044e-05   2.9056225e-04  -2.1637305e-05   1.4924274e-04   5.4538959e-05  -3.2520322e-05  -2.8436627e-05   2.2185830e-04   4.4487964e-04   7.0603081e-04  -1.1498149e-04   1.2240629e-04   1.5379660e-04   4.8633556e-05  -1.3276673e-04   1.2000617e-04  -1.4445293e-04  -6.6210858e-05  -1.3590486e-04  -1.9486052e-04   3.5363104e-04  -4.8560087e-05   2.0102688e-04   7.5036945e-04  -1.2803082e-04  -4.5758228e-05  -1.8478682e-05   8.9025896e-05  -1.6308507e-04   8.7180833e-04  -5.1190833e-05  -6.3699990e-05  -1.7839826e-04  -2.1334259e-05  -9.2648377e-05  -1.5816222e-04  -1.3809578e-04   2.0710377e-04  -7.8603967e-05  -4.6563026e-05   2.1404483e-05   5.3554646e-07
  -7.0631417e-05  -3.0054287e-05   2.1128584e-05  -2.5376487e-05  -6.2456813e-05  -6.4831038e-05  -5.2921223e-05  -1.0654486e-04  -4.2455955e-05   3.2596645e-04  -2.6106509e-05   1.5682097e-04   5.3560339e-05   3.2375981e-05   5.9929604e-05   1.5517400e-04   3.1645616e-04   5.1967253e-04  -7.6248689e-05   1.1947880e-04   2.1715270e-04   8.2812003e-05  -3.6444271e-05   2.0449501e-04  -5.9467093e-05  -4.0906951e-05  -2.5410158e-05  -9.4862204e-05   2.7535105e-04  -5.4389748e-05   8.6336018e-05   6.8931154e-04   1.5356862e-05   1.1710589e-04  -1.0554805e-05  -1.1028491e-04   2.7658323e-05   7.9686532e-04  -6.2446411e-06  -6.5409613e-06  -3.5138306e-04  -3.8669241e-05  -1.6784338e-04  -3.3427777e-06   7.1859504e-05   1.6847374e-04  -7.0629518e-05  -8.8393332e-05   9.2855789e-06  -8.4092448e-05
  -6.7050336e-05  -2.1808710e-05   1.6674565e-05  -2.5164945e-05  -3.6750476e-05  -4.1912608e-05  -3.7626276e-05   9.9234949e-06  -1.1348894e-04   3.2289786e-04  -3.0317857e-05   1.3189699e-04   3.3178418e-05  -6.1710154e-05  -3.8497878e-05   1.3341843e-04   2.7002775e-04   4.9302558e-04  -4.9428113e-06   1.3425815e-04   2.3815944e-04   5.8637124e-05  -6.3132968e-05   1.5755281e-04  -1.4236024e-04  -8.6247237e-06  -1.3974440e-05   3.4478027e-05   3.3010633e-04  -3.1463427e-05   1.2358101e-04   7.3033955e-04  -2.2506026e-04  -7.8754769e-05  -2.6388792e-05  -1.7618903e-04  -6.1523097e-05   7.6846167e-04  -6.0460639e-05   9.8667515e-05  -2.1527571e-04   7.5213475e-06  -3.8717099e-06  -1.5502690e-05   2.5235871e-05   7.3445946e-05  -8.2232145e-05  -7.3954085e-05   4.8164369e-05  -4.4630156e-05
  -6.3014893e-05  -1.5382679e-05   7.1597824e-06  -1.5053919e-05  -6.5559456e-05  -1.1767463e-04  -1.4404126e-05  -8.7395681e-05  -9.5577547e-05   3.0788462e-04  -3.8647366e-05   1.3701472e-04  -7.6033793e-06  -4.0218722e-05   5.0196436e-06   8.6249376e-05   2.3146049e-04   3.8384568e-04  -1.1187341e-05   1.1620496e-04   2.7463408e-04   1.1198351e-04  -2.0367837e-05   2.2197142e-04  -1.4231440e-04  -5.9857390e-05  -4.4288503e-05  -1.1285407e-04   2.5526897e-04  -8.4692212e-05   3.7545815e-05   5.9499760e-04   1.3647054e-04   8.0859420e-05  -4.7049248e-06  -1.3368567e-04  -1.7286386e-04   7.3527405e-04   1.3504445e-04   6.4056971e-05  -1.1848553e-04  -1.9501833e-05  -2.0759089e-05  -3.8914313e-05  -7.1492141e-05   1.5007943e-04  -9.8237411e-05  -1.2537593e-04   7.6421544e-05  -7.8529723e-05
  -5.4235556e-05  -9.7156908e-06  -1.5805816e-05  -1.8453520e-05  -5.1864001e-05  -3.7694990e-05  -3.1734406e-05  -1.2815863e-04  -7.9188154e-05   3.0409193e-04  -2.2810225e-05   1.5397006e-04  -1.5586855e-05  -7.1218303e-05  -1.7171300e-05   5.2600371e-05   1.2975960e-04   2.7838189e-04  -7.5207536e-05   1.0711699e-04   2.6811508e-04   9.9189514e-05  -3.2060656e-05   2.3550984e-04   9.2805540e-06   2.3160542e-06   7.6261205e-07  -1.7302095e-04   2.0167349e-04  -4.8604856e-05  -4.9728453e-05   5.3009449e-04  -1.6676814e-04  -4.5560977e-05  -3.5980684e-05  -7.4268064e-05  -1.1576618e-04   6.3489954e-04   1.1429684e-05  -1.5990275e-04  -4.2356664e-04  -1.8321836e-05  -3.2011721e-05  -9.9729768e-05   8.0551894e-05  -9.8064229e-05  -6.1262297e-05  -8.7358749e-05   4.5960071e-05  -7.0438124e-05
  -6.7080065e-05  -1.2632721e-05  -3.1178653e-05  -9.8148621e-06  -4.6695033e-05  -4.0061506e-05  -5.4427845e-05  -1.6565736e-04  -2.1781950e-04   2.8498724e-04  -4.6398109e-05   1.7966462e-04  -5.0578761e-05  -7.1834916e-06  -9.3351728e-06   5.9061389e-05   1.5728011e-04   3.1872204e-04  -1.5054221e-04   6.3978623e-05   2.4537067e-04   2.9067734e-05  -3.4896933e-05   1.8346519e-04   4.0768129e-05  -1.2916129e-05  -2.3636509e-05   2.3350576e-05   2.5346031e-04  -4.1016105e-05   1.1506289e-04   6.4132846e-04  -2.9066956e-04   1.3225834e-04  -1.7276241e-05  -8.9184803e-05  -1.1890507e-04   6.8322028e-04   1.5316671e-05   3.0882657e-05  -3.3095279e-05  -6.4539119e-05   7.1220202e-06   1.3487271e-04  -5.8287940e-05  -9.0551432e-05  -6.7319277e-05  -1.0199429e-04   5.2011026e-05  -2.8796791e-05
  -3.0718616e-05  -5.7015955e-06  -3.7665512e-05   5.3465933e-06  -3.7606074e-05  -1.4716461e-04   1.9625822e-06  -1.2765337e-06  -1.9970491e-04   2.8000711e-04  -1.5245803e-05   1.9134620e-04  -2.7975286e-05  -3.3755347e-05  -5.5204189e-05   2.4662342e-05   1.2024200e-04   2.4090143e-04  -9.0232323e-05   4.1418320e-05   2.9657365e-04   4.9345919e-05  -2.3676928e-05   2.2177512e-04  -3.3933607e-05  -2.8710638e-05  -5.4090000e-05  -1.2000018e-04   2.0474513e-04  -5.3063210e-05   1.7100749e-05   5.2617723e-04  -2.0585241e-05  -1.0686344e-04   2.4498897e-06  -9.2809540e-05  -1.1790522e-04   5.9015519e-04   8.5925298e-05   1.9724941e-05   4.4961031e-05  -6.8811707e-05  -4.6782166e-05   6.7266199e-05  -2.5778425e-06  -1.6163820e-05  -7.5523523e-05  -6.4593645e-05   9.6308277e-06  -8.1291590e-05
  -4.6360223e-05  -2.7625304e-06  -3.7774771e-05  -7.1452678e-06  -4.6845158e-05  -8.3091887e-05  -6.5741871e-05  -7.4797303e-05  -1.9370641e-04   2.7817837e-04  -3.0151257e-05   2.0174967e-04  -2.4022733e-05  -4.5835050e-06  -1.2793821e-05   2.1458507e-05   1.0272427e-04   2.3438239e-04  -1.0822033e-04   3.9502855e-05   3.1167173e-04  -7.3901679e-06  -6.9736045e-05   1.9400417e-04  -1.7343933e-04  -7.8917852e-05  -1.1437646e-05   7.6571596e-06   1.2430825e-04   4.4611925e-06   5.0053484e-05   4.3123058e-04  -1.7221193e-04  -1.9140725e-05  -1.0239286e-04  -8.5922700e-05   3.8441442e-05   5.0555286e-04  -8.1279868e-05   6.2584304e-06  -7.5121422e-04  -5.8836104e-05   1.1254694e-05  -9.2103481e-05   3.6430774e-05   1.4862962e-04  -8.0153935e-05  -5.5326633e-05   3.9253195e-05   7.9317016e-07
  -5.2238593e-05  -1.1781813e-05  -2.7749615e-05  -1.0234965e-05  -6.0488226e-05  -8.2313643e-05  -1.9195779e-05  -9.3992130e-05  -1.6456950e-04   2.6182848e-04  -4.5513163e-05   1.8744412e-04  -2.2418008e-05  -1.0628115e-05   1.9140505e-05   1.4989972e-05   1.3143077e-04   2.2013685e-04  -9.7444317e-05   2.3576629e-05   3.2080070e-04   3.6801750e-05  -5.2817653e-05   1.6958901e-04   1.3400539e-04  -2.7753120e-05  -9.4781979e-05  -1.4966991e-04   1.4910332e-04  -3.7889167e-05   7.9518184e-05   4.7289778e-04  -2.0764132e-04   2.9564657e-05  -3.2807984e-05  -9.0645277e-05  -1.3502604e-04   4.4131998e-04  -3.2921971e-06   3.4154073e-05  -2.8077231e-05  -9.3122595e-05  -7.3402160e-05   6.0890969e-05   2.3523569e-05   8.0433142e-07  -8.0570804e-05  -8.5546591e-05   2.1261083e-05  -3.6040932e-05
  -8.5868247e-05  -2.9497396e-05  -2.2487320e-05  -3.2875945e-05  -5.6302495e-05  -4.6779158e-05  -5.1437943e-05  -9.6815354e-05  -1.9340529e-04   2.4641916e-04  -5.6669112e-05   1.6058802e-04  -7.7715467e-06  -4.2007814e-05  -1.4873240e-05   9.9062790e-06   1.7316900e-04   2.4922573e-04  -1.9741527e-04   1.7157869e-05   3.2077931e-04  -1.9047327e-05  -7.1323331e-05   2.0302668e-04  -2.0175776e-04  -1.5119184e-05  -1.2551869e-04  -8.4257146e-05   1.3201001e-04   1.0754508e-05   9.3880160e-05   5.0807593e-04  -4.6226294e-05  -4.2803233e-05  -6.2812818e-05  -1.7896768e-04  -1.6450524e-04   4.1507639e-04   1.1728887e-04  -2.2445305e-05  -2.6945441e-04  -1.1786683e-04  -5.9297428e-05   2.7576059e-05  -8.9096044e-05   3.6123423e-05  -6.7419038e-05  -6.9988229e-05   4.9705337e-05  -1.5766176e-05
  -7.5614400e-05  -3.5610512e-05  -2.9154124e-05  -1.6652562e-05  -5.7105724e-05  -1.0021630e-04  -8.8397494e-05  -1.4786651e-04  -1.2574288e-04   2.3069748e-04  -5.8528654e-05   1.5582274e-04  -1.6379478e-05  -3.8591861e-05   2.3245891e-05   1.1765078e-05   1.6468167e-04   2.6334860e-04  -1.6363114e-04  -7.4030881e-06   3.3268394e-04  -2.0754831e-05  -1.0966573e-05   1.8501317e-04  -2.5625006e-04  -1.1706820e-05   4.0860614e-05   7.4612224e-05   1.3820088e-04   1.4021861e-05   1.5037251e-04   4.9517222e-04   1.2742686e-04  -2.6964713e-05  -9.9243458e-05  -2.0496253e-05  -8.6737018e-05   4.0391088e-04  -3.7093294e-05   5.2956781e-05  -3.2561732e-04  -4.7528803e-05  -1.1439626e-04   5.9373001e-06  -7.8937090e-05  -3.1019099e-05  -9.1541857e-05  -1.1760408e-04   1.1199118e-05  -4.4032211e-05
  -7.2932831e-05  -3.2281725e-05  -2.6080910e-05  -3.2038879e-05  -7.1387854e-05  -1.4602942e-04  -5.2308907e-05  -1.5011472e-04  -1.1932903e-04   2.2441798e-04  -7.8100558e-05   1.5137662e-04  -1.4093675e-05  -2.6473030e-05  -8.0136117e-05   3.5971032e-05   1.7183181e-04   2.8091788e-04  -1.1712316e-04   3.1090458e-06   3.2058221e-04   9.9408853e-06  -1.0886248e-04   1.6404052e-04  -7.3508352e-05  -5.0139290e-05  -2.7173988e-05  -8.8903915e-05   1.3536752e-04  -2.4359559e-05   1.1064192e-04   4.8734332e-04  -1.1584182e-04   1.1643409e-05  -1.2034638e-04  -7.6034834e-05  -1.1261777e-04   4.0119447e-04   1.7658512e-04  -1.6338121e-04   1.8047959e-04  -2.8737635e-05   1.9853951e-04  -6.3116015e-05  -1.6142369e-05  -1.0246718e-04  -8.9795743e-05  -8.7752072e-05  -1.8737588e-05  -3.0083575e-05
  -9.4408781e-05  -4.5612571e-05  -3.1860658e-05  -3.2102769e-05  -8.5027168e-05  -1.8179273e-04  -7.3264739e-05  -1.2816685e-04  -2.6011068e-04   2.1274727e-04  -7.9416168e-05   1.4387905e-04  -2.7941967e-05   3.3883578e-05  -2.2759292e-05   1.3877900e-05   1.6930542e-04   2.6475560e-04  -1.2853098e-04   8.6608884e-07   2.9953558e-04   1.4581863e-06  -6.1484476e-05   1.9876249e-04  -2.6661789e-04  -4.7647558e-05  -1.8742856e-05  -1.0189561e-04   1.8596325e-04   2.6837229e-06   1.3705426e-04   4.3470191e-04  -3.7562426e-05  -5.1808387e-05  -8.3285640e-06  -1.4850475e-04  -3.9568538e-05   3.7982152e-04   3.7813177e-05  -1.3924198e-05   1.7785544e-04  -6.4958564e-05  -1.9747678e-04  -5.3333184e-05  -3.8805119e-05   5.9267739e-05  -8.6625689e-05  -4.6642206e-05   6.4341759e-05  -1.3045028e-05
  -9.1174479e-05  -3.7223868e-05  -2.4217181e-05  -3.0888175e-05  -8.4594467e-05  -1.4154096e-04  -3.6610712e-05  -1.2687019e-04  -1.4896329e-04   1.9473473e-04  -7.2023729e-05   1.3590336e-04  -6.1109109e-05  -8.9777550e-06  -2.9163119e-05   1.1082357e-05   1.7765263e-04   2.8130444e-04  -4.6238587e-05  -2.1137788e-05   3.0034594e-04  -7.5815074e-06  -6.3385443e-05   1.2292003e-04  -2.5770658e-05  -1.4279053e-05  -3.8317503e-05  -1.1649482e-04   1.5367857e-04  -2.1243002e-05   1.5419310e-04   4.8338395e-04  -2.8237602e-04  -7.6516684e-05  -9.1525340e-05  -7.4774289e-05   3.8491962e-05   4.2862102e-04   1.0050235e-04   4.7260903e-05  -1.1708105e-04  -5.3323925e-05   3.3129965e-07  -2.0828584e-04   2.2639571e-05  -1.1225566e-04  -8.0886617e-05  -1.2106654e-04  -7.5156900e-06  -5.4496304e-05
  -8.3210092e-05  -3.4483641e-05  -4.2672680e-05  -4.4804703e-05  -7.4751049e-05  -4.0303155e-05  -5.5088803e-05  -9.8598612e-05  -1.4920642e-04   1.7791889e-04  -7.3435280e-05   1.3391467e-04  -6.5932472e-05  -8.2894927e-05  -7.5705386e-05  -3.3395413e-06   1.2506696e-04   2.7102901e-04  -1.3774387e-04  -2.1055506e-05   2.8094303e-04  -4.2798940e-05  -9.1575712e-05   1.6830975e-04  -1.7560174e-04  -2.2082495e-05  -4.4282413e-05  -7.0600152e-05   1.5660418e-04  -4.3409807e-05   1.2001993e-04   5.1054196e-04  -3.6095470e-04  -5.8158959e-05  -2.0475785e-05  -1.2545779e-04  -1.9515918e-04   4.0630941e-04  -1.3493870e-04  -8.9304456e-05   1.6723503e-05  -6.9445967e-05  -5.1505460e-05  -7.2252027e-05  -3.2307162e-05  -2.7847413e-05  -6.8111898e-05  -1.6620550e-04   1.6537781e-05  -3.0432268e-05
  -1.0295882e-04  -3.6176658e-05  -3.7738584e-05  -3.0233425e-05  -8.3375387e-05  -1.0391080e-04  -4.2853324e-05  -6.4286061e-05  -1.7729306e-04   1.7695357e-04  -7.6579679e-05   1.3760984e-04  -8.4923384e-05  -4.7556092e-05   2.3443304e-06   2.8857739e-06   1.2057704e-04   2.4153538e-04  -1.5805593e-04   9.5052892e-06   2.6817177e-04  -4.9976508e-05  -3.6153087e-05   2.0580199e-04  -2.7835259e-04  -4.5702189e-05  -6.3599233e-05  -1.9183399e-05   1.4431533e-04   9.7866064e-07   5.3546839e-05   4.2832797e-04  -1.6971066e-04  -1.5601816e-04  -8.6821412e-05  -5.8805152e-05  -5.6993842e-05   4.2029095e-04  -6.3637090e-05  -6.6480090e-05  -2.9258450e-04  -8.6611115e-05   3.2358043e-05  -2.3937320e-04  -1.7450405e-04   1.2441231e-04  -9.2908587e-05  -2.6640888e-05   4.2107211e-05  -1.0744068e-04
  -7.0741269e-05  -2.4689734e-05  -4.7532794e-05  -1.3648099e-05  -6.5302687e-05  -6.1229475e-05  -8.9470363e-05  -7.0383518e-05  -1.5140668e-04   1.7683551e-04  -5.7451580e-05   1.3325040e-04  -9.7423268e-05  -4.1997238e-05  -6.2518237e-05  -1.0117947e-05   1.0355259e-04   1.9617347e-04  -1.2598152e-04  -1.5866564e-05   2.5529554e-04  -2.0714810e-06  -5.1617164e-05   1.8744415e-04  -1.6046854e-04  -3.8082439e-05  -1.1490067e-04   4.8925074e-05   1.2032895e-04  -2.5544330e-05   5.4681710e-05   3.9868063e-04  -1.0994730e-04  -5.7557048e-05   9.4405677e-06  -4.8661452e-05  -7.3258241e-05   3.6551204e-04   1.7144230e-05  -8.6582782e-05  -2.7601104e-04  -8.1064951e-05  -1.0323311e-04   8.6022199e-05  -6.2569925e-05  -1.7411837e-04  -6.3509848e-05  -9.8916324e-05  -8.3768364e-06  -4.0352945e-05
  -1.0122217e-04  -2.8177281e-05  -4.2257547e-05  -1.5084431e-05  -8.4846477e-05  -9.9296914e-05  -5.7510704e-05  -1.5963487e-04  -1.8429250e-04   1.6773137e-04  -5.6409564e-05   1.3084034e-04  -1.0575407e-04  -5.1940511e-05  -2.1286809e-05  -1.5220169e-05   1.1084917e-04   2.3391758e-04  -1.2115677e-04  -8.5777428e-06   2.3008139e-04  -3.7573700e-05  -2.8715309e-05   1.5977926e-04   8.8279539e-06  -2.6980100e-05  -2.2240800e-05  -6.8002123e-06   9.9850637e-05  -1.7652521e-05   7.3005016e-05   3.4051982e-04  -6.5903681e-05  -6.1169398e-05  -1.1575248e-04  -1.6411929e-04  -1.0027277e-04   3.5742883e-04   1.8341317e-04   1.2623551e-04  -4.0289186e-05  -4.0478881e-05  -1.3968248e-04  -6.4742111e-05  -6.6109016e-05  -2.2190897e-04  -4.9294929e-05  -9.8882520e-05  -1.5500786e-05  -8.5715081e-05
  -9.5686970e-05  -3.9819399e-05  -3.8707250e-05  -2.4963656e-05  -4.5304405e-05  -1.6283836e-04  -5.2474777e-05  -6.4008782e-05  -1.5798531e-04   1.6682835e-04  -5.3037336e-05   1.2504346e-04  -2.8449940e-05  -3.3517950e-05  -5.8193345e-05   9.1200372e-06   1.4034797e-04   2.5573687e-04  -1.0533105e-04  -1.6910059e-05   2.0467327e-04  -3.7766669e-05  -3.4625617e-05   1.5878906e-04   5.1997040e-06  -6.0372269e-05   3.0509934e-06   2.4456586e-04   1.7850650e-04   1.5813883e-05   9.6260221e-05   4.5723742e-04  -1.7660772e-04  -3.6416775e-05  -1.0524844e-04  -1.7556561e-04   1.7126313e-05   3.6231900e-04  -1.0316536e-04  -7.2716663e-05   1.1954371e-04  -1.1502967e-04   1.6250870e-04   1.1814268e-04  -1.4085523e-04   4.9254333e-05  -7.2155155e-05  -5.8829439e-05   1.8755012e-05  -4.3198350e-05
  -6.5216533e-05  -2.5118121e-05  -4.7451242e-05  -2.3335839e-05  -7.5604272e-05  -1.0488099e-04  -5.2987580e-05  -7.7611003e-05  -7.6994860e-05   1.6188640e-04  -6.3316103e-05   1.1102801e-04  -7.8907942e-05  -4.7872421e-05  -5.1983377e-05   3.8774970e-06   1.2119328e-04   2.3885258e-04  -2.0854421e-04  -3.2291343e-06   2.0114137e-04  -2.2624221e-05  -1.7265649e-05   1.5556107e-04  -1.7469309e-04  -1.1076154e-05   5.2649193e-05   1.0415026e-04   1.5818221e-04  -2.0911168e-05   1.0897168e-04   4.0058800e-04   3.9685518e-05  -1.9190793e-05  -5.6916993e-05  -2.2590735e-04  -2.1464493e-05   3.7569771e-04  -8.6793378e-05  -6.9303314e-05  -8.8904671e-05  -9.8895231e-05  -1.9186778e-06  -1.6103245e-04  -4.9304068e-05  -6.9801266e-05  -6.1493971e-05  -8.6095330e-05  -2.8492585e-05  -6.3122898e-05
  -8.9801746e-05  -3.2647120e-05  -4.2387015e-05  -1.9697334e-05  -6.7930800e-05  -5.9617912e-05  -4.7557987e-05  -4.8881811e-05  -1.3526237e-04   1.4969669e-04  -5.6458772e-05   1.0979587e-04  -5.7815927e-05  -4.0898925e-05   1.3552968e-05   1.2628157e-05   1.1868196e-04   2.3362425e-04  -4.5673805e-05  -9.8749460e-06   1.7961982e-04   6.9276075e-06  -6.2361629e-05   1.4229292e-04  -3.2098065e-05  -3.6819230e-05  -4.3129371e-06   1.0068156e-04   1.0666141e-04   8.2076904e-06   1.3118370e-04   3.7286751e-04  -1.8816711e-04  -6.6912209e-05  -8.0122809e-06  -3.4453325e-05  -4.0753013e-05   3.5893871e-04  -1.5095848e-04  -1.9623614e-05   1.3771545e-04  -2.5381967e-05  -1.0852883e-04   1.8333121e-05   7.9676705e-05  -8.3447769e-05  -1.8277049e-05  -5.8467849e-05   2.9872263e-05  -2.1634953e-05
  -7.9496036e-05  -2.9957348e-05  -3.1154203e-05  -2.2211696e-05  -3.4747569e-05  -2.2638736e-05  -3.0001615e-05  -1.2077562e-04  -1.6478883e-04   1.3031383e-04  -6.3097417e-05   9.7299169e-05  -6.0904378e-05  -3.8908918e-05  -9.3862564e-06   2.3822509e-05   1.5293948e-04   2.5308685e-04  -1.2236065e-04  -1.9240735e-05   1.6597839e-04  -3.8053022e-05  -2.5636455e-05   1.2404556e-04  -1.0778468e-04  -1.4989433e-06   4.1904332e-05   1.2319451e-04   6.0066086e-05   1.5919488e-05   1.5503599e-04   3.9123493e-04   3.8711853e-05  -1.3878735e-04  -1.0432500e-05  -2.3036449e-05  -7.1365292e-05   3.1881410e-04  -8.2319893e-05   1.0136404e-04  -2.2833809e-04  -8.9817535e-05   9.7179895e-05  -9.4972303e-05  -1.0706255e-04  -4.0975588e-05  -7.1187758e-05  -8.1051527e-05   7.4064137e-06  -6.3254789e-05
  -9.8517048e-05  -3.5255805e-05  -2.4545816e-05  -8.3977075e-06  -4.4596738e-05  -1.1541372e-04   1.6843450e-06  -5.6906306e-06  -1.5108867e-04   1.3641603e-04  -5.7041012e-05   9.1342386e-05  -4.2835123e-05  -2.6121606e-05  -2.1735448e-05   1.5455553e-05   1.4450963e-04   2.5416308e-04  -1.1972028e-04  -6.2673321e-06   1.4760577e-04  -5.0663119e-05  -1.2003932e-04   9.8062425e-05  -9.4287294e-05  -5.8434364e-07   1.3345590e-06   2.5876376e-04   1.0439246e-04   8.0011250e-06   1.4465881e-04   3.8300874e-04  -5.2264368e-05  -7.7017394e-05  -3.3068627e-05  -1.5297013e-04  -4.9524133e-05   3.1766584e-04  -2.1726957e-05  -2.8273040e-05  -9.5268064e-05  -9.5780626e-05  -1.4136209e-04  -6.9542941e-05  -3.1309664e-06   2.9116723e-04  -5.8465874e-05  -4.2700703e-05  -1.8466673e-05  -2.9521912e-05
  -8.5342101e-05  -3.8220373e-05  -1.8630912e-05  -1.3624531e-05  -3.1305597e-05  -1.2803498e-04   4.9167766e-06   1.9822457e-05  -9.3547373e-05   1.3174843e-04  -5.2446507e-05   6.6185850e-05  -3.7322046e-05   1.4074091e-06   4.8508491e-06   1.5833248e-05   1.3229373e-04   2.2406416e-04  -7.9098783e-05  -4.1346066e-06   1.3296879e-04  -2.6213624e-05  -1.6111580e-05   1.2084471e-04   8.5960142e-05  -3.6236710e-05  -1.5695176e-04   1.4339303e-04   1.9285195e-04   3.2923672e-05   1.5046545e-04   4.7816715e-04  -9.0888490e-05  -2.0385445e-05  -2.5581166e-05   1.0084281e-05   4.1507403e-05   3.5063797e-04   8.6010325e-05   7.8536628e-05  -3.0912188e-04  -2.1901473e-05   1.5106466e-05   2.4554021e-05   9.4844618e-06   6.6429006e-05  -5.1739211e-05  -6.7881636e-05  -1.3076902e-05  -5.4795779e-05
  -6.0302056e-05  -2.9732390e-05  -2.3170303e-05  -1.8459803e-05  -2.0182701e-05  -3.6099933e-05  -3.1926616e-06   5.3538719e-05  -6.2657295e-05   1.0906914e-04  -4.9544829e-05   7.9856167e-05  -4.6484034e-05   2.4269388e-05  -1.1188244e-05   6.0371526e-06   1.0503583e-04   2.1762519e-04   7.9490883e-06  -2.6586738e-05   1.3931804e-04  -1.3099917e-05  -1.2199368e-05   1.1265143e-04   5.8079051e-05  -3.5842168e-05  -1.0241118e-04   3.1096517e-04   1.3903974e-04   1.2531039e-05   9.3383613e-05   3.4137533e-04  -1.4652476e-04  -2.5899499e-05  -5.5863904e-07  -9.5671465e-05   3.4618992e-05   5.5127555e-05   3.9509963e-05   6.1852537e-05   2.8031180e-04  -2.9629668e-05  -5.5032924e-05  -2.8674875e-05  -8.1376646e-05   5.2447205e-05  -5.7154619e-05  -9.4064970e-05  -1.6569556e-05   3.8879909e-05
  -7.8904101e-05  -5.5546308e-05   1.5820011e-05  -4.6979687e-05  -2.7923461e-05  -5.0909523e-05  -1.3073526e-05   2.2912100e-05  -8.1608247e-05   8.1039827e-05  -6.9689020e-05   5.6713088e-05  -5.4309778e-05   3.5428176e-05   5.2694350e-06  -4.2348358e-05   1.2285309e-04   9.4438301e-06  -1.0575526e-04  -2.2082024e-05   9.8638498e-05   3.9936299e-07  -9.6310953e-07   1.1441143e-04   2.0067915e-04  -3.1667983e-05  -1.3532331e-04   3.0520667e-05  -1.6194003e-04  -5.5070423e-06   1.1361131e-04  -2.3605726e-06   1.5658487e-05  -7.6933124e-05  -1.7504690e-05   6.4776112e-05   2.0116442e-05  -2.4421851e-04  -1.3072573e-04  -3.9933391e-05  -1.5365885e-06  -4.8281225e-05   1.2713415e-04   2.1436973e-04   1.3149959e-04   4.9043461e-05  -2.8338920e-05  -1.1034977e-04  -1.4102520e-06  -2.3445031e-05
  -9.3296592e-05  -6.1574370e-05  -1.1720354e-05  -2.8829490e-05  -3.9642367e-05  -1.0453207e-04  -4.8032169e-05  -4.0239418e-05  -5.6705201e-05   8.3095423e-05  -3.8905364e-05   6.7273460e-05  -3.0864016e-05  -9.6819531e-06   2.9068944e-05  -3.0491121e-05   5.1122388e-05   2.8850307e-05   4.4875025e-05  -7.1785348e-06   9.9162717e-05   2.9128538e-05  -3.3020617e-05   6.0886916e-05  -7.6605560e-05  -2.2244520e-05   4.0233179e-05   9.3123172e-06  -6.4548942e-05   3.7532998e-05   5.7546382e-05   4.7454530e-05  -1.3449222e-04   4.6535474e-06  -3.6959889e-05   5.3434782e-05   8.0355778e-05  -1.3306888e-04   1.3856534e-04  -1.7630467e-05   2.5525814e-04  -2.9865392e-05   4.8634706e-06  -3.4287100e-04   5.3871034e-05   1.0751151e-04  -2.5832989e-05  -4.3979915e-05   3.5038647e-05  -4.1695690e-05
  -8.2667211e-05  -4.8486530e-05  -1.9087136e-05  -2.5296058e-05  -5.7378006e-06  -1.3004096e-04   1.2274715e-05   6.9044972e-07   1.2107705e-05   7.0233502e-05  -2.5442152e-05   6.4653017e-05  -4.5799719e-05  -2.0762540e-05   6.5605809e-06  -4.4143912e-05   1.3451346e-05   1.6317317e-05  -7.1670445e-05  -1.4598445e-05   1.0397141e-04   7.4475502e-05  -1.4145087e-04   1.0798932e-04  -3.4636298e-05  -3.5540899e-07   3.2533109e-05   2.0617184e-04  -9.4365409e-05   1.8320468e-05   3.3106320e-05   6.7473200e-05  -2.1108666e-04  -8.8204622e-05  -6.8194124e-05   3.8585233e-05   7.7778517e-05  -1.1621828e-04   9.3754978e-05   1.4153466e-04  -2.1350672e-04  -6.5452761e-05  -1.5755800e-04   3.2388535e-04  -3.0069341e-05   1.2122422e-04  -2.5566447e-05  -8.9297719e-05  -2.7789576e-05   7.8762991e-05
  -5.3550335e-05  -4.1197283e-05  -1.7088283e-05   1.1850127e-06  -1.8796720e-06  -6.4710017e-05  -6.0973537e-07  -3.0774259e-05  -5.8299003e-05   7.3216790e-05  -4.1988198e-05   6.4355321e-05  -1.6017078e-05   1.4714908e-05   1.1988470e-06  -4.6647088e-05   1.7083392e-05   9.4737152e-06   3.8127881e-05  -1.8042365e-05   9.8172386e-05   2.3592200e-05   1.2122545e-05   1.0779938e-04   1.2018687e-04  -3.1918727e-05  -1.0686600e-04   6.3146268e-05  -3.5453122e-05   9.8065757e-06   4.4139710e-05   6.9096933e-07   5.6367575e-05   7.7223529e-05  -2.8740747e-05   7.5514904e-06   6.3977823e-05  -1.1426579e-04  -7.9922836e-05   1.1064289e-04   2.6822130e-05  -4.0775951e-05  -4.1024461e-05   3.0125628e-04  -1.5427223e-07  -3.5118304e-05  -4.0938476e-06  -5.8891739e-05  -1.4591440e-05  -1.3415898e-06
  -8.0817656e-05  -4.6411860e-05  -8.8705410e-06   1.1065745e-05  -2.1851183e-06  -1.2260777e-05   7.1155200e-06   1.0499846e-04   2.4828472e-05   7.2435141e-05  -4.4576838e-05   5.8026901e-05  -2.8204380e-05   3.8627208e-05   1.2111665e-05  -2.4547431e-05   1.6126665e-05   2.1391117e-05  -7.8961653e-05  -1.0174061e-05   8.9572408e-05   1.9694913e-05  -4.0203369e-05   1.2471063e-04   1.4995562e-04   1.7963966e-05  -2.9561044e-05   2.3129738e-04  -4.3605214e-05   4.4154716e-05   3.3025986e-05   6.2885447e-05   2.9526082e-05   5.5685350e-06   2.9972944e-05   8.3072024e-05   2.8528398e-04  -9.5440140e-05   1.2376375e-04   9.2424074e-05   1.9719645e-04   1.8967936e-05  -6.1918370e-05  -3.1477703e-05  -4.2980487e-06  -9.6574338e-05  -4.2437681e-05  -5.7892685e-05  -1.8496081e-05   3.2882308e-05
  -5.6399182e-05  -3.2682616e-05  -1.3228779e-06   7.9769843e-06  -1.4553564e-05  -2.5136444e-05   5.3367844e-06  -3.8429193e-05   4.7558733e-05   6.0609269e-05  -2.7014032e-05   4.4528009e-05  -1.7123433e-05   3.1726555e-05  -2.0200407e-06  -3.9284168e-05   6.0686220e-05   2.9561377e-05   5.2915311e-05  -2.9127754e-05   8.0846861e-05   3.5526336e-05  -4.6258552e-05   6.6487301e-05   1.0677017e-04   1.4310932e-05  -2.6034972e-05   1.3357372e-04  -6.7662790e-05   2.5571389e-05   4.9392700e-05   1.0778151e-04  -3.4882130e-06  -4.7060556e-05   3.5539742e-05   2.4598112e-04   2.8270180e-04  -9.9606012e-05   1.0750220e-04   9.3260613e-05   2.7742906e-04  -2.8304646e-06   8.8218098e-05  -3.7126021e-05   1.2235639e-04   2.7866504e-06  -1.0432197e-05  -8.1867867e-05   9.7034917e-06   2.3804150e-05
  -6.9391048e-05  -5.2549978e-05  -7.1985178e-06  -1.3499293e-05  -1.8044135e-05  -6.4176435e-05   8.9536597e-06   2.8161721e-05  -5.3672800e-05   6.4154141e-05  -4.7876998e-05   2.1728194e-05   1.5185933e-05   3.6334106e-05   4.4302255e-05  -7.2369648e-06   6.4153879e-05   6.6103741e-05  -1.0349735e-05  -2.5857244e-07   6.4984481e-05   9.8646497e-06  -3.7039390e-05   7.6984237e-05  -1.6502697e-04   3.0058798e-05  -3.5818353e-05   1.9698695e-04  -9.7364391e-06   3.8352064e-05   7.9416932e-05   9.3989198e-05   2.8622224e-05   1.0471580e-04  -1.8092440e-05  -9.8557335e-05   1.6311566e-04  -1.0304148e-04   8.2216851e-05   6.2833184e-05   3.5062338e-05  -1.4269415e-05  -4.7987200e-05  -2.1619706e-04   1.9014877e-06  -8.8294466e-05  -1.6259983e-05  -1.1073818e-04  -2.2825710e-05  -2.0115680e-05
  -8.1457176e-05  -5.8219288e-05   1.2451354e-05  -1.2069284e-05   8.0897854e-07  -9.2363793e-05   3.0236974e-05   7.6282602e-05  -5.6865432e-05   6.1861640e-05  -4.5705896e-05   2.7016220e-05   4.0651889e-06   3.7800604e-05   9.2234157e-05   4.6950936e-06   6.2893479e-05   7.4096824e-05   7.1341485e-05   8.3305913e-06   5.4226814e-05   4.1436910e-05  -4.6900568e-05   9.0224443e-05   2.6374395e-04   8.0183900e-06  -4.5149525e-05   2.9375096e-04   1.1312028e-05   1.0371283e-04   1.2160046e-04   1.9260519e-04  -1.0129293e-04   8.1618318e-06  -2.6350632e-05  -1.3027468e-05   2.0862195e-04  -9.5599098e-05   9.8882789e-05   2.2466818e-04  -6.0411960e-05   2.3697788e-05  -9.6262102e-06   1.3795480e-04   4.8568127e-05   2.3166699e-04  -1.5629086e-05  -1.1366538e-04   3.8202990e-05   3.5872086e-05
  -4.3423017e-05  -5.0252132e-05   1.2456022e-05  -2.4291650e-05  -5.2816858e-06  -9.1732891e-06   5.9454600e-05  -7.2471494e-06   1.0998498e-05   5.3468437e-05  -4.8485199e-05   1.6299220e-05   1.1622046e-05   7.2592811e-05   4.2898431e-05   1.0406311e-05   9.1883019e-05   9.8049117e-05   4.3363762e-05  -4.7376525e-06   5.7215479e-05   6.6670051e-05   8.5113861e-06   5.4944270e-05  -1.1983910e-04  -4.1935626e-05  -8.5806923e-06   2.9860501e-04   5.8226846e-09   5.3994660e-05   1.8233486e-04   1.4079716e-04   1.9654753e-05   1.0069389e-04   3.3405566e-05   1.0532581e-04   3.3113093e-04  -6.8269430e-05  -8.4083418e-05   1.4901206e-04  -1.3630527e-04   4.4434855e-06  -4.8448168e-05   1.8256200e-04  -7.6271672e-06   7.9056122e-07  -3.0542094e-05  -3.0176692e-05   1.3138233e-06   1.0638392e-04
  -6.4579333e-05  -5.3980537e-05   1.2040779e-05  -2.9592469e-05   9.5880187e-06  -5.2220290e-05   4.1862895e-05   6.5590284e-05   8.3269060e-06   4.7280955e-05  -6.4095722e-05  -3.8430671e-06   2.1999776e-05   8.3090687e-05   8.0540296e-05   2.9406381e-05   1.1035148e-04   1.2981957e-04   1.6573038e-05   3.8324611e-06   2.9109005e-05   2.9759813e-05   3.2320113e-05   7.2320683e-05  -6.0238352e-05  -3.8897961e-05  -6.5007725e-07   3.5642952e-04   1.0415582e-05   7.4077165e-05   1.9338704e-04   1.9851702e-04  -1.7042272e-04   5.1429910e-05  -1.9229075e-05  -2.4707680e-05   2.0839564e-04  -6.4896674e-05  -2.9752078e-05   2.5965896e-04  -6.4453656e-05  -7.7156556e-06  -1.2124035e-04   7.2643510e-05  -4.0444545e-05   2.2999655e-05   1.4832169e-05  -4.3500750e-05   8.0763975e-06   1.0113252e-04
  -7.6621516e-05  -6.3455911e-05   2.2965178e-05  -2.7886337e-05   1.4245294e-05  -8.4228297e-05   5.9481339e-05   5.2704901e-05   5.1643976e-05   5.3625277e-05  -5.0159688e-05   8.0211481e-07   3.4611578e-05   1.1106837e-04   7.8346791e-05   2.8229621e-05   8.4547682e-05   1.4275171e-04   5.2721214e-05  -1.6235119e-05   2.6024789e-05   5.7141835e-05   5.3278509e-05   3.8783510e-05   1.2165018e-04   3.5920582e-06   3.9617094e-05   4.0164066e-04   6.9412337e-05   1.1085723e-04   1.5185743e-04   1.8039145e-04  -9.8965858e-05   1.6376124e-04  -4.7053127e-05   4.7461967e-06   3.3138931e-04  -5.7850288e-05   1.6342991e-04   3.1836142e-05   1.2671245e-04  -9.6824842e-06   2.8420029e-05   1.3752449e-04   8.5311322e-06   1.4277278e-04   2.1533895e-05   7.4547228e-05   6.7883258e-05   4.8059708e-05
  -5.9577986e-05  -4.5334593e-05   1.2695295e-05  -6.4831024e-06   5.3008548e-06  -1.2162737e-05   6.7804176e-05   4.3554031e-05  -3.4058427e-05   4.5117522e-05  -6.0034770e-05   7.9256024e-06  -1.2676300e-05   5.5469285e-05   2.7082524e-05   1.7315177e-05   8.4184627e-05   1.1544036e-04   4.8045008e-06  -6.8246686e-06   2.8840435e-05   2.3015125e-05  -2.7777025e-05   8.2444683e-05   2.7272190e-05   1.6483387e-05   1.5699362e-06   2.8140651e-04  -2.5658330e-05   4.3911150e-05   1.4282398e-04   1.7900651e-04  -2.7790718e-04   1.3991729e-04   2.0328929e-05  -8.0199301e-05   2.9369368e-04   1.0874327e-05   1.0049903e-04   1.2519781e-04   5.8940152e-04   1.9033590e-05   2.2562667e-04   3.1685116e-04  -5.8713886e-05   2.1323546e-04  -2.2371036e-05  -2.3632329e-05   1.1297760e-05   8.1213562e-05
  -2.8339142e-05  -5.7449583e-05   1.4525249e-05  -1.9354207e-05   1.4867298e-05   1.1030640e-05   5.6369936e-05   4.2239422e-05  -7.5143416e-06   4.6102385e-05  -6.2014093e-05   3.3728168e-06  -3.1688442e-06   1.0258327e-04   4.8693062e-05   1.1168069e-05   7.7094875e-05   1.2045968e-04  -3.4486209e-05   1.1984413e-05   2.4531793e-05   1.6125165e-06   3.8799089e-06   4.6988895e-05   8.2359613e-05   3.0547049e-05   1.1269525e-05   2.5392804e-04  -2.0984295e-05   7.9164769e-05   1.2036858e-04   2.1721001e-04  -1.8968463e-05   2.2108658e-04   5.6033103e-05  -6.1775383e-05   1.7182257e-04   1.6789705e-05  -2.1924267e-05   1.5953578e-04   1.3981256e-04   2.9279248e-05  -5.2887088e-05   7.7496785e-05  -9.1134447e-05   6.4464220e-05  -1.0156825e-06  -3.7129528e-05  -3.0332881e-06  -3.4089775e-05
  -3.5085053e-05  -5.2356711e-05   9.6273343e-06  -2.0750309e-05   1.6813980e-05   5.0324247e-06   9.8868579e-05   6.3989421e-05  -1.4819985e-05   4.0425075e-05  -5.6810823e-05   1.3306222e-05   5.5909022e-06   9.5580828e-05   5.2334395e-05   1.7022694e-05   8.8254426e-05   1.1633767e-04   8.3506755e-05  -2.4985708e-05   2.3139308e-05   6.0657829e-05  -4.1882835e-05   8.6633430e-05   1.7747493e-04  -1.1605523e-05   7.6697797e-05   2.3826653e-04   6.2344399e-05   9.9110468e-05   9.0670619e-05   1.7397474e-04   5.5335055e-05   1.1162296e-04   4.3120144e-05  -4.9030834e-05   1.5205311e-04   1.7923490e-05   2.4707813e-04   1.6553483e-04   1.0023256e-04   2.4853643e-05  -6.2839936e-05   8.2558145e-05   2.2875980e-05   6.4608146e-05  -1.7348395e-05   4.1040545e-05  -1.9825124e-05  -4.5383655e-05
  -6.2494000e-06  -4.2261538e-05   9.7211091e-07   1.2048023e-06   1.0740979e-05  -2.7393355e-05   8.1802449e-05   7.3117488e-05   4.6576261e-05   3.7027363e-05  -5.4411099e-05   1.1317289e-05   2.2005837e-05   9.2087190e-05   1.8456905e-05  -5.9998088e-06   5.3748812e-05   8.5552529e-05  -2.6766511e-05   2.3375023e-06   2.7688602e-05   8.4735511e-06  -3.4483084e-05   9.7726166e-05   1.6378355e-04   1.1776177e-05   4.4622935e-05   2.5001832e-04   4.8532253e-05   4.4389057e-05   5.4603268e-05   9.8552999e-05  -2.3240293e-04   1.4020254e-04  -7.9935016e-05  -2.8077468e-05   2.5865627e-05   1.7724011e-06   1.5536394e-04   1.0151510e-04   3.9659360e-05  -4.8520746e-05   3.1551342e-06   2.1044297e-04  -7.9900092e-05   2.4900135e-05  -4.2617371e-06   1.2837751e-06  -1.3264908e-05   6.0360893e-05
  -4.8803806e-05  -4.3737829e-05   9.1009479e-06  -3.4208269e-06   1.2121606e-05  -1.5841912e-05   9.3817478e-05   9.9350364e-05   3.0107805e-05   4.2276570e-05  -5.5123161e-05   1.4713454e-05  -1.9431658e-05   6.8778354e-05   1.4792049e-04   5.9979416e-06   4.1080628e-05   8.9424044e-05  -7.9911755e-05  -7.2805565e-06   1.1513415e-05   2.5054009e-05  -2.7682685e-05   1.0537697e-04   1.9374347e-04  -1.8640088e-07   3.9340241e-05   1.7988954e-04   5.6762896e-05   4.5268825e-05   9.3791918e-05   1.9600456e-04   1.0822340e-04   1.8969890e-04  -5.4230240e-05   2.2064692e-06   1.1650787e-04   1.0096160e-04   8.1868689e-05   5.2387346e-05   1.5325888e-04   1.5349277e-05  -7.5987377e-06   1.7410029e-04   9.9733319e-05   7.4479860e-05  -2.3053458e-06   3.0564908e-05  -2.3559476e-05   9.6497797e-06
  -2.2814371e-05  -3.8541184e-05  -6.1893647e-06  -3.2088171e-06   2.2328635e-05  -1.0455902e-04   3.2430671e-05   5.0915962e-05   5.4083448e-05   4.3785265e-05  -4.5534420e-05   3.1383330e-05  -4.3190565e-05   7.1432427e-05   7.8310535e-05  -2.0576550e-05   1.1412861e-05   7.9952508e-05   1.9746984e-05  -1.9813562e-05   2.6893647e-05   1.5080381e-05  -3.0410263e-05   1.0250714e-04  -2.2658506e-04  -1.9493675e-05   1.4077620e-04   3.2023867e-04   8.2098210e-05   4.7947760e-05  -1.0570915e-05   9.2621369e-05   8.3991632e-05   1.1991138e-04   1.9414702e-07  -1.2835421e-05   2.1243222e-04   7.7194287e-05   2.2899538e-04   2.5542206e-05  -1.9065372e-04  -2.8482755e-05  -9.0974172e-06  -1.9604968e-05   1.2287887e-05   6.6025779e-05  -3.3274006e-05  -2.9519979e-06   4.5094448e-06   2.1758848e-05
   1.3098456e-05  -2.0091400e-05  -7.8864205e-06   5.4134289e-06  -5.3364479e-06  -4.5115263e-05   3.6442147e-05   2.0539235e-05  -3.8843136e-05   5.2470852e-05  -3.5413457e-05   3.1586169e-05  -2.9879984e-05   7.7362056e-05  -1.0082893e-05  -2.7689654e-05   1.8722079e-05   8.2341532e-05   1.4200142e-05  -1.0053524e-05   1.4859246e-05  -2.4534489e-05   5.0054132e-05   1.0140185e-04   2.6205806e-05   2.2007462e-05   2.0374240e-05   3.8323411e-05   8.8123263e-05   4.8257625e-05   6.3707404e-05   1.2868854e-04  -1.1936717e-04   5.1862826e-05  -2.1589887e-05  -5.7095162e-06   1.2288209e-04   1.0689232e-04  -4.6812042e-06   8.1232538e-05   1.3800312e-04  -1.3173239e-05  -6.8161011e-05  -2.7877288e-06  -3.3038821e-05  -5.6615878e-05  -1.5916996e-06   4.4448088e-06   3.0681018e-05   1.3623750e-05
   1.5047440e-05  -2.6750675e-05  -6.7289789e-06   2.6404670e-08   6.2277775e-07  -1.5820071e-05   2.7207399e-05   5.1600229e-05  -3.9616341e-05   4.1840889e-05  -3.7110185e-05   2.0456264e-05  -2.4723373e-05   9.4176408e-05   1.5955949e-06   8.5908132e-06   5.0462975e-05   1.1365599e-04  -7.3039861e-05   6.9729304e-06  -9.5977284e-06   6.4425499e-06   8.1928076e-05   1.0086863e-04  -7.1106704e-05   1.1762972e-06   1.0596545e-05   9.3237046e-05   1.1391324e-04   5.6823443e-05   5.1236209e-05   1.9816187e-04  -1.8416074e-04   8.1271617e-05  -2.0128660e-05  -5.7347312e-05   1.0736933e-04   6.9502719e-05   6.1858489e-05   5.0804130e-05   9.3809860e-05  -3.8187289e-05  -4.0587114e-05   2.2635817e-04  -2.5401125e-06   2.8926518e-04  -8.1930457e-06   3.6692691e-05  -2.3453669e-05   1.9885449e-05
   1.8253002e-05  -3.3124332e-05   1.2804233e-05  -1.9798039e-05  -4.6083392e-07  -3.3022210e-05   3.7919272e-05   5.8711572e-05   4.0288211e-05   3.5629469e-05  -6.1147897e-05   8.4501817e-06  -3.9846065e-05   6.6506807e-05   4.7343010e-06   1.1802351e-05   8.7372769e-05   1.4810005e-04  -1.8555125e-05  -1.8553217e-05  -1.4852229e-05   3.4723612e-06   1.0297869e-05   9.3772724e-05  -1.6947652e-06  -1.9965522e-05   9.5094547e-05   1.1236469e-04   2.7753324e-05   1.7529555e-05   1.0321963e-04   2.5995058e-04   6.8077687e-05  -1.1211589e-05  -4.8205078e-05  -2.7648697e-05  -2.3172182e-05   9.7054202e-05   3.7339818e-05   1.2286875e-04   1.2530574e-04  -1.1239879e-05  -4.2576972e-05   9.2919036e-06  -1.1289058e-05   1.0241161e-04  -2.7815055e-05   3.7085105e-05  -1.2183993e-05  -2.5417045e-05
   7.2122803e-06  -4.3786524e-05   5.0262628e-07  -2.2026568e-05  -1.0872084e-05   2.2967110e-05   1.9186851e-05   5.4565084e-05  -3.3467633e-05   2.1187265e-05  -7.4754833e-05  -2.6600224e-05  -1.8111117e-05   4.3346568e-05   3.5251114e-06   6.8160944e-06   6.4659427e-05   1.5168314e-04   3.8315084e-06  -1.9208135e-05  -1.5318321e-05  -6.0584985e-05  -4.1410043e-05   1.0618950e-04   5.5033292e-05  -1.9474628e-06  -1.1889040e-05   5.0038620e-05   6.4668275e-05   1.4261549e-06   7.0320071e-05   2.2445057e-04  -7.1472423e-05   8.6258522e-05  -4.6249239e-05  -1.3309144e-04   7.1505194e-05   1.1669923e-04  -6.5650020e-05  -8.4273583e-05  -1.4684175e-04  -4.1468014e-05  -6.0220529e-05  -2.3311898e-04   5.7764002e-05   3.0771822e-05  -9.7907277e-06   2.7457627e-05  -2.1814400e-05  -3.9899580e-05
   2.6561515e-06  -4.7408896e-05   8.9902014e-06  -2.8852086e-05   1.8744225e-06  -3.2905133e-05  -1.6907352e-05   3.4041776e-05  -1.4574715e-05   2.4803128e-05  -6.6562381e-05  -2.0467951e-05  -1.1490574e-05   4.9185121e-05  -4.3795011e-05   1.8225017e-05   7.7561366e-05   1.4703338e-04  -1.3396020e-04  -2.0953161e-05  -2.9088127e-05  -4.1932148e-05   2.2094371e-05   6.2094849e-05  -1.9565612e-04   1.0352054e-05   3.4374090e-05   2.2258401e-04   8.2598177e-05   6.1615472e-05   1.0785169e-04   2.3691086e-04  -1.1925034e-05  -4.1246065e-05  -8.0596692e-05   6.3594445e-05   1.5974224e-04   7.8831945e-05   8.1676098e-06   5.5009699e-05   5.5746105e-04   1.1788179e-05  -4.1241095e-05   1.2751759e-04  -1.0497186e-04   1.3122460e-04   3.4531947e-06  -3.0138026e-05   1.9540948e-05  -4.8925871e-05
  -9.6643989e-06  -4.9795861e-05   3.3321805e-05  -4.8338858e-05  -2.5721019e-06  -3.4714751e-05  -4.4441008e-06   9.3269169e-05  -1.6546952e-04  -3.1652993e-07  -9.1442656e-05  -4.4855515e-05  -5.3641747e-06   6.5635475e-05   5.9430819e-05  -1.4527131e-05   1.1474375e-04   6.9133581e-05  -1.7882594e-04  -3.8612907e-05  -4.6089401e-05  -1.5710688e-05  -3.5003239e-05   5.8095633e-05   2.3324184e-04   1.5530917e-05  -1.0821876e-05   6.2862557e-05  -5.5524572e-05   3.7813646e-05   2.0792209e-04   1.7996141e-04   5.1143097e-06   1.0808670e-04   2.0226638e-05   5.3158736e-05   1.6080425e-04  -5.2057594e-06   2.2291455e-04   3.2302029e-05  -3.3123820e-04  -2.4226818e-05  -2.0216638e-04   1.6347834e-04  -4.0731888e-05   9.4085997e-05  -5.1016043e-05  -4.6608046e-05   2.1363086e-05   3.4943056e-05
  -7.1552487e-05  -1.1033956e-04   5.2543826e-05  -1.2774956e-04  -2.1571539e-05   2.6547814e-05  -7.3821888e-05   4.1201569e-05  -2.0593459e-04   2.2895232e-05  -1.2465908e-04  -6.0752209e-05   9.4570947e-05   7.9749014e-05  -7.8287769e-05   2.0394237e-04   4.8423558e-04   5.6194450e-04  -6.7530033e-05  -3.0373719e-06  -1.4616677e-04  -2.0359294e-04  -2.0896092e-05  -5.4173088e-05  -2.2223349e-04   3.7722853e-05   2.7003123e-05   3.8015689e-05   7.4483200e-05   3.6815476e-05   3.7617257e-04   4.7006947e-04  -3.5602451e-04   6.6277830e-06   1.1571071e-06  -7.9660596e-05  -3.9281749e-05   1.8294196e-04  -9.0171352e-06   5.6500561e-05   2.5176420e-04   7.0231013e-06   1.2011580e-04  -4.6786783e-05  -6.4761494e-05  -3.6412701e-05  -2.9250061e-05  -2.1686115e-05  -1.0253712e-04  -6.5923537e-05
  -1.2657682e-04  -1.6731513e-04   5.5713659e-05  -1.8940028e-04  -3.8862261e-05   1.5548898e-05  -1.3847908e-04  -7.5304859e-05  -2.1256601e-04   6.4521842e-06  -1.2629104e-04  -7.1337126e-05   9.8947909e-05   1.4295304e-04   8.8471352e-05   1.4865967e-04   4.2726664e-04   3.4666894e-04  -1.3311964e-04  -2.8241317e-05  -1.7713505e-04  -2.0219055e-04  -4.1680905e-05  -4.8997310e-05   7.5841133e-05  -8.8404131e-06   1.1538772e-04   9.2753413e-05  -8.6636639e-05   9.3117669e-05   1.7145154e-04   1.8636130e-04  -1.7749035e-04   1.1408397e-04  -5.3665819e-05   2.9694818e-05   1.0761251e-05  -1.7744783e-04  -2.1019053e-04   1.3795614e-04  -2.2638238e-04   2.5397430e-05   2.5632376e-05   2.8734244e-04  -9.1434202e-05   7.1345996e-05  -4.1893527e-05   3.4892091e-05  -4.5615641e-05   2.5649388e-05
  -1.5097087e-04  -1.6482925e-04   6.5832144e-05  -2.0108218e-04  -5.5218017e-05  -4.7437377e-05  -1.0198766e-04  -1.4172739e-04  -2.9263558e-04  -5.7110224e-06  -1.4577378e-04  -5.6459688e-05   5.6850622e-05   1.5840083e-04  -9.7105931e-07   1.3673882e-04   4.3426198e-04   2.6821651e-04  -1.3296059e-04  -4.5359822e-05  -1.8522814e-04  -2.0539403e-04  -3.7951391e-05  -1.0467799e-04  -2.4114005e-04   6.7457022e-06   5.2769450e-05  -2.0037327e-04  -1.8967656e-04   3.5054960e-05   1.9422206e-04  -1.8168725e-04  -1.9116650e-04   2.7956776e-04  -4.3334130e-05   5.1228682e-05  -7.8406942e-05  -5.7691964e-04   8.3413634e-06  -5.6067685e-05   3.0558050e-04   2.4662003e-07   1.0324573e-04   1.8994800e-04  -4.0023551e-05   1.4261350e-04  -3.4998041e-06  -1.0894583e-05  -1.0539335e-04   3.8040846e-05
  -1.7329576e-04  -1.8162388e-04   5.5385808e-05  -2.3414484e-04  -6.1436891e-05  -7.9803438e-05  -1.2623258e-04  -9.6112824e-05  -2.6650846e-04  -2.8340066e-05  -1.5459758e-04  -4.8271260e-05   1.0983866e-04   8.3892664e-05   3.8182043e-05   1.0624838e-04   3.5621799e-04   1.0335414e-04  -1.9272440e-04  -7.0586400e-05  -1.8080229e-04  -2.2947731e-04  -1.0490519e-04  -7.1770555e-05  -1.8026654e-04   1.6186032e-05  -9.4494346e-05  -2.8496308e-04  -2.5928623e-04   4.3335291e-05   2.5864554e-04  -2.3069428e-04  -9.2303249e-05   8.2444742e-05   1.1838077e-05   1.3837528e-05  -9.2399554e-05  -5.8423576e-04   1.9097977e-06   3.8137361e-05   2.0633436e-04   2.6054235e-05  -8.8391622e-05   4.4769906e-05  -1.0850155e-04  -1.0233890e-05  -2.4935021e-05  -2.0729565e-05  -7.3186893e-05  -2.7317263e-05
  -2.3119395e-04  -2.0781165e-04   3.5395678e-05  -2.6587103e-04  -6.3060863e-05  -2.2398097e-05  -2.1412251e-04  -2.1326254e-04  -2.7169965e-04  -3.4586170e-05  -1.6922424e-04  -4.3853212e-05   1.2430619e-04   6.5197062e-05  -1.1169768e-05   1.7502760e-04   4.1324878e-04   2.3219938e-04  -1.0835741e-04  -1.2198346e-04  -1.8157644e-04  -2.7469345e-04  -8.6509579e-05  -1.1883420e-04  -2.0305932e-04   1.4085321e-05  -9.1932496e-05  -3.0728985e-04  -1.5320767e-04   4.0338586e-05   2.0387830e-04  -3.2807741e-04  -1.5611883e-04   1.2648191e-04   6.0107908e-05   3.8762805e-06  -3.7192556e-04  -5.4159673e-04   1.1787032e-04   3.8161241e-05   4.3154108e-05   2.8181483e-05   8.3236540e-05  -6.0560589e-05  -1.9883570e-05  -8.0864549e-05  -1.5697684e-05  -1.6521955e-05  -1.2934965e-04  -2.3292976e-05
  -2.9222856e-04  -1.9077562e-04  -1.5785665e-05  -2.6241806e-04  -1.0006601e-04  -1.9372843e-04  -2.5662387e-04  -2.5530288e-04  -3.4820847e-04  -2.5970265e-05  -1.6361222e-04  -3.4205223e-05   7.9354708e-05  -8.0256694e-05  -8.4947038e-05   1.3316819e-04   3.1151486e-04   1.2674154e-04  -2.0327243e-04  -1.0556068e-04  -8.0083082e-05  -2.3546722e-04  -1.4103889e-04  -9.4175281e-05  -8.8481633e-05   1.5819325e-05  -2.0238040e-05  -6.6337729e-04  -3.0698886e-04  -6.9061578e-05   2.0647967e-04  -2.9465975e-04   1.1539855e-05  -3.4163138e-05   4.8387494e-05  -6.2278406e-05  -4.7377145e-04  -4.3817240e-04  -2.3003016e-04  -6.6170804e-05  -1.0144611e-04   4.5227029e-05   1.0116963e-05   5.6243003e-05  -7.9282290e-05  -5.6167693e-05  -2.1090907e-06  -2.5244726e-05  -9.0464215e-05  -1.3989105e-04
  -4.6679939e-04  -1.7980175e-04  -1.3820840e-04  -2.3644792e-04  -2.2386020e-04  -2.1313586e-04  -3.4661815e-04  -4.3390386e-04  -2.5455290e-04   6.3695666e-06  -1.3735698e-04  -5.5214397e-05   7.1116148e-05  -1.4939143e-04  -7.1023984e-05   8.5156629e-05   2.3015944e-04   1.0384338e-04  -1.4282142e-04  -8.0035592e-05  -7.7643395e-05  -1.4932497e-04  -1.0499691e-04  -3.5332298e-05   1.0315306e-04   1.5779720e-05  -1.5115345e-04  -7.0725160e-04  -3.5714119e-04  -1.6976539e-04  -1.2251228e-05  -4.0358840e-04   1.7870199e-05   1.0060220e-05  -7.7335724e-05  -6.0576742e-05  -8.2258211e-04  -7.2749285e-04  -2.3080915e-04  -6.0893974e-05   1.5550466e-04   4.5299184e-05  -2.6798874e-05   2.2363540e-04   4.0881583e-05   5.9012946e-05  -1.5820490e-06  -2.9420989e-05  -7.4165757e-05  -6.8761336e-05
  -5.6732068e-04  -1.6947118e-04  -1.9090151e-04  -1.9548950e-04  -2.9358227e-04  -2.7911580e-04  -3.3309241e-04  -4.8313328e-04  -2.2964469e-04  -2.5555206e-05  -1.2617242e-04  -3.7970898e-05   2.7363599e-06  -1.9526147e-04  -1.2830988e-04  -8.6854328e-05   1.5659220e-05  -2.6167062e-04  -1.3283941e-04  -6.0622904e-05  -5.3762622e-05   8.8338995e-05  -1.6105787e-05   4.2393491e-05  -2.7761937e-04   2.4128172e-05  -2.7457919e-04  -8.3591475e-04  -4.7134404e-04  -1.6090479e-04  -6.6582012e-05  -4.8172544e-04   9.9043529e-05   1.1693857e-05  -5.9308888e-05   8.3283034e-05  -6.5888645e-04  -7.9280871e-04  -2.6179588e-04  -1.4120420e-04  -3.6476992e-04   9.6748037e-05   4.3054857e-05  -7.1621638e-05  -6.9787478e-05  -1.8339457e-04   5.4498560e-05  -3.7195146e-05  -4.5370092e-05   1.3657625e-05
  -4.3300015e-04  -1.7098924e-04  -9.9141886e-05  -1.8906528e-04  -2.1154953e-04  -2.3653195e-04  -2.7780540e-04  -3.4806723e-04  -1.7654448e-04  -4.5330009e-05  -2.5204896e-05   2.9630715e-04   8.5683292e-05  -3.2921005e-05  -1.5416945e-04   7.8837293e-05   3.2037112e-04   1.2276777e-04  -5.6181816e-05   7.0869835e-05  -2.6523488e-04   2.3774485e-04  -1.0027826e-04   1.0542451e-04  -1.9309887e-04   1.6283302e-05  -6.9427391e-05  -5.0901010e-04  -2.0427506e-04  -8.8426386e-05   5.1868916e-05  -6.9902570e-05   1.7677607e-04   8.1634433e-05  -7.1673872e-05   2.8858711e-05  -3.6960057e-04  -2.5741308e-04   5.4454962e-05  -2.0105776e-05  -2.6603014e-04   1.3907546e-04  -1.0642208e-04   8.4968669e-05  -3.8136048e-05   3.9417591e-05   7.0481547e-05  -2.7073578e-05  -6.8892477e-05  -1.0621282e-04
  -3.2388361e-04  -2.0565683e-04  -2.0388701e-05  -2.4007047e-04  -1.4384656e-04  -1.3760591e-04  -2.6871511e-04  -2.4535719e-04  -1.7182220e-04  -1.0481273e-05  -6.8615454e-06   3.3166393e-04   1.0702979e-04  -1.9792067e-05  -1.1180365e-04   1.5268965e-04   4.3204884e-04   3.2287839e-04  -7.5176002e-05   1.0340268e-04  -3.0090119e-04   2.2236655e-04   5.1818461e-06   1.4598705e-04  -1.9379031e-04   3.8064870e-06  -9.8838384e-05  -3.2244518e-04  -1.0483781e-04  -6.4251333e-05   2.8669811e-04   9.8126889e-05  -4.5574336e-05  -2.4588393e-05  -9.0167297e-05  -9.6131109e-05  -3.3919865e-04  -4.9225680e-05   1.3015037e-05  -9.0910900e-05  -7.7024688e-06   2.1955935e-05  -6.4467063e-06  -4.0017353e-06  -8.0747312e-05  -1.4101432e-04   9.7773271e-05  -5.8781290e-05  -4.5680517e-05  -6.6835797e-05
  -2.7062354e-04  -2.0400547e-04  -1.8005983e-05  -2.3777255e-04  -1.4050999e-04  -1.7749472e-04  -2.8001858e-04  -2.5196865e-04  -1.7768690e-04  -1.0408231e-05  -7.6351971e-06   2.9283497e-04   1.3809789e-04  -4.9982529e-05  -1.0197857e-04   1.3405767e-04   4.1362992e-04   2.7776710e-04  -1.7169923e-04   1.0791451e-04  -2.8994904e-04   1.6935568e-04  -7.3090589e-05   1.2232750e-04   3.0059546e-05   2.9535618e-06  -8.5302774e-05  -4.6648973e-04  -1.6860802e-04  -9.5987838e-05   1.5256825e-04  -2.1208937e-06  -2.1210566e-05   3.1898075e-05  -5.5001801e-05   5.0909548e-05  -4.4020917e-04  -2.8383755e-04   3.9196577e-05  -1.0042085e-04  -1.6370272e-05   8.2260383e-05  -1.9153165e-05   2.6285616e-04  -6.2949228e-05  -2.8792644e-04   8.2637882e-05  -6.0324950e-05  -3.8012680e-05  -2.6017746e-05
  -2.9145615e-04  -2.1496252e-04  -7.1015861e-06  -2.4479171e-04  -1.4016265e-04  -1.9630173e-04  -2.9286102e-04  -2.9156249e-04  -1.2043212e-04   1.3142080e-07  -1.4733168e-05   2.4266525e-04   8.5798580e-05  -6.5516051e-06  -5.5334596e-05   7.7398676e-05   3.1151783e-04   8.4917803e-05  -7.1689581e-05   1.0082847e-04  -1.8978128e-04   1.8749145e-04  -1.7567037e-04   1.8712903e-04  -2.1441463e-04   3.4813158e-06  -8.2038881e-05  -3.6182691e-04  -2.9972091e-04  -5.6466120e-05   7.4488904e-05  -2.4876092e-04  -6.3364765e-05  -2.5263935e-08  -6.1414299e-05   3.4678586e-05  -3.2723710e-04  -5.8690342e-04  -7.2428251e-05  -4.8407794e-05   1.7062644e-04   1.0210940e-04  -3.9284198e-05  -1.2754873e-05  -2.8801023e-05  -8.6927823e-05   5.1360326e-05  -7.0350849e-05  -7.5758187e-05   3.4688597e-05
  -2.8205421e-04  -1.7361568e-04  -3.3696615e-05  -2.2159207e-04  -1.1516177e-04  -1.3718066e-04  -2.2931733e-04  -2.6088543e-04  -1.5715053e-04  -3.0486373e-05  -6.2746922e-06   1.9439602e-04   2.3168084e-05  -2.0537034e-05  -1.4850772e-04  -6.0230254e-06   7.2254188e-05  -1.5523235e-04  -1.1237863e-04   4.9926035e-05  -9.6202195e-05   2.8417565e-04  -8.6318789e-05   1.8134348e-04  -2.3554856e-05  -2.6089785e-05  -1.2539145e-04  -3.6661129e-04  -3.7107884e-04  -5.9994010e-05  -6.0404054e-05  -4.9419847e-04   8.5056436e-06   1.1879924e-04  -1.6304239e-05  -2.5631563e-05  -2.9080384e-04  -6.9913035e-04  -1.9924271e-04   6.0322014e-05   1.4764965e-04   4.3279360e-05   5.3136540e-05   1.5868792e-04  -5.2923915e-05   4.9108203e-05   6.7825458e-05  -5.3200281e-05  -5.4180124e-05   6.0119677e-05
  -2.1218364e-04  -1.3808301e-04  -5.2268952e-05  -1.5028748e-04  -8.7410408e-05  -1.1777076e-04  -1.9788591e-04  -2.0080400e-04  -1.7100931e-04  -1.4097172e-04  -3.9061113e-05   1.1654050e-04  -2.4302268e-05  -1.0187977e-04  -1.2769517e-04  -5.2175292e-05   2.1841568e-05  -1.5767424e-04  -1.5589700e-04   3.6049743e-05   2.3452845e-05   2.1338768e-04  -3.6597154e-05   1.3949702e-04  -4.8731519e-05   1.7489778e-05  -1.0955207e-04  -3.6197019e-04  -3.4305963e-04  -7.5116761e-05  -9.4107701e-05  -3.8015438e-04   1.1998253e-04   1.9694751e-05  -5.4688247e-05   1.2959515e-05  -2.9736242e-04  -6.3314894e-04   6.8297864e-05   7.2120085e-05   1.5245647e-04   6.5915105e-05  -1.0317157e-04  -7.3987590e-05  -3.5291163e-05   2.8316072e-05   1.2893805e-05  -1.2010417e-04  -2.3062365e-05   4.5117854e-06
  -2.1296019e-04  -1.3061546e-04  -5.4698725e-05  -1.5263005e-04  -7.1191440e-05  -1.0110510e-04  -1.5204638e-04  -1.3013260e-04  -2.2837250e-04  -1.5540063e-04  -6.4293592e-05   1.9192426e-05  -2.1566779e-05  -1.0285179e-04  -5.7005633e-05  -1.7653281e-05   2.2942297e-05  -1.0030254e-04  -8.3127277e-05   3.7955731e-05   9.8331193e-06   2.2874186e-04  -3.4962992e-05   8.7184038e-05  -9.9891731e-05  -1.4683800e-05  -2.8170205e-05  -3.4079544e-04  -2.5182773e-04  -1.8288669e-05  -4.1355528e-05  -3.3338365e-04  -2.2761280e-05   6.1720952e-05  -3.6594654e-05  -8.6875887e-05  -1.1734987e-04  -4.9039646e-04  -1.2256410e-05  -1.6932456e-04  -4.5272584e-05   4.3349269e-06  -3.0307065e-05  -1.2787554e-04  -1.4279899e-04  -5.0937375e-05  -2.3494787e-05  -7.5664677e-05  -8.0374615e-05  -9.3662529e-05
  -1.9890517e-04  -1.0289940e-04  -4.3840519e-05  -1.1694160e-04  -5.8786609e-05  -1.0345464e-04  -1.0395736e-04  -1.4211431e-04  -1.1153785e-04  -1.5107056e-04  -8.0410384e-05   1.7749500e-05  -7.4400310e-07  -8.6632150e-05  -7.4121170e-05  -3.0254785e-05  -7.4990235e-06  -9.8790661e-05  -1.1413411e-04   2.4464360e-05  -4.3799855e-06   2.2000111e-04  -8.3608873e-05   5.9033977e-05  -4.3045824e-05   1.6134602e-05  -9.8170043e-05  -2.2296031e-04  -2.1149289e-04  -7.2553579e-05  -9.5251104e-05  -3.5704990e-04   7.0178103e-05   3.0852436e-05  -6.2589606e-05  -9.4185067e-05  -3.0802979e-04  -3.5887901e-04   6.2346429e-05   7.2013732e-05  -4.0410573e-04  -7.9654856e-06  -9.4504328e-05   4.3873075e-05  -6.9407346e-05   7.8719015e-05  -1.7089460e-05  -1.6312260e-04  -3.1648429e-05   5.8480411e-05
  -2.0237737e-04  -8.7824206e-05  -6.8548172e-05  -8.9438297e-05  -5.2802956e-05  -6.2283179e-05  -1.1400458e-04  -1.5824495e-04  -1.8032064e-04  -1.3934147e-04  -7.4074182e-05   3.2226606e-05  -3.1430660e-05  -1.2520974e-04  -2.2441116e-05  -7.0642909e-06  -3.8949739e-07  -5.2932817e-05  -2.3696790e-05   5.9359527e-06  -1.0992761e-04   9.5675132e-05  -3.9879040e-05   4.3933036e-05  -1.8840517e-04   2.0408634e-05  -4.1212159e-05  -4.3324413e-04  -1.4386102e-04  -8.1211940e-05   1.3563647e-05  -2.2346147e-04  -1.1797591e-05   1.2000738e-04  -8.3860832e-05  -4.3531592e-05  -2.6432468e-04  -2.7195914e-04  -1.6089994e-04   2.3482366e-05  -2.7036183e-05  -9.5033802e-06  -9.7748620e-05   7.0659844e-05  -9.8958628e-07  -1.0212237e-04  -5.1151296e-06   5.3100899e-05  -6.4014697e-05  -6.5129418e-05
  -1.8881280e-04  -8.7030036e-05  -5.9319493e-05  -8.9476642e-05  -4.0981504e-05  -3.2128111e-05  -7.7751814e-05  -8.0347272e-05  -2.3147315e-04  -1.1296775e-04  -8.2179249e-05   5.9266717e-05  -2.8657576e-05  -9.9852048e-05  -9.4887342e-05  -1.0954519e-05  -2.8954069e-05  -3.1653468e-05  -1.6302492e-04  -7.3689680e-06  -5.6822992e-05   1.2749520e-05  -1.2878723e-04   4.5867924e-05  -3.0277920e-04   2.0107780e-05  -2.1893027e-05  -1.8882874e-04  -8.7233348e-05  -3.9878050e-05  -3.0108126e-07  -1.8963072e-04   6.3501488e-05   1.8006924e-05  -9.0529909e-05  -4.9859886e-05  -3.5368162e-04  -1.6078919e-04   4.8976653e-05  -2.3315616e-04  -4.7912961e-04  -2.7335904e-05  -1.7699724e-04  -2.1492155e-05  -2.1723094e-05   1.9443172e-04   1.3371750e-05  -1.1579812e-04  -4.6813017e-05  -5.3152944e-06
  -1.5639020e-04  -5.6620396e-05  -5.8359488e-05  -6.0625294e-05  -4.1778803e-05  -7.0713788e-05  -7.5640462e-05  -3.4161101e-05  -1.3557465e-04  -1.1638253e-04  -6.6149885e-05   7.0400209e-05  -2.0874653e-05  -1.0843338e-04  -7.7199693e-05  -2.1704711e-05  -1.2992248e-05  -1.0559598e-05  -9.9203098e-05  -1.1346981e-05   6.7571223e-06   3.2415286e-05  -9.5993310e-05   3.2480599e-05  -1.6441414e-04  -2.0133905e-06  -7.9383899e-05  -2.2156317e-04  -8.2326820e-05  -8.8442670e-05   3.1492509e-05  -2.1314675e-04  -2.4387256e-05  -4.9136608e-05  -4.5619099e-06   5.3031261e-05  -3.6029302e-04  -1.0273392e-04   5.8782534e-05  -1.3720880e-04  -1.4695371e-04   3.4812503e-05  -3.0199128e-05   3.3394017e-04  -1.1784473e-04   1.4080225e-05  -1.6385900e-05  -1.4729824e-05  -8.4287218e-05   5.8242167e-06
  -1.6448591e-04  -6.3094318e-05  -5.9150167e-05  -6.1890940e-05  -3.1998112e-05  -6.3278421e-05  -7.2554125e-05  -1.8856335e-04  -1.6134747e-04  -1.1176639e-04  -7.8789461e-05   7.7603618e-05  -4.0588289e-05  -1.0306840e-04  -8.9300011e-06   7.6381934e-07  -1.4821483e-05  -1.8237341e-05  -8.8328685e-05   7.3109236e-06   3.7629587e-05   2.9168374e-05  -3.4869274e-05   4.1897016e-05   8.4318897e-05   1.9149289e-05   3.8335336e-05  -3.1778577e-04  -1.5394237e-04  -1.1624405e-04   5.4522756e-05  -1.1858102e-04  -3.3343406e-04  -4.2784053e-05  -1.0910583e-04   4.8679678e-05  -4.0692458e-04  -9.9858771e-05  -1.5034391e-04  -1.6560974e-04  -1.0792507e-04  -8.1923266e-05  -9.7602948e-05  -1.4002812e-04  -2.2875312e-04  -1.2664185e-04  -1.2664740e-05  -5.3721134e-05  -3.0626055e-05  -8.4013554e-05
  -1.6705206e-04  -6.0455543e-05  -4.7012287e-05  -5.9724149e-05  -3.3693112e-05  -6.3300577e-05  -9.6847180e-05  -9.4087954e-05  -1.4055430e-04  -1.0301399e-04  -7.7912693e-05   8.7152112e-05   5.0454514e-07  -5.7061170e-05  -9.3599760e-05  -3.9375345e-06  -2.3059460e-05  -3.1045940e-05  -7.9166035e-05   7.6057649e-06   5.6246336e-05  -1.3297375e-05  -5.0795388e-05   5.2273088e-05   1.6228849e-04  -5.8604459e-05   8.4677667e-06  -1.6663001e-04  -8.7684501e-05  -4.5809822e-05   3.1490210e-05  -1.5332398e-04  -2.3211378e-05  -4.2742398e-05  -5.5179593e-05  -9.6737298e-05  -2.9468472e-04  -9.6588650e-05   4.7867561e-05  -4.9644961e-05  -3.7534224e-04  -6.3592357e-05  -6.3493579e-05  -9.9558230e-05  -6.3131272e-05   9.2730181e-05  -1.6743530e-05  -2.6691481e-05  -5.7714773e-05  -5.0186369e-05
  -1.2632659e-04  -3.4008895e-05  -3.2230004e-05  -4.5968151e-05  -2.9855773e-05  -9.2329959e-05  -6.1131075e-05  -1.2210842e-04  -1.8541297e-04  -1.1268283e-04  -7.7245604e-05   1.0138020e-04  -1.0525769e-05  -7.1275324e-05  -4.2471944e-05  -7.3984356e-06  -9.9408335e-06  -4.1696756e-05  -2.1152448e-05  -8.8361339e-06   9.1129114e-05   1.5138970e-05  -9.4601128e-05   6.5066255e-05  -1.5435072e-04  -1.6381804e-05  -2.0590123e-05  -2.4513650e-04  -7.9225989e-05  -1.0761990e-04  -2.2573133e-05  -2.3671116e-04  -4.6674675e-05  -1.9746571e-05  -7.9807287e-05  -6.8117210e-05  -2.5328191e-04  -1.1802922e-04  -1.4578929e-04  -6.2812243e-05  -1.7663022e-04  -5.1370374e-05   4.4963690e-05  -7.5797303e-05  -1.3294922e-04   1.6428594e-04   1.1210635e-05  -6.3127642e-05  -5.4889948e-05  -8.8867346e-05
  -1.2370294e-04  -4.5406152e-05  -3.5977413e-05  -4.4130316e-05  -3.1630330e-05  -1.4512401e-04  -6.9867994e-05  -1.5362355e-04  -1.9745584e-04  -1.2560395e-04  -7.5102849e-05   1.1089403e-04  -1.3063796e-05  -1.2025807e-04  -8.2576487e-05   6.3939046e-06   1.3706175e-05  -1.6359609e-05   6.6034605e-05  -1.7519849e-05   9.4528412e-05  -4.7567471e-05  -8.2111888e-05   2.2943324e-05  -8.2179038e-05  -2.1716709e-05   3.4526485e-05  -2.9637653e-04  -9.3450806e-05  -9.7779026e-05  -3.0573323e-05  -1.8055549e-04  -9.6282398e-05  -7.5165677e-05  -3.1466705e-05   4.0432220e-05  -3.1326668e-04  -1.1274776e-04   1.7158220e-04  -3.1187142e-06  -5.6417291e-05  -6.7589877e-05   8.5214342e-05  -2.1495654e-05   4.7103999e-06  -1.4332079e-04   2.7458791e-05  -5.2188469e-05  -3.7366681e-05   3.0807576e-05
  -1.4665890e-04  -5.0788614e-05  -1.2564842e-05  -5.2735704e-05  -9.0874919e-06  -6.5333268e-05  -6.2814921e-05  -8.0860191e-05  -1.7429452e-04  -1.2577907e-04  -7.0533446e-05   9.8498895e-05   4.3635242e-07  -7.3830895e-05   2.4562567e-05   2.4737265e-05   9.7631537e-06  -4.6327837e-06  -1.5605159e-05  -5.2166388e-06   9.2062575e-05  -5.9209102e-05  -5.9847036e-05   3.5239238e-05  -1.6328374e-04  -3.3568511e-05   1.3975166e-05  -1.5766684e-04  -5.0306637e-05  -3.8762311e-05  -5.8949412e-05  -1.5976925e-04   4.1432675e-05  -1.0251583e-04  -3.1388980e-05   9.8928149e-06  -3.7670421e-04  -6.5059627e-05   1.2276176e-04  -1.5590065e-04  -2.7585996e-04  -9.6864096e-05  -9.6500902e-05  -1.8727992e-06  -1.6168605e-04   2.5991822e-04  -9.3279477e-06  -6.4810003e-05  -8.0801074e-05  -1.1270872e-04
  -1.1402131e-04  -3.4888264e-05  -1.9374127e-05  -4.3223274e-05  -9.2632727e-06  -1.8980572e-05  -8.7726396e-05  -5.1257601e-05  -1.4353733e-04  -1.4016588e-04  -7.2431525e-05   9.9048790e-05  -1.3037132e-05  -9.5651398e-05  -4.0912091e-05   6.9121984e-06   1.1968035e-05  -2.1618269e-05  -4.4361299e-05  -3.4942357e-05   1.1084050e-04  -2.8795532e-05  -3.1018211e-05   3.4906490e-05  -9.7841010e-05   1.3795714e-05  -1.4096563e-04  -2.4078018e-04  -8.2014129e-05  -9.4342613e-05  -1.0306744e-04  -1.8922254e-04   1.3379926e-05  -1.6418326e-04  -7.5475153e-05  -2.0073323e-06  -4.0799726e-04  -9.3209055e-05  -5.3795728e-05  -2.3716384e-04  -3.5636086e-04  -4.0045317e-05  -5.4837848e-05   3.0748805e-04  -1.4923165e-04  -4.2957538e-05   1.3739545e-05  -1.0256188e-04  -1.0050759e-04  -5.9767706e-05
  -1.2825380e-04  -4.6998412e-05  -2.0122270e-05  -4.5271838e-05  -4.9579471e-06  -6.1816027e-05  -4.9571572e-05  -1.5437374e-05  -1.7637048e-04  -1.5451724e-04  -8.6008178e-05   9.2857365e-05   1.1301176e-05  -1.2505888e-04  -1.4192384e-05  -6.0591519e-06  -6.5976092e-06  -3.7934544e-05  -1.3287613e-04  -2.7056789e-05   8.9011359e-05  -5.4510740e-05  -8.7224522e-05   4.7743390e-05  -9.5561270e-05  -2.8227751e-05  -1.6761356e-04  -3.4286591e-04  -1.0007600e-04  -1.0543581e-04  -1.1429504e-04  -2.2005694e-04  -7.7486839e-05  -2.4128576e-05  -4.9978780e-06  -1.0191044e-04  -4.4140578e-04  -8.4741296e-05  -2.4523854e-04  -1.4048279e-04   1.0333973e-04  -4.4337470e-05  -3.4474499e-05   2.8772358e-04  -1.1455735e-04  -6.8542198e-05   2.3234768e-06  -6.8339315e-05  -6.3962500e-05  -6.2958505e-05
  -1.1113805e-04  -5.0258361e-05  -9.3341796e-06  -4.1773183e-05   1.0655662e-05  -7.5871096e-05  -7.1509501e-05  -7.4665135e-05  -1.3317895e-04  -1.6024100e-04  -8.3507264e-05   7.5678276e-05  -2.3360483e-06  -5.1572250e-05  -8.2723287e-05   3.6218345e-05   3.1476982e-05   4.2935768e-05  -4.0545779e-05  -3.3604814e-05   6.5821754e-05  -1.0625790e-04  -1.5112566e-04   1.2838498e-05  -1.8332138e-04  -2.8510622e-05  -1.1074599e-04  -1.4546106e-04   1.7423950e-05  -3.9780047e-05  -1.5794606e-06  -1.2156747e-04  -7.3685883e-06   1.4590290e-05   7.7245437e-05   1.1160516e-04  -3.6713321e-04  -2.3076247e-05  -6.3277323e-05  -2.1139835e-04  -1.8520548e-04   1.4786660e-05  -1.8309120e-05  -9.0251888e-06  -1.8452632e-04   5.3012769e-05   3.5432440e-05  -4.8036887e-05  -9.3841729e-05  -5.4850621e-05
  -8.7398912e-05  -3.3082655e-05  -3.1139812e-06  -3.8967490e-05   1.2279544e-05  -1.2711753e-04  -4.0141407e-05  -5.0287181e-05  -1.6850323e-04  -1.7767676e-04  -8.9668923e-05   6.7739798e-05  -3.7331854e-06  -6.5023931e-05   1.1266337e-05   2.3875615e-05   1.6389844e-05  -8.2877733e-07   1.0909629e-04  -5.3837644e-05   4.9666298e-05  -7.8181969e-05  -9.0524059e-05  -1.0414974e-05  -2.0515175e-04  -1.5199950e-05  -1.1074496e-04  -1.1054301e-04  -8.6701373e-05  -8.7362670e-05  -7.8617486e-05  -1.4823265e-04  -1.0380348e-04  -2.5847266e-05  -3.3699533e-05   6.2471321e-05  -3.9484355e-04  -6.2270017e-05  -1.7854267e-04  -5.8413054e-05  -4.2587930e-05  -1.1082579e-04  -9.6191397e-05   1.7704642e-05  -1.1710091e-04  -3.8982613e-05   2.3514311e-05  -5.9742455e-05  -6.3835527e-05  -7.5714663e-05
  -9.8209173e-05  -4.1648098e-05  -1.1784839e-05  -2.9819343e-05   1.7562326e-05  -6.2335901e-05  -6.0527484e-05  -8.1139609e-05  -7.5277982e-05  -1.8758723e-04  -8.6864187e-05   5.4726956e-05  -2.0021887e-05  -6.6063651e-05  -5.4496373e-05   2.2252731e-05   8.2760153e-06   2.0457761e-05  -7.3670672e-05  -5.5612498e-05   2.3995670e-05  -8.4372929e-05  -5.2486150e-05   9.9818362e-06   3.5861343e-05  -6.2908753e-06  -1.5300662e-04  -1.7861980e-04  -1.0381440e-04  -8.0455553e-05   3.3844928e-05  -1.2839949e-04  -2.0704154e-04  -1.9224026e-05   2.5708701e-05   9.2392496e-05  -3.6847344e-04  -4.9391707e-05  -8.1573035e-06  -2.1104340e-04   2.3213100e-04  -6.8730500e-05  -1.3729035e-04  -1.5500795e-04  -4.7339730e-05  -1.1178234e-04  -5.5072819e-06  -4.8092417e-05  -5.2428473e-05  -2.6426485e-05
  -8.4875595e-05  -4.7861315e-05  -1.8138035e-06  -3.7376423e-05   2.3246752e-05  -3.3792570e-05  -4.5381632e-05  -5.2668529e-06  -1.5770740e-04  -1.8550438e-04  -8.2388913e-05   4.3218897e-05   3.9291290e-06  -4.0811989e-05  -2.3439892e-05   2.7371600e-05   2.7113512e-05   2.2381964e-05   6.8153691e-05  -3.8713548e-05  -5.8995765e-06  -1.1907239e-04  -2.0577017e-05   1.1035152e-05   1.3929819e-04  -1.2244343e-05  -2.5153398e-05   9.5202697e-05  -7.7743804e-05  -3.8831928e-05  -2.6260221e-05  -1.6122748e-04  -4.2508658e-05   2.9181019e-05  -2.6596277e-05   3.9150858e-05  -1.6988673e-04  -4.5775359e-05  -9.4244228e-05  -1.2740202e-04   4.5760167e-05  -2.8896175e-06  -9.0301131e-05   1.4683290e-04  -5.4865217e-05  -5.3336691e-05   3.3251785e-05  -5.4490931e-05  -6.9589252e-05  -5.7713252e-05
  -5.3960135e-05  -3.0310268e-05   4.8526554e-06  -2.1093163e-05   3.1644573e-05  -3.9917966e-05  -2.8951428e-05   3.8784083e-09  -1.3518936e-04  -2.0590113e-04  -7.1566632e-05   3.3147495e-05  -2.7874492e-05  -7.2610193e-05   2.0968666e-05   2.4684890e-05  -4.3241034e-05  -6.5499611e-05  -7.2751303e-05  -5.5642104e-05  -1.0948675e-05  -2.1947524e-05  -5.1208990e-05   3.6235419e-06   4.6434619e-05  -9.3985091e-06  -1.9600579e-05  -1.1667461e-04  -8.3902938e-05  -5.6242712e-05   2.2773502e-05  -2.5723869e-04   4.5382836e-05  -7.3135219e-05  -5.4860546e-05  -2.0362122e-05  -2.5607279e-04  -1.2509707e-04  -1.6261268e-04  -5.5728138e-05   1.1092111e-04  -6.4459041e-06  -5.5709188e-05   7.6656586e-05  -1.9800116e-04  -2.4798416e-04   3.1152118e-05  -4.7271926e-05  -9.9702738e-05  -2.8718789e-05
  -4.2526070e-05  -2.4466437e-05   3.8682974e-06   1.3487993e-05   4.3699878e-05  -3.0129024e-05   2.6758566e-05  -1.1556231e-05  -4.3180720e-05  -2.1137198e-04  -6.3450003e-05   2.4027948e-05  -2.7125670e-05  -8.7977787e-05  -2.9716222e-05  -6.8320142e-06  -1.1177157e-04  -1.6294848e-04  -3.2441214e-05  -4.6360674e-05  -2.3570801e-05  -3.9406717e-05  -8.2166858e-05  -3.4278467e-06   1.0334323e-04  -2.9478713e-05  -7.2921607e-06  -8.4116524e-05  -4.2649259e-05  -7.4555101e-05  -4.8651305e-05  -2.8118910e-04  -1.8796900e-04  -8.6251981e-05   3.2674696e-05   8.0585844e-05  -1.4281168e-04  -1.5724279e-04   1.1652082e-04  -1.1293862e-04   4.2464348e-04   3.0757783e-05  -1.8845133e-04   1.0797495e-04  -2.3051954e-04   9.0454603e-05   4.4985358e-05  -2.0284933e-05  -1.1989741e-04   2.6833464e-05
  -4.9007718e-05  -1.9664772e-05   6.2541912e-06   1.4648494e-05   4.4887660e-05  -2.7772014e-05   1.0787579e-05  -6.0527804e-05  -2.2604502e-06  -2.0720949e-04  -4.0451265e-05   3.1800137e-05  -1.5631935e-05  -4.8845839e-05   2.6756519e-05  -2.6441987e-05  -1.3320844e-04  -1.7415953e-04   1.1787316e-04  -3.0958803e-05  -5.4048560e-05  -6.2386093e-06  -7.3470837e-05   3.1380921e-05  -6.0417951e-05  -7.2353309e-06   2.8796527e-05   3.7917111e-05  -4.5430072e-05  -3.2131189e-05  -1.1871187e-04  -2.4092161e-04   2.7391172e-05  -5.3176714e-06   5.3354011e-05  -1.0409659e-05  -1.0349018e-04  -1.4641686e-04  -1.3941171e-04  -6.6267501e-05   2.5416227e-04  -2.0921894e-05  -1.6307661e-04   2.9685002e-04  -3.1472409e-06  -2.0239620e-04   6.7476023e-05  -6.9129637e-05  -9.5735566e-05  -6.6703637e-05
   1.1159816e-05  -1.3206125e-07  -8.3236756e-07   2.6985068e-05   3.4893841e-05   1.5903704e-05   2.0478114e-05  -3.9558518e-06  -4.1356885e-05  -2.1476414e-04  -1.6254096e-05   3.3270142e-05  -8.1799648e-05  -7.0301294e-06   2.0410494e-05  -5.3103729e-05  -1.8520578e-04  -2.2592022e-04   1.2505119e-04  -3.8310449e-05  -6.4184846e-05   4.2242344e-05  -5.3387528e-05   2.8892919e-05   1.2879312e-04   2.3546436e-05  -6.4989094e-05   2.6411522e-05  -1.0468096e-04  -4.8351398e-05  -1.6637413e-04  -3.1847271e-04  -8.1923810e-07   1.9980178e-06   4.8127116e-05   5.8604001e-05  -1.4527021e-05  -1.5935813e-04  -2.6040518e-04  -1.3606282e-04   6.0345628e-06   2.3756780e-05  -1.0283185e-04  -2.7124592e-05   6.0262108e-05  -2.0574937e-05   5.6683009e-05   3.0500491e-05   2.8715856e-06  -6.4002685e-05
   1.4067563e-06  -4.8390127e-08  -9.6700805e-06   4.4121516e-05   5.5700370e-05  -2.0254474e-05   4.7349866e-05   3.4675901e-05  -3.1257256e-05  -2.1254526e-04  -5.0147755e-06   2.4628545e-05  -1.2491010e-05   1.4697606e-05   1.4580288e-05  -6.0847779e-05  -2.0716491e-04  -2.4714894e-04   1.6251317e-04  -2.9485222e-05  -8.9874506e-05   1.3744638e-05  -4.6039673e-05   3.0162268e-05   8.5463638e-05   6.3041475e-06  -5.3569402e-05   1.2581919e-05  -7.9379999e-05  -3.5571349e-05  -1.6293682e-04  -3.2930236e-04  -3.2290849e-05   5.9377653e-05  -2.0314154e-05   1.0472708e-04  -8.0982711e-05  -2.2780547e-04  -2.2245372e-04  -1.1871718e-04   2.4039651e-05   1.8913777e-05  -4.3318731e-05   9.4929586e-05  -6.3511332e-05  -1.6629958e-04   9.7498756e-05   9.9320314e-05  -2.3875227e-05   6.2537856e-06
   6.9622565e-06  -3.1215430e-07   7.5538424e-07   4.9981085e-05   7.2395116e-05   6.1781706e-05   5.6333345e-05   1.9423616e-05   6.1708932e-05  -1.9911048e-04  -1.6401276e-06   1.6926006e-05  -5.5180466e-05  -3.2083495e-05  -2.0226353e-05  -5.5011937e-05  -2.1576004e-04  -2.6468834e-04   6.8680965e-05  -1.4820127e-05  -1.1756075e-04   7.1377341e-05   2.2666907e-05   3.2994158e-05   9.2079528e-05  -4.1324574e-06  -9.4880626e-05   2.9444951e-04  -5.0615527e-05  -3.9772917e-06  -1.2606617e-04  -2.4404793e-04   1.7573409e-04  -6.7208020e-05   6.3111853e-05  -1.7434440e-05  -3.0226767e-05  -1.8700669e-04  -6.7777844e-05  -6.9817019e-05   1.4430942e-04  -3.8260132e-06   8.7335917e-05   1.5514663e-04   7.3329511e-06  -3.4023949e-04   9.6726595e-05   6.8659465e-05  -1.9303281e-05  -1.7948389e-05
   4.2850941e-05   1.6151615e-05  -5.6834529e-06   5.0520135e-05   8.3957428e-05   2.4785677e-06   1.0187494e-04   2.3539082e-05   9.1022550e-05  -2.0502065e-04   7.8980374e-06   1.9266967e-05  -6.1185703e-05  -4.5578221e-05   4.0208070e-05  -7.8440375e-05  -2.3335402e-04  -3.1286423e-04   2.3205644e-04  -6.8497448e-06  -1.2990244e-04   1.0431893e-04   5.6988480e-05   2.9695635e-05  -7.1965056e-05   4.3714026e-05  -1.0162215e-04   1.3254771e-04  -9.3459821e-05  -3.2380198e-05  -2.4078348e-04  -3.0087266e-04   2.7682603e-04  -5.0458089e-05  -3.0787091e-06   6.1818886e-05  -4.1431682e-05  -2.5790709e-04  -9.6447853e-05  -1.4677522e-04  -1.9063348e-04   2.4435600e-05  -9.1063877e-05  -1.3605782e-04  -3.1789943e-05   7.9121215e-05   1.3066024e-04   8.3763400e-05   3.1621796e-06  -2.5427087e-05
   5.2746149e-05   1.8824470e-05  -1.6166553e-06   6.2827850e-05   7.8477649e-05   2.6036381e-05   1.1180900e-04   8.5868793e-05   7.6060489e-05  -2.0197638e-04   1.7225433e-05   1.1897045e-05  -3.3309752e-05  -2.7348127e-05   4.0002393e-05  -5.9369249e-05  -2.2412253e-04  -2.9135266e-04   2.4857849e-04   5.0418316e-06  -1.6735838e-04   1.4302607e-04   1.0507372e-04   3.6202942e-05   8.5950058e-05   1.6864404e-05  -6.1122089e-05   1.1727696e-04  -1.8063413e-04  -3.1895921e-05  -1.9912802e-04  -3.7938921e-04   1.0281004e-04   9.9051967e-06   5.4486645e-05   1.1317931e-04   2.1771782e-05  -2.4852221e-04  -5.1266354e-05   1.3310280e-05  -9.0657368e-06   5.6243927e-05  -8.0634716e-05   2.0053600e-04   2.4714636e-05   1.2023430e-05   1.0651170e-04   1.1254940e-04  -5.2505657e-06   1.3254721e-05
   4.7724036e-05   1.1110968e-05   6.1659694e-06   7.2263239e-05   9.7663797e-05   9.7363962e-05   1.0562757e-04   1.1823809e-04   9.4441493e-05  -1.9520102e-04   4.0383326e-05   2.2817792e-06  -4.4730663e-05  -2.2518092e-05   2.4387398e-05  -6.1433122e-05  -2.1356985e-04  -2.8847225e-04   3.3516984e-04  -9.3186545e-06  -1.9324385e-04   1.5724126e-04   1.0822310e-04   2.9809762e-05   2.4321297e-04   6.6277142e-05   3.4053983e-06   2.3007432e-04  -1.0574468e-04  -1.9481231e-05  -1.5162224e-04  -2.9750424e-04   3.6453624e-04  -5.4681070e-05   2.8010277e-06   6.3709769e-05   1.4962367e-04  -2.5563853e-04  -2.6219510e-05  -2.3347086e-05  -1.7503400e-04   8.3431500e-05   8.7463333e-05   1.6702278e-04   2.1698465e-06  -1.4911550e-04   1.1475591e-04   1.5836775e-04   5.9555664e-06  -4.1269086e-05
   8.0343263e-05   2.1143269e-05   7.1714630e-06   7.7625948e-05   7.8210673e-05   8.5176005e-05   1.1492056e-04   7.8934718e-05   1.3320788e-04  -1.9702622e-04   5.0486975e-05  -5.0789508e-06  -3.3031498e-05   1.8818706e-06   7.2684539e-05  -7.8277968e-05  -2.2554763e-04  -2.9712883e-04   2.2669372e-04   8.7612889e-06  -2.2280803e-04   1.6562954e-04   7.1249022e-05   5.8272093e-05   1.5517113e-04   3.5225552e-05  -3.8617571e-05   1.5839115e-04  -8.5462387e-05  -4.3549240e-05  -1.5541793e-04  -3.8551283e-04   3.5667460e-04  -2.1681273e-05   6.8581394e-05   1.0570151e-04   1.3699745e-04  -2.5224802e-04  -7.3743402e-05  -1.1506235e-05   8.3489531e-06   8.9042842e-05   1.1194700e-04   2.1268125e-04   2.4360745e-05  -1.9581970e-04   1.2563236e-04   1.6237557e-04  -5.0473623e-06  -8.7267927e-06
   1.0418609e-04   2.3390816e-05   1.2562145e-05   7.5254924e-05   9.4811592e-05   1.0242032e-04   1.4745641e-04   7.5567841e-05   1.9357741e-04  -1.8541823e-04   4.8829577e-05  -7.2895500e-06   2.0893613e-06   1.6288017e-05   1.2129192e-04  -6.7996218e-05  -2.2019002e-04  -3.0171056e-04   3.1312054e-04   3.8005899e-05  -2.4918737e-04   2.2006402e-04   6.0872706e-05   7.8899175e-05   2.7158461e-04   7.7262775e-05   1.0534371e-04   2.8069600e-04  -6.6935165e-05  -2.6104597e-06  -1.8383698e-04  -3.4323151e-04   2.5769338e-04   1.5143491e-05   8.3790394e-05   1.4239986e-04   1.5291916e-04  -2.4815733e-04   2.2145934e-04   1.2415153e-04   2.2253150e-04   7.4344222e-05  -2.3472926e-07  -1.2079655e-04   1.5501431e-05  -2.0861709e-05   1.5730859e-04   2.3046871e-04   8.5256515e-06   1.6220481e-05
   1.1968244e-04   3.4612385e-05   1.7327140e-05   8.2821389e-05   8.7212182e-05   9.3570234e-05   1.4104240e-04   1.5755002e-04   2.8480694e-04  -1.9769026e-04   7.7224053e-05  -1.2120429e-05  -2.5093022e-05  -1.3522930e-05   7.8490259e-05  -7.4832729e-05  -2.2064312e-04  -2.9443222e-04   3.8805170e-04   2.0392126e-05  -2.8374622e-04   2.6164850e-04   8.3978004e-05   3.7348025e-05   1.7448957e-04   4.1463980e-05  -3.6299985e-05   1.8914144e-04  -7.0377639e-05  -1.0347471e-05  -7.1818380e-05  -3.4239088e-04   3.1854562e-04   1.9293610e-05   1.5474747e-05   1.1086590e-04   2.2912791e-04  -2.1857816e-04  -1.0474274e-04  -3.9068276e-05   3.2663354e-04   8.5395091e-05   2.0739831e-04  -7.1196941e-05   1.3882294e-04  -1.7269027e-04   1.3937052e-04   1.5343602e-04   1.3373648e-05   5.9393326e-05
   1.2361971e-04   2.4405914e-05   1.1206574e-05   8.7904162e-05   9.7743759e-05   1.2220874e-04   1.6864913e-04   2.0150852e-04   3.5704850e-04  -1.9086311e-04   8.4522413e-05  -2.2160199e-05  -8.9404484e-06   3.6060621e-05   7.0553375e-05  -7.4218267e-05  -2.0601618e-04  -2.9781635e-04   2.8618326e-04   3.9860555e-05  -3.0624395e-04   2.2702001e-04   1.1145174e-04   4.7093083e-05   1.6036403e-04   6.2559506e-05   6.2778845e-06   2.6133755e-04   5.1691841e-05  -2.8969271e-05  -1.2263660e-04  -3.1891605e-04   3.6851069e-04   1.9961428e-04   4.0120529e-05   1.3944766e-04   5.9757735e-05  -2.1057973e-04  -6.0496888e-05   1.2442666e-04   2.7563947e-04   9.4278839e-05   6.0845257e-05   2.3562674e-04   5.9211892e-05  -1.4256524e-04   1.5143985e-04   1.1280552e-04   3.7189293e-05   2.8317958e-05
   1.1638576e-04   3.5241239e-05   1.6272967e-05   7.5224445e-05   8.9392641e-05   5.9691465e-05   1.2112684e-04   1.3540199e-04   3.1798912e-04  -1.8291047e-04   1.0897966e-04  -3.5787551e-05   2.4760981e-05   8.2949016e-05   7.8436089e-05  -6.5593078e-05  -2.1062822e-04  -2.6836983e-04   3.6834448e-04   3.6828191e-05  -3.3312477e-04   2.3351562e-04   1.0025311e-04   2.4333500e-05   1.9596600e-04   4.2315922e-05   5.5616592e-06   3.6735952e-04   6.2434541e-05   1.6300894e-05  -7.5711054e-05  -2.5909211e-04   2.2524476e-04   1.7584414e-04   4.7326637e-05   1.1114566e-04   1.7345892e-04  -1.6720012e-04  -4.4766508e-05   1.3671842e-04  -3.2899305e-05   3.0190306e-05   8.8815090e-05   1.8672945e-05   1.4012885e-04   1.8937197e-04   1.5127179e-04   1.1843599e-04   8.7791450e-05   1.1354213e-04
