   5.6266563e-04   6.3831062e-04   3.3322300e-04   9.2087331e-04   8.6552347e-05   1.8019137e-04   3.5116030e-04   8.5325781e-05   9.8287826e-04   5.0299068e-04   8.8275323e-04   4.3648671e-04   8.5158693e-04   5.8932346e-04   4.7579093e-04   4.7722567e-04   8.9626253e-04   8.4474543e-04   1.0731372e-03   1.0099607e-03   4.1844987e-04   9.0137694e-04   9.0943428e-04   6.9659989e-04   7.6815044e-04   6.1195105e-04   3.6616265e-04  -3.4820501e-04   4.2518057e-04  -3.4161611e-04   9.2341192e-04   1.4376203e-03   6.4427708e-04   5.1793159e-04   4.0005986e-04   5.5078685e-04  -3.6381694e-04   9.3396736e-04   1.3501594e-04   5.0846586e-04   3.9149547e-04   5.4538460e-04   8.7269983e-04   1.7998389e-04   6.0209149e-04   1.9700175e-05   7.8104693e-04   7.1373431e-04   5.0871685e-04   8.5393287e-04
   2.8508331e-04   2.3108395e-04   1.1753101e-04   6.5526401e-04  -1.2188134e-04  -1.3324183e-04   1.0393174e-05  -8.3493142e-05   5.6522107e-04   1.6797983e-04   6.0211349e-04   1.9247981e-04   5.9304090e-04   3.2608706e-04   1.6721390e-04   2.8798374e-04   6.8847934e-04   7.8826956e-04   7.5519917e-04   6.9755106e-04   1.6326561e-04   6.0627999e-04   6.1148976e-04   4.4559839e-04   4.1605328e-04   3.6194251e-04   2.3027255e-04  -3.6945537e-04   4.5701873e-04  -4.9292011e-04   6.6887087e-04   1.3069067e-03   2.8095033e-04   2.7943889e-04   2.5771168e-04   3.7654987e-04  -3.1075467e-04   9.0205530e-04   2.0122237e-05   5.2611029e-04   5.9663644e-04   4.4760626e-04   7.2670373e-04   2.6571221e-04   7.7757827e-04  -1.4365805e-04   7.2985003e-04   7.3202746e-04   8.5266016e-04   9.8514697e-04
   5.5211864e-04   6.2632532e-04   3.1259580e-04   9.1360690e-04   1.5444512e-04   2.9452849e-04   4.1299441e-04   1.2461607e-04   9.7698963e-04   4.9686828e-04   8.1379467e-04   3.7368957e-04   8.4573583e-04   5.5733341e-04   4.6387012e-04   4.6314413e-04   8.9858443e-04   9.1201591e-04   9.9865405e-04   1.0050422e-03   4.6854877e-04   8.4665796e-04   9.0325990e-04   6.2195840e-04   6.2256498e-04   5.5646303e-04   4.7528089e-04  -3.5028838e-04   4.9537257e-04  -3.3475968e-04   9.4194186e-04   1.3750421e-03   4.6391680e-04   5.9298420e-04   5.0532032e-04   5.5968773e-04  -2.5367030e-04   9.4703084e-04   2.3234423e-04   6.9875660e-04   7.8092021e-04   4.8142282e-04   7.2571612e-04   3.5434886e-04   6.8623538e-04   6.6941713e-05   7.5108552e-04   7.9250359e-04   7.7383063e-04   1.0045402e-03
   5.1598152e-04   5.9384876e-04   2.9097707e-04   8.8592141e-04   8.0830963e-05   1.9904326e-04   3.4009322e-04   1.0211859e-04   8.7029091e-04   3.9437102e-04   7.8757474e-04   3.0165579e-04   8.1200956e-04   5.2058056e-04   3.9437792e-04   4.2213494e-04   8.5641135e-04   8.8253012e-04   9.1611443e-04   8.5160654e-04   3.4425149e-04   7.0478482e-04   8.2524051e-04   5.4718280e-04   6.7569222e-04   4.6782612e-04   3.7049633e-04  -3.0067051e-04   5.1871937e-04  -3.7939893e-04   8.1395486e-04   1.3181635e-03   4.4616152e-04   3.2954011e-04   3.2177239e-04   2.7987632e-04  -3.4367622e-04   9.0590358e-04   5.0636874e-05   4.9825752e-04   7.5291196e-04   3.3262162e-04   5.6723179e-04   2.9308826e-04   5.0528569e-04  -7.6241959e-05   6.0315995e-04   5.5583881e-04   3.6713007e-04   6.7296630e-04
   2.1177401e-04   1.9441592e-04   5.0348324e-05   5.9436710e-04  -1.4301280e-04  -8.9793655e-05   3.4250108e-05  -1.0726415e-04   5.4557418e-04   7.9787693e-05   5.1629712e-04   5.1245977e-05   5.3626165e-04   2.6764843e-04   2.0250410e-04   2.4885105e-04   6.8995601e-04   8.3944795e-04   6.5429637e-04   5.4586661e-04   6.7371970e-05   3.9535618e-04   5.3234835e-04   2.6267988e-04   3.9542417e-04   2.5313289e-04   2.2360128e-04  -4.0814007e-04   3.5967591e-04  -5.4586818e-04   5.7302421e-04   1.1629715e-03   7.6355383e-05  -5.1112966e-06   1.0359577e-04   9.4379961e-05  -4.4529224e-04   7.9554209e-04  -2.9187434e-04   2.0674409e-04   3.7966867e-04   1.1395139e-04   3.3119836e-04  -1.8354526e-04   2.9883947e-04  -3.3010903e-04   4.8112604e-04   3.9990986e-04   4.7636608e-04   6.2447006e-04
   3.5384553e-04   4.3159997e-04   1.6343028e-04   7.2941731e-04   6.2086270e-05   1.7589366e-04   2.6341071e-04   1.0831311e-04   8.1241300e-04   2.6123959e-04   6.0673436e-04   1.2532879e-04   6.2615471e-04   3.2408809e-04   2.3172234e-04   3.1952371e-04   7.7330082e-04   8.1411260e-04   8.0694520e-04   7.0685887e-04   2.5422309e-04   5.2387372e-04   7.1738928e-04   3.3848395e-04   2.8985995e-04   3.2947530e-04   3.1290454e-04  -3.6116576e-04   4.0703532e-04  -4.0995161e-04   7.1831152e-04   1.1469595e-03   2.3765862e-04   1.8266054e-04   3.2554968e-04   3.0004384e-04  -3.2169986e-04   8.5232512e-04  -4.5483350e-05   4.1298606e-04   5.1313138e-04   2.7852989e-04   5.5055582e-04   2.9524617e-04   5.0553196e-04  -1.2170603e-04   5.1223865e-04   4.9058371e-04   4.5329935e-04   6.7928957e-04
   3.4726222e-04   4.3767822e-04   1.2190781e-04   7.1177509e-04  -2.8446841e-05   1.6169372e-04   2.1122958e-04   7.4095915e-06   7.6932355e-04   1.9962361e-04   5.9441512e-04   1.0046927e-04   5.9648458e-04   4.2334048e-04   3.1690759e-04   3.1506110e-04   7.4117910e-04   8.1225153e-04   6.8480830e-04   5.9471006e-04   1.7173840e-04   4.1820543e-04   6.6819956e-04   2.5399213e-04   3.6180581e-04   2.3771435e-04   3.0457671e-04  -3.3312265e-04   3.0646371e-04  -4.8996741e-04   6.1488926e-04   1.0120138e-03   1.1546444e-04   1.9607997e-04   2.5527945e-04   1.1623973e-04  -5.2274979e-04   7.9221319e-04  -1.0736404e-05   2.2978694e-04   4.1630384e-04   1.6726340e-04   4.6447632e-04   1.3324036e-04   2.7413544e-04  -4.2856665e-04   3.8751288e-04   3.1372532e-04   2.0131351e-04   4.3925396e-04
   8.4982756e-05   1.3418749e-04  -8.4982647e-05   4.7783935e-04  -2.0469337e-04  -1.5869742e-04  -1.2748000e-04  -1.4493433e-04   4.4072708e-04  -6.8409245e-05   3.6035958e-04  -9.9491481e-05   3.8854755e-04   1.7437464e-04   4.3282096e-05   1.5758749e-04   5.6548545e-04   7.2837702e-04   4.9702317e-04   3.1863325e-04  -7.4071701e-05   1.3712526e-04   3.7704338e-04   2.6357364e-05   5.4271222e-05   5.7914876e-05   2.1032368e-04  -4.1388947e-04   3.2460756e-04  -6.3147099e-04   3.8846020e-04   1.0084921e-03  -3.6289937e-05  -1.9726905e-04   2.0772327e-06  -7.4697055e-05  -5.1189208e-04   7.8202185e-04  -2.1751353e-04   8.1357110e-05   4.4401060e-04   6.9310328e-05   2.7395063e-04  -1.8556062e-04   2.7400989e-04  -3.1311903e-04   3.4588491e-04   3.1064206e-04   4.0656535e-04   4.7972376e-04
   3.0219482e-04   4.4702293e-04   7.3139876e-05   6.7737204e-04   1.5079695e-05   1.6347293e-04   2.4445623e-04  -5.5756096e-05   8.1254711e-04   1.8283138e-04   5.4353784e-04   4.8761500e-05   5.9835240e-04   2.8193276e-04   2.1151933e-04   2.6504253e-04   6.6840759e-04   7.7453913e-04   7.4081274e-04   5.4621877e-04   1.5944069e-04   3.0688965e-04   6.4294646e-04   1.8911446e-04   3.5332312e-04   1.1125012e-04   2.4309555e-04  -3.9016132e-04   3.9194367e-04  -5.2226026e-04   5.8144203e-04   1.1092208e-03   4.0131679e-05  -8.1904094e-05   1.9453582e-04   4.1628999e-05  -3.5592512e-04   8.7095896e-04  -9.3660921e-05   1.9777822e-04   4.7711161e-04   1.8868763e-04   3.9578957e-04   1.1456099e-04   2.6803860e-04  -4.5090966e-04   3.5208120e-04   3.3951071e-04   2.9703305e-04   3.5440052e-04
   2.3418464e-04   3.4641492e-04   3.0863081e-05   6.1685115e-04  -9.3626491e-05   6.8818008e-05   1.2955423e-04  -3.1426938e-05   6.6155853e-04   6.3899701e-05   4.7228852e-04   5.9562390e-06   4.8096463e-04   1.9614631e-04   1.0056615e-04   2.1385396e-04   5.8623694e-04   7.3723972e-04   5.3753244e-04   4.0004987e-04   3.7202521e-05   1.7011892e-04   4.4751068e-04   1.2019467e-04   2.4425206e-04   2.4716430e-05   7.4596632e-05  -4.1643289e-04   3.0692681e-04  -5.8417465e-04   4.4132801e-04   1.0411425e-03  -2.0597129e-04  -2.5506396e-04   3.3043209e-05  -3.0510784e-05  -4.0651421e-04   8.0992648e-04  -2.4169996e-04  -3.0371972e-05   2.7540297e-04   1.0582260e-04   2.3138967e-04  -2.1954115e-04  -5.2298747e-05  -5.7528709e-04   2.4536290e-04   9.2730916e-05   7.0930246e-06   1.1896438e-04
  -4.8285357e-05  -4.4702145e-05  -2.0048277e-04   3.3620340e-04  -2.8710792e-04  -2.8196562e-04  -2.2541243e-04  -2.2708785e-04   2.7305883e-04  -1.8596364e-04   2.5021614e-04  -1.8857482e-04   3.2699126e-04  -8.0055916e-06  -1.0034754e-04   4.8657443e-05   3.8130846e-04   6.4446620e-04   3.5811157e-04   2.2818871e-04  -3.6641417e-05   4.1328607e-05   3.3507432e-04   8.2312799e-05   1.0966425e-04  -1.0938050e-04   1.1114086e-04  -4.2609655e-04   3.1458290e-04  -5.8709970e-04   3.0508719e-04   9.7952713e-04  -3.5650835e-05  -2.1034897e-04   1.2668199e-04  -4.1199444e-05  -4.3084903e-04   8.3891011e-04  -2.0892051e-04   2.8009582e-04   4.8382190e-04   2.2099361e-04   3.2526671e-04  -4.9369043e-04   3.2334391e-04  -6.6472316e-04   4.0314035e-04   3.9004005e-04   4.7298489e-04   2.9573872e-04
   4.2646227e-04   5.1973382e-04   1.4821372e-04   7.2181498e-04   1.0289942e-04   2.8530916e-04   3.1636536e-04   8.0317004e-06   7.8442419e-04   2.5531175e-04   6.0011027e-04   1.6656079e-04   5.9323467e-04   2.7604890e-04   2.0136911e-04   2.5111434e-04   5.4083770e-04   6.7792606e-04   6.7472708e-04   4.8226313e-04   1.7149384e-04   2.2459553e-04   5.8702857e-04   2.6120697e-04   4.3896257e-04   1.0624175e-05   1.9427743e-04  -4.5825355e-04   3.2857014e-04  -6.0309947e-04   4.7267618e-04   1.0293603e-03  -1.6453586e-04  -2.0072727e-04   1.5181937e-04   2.7459679e-05  -3.7205551e-04   8.8761887e-04  -1.4213689e-04   1.6496136e-04   1.7452722e-04   2.3515365e-04   3.4230066e-04  -5.9386235e-05   2.4694699e-04  -6.5577443e-04   4.4101532e-04   3.5089464e-04   3.5445142e-04   2.2584586e-04
   2.9185519e-04   3.5446315e-04   4.6917401e-05   6.1342533e-04  -3.7587994e-05   6.7793764e-05   9.0130423e-05  -6.1639432e-05   6.8042998e-04   1.0462265e-04   4.9752509e-04   1.2006194e-04   4.9552968e-04   1.6244894e-04   1.1588217e-04   1.5825291e-04   4.5539613e-04   6.4272649e-04   5.9751730e-04   3.3247695e-04   6.0215767e-05   1.1838024e-04   3.3024250e-04   1.8052920e-04   1.9554605e-04  -6.9787573e-05  -1.7558705e-05  -4.6531876e-04   3.5693997e-04  -6.7088829e-04   3.4125586e-04   9.1806962e-04  -2.2451254e-04  -3.3045741e-04  -3.1601965e-05  -5.9413360e-05  -3.9964449e-04   8.6128339e-04  -3.7943447e-04  -1.5507954e-04   2.6911604e-05   1.2256572e-04   1.3746288e-04  -2.8560808e-04  -5.5006658e-05  -8.3626801e-04   2.6352608e-04   1.0522466e-04  -6.1628787e-05  -1.5723066e-04
   3.7023539e-05  -7.7611658e-05  -1.4920683e-04   3.3338621e-04  -1.5854544e-04  -1.6079297e-04  -1.1083228e-04  -2.4297519e-04   4.7620540e-04   9.9157596e-06   3.7071708e-04   2.4390218e-05   4.2778626e-04   6.3405932e-05   2.5330910e-05   1.4495563e-04   4.5928499e-04   6.6056376e-04   5.4237916e-04   4.1916751e-04   1.5015659e-04   1.7366152e-04   5.1888416e-04   2.1602155e-04   2.1316041e-04  -4.3130629e-05   2.9285509e-05  -4.1175922e-04   3.4060530e-04  -6.2128034e-04   4.1140063e-04   1.0177499e-03  -1.6758977e-04  -1.9746697e-04   1.5943249e-04  -2.9981298e-05  -3.1198171e-04   9.2313351e-04  -1.3112424e-04   2.0476410e-04   3.2761693e-04   2.8566815e-04   3.7609751e-04  -1.7737738e-04   3.6147994e-04  -6.9584773e-04   5.0165097e-04   4.7383097e-04   5.3191790e-04   2.4299377e-04
   6.3740002e-04   5.9742545e-04   2.8772265e-04   7.7096204e-04   1.8368130e-04   3.0747926e-04   3.4996500e-04   7.4060801e-05   8.2444941e-04   3.1241259e-04   6.4825377e-04   3.1175200e-04   6.2652677e-04   2.5879478e-04   9.5261224e-05   2.5112965e-04   5.3626852e-04   6.4578961e-04   6.2403316e-04   5.3313741e-04   2.6561695e-04   3.3480520e-04   6.2694913e-04   3.9099346e-04   4.4434387e-04   8.9240471e-05   2.2621253e-04  -5.3660857e-04   4.2047247e-04  -6.2749721e-04   4.4208692e-04   1.1479864e-03  -1.1397817e-04  -9.6841017e-05   2.2867216e-04   1.2320772e-04  -3.5788718e-04   9.5917139e-04  -5.1144096e-05   1.1165848e-04   5.6446728e-04   2.3251217e-04   3.3400179e-04  -3.8719529e-04   3.6913491e-04  -6.4164732e-04   5.1353127e-04   3.7552079e-04   3.6455740e-04   1.1622543e-04
   4.4783467e-04   3.7103845e-04   1.4193970e-04   6.2849314e-04   2.7972406e-05   4.7868398e-05   1.6119580e-04  -8.9372203e-05   6.2064844e-04   1.6902306e-04   5.3929409e-04   2.3151544e-04   5.3450948e-04   1.7159063e-04   1.0590986e-04   1.7420383e-04   4.4282654e-04   6.1672204e-04   4.7849698e-04   4.0848681e-04   1.3455978e-04   1.7526466e-04   4.8008005e-04   2.7708092e-04   1.6219394e-04  -2.3485673e-05   1.4755382e-04  -4.6838532e-04   3.3390921e-04  -6.9791806e-04   3.4003911e-04   9.2416024e-04  -1.9941705e-04  -3.5669337e-04  -1.2211507e-04  -5.2778552e-05  -3.4606812e-04   9.3883654e-04  -1.4491583e-04  -1.7299953e-04   2.2498801e-04   1.3688534e-04   2.7000729e-04  -5.5007101e-04   1.8513895e-04  -9.2992053e-04   3.3778604e-04   1.3210568e-04   2.1458925e-05  -1.7907126e-04
   2.1976087e-04  -4.8275506e-05  -2.6340419e-06   3.9286516e-04  -1.6242984e-05  -2.4387768e-05   2.6670641e-05  -1.4678782e-04   5.4747186e-04   1.5629141e-04   4.6315207e-04   1.8592215e-04   5.0994824e-04   1.2583268e-04   9.5219795e-05   1.7444756e-04   4.7350736e-04   6.2899396e-04   5.5368006e-04   5.1583647e-04   2.5985754e-04   3.2739792e-04   5.8498490e-04   3.5436783e-04   2.6056578e-04   5.8544101e-05   8.1606944e-05  -5.0169916e-04   4.6466343e-04  -6.2752533e-04   6.1145460e-04   1.0520990e-03  -1.4710454e-04  -1.8133143e-04   1.4970786e-04   4.7112564e-05  -2.9972970e-04   1.0500349e-03  -2.6855242e-04   3.2357438e-04   4.4934716e-04   2.7893591e-04   3.5646415e-04  -1.7856614e-04   4.1947514e-04  -4.0989881e-04   5.5409782e-04   5.5061368e-04   5.9628929e-04   2.1072726e-04
   8.0894970e-04   6.1476382e-04   4.0578781e-04   7.8644638e-04   2.7100192e-04   3.3486448e-04   3.4110487e-04   6.6546789e-05   7.6094514e-04   3.7790919e-04   6.6939549e-04   4.0369813e-04   6.4520276e-04   2.8854774e-04   1.9214267e-04   2.9680520e-04   6.1467919e-04   7.4831775e-04   6.8973971e-04   6.3534133e-04   3.4856395e-04   4.1522924e-04   6.4889371e-04   5.1368237e-04   2.5076768e-04   1.5981757e-04   1.6134487e-04  -5.0890073e-04   5.3166028e-04  -6.1642274e-04   6.2796602e-04   1.2154491e-03  -6.3924272e-05  -7.7372344e-05   1.4918741e-04   2.3247062e-06  -2.5820770e-04   1.0833758e-03  -1.4209992e-04   8.8645778e-05   5.2141864e-04   3.5597789e-04   4.3850290e-04  -2.3757665e-04   4.3140986e-04  -4.9334043e-04   5.6136714e-04   4.7292962e-04   4.3133911e-04   1.5752055e-04
   6.6234457e-04   4.0549674e-04   2.9046959e-04   6.6157238e-04   1.3676756e-04   1.0010497e-04   1.5356189e-04   1.6819455e-05   6.1030441e-04   2.2468239e-04   5.8164884e-04   3.1114751e-04   5.6494039e-04   2.0234060e-04   8.0514830e-05   2.0211353e-04   4.9381045e-04   6.6241086e-04   5.2928034e-04   4.7981800e-04   1.9829156e-04   2.4688590e-04   5.5985618e-04   3.8263219e-04   1.8147315e-04   3.8620246e-06   3.4805493e-05  -4.8174089e-04   5.2636274e-04  -6.9769757e-04   4.2780497e-04   1.0584359e-03  -1.5097897e-04  -2.8304604e-04  -1.4754856e-05  -1.0416458e-04  -3.0121231e-04   1.0095824e-03  -4.4360000e-04  -1.2672001e-04   3.1471954e-04   1.8258090e-04   2.5168993e-04  -5.4355280e-04   1.1388622e-04  -7.5333129e-04   3.8090866e-04   2.2828994e-04   2.2944130e-04  -1.4817112e-04
   5.8449828e-04   3.1429547e-04   3.0809958e-04   6.3962885e-04   2.5881839e-04   2.8164958e-04   3.3096762e-04   3.7667171e-05   8.7679049e-04   3.5782612e-04   6.3258590e-04   3.7974695e-04   6.2390335e-04   2.2057681e-04   5.8139558e-05   2.5115037e-04   5.2361772e-04   6.1966275e-04   6.2597630e-04   6.5934629e-04   3.7834671e-04   4.5169133e-04   7.0749375e-04   5.2927173e-04   5.0988520e-04   1.7855695e-04   1.9653977e-04  -4.7241448e-04   4.7215758e-04  -5.6057342e-04   5.4734002e-04   1.1583696e-03   2.7446085e-04   5.2928215e-05   2.0437178e-04   1.5738487e-04  -2.0667401e-04   1.0780627e-03  -2.7291853e-05   3.1032661e-04   3.2127477e-04   3.5632943e-04   5.2548019e-04  -2.7633584e-04   5.0774321e-04  -3.6493706e-04   6.1485526e-04   6.2873750e-04   5.6981930e-04   1.6098103e-04
   8.8895747e-04   5.8269425e-04   4.8788046e-04   7.9238892e-04   3.3182980e-04   3.1821913e-04   4.0558309e-04   9.6064367e-05   8.8835030e-04   4.0280021e-04   7.2281156e-04   4.6177540e-04   6.7888334e-04   3.5354693e-04   2.0866997e-04   3.1899521e-04   5.6374830e-04   6.9636054e-04   6.7598879e-04   6.9521344e-04   3.9037151e-04   5.0731830e-04   7.2619319e-04   5.7002617e-04   3.9637243e-04   1.8056488e-04   2.1069938e-04  -3.4083551e-04   5.7144050e-04  -5.6565047e-04   6.6825136e-04   1.2520691e-03   2.1491287e-05  -2.6002770e-06   6.3597072e-05   1.4083418e-04  -1.3945020e-04   1.0782646e-03  -1.8073342e-04   1.6944157e-04   1.5986286e-04   2.8859964e-04   4.8222824e-04  -2.8151285e-04   3.6737547e-04  -5.4578658e-04   5.6080648e-04   4.6565090e-04   3.8284596e-04   6.7128669e-05
   7.3702360e-04   3.6005946e-04   3.6636143e-04   6.3765130e-04   1.6173719e-04   1.0808568e-04   1.6326350e-04   2.3452934e-07   6.5744703e-04   1.9323434e-04   5.6686724e-04   3.0624523e-04   5.8044231e-04   2.3609512e-04   5.3065549e-05   1.9321240e-04   4.6512281e-04   6.7112973e-04   3.5757603e-04   4.7495906e-04   1.6623008e-04   2.7996636e-04   5.0463522e-04   4.3517549e-04   1.4114461e-04   7.8188343e-05   1.6097365e-04  -4.2272167e-04   5.1274669e-04  -6.2928360e-04   5.3840713e-04   1.0489940e-03  -4.5408833e-05  -1.9751968e-04  -4.8429796e-05   1.7834938e-05  -2.2651730e-04   1.0306265e-03  -2.6247004e-04   1.5577520e-04   5.6896365e-04   2.4331066e-04   4.7684702e-04  -2.2063950e-04   5.1665923e-04  -6.6165929e-04   5.8602577e-04   6.1641354e-04   6.3249399e-04   1.5624921e-04
   1.0096012e-03   6.6323625e-04   5.9825869e-04   8.4739155e-04   4.7107428e-04   4.7055419e-04   5.1687314e-04   1.6336734e-04   9.8732905e-04   5.0021592e-04   7.5906311e-04   5.0300913e-04   7.7114918e-04   3.9354258e-04   3.1475278e-04   3.6429267e-04   6.4860156e-04   6.9889042e-04   7.4481632e-04   8.0785196e-04   4.7375818e-04   6.2339724e-04   8.7501993e-04   6.7593885e-04   4.4891820e-04   3.2650723e-04   2.5528664e-04  -2.4443940e-04   6.3870725e-04  -4.3566618e-04   7.9578144e-04   1.3246292e-03   1.3369101e-04   1.8215887e-04   2.3318984e-04   2.3033061e-04  -9.0932226e-06   1.0946115e-03   3.5069130e-05   4.2841292e-04   2.8137278e-04   4.1858875e-04   7.2841824e-04  -1.7961889e-04   6.0101179e-04  -3.6558518e-04   6.4132694e-04   7.3316117e-04   6.2398292e-04   2.9584125e-04
   1.0598113e-03   6.4992928e-04   6.5151171e-04   8.4113324e-04   4.3287966e-04   4.3716916e-04   4.2991826e-04   2.1102434e-04   9.3904865e-04   4.2604844e-04   7.6663756e-04   4.8035110e-04   7.6636573e-04   4.4645148e-04   2.5212119e-04   3.6481567e-04   6.3805608e-04   6.9117319e-04   5.5349478e-04   6.9963536e-04   3.6624176e-04   5.2204164e-04   8.0988376e-04   6.2259828e-04   4.7473444e-04   2.9984058e-04   3.1001496e-04  -1.6934711e-04   5.7954207e-04  -4.2837800e-04   6.6973176e-04   1.1919137e-03   1.8998397e-04   1.4044860e-04   1.9601107e-04   1.1041031e-04  -2.1033185e-05   1.0172114e-03  -1.4429797e-04   1.8900823e-04   4.2504221e-04   3.5107633e-04   6.5721147e-04  -5.2335067e-04   4.2119774e-04  -5.2614434e-04   5.3081941e-04   5.4741197e-04   3.2752729e-04   1.1629828e-04
   7.5295271e-04   2.6935391e-04   3.9881907e-04   5.6536682e-04   1.8577609e-04   6.1393854e-05   1.2020470e-04   3.8458729e-05   5.7152961e-04   1.4351032e-04   5.2355317e-04   2.3107186e-04   5.4734171e-04   2.6397553e-04   1.2062728e-04   2.1817828e-04   5.0319545e-04   6.7448837e-04   4.4469934e-04   5.3087703e-04   2.3759184e-04   3.8933888e-04   6.3919160e-04   5.1505939e-04   2.9214201e-04   2.7694629e-04   2.2421915e-04  -1.9320440e-05   6.7214260e-04  -3.5654163e-04   6.9751241e-04   1.2734330e-03   4.0111219e-05   1.2115844e-04   2.2967742e-04   2.6896427e-04   9.1247814e-05   1.0086978e-03   4.9891576e-05   3.4323521e-04   5.6161155e-04   3.8454909e-04   6.7566184e-04   4.4232584e-06   6.2161841e-04  -1.6994722e-04   6.1669666e-04   7.4836571e-04   7.0611929e-04   4.7123589e-04
   1.2137629e-03   7.9754629e-04   7.8002672e-04   9.4390300e-04   6.0749863e-04   5.9503206e-04   6.4872002e-04   3.5994899e-04   9.9731016e-04   5.7805469e-04   8.6240546e-04   5.2755501e-04   8.8810717e-04   5.6880311e-04   4.0475687e-04   4.8543460e-04   7.7274913e-04   7.3426840e-04   7.2189799e-04   8.4475201e-04   4.4731022e-04   6.6734158e-04   9.6042955e-04   6.8033201e-04   6.8845734e-04   4.5358710e-04   4.0906429e-04  -8.2428378e-05   7.0342125e-04  -2.6367180e-04   7.6165958e-04   1.4116361e-03   3.0892427e-04   2.7191496e-04   4.0460154e-04   4.4564379e-04   2.0398707e-05   1.0236022e-03  -2.2562217e-05   4.6490238e-04   9.2221808e-04   4.5482916e-04   6.1765639e-04   1.7676686e-04   6.8338471e-04  -1.2016646e-04   6.5874099e-04   8.3659083e-04   6.5235858e-04   5.0736975e-04
   1.1131063e-03   6.7494472e-04   7.1034842e-04   8.3414582e-04   4.7035018e-04   4.5148638e-04   4.6522482e-04   2.5405007e-04   7.8817259e-04   3.9771391e-04   7.6979282e-04   4.0416597e-04   7.6549815e-04   5.0163793e-04   3.5913251e-04   4.2237819e-04   6.8679691e-04   7.4308529e-04   6.6244137e-04   6.8203924e-04   3.0207235e-04   5.1904883e-04   7.7326060e-04   5.9015816e-04   3.9682959e-04   3.4376068e-04   3.5055529e-04  -1.8095583e-06   6.9501699e-04  -2.7756038e-04   6.2537618e-04   1.2726788e-03   1.0597266e-04   2.3198627e-04   2.6452623e-04   2.6992301e-04   1.1779533e-04   9.4328553e-04  -1.1436016e-04   3.0501140e-04   6.6703471e-04   3.0407484e-04   5.3518085e-04  -1.0910233e-05   3.3179243e-04  -3.0483268e-04   4.6143177e-04   5.8640476e-04   2.3841910e-04   2.1769083e-04
   7.5916183e-04   2.7309585e-04   4.5271352e-04   5.6834565e-04   3.2392802e-04   2.5125020e-04   3.0154258e-04   1.5043654e-04   8.6920278e-04   3.1883633e-04   6.3398085e-04   2.8909103e-04   7.3648366e-04   4.5616672e-04   3.6999959e-04   4.1874126e-04   6.7885692e-04   7.2743202e-04   6.3696475e-04   7.3631486e-04   3.5075616e-04   5.3469779e-04   8.3268288e-04   6.0723955e-04   5.4054696e-04   4.1416890e-04   4.3043247e-04   1.3990595e-04   7.0125243e-04  -1.6651265e-04   7.6876994e-04   1.3305220e-03   2.3227261e-04   3.5935792e-04   4.9974566e-04   5.1456474e-04   2.5274738e-04   9.5315510e-04   3.5497508e-04   5.3336006e-04   5.1641528e-04   4.5358139e-04   7.2947884e-04   2.5287035e-04   6.3945336e-04  -6.4785570e-05   6.2792032e-04   8.3927793e-04   8.3293457e-04   6.0359435e-04
   1.2884878e-03   8.7773218e-04   8.1058865e-04   9.6581760e-04   6.3293480e-04   6.6321890e-04   6.6050160e-04   3.9918153e-04   1.0446922e-03   4.7125283e-04   8.3861378e-04   4.1926152e-04   8.9680299e-04   6.8599859e-04   5.1888271e-04   5.2939961e-04   7.2137034e-04   7.2398188e-04   7.1772595e-04   7.5180014e-04   3.7298264e-04   6.1524223e-04   9.1170392e-04   6.3316181e-04   5.6787673e-04   4.6957459e-04   5.3970015e-04   1.3623101e-04   6.3552271e-04  -8.5059961e-05   7.8456238e-04   1.3735463e-03   1.2091962e-04   3.6242441e-04   4.9142097e-04   4.7363088e-04   2.6944780e-04   9.3275093e-04   3.4962705e-04   5.1616348e-04   9.7524852e-04   4.3597104e-04   7.8901212e-04   1.7517709e-04   5.5340759e-04  -1.1993055e-04   5.3918926e-04   7.6105184e-04   6.0822238e-04   5.3763523e-04
   1.0577231e-03   6.5437425e-04   6.4602977e-04   8.0903777e-04   4.6835808e-04   5.4631452e-04   4.5485445e-04   3.4201427e-04   9.1384491e-04   2.7647361e-04   7.0694031e-04   2.7803055e-04   7.7226228e-04   6.0957455e-04   4.2645287e-04   4.0856158e-04   5.7363632e-04   6.6828774e-04   5.7751610e-04   5.2491052e-04   1.6990233e-04   3.8671351e-04   6.6124584e-04   4.7887949e-04   4.6071128e-04   3.2819484e-04   4.4996687e-04   8.9410329e-05   6.2008528e-04  -1.5230806e-04   5.2023161e-04   1.0996808e-03   1.6846904e-04   1.4659498e-04   2.6537996e-04   2.9486904e-04   1.7501347e-04   8.4601919e-04   1.6912646e-04   2.4029422e-04   4.1950776e-04   1.9699786e-04   4.7018909e-04   1.8192855e-05   3.8627471e-04  -3.0837534e-04   3.5937509e-04   4.8785779e-04   4.9398973e-04   4.0242754e-04
   1.0148979e-03   6.8530708e-04   6.2598358e-04   8.4280950e-04   5.9274485e-04   6.5067346e-04   6.1590760e-04   4.2903677e-04   1.0582615e-03   3.7779566e-04   7.5376290e-04   2.9666806e-04   8.5635489e-04   6.0855655e-04   4.6412752e-04   4.7089762e-04   5.9353770e-04   6.6764402e-04   7.3275599e-04   6.2655134e-04   2.9242944e-04   4.5464037e-04   8.5947500e-04   5.7770335e-04   5.4270291e-04   4.2887422e-04   5.8697496e-04   1.7287470e-04   6.5922615e-04  -1.8897708e-05   5.3075928e-04   1.2817393e-03   2.4194486e-04   3.6398449e-04   5.0341414e-04   5.8647402e-04   2.9242839e-04   9.2960882e-04   1.9257898e-04   6.6424964e-04   6.3755660e-04   3.3494807e-04   6.9012336e-04   1.3878160e-04   6.7175576e-04  -2.3749885e-04   4.3572776e-04   6.0110574e-04   5.9447228e-04   5.1643973e-04
   1.1819575e-03   8.0115290e-04   6.9037703e-04   9.1281108e-04   6.2255625e-04   6.7014381e-04   6.5013359e-04   3.8095072e-04   9.6074346e-04   3.0270516e-04   7.6122966e-04   2.7333834e-04   9.1127481e-04   6.7495287e-04   5.3994119e-04   5.1628135e-04   6.0423097e-04   7.0901320e-04   6.1390206e-04   5.3258939e-04   2.1690180e-04   4.0139019e-04   7.6328812e-04   5.0767499e-04   5.6819763e-04   3.6900473e-04   5.8068690e-04   3.0232561e-04   6.8673125e-04  -5.0480208e-05   5.5301090e-04   1.2801182e-03   1.0887084e-04   2.5202098e-04   4.3653019e-04   3.9817716e-04   2.8248085e-04   9.4084733e-04   3.1715335e-04   5.3382711e-04   5.4249511e-04   2.4079363e-04   6.1825762e-04  -8.0299826e-05   4.3872852e-04  -2.4120313e-04   3.0950914e-04   4.3971828e-04   4.2128528e-04   3.7022255e-04
   9.2896289e-04   5.5021420e-04   4.9065088e-04   6.9979392e-04   4.5050253e-04   4.2072666e-04   3.7971465e-04   2.8040993e-04   7.4081891e-04   4.8055681e-05   5.5603817e-04   8.4167805e-05   6.8448152e-04   5.4840284e-04   3.5657996e-04   3.5016320e-04   4.2466191e-04   6.5931334e-04   2.6912850e-04   2.6428330e-04  -1.6918360e-05   1.5988051e-04   5.1924615e-04   2.9473135e-04   5.1806628e-04   1.4885077e-04   4.3766113e-04   1.8570237e-04   6.9500122e-04  -1.1060180e-04   4.7774793e-04   1.1028082e-03   6.2043691e-05   5.9404996e-05   3.7756626e-04   2.5615620e-04   2.4819723e-04   9.5304323e-04   1.4603838e-04   4.0733087e-04   8.3699607e-04   2.0029016e-04   4.0947404e-04   5.4239561e-05   6.3732313e-04  -2.0528797e-04   2.9543453e-04   5.3452241e-04   6.6079310e-04   4.6685064e-04
   1.1975283e-03   8.7495957e-04   6.7849807e-04   9.5409720e-04   7.1302301e-04   7.8726286e-04   7.7898218e-04   4.6944580e-04   1.1200104e-03   3.0848841e-04   7.4968423e-04   2.3597229e-04   9.1788947e-04   7.8179967e-04   6.0750172e-04   5.3842738e-04   5.5328873e-04   7.0107856e-04   5.6070660e-04   4.8183952e-04   2.1055700e-04   3.0315513e-04   7.5635128e-04   4.4758242e-04   5.1964977e-04   2.8110488e-04   6.4501230e-04   3.0233830e-04   6.9787499e-04   1.5211488e-06   4.4675515e-04   1.2438759e-03   2.6742578e-04   1.8903665e-04   4.5363666e-04   3.8093797e-04   4.2071630e-04   9.4109401e-04   1.6870345e-04   5.4685638e-04   5.2041857e-04   2.0865732e-04   5.5355037e-04   2.1423917e-04   6.1571103e-04  -1.5729289e-04   2.4302978e-04   3.9839835e-04   6.3646195e-04   3.9742049e-04
   1.1173495e-03   7.8137737e-04   6.0393900e-04   8.6998183e-04   6.3969928e-04   6.8973005e-04   6.2031264e-04   4.4059628e-04   8.9816633e-04   1.4172436e-04   6.3039793e-04   1.2578488e-04   8.6163991e-04   6.6149398e-04   4.0967102e-04   4.7118647e-04   4.3082764e-04   6.6844176e-04   4.0529185e-04   2.9977734e-04   5.6043486e-05   1.4188455e-04   6.0249236e-04   3.1239752e-04   4.9479638e-04   1.4182579e-04   5.5448286e-04   3.4752936e-04   6.9873797e-04  -2.9224533e-05   3.5253342e-04   1.1278015e-03  -2.0436407e-04   1.4790697e-05   4.0820267e-04   1.8777404e-04   2.8996271e-04   9.1876893e-04   1.5548339e-04   2.1729631e-04   6.4437528e-04   1.8098908e-05   2.8475135e-04  -2.5123477e-04   3.7021443e-04  -4.4157665e-04   7.0256690e-05   8.7762644e-05   2.3187144e-04   9.3997165e-05
   7.4980559e-04   3.7602708e-04   3.0479359e-04   5.5532751e-04   3.6830199e-04   3.7694583e-04   3.0310341e-04   2.5771328e-04   5.8913918e-04  -1.2202554e-04   3.8596749e-04  -8.0472098e-05   6.0858793e-04   4.8998249e-04   3.9337829e-04   3.5677585e-04   3.6225826e-04   5.7947548e-04   4.9093284e-04   2.2193568e-04   4.8768106e-05   9.1086724e-05   5.3455157e-04   2.7308744e-04   4.9711199e-04   9.3632225e-05   6.4252806e-04   4.9639028e-04   6.5325835e-04   4.6441568e-05   2.7945271e-04   1.0074194e-03  -1.4764290e-04   6.2494400e-05   4.4478441e-04   3.0725126e-04   3.1290695e-04   8.1896113e-04   2.8919321e-04   4.1172822e-04   7.6830434e-04   1.5116867e-04   4.8192058e-04   1.2390519e-04   6.0969579e-04  -1.9470720e-04   1.5195090e-04   3.7142000e-04   6.8082788e-04   4.1632805e-04
   1.1698626e-03   9.1653049e-04   6.1872898e-04   9.5253420e-04   7.5312186e-04   8.8245567e-04   8.4753311e-04   5.7271519e-04   1.0523302e-03   2.0384786e-04   6.4632331e-04   1.5760628e-04   8.8770973e-04   7.6604122e-04   5.9831410e-04   4.9149810e-04   3.5991240e-04   5.3222961e-04   5.1523524e-04   2.4522792e-04   1.2834027e-04   9.0155881e-05   5.5384758e-04   3.1605206e-04   2.8712591e-04   1.2557898e-04   6.8126328e-04   3.7774537e-04   5.4460840e-04   9.5218893e-05   3.1022288e-04   1.0200791e-03  -9.1029848e-05   1.3953028e-04   5.2039145e-04   3.4264906e-04   3.5539735e-04   7.8486098e-04   2.6566247e-04   3.2237079e-04   3.3974295e-04   7.8462559e-05   4.2394322e-04  -2.0878850e-05   5.3254946e-04  -2.6100726e-04   9.8472243e-05   2.4970630e-04   5.4973236e-04   3.3848980e-04
   9.5622573e-04   7.0203119e-04   4.4741706e-04   7.5843133e-04   5.7458493e-04   6.4064312e-04   5.8423501e-04   4.8361893e-04   7.4510730e-04  -5.0123699e-06   4.8283988e-04   1.5216123e-05   7.0100208e-04   6.2430027e-04   3.9446540e-04   3.7356964e-04   2.2537065e-04   4.4327267e-04   3.3440685e-04   6.2418731e-05  -1.9657713e-05  -3.9016730e-05   4.4358874e-04   1.6230937e-04   3.5909511e-04  -1.2950808e-05   4.4582353e-04   2.9400815e-04   4.6869024e-04   1.2260044e-05   1.3103522e-04   8.2468253e-04  -3.3045348e-04  -1.1686126e-04   2.4658701e-04   4.7358863e-05   3.5978251e-04   6.6242326e-04   2.3685083e-05   6.4748812e-05  -6.2029039e-06  -7.4262054e-05   1.2902856e-04  -2.2463761e-04   2.7029988e-04  -4.9636891e-04  -1.1306591e-04  -8.0087884e-05   1.6425115e-04   1.8264196e-05
   6.0487736e-04   3.6798368e-04   2.2129853e-04   5.6344667e-04   4.5962355e-04   6.4364087e-04   5.3609704e-04   4.0108719e-04   7.7683199e-04   2.3274641e-05   4.1254211e-04  -1.4886882e-05   6.9221354e-04   6.1352528e-04   4.1308353e-04   3.4751333e-04   1.5385420e-04   3.9784331e-04   4.7185985e-04   9.0605972e-05   7.9950878e-05   2.1789017e-05   4.5786597e-04   2.1905926e-04   1.4445565e-04  -4.0017025e-05   4.6970986e-04   4.0353290e-04   4.5775209e-04   8.3238781e-05   1.2697461e-04   8.1567001e-04  -1.7600683e-04   5.9254096e-05   3.6092559e-04   1.5567183e-04   4.6498879e-04   7.0189388e-04   4.0105719e-04   4.2385838e-04   3.8865212e-04   6.0221741e-05   2.8871640e-04   9.7340933e-05   5.5685197e-04  -5.2287773e-04   3.7331345e-05   1.3013526e-04   5.9093744e-04   3.5654329e-04
   9.7437756e-04   8.0789637e-04   4.2497917e-04   8.1808702e-04   6.0028851e-04   8.1068528e-04   7.3841249e-04   5.7576870e-04   8.4126904e-04   1.1212489e-04   4.9999048e-04   8.2729195e-05   7.2251016e-04   6.4221252e-04   5.0751469e-04   3.5181938e-04   2.1659667e-04   4.5546534e-04   4.1631761e-04   8.1725870e-05   9.5951975e-05  -6.2884960e-06   5.2383397e-04   2.2290989e-04   3.4352089e-04  -4.5771361e-05   4.2444112e-04   3.8515299e-04   4.4750556e-04   8.0993959e-05   1.4114025e-04   7.5972808e-04  -2.7028899e-04  -3.5788253e-05   3.5449379e-04   1.8628452e-04   3.3279700e-04   6.9960859e-04   1.6647491e-04   3.2557859e-04   9.1905720e-05  -2.4472358e-05   1.6890709e-04   5.3293446e-05   4.9994671e-04  -4.3642952e-04  -6.6596316e-05   1.2280226e-05   3.6980771e-04   1.3239306e-04
   7.0221955e-04   5.3093105e-04   2.1639053e-04   5.9756736e-04   3.6865493e-04   5.7549658e-04   4.4318027e-04   3.3225399e-04   5.2004051e-04  -7.7847020e-05   3.0497840e-04  -5.5218236e-05   5.1102956e-04   4.0485870e-04   2.9809767e-04   1.8457904e-04   1.0544220e-04   4.0570620e-04   1.3102430e-04  -1.1277122e-04  -9.1543923e-05  -1.7896252e-04   2.1583209e-04   2.9060817e-05   1.4753549e-04  -1.9969836e-04   3.4539544e-04   2.8816168e-04   3.9861331e-04  -6.8262380e-05  -8.2110957e-05   7.1876828e-04  -4.5456682e-04  -3.1200380e-04   1.3045561e-04  -1.8011573e-04   2.6631024e-04   5.9962919e-04   3.9796789e-05  -7.6151213e-05  -1.4175882e-04  -2.3932784e-04  -1.4258338e-05  -3.3705359e-04   1.3692700e-04  -7.3846331e-04  -1.7537399e-04  -2.1554921e-04   2.8901023e-04   5.0447241e-05
   6.2517083e-04   5.6548312e-04   1.7176074e-04   5.9464434e-04   4.1237476e-04   7.3501375e-04   5.4763543e-04   3.3356255e-04   7.2826870e-04   6.4443702e-05   3.2778291e-04   7.7054356e-06   5.4606254e-04   4.0262527e-04   3.0758092e-04   2.0767027e-04   1.3273577e-04   3.5706593e-04   3.1498770e-04   9.2914970e-06   7.1016366e-05  -3.9085000e-05   3.3015353e-04   1.1731756e-04   2.3181524e-04  -1.1896394e-04   3.1382494e-04   1.9288562e-04   3.8451800e-04   3.0941756e-05   1.1750489e-04   6.8593863e-04  -3.6382966e-04  -1.8012071e-04   2.5701526e-04   1.2430073e-04   5.0897739e-04   5.9905171e-04   2.8551198e-04   2.4832017e-04   3.2619428e-04  -3.6860429e-06   2.3070275e-04  -7.4143187e-05   4.0931546e-04  -3.9855804e-04  -6.4312902e-05  -8.9610636e-05   3.9162370e-04   1.8106069e-04
   6.7327812e-04   5.9519277e-04   1.8368609e-04   5.8316928e-04   3.5961808e-04   6.4323406e-04   5.3884729e-04   2.9512335e-04   6.1579508e-04   6.8765221e-05   3.0027563e-04   4.8449165e-05   5.0897588e-04   3.6629752e-04   2.7606470e-04   1.9177352e-04   2.4874450e-04   4.7548383e-04   3.6281793e-04   1.7777889e-05   4.3693384e-05  -6.4555272e-05   2.4110563e-04   7.2667688e-05   1.6042605e-04  -5.5327033e-05   2.7958240e-04   2.2279948e-04   4.4954172e-04  -3.4016291e-05   9.3536502e-05   7.8054698e-04  -4.0915719e-04  -2.3914491e-04   1.2274382e-04  -2.4544779e-05   2.9520286e-04   7.2732213e-04  -6.3190826e-05   1.6229281e-04   1.0481662e-04  -1.6223949e-04  -3.9000850e-05  -2.8951591e-04   1.3558286e-04  -6.5742218e-04  -1.1826467e-04  -2.4643206e-04   8.5084583e-05  -7.6854041e-05
   4.0487639e-04   2.6379002e-04  -1.5887503e-05   3.0462633e-04   8.4908301e-05   2.7753861e-04   1.6383812e-04   8.2829014e-05   2.8653120e-04  -1.2612359e-04   5.8637306e-05  -1.4298953e-04   2.8265850e-04   1.1846744e-04   9.9137083e-05   5.3022453e-05   2.9260601e-04   6.6630560e-04   1.7436960e-06  -1.7219230e-04  -1.2437844e-04  -3.0443023e-04  -6.0391453e-06  -1.3936119e-04  -5.4457552e-05  -2.1330579e-04   2.4796254e-04   3.1215543e-04   5.0643540e-04  -1.6766120e-04   1.2819399e-05   7.2942715e-04  -5.9051078e-04  -4.4389375e-04  -4.6691224e-05  -2.2427074e-04   4.5011516e-04   6.6428276e-04  -3.4739020e-05   9.9280514e-05   1.3016202e-04  -1.5133596e-04  -1.5604294e-04  -1.1537994e-04   1.9162943e-04  -6.8931218e-04  -1.1185511e-04  -2.0557587e-04   3.0682606e-04   1.0561127e-04
   5.2542920e-04   4.6302538e-04   1.1749373e-04   3.9557938e-04   2.1115178e-04   6.1665155e-04   3.8798992e-04   1.8847572e-04   6.3570932e-04   3.9856849e-04   2.1509369e-04   3.8802918e-05   3.6257578e-04   2.3023220e-04   1.8065852e-04   1.4170175e-04   4.2137079e-04   5.0624355e-04   3.3406098e-04   1.4702461e-04   1.0222212e-04   1.3671255e-04   2.4496485e-04   1.9884351e-04   1.9415196e-04  -8.5865671e-05   1.9485551e-04   2.4798402e-04   3.4006563e-04  -6.7567584e-05   8.9686800e-05   6.2221749e-04  -2.7418492e-04  -1.4873690e-04   1.3667748e-04   5.9561433e-05   2.9599600e-04   5.0499849e-04   1.7965274e-04   1.6312060e-04   2.5629278e-04   1.8504874e-05   1.5689558e-05  -1.0275869e-05   3.7065160e-04  -3.9975400e-04   3.3258399e-05  -1.4224101e-04   2.5278211e-04   8.8496934e-05
   3.9283599e-04   2.8522173e-04   2.4211460e-05   2.4116342e-04   1.0196321e-05   3.7499797e-04   1.4513795e-04   9.9743644e-05   4.5756288e-04   4.2581692e-04   1.8045762e-04  -6.1346549e-07   2.4054645e-04   1.0855395e-04   1.3023154e-04   1.1901567e-05   3.6404785e-04   3.9164175e-04   1.6390369e-04   7.2039264e-05  -1.5438686e-04   9.3183757e-05   5.3743421e-05   1.1858679e-04  -8.2552426e-05  -1.6343138e-04   9.3806477e-05   7.6291799e-05   2.0702304e-04  -1.0397231e-04   9.4568844e-05   5.4826599e-04  -1.7555169e-04  -1.9604959e-04   8.7931970e-05  -1.2487500e-04   2.1309964e-04   3.3662000e-04   4.4199111e-05  -6.3088669e-06  -1.1721895e-04  -3.6451038e-05  -1.2572370e-04  -1.4175010e-04   9.1207970e-05  -5.9360598e-04  -3.8098271e-05  -3.2988586e-04  -9.2381000e-05  -1.6537533e-04
   6.7432256e-06  -1.3683863e-04  -2.8548477e-04  -4.3610657e-05  -2.8297989e-04  -2.2248239e-05  -1.9816443e-04  -1.3921499e-04   1.8588055e-04   2.3913840e-04   4.8401780e-05  -1.2193849e-04   1.1333148e-04  -5.0488063e-05  -6.8886606e-05  -1.1557474e-04   5.0719664e-05   4.7621819e-05   1.8057167e-04   1.0394960e-04  -2.2956115e-04   2.6664563e-04   5.5249078e-05   1.9705188e-04  -9.1443708e-06  -1.7223656e-04   9.5521777e-05   1.3715660e-04   2.5018226e-05  -7.7992270e-05  -8.1172722e-05   3.1446404e-04  -1.0982659e-04  -1.4517324e-06   1.3151618e-04   9.5401490e-05   3.4419715e-04   1.2102749e-04   1.2285812e-04   1.6079124e-04   1.0646432e-04   2.0278241e-04   2.3921565e-04   4.1080079e-05   3.8783884e-04  -4.0595559e-04   2.5352335e-04  -7.9653200e-06   4.5991316e-04   1.8527632e-04
   4.3375339e-04   3.5509930e-04   7.8253011e-05   2.4018492e-04   2.0373034e-05   4.2213258e-04   1.9184759e-04  -2.2094506e-05   5.6819513e-04   7.5391849e-04   3.0448264e-04   2.0545823e-04   2.4024787e-04   1.7931618e-05   1.4585993e-04   2.2268148e-04   1.3385518e-03   1.5191035e-03   1.8148197e-04   6.0985662e-04  -6.3317950e-04   5.3219736e-04   4.4578217e-05  -2.5729960e-05   1.1982937e-04   2.4361862e-04   1.3763404e-04  -2.5226023e-05   1.1335941e-03  -2.8676807e-04   7.2107016e-04   1.3025801e-03  -1.8553397e-04  -3.8723123e-05   1.8766226e-05  -1.3218318e-04  -2.8269287e-05   1.4975043e-03  -1.8930316e-04  -5.7637903e-05   2.1219697e-05  -8.3136365e-06   1.4271421e-04  -3.0009024e-04   2.8553892e-05  -6.1211339e-04   2.2176272e-04  -1.5372619e-04  -4.1032228e-05  -1.1993159e-04
   1.0946667e-04  -1.2014117e-04  -5.8432797e-05  -1.6764933e-04  -2.9731862e-04   1.2827434e-05  -3.3264182e-04  -2.9346629e-04   2.1466550e-04   7.6549250e-04   1.1717584e-04   2.4024441e-04   7.6433389e-05  -2.7395762e-04  -1.0736710e-04   7.5373726e-05   1.4241777e-03   1.6390015e-03   7.6714270e-05   5.2174536e-04  -9.2276261e-04   3.5545940e-04  -2.4405929e-04  -1.4334575e-04   8.6960164e-05   3.7318012e-05  -5.8560741e-05  -3.1791072e-04   9.3958178e-04  -4.7318742e-04   4.4154344e-04   9.9010637e-04  -1.6802110e-04  -2.5943835e-04  -2.2487809e-04  -2.7694821e-04  -9.5768090e-05   1.0366477e-03  -3.3094472e-04  -2.4033354e-04  -2.0282992e-04  -1.6324031e-04  -9.7795302e-05  -4.2740704e-04  -1.5890766e-04  -9.7331498e-04   1.4971192e-04  -1.7439724e-04  -2.2339618e-05  -1.4317461e-04
   1.4425888e-04   8.5052692e-05  -3.8096172e-05   1.6618849e-05  -6.6924375e-05   2.7411428e-04   4.1019779e-05  -1.5289057e-04   5.5789325e-04   5.5914576e-04   2.6767908e-04  -4.2409811e-06   9.1018745e-05  -2.1702312e-04  -1.1302730e-04   6.7383495e-05   1.1515764e-03   1.2801536e-03   3.7275587e-04   6.3990895e-04  -5.9407600e-04   4.2950339e-04   4.0365867e-05  -7.1199056e-06   1.3625307e-04   2.5354445e-04  -9.0481726e-06  -1.8872779e-04   9.2781591e-04  -3.9246594e-04   5.4106233e-04   1.1256902e-03  -2.9876535e-05   1.6937200e-05  -3.4322376e-05  -8.3784260e-05  -3.0923602e-05   1.2407971e-03  -1.7196272e-04   9.8659548e-05  -2.5533733e-04  -7.9144284e-06   1.0069429e-04  -3.2087960e-04   1.4493163e-04  -7.6357520e-04   2.3932048e-04   5.6079093e-06   1.3849171e-04  -1.3412973e-06
   3.9354921e-04   2.3266755e-04   9.8784280e-05   1.2809082e-04   8.5864676e-06   2.3690963e-04   2.0051984e-05  -1.2187866e-04   4.5664664e-04   3.2512040e-04   2.5469888e-04   1.4212215e-04   1.6685030e-04  -1.2169561e-04   4.0563723e-06   3.7604987e-05   8.5629686e-04   9.2558441e-04   2.1143504e-04   5.4281024e-04  -4.4721746e-04   3.5199116e-04   7.3347430e-05   1.0445897e-04   2.4776493e-04   1.6447371e-04  -1.0067204e-04  -2.7659847e-04   7.2331040e-04  -3.8619328e-04   3.4688506e-04   9.2863693e-04  -2.0380870e-05   8.6407883e-05  -5.9579863e-05  -1.3338770e-04   1.9939287e-05   1.0267164e-03  -2.2785632e-04   1.9061797e-04   2.9481424e-04  -2.4731557e-05  -3.7708596e-06  -5.5818399e-04  -5.3803444e-05  -7.0249807e-04   1.3399891e-04  -1.0878002e-04  -1.3662103e-04  -2.0127768e-04
   2.1994782e-04  -1.4778212e-05  -5.7119432e-05  -1.8365885e-05  -1.5698018e-04  -8.8111519e-06  -2.0513019e-04  -2.4537707e-04   1.2687327e-04   4.8382510e-05   6.1322695e-05  -1.5364625e-05   3.8679613e-05  -2.1509919e-04  -1.6800620e-04  -5.4699358e-05   6.9234107e-04   8.7219570e-04   1.0203026e-04   3.8214089e-04  -4.4133328e-04   1.7642661e-04   1.1197057e-05   4.0325060e-05   2.0786838e-04   8.6836008e-05  -7.7240793e-06  -3.5319272e-06   7.0890650e-04  -3.4486785e-04   4.1585485e-04   9.9238462e-04  -2.6145201e-05   5.6837784e-05  -3.1681415e-05  -1.7879250e-04   5.2786625e-05   9.3900476e-04  -9.0011461e-05   2.2713283e-04   1.2650137e-04  -5.1060306e-06   1.3888738e-04  -7.4674244e-05   1.7884735e-04  -5.8975897e-04   2.4050727e-04   1.2371759e-04   2.5161172e-04   8.5316147e-05
   6.0575199e-04   4.5568548e-04   2.5999994e-04   3.2125093e-04   1.8140474e-04   4.3218286e-04   2.5650510e-04   1.0052269e-05   5.9741020e-04   4.5706137e-04   3.3962072e-04   3.0898338e-04   3.1822192e-04   3.0313373e-05   2.0253701e-05   1.0043841e-04   7.0751982e-04   6.8554631e-04   2.4482605e-04   5.6721119e-04  -2.5407999e-04   4.3092656e-04   1.9224765e-04   2.9194701e-04   1.4842133e-04   1.4867132e-04   1.0247155e-04  -1.4184912e-04   6.2702573e-04  -2.9862780e-04   4.3685827e-04   9.4529695e-04   1.8828273e-04   4.2946973e-05   7.6630116e-05   2.9620713e-05   2.1469723e-04   8.2770060e-04  -1.2276239e-04   1.4705936e-04  -9.1453301e-05   5.5849021e-05   1.8692551e-04  -1.0945163e-04   1.8626693e-04  -6.4637361e-04   2.3282132e-04   4.6632416e-05   1.4719652e-04   1.0073820e-04
   4.8171953e-04   2.7133612e-04   1.8698853e-04   2.0726262e-04   5.8062767e-05   2.4410999e-04   6.3143671e-05  -1.1044922e-04   3.8064702e-04   4.6243877e-04   2.6377823e-04   2.2906747e-04   1.9416759e-04  -3.1218857e-05   1.0108299e-05   4.0102903e-05   5.4326875e-04   6.0492317e-04   1.3397446e-04   3.9244385e-04  -4.1232706e-04   3.1986582e-04   1.2622491e-04   2.0267970e-04   1.3689054e-04   1.4790728e-06   2.6470547e-05  -2.9613600e-05   5.3522177e-04  -3.3633818e-04   2.6777989e-04   7.3794537e-04   3.3374115e-05  -9.4017967e-05  -8.7500513e-05  -6.0076880e-05   5.9089096e-05   6.9157802e-04  -9.8110773e-05  -3.9401013e-05   1.2104063e-05  -5.6556462e-05   7.0844508e-05  -3.9450513e-04   8.4377469e-05  -8.7146432e-04   1.7858091e-04   2.8912284e-05   2.1171603e-04   8.5486063e-05
   5.5682519e-04   4.0170067e-04   2.7096918e-04   3.0413870e-04   1.8450606e-04   3.7080495e-04   2.7984602e-04   4.6800287e-05   6.1060191e-04   7.9306593e-04   4.0149258e-04   3.5329402e-04   3.9695171e-04   1.0073563e-04   7.6313845e-05   1.3945227e-04   6.3570961e-04   5.7007564e-04   2.6535528e-04   5.7587569e-04  -1.9241910e-04   4.8371233e-04   3.2631733e-04   4.3146629e-04   2.7083978e-04   1.7104148e-04   1.3858538e-04   7.0788890e-05   5.3934677e-04  -1.7842615e-04   4.4950910e-04   8.8452932e-04   2.5997002e-04   2.1712261e-04   1.2954822e-04   1.0985050e-04   3.0663313e-04   6.4314809e-04  -2.8219874e-05   2.8691484e-04   1.4729380e-04   8.7419859e-05   3.3296799e-04  -1.9355796e-04   3.6201935e-04  -4.1486046e-04   2.4736996e-04   5.1928324e-05   2.0632574e-04   1.6975938e-04
   5.9276720e-04   3.6421741e-04   2.9736586e-04   2.9809802e-04   1.6141450e-04   3.6040586e-04   1.9149290e-04   2.8591119e-05   5.3950184e-04   5.9183105e-04   3.5230137e-04   2.8023490e-04   3.3625297e-04   1.2995323e-04   1.0828398e-04   1.3552855e-04   5.6115264e-04   5.2776909e-04   2.4393525e-04   4.7159003e-04  -2.7276293e-04   4.0831120e-04   1.9843077e-04   3.3666033e-04   2.2789954e-04   7.9767502e-05   2.0840979e-04   2.3777076e-05   5.4303778e-04  -1.9321209e-04   4.4132373e-04   7.9801126e-04   1.6358515e-04   8.9249916e-05   1.0847245e-04   8.5379739e-05   2.3210752e-04   6.2587776e-04   1.0428831e-04   1.0531765e-04  -3.9632840e-04  -3.0328521e-05   1.1439199e-04  -2.1239006e-04   1.9080620e-04  -3.9493258e-04   1.1441697e-04  -1.1685810e-04  -3.4280569e-05  -5.1868061e-05
   2.8249933e-04   3.1120812e-06   8.2637634e-05   6.3308820e-05  -2.2645063e-05   2.4635267e-05  -4.7396414e-05  -6.3789586e-05   1.9796095e-04   4.4642456e-04   2.0237810e-04   1.7095213e-04   2.8790638e-04   7.7496705e-05   9.7300099e-06   1.1532260e-04   5.2496744e-04   5.2730337e-04   1.8566265e-04   4.5265572e-04  -1.8011100e-04   4.0163539e-04   2.3331925e-04   3.6878212e-04   2.9638066e-04   9.4349183e-05   2.2101765e-04   3.1729633e-04   5.9037475e-04  -1.2906533e-04   3.7194847e-04   8.3664811e-04   3.5206680e-04   2.2618030e-04   2.3195526e-04   1.1925672e-04   3.6148072e-04   7.2115334e-04   7.7076911e-05   1.7438996e-04   8.1430007e-05   3.9164413e-05   2.2656054e-04  -1.2093284e-04   3.3458366e-04  -4.5776190e-04   2.7754068e-04   8.8749395e-05   3.9208267e-04   2.4760704e-04
   7.5858878e-04   5.4891285e-04   4.3497465e-04   4.4563206e-04   3.4193901e-04   5.2065885e-04   3.6193544e-04   1.7891693e-04   6.0100335e-04   7.4989483e-04   4.2161689e-04   4.2104666e-04   4.8029120e-04   2.4031411e-04   3.2918592e-04   2.4907332e-04   5.3673639e-04   5.2391388e-04   3.6879722e-04   4.8718543e-04  -1.1108870e-04   5.0375419e-04   2.2261855e-04   4.3964904e-04   3.0453136e-04   7.2985371e-05   2.7617460e-04   3.0083107e-04   5.7350803e-04  -8.1768856e-05   3.6999845e-04   8.0148253e-04   1.4997940e-04   1.4635030e-04   2.8950869e-04   8.9641188e-05   4.1967395e-04   7.1073120e-04   1.3879797e-04   2.3340726e-04  -4.7125908e-05   6.5637432e-05   1.2519163e-04  -4.6200705e-05   3.4108729e-04  -4.8455369e-04   2.0431944e-04   3.5667144e-05   2.5136635e-04   6.5505286e-05
   5.6730083e-04   3.1253207e-04   3.1013446e-04   3.1019319e-04   2.0483225e-04   2.6766353e-04   1.8782208e-04   1.0408617e-04   3.9055833e-04   5.9770385e-04   2.8556050e-04   3.2558053e-04   3.5477406e-04   1.9388962e-04   2.1167869e-04   1.7330282e-04   4.1508884e-04   5.0905056e-04   7.0901537e-05   2.6859075e-04  -2.8013519e-04   2.5513192e-04   1.3400291e-04   2.6685890e-04   1.4252814e-04  -3.3759672e-05   2.3422844e-04   4.1672285e-04   5.5604475e-04  -1.5323069e-04   1.2747048e-04   7.4935053e-04   2.7971923e-06  -5.2255553e-05   1.2616417e-04  -8.8077126e-05   3.2996797e-04   6.7547843e-04   1.4342726e-05   1.2787798e-04  -7.1694267e-05   3.4004912e-05   1.5921185e-04   7.2689603e-05   2.7405348e-04  -4.9507979e-04   1.7142930e-04   6.0937648e-05   3.3821893e-04   1.3069330e-04
   7.2428503e-04   5.6159368e-04   4.6833098e-04   5.0111930e-04   4.1033086e-04   5.7331962e-04   4.8352985e-04   3.4208968e-04   6.4953155e-04   8.9655590e-04   4.4180802e-04   5.3259934e-04   5.7889521e-04   3.9915249e-04   3.2744909e-04   3.4290762e-04   5.5867172e-04   5.3475465e-04   4.2718768e-04   5.2466261e-04   1.0123671e-04   5.2377494e-04   3.1579929e-04   5.3121243e-04   4.7222659e-04   1.4891636e-04   3.7479770e-04   3.6787865e-04   5.6055561e-04   5.8425918e-05   4.3589546e-04   8.5991155e-04   2.2871059e-04   2.1347539e-04   3.9505615e-04   1.2621810e-04   3.4275238e-04   6.9128891e-04   2.3862396e-04   2.3031377e-04   2.0240217e-04   1.5100387e-04   2.1966318e-04   1.4235305e-04   4.1902676e-04  -3.2664192e-04   2.2776895e-04   6.9765600e-05   3.3301482e-04   2.9830000e-04
   7.6189527e-04   5.3449604e-04   4.8886717e-04   4.9346912e-04   3.9629219e-04   5.2771572e-04   4.1556524e-04   2.8026599e-04   6.1142066e-04   8.3758397e-04   4.1078584e-04   5.1800191e-04   5.3892366e-04   4.1983955e-04   3.7254134e-04   3.1453272e-04   5.0759834e-04   5.1389163e-04   2.5170494e-04   3.6979892e-04  -9.6831968e-07   4.0425066e-04   2.6593395e-04   4.4869518e-04   3.6141442e-04   7.6616336e-05   4.1983425e-04   3.7123117e-04   6.0199841e-04   5.3243566e-06   3.0066556e-04   7.9074275e-04   7.7953497e-05   1.2753668e-04   1.6419750e-04   5.1583869e-05   3.9357448e-04   6.2894105e-04   1.4985161e-04   1.2859519e-04   1.7205764e-04   9.9062017e-06   7.4907301e-05  -1.2104887e-04   1.5280760e-04  -6.3211413e-04   7.3849384e-05  -1.3449925e-04   3.5827939e-05  -4.7248991e-06
   3.6039422e-04   1.1860441e-04   2.2623292e-04   2.0179912e-04   1.5580593e-04   1.6843512e-04   8.7289111e-05   2.1194477e-04   3.4381248e-04   6.9354399e-04   2.3145694e-04   3.9574597e-04   4.4381409e-04   3.1782355e-04   2.2541692e-04   2.6843688e-04   4.5928315e-04   4.8080820e-04   3.3047039e-04   3.5259544e-04   1.0506405e-04   3.9880877e-04   3.2185359e-04   4.8020060e-04   3.9894620e-04   5.1052521e-05   4.7720675e-04   5.1570509e-04   5.6831463e-04   7.5736323e-05   2.6538942e-04   7.1999122e-04   2.9893214e-04   2.0013726e-04   3.3714177e-04   2.2266133e-04   4.4944006e-04   6.5271446e-04   2.4850419e-04   3.6645317e-04   2.2585639e-04   1.2613641e-04   2.1995134e-04   2.2106549e-04   4.7508872e-04  -2.9231695e-04   2.5046591e-04   8.3203959e-05   4.8196063e-04   4.0337208e-04
   8.1781595e-04   6.8534189e-04   5.5895612e-04   5.8703701e-04   5.0640322e-04   6.4455502e-04   5.1978126e-04   4.3785764e-04   7.3207665e-04   1.0290000e-03   4.7071627e-04   6.6332758e-04   5.7941757e-04   5.4609124e-04   3.7272865e-04   3.7684230e-04   4.8366925e-04   4.9520459e-04   3.3176085e-04   3.8984037e-04   2.4876348e-04   4.5642536e-04   2.4084988e-04   5.8125833e-04   3.4101441e-04   7.7782337e-05   4.3961307e-04   5.3782325e-04   6.0105196e-04   1.0965535e-04   2.5743031e-04   7.8708649e-04   1.1220450e-04   3.0679844e-04   3.5312452e-04   2.2741481e-04   4.7476310e-04   6.4290524e-04   2.9270857e-04   2.2171513e-04   3.9199473e-05   1.2439452e-04   1.8967355e-04  -1.7601273e-04   4.0728936e-04  -2.4346187e-04   1.6876537e-04   8.0091775e-07   3.3877150e-04   2.1727174e-04
   5.8083108e-04   4.4269988e-04   4.0339198e-04   4.3124816e-04   3.3524635e-04   4.3024108e-04   3.0915704e-04   3.4155222e-04   4.4188177e-04   8.7728602e-04   3.3301185e-04   5.4574443e-04   4.3669221e-04   3.7727904e-04   3.5347076e-04   2.5770348e-04   3.6650084e-04   4.2626727e-04   1.5843660e-04   1.7862231e-04   1.2104335e-04   2.9993540e-04   6.5141678e-05   4.8782790e-04   3.2445794e-05  -6.0759543e-05   3.0964304e-04   5.1803573e-04   5.4918241e-04   9.8292703e-06   9.8847777e-05   5.6778517e-04  -7.8068137e-05  -3.3725017e-05   7.9979778e-05  -1.3481214e-04   3.0985606e-04   5.8037409e-04   4.5639252e-05  -1.3164271e-05   8.9137429e-05  -4.6270761e-05   6.6128363e-05  -2.1616412e-05   2.7814347e-04  -4.0257978e-04   1.4009523e-04  -9.6783013e-05   3.9933287e-04   1.4980805e-04
   6.4789352e-04   6.1930745e-04   4.5179043e-04   5.4674962e-04   4.3258443e-04   6.4201228e-04   4.6929895e-04   4.0010916e-04   6.1004132e-04   1.0921051e-03   4.2116130e-04   6.8773585e-04   5.8711303e-04   4.6834251e-04   3.5358706e-04   3.5431265e-04   4.5416225e-04   4.4243221e-04   3.4364854e-04   3.3657809e-04   4.3932773e-04   4.1706252e-04   2.4601119e-04   6.2829664e-04   3.0594942e-04   5.8995040e-05   4.7155010e-04   5.6792068e-04   6.3563179e-04   1.6161354e-04   2.3297308e-04   6.9769769e-04   4.8353933e-05   2.4653733e-04   3.2415998e-04   4.8474689e-05   5.3325755e-04   6.3889049e-04   2.6363076e-04   2.5342446e-04   1.3090257e-04   7.0206130e-05   1.3209193e-04   6.9867194e-05   3.4339717e-04  -3.5041873e-04   1.4584372e-04  -8.9577443e-05   3.3926373e-04   2.1300286e-04
   6.4407231e-04   5.4773543e-04   4.2538400e-04   4.8951549e-04   4.0291628e-04   5.0699624e-04   3.9541372e-04   4.1942589e-04   6.0009706e-04   1.0347450e-03   3.9189626e-04   6.8831077e-04   5.3748960e-04   4.6912604e-04   3.7519605e-04   3.2160708e-04   4.0882552e-04   4.7167513e-04   1.8880336e-04   2.0484126e-04   3.8721488e-04   2.8778825e-04   1.6516545e-04   5.6803878e-04   4.4738906e-04   2.4222907e-05   4.5874072e-04   5.2088813e-04   5.7288888e-04   1.1497221e-04   1.7281951e-04   6.4395083e-04   3.5411660e-05   8.9509354e-05   2.5453107e-04   4.6494686e-05   4.9970805e-04   5.7257334e-04   1.2712157e-04   1.3839114e-04   6.5203909e-05  -4.6674497e-05   3.8158181e-05  -1.8213145e-04   1.3431796e-04  -4.2178502e-04   3.0359666e-05  -2.3834950e-04   5.4487145e-06  -6.6885448e-05
   2.7902305e-04   1.5446042e-04   1.4350847e-04   2.1603408e-04   1.4064448e-04   1.7210635e-04   6.2921557e-05   2.1706181e-04   1.7045460e-04   7.5965776e-04   1.4893591e-04   4.8781640e-04   2.9156348e-04   2.4534154e-04   1.9504523e-04   1.8297849e-04   2.6732590e-04   4.3293386e-04   1.5067972e-05   8.3952946e-05   3.9757072e-04   2.1270927e-04   1.0466277e-04   4.9505074e-04   1.9853705e-04  -1.0432404e-04   3.8851280e-04   6.8208633e-04   6.3533447e-04   1.5930664e-04   9.7493743e-05   6.0915621e-04  -3.4785618e-05   8.6412925e-05   2.6787390e-04   1.2304774e-04   5.8247155e-04   6.3355267e-04   3.0925020e-04   3.2318468e-04   3.1951411e-05  -3.5934761e-05   1.7116816e-05   8.9384965e-05   2.8120363e-04  -2.9307531e-04   1.4173469e-04  -1.0803714e-04   3.7361766e-04   2.7707216e-04
   6.4961758e-04   6.6205376e-04   4.1886774e-04   5.8186892e-04   4.7541346e-04   6.6501682e-04   5.4341543e-04   5.0789601e-04   6.5645360e-04   1.1405660e-03   4.1536152e-04   7.9106726e-04   5.2815035e-04   4.6916996e-04   4.6858646e-04   3.2058844e-04   2.9694824e-04   4.2690858e-04   2.0808550e-04   1.7495379e-04   5.9682265e-04   3.6759354e-04   1.8311568e-04   6.5631384e-04   3.3819652e-04  -1.2345008e-05   3.9433964e-04   5.9259753e-04   6.5961468e-04   1.5735874e-04   1.5574874e-04   5.9039728e-04  -1.3508745e-04   9.6336844e-05   2.6969623e-04  -4.9023736e-05   6.0544146e-04   6.1512808e-04   2.0042353e-04   1.9505237e-04  -1.6641355e-04   1.4644199e-05   1.9582979e-04   1.9713867e-04   3.6061459e-04  -3.6608067e-04   1.2846915e-04  -1.5519391e-04   2.1360425e-04   8.6228640e-05
   4.6061465e-04   4.5176726e-04   2.8063726e-04   4.1266592e-04   3.1220174e-04   4.4422428e-04   3.0004958e-04   2.8718641e-04   3.7759211e-04   9.6121442e-04   2.8490045e-04   6.9251802e-04   4.4553221e-04   3.4965164e-04   3.3708775e-04   2.1299123e-04   1.5703219e-04   3.5480864e-04  -2.4668354e-05   1.6052190e-05   4.7580371e-04   1.8424657e-04   4.1188501e-05   5.3480471e-04   2.2448022e-04  -1.5850145e-04   3.4165027e-04   5.7789974e-04   6.1235944e-04   6.9019348e-05  -9.4998813e-06   5.0658936e-04  -2.7543097e-04  -2.0283587e-04   1.1897569e-04  -6.5924054e-05   4.4543334e-04   5.8214698e-04  -1.0474400e-04  -8.4065017e-05  -4.1764629e-06  -1.4223497e-04  -1.0864797e-04  -3.2978761e-04   4.7872221e-05  -6.4760610e-04  -4.5287932e-05  -4.1073840e-04  -8.3913428e-06  -1.6290466e-04
   2.8861332e-04   3.8468480e-04   2.0522262e-04   3.8911038e-04   3.1186195e-04   5.5221724e-04   4.1706281e-04   3.5053084e-04   5.7646667e-04   1.0565453e-03   3.0184429e-04   7.3554524e-04   4.6492225e-04   3.4347241e-04   3.9634045e-04   2.1879922e-04   1.8874079e-04   3.3064894e-04   1.6771416e-04   1.0363109e-04   6.8418711e-04   2.9709816e-04   1.7914071e-04   5.9377187e-04   1.7927842e-04  -4.8247493e-05   3.4490714e-04   8.2094374e-04   5.8696157e-04   1.5474090e-04   7.1681650e-05   5.9533975e-04  -1.9615768e-04  -3.2983207e-05   2.9882963e-04   1.5335339e-05   5.6174229e-04   6.7775178e-04   1.7696616e-04   2.0763458e-04   7.2904419e-05   4.5533074e-05   1.9097792e-04   1.5475166e-04   5.0643604e-04  -4.1672256e-04   1.4682465e-04  -9.9270830e-05   2.6751051e-04   6.2206811e-05
   5.1006937e-04   5.7051692e-04   2.8894836e-04   5.1072205e-04   3.7777590e-04   5.4255326e-04   4.7797227e-04   4.2846493e-04   5.9084746e-04   1.0800576e-03   3.7350759e-04   8.1173523e-04   5.3455448e-04   3.9968386e-04   3.5680988e-04   2.2070007e-04   1.7150756e-04   3.2015456e-04   1.5889516e-04   5.7080706e-05   7.5386971e-04   3.2143609e-04   8.2147330e-05   6.7192019e-04   1.1752337e-04  -4.3815890e-05   3.2949561e-04   5.9338025e-04   5.6375668e-04   1.1018489e-04  -2.4792751e-05   5.3444132e-04  -2.5440866e-04  -1.1858471e-04   1.6977043e-04  -4.8842330e-06   4.4134422e-04   6.4934121e-04   2.3018225e-04   6.6619425e-05   2.6020143e-04  -4.5763234e-05   3.7644735e-05   6.7334760e-05   1.3916669e-04  -5.1124237e-04   3.7202597e-05  -3.3564988e-04   1.2827753e-05  -9.2644732e-05
   2.3848188e-04   2.7316934e-04   7.8865691e-05   2.9770611e-04   1.4493220e-04   2.6523895e-04   1.4015650e-04   2.0409489e-04   2.5384920e-04   7.9637644e-04   1.5874923e-04   6.2769855e-04   2.8631068e-04   1.9623483e-04   1.5915700e-04   5.5301094e-05   1.3916890e-05   2.8943841e-04  -1.8293325e-04  -2.0528249e-04   5.2978186e-04   7.7897668e-05  -3.4898527e-05   4.3196601e-04  -3.7259626e-05  -2.2772713e-04   2.5809792e-04   6.1853713e-04   5.4922019e-04  -1.4060907e-05  -2.1639456e-05   4.5815416e-04  -3.9923799e-04  -2.7569980e-04  -3.2654894e-05  -1.6678822e-04   4.8868346e-04   5.7908916e-04   1.6928267e-05  -1.9519287e-04  -1.0551631e-04  -4.8258647e-05   2.1826845e-05  -1.1429603e-04   2.6431514e-04  -6.5302127e-04   4.8760867e-05  -2.6725986e-04   2.1772024e-04  -7.9788006e-05
   3.7514674e-04   5.3256314e-04   1.6984905e-04   4.5247423e-04   3.2610566e-04   6.2774925e-04   4.3030476e-04   3.2811784e-04   5.6293915e-04   1.0536821e-03   3.0089129e-04   7.7296630e-04   4.4403211e-04   2.9975511e-04   2.1638736e-04   1.3866981e-04   1.1665183e-04   2.9430905e-04   1.7478356e-04   4.0133993e-05   8.0419175e-04   2.7335950e-04   1.2107936e-04   6.3716335e-04   2.9774988e-04  -7.8502992e-05   2.8257331e-04   5.4979615e-04   5.6895049e-04   8.5055406e-05   3.2984171e-05   5.2215107e-04  -2.2815660e-04  -1.6723781e-04   1.9916748e-04   6.0896004e-05   4.7690424e-04   6.6180312e-04   5.1223484e-05   1.2342316e-04   1.2357207e-04   5.8936832e-05   1.4093943e-04   7.5981290e-05   2.4741789e-04  -4.6798657e-04   6.5086017e-05  -2.8280684e-04   1.3990841e-04  -6.5221939e-05
   3.2560489e-04   4.6513532e-04   1.1843748e-04   4.0154808e-04   2.3952723e-04   4.8810465e-04   3.6288681e-04   2.9763018e-04   4.3796224e-04   9.3342824e-04   2.3824126e-04   7.1008870e-04   3.6889000e-04   2.0077630e-04   1.3708741e-04   5.8994243e-05   6.9515299e-05   2.6773690e-04  -9.5414434e-05  -1.3966364e-04   6.5124489e-04   1.2210925e-04   1.5219917e-05   5.6024129e-04   5.0811228e-05  -1.3917408e-04   1.5097251e-04   4.5734877e-04   4.4843182e-04   9.5700698e-06  -6.7761204e-05   4.5631264e-04  -3.5947503e-04  -2.9722688e-04   1.7804481e-05  -1.1476820e-04   2.7975737e-04   5.6726730e-04  -6.1191167e-05  -1.1792613e-04  -1.6792479e-04  -1.2779266e-04  -8.8344997e-05  -2.1344396e-04  -5.5289634e-05  -7.0099189e-04  -7.3253723e-05  -4.6064775e-04  -2.2795392e-04  -3.1978509e-04
  -4.6128302e-05   4.1633884e-05  -1.6481748e-04   1.1223886e-04  -4.7153517e-05   9.9154568e-05  -3.8125763e-05   5.5379147e-05   5.8429541e-05   6.2577415e-04  -1.5420097e-05   4.8481973e-04   1.2239910e-04  -3.7153274e-07  -1.3476791e-06  -9.3267859e-05  -1.8149269e-05   2.5286005e-04  -7.5098586e-05  -2.5939525e-04   6.0243584e-04   2.4319436e-06   8.4742333e-06   4.5808713e-04   3.9845512e-05  -1.5464304e-04   1.1919335e-04   5.6543329e-04   4.9720117e-04   2.6275795e-05  -2.6589893e-05   4.4834049e-04  -3.3701290e-04  -3.9116488e-04  -3.5146193e-05  -3.3007665e-05   4.5188700e-04   6.2200468e-04   6.2189836e-05  -3.0460473e-05  -2.3235909e-04  -4.3658667e-05  -2.9694233e-05  -1.4669819e-04   1.6648465e-04  -5.5795797e-04   1.1991712e-05  -2.7009880e-04   1.4957874e-04  -9.3073999e-05
   2.7249104e-04   4.7800064e-04   5.6397297e-05   3.7550647e-04   1.9054816e-04   4.6120235e-04   3.4476919e-04   1.9304962e-04   4.0056408e-04   8.7887287e-04   1.7541822e-04   6.7479553e-04   3.1127062e-04   9.6824013e-05   9.5283300e-05  -2.5195322e-05   9.5688440e-05   3.0490014e-04  -6.4271888e-05  -1.5879484e-04   6.8028428e-04   1.8266443e-05   2.6471800e-05   5.0096464e-04   2.6274886e-04  -1.2720187e-04   1.8830129e-04   4.4498211e-04   4.9381738e-04  -2.3198061e-05   5.8794925e-05   5.2602420e-04  -3.8081993e-04  -3.0213970e-04   7.3897660e-05  -1.0765172e-04   4.4873773e-04   6.1241200e-04   1.6298324e-04  -1.3598591e-05  -1.6662524e-04  -8.9041794e-05  -8.4026709e-05  -1.3516140e-04   6.9783259e-06  -7.0679322e-04  -4.5385830e-05  -3.5269611e-04  -1.0587714e-04  -1.6086113e-04
   6.7516274e-05   2.0366114e-04  -1.1868970e-04   1.6941915e-04  -4.3537439e-06   2.2762116e-04   5.7357043e-05   6.7100424e-05   1.3895684e-04   6.7859888e-04   3.0770931e-05   5.1559671e-04   1.1099865e-04  -2.8323380e-05  -4.6124456e-05  -1.1537210e-04   2.4040124e-05   2.5991612e-04  -2.9438306e-04  -3.2431647e-04   5.2734022e-04  -1.3304740e-04  -2.0915232e-04   2.9428580e-04  -7.1494673e-05  -2.7317778e-04   6.4703476e-05   4.0669428e-04   4.4961035e-04  -1.3316708e-04  -1.2660012e-04   4.3920387e-04  -6.7026616e-04  -6.6048204e-04  -1.3989498e-04  -3.2841956e-04   3.4513258e-04   5.9675018e-04  -1.3021419e-04  -3.2928027e-04  -3.5793349e-04  -3.2100471e-04  -3.9969609e-04  -5.7640643e-04  -2.5617250e-04  -8.2621805e-04  -1.7858922e-04  -4.9001595e-04  -1.0437972e-04  -3.3945564e-04
   4.9912029e-05   2.9298861e-04  -1.0531364e-04   2.1831992e-04   8.1883554e-05   4.2028687e-04   2.2638067e-04   1.0627726e-04   3.2886863e-04   8.0256420e-04   9.6874865e-05   5.6971668e-04   2.2472635e-04   2.5225008e-05  -3.2804135e-05  -8.2142782e-05   2.6935255e-05   2.5556647e-04  -7.0156333e-05  -1.5939085e-04   7.1563991e-04   4.6275647e-05   4.8387337e-05   4.7792372e-04   1.6892214e-04  -1.5534311e-04   1.5613419e-04   5.0439505e-04   5.1687623e-04  -4.4393655e-05   8.0343205e-05   5.4776017e-04  -2.6879716e-04  -3.8799530e-04   6.5730099e-05   1.3093647e-07   4.9606879e-04   6.9611502e-04  -1.4067745e-04  -2.5972959e-06  -8.8290297e-05  -1.1231863e-04   7.7421224e-05  -1.7361663e-04   8.2117956e-05  -7.4369734e-04  -2.8407887e-05  -3.5495311e-04  -6.2563799e-05  -2.0141862e-04
   1.7720852e-04   3.3248935e-04  -5.6580102e-05   2.5670719e-04   7.2555129e-05   3.3566513e-04   2.4218687e-04   1.0970889e-04   2.6872833e-04   7.6369342e-04   1.0948447e-04   6.0047314e-04   2.0361260e-04  -4.7131038e-05  -2.0658688e-05  -9.7475699e-05   3.3745615e-05   2.6930479e-04  -1.3294317e-04  -1.9606804e-04   6.7396404e-04  -2.6028838e-05  -8.7162836e-05   4.3661805e-04   6.0025741e-05  -1.7272877e-04   1.0017705e-04   3.6109582e-04   4.8363610e-04  -1.3646943e-04  -8.9508703e-06   5.1991432e-04  -3.3209566e-04  -4.7373617e-04  -4.0915955e-05  -1.2050579e-04   4.5594087e-04   6.4945442e-04  -1.5407521e-04  -1.5332818e-04  -1.7184672e-04  -1.8846341e-04  -2.1018434e-04  -3.1092658e-04  -1.1790198e-04  -9.6446986e-04  -1.1723831e-04  -4.8098256e-04  -2.8691406e-04  -4.8715458e-04
  -5.8827791e-05   1.6071581e-05  -2.4654405e-04   4.0840525e-05  -1.3456085e-04   3.7704725e-05  -8.9392059e-05  -7.7148979e-05  -1.6594675e-05   4.8498233e-04  -8.0499842e-05   4.1564321e-04  -2.2550816e-05  -1.9691286e-04  -1.1233860e-04  -2.1679998e-04  -8.8430199e-05   2.4602891e-04  -4.7549210e-04  -4.4322509e-04   4.6977520e-04  -2.4433329e-04  -1.9517423e-04   3.0809917e-04  -1.8264577e-04  -2.9802002e-04   2.4330791e-06   4.7641463e-04   5.0119252e-04  -1.5520597e-04  -1.2405618e-04   4.4239467e-04  -4.5575472e-04  -4.5947859e-04  -1.3395614e-04  -6.7872388e-05   4.9959513e-04   6.9022714e-04   4.9525908e-05  -3.3515931e-05  -2.6778676e-04  -1.9714926e-04   1.4405034e-05  -4.5548505e-04  -2.0048161e-05  -8.5480342e-04  -7.1883660e-05  -3.4914777e-04   3.2905617e-05  -3.5356553e-04
   2.9069986e-04   4.4589560e-04   1.1083193e-05   3.2258491e-04   1.7087764e-04   4.6342902e-04   3.8584406e-04   1.1606338e-04   4.9600442e-04   8.5365737e-04   1.6123037e-04   6.7588384e-04   2.5651907e-04  -3.6034028e-06  -8.2143561e-05  -2.8295026e-05   7.5640877e-05   2.7674920e-04  -9.5456278e-05  -1.0614115e-04   7.5424009e-04   2.3821825e-05   1.2004572e-05   5.3382968e-04  -5.0034803e-05  -8.9074354e-05   1.2919566e-04   2.4963499e-04   4.7703707e-04  -1.5482452e-04  -4.3711561e-06   6.2242232e-04  -1.9606431e-04  -4.4963518e-04   5.7264471e-05  -1.0164220e-05   4.1037289e-04   7.2103721e-04  -1.4883932e-04  -8.7939043e-05  -1.0506035e-04  -1.4641350e-04   7.0675836e-05  -2.6060294e-04   4.5183526e-05  -7.2914304e-04  -2.2761562e-05  -3.8712463e-04  -8.1793614e-06  -3.0613085e-04
   2.5303819e-04   3.0097485e-04  -2.2757698e-05   2.4491813e-04   6.3656487e-05   2.3371768e-04   1.9976347e-04   1.9973251e-05   2.1471176e-04   6.7810877e-04   9.3274000e-05   5.8815640e-04   1.2806298e-04  -5.9861286e-05   1.4996809e-05  -1.0693272e-04   2.1389760e-05   2.5035258e-04  -2.7878108e-04  -2.3125889e-04   6.2978460e-04  -5.2803985e-05  -8.3912317e-05   4.2635284e-04  -2.8956452e-04  -1.8725233e-04   2.0068537e-05   3.0477135e-04   5.1244744e-04  -1.9379519e-04  -2.8646415e-05   5.2382465e-04  -4.1111044e-04  -5.5426644e-04  -1.4843704e-04  -3.3249112e-04   2.0649884e-04   6.3550653e-04  -3.0463454e-04  -3.3320644e-04  -1.7576020e-04  -2.7012901e-04  -2.1322565e-04  -7.6038891e-04  -2.6113138e-04  -1.1877427e-03  -1.6561786e-04  -5.7003286e-04  -3.0339658e-04  -5.8217149e-04
   2.8582830e-05   6.2788640e-05  -1.1177823e-04   1.4943692e-04   6.0747785e-05   2.6365404e-04   2.3176706e-04   3.5248184e-05   3.1558462e-04   7.1940984e-04   9.3621711e-05   6.0005585e-04   1.7153345e-04  -4.6996633e-05  -5.9697832e-05  -5.7199082e-05   5.4764812e-05   2.4260177e-04  -6.4211017e-05  -1.2818142e-04   7.2798377e-04   1.7611286e-05  -1.6071055e-05   5.0010305e-04   4.2977714e-05  -7.9023572e-05   1.1967910e-04   3.6931038e-04   5.2549434e-04  -1.4755038e-04   1.0358441e-04   6.2118273e-04  -3.3595643e-04  -3.2801830e-04   5.9337195e-05   3.9412775e-05   3.4214344e-04   6.9450797e-04   1.5852602e-06   1.1543975e-05   1.0049510e-04  -5.1633142e-05  -3.7807764e-05  -7.3737890e-04   1.1911139e-04  -7.3052139e-04   2.2301927e-05  -2.3906562e-04   1.2375123e-04  -1.6128786e-04
   4.4656941e-04   4.4575846e-04   1.3322281e-04   3.3750301e-04   2.1105944e-04   3.8687992e-04   3.7034048e-04   1.8490135e-04   3.3121335e-04   7.6621003e-04   1.8189124e-04   6.9311197e-04   2.2539159e-04   7.4331096e-05   2.8049208e-05   9.3677681e-06   1.2039929e-04   2.6346659e-04  -4.7425910e-05  -8.2889470e-05   7.3021016e-04   6.5243548e-05   8.2179999e-05   5.5667688e-04   1.3618253e-04  -1.2234021e-04   1.5046791e-04   1.9611341e-04   4.6635777e-04  -1.4328751e-04   1.5801887e-04   5.5477617e-04  -2.1069103e-04  -3.3143893e-04   1.3451219e-06   7.1681847e-05   3.4697985e-04   6.1170012e-04   1.1555845e-06  -5.0001829e-05   3.2613540e-04  -8.6688611e-05  -1.1896683e-05  -4.2293422e-04  -1.0163483e-05  -7.9732551e-04  -6.5438529e-05  -4.2531212e-04  -6.2211555e-05  -3.0103733e-04
   2.7738838e-04   2.1636672e-04   2.9058392e-05   1.8771377e-04   4.9457245e-05   1.1748043e-04   1.1796745e-04   4.1654428e-05   1.0236460e-04   5.4452696e-04   3.5514604e-05   5.3271750e-04   8.6881322e-05  -5.6498746e-05  -8.5726766e-05  -7.6321252e-05   5.1303701e-05   2.4421015e-04  -3.1883983e-04  -2.7022426e-04   5.3010456e-04  -1.4800324e-04  -1.7978574e-04   4.2808519e-04  -1.8141609e-04  -1.9585605e-04   5.0586335e-05   2.6207481e-04   4.4138535e-04  -1.9461269e-04   8.5352462e-05   6.1142654e-04  -3.1982196e-04  -3.4247633e-04  -6.7225621e-05  -2.6280359e-05   4.2276023e-04   6.2837719e-04   1.1295816e-04  -4.0554212e-07   4.9793452e-05  -1.0622844e-04  -1.1864805e-04  -1.9096323e-04   1.9515517e-05  -5.6683458e-04   3.4370971e-06  -2.6227228e-04   1.7456427e-04  -5.5075234e-05
   5.4102088e-04   5.3747831e-04   2.5161137e-04   4.0553996e-04   3.1532836e-04   5.5285502e-04   4.7243590e-04   2.2563933e-04   4.7860437e-04   8.3498063e-04   2.4906531e-04   7.4086920e-04   3.1829072e-04   1.3624136e-04   1.2057097e-04   8.4826133e-05   2.0100623e-04   3.2976209e-04  -4.3459127e-05   1.3460017e-06   7.6797564e-04   1.0700582e-04   2.7915141e-05   6.0885120e-04   5.6451689e-05  -6.1650753e-06   1.2342034e-04   2.0307196e-04   5.1241810e-04  -8.2462146e-05   1.5045183e-04   7.0798781e-04  -2.9033856e-04  -1.4293619e-04   9.6515781e-05  -2.1581249e-05   4.4955083e-04   6.8930240e-04   1.6830187e-05   1.9882604e-05   1.6707421e-04  -6.6059853e-05  -1.0103249e-05  -2.5811553e-04   9.7521523e-05  -5.4119935e-04   5.0998442e-05  -2.4692033e-04   1.0186706e-04  -1.4561809e-04
   5.3190498e-04   4.3708619e-04   2.4506258e-04   3.4746630e-04   2.6032430e-04   3.9175776e-04   3.6732698e-04   1.6189349e-04   3.3415991e-04   6.7843293e-04   1.9747869e-04   6.6815328e-04   2.3980728e-04   1.2454600e-04   9.3767805e-05   5.6320987e-05   4.6009576e-05   1.9661208e-04  -1.5632760e-04  -1.2095221e-04   6.8408786e-04  -1.8263356e-05   1.0566117e-05   5.8500649e-04  -6.4159605e-05  -1.4896422e-04   1.4490748e-04   3.1460973e-04   4.5600865e-04  -1.0396705e-04  -5.1718554e-05   6.0277077e-04  -2.5140910e-04  -2.4937512e-04  -1.5629763e-05  -8.0788996e-05   4.0213304e-04   6.1953958e-04   8.2778875e-05  -1.2508003e-04   1.6288344e-04  -1.1496193e-04  -8.3417624e-05  -4.8573548e-04  -1.4442651e-04  -8.7174476e-04  -9.0692134e-05  -4.0254739e-04   4.2529871e-05  -3.5808011e-04
   4.3316567e-04   3.7449849e-04   2.1428564e-04   3.7092637e-04   3.2984235e-04   5.2341336e-04   4.8309061e-04   2.1105022e-04   4.9523311e-04   7.7996746e-04   2.6111183e-04   7.1331626e-04   3.8217744e-04   2.1968533e-04   1.1671449e-04   1.3778215e-04   1.1020908e-04   2.2361829e-04   1.4493676e-04   4.3383949e-05   8.4862177e-04   1.5113965e-04   1.3695691e-04   7.0435193e-04   4.5964891e-05   5.1488918e-05   1.9083748e-04   4.6628917e-04   5.0329551e-04   1.0450234e-05   2.2528227e-04   7.0222106e-04  -1.5317988e-05  -8.9163674e-05   3.0633752e-04   2.9082940e-04   4.4989539e-04   6.6649535e-04   2.4681186e-04   1.7660519e-04   4.0079386e-04   7.6306147e-05   1.8228141e-04   2.3346665e-04   3.6157211e-04  -5.0397153e-04   1.4773138e-04  -9.9392295e-05   3.8885555e-04   3.3055043e-05
   7.8929920e-04   6.4083468e-04   4.3785400e-04   5.4139603e-04   4.9587182e-04   5.8348029e-04   6.3994183e-04   3.8259412e-04   5.3591118e-04   8.2771241e-04   3.9031057e-04   7.9551450e-04   4.3163882e-04   3.3997657e-04   2.7020098e-04   2.4084505e-04   2.1225646e-04   2.6666650e-04   1.0330138e-04   7.1622315e-05   8.6044782e-04   1.9338119e-04   2.6767596e-04   7.4689137e-04   1.8186287e-04   4.7153117e-05   3.6503471e-04   4.1238806e-04   5.3963315e-04   5.1575786e-05   1.7325506e-04   6.6353916e-04  -2.7287566e-05  -3.7538066e-05   1.9515723e-04   6.5064625e-05   3.7702476e-04   6.4075401e-04   2.3616969e-05   8.9945243e-05   4.5680278e-04   3.5806388e-05   1.3605216e-04  -2.3764152e-04   2.3242373e-04  -5.1512942e-04   9.1045280e-05  -1.9533676e-04   2.0605796e-04  -2.1636737e-05
   6.0382031e-04   4.1664735e-04   3.1279263e-04   3.7467419e-04   3.1785865e-04   3.3221248e-04   3.6567068e-04   2.7204308e-04   2.1784288e-04   5.9571367e-04   2.3423524e-04   6.3953357e-04   2.8466358e-04   2.6270971e-04   1.9823505e-04   1.4076341e-04   1.2799233e-04   2.9716908e-04  -1.8055045e-05  -1.0219783e-04   6.8971689e-04   1.7155700e-05   1.4164875e-04   6.4569368e-04   1.4332795e-04  -4.6178353e-05   3.7827439e-04   5.8960036e-04   6.0126634e-04   6.3803389e-05   1.5888903e-04   6.6453492e-04  -2.4605510e-04   4.0501938e-05   1.8345768e-04   2.5002839e-04   6.9456804e-04   6.3041085e-04   2.7668753e-04   2.3261696e-04   1.8386713e-04   9.8551936e-05   1.2742748e-04   3.2576438e-05   4.2540190e-04  -3.0256511e-04   1.6005624e-04  -2.6981887e-05   5.1830913e-04   2.5506481e-04
   9.1865205e-04   8.0035941e-04   5.6030648e-04   6.5516360e-04   6.4981711e-04   7.3298387e-04   7.6213875e-04   5.7732029e-04   7.1786379e-04   9.5144962e-04   5.1425770e-04   8.8231516e-04   6.1748159e-04   5.3476891e-04   4.0484004e-04   3.8678295e-04   3.1368266e-04   3.5482226e-04   3.0478043e-04   1.7234535e-04   9.2987827e-04   2.2762209e-04   3.7879735e-04   8.6282921e-04   5.3899933e-04   1.8873170e-04   4.3695362e-04   5.6988100e-04   6.0612627e-04   1.6474066e-04   2.1589982e-04   8.5062149e-04  -4.1029609e-05   1.2603868e-04   3.4437224e-04   3.0223024e-04   5.9321849e-04   6.5353903e-04   2.8083625e-04   4.1133916e-04   1.5758671e-04   1.7635350e-04   2.2010543e-04   6.2556624e-05   4.8742886e-04  -2.9849706e-04   1.9717107e-04  -3.4868379e-05   4.8533062e-04   2.1861933e-04
   8.4532826e-04   6.6826853e-04   5.1991479e-04   5.6394225e-04   5.4026005e-04   6.1347528e-04   6.0377800e-04   4.9784046e-04   5.0809555e-04   7.7573315e-04   4.4283681e-04   7.6331384e-04   5.3027179e-04   5.1153987e-04   4.1539545e-04   3.1639970e-04   2.1610003e-04   3.3047382e-04   8.3128427e-05   1.1530684e-05   7.8876578e-04   1.4612083e-04   2.0429207e-04   7.3714030e-04   2.6627741e-04   8.3899482e-05   4.4626891e-04   6.0103124e-04   6.0782750e-04   1.3430238e-04   7.7536934e-05   7.1359531e-04  -2.8449518e-04   5.2479691e-06   2.6039549e-04   2.1405154e-04   6.8382605e-04   5.9244031e-04   1.1564603e-04   1.0138781e-04   7.7912766e-05   4.9532042e-05   8.9916954e-05  -8.3008890e-05   1.6214096e-04  -3.1105007e-04   2.0462619e-05  -2.4231945e-04   1.5015472e-04   5.2017123e-05
   5.9233868e-04   4.7628724e-04   4.0090212e-04   4.8687536e-04   5.1583996e-04   6.4217631e-04   6.1367248e-04   4.6538393e-04   6.3339691e-04   8.2558923e-04   4.2059124e-04   7.4360776e-04   5.5485993e-04   4.9997825e-04   4.0944046e-04   3.5434481e-04   2.0391941e-04   3.0970771e-04   2.0126409e-04   1.0090363e-04   8.8346930e-04   2.0401021e-04   3.5784583e-04   8.1168988e-04   2.7189197e-04   1.5571537e-04   5.1836768e-04   6.2190433e-04   5.9822365e-04   2.0790986e-04   2.4437398e-04   7.7680522e-04  -1.9648021e-04   8.5977983e-05   3.9075696e-04   4.3293455e-04   7.1876682e-04   6.7321386e-04   3.7452017e-04   4.5914415e-04   6.7507895e-04   1.9599327e-04   2.3297170e-04   1.5878803e-04   5.3655182e-04  -1.7382097e-04   2.4025753e-04   4.5554220e-06   5.4693187e-04   3.9533086e-04
   9.1944874e-04   7.8078127e-04   5.7484413e-04   6.7295850e-04   6.5671472e-04   8.2193420e-04   7.0157275e-04   5.5358786e-04   7.7036774e-04   8.6626149e-04   5.3340022e-04   7.9420372e-04   6.5553980e-04   6.1812345e-04   5.0293357e-04   4.0153239e-04   2.1772564e-04   3.2025119e-04   2.6739796e-04   9.0846013e-05   8.7751052e-04   2.0465003e-04   2.8442408e-04   8.1318844e-04   3.9803848e-04   1.6927744e-04   5.2498560e-04   5.9457863e-04   5.9142750e-04   2.2783864e-04   1.2938268e-04   7.6144346e-04  -1.7607023e-05   6.7013396e-05   4.0623543e-04   3.7885038e-04   6.1785139e-04   6.4312341e-04   3.9465679e-04   2.4092382e-04   4.2567315e-04   1.1627358e-04   2.6543986e-04  -8.4599065e-05   3.3960224e-04  -7.9761267e-05   1.3291200e-04  -6.4810964e-05   3.4354473e-04   1.8246172e-04
   6.8585423e-04   5.5840687e-04   4.1685486e-04   4.9264386e-04   4.6823607e-04   4.6096655e-04   4.8221092e-04   4.1495980e-04   4.2647068e-04   6.2010920e-04   3.6323207e-04   6.0180109e-04   4.7388481e-04   4.9897155e-04   3.7093833e-04   2.7132794e-04   1.1232423e-04   2.9506395e-04  -7.8201112e-05  -1.4681413e-04   6.5143040e-04  -7.2970425e-07   1.9275837e-04   6.1773497e-04   2.0685824e-04   1.4899937e-05   3.7027188e-04   6.0982240e-04   5.8523734e-04   1.6301575e-04  -5.8364499e-06   6.6028169e-04  -3.7283398e-04   6.3533867e-07   3.0550722e-04   2.1526561e-04   6.8254193e-04   6.2797533e-04   4.1835161e-04   4.2216494e-04   3.1097326e-04   1.0349454e-04   2.9635589e-04  -8.0943581e-05   4.8586351e-04  -2.7168446e-04   1.3632094e-04  -8.8584638e-05   4.6798849e-04   3.2133583e-04
   8.3787611e-04   8.0756174e-04   5.4955803e-04   6.7983632e-04   6.7331083e-04   8.1785000e-04   7.8872818e-04   6.0187571e-04   8.0097787e-04   8.8442373e-04   5.2192534e-04   7.3995010e-04   6.6150731e-04   6.7446829e-04   4.5931304e-04   4.1115499e-04   2.0897442e-04   3.3631828e-04   2.1667489e-04   5.9024085e-05   8.8106870e-04   2.4673023e-04   4.2001830e-04   7.8150170e-04   3.8522447e-04   1.6678504e-04   5.8011973e-04   6.5627258e-04   6.1795674e-04   3.2127925e-04   1.1254750e-04   6.2452949e-04  -1.0716551e-04   8.3440827e-05   4.5273377e-04   3.2846117e-04   8.0951134e-04   6.1645516e-04   3.1590959e-04   3.4613907e-04   4.9786060e-04   1.0650857e-04   3.4948671e-04  -1.2484216e-04   4.1531416e-04  -5.1573439e-05   1.5357749e-04  -4.3803768e-05   4.7397779e-04   3.5770479e-04
   7.6886400e-04   7.1232842e-04   4.9054116e-04   6.1204931e-04   5.6914298e-04   6.5687974e-04   6.6265190e-04   6.2796735e-04   6.2515098e-04   7.2258012e-04   4.4134958e-04   6.2560360e-04   5.6812097e-04   5.9440226e-04   4.2971692e-04   3.3052693e-04   8.8887573e-05   2.6218579e-04   1.5341048e-04  -1.1008963e-04   7.2954129e-04   6.9306399e-05   2.3035443e-04   6.3181843e-04   2.8604112e-04   4.7834172e-05   5.3201691e-04   6.9400924e-04   6.0256838e-04   2.7537823e-04   7.8189032e-07   6.0641515e-04  -1.3100533e-04  -1.2271982e-04   2.5865986e-04   1.7925478e-04   6.5072370e-04   5.3046230e-04   2.8589802e-04   1.2388457e-04   2.0947873e-04  -3.3407599e-05   9.9093784e-05  -2.9041289e-04   1.4377820e-04  -1.9902484e-04   1.6179846e-06  -2.8286697e-04   1.0758465e-04   9.0324094e-05
   3.7130259e-04   3.2547774e-04   1.8924676e-04   3.4745486e-04   3.2708174e-04   4.2741228e-04   3.5265504e-04   3.6648154e-04   4.4076395e-04   5.2982621e-04   2.3932915e-04   4.3963801e-04   4.1354587e-04   4.1975267e-04   3.6665707e-04   2.3521270e-04   2.8820225e-05   2.3710649e-04   7.1596805e-05  -1.3402209e-04   7.2182965e-04   5.1849020e-05   2.4579343e-04   5.4186169e-04   1.9622444e-04   2.8359573e-06   4.8125707e-04   8.2611764e-04   6.0527073e-04   3.1112647e-04   3.8286540e-05   5.7342881e-04  -3.4376694e-04  -1.6063896e-05   3.0145902e-04   3.0231226e-04   8.3632441e-04   5.5901054e-04   2.6746854e-04   3.4310753e-04   4.8828073e-04   7.3033058e-05   3.7302743e-04   1.7029862e-04   4.0030255e-04   4.2679544e-06   1.0749149e-04  -3.2459579e-05   5.0697097e-04   3.2380718e-04
   7.8076939e-04   8.4352889e-04   4.9963867e-04   7.1550894e-04   6.6460896e-04   8.4857881e-04   8.0996088e-04   7.0777925e-04   7.7846152e-04   8.1857765e-04   4.7672651e-04   6.1344053e-04   6.4072339e-04   6.5164064e-04   5.4337707e-04   3.3501667e-04   6.5134074e-05   2.5138492e-04   1.4538530e-04  -1.0656384e-04   7.9456437e-04   1.2585937e-04   2.9812989e-04   6.3098338e-04   3.5951033e-04   9.4085022e-05   4.1972473e-04   6.5196160e-04   5.7476707e-04   3.3336648e-04   1.5463687e-05   6.2161620e-04  -1.5971977e-04  -2.1201064e-05   3.3515636e-04   1.7699499e-04   7.9805439e-04   5.5494899e-04   3.6605625e-04   3.7516758e-04   3.1296010e-04   6.9248897e-05   1.6132186e-04   1.3446086e-04   2.2793365e-04  -2.8703621e-04   7.9735473e-05  -5.6008168e-05   3.2497474e-04   2.7849909e-04
   5.5627164e-04   6.1287085e-04   3.3124918e-04   5.5177364e-04   4.6300818e-04   6.2743254e-04   5.9400528e-04   5.0160743e-04   5.7466124e-04   6.3160312e-04   3.3190122e-04   4.7081962e-04   4.7920959e-04   5.3312891e-04   3.2818771e-04   1.8995206e-04  -7.0199792e-05   1.8342549e-04  -2.9676134e-05  -2.9258561e-04   6.1188621e-04  -2.7152175e-05   1.0701363e-04   4.6111771e-04   1.4712154e-04  -6.9563597e-05   3.8599523e-04   6.6915050e-04   5.1356596e-04   2.4590295e-04  -1.4024695e-04   5.2225823e-04  -4.1184062e-04  -1.9883800e-04   1.4195958e-04  -2.0018317e-05   6.6347985e-04   5.0787232e-04   5.6290824e-05   5.3612821e-05   1.3040290e-04  -1.8741473e-04   6.8720028e-06  -4.1953425e-04  -5.0731327e-05  -6.0461788e-04  -1.2429355e-04  -3.9528354e-04   5.7928868e-05  -8.5142325e-05
   2.9705872e-04   4.2047747e-04   1.6951431e-04   4.5791161e-04   4.2907719e-04   6.3825952e-04   6.0524669e-04   4.8104563e-04   7.5269106e-04   6.7915081e-04   2.9537367e-04   4.5946112e-04   4.9817242e-04   4.4177638e-04   3.8782862e-04   1.5860521e-04  -1.1794518e-04   1.9465023e-04   1.8531515e-04  -2.3876553e-04   6.9699576e-04  -1.7181773e-06   1.8663898e-04   4.8807528e-04   2.3711560e-04  -4.8684720e-05   3.3191385e-04   6.8980589e-04   5.1293516e-04   2.4943435e-04  -6.3533720e-05   5.3940620e-04  -2.3026734e-04  -8.4097810e-05   2.9302112e-04   1.8689236e-04   8.0458517e-04   5.6878768e-04   5.6927098e-04   2.6431013e-04   1.4303217e-04   2.2402075e-05  -1.6749094e-05   9.8170960e-05   2.9715942e-04  -3.2363535e-04   6.1063438e-05  -1.0078592e-04   4.1254604e-04   2.1900382e-04
   5.5975985e-04   7.2862272e-04   2.9534439e-04   6.4552820e-04   5.2313786e-04   7.5467257e-04   7.3818711e-04   4.8692900e-04   8.4712770e-04   7.3349004e-04   3.5390098e-04   5.3404953e-04   5.0883542e-04   4.9977744e-04   3.9555048e-04   1.7153761e-04  -1.3843975e-04   1.5267100e-04   1.5205846e-04  -2.4721670e-04   6.8885589e-04   4.1582913e-05   1.9600615e-04   4.9406424e-04   1.2174482e-04  -5.2060459e-05   3.6063805e-04   5.9521600e-04   4.6777984e-04   2.1392282e-04  -7.4839627e-05   4.9821817e-04  -4.4675608e-04  -1.2533618e-04   2.3062398e-04   1.6134344e-04   7.1509660e-04   5.1721645e-04   2.4988846e-04   1.6398927e-04  -7.3656316e-05  -9.0094130e-05   1.8261663e-04  -1.9594588e-04   5.2392425e-05  -5.3249730e-04  -7.4049611e-05  -2.8744913e-04   1.4662968e-04   5.4330889e-05
   2.6915697e-04   4.4593465e-04   9.0061658e-05   4.2664504e-04   2.9426118e-04   4.9463357e-04   4.5290377e-04   2.9328687e-04   5.2910263e-04   4.8753063e-04   1.4855908e-04   3.5301762e-04   3.3970745e-04   2.7664748e-04   1.9422891e-04   6.5597292e-06  -1.9078037e-04   1.6715638e-04  -1.2786881e-04  -4.9325544e-04   4.4666202e-04  -1.6741424e-04  -7.5997116e-07   2.8961460e-04  -5.8418758e-05  -2.2322965e-04   1.0195692e-04   5.6043896e-04   3.7607731e-04   7.7879864e-05  -2.6716487e-04   3.2987082e-04  -5.1875698e-04  -5.2637095e-04   1.5945505e-05  -2.3880196e-04   5.4775574e-04   4.5658639e-04  -2.3931025e-05  -1.0970359e-04  -2.7453425e-04  -3.3495680e-04  -1.7413333e-04  -4.5683683e-04  -8.6473156e-05  -7.0787291e-04  -2.4951907e-04  -4.9054559e-04   1.0010351e-04  -1.2511395e-04
   1.8268550e-04   4.9383560e-04   2.9746194e-05   4.1860368e-04   3.1617258e-04   6.1194843e-04   5.7553261e-04   3.3296397e-04   6.1945163e-04   5.7869504e-04   1.3438746e-04   3.7032331e-04   3.2908964e-04   2.0874410e-04   2.2100286e-04  -2.3460690e-05  -1.9891055e-04   1.3169544e-04   2.6031239e-05  -4.1538203e-04   5.5231317e-04  -7.1115552e-05  -2.3175653e-05   3.2866898e-04  -8.4686399e-05  -1.9545654e-04   2.1708870e-04   5.2881078e-04   3.3558955e-04   1.1373547e-04  -8.3872939e-05   3.6128899e-04  -3.4520775e-04  -2.2926042e-04   9.0854701e-05  -4.8710845e-06   5.7876337e-04   4.8774006e-04   1.7557282e-05   2.3141947e-04   1.6483359e-04  -2.1862780e-04  -1.6250862e-04  -3.3378965e-04   6.8717782e-05  -6.5341446e-04  -2.2364056e-04  -3.8549889e-04   7.0501803e-05  -4.1914500e-05
   2.3049528e-04   4.9239030e-04   1.6971175e-06   3.9356359e-04   2.8608524e-04   5.8954977e-04   5.2922842e-04   3.3223539e-04   6.4502779e-04   5.4331502e-04   1.1676098e-04   3.6567755e-04   2.4408502e-04   2.1336973e-04   1.8261005e-04  -8.0985956e-05  -2.2592588e-04   1.1915022e-04  -9.7879827e-05  -4.8520687e-04   4.5633069e-04  -1.0470942e-04   9.2087470e-07   2.7818073e-04   1.2551076e-04  -2.5816238e-04   4.7848491e-05   3.2872544e-04   3.2108868e-04   1.4374298e-05  -2.8176463e-04   3.3738193e-04  -6.8112515e-04  -3.4726667e-04  -9.5144031e-05  -1.6981548e-04   4.5019886e-04   4.5465992e-04   7.1776005e-05  -3.0375893e-05  -3.5766265e-04  -3.8026119e-04  -3.0460843e-04  -5.5207981e-04  -7.9731093e-05  -6.6217087e-04  -3.1384558e-04  -5.4764526e-04  -9.2366936e-05  -3.4813027e-04
  -7.2237446e-05   1.7777484e-04  -2.4686547e-04   1.5698910e-04   1.9053028e-05   2.3378078e-04   1.9469140e-04   4.3802345e-05   2.2899271e-04   2.6882917e-04  -9.8113516e-05   1.7721360e-04   1.7897692e-05  -4.0470135e-05  -1.1530023e-04  -2.5197971e-04  -3.3372873e-04   8.6586129e-05  -3.0636351e-04  -7.4330211e-04   1.9981431e-04  -3.8810362e-04  -3.3949452e-04   6.6814646e-05  -2.6361266e-04  -4.5506732e-04  -7.0005502e-05   4.8964447e-04   2.5926414e-04  -9.0928064e-05  -3.2448111e-04   2.6324007e-04  -7.1114965e-04  -6.3512765e-04  -1.3934792e-04  -3.4264766e-04   5.7408586e-04   4.2890161e-04  -6.6055087e-05  -8.0999358e-05  -2.4082074e-04  -3.6345486e-04  -3.4733737e-04  -3.9067215e-04  -9.4005140e-05  -9.8323252e-04  -3.6718530e-04  -5.3629611e-04   2.0283807e-05  -2.5529222e-04
   6.8668262e-05   4.1950538e-04  -1.4847015e-04   3.0398279e-04   1.9100968e-04   5.9312518e-04   4.7917539e-04   2.6414159e-04   6.3813099e-04   4.9721781e-04   4.3668829e-06   3.2672848e-04   1.4045877e-04   9.0675367e-06   9.7654185e-05  -1.5064093e-04  -1.6572149e-04   1.8455676e-04  -4.3392633e-05  -5.0548959e-04   4.0623680e-04  -1.4874613e-04  -1.4542311e-04   1.9643466e-04  -7.3594143e-05  -3.1463362e-04   7.8253513e-05   3.6511253e-04   3.2473638e-04  -7.6769895e-05  -1.6086687e-04   2.8570960e-04  -4.9345539e-04  -5.4379116e-04  -9.4157251e-05  -2.6198881e-04   4.8310531e-04   5.2973942e-04  -6.6530214e-05  -3.7458372e-05  -4.7029278e-04  -4.4366924e-04  -3.4176788e-04  -3.9511308e-04  -3.0191851e-04  -8.7193219e-04  -4.0818105e-04  -6.3076580e-04  -1.2480507e-04  -3.6881908e-04
  -1.1504630e-05   2.3636168e-04  -2.3042632e-04   1.6145119e-04   1.1345308e-05   2.8755283e-04   2.5257954e-04   1.1442157e-04   3.7894657e-04   3.2714696e-04  -1.3956959e-04   2.0481310e-04  -1.6946116e-05  -8.6809996e-05   2.4198878e-05  -2.5350787e-04  -1.3958749e-04   2.2082232e-04  -2.2834141e-04  -6.6193746e-04   2.3626606e-04  -2.9870379e-04  -2.6491945e-04   2.6213847e-06  -1.7799121e-04  -4.2700971e-04  -1.2915672e-05   3.4904061e-04   2.8563468e-04  -1.5882983e-04  -2.6950196e-04   2.3303754e-04  -6.2119117e-04  -5.5045175e-04  -2.7060241e-04  -4.5422785e-04   3.9960394e-04   3.2420948e-04  -7.1259856e-05  -2.9216683e-04  -5.3566543e-04  -5.7713722e-04  -4.8764658e-04  -7.4411120e-04  -5.2894041e-04  -1.0471919e-03  -5.8329792e-04  -7.7911466e-04  -4.5521202e-04  -5.7770743e-04
  -3.8910643e-04  -2.2101183e-04  -5.2667060e-04  -1.7433619e-04  -2.9038487e-04  -1.2252889e-04  -1.2660817e-04  -1.2356702e-04  -2.3085302e-05   1.1660440e-05  -4.0375924e-04  -5.0860646e-05  -2.6242837e-04  -3.1333938e-04  -1.7705219e-04  -3.9417006e-04  -3.0048046e-04   1.0379893e-04  -3.4363597e-04  -7.7362586e-04   1.6316616e-04  -4.2108481e-04  -3.8106216e-04  -2.5261044e-05  -3.4015212e-04  -4.9102545e-04  -9.0592388e-05   5.8570318e-04   2.1475433e-04  -9.8853685e-05  -2.3264418e-04   2.2500836e-04  -6.9157005e-04  -6.0813717e-04  -2.0505645e-04  -3.9879372e-04   4.2416336e-04   3.3179071e-04  -1.1866407e-04  -2.5984892e-04  -5.1981659e-04  -5.0586840e-04  -4.2527448e-04  -4.2635121e-04  -2.7665764e-04  -8.1393123e-04  -4.7187469e-04  -6.2339619e-04  -1.2473753e-04  -3.2403111e-04
  -1.8466530e-06   2.7430960e-04  -2.5314905e-04   1.1289062e-04   2.7654209e-05   3.5115611e-04   3.3190794e-04   1.1230480e-04   4.1458526e-04   3.7007217e-04  -1.8297935e-04   2.0259625e-04  -7.3477451e-05  -1.7556478e-04  -1.8330811e-05  -2.3423227e-04  -7.8101148e-05   1.7448077e-04  -1.4390569e-04  -5.6842930e-04   2.8891518e-04  -2.5952794e-04  -3.0291433e-04   5.8417416e-05  -1.8724633e-04  -3.9374080e-04  -7.5439129e-05   3.4831412e-04   1.7784860e-04  -1.7959431e-04  -1.6114740e-04   2.3712535e-04  -4.5513301e-04  -4.6627896e-04  -2.6812390e-04  -3.6578847e-04   2.8558439e-04   3.4927067e-04  -2.3322105e-05  -1.2053741e-04  -5.7446607e-04  -5.0863187e-04  -4.1979091e-04  -4.9948698e-04  -3.7275613e-04  -1.0712182e-03  -5.1909429e-04  -6.7021296e-04  -2.5042426e-04  -4.0862747e-04
  -7.7307574e-05   6.4960324e-05  -3.5479292e-04  -4.4189819e-05  -1.5534298e-04   1.0042069e-04   1.0092552e-04  -8.1778126e-05   1.6849373e-04   1.8903270e-04  -2.8790065e-04   9.5882511e-05  -2.0321949e-04  -2.6843938e-04  -1.0854246e-04  -3.3494353e-04  -1.3427652e-04   9.8172837e-05  -3.9068269e-04  -6.8907230e-04   1.4478812e-04  -3.4421717e-04  -3.7129992e-04  -2.6244952e-06  -3.1231914e-04  -4.9701921e-04  -1.9305269e-04   3.0787793e-04   1.6047146e-04  -2.4453190e-04  -2.9499322e-04   2.0069547e-04  -6.0908176e-04  -5.9717940e-04  -3.8382356e-04  -5.2658806e-04   3.1288562e-04   2.6979062e-04  -3.3112222e-04  -3.7723876e-04  -7.8211224e-04  -6.2388624e-04  -6.5811072e-04  -8.4659958e-04  -6.4419687e-04  -9.9665241e-04  -6.4768293e-04  -9.0454740e-04  -5.9010269e-04  -6.0199422e-04
  -3.5311122e-04  -2.5644628e-04  -5.1420083e-04  -2.0982680e-04  -2.0416874e-04   9.0286361e-05   1.6946567e-05  -1.2262211e-04   2.9711818e-04   1.8606310e-04  -3.1109375e-04   7.0154274e-05  -2.6942414e-04  -2.7688686e-04  -1.9546643e-04  -3.0853425e-04  -1.9503056e-04   6.5727945e-05  -3.0626121e-04  -6.1295839e-04   2.4129321e-04  -2.9132087e-04  -3.2513530e-04   8.9196066e-05  -1.6924410e-04  -4.6064597e-04  -1.6782650e-04   3.5507409e-04   1.8363453e-04  -2.0947440e-04  -2.3486036e-04   1.9303053e-04  -5.8376946e-04  -4.1749814e-04  -1.9370457e-04  -3.2942629e-04   2.3133734e-04   3.1674252e-04  -2.0395221e-04  -2.0130150e-04  -5.3628825e-04  -4.2991244e-04  -5.6601845e-04  -5.4134533e-04  -1.8803173e-04  -8.1054767e-04  -4.6553908e-04  -7.0696539e-04  -1.7507626e-04  -3.9405542e-04
   1.0079975e-04   2.1208114e-04  -2.6135566e-04   3.4698896e-05  -1.9139485e-05   2.7913286e-04   2.2182681e-04   3.4505494e-05   2.6143101e-04   2.5163052e-04  -2.0427581e-04   1.8401560e-04  -1.6467783e-04  -2.6590220e-04  -9.4457653e-05  -2.3875566e-04  -1.8954209e-04   4.2508269e-05  -1.6934087e-04  -5.6756078e-04   2.6689348e-04  -2.2235804e-04  -3.0819839e-04   1.4162027e-04  -2.1348098e-04  -4.4011805e-04  -6.0215418e-05   2.5251094e-04   1.2791238e-04  -2.3334548e-04  -2.1880273e-04   2.1901002e-04  -4.8655306e-04  -4.8661113e-04  -2.6408368e-04  -3.6661516e-04   3.4913037e-04   3.0832240e-04  -2.4503187e-04  -3.3061090e-04  -3.3150427e-04  -4.7241911e-04  -5.6138955e-04  -5.6387181e-04  -3.3592945e-04  -1.0367798e-03  -4.9597479e-04  -7.7010226e-04  -3.1203160e-04  -5.6138576e-04
  -3.3782395e-05   9.1615475e-06  -3.3975078e-04  -9.6738833e-05  -1.5885146e-04   1.0290633e-04   3.3909095e-05  -8.1856902e-05   9.9137527e-05   7.2790826e-05  -2.9964326e-04   7.1756956e-05  -2.2912852e-04  -2.9426673e-04  -2.3824966e-04  -3.1321906e-04  -3.0516140e-04   1.4040584e-05  -4.3207360e-04  -7.3839742e-04   8.8692548e-05  -4.2027226e-04  -4.0194110e-04  -1.9384890e-06  -2.2293517e-04  -5.5982382e-04  -2.2769094e-04   3.3102231e-04   1.4535007e-04  -3.3486859e-04  -3.9016400e-04   2.2146330e-04  -6.9484062e-04  -7.1846286e-04  -3.5086198e-04  -6.5745425e-04   1.5235814e-04   3.4088231e-04  -3.7503452e-04  -4.2335349e-04  -5.1273679e-04  -4.8625685e-04  -5.8448775e-04  -4.7414345e-04  -3.1205348e-04  -1.1834523e-03  -5.0161791e-04  -7.5702713e-04  -1.9215012e-04  -5.1862840e-04
   1.3029603e-04   2.4504194e-04  -2.2061211e-04   6.7378474e-05   2.9084120e-05   3.0934828e-04   3.0819338e-04   7.2603900e-05   3.7920009e-04   2.7788567e-04  -1.6598096e-04   2.1277227e-04  -6.0996786e-05  -2.0623796e-04  -9.0271591e-05  -1.7105637e-04  -1.7596108e-04   5.1468760e-05  -1.8411451e-04  -4.9488922e-04   3.0134281e-04  -1.7866162e-04  -2.5117493e-04   2.2583921e-04  -1.0425488e-04  -3.3924021e-04  -2.1329719e-05   2.2488961e-04   2.5244936e-04  -2.3120288e-04  -1.5662542e-04   3.1027774e-04  -5.7105301e-04  -4.2748923e-04  -1.6258891e-04  -2.3924238e-04   4.5825014e-04   4.2964335e-04  -2.5544059e-04  -2.5671269e-04  -5.2192109e-04  -4.2010265e-04  -3.8841926e-04  -4.6113302e-04  -1.1515529e-04  -9.0206804e-04  -4.1273914e-04  -7.1151019e-04  -1.3666939e-04  -4.8721634e-04
   1.8369210e-04   1.8450640e-04  -1.5705430e-04   3.6918897e-05  -7.4102154e-06   1.8961985e-04   2.5133358e-04   1.1758016e-04   1.1780889e-04   1.5763225e-04  -1.8339923e-04   1.3996159e-04  -1.0417227e-04  -1.5640190e-04  -8.0887421e-06  -1.6372417e-04  -1.6425693e-04   8.3926992e-05  -2.8019634e-04  -5.9900567e-04   1.7347628e-04  -2.8241545e-04  -3.0359504e-04   1.2570604e-04  -9.5041549e-05  -4.0617041e-04  -8.2828657e-05   3.2894913e-04   2.0694807e-04  -2.7660010e-04  -2.1666850e-04   2.3052176e-04  -6.3120207e-04  -5.7282258e-04  -2.6369820e-04  -4.1067589e-04   2.0821657e-04   3.7127212e-04  -1.4872933e-04  -4.7688678e-04  -2.3933234e-04  -4.6766334e-04  -4.3180463e-04  -7.1938668e-04  -4.1357990e-04  -1.0925970e-03  -5.3001248e-04  -8.5367064e-04  -4.4030737e-04  -6.7148136e-04
  -1.3320713e-04  -1.9292167e-04  -3.6940951e-04  -1.9428419e-04  -2.2232400e-04  -1.7318445e-04  -1.2820119e-04  -1.1046033e-04  -1.2691370e-04  -1.3000178e-04  -3.9514835e-04  -8.5978550e-05  -2.4862695e-04  -3.1703172e-04  -1.1020798e-04  -2.9624748e-04  -2.8934909e-04   6.8696092e-05  -4.3167226e-04  -7.2486710e-04   7.6430297e-05  -4.0605394e-04  -3.8928294e-04   6.1990700e-05  -2.6875045e-04  -5.0165737e-04  -4.1334242e-05   6.2812481e-04   2.6309353e-04  -1.9883798e-04  -2.7731375e-04   2.1139260e-04  -5.7468557e-04  -4.7111805e-04  -2.0276612e-04  -3.1864244e-04   3.5772478e-04   4.1481756e-04  -1.1406777e-04  -3.2978214e-04  -1.4135303e-04  -3.9971835e-04  -3.8845907e-04  -3.6890237e-04  -2.0825502e-04  -9.8242098e-04  -3.8084071e-04  -6.5083493e-04  -8.2801729e-05  -4.7111677e-04
   2.9028757e-04   3.4005620e-04  -4.2046850e-05   1.5319687e-04   1.5524522e-04   4.0709606e-04   3.8741218e-04   1.6904507e-04   3.6698140e-04   2.3248902e-04  -7.0272908e-05   1.8048639e-04   8.1698818e-05  -3.8090788e-05   2.1462674e-05  -5.7075293e-05  -1.4115612e-04   1.1398223e-04  -2.6657491e-04  -5.0490623e-04   2.4005432e-04  -2.3512168e-04  -1.1664070e-04   2.5765720e-04   7.0280992e-05  -3.4708084e-04   2.7100383e-05   3.4077559e-04   2.8200666e-04  -2.3871128e-04  -2.2592493e-04   4.0374143e-04  -4.1925404e-04  -4.4440865e-04  -1.4273172e-04  -2.9700325e-04   3.6596312e-04   4.6144056e-04  -1.7937324e-04  -2.7343800e-04  -4.4203704e-04  -3.2890844e-04  -3.6792801e-04  -7.8263489e-04  -2.1582181e-04  -8.5642107e-04  -3.4544812e-04  -5.8641343e-04  -1.5069389e-04  -4.7844299e-04
   2.2201381e-04   1.8869268e-04  -8.1958955e-05   6.8779933e-05   7.7749617e-05   2.3170667e-04   2.1238784e-04   1.1703108e-04   2.3701503e-04   6.7320310e-05  -1.4325962e-04   9.0639682e-05  -2.7000460e-06  -4.7331665e-05   1.4119422e-05  -1.2936177e-04  -2.5592514e-04   3.4308014e-05  -3.0603397e-04  -6.2691560e-04   1.0479338e-04  -3.3164391e-04  -2.4887422e-04   1.4472830e-04  -2.1162722e-04  -4.5358622e-04  -1.1905821e-05   3.3243312e-04   2.9564719e-04  -2.5113832e-04  -2.9283387e-04   3.0528041e-04  -5.9568178e-04  -6.1764044e-04  -3.3851483e-04  -4.8071038e-04   2.3337836e-04   3.9534026e-04  -1.9118133e-04  -4.4225770e-04  -7.0528901e-04  -4.5624754e-04  -4.3038846e-04  -8.6634699e-04  -5.2007416e-04  -1.2374904e-03  -4.7893531e-04  -8.2878728e-04  -4.9289031e-04  -8.4081723e-04
  -8.9430185e-05  -1.3436752e-04  -2.4781789e-04  -6.6809611e-05   4.4679659e-06   1.5443070e-04   1.8656325e-04   6.0994804e-05   2.7960446e-04   8.7306915e-05  -1.5556086e-04   4.8485537e-05   2.4198378e-05   9.1118209e-06   3.5935536e-05  -1.0275436e-04  -2.2115729e-04   4.3071344e-05  -9.9905483e-05  -5.3716643e-04   1.9733011e-04  -3.0456512e-04  -1.2625703e-04   2.3146888e-04   1.0202807e-04  -3.4589280e-04   2.7822736e-05   3.8095308e-04   3.0433855e-04  -1.7119599e-04  -2.3881815e-04   2.6427477e-04  -5.3066202e-04  -4.2604277e-04  -1.0981818e-04  -1.2047234e-04   4.5516537e-04   4.6062071e-04  -6.3081403e-05  -1.2399979e-04   7.2530987e-05  -2.7117398e-04  -1.8524624e-04  -4.4147056e-04  -1.5482090e-04  -9.9906942e-04  -2.2565914e-04  -4.8888527e-04   3.4307799e-05  -3.6491430e-04
   3.8117135e-04   3.7689091e-04   3.5120574e-05   2.2119963e-04   2.2572521e-04   4.0543065e-04   4.0084420e-04   2.0879359e-04   2.4753061e-04   1.6515478e-04  -1.7548482e-05   1.7299139e-04   1.6486662e-04   9.7694588e-05   7.5503791e-05  -2.2693108e-05  -2.3595958e-04  -8.7759754e-06  -2.6933203e-04  -4.9959274e-04   2.1726640e-04  -2.6567478e-04  -1.7740316e-05   2.6516424e-04  -2.6868634e-05  -3.3178375e-04   1.3343741e-04   3.4681283e-04   2.1312502e-04  -1.6925255e-04  -2.3465350e-04   2.7671148e-04  -7.6078292e-04  -3.8241970e-04  -8.5104104e-05  -1.2008248e-04   2.4156955e-04   3.7498411e-04  -9.2688540e-05  -1.5025961e-04  -5.2233209e-04  -3.2211270e-04  -2.5750563e-04  -6.4144400e-04  -1.6948645e-04  -9.6188014e-04  -3.1250523e-04  -5.9212133e-04  -1.5182032e-04  -5.4192712e-04
   1.2880091e-04   1.1486086e-04  -9.7439508e-05   5.2810617e-05   6.1387902e-05   1.1411090e-04   1.3513667e-04   1.2316923e-04  -1.5737143e-05  -3.9628703e-05  -1.5274544e-04   1.3663862e-05   3.7328296e-05  -1.5808764e-05  -1.1472439e-05  -1.3722214e-04  -3.4043359e-04  -5.3071268e-05  -3.2983598e-04  -7.0278323e-04   1.7998527e-05  -4.4112335e-04  -1.6737248e-04   1.1071232e-04  -1.4158426e-04  -4.7649196e-04   6.4987871e-05   3.8485942e-04   1.7435430e-04  -2.2906180e-04  -3.6811864e-04   1.1196633e-04  -7.4217533e-04  -5.2998657e-04  -2.7649500e-04  -4.6576723e-04   2.4166759e-04   2.6416781e-04  -4.3566219e-04  -5.3692341e-04  -3.6041616e-04  -4.4954513e-04  -5.0913682e-04  -8.8863680e-04  -4.4071619e-04  -1.0208862e-03  -3.9803638e-04  -6.2234851e-04  -1.1138849e-04  -4.4990162e-04
   1.3536691e-04   2.6002788e-04  -8.0445148e-05   1.4404886e-04   1.5345965e-04   4.1428659e-04   3.0927302e-04   2.2074986e-04   3.5878876e-04   1.1407341e-04  -7.6191471e-05   7.4291915e-05   1.4791139e-04   8.6773674e-05   1.0355786e-04  -7.5077529e-05  -2.8122400e-04  -5.1695632e-05  -1.6686445e-04  -5.2430067e-04   1.9092152e-04  -3.3980649e-04  -5.3094376e-05   2.3781021e-04  -9.0627233e-05  -3.4245322e-04   9.0961410e-05   3.1546821e-04   1.7145743e-04  -1.1418504e-04  -2.0478500e-04   2.4526776e-04  -5.7432853e-04  -3.4211072e-04  -5.0417504e-05  -1.8595191e-04   2.7411722e-04   2.9345226e-04   1.5237388e-05  -2.0853986e-04  -1.5634847e-04  -2.3136585e-04  -2.8703871e-04  -5.6115969e-04  -1.1189099e-04  -8.0890663e-04  -2.6518592e-04  -4.5635080e-04  -8.4743209e-05  -3.9950953e-04
   2.1068838e-04   2.8381837e-04  -2.9085355e-05   1.7610501e-04   1.4746937e-04   3.0747554e-04   2.9369452e-04   2.0377782e-04   2.4454203e-04   8.4040301e-05  -5.0373830e-05   6.8435511e-05   1.7524026e-04   1.2185200e-04   6.0093258e-05  -9.5073352e-05  -3.2231174e-04  -1.0431457e-04  -1.9456916e-04  -5.7606143e-04   1.3853924e-04  -3.8791535e-04  -8.6879605e-05   2.4908446e-04  -1.0153105e-04  -3.9507262e-04   9.0045469e-05   2.9393565e-04   1.6574103e-04  -1.4540498e-04  -2.7069598e-04   1.6872640e-04  -6.5207208e-04  -4.4824363e-04  -1.9437597e-04  -2.0494501e-04   2.9448420e-04   2.8520817e-04  -3.1467360e-05  -2.7792060e-04  -2.2377995e-04  -3.1209560e-04  -2.0928426e-04  -5.1754073e-04  -2.7208100e-04  -1.0617676e-03  -3.6056698e-04  -5.0706021e-04  -2.9939652e-04  -5.7274726e-04
  -3.7752594e-05  -1.7003902e-05  -2.2934939e-04  -1.5028337e-05  -5.4508222e-05   6.1209998e-05   1.5657297e-05  -2.9676432e-05  -6.8043446e-05  -1.5811532e-04  -2.0251058e-04  -9.5105956e-05   1.4768054e-05  -4.2408072e-05  -7.1340248e-05  -2.3280615e-04  -5.2586501e-04  -1.9466007e-04  -4.8659992e-04  -7.7980722e-04   1.5275476e-05  -5.8316882e-04  -1.8952582e-04   9.8697754e-05  -1.2792314e-04  -4.9596396e-04   7.9101097e-05   4.2064313e-04   1.2356654e-04  -1.5894690e-04  -3.0544671e-04   1.1855016e-04  -5.7470886e-04  -5.3428282e-04  -1.8017137e-04  -2.0647867e-04   3.2240697e-04   3.0146757e-04  -1.7938342e-04  -2.5308231e-04  -2.3751176e-04  -2.3222681e-04  -2.1664538e-04  -4.8284925e-04  -9.7610042e-05  -8.9742750e-04  -2.1793169e-04  -4.1843642e-04  -3.7532260e-05  -4.8229893e-04
   2.1292131e-04   3.5934511e-04  -3.1268428e-05   2.2660478e-04   1.8365520e-04   4.5418309e-04   3.8694209e-04   2.1683861e-04   2.9944704e-04   1.6473954e-04   3.2534455e-05   1.1453598e-04   2.7096309e-04   1.1133074e-04   1.5159506e-04  -9.6582356e-05  -3.7150300e-04  -1.4079607e-04  -1.4692362e-04  -4.9195002e-04   2.4228610e-04  -3.1492373e-04   1.7563726e-06   2.6867792e-04  -1.5552894e-05  -3.7467762e-04   8.1671737e-05   3.6052740e-04   1.3561833e-04  -8.8499262e-05  -3.0711311e-04   2.9851985e-04  -5.0271588e-04  -4.7729752e-04  -1.0722048e-04  -1.4124910e-04   2.3944105e-04   3.3983996e-04  -2.0287430e-04  -2.1206617e-04  -6.7718810e-04  -2.0682480e-04  -8.5371241e-05  -4.7357116e-04  -1.9960455e-04  -9.2594617e-04  -2.4415465e-04  -3.9180164e-04  -1.4503350e-04  -4.6953963e-04
   4.5048728e-05   1.3495061e-04  -1.2691875e-04   6.3505388e-05   3.4474528e-05   2.1026591e-04   1.5359792e-04   6.5006599e-05   1.1419312e-04   1.0351944e-04  -8.5691747e-05   9.0160427e-07   1.1262921e-04   5.8061865e-05   4.6821879e-05  -1.8714782e-04  -3.6800661e-04  -6.6463625e-05  -3.4314182e-04  -6.0682290e-04   8.6029613e-05  -3.9732060e-04  -1.0790614e-04   1.7123744e-04  -2.6266070e-04  -4.4323292e-04   2.3549537e-05   4.6437012e-04   1.4709719e-04  -1.4497701e-04  -4.5096493e-04   1.6170835e-04  -6.9870043e-04  -6.0653541e-04  -2.3733958e-04  -2.6604388e-04   2.0396220e-04   2.7178216e-04  -1.7018916e-04  -4.3617890e-04  -4.3375252e-04  -3.6575616e-04  -2.6935033e-04  -9.3580643e-04  -4.7728955e-04  -1.2134471e-03  -3.4340748e-04  -6.4436381e-04  -5.0218846e-04  -7.5969938e-04
  -3.1311050e-04  -2.9279475e-04  -3.5399519e-04  -1.6848509e-04  -1.5528157e-04   9.4487172e-05   2.1512699e-06  -3.6980884e-05   1.6443932e-04   2.4458743e-04  -1.2446471e-04  -5.3632564e-05   1.3192552e-04  -2.7056010e-05   5.3453245e-05  -2.1292266e-04  -3.7980705e-04  -1.3298214e-04  -1.6253575e-04  -4.5962291e-04  -2.2788574e-06  -1.4819509e-04  -7.7327779e-05   2.1999498e-04  -1.4700045e-04  -3.9039820e-04   6.3361047e-05   4.4262150e-04   1.0181317e-04  -7.6772645e-05  -2.0293595e-04   2.1364595e-04  -4.1939723e-04  -4.0015928e-04  -6.8197114e-05  -2.2811020e-05   3.4419826e-04   2.4423262e-04   4.6620429e-05  -1.7327500e-04  -3.0020325e-04  -1.0983671e-04  -1.0903025e-04  -4.2144913e-04  -1.6421555e-04  -8.7366166e-04  -1.4062965e-04  -2.8599639e-04   1.6250951e-05  -3.5331442e-04
   1.2914625e-04   2.8291202e-04  -8.7642133e-05   1.3057212e-04   7.7793862e-05   3.3272884e-04   2.7264084e-04   1.5167597e-04   2.3260617e-04   2.7921057e-04   3.7938637e-05   4.3736716e-05   2.0120059e-04   1.3418539e-04   9.9881072e-05  -1.4071097e-04  -3.5622163e-04  -1.6410182e-04  -1.8727538e-05  -3.9406979e-04  -7.4356176e-06  -5.9430651e-05   7.0675924e-05   2.4731236e-04  -1.0691831e-04  -3.4909302e-04   1.0244319e-04   3.8845764e-04   3.2581396e-05  -3.3343240e-05  -3.2602024e-04   1.5096972e-04  -4.3452240e-04  -3.4302325e-04  -8.9803601e-05  -1.0767572e-04   3.1091599e-04   1.4524555e-04  -1.0197768e-04  -1.6637488e-04  -3.9354566e-04  -1.9566804e-04  -5.2585197e-05  -5.8597932e-04  -3.1673562e-04  -8.7915675e-04  -1.7586662e-04  -3.7631704e-04  -2.3542646e-04  -5.0414843e-04
  -1.2092743e-04   1.1210610e-05  -2.3410773e-04  -5.1043775e-05  -9.8835560e-05   6.6298038e-05  -9.2867785e-06   6.0973121e-05   2.0329117e-05   5.4375272e-05  -1.0677154e-04  -9.6588337e-05   6.4720152e-05  -4.5393539e-05   8.5474503e-06  -2.7068195e-04  -4.3322900e-04  -1.7741967e-04  -2.9964789e-04  -5.5923848e-04  -2.7050773e-04  -1.5853727e-04  -1.8772992e-04   6.7431931e-05  -1.9011181e-04  -4.6115840e-04  -1.5324792e-04   3.3079900e-04   4.7857447e-06  -1.2411631e-04  -3.6937307e-04   9.3888731e-05  -6.1387505e-04  -5.3875917e-04  -1.9744148e-04  -2.7824301e-04   1.5841045e-04   1.5076711e-04  -2.5802615e-04  -3.9154087e-04  -2.8376776e-04  -2.4647900e-04  -2.6263134e-04  -4.9685093e-04  -2.7042790e-04  -8.9901628e-04  -1.8784418e-04  -3.3445458e-04  -9.3470138e-05  -3.9313140e-04
   5.2208497e-06   2.4595548e-04  -1.3198493e-04   9.1440597e-05   5.2455511e-05   3.1703987e-04   2.4813239e-04   7.5208824e-05   3.0397679e-04   2.7753355e-04   3.3931690e-05   3.8789414e-05   1.7832420e-04   5.9087099e-05   1.1938420e-04  -1.6272069e-04  -2.9463292e-04  -1.1086867e-04   1.3030091e-05  -2.7077057e-04   3.3788849e-05   6.5430693e-05   5.5624027e-06   2.6402730e-04  -1.3985969e-04  -2.4423411e-04   5.8852416e-05   3.5348607e-04   6.8374196e-05  -7.0902529e-06  -2.1976004e-04   2.9330366e-04  -3.6214318e-04  -1.1575006e-04  -4.8490401e-05   5.4300530e-05   2.0886207e-04   2.0983165e-04  -1.1183691e-04  -1.2046612e-04  -1.0783460e-04  -1.3197052e-04  -1.0803439e-04  -4.6265259e-04  -1.9652050e-04  -7.7077607e-04  -9.1770089e-05  -2.5007615e-04  -1.0227306e-04  -2.8854754e-04
   3.1491058e-05   2.1166899e-04  -1.1276762e-04   6.5454828e-05   2.4273168e-05   2.1123706e-04   1.3469513e-04   8.0775913e-05   2.4819400e-04   1.4197618e-04   4.8954935e-06   2.4464583e-05   1.7667249e-04   4.5858382e-05   2.9880182e-05  -2.0817856e-04  -3.0672853e-04  -1.0004651e-04  -8.0608173e-05  -3.5262408e-04  -1.2340302e-04  -1.3202778e-05   1.2655418e-05   1.7138335e-04  -3.4641841e-04  -3.1089553e-04  -2.2920478e-05   2.5447985e-04   1.8550376e-05  -6.4063373e-05  -1.9584161e-04   2.2610318e-04  -3.9396030e-04  -1.5792185e-04  -1.1732531e-04  -1.5695256e-04   1.9217600e-04   1.3256355e-04  -7.9105688e-05  -2.0486320e-04  -2.1519348e-04  -2.3185983e-04  -1.5369781e-04  -3.4159963e-04  -4.1123416e-04  -9.2937984e-04  -2.1628065e-04  -3.7907294e-04  -4.1593626e-04  -4.7106665e-04
  -2.7401032e-04  -1.8207199e-04  -3.5845608e-04  -1.8654311e-04  -2.6332741e-04  -9.7109150e-05  -1.8552871e-04  -1.9354311e-04  -1.7785959e-04  -1.4914843e-04  -2.3077430e-04  -1.4931850e-04  -7.0300652e-05  -1.4958187e-04  -5.4860750e-05  -3.5001495e-04  -4.2168467e-04  -9.7077602e-05  -2.2453074e-04  -4.5757473e-04  -1.4586032e-04  -1.2717737e-04  -2.1521398e-04   1.1047710e-04  -2.3679006e-04  -3.6323236e-04  -1.7324506e-05   3.5293764e-04   2.5503396e-05  -6.1535364e-05  -2.3799650e-04   1.8458367e-04  -2.6386732e-04  -2.7362179e-04  -1.5243082e-04  -1.3113584e-04   2.0669817e-04   1.6908448e-04  -9.3254552e-05  -1.8312607e-04  -4.4162793e-04  -1.1732433e-04  -2.1828542e-04  -3.3689648e-04  -1.7610595e-04  -7.4372004e-04  -1.1177918e-04  -2.2522127e-04  -4.2886302e-05  -2.3543487e-04
   9.7907847e-05   3.0192346e-04  -9.2629642e-05   1.2542706e-04   7.2303119e-05   3.4507990e-04   2.4303539e-04  -3.7360489e-05   3.4732485e-04   1.8852447e-04   3.1410498e-05   1.3196793e-04   1.8352203e-04   1.1603270e-05   4.2516898e-05  -2.2812035e-04  -2.4964788e-04  -6.5320790e-05   1.6998287e-05  -2.8420458e-04  -9.2507189e-06   2.5886220e-05  -1.1630682e-05   2.5248650e-04   8.3728002e-05  -2.2211010e-04  -2.0875525e-05   1.7906417e-04  -2.6297399e-05  -6.7394998e-05  -7.0684815e-05   2.0206923e-04  -1.5371290e-04  -1.5527730e-04  -1.0357941e-04  -1.4175494e-04   1.7924524e-04   1.5853182e-04  -5.3533076e-05  -4.9525286e-05  -7.6705385e-07  -1.4294026e-04  -1.0510478e-04  -4.6602101e-04  -2.3692368e-04  -6.4288877e-04  -1.2040800e-04  -1.9607756e-04  -2.3607419e-04  -3.1536515e-04
  -6.1324237e-05   7.6610428e-05  -2.1830430e-04  -5.0938030e-05  -1.1290852e-04   5.2350275e-05  -5.9816712e-06  -7.9553502e-05   6.9890229e-05   2.0368629e-05  -7.8419391e-05   1.6856409e-05   5.1955732e-05  -9.8941448e-05  -2.0922362e-05  -2.9740945e-04  -3.2995068e-04  -6.9180256e-05  -2.7951688e-04  -4.0261599e-04  -1.5004163e-04  -7.6160562e-05  -2.1013436e-04   1.7211956e-04  -2.2893274e-04  -3.0731244e-04  -7.2445291e-05   1.1794906e-04   4.0841056e-05  -1.6079830e-04  -2.6967941e-04   9.4404451e-05  -3.6082190e-04  -4.1937755e-04  -3.1809203e-04  -1.8366486e-04  -1.2204051e-05   1.5641966e-04  -2.0798181e-04  -3.4621242e-04  -3.0977570e-04  -2.4471819e-04  -3.3503506e-04  -7.3714391e-04  -5.1411596e-04  -8.6120097e-04  -2.3868121e-04  -4.5379187e-04  -3.1801307e-04  -5.3505070e-04
  -1.6195474e-04   4.2288302e-05  -2.5205474e-04  -2.2842441e-05  -4.0303777e-05   2.3307484e-04   1.1676167e-04  -7.7578370e-05   1.9072922e-04   1.3497277e-04  -1.7944412e-05   9.8397846e-05   1.0524067e-04  -7.0507682e-05   3.8780861e-05  -2.8395417e-04  -3.4242144e-04  -6.7369299e-05   1.1517604e-05  -2.3425031e-04   4.4346689e-05   2.2052989e-05  -3.8783717e-05   3.1807018e-04  -1.3980775e-05  -2.4429057e-04  -2.6965135e-05   1.1552969e-04   2.7794244e-05  -9.4216099e-05  -8.8987406e-05   1.9093002e-04  -2.3874246e-04  -2.3552684e-04  -4.4799959e-05  -1.0687641e-04   2.2333272e-04   2.3724003e-04  -1.0919572e-04  -3.4254522e-06  -3.5513885e-04  -1.0898335e-04  -4.5540350e-05  -4.3394527e-04  -1.6392220e-04  -6.9996977e-04  -5.2126397e-05  -1.5978032e-04  -6.7939254e-05  -2.8983116e-04
   7.4182928e-05   2.0628406e-04  -1.2621793e-04   7.4944961e-05   1.7731347e-05   3.0735228e-04   1.4593881e-04  -2.5265392e-05   2.4671297e-04   1.2898839e-04   3.9884650e-05   1.6702154e-04   1.3405095e-04  -4.7075977e-05   2.0231559e-05  -2.6227062e-04  -3.0967532e-04  -1.0790125e-04  -1.1757061e-04  -2.5424775e-04   1.2830020e-07   2.5989093e-05  -3.8757036e-05   3.2934090e-04   1.5046122e-05  -2.7548359e-04  -5.2191794e-05   5.9738344e-05   1.6821021e-05  -1.2431841e-04  -1.4253585e-04   2.0531038e-04  -2.8117554e-04  -2.4367397e-04  -8.1177437e-05  -1.2549254e-04   8.9585206e-05   1.4515736e-04  -1.5054891e-04  -1.3253614e-04  -2.4706728e-04  -1.7494425e-04  -1.0011266e-04  -3.0836920e-04  -2.9493208e-04  -6.0848013e-04  -1.3304186e-04  -2.7451848e-04  -3.3532703e-04  -4.3794586e-04
  -1.5981756e-04  -1.0024586e-04  -3.1733274e-04  -1.4311714e-04  -2.2015959e-04  -2.3573068e-05  -1.3263118e-04  -1.3753396e-04  -1.2500955e-04  -1.0356236e-04  -1.5213988e-04  -1.7761911e-05  -7.2085801e-05  -2.0900869e-04  -1.2317326e-04  -3.8122790e-04  -4.0483373e-04  -1.1868635e-04  -2.9599175e-04  -4.6950582e-04  -2.4724632e-04  -1.5639239e-04  -1.7430121e-04   1.2865243e-04  -3.9906983e-04  -4.2183013e-04  -1.2345289e-04   6.4046646e-05  -2.4321673e-05  -2.0802861e-04  -2.7343637e-04   4.7975460e-05  -4.6367824e-04  -4.5846813e-04  -2.9952967e-04  -4.0338776e-04   8.0754777e-05   1.0815053e-04  -1.8098246e-04  -4.0743651e-04  -4.8313942e-04  -2.5245643e-04  -3.8510034e-04  -5.1905680e-04  -2.9493927e-04  -8.1279303e-04  -1.7129842e-04  -3.2100931e-04  -1.6222964e-04  -3.7082058e-04
  -3.5874587e-06   1.6710644e-04  -1.8491497e-04   1.9655747e-05  -4.8523630e-06   2.3824695e-04   1.5336148e-04  -2.9414884e-06   3.4533624e-04   1.3442492e-04  -6.4422547e-06   1.2783072e-04   1.1723712e-04  -1.0664966e-04  -5.6340981e-05  -2.3695883e-04  -2.5489181e-04  -9.5529234e-05   4.6779396e-06  -2.0267289e-04   5.7063386e-05   1.1999204e-04   9.6256663e-05   3.4495347e-04   3.8442518e-05  -2.2499153e-04  -2.1007794e-05   1.9781133e-04   2.7999674e-06  -7.8183482e-05  -2.4184839e-05   2.3014891e-04  -1.5936451e-04  -7.2761199e-05  -6.1585983e-05  -6.5066764e-05   2.0320046e-04   1.6157678e-04  -2.2223201e-05  -7.2788032e-05  -4.4899495e-04  -1.5421212e-04  -9.1589078e-05  -4.1487673e-04  -1.6239729e-04  -6.1503315e-04  -9.7432516e-05  -1.4007607e-04  -7.9023688e-05  -1.9362759e-04
   8.3752762e-05   1.5165647e-04  -1.4720122e-04   1.8858027e-05  -3.5740810e-05   1.9884501e-04   9.2491660e-05  -1.7956845e-05   1.8679508e-04   7.3998926e-05   3.1737172e-06   1.1981180e-04   8.3284169e-05  -9.0803595e-05  -4.6508805e-05  -2.4520577e-04  -2.4981415e-04  -9.2975009e-05  -3.4915451e-05  -2.4382188e-04  -5.0514493e-05  -1.7326267e-05  -4.7537807e-05   2.7895498e-04  -1.1543063e-04  -2.5608667e-04   3.3672244e-05   1.2123713e-04  -3.5304252e-05  -1.0287669e-04  -1.3293431e-04   1.2594064e-04  -2.9560126e-04  -2.9495274e-04  -1.3232822e-04  -2.6107693e-04   1.3823168e-04   7.1421870e-05  -6.6292996e-05  -2.3377774e-04  -5.2974973e-04  -2.3720342e-04  -2.0872121e-04  -3.3664200e-04  -3.9797273e-04  -6.9670833e-04  -2.1453071e-04  -3.1332218e-04  -4.2334778e-04  -3.6365783e-04
  -2.1399697e-04  -2.2836986e-04  -3.5935119e-04  -2.4937486e-04  -2.9763550e-04  -1.8323054e-04  -2.5333656e-04  -2.3810517e-04  -2.0945090e-04  -2.1487070e-04  -2.2346864e-04  -1.1666698e-04  -1.5152256e-04  -2.8690192e-04  -2.3394781e-04  -3.8104848e-04  -3.8245073e-04  -1.5941660e-04  -3.7705424e-04  -5.0470774e-04  -3.2056504e-04  -2.2911017e-04  -3.1487699e-04   5.0672519e-05  -2.9547987e-04  -4.4490816e-04  -2.0775257e-04   2.2097665e-04  -9.3338233e-05  -1.9988415e-04  -3.3285943e-04   6.4019455e-06  -4.5580219e-04  -4.5949646e-04  -3.4080312e-04  -4.4644065e-04  -1.5322235e-05  -1.6558235e-05  -3.1936381e-04  -3.7158985e-04  -5.4757547e-04  -2.8534117e-04  -3.0026323e-04  -3.7261957e-04  -2.5913422e-04  -4.7993052e-04  -2.1803820e-04  -3.0125983e-04  -1.8289879e-04  -2.4449502e-04
   2.4110204e-05   1.1884617e-04  -1.9432916e-04  -3.8527302e-05  -2.8351616e-05   2.4544980e-04   1.1948460e-04  -6.7605280e-05   1.4700749e-04   6.9561538e-05  -4.8950355e-05   4.7541453e-05   4.3714794e-05  -1.3033430e-04  -5.3107819e-05  -2.2534833e-04  -2.5259724e-04  -1.1376452e-04   1.8789591e-05  -2.1261661e-04   5.2232399e-06   2.9681361e-05   6.6478369e-06   2.8898250e-04  -2.0559398e-04  -2.6266539e-04  -4.1464580e-05   7.1304297e-05  -6.0053484e-05  -7.4895717e-05  -9.5252668e-05   1.2484941e-04  -6.5169684e-06  -2.6475682e-04  -1.1537495e-04  -1.9855227e-04   2.7785733e-05   6.0011440e-05  -1.1183852e-04  -1.2394681e-04  -3.9631399e-04  -2.2155468e-04  -2.3811305e-04  -1.5664521e-04  -2.6102358e-04  -5.8086496e-04  -1.9338100e-04  -1.9285169e-04  -1.8269225e-04  -1.6403146e-04
   4.5784313e-05   6.2464489e-05  -1.6951855e-04  -7.4425909e-05  -6.6385175e-05   9.5548006e-05   3.4754259e-05  -1.0545627e-04   7.9022095e-05  -3.8668964e-05  -9.2877191e-05  -6.6460666e-06  -4.4543958e-05  -1.9780629e-04  -7.1550916e-05  -2.5227785e-04  -2.5832947e-04  -1.3320240e-04  -1.4969836e-04  -2.9505984e-04  -1.2207933e-04  -7.8351914e-05  -1.3361451e-04   2.1085299e-04   1.4267802e-05  -3.3563652e-04  -1.0198526e-04   3.1952342e-05  -8.2468658e-05  -1.4582307e-04  -2.3758138e-04   9.2314302e-05  -3.7338026e-04  -3.4999466e-04  -2.5037694e-04  -3.8006919e-04   4.4149452e-05  -2.9321145e-05  -2.4918630e-04  -2.7445945e-04  -6.4326002e-04  -2.7964590e-04  -3.8774952e-04  -6.7509763e-04  -4.9040455e-04  -5.5287383e-04  -3.3167758e-04  -3.9838231e-04  -4.8745927e-04  -4.2015919e-04
  -2.7750211e-04  -3.2101732e-04  -4.1615599e-04  -3.2487913e-04  -3.5072997e-04  -2.2429535e-04  -3.3850767e-04  -2.7588851e-04  -3.1429032e-04  -3.0644977e-04  -3.1459503e-04  -2.3100237e-04  -2.4683107e-04  -3.4922225e-04  -2.7501653e-04  -4.2834389e-04  -3.9981445e-04  -1.6229622e-04  -3.7892800e-04  -5.6164741e-04  -3.8362961e-04  -3.0386157e-04  -2.6984219e-04  -6.8645036e-06  -2.1080865e-04  -5.3338287e-04  -1.3861903e-04   1.2355749e-04  -9.4785115e-05  -2.2702536e-04  -3.2264434e-04  -1.2486053e-05  -5.0507655e-04  -3.8886216e-04  -3.4649245e-04  -4.5318421e-04  -3.8153648e-05  -5.7346205e-07  -1.9970050e-04  -3.0856542e-04  -4.0402872e-04  -2.9502658e-04  -3.1496922e-04  -3.8429521e-04  -4.0203263e-04  -5.4925308e-04  -3.0056140e-04  -3.8547715e-04  -2.2925090e-04  -2.7310496e-04
  -1.6051332e-05   6.2270883e-05  -1.9898231e-04  -8.4685977e-05  -6.1715531e-05   1.4702686e-04   7.1229464e-05  -8.7615612e-05   1.0046657e-04  -3.9743954e-05  -1.1767096e-04  -6.0015293e-05  -7.3139505e-05  -2.3352362e-04  -9.3092058e-05  -2.5924834e-04  -2.6248684e-04  -1.0877528e-04   4.8606806e-05  -2.7812694e-04  -1.0455148e-04  -9.1822556e-05  -9.9295547e-05   1.5402643e-04  -3.5812747e-05  -3.5096909e-04  -1.2855593e-04   1.7253660e-05  -8.2606683e-05  -1.5149506e-04  -2.0075873e-04   3.9485578e-05  -5.0809002e-04  -3.2019537e-04  -2.2001816e-04  -2.8088794e-04   9.1784990e-05   7.7613222e-05  -2.8793071e-04  -1.9691225e-04  -5.6901085e-04  -2.9607699e-04  -1.0963500e-04  -3.9184693e-04  -3.5925061e-04  -6.9478678e-04  -2.7198321e-04  -3.4645959e-04  -3.4662956e-04  -3.5627428e-04
  -6.7720015e-05  -6.9400332e-05  -2.4914811e-04  -1.7605355e-04  -1.6024910e-04  -3.8212445e-05  -9.4917224e-05  -1.5660627e-04  -1.1320836e-04  -1.9955059e-04  -2.1197915e-04  -1.6498708e-04  -2.1042381e-04  -2.8451227e-04  -1.8465897e-04  -3.2846734e-04  -3.3070668e-04  -1.0669847e-04  -2.0903442e-04  -4.3569694e-04  -2.5254008e-04  -2.6147996e-04  -2.3812856e-04   6.8851485e-05  -2.3839127e-04  -4.8039670e-04  -1.4875096e-04  -1.4110763e-05  -1.1515233e-04  -2.1696951e-04  -3.1838025e-04  -2.7785054e-05  -4.3975445e-04  -4.9587560e-04  -3.2973019e-04  -5.8413972e-04  -6.2202787e-05   2.8380439e-06  -3.6383275e-04  -4.3857380e-04  -6.7476049e-04  -4.9022224e-04  -3.6022827e-04  -7.2657922e-04  -6.1804883e-04  -7.8102504e-04  -4.7291347e-04  -6.1170041e-04  -6.9032487e-04  -6.3151884e-04
  -4.4860723e-04  -5.2906974e-04  -5.3942867e-04  -4.6629147e-04  -4.4662607e-04  -4.7261338e-04  -4.8661651e-04  -3.8398927e-04  -5.3509802e-04  -4.9915642e-04  -4.5555705e-04  -4.1494388e-04  -3.9573020e-04  -4.5800291e-04  -2.8844067e-04  -4.4797914e-04  -4.5304719e-04  -1.5571827e-04  -4.7780911e-04  -5.9193862e-04  -3.5122436e-04  -3.8752053e-04  -2.8244246e-04  -4.7829228e-05  -4.3867514e-04  -5.0269277e-04  -1.4712245e-04   2.1484158e-04  -8.5790620e-05  -1.5432849e-04  -2.6232729e-04  -3.9700739e-05  -4.8751783e-04  -5.5135647e-04  -3.4491663e-04  -3.9876049e-04   9.8443714e-05  -5.2635833e-06  -1.6012226e-04  -3.5538748e-04  -5.7888904e-04  -3.4363259e-04  -3.5643182e-04  -4.0639905e-04  -4.2597225e-04  -6.9340150e-04  -3.3115773e-04  -3.5695278e-04  -2.4584861e-04  -3.6237831e-04
   3.5901783e-06   6.9762267e-05  -1.8986753e-04  -7.2271818e-05  -2.8104712e-05   1.1245458e-04   8.6995613e-05  -1.4588438e-04   5.0470731e-05  -1.3043490e-04  -1.2518822e-04  -1.3689004e-04  -1.2011094e-04  -2.7386876e-04  -1.0877415e-04  -2.7966590e-04  -3.6390443e-04  -1.4949124e-04  -1.1981995e-04  -4.1396881e-04  -1.6317895e-04  -2.5401864e-04  -1.0985697e-04   5.2551299e-05  -9.5024607e-06  -4.1692067e-04  -9.6298732e-05   6.2345443e-06  -1.1313354e-04  -1.8751659e-04  -2.5898058e-04   9.7752882e-06  -5.1212811e-04  -5.1306939e-04  -2.7469790e-04  -4.4601090e-04  -1.3382572e-05   4.0498519e-05  -3.3581990e-04  -4.2238957e-04  -7.0229499e-04  -2.5366936e-04  -4.2510268e-04  -5.0437194e-04  -5.2168878e-04  -6.8955962e-04  -3.4525734e-04  -4.2027477e-04  -3.8018450e-04  -4.5933109e-04
  -1.2441019e-04  -1.3012953e-04  -2.7433998e-04  -1.9371603e-04  -1.7350010e-04  -1.2465731e-04  -1.0574426e-04  -2.7784618e-04  -2.2178961e-04  -3.0356215e-04  -2.3637147e-04  -2.3925467e-04  -2.2433751e-04  -3.2839991e-04  -2.2700723e-04  -3.7147242e-04  -4.0567602e-04  -1.8557737e-04  -3.3714052e-04  -5.5130344e-04  -2.9789179e-04  -4.0378375e-04  -2.2235156e-04  -3.6769761e-05  -4.0614896e-04  -5.3130643e-04  -2.3058878e-04  -4.5944098e-06  -1.6633443e-04  -2.4487195e-04  -4.0513842e-04  -7.3033298e-05  -6.5921905e-04  -7.2879333e-04  -4.4099745e-04  -5.8564183e-04  -8.4249259e-05  -3.2499203e-05  -3.8228219e-04  -6.2574208e-04  -8.2160893e-04  -4.8271200e-04  -5.4644939e-04  -8.3805056e-04  -7.6197629e-04  -8.5815467e-04  -5.0739269e-04  -6.6478428e-04  -8.1423897e-04  -7.1780843e-04
