   5.1763218e-05   6.3483540e-06   2.7394739e-05   7.1004361e-05   5.3144406e-05   6.9133865e-05   1.5534456e-04   1.8201268e-04  -1.8201699e-05   7.8399979e-05  -3.1290627e-05   2.2672614e-04   2.5780346e-05   2.9378725e-04   1.4398032e-04   2.2437115e-04   2.6663800e-04   1.2677764e-04   4.6346595e-05   8.7646433e-05   7.9817481e-05   1.8869688e-04   6.6008462e-05   1.6554142e-04   1.1635758e-04   9.7836186e-05   1.9378791e-04   1.6264043e-04   2.1752939e-04   1.2506242e-04   2.0780333e-05   1.8323521e-04   1.8326586e-04   1.1724882e-04   4.8438138e-05   1.2370326e-04   3.2664240e-05   5.3786494e-05   9.0403279e-05   4.6422658e-05   5.0378923e-05   1.9962675e-04   5.0138064e-05   4.1641822e-05   1.2342434e-04   6.4442470e-06   2.3371751e-04   1.0098612e-04   1.5206772e-04   1.4379033e-04
   8.0757090e-05   6.5156775e-05   4.8183283e-05   1.0853788e-04   4.9582319e-05   8.0394777e-05   1.6707477e-04   1.6928806e-04   1.0602736e-05   8.1573897e-05  -1.6700544e-05   2.4363710e-04   3.6107314e-05   3.0809286e-04   1.5428013e-04   2.1005231e-04   2.5248251e-04   1.1082197e-04   9.7911266e-05   1.3184673e-04   1.0860365e-04   2.5644497e-04   8.6256921e-05   1.5723797e-04   1.4710138e-04   1.5082302e-04   2.0194829e-04   1.5917388e-04   2.0852264e-04   1.1877390e-04   2.2878447e-05   1.8223452e-04   2.1869842e-04   1.4030961e-04   5.7997946e-05   1.6451281e-04   2.6647875e-05   6.4953085e-05   1.0222541e-04   6.9551192e-05   5.3082738e-05   1.6879846e-04   4.0208120e-05   5.0202470e-05   1.6943246e-04   2.6591835e-05   2.6362084e-04   9.9345154e-05   1.7624731e-04   1.2586944e-04
   6.7730434e-05   3.8649494e-05   3.8527356e-05   9.7417171e-05   4.3745891e-05   7.7961478e-05   1.6280674e-04   1.7669510e-04  -6.0304242e-06   7.0203241e-05  -1.4013983e-05   2.2688498e-04   4.3016640e-05   3.1341441e-04   1.5528353e-04   2.1815980e-04   2.6258288e-04   1.1510951e-04   8.1854181e-05   1.0894905e-04   9.3618131e-05   2.1861712e-04   7.5838696e-05   1.3682042e-04   1.5136757e-04   1.2619150e-04   2.1972062e-04   1.4669876e-04   2.1788526e-04   1.2074925e-04   2.7878716e-05   1.8225025e-04   1.7394061e-04   1.2448432e-04   6.7252768e-05   1.4940869e-04   1.7223156e-05   5.6717567e-05   9.5093208e-05   6.9344169e-05   3.2597422e-05   2.2960154e-04   1.5092242e-05   3.3148157e-05   1.7191222e-04   2.8296074e-05   2.5681115e-04   8.5884451e-05   1.5649428e-04   1.2556516e-04
   4.2012409e-05   1.2008956e-05   1.4632602e-05   6.7089124e-05   4.9508119e-05   7.5992102e-05   1.6131329e-04   1.8988256e-04  -4.6444264e-05   5.1423456e-05  -4.1624688e-05   2.2049439e-04   5.1127350e-05   3.0146595e-04   1.4981377e-04   2.2033189e-04   2.4990959e-04   1.2177109e-04   9.1978945e-05   1.2827842e-04   7.7932440e-05   2.4035707e-04   7.1016693e-05   1.5869227e-04   1.9168893e-04   1.5464237e-04   1.9696557e-04   1.4082697e-04   2.2012500e-04   1.1854173e-04   2.8073804e-05   1.8246181e-04   1.8966028e-04   1.3397362e-04   6.4684878e-05   1.5908210e-04   3.1703908e-05   6.7272085e-05   1.0726118e-04   6.9988557e-05   6.2829815e-05   1.8505598e-04   2.9810199e-05   6.0361413e-05   2.0380672e-04   3.8133348e-05   2.5315006e-04   1.0342845e-04   1.9896784e-04   1.2957459e-04
   7.2744813e-05   3.9041250e-05   4.9737755e-05   1.2016612e-04   4.8958700e-05   8.5342981e-05   1.6542563e-04   1.7568927e-04   1.7066050e-05   5.1425828e-05  -1.1589132e-05   2.1657121e-04   6.0004080e-05   3.1744907e-04   1.6191398e-04   2.1011473e-04   2.5261095e-04   1.1834825e-04   8.2946935e-05   1.3892894e-04   1.1891685e-04   2.4380040e-04   8.8917695e-05   1.7069148e-04   1.8842978e-04   1.4607725e-04   2.0368137e-04   1.6132266e-04   2.5115782e-04   1.2078183e-04   5.3130261e-05   1.7260037e-04   2.0013934e-04   1.2241302e-04   7.1196759e-05   1.2758083e-04   4.1441443e-05   5.4163931e-05   1.1325286e-04   8.8547626e-05   4.2745389e-05   2.0306185e-04   3.6382557e-05   3.8626426e-05   2.2389930e-04   3.9198567e-05   2.4329952e-04   9.2134091e-05   1.7963152e-04   1.1102797e-04
   5.5746597e-05   4.4713266e-05   3.1415890e-05   1.0440645e-04   5.1445764e-05   9.2453352e-05   1.6053468e-04   1.7565866e-04  -4.3541098e-05   2.1397780e-05  -3.4747405e-05   1.7796954e-04   6.7017427e-05   3.0103125e-04   1.6194370e-04   2.0520299e-04   2.6436275e-04   1.3618240e-04   7.7062134e-05   8.8295281e-05   8.9744797e-05   2.4306274e-04   8.9380170e-05   1.5216197e-04   1.3089021e-04   1.0908410e-04   2.3388256e-04   1.4427354e-04   2.7788978e-04   1.3776858e-04   8.1669270e-05   1.5809247e-04   2.1449590e-04   9.0927890e-05   7.1813207e-05   1.3197222e-04   5.4418313e-05   8.1829137e-05   1.0718900e-04   8.3248575e-05   3.5432335e-05   1.8035095e-04   2.2824661e-05   2.9446224e-05   2.1799194e-04   5.6825058e-05   2.2471513e-04  -6.4644710e-06   7.0923437e-05   9.1203547e-05
   5.5092485e-05   6.2673053e-06   4.4361201e-05   1.1986526e-04   6.5957531e-05   1.1722226e-04   1.5558430e-04   1.8129971e-04  -2.4200843e-05  -1.2432552e-05  -5.8976846e-05   1.6517792e-04   6.4381289e-05   2.7374679e-04   1.6265563e-04   1.8634273e-04   2.4263415e-04   1.4628679e-04   1.0539874e-04   9.0993017e-05   1.4727273e-04   3.0990888e-04   9.9198667e-05   1.6955755e-04   1.6637318e-04   1.3709810e-04   2.5178998e-04   1.5595293e-04   2.7781128e-04   1.5071017e-04   1.2595853e-04   1.2456550e-04   2.4348882e-04   1.0249109e-04   8.3284707e-05   1.4555466e-04   7.7666395e-05   1.1948339e-04   1.1921175e-04   1.2625121e-04   5.4610700e-05   1.8668191e-04   3.1557058e-05   5.6199555e-05   1.7985216e-04   1.2490006e-04   1.8962349e-04   2.3156708e-06   1.4395280e-04   7.0820875e-05
   5.8792157e-05   3.8372935e-05   6.7054076e-05   1.5211456e-04   7.5002827e-05   1.6369742e-04   1.7284673e-04   1.5342524e-04  -5.3893546e-06  -4.0083305e-05  -2.8141218e-05   1.0990894e-04   6.2000632e-05   2.2489452e-04   1.7573718e-04   1.7814968e-04   2.2620236e-04   1.7263919e-04   9.8000230e-05   9.5655094e-05   1.2364252e-04   2.0525549e-04   1.5141591e-04   1.4123697e-04   1.0838897e-04   1.0342417e-04   2.9042194e-04   1.6870760e-04   3.2734586e-04   1.8769018e-04   1.8901507e-04   1.1780283e-04   2.3438377e-04   7.5437994e-05   1.0136240e-04   1.0371942e-04   1.4280190e-04   1.5074677e-04   1.1579112e-04   1.5028950e-04   4.0046783e-05   9.5929674e-05   1.5150611e-06   1.1901237e-06   2.0522546e-04   6.5338412e-05   1.4268792e-04  -5.1471314e-05  -4.1615429e-05  -3.3228880e-05
  -1.1601259e-05  -4.0706025e-05   1.1171707e-04   1.5656401e-04   1.0089285e-04   2.4167068e-04   1.8739227e-04   1.1949718e-04  -1.7107493e-05  -1.4262130e-04  -8.7750377e-06  -3.0892502e-06   4.5468561e-05   1.5256535e-04   1.7219140e-04   1.6974661e-04   2.0066480e-04   2.0514018e-04   8.2787665e-05   6.7953442e-05   1.2783112e-04   1.1402660e-04   1.3898355e-04   1.2106125e-04   7.8140081e-05   5.0081158e-05   3.1417012e-04   1.6481440e-04   3.2446001e-04   1.9119933e-04   2.0332169e-04   1.0025410e-04   1.7423400e-04   5.1593375e-05   9.3847237e-05   1.0930603e-04   1.1700660e-04   1.5953192e-04   1.1087307e-04   1.2628578e-04  -3.4032628e-06   1.5622702e-04  -3.4345747e-05   4.8245714e-05   1.7813794e-04   6.3507388e-05   1.5250329e-04   5.1091491e-05   9.7834954e-06   1.0546379e-04
  -8.0438458e-06  -2.2792739e-05   1.0060987e-04   1.3764083e-04   7.8641984e-05   1.9794262e-04   1.8305103e-04   1.4539008e-04   3.2516476e-05  -7.8034660e-05  -2.3739076e-05   4.3000662e-05   7.3999930e-05   2.0067110e-04   1.6423863e-04   1.6110332e-04   1.8255864e-04   1.6019744e-04   1.2998308e-04   7.8338046e-05   1.2739591e-04   1.5015525e-04   1.2936420e-04   1.1904251e-04   1.3975421e-04   1.1581981e-04   2.8522694e-04   1.7760077e-04   3.2263473e-04   1.6816330e-04   1.7842691e-04   1.0270885e-04   2.5830831e-04   8.2331360e-05   9.7649172e-05   1.1027283e-04   1.1770004e-04   1.5499128e-04   1.3336031e-04   1.4554142e-04   3.6465823e-05   1.3205509e-04  -3.0541319e-06   4.2498894e-05   1.5300362e-04   6.5774060e-05   1.1598875e-04   3.7660328e-05   3.4836645e-05   5.5978406e-05
   5.2272990e-06   1.6049260e-05   6.2432635e-05   1.1683570e-04   6.4519190e-05   1.7330557e-04   1.7103946e-04   1.3477507e-04   3.7172693e-05  -6.5645370e-05  -7.2790363e-06   4.0217219e-05   7.3965333e-05   2.0470169e-04   1.7298597e-04   1.5588041e-04   1.8312449e-04   1.7097886e-04   1.2170589e-04   4.6254376e-05   1.1265494e-04   1.2117478e-04   1.2848334e-04   1.0768501e-04   1.1675141e-04   7.9640602e-05   2.7694006e-04   1.7270954e-04   2.9656952e-04   1.7320502e-04   1.7221837e-04   1.0069499e-04   2.1813098e-04   7.9698999e-05   9.7093907e-05   1.1493952e-04   1.0817895e-04   1.3901756e-04   1.1838036e-04   1.3141622e-04   1.8696152e-05   1.1658241e-04  -1.4788688e-05   1.9934381e-05   2.3631955e-04   4.6089754e-05   1.3137035e-04  -6.8316381e-06   1.0758082e-04   1.2768392e-05
  -5.7846164e-06   1.0046078e-05   4.8381229e-05   9.2070222e-05   6.9717375e-05   1.7528700e-04   1.5744596e-04   1.3531295e-04  -7.5736598e-06  -7.3012998e-05  -2.7039767e-05  -2.6541379e-06   7.3701667e-05   1.7749840e-04   1.4714878e-04   1.5655608e-04   1.9101643e-04   1.7371155e-04   1.1131453e-04   3.9716484e-05   1.3013894e-04   1.0257171e-04   1.1022031e-04   1.1274537e-04   8.6243068e-05   4.2510928e-05   2.8515892e-04   1.5200670e-04   2.7295461e-04   1.6115374e-04   1.5967285e-04   9.8957411e-05   1.8717728e-04   4.1374624e-05   8.2563864e-05   8.6971944e-05   1.1233187e-04   1.3334934e-04   1.2258637e-04   1.2149894e-04   6.4752112e-06   1.5523496e-04   1.0707266e-05   5.5046075e-05   2.3127816e-04   8.3510415e-05   1.3996841e-04  -2.4484725e-05   5.4093049e-05   7.1517221e-05
   2.3757626e-05   1.5224799e-05   6.3122548e-05   1.2425988e-04   6.7597146e-05   1.7078435e-04   1.6103595e-04   1.5223652e-04   2.1845988e-05  -1.0794742e-04  -3.8131579e-06   4.8557173e-05   8.7542052e-05   2.1753278e-04   1.6710632e-04   1.4705511e-04   1.8607326e-04   1.4963521e-04   1.1206269e-04   7.0961796e-05   7.3080068e-05   1.9922752e-04   1.3851962e-04   1.3789088e-04   1.5883177e-04   1.2651889e-04   2.9493132e-04   1.6243181e-04   2.7471970e-04   1.5169638e-04   1.4834726e-04   1.0581349e-04   2.4460012e-04   1.1127786e-04   9.8777498e-05   1.1738425e-04   1.0353702e-04   1.3706875e-04   1.2750343e-04   1.3917331e-04   8.9911173e-06   1.2590324e-04   1.6358023e-05   6.8067689e-05   2.0195768e-04   8.1888240e-05   1.7417595e-04   7.3049945e-05   7.9080884e-05   8.5411870e-05
   2.3835488e-05  -7.6315027e-06   5.5416051e-05   1.0446465e-04   6.5544322e-05   1.6181075e-04   1.5600094e-04   1.4360104e-04   2.5657246e-05  -9.0642330e-05  -8.3523919e-06   3.6281035e-05   8.4668849e-05   2.2233097e-04   1.5886086e-04   1.4647598e-04   1.9336364e-04   1.4883593e-04   1.1099032e-04   7.7448349e-05   7.7495002e-05   1.7388441e-04   1.2627179e-04   1.8256357e-04   1.3066219e-04   1.0629205e-04   2.7903973e-04   1.7706855e-04   2.7811615e-04   1.5078684e-04   1.4030357e-04   1.1651431e-04   2.7140637e-04   9.4371127e-05   8.6647517e-05   1.0111189e-04   8.5993648e-05   1.3733610e-04   1.1087978e-04   1.2356814e-04  -1.3935593e-05   1.3839727e-04  -1.9462734e-05   4.3349413e-05   2.5115631e-04   9.2950082e-05   1.8348549e-04   1.3799099e-05   7.6069227e-05   8.3367042e-05
  -8.3042835e-09  -1.9240852e-05   1.0325780e-05   5.9031878e-05   6.3612359e-05   1.4448892e-04   1.4742890e-04   1.4200597e-04   1.1020487e-05  -1.0085150e-04  -3.3783348e-05   4.4419321e-05   7.5988522e-05   2.1402937e-04   1.3942007e-04   1.4414555e-04   1.8450996e-04   1.4971773e-04   1.1994265e-04   6.4167893e-05   1.0721086e-04   2.1541936e-04   1.1727712e-04   1.7145529e-04   1.7402746e-04   1.1298877e-04   2.8563981e-04   1.6312639e-04   2.5802958e-04   1.4285355e-04   1.3239049e-04   1.0719866e-04   2.5155101e-04   9.3384217e-05   9.2917689e-05   1.2879238e-04   1.0741403e-04   1.3570699e-04   1.1629212e-04   1.2149021e-04   2.8185664e-06   1.1861233e-04  -7.0401270e-06   6.4769374e-05   2.0092890e-04   8.3075800e-05   1.6527020e-04   4.6355426e-06   7.1375027e-05   8.2936182e-05
   3.7056790e-05   5.6221224e-06   1.8338673e-05   9.2962800e-05   5.7502431e-05   1.4608387e-04   1.4568113e-04   1.5765239e-04   1.3901464e-05  -9.0922200e-05   1.2953431e-06   6.1190382e-05   7.7226345e-05   2.3887829e-04   1.5339426e-04   1.4147435e-04   1.9445937e-04   1.4051920e-04   1.2184156e-04   6.4659631e-05   7.2088180e-05   2.1443843e-04   1.3311519e-04   1.6275016e-04   1.6136476e-04   1.0837127e-04   2.5213207e-04   1.6839486e-04   2.4192862e-04   1.3467186e-04   1.1810588e-04   1.2441952e-04   2.3136589e-04   1.0477455e-04   8.4743515e-05   1.3029305e-04   9.8589997e-05   1.2531361e-04   1.0265711e-04   1.2435477e-04   7.5846151e-07   1.1763440e-04  -4.5573024e-06   5.9562622e-05   1.6627181e-04   7.3235940e-05   1.6682132e-04   4.3625441e-06   9.7958946e-05   1.1316301e-04
   1.8037053e-05  -8.6287710e-06   4.1356802e-06   7.4297372e-05   6.0407383e-05   1.2726169e-04   1.4759175e-04   1.5371948e-04   7.2254647e-06  -1.0164221e-04  -1.3356603e-06   3.8327518e-05   7.2756797e-05   2.3772445e-04   1.3551745e-04   1.4884119e-04   2.1524612e-04   1.4489163e-04   8.6411441e-05   4.3292759e-05   6.5663065e-05   1.6844268e-04   1.1960919e-04   1.6379665e-04   1.1390259e-04   6.8306996e-05   2.6627575e-04   1.6959611e-04   2.5905107e-04   1.3818100e-04   1.1343431e-04   1.2488088e-04   1.9968115e-04   9.5220224e-05   7.2720999e-05   1.0729178e-04   9.2679176e-05   1.2055935e-04   9.8951234e-05   1.0771282e-04   2.1443022e-06   1.1061941e-04  -1.1037423e-05   4.4721139e-05   2.0229425e-04   8.1013386e-05   1.8003288e-04   2.7382137e-05   1.8599887e-05   1.0711390e-04
   4.5439177e-05   2.4233730e-05   2.3096012e-05   9.9337645e-05   5.7996094e-05   1.2994467e-04   1.5186197e-04   1.6022589e-04   2.7092283e-05  -8.9437002e-05   2.1263336e-06   5.4074822e-05   6.4087209e-05   2.3374890e-04   1.4314026e-04   1.3699092e-04   2.0174767e-04   1.2883925e-04   1.3004419e-04   6.8708912e-05   1.4006773e-04   2.3663767e-04   1.1267489e-04   1.5151514e-04   1.5605806e-04   1.2481055e-04   2.5853884e-04   1.6330201e-04   2.4466839e-04   1.2988344e-04   1.1533134e-04   1.3135826e-04   2.2859247e-04   1.2273612e-04   8.4741507e-05   1.2817586e-04   9.2880480e-05   1.3542897e-04   1.2538293e-04   1.2916444e-04   5.4473179e-07   1.2235690e-04   7.5714574e-06   7.0925693e-05   2.0876988e-04   9.2013921e-05   2.0032708e-04   2.6268384e-05   1.0620766e-04   1.1418152e-04
   3.9602994e-05   2.4758703e-05   1.2952934e-05   9.2260103e-05   5.7056230e-05   1.2571662e-04   1.4958780e-04   1.4887538e-04  -5.0325116e-06  -9.6088334e-05   4.7894737e-06   5.2639694e-05   6.0319016e-05   2.3445573e-04   1.4349056e-04   1.4324352e-04   2.0950729e-04   1.2505497e-04   1.0058144e-04   6.9143745e-05   1.0337387e-04   2.1452803e-04   1.1658963e-04   1.5264972e-04   1.4400332e-04   1.0277780e-04   2.5928277e-04   1.5646132e-04   2.2599185e-04   1.3137264e-04   1.1398638e-04   1.2973759e-04   2.2610615e-04   1.0664960e-04   7.8527904e-05   1.3722494e-04   8.2137529e-05   1.1720553e-04   1.0799419e-04   1.0892343e-04  -6.1703349e-06   1.1551121e-04  -3.1064035e-05   4.9834001e-05   1.6203561e-04   7.2981871e-05   1.9983473e-04   7.2307208e-05   3.2487034e-05   8.4274492e-05
   9.7078828e-06  -2.1079559e-06  -7.8315015e-06   6.9840484e-05   5.8432717e-05   1.1669376e-04   1.4053968e-04   1.5631795e-04  -2.4084244e-05  -1.0827124e-04  -1.5016641e-05   5.2400908e-05   4.7944319e-05   2.1909097e-04   1.1554178e-04   1.5074857e-04   1.9403742e-04   1.3014351e-04   8.5272783e-05   3.0142060e-05   7.9346835e-05   2.3641399e-04   9.3815070e-05   1.3236665e-04   1.7227448e-04   1.0578432e-04   2.6105766e-04   1.4304559e-04   2.1515644e-04   1.1447197e-04   9.8951823e-05   1.2282765e-04   2.1129142e-04   1.0543101e-04   7.1262446e-05   1.3885139e-04   8.9669811e-05   1.3524263e-04   1.1556734e-04   1.2237293e-04   5.5899964e-06   1.1795081e-04  -2.1320822e-05   7.6253767e-05   1.9058242e-04   9.4764175e-05   2.1200215e-04   2.9885139e-05   6.8159257e-05   6.9414586e-05
   3.9122031e-05   4.4966735e-05   1.2896658e-05   1.0269511e-04   6.1539569e-05   1.1966851e-04   1.5379187e-04   1.4752657e-04  -7.1448562e-06  -1.0436313e-04   3.1670493e-06   6.6343819e-05   4.4177934e-05   2.3468943e-04   1.3085667e-04   1.4623061e-04   1.9714874e-04   1.1116733e-04   1.0108178e-04   5.7392361e-05   9.9128592e-05   2.6526212e-04   1.0306926e-04   1.5418492e-04   1.6164561e-04   1.1001581e-04   2.5893119e-04   1.6739039e-04   1.9976951e-04   1.1142615e-04   1.0595655e-04   1.2093713e-04   2.5427790e-04   1.1774019e-04   7.1707800e-05   1.2513540e-04   8.7653825e-05   1.1751515e-04   1.0315856e-04   1.0959143e-04  -1.9763240e-05   1.4508795e-04  -2.4376572e-05   8.3330473e-05   2.0118369e-04   1.1935128e-04   2.0714710e-04   9.2803130e-06   6.3205123e-05   9.2054266e-05
   1.9470217e-05   1.4414462e-05  -6.6819564e-07   8.5943117e-05   6.1135834e-05   1.1038189e-04   1.4752918e-04   1.5796021e-04  -2.8921939e-05  -1.1739396e-04  -5.1823081e-06   5.7729747e-05   3.2108321e-05   2.2375082e-04   1.2160382e-04   1.3998196e-04   2.0562345e-04   1.1810307e-04   8.8484005e-05   3.5660214e-05   8.2893923e-05   2.3788981e-04   9.5620700e-05   1.3726202e-04   1.5393012e-04   8.2407802e-05   2.4653846e-04   1.6398175e-04   2.0120702e-04   1.0962049e-04   1.0404546e-04   1.3469212e-04   1.9200570e-04   9.6628850e-05   7.3711337e-05   1.3699502e-04   8.6909800e-05   1.1357299e-04   1.0505001e-04   9.5515235e-05  -3.2585071e-05   8.3486935e-05  -4.9623384e-05   7.3633346e-05   2.0606357e-04   8.7248351e-05   2.2678846e-04   5.0166160e-05   9.5377400e-05   6.8283436e-05
   3.8560182e-05   1.3703111e-05   2.1724540e-05   1.1327140e-04   5.9665181e-05   1.1263388e-04   1.5346396e-04   1.5458399e-04   1.1068208e-05  -1.0487508e-04  -3.4049492e-06   7.7458659e-05   3.3641987e-05   2.3240256e-04   1.2750881e-04   1.3660130e-04   1.9051670e-04   1.0666165e-04   1.2171779e-04   4.2544896e-05   8.1504913e-05   2.7857927e-04   1.0521369e-04   1.3899966e-04   1.7624239e-04   1.2001843e-04   2.4505172e-04   1.6269083e-04   2.3600328e-04   1.0008053e-04   9.2696064e-05   1.2140275e-04   2.5019853e-04   1.2839121e-04   7.6086195e-05   1.3585939e-04   8.6598724e-05   1.1600694e-04   1.1539126e-04   1.1079909e-04  -2.2276779e-05   1.1138603e-04  -2.2512271e-05   9.5566698e-05   2.2808778e-04   9.5224968e-05   2.1384252e-04  -2.5892882e-06   6.4667031e-05   1.0021790e-04
   3.5839596e-05   2.0975489e-05   1.3896817e-05   1.0845246e-04   5.8646485e-05   1.0102119e-04   1.4976029e-04   1.6247777e-04  -2.1625818e-05  -1.1762742e-04  -2.1363035e-06   6.7140609e-05   2.4847763e-05   2.2074777e-04   1.2332146e-04   1.3726993e-04   1.9478941e-04   1.0350328e-04   9.0871661e-05   9.3135182e-05   6.9703157e-05   2.5850898e-04   9.2494171e-05   1.5608819e-04   1.5839259e-04   1.0970407e-04   2.3692098e-04   1.6434594e-04   1.8113339e-04   1.0687415e-04   8.9694695e-05   1.2483285e-04   1.7670318e-04   1.0604848e-04   6.5116197e-05   1.4865352e-04   7.2264076e-05   1.1101001e-04   1.0830847e-04   1.0794563e-04  -1.8892402e-05   7.3313786e-05  -4.1568190e-05   7.0829483e-05   1.7683837e-04   1.0152911e-04   1.9867290e-04   5.6022283e-05   5.6145531e-05   7.2017108e-05
   1.1172225e-05  -4.6290534e-06   5.4363350e-06   8.1598431e-05   6.3247404e-05   9.7525219e-05   1.5074253e-04   1.5697203e-04  -1.4471441e-05  -1.1214160e-04  -2.4724404e-05   6.6342553e-05   1.9145251e-05   2.0592072e-04   1.0649396e-04   1.3752661e-04   1.7837228e-04   9.2034941e-05   9.9445992e-05   9.5366900e-05   8.3733175e-05   2.6681082e-04   9.1512375e-05   1.4477677e-04   1.5906575e-04   1.2243846e-04   2.2240897e-04   1.6366126e-04   1.8901839e-04   9.9208781e-05   8.7307366e-05   1.0561133e-04   2.2568561e-04   1.1268683e-04   6.9449736e-05   1.4399050e-04   8.5326727e-05   1.0168038e-04   1.0491239e-04   1.1861791e-04  -2.6141131e-06   6.7611254e-05  -3.7651036e-05   7.5462660e-05   2.0519066e-04   6.7445748e-05   1.9976440e-04   3.2414562e-05   1.2894608e-04   5.0344399e-05
   4.7471553e-05   2.4239267e-05   3.1684856e-05   1.1724934e-04   6.0585498e-05   1.0277909e-04   1.5598194e-04   1.5756395e-04   2.2202190e-05  -9.6849399e-05   2.1851733e-06   7.3827920e-05   2.0007807e-05   2.0993002e-04   1.1794209e-04   1.2769944e-04   1.8282939e-04   8.9799680e-05   1.1103728e-04   6.6471192e-05   1.1499750e-04   2.6177877e-04   8.5725856e-05   1.4244192e-04   1.4417004e-04   1.0427491e-04   2.3108959e-04   1.4542339e-04   2.0066151e-04   9.4143841e-05   7.4828742e-05   1.1426031e-04   2.2197441e-04   9.9532888e-05   6.7156398e-05   1.4429286e-04   8.7318396e-05   9.4740200e-05   1.0520254e-04   1.0510794e-04  -3.1577580e-05   8.1877442e-05  -1.7915059e-05   5.8762656e-05   1.3600865e-04   6.8172827e-05   1.9437248e-04   5.9888414e-05   3.9749961e-05   6.0653809e-05
   3.2184413e-05   9.0554477e-06   2.5246198e-05   9.6536576e-05   6.3864652e-05   9.8070639e-05   1.4358808e-04   1.5498808e-04  -2.0088533e-05  -1.1070241e-04  -1.0290778e-05   5.2357762e-05   1.9945166e-05   1.9166674e-04   9.9952398e-05   1.3557049e-04   1.8975796e-04   8.5264030e-05   7.0338145e-05   5.6467470e-05   5.8963269e-05   2.3676378e-04   7.3062307e-05   1.4793134e-04   1.3209357e-04   6.9817899e-05   2.2716794e-04   1.5032722e-04   2.0321402e-04   9.6096795e-05   7.8049685e-05   1.1251194e-04   1.9741412e-04   7.1021394e-05   5.6651636e-05   1.2794961e-04   8.1289960e-05   7.6320102e-05   9.0456975e-05   9.1710215e-05  -4.9617091e-05   8.9303176e-05  -5.2695286e-05   7.0410890e-05   1.4878149e-04   9.2215327e-05   2.2138181e-04   5.2278177e-05   1.0765722e-04  -3.9283696e-06
   6.4531880e-05   1.2957767e-05   5.8145888e-05   1.2597184e-04   6.4990694e-05   1.1524707e-04   1.5480410e-04   1.5157877e-04  -3.5666208e-06  -1.0910636e-04  -6.4632050e-06   6.5492095e-05   2.3609644e-05   1.8614050e-04   1.0312844e-04   1.1560879e-04   1.7339358e-04   7.8406840e-05   1.2617023e-04   6.0861832e-05   8.6338514e-05   2.7480203e-04   8.2949300e-05   1.7700857e-04   1.4453412e-04   1.0247327e-04   2.1953907e-04   1.6178482e-04   1.7798244e-04   9.3389339e-05   7.8022946e-05   9.7195916e-05   2.2171499e-04   9.5242103e-05   5.8367987e-05   1.3473403e-04   9.2809831e-05   9.9778794e-05   1.1192978e-04   1.0438967e-04  -2.6937112e-05   6.6215791e-05  -2.5393600e-05   6.0731727e-05   1.7929100e-04   9.1315989e-05   2.0028367e-04   6.8405643e-05   7.9332385e-05   1.8155262e-05
   6.0919327e-05   2.4813229e-05   4.9528891e-05   1.1145882e-04   6.1993502e-05   1.0313958e-04   1.4387752e-04   1.3962113e-04   4.0178625e-06  -1.2182778e-04  -5.6980152e-06   5.0664352e-05   1.9004599e-05   1.7973730e-04   1.0244764e-04   1.2876661e-04   1.7785760e-04   8.4202824e-05   1.0414627e-04   6.6843633e-05   9.5640942e-05   2.3846206e-04   7.4968702e-05   1.4140256e-04   1.1995661e-04   8.2133651e-05   2.0345527e-04   1.5098417e-04   1.8023732e-04   9.4526971e-05   6.3835796e-05   1.0052084e-04   2.2108125e-04   8.0857535e-05   5.0348906e-05   1.3183831e-04   7.7302044e-05   8.5965592e-05   9.9094788e-05   8.9794557e-05  -2.2801094e-05   9.5023977e-05  -2.9876241e-05   5.2909643e-05   1.8161940e-04   7.6920667e-05   2.0619572e-04   3.3715129e-05   1.0543907e-04   3.5408793e-05
   3.8748210e-05   7.5772987e-06   3.2372380e-05   8.1877828e-05   6.9624613e-05   1.0174028e-04   1.4542788e-04   1.4732557e-04  -1.7890630e-05  -1.1550183e-04  -9.2262217e-06   2.8056187e-05   2.0384034e-05   1.6784026e-04   8.7812194e-05   1.4687789e-04   1.7711105e-04   8.5924534e-05   9.6247357e-05   7.8313569e-05   9.5944612e-05   1.5840311e-04   5.6230914e-05   1.4687132e-04   8.5396423e-05   5.6270179e-05   2.1715993e-04   1.4739089e-04   2.0676236e-04   1.0238175e-04   5.7399149e-05   9.7678640e-05   1.7440121e-04   5.7848676e-05   4.7572394e-05   9.8788980e-05   9.8583863e-05   7.7386954e-05   1.1049996e-04   1.0107651e-04  -1.2648939e-05   9.7247226e-05  -2.7642367e-05   4.2780019e-05   1.5266739e-04   6.2965024e-05   1.9320987e-04   2.9513185e-05   3.8713435e-05  -7.7546043e-05
   8.7541383e-05   3.7649435e-05   8.6274340e-05   1.2741078e-04   7.1891525e-05   1.3649602e-04   1.7024156e-04   1.5127931e-04   6.3798252e-05  -6.4380954e-05   3.9959643e-05   1.2656387e-05   3.2159856e-05   1.4625033e-04   7.8861805e-05   1.2892658e-04   1.5675055e-04   8.0748781e-05   1.5212882e-04   1.0310582e-04   1.0560199e-04   2.0191965e-04   7.2627685e-05   1.1218747e-04   1.2421477e-04   8.5163156e-05   2.0289129e-04   1.3939467e-04   1.6131002e-04   9.0366113e-05   4.2377986e-05   9.5023897e-05   1.7556193e-04   6.2137973e-05   4.5767596e-05   1.2452509e-04   8.5040505e-05   7.2311377e-05   9.9961631e-05   8.8949411e-05  -2.1980477e-05   9.2155140e-05  -2.1561793e-05   6.4709173e-05   1.6763661e-04   6.1516243e-05   1.9484213e-04   7.4696742e-05   7.9644793e-05   1.0266964e-05
   8.0537429e-05   5.1811490e-05   7.1058428e-05   1.0362710e-04   6.7571491e-05   1.1695958e-04   1.5093916e-04   1.5812235e-04   1.9143914e-05  -1.0198363e-04   1.1126183e-05   1.3140574e-05   4.1505533e-05   1.6415611e-04   8.3183499e-05   1.3198948e-04   1.5316273e-04   7.1016351e-05   1.1990539e-04   9.6441872e-05   9.6429227e-05   1.8403446e-04   6.8225003e-05   1.0976064e-04   9.4047668e-05   7.5750977e-05   1.9751817e-04   1.4752948e-04   1.7613311e-04   9.0826012e-05   3.0379917e-05   8.8052257e-05   1.9201968e-04   6.5931730e-05   5.1976833e-05   1.1938551e-04   7.3791896e-05   6.4072832e-05   9.1886832e-05   7.4974429e-05  -5.0422106e-05   9.5416370e-05  -1.3863196e-05   5.4135809e-05   1.2141884e-04   7.1765688e-05   2.0541923e-04   9.7017277e-05   1.6645323e-04   4.2798856e-05
   8.7708417e-05   1.0288564e-05   7.5453267e-05   1.0643600e-04   7.0109563e-05   1.1364187e-04   1.5806088e-04   1.6505520e-04   4.1878109e-05  -9.4395466e-05   1.2438446e-05   2.4200979e-05   4.8238562e-05   1.7692751e-04   8.0647216e-05   1.2745398e-04   1.4085879e-04   5.8965794e-05   1.6948786e-04   1.6489839e-04   8.7958855e-05   2.3501868e-04   5.9656202e-05   1.3849705e-04   1.4129496e-04   1.0588861e-04   1.8177825e-04   1.3647725e-04   1.4152072e-04   8.1522419e-05   3.3093871e-05   9.2461742e-05   2.4283785e-04   7.6434226e-05   5.3205611e-05   1.2496066e-04   7.8318582e-05   6.9210822e-05   9.7715172e-05   9.2177717e-05  -2.9226081e-05   1.3160457e-04  -3.1637121e-06   6.4224791e-05   9.3857263e-05   9.1894573e-05   2.0294174e-04   5.9380924e-05   1.2608356e-04   5.0605766e-05
   1.0486205e-04   5.1396230e-05   6.3565705e-05   1.1101496e-04   7.0173577e-05   1.1466436e-04   1.4936048e-04   1.5583528e-04   1.1877642e-05  -1.0318492e-04   1.2909642e-05   1.8477862e-05   5.1712912e-05   1.8421214e-04   9.6238939e-05   1.2879430e-04   1.5099651e-04   6.8677167e-05   1.6075559e-04   1.3802115e-04   6.3230989e-05   2.3629471e-04   7.4444273e-05   1.5152493e-04   1.2234102e-04   9.5417527e-05   1.7964799e-04   1.3309592e-04   1.5379350e-04   8.4791529e-05   3.2280572e-05   8.7485314e-05   2.1303014e-04   6.8919057e-05   6.1493221e-05   1.2201536e-04   8.3118815e-05   6.4117310e-05   1.0487431e-04   7.2706425e-05  -3.1578053e-05   9.4033057e-05  -1.7441398e-05   5.2489115e-05   1.4663499e-04   8.7603257e-05   2.0160391e-04   8.3141575e-05   1.3814973e-04   8.9026755e-05
   8.5556494e-05   2.2746259e-05   4.0177216e-05   9.1462622e-05   6.9316418e-05   1.0851013e-04   1.4994580e-04   1.5081190e-04   1.6003705e-05  -1.2584364e-04   4.0293271e-06   3.0077979e-06   6.1061844e-05   1.8456230e-04   1.0025465e-04   1.4148944e-04   1.5971130e-04   8.1650767e-05   1.3352737e-04   1.1497037e-04   1.1112313e-04   2.1525077e-04   6.1578350e-05   1.3577366e-04   1.3823752e-04   8.7772351e-05   1.9602035e-04   1.3404639e-04   1.6376241e-04   8.3763938e-05   4.0792002e-05   8.4832711e-05   1.8205709e-04   5.9136237e-05   5.3185871e-05   1.3399660e-04   8.2719831e-05   7.3309238e-05   1.1040390e-04   1.0554448e-04  -1.2114188e-05   1.0078456e-04  -1.0753830e-06   6.9936956e-05   1.2989066e-04   1.0282847e-04   2.0645902e-04   7.8914047e-05   1.8086156e-04   7.6393917e-05
   1.1018427e-04   4.1933657e-05   5.4231503e-05   1.2603098e-04   6.4932421e-05   1.1358711e-04   1.5859318e-04   1.5013113e-04   5.3872525e-05  -1.1028686e-04   2.0162182e-05   2.1229369e-05   7.4836156e-05   2.1441672e-04   1.1876500e-04   1.3447981e-04   1.5465046e-04   8.5967760e-05   1.7357794e-04   1.4623684e-04   6.6589222e-05   2.5985576e-04   8.1815080e-05   1.2852106e-04   1.4585270e-04   1.1256096e-04   1.8661068e-04   1.5399128e-04   1.8281826e-04   8.2932820e-05   4.0332692e-05   9.3524861e-05   2.1370688e-04   8.0189224e-05   7.0444119e-05   1.3386839e-04   7.7266122e-05   8.3144114e-05   1.1357805e-04   9.5301744e-05  -1.7168353e-05   9.6664327e-05  -2.4484680e-05   6.8165311e-05   1.5532237e-04   1.0067019e-04   2.1646611e-04   8.7370892e-05   1.7151955e-04   9.5785676e-05
   1.0235304e-04   7.1060509e-05   3.8097132e-05   1.1262568e-04   6.0574646e-05   1.2018087e-04   1.5639841e-04   1.5480675e-04   5.0656316e-05  -1.1447827e-04   1.3569444e-05   1.2914727e-05   8.2114027e-05   2.1761237e-04   1.1828356e-04   1.5256823e-04   1.7139566e-04   9.2721522e-05   1.6118270e-04   9.6770360e-05   6.5808708e-05   2.0784636e-04   8.0411686e-05   1.0188969e-04   1.2350602e-04   8.6987675e-05   1.9062354e-04   1.4553271e-04   1.7689263e-04   8.9435620e-05   5.1461007e-05   9.7135220e-05   1.9814508e-04   8.2701968e-05   6.9153190e-05   1.2943232e-04   8.8540728e-05   7.9042336e-05   1.0784619e-04   7.7381192e-05  -3.6894242e-05   1.0940871e-04  -4.0544560e-06   5.1195962e-05   1.5679147e-04   7.6420256e-05   2.1730603e-04   4.0325845e-05   1.3461859e-04   7.6259923e-05
   1.0232918e-04   3.9281476e-05   4.3859760e-05   1.1806575e-04   7.1449882e-05   1.2550472e-04   1.5298901e-04   1.5771769e-04   8.6259461e-06  -1.1321406e-04   2.8251463e-06   2.2330565e-05   8.9692519e-05   2.2436900e-04   1.2046962e-04   1.4656865e-04   1.6440802e-04   1.0254483e-04   1.6162332e-04   1.2839412e-04   9.2496091e-05   2.6407922e-04   8.4857602e-05   1.2788385e-04   1.5834348e-04   1.2162546e-04   1.9918436e-04   1.6634143e-04   1.6553333e-04   8.3698469e-05   5.7474441e-05   9.8618322e-05   2.2301571e-04   9.1282862e-05   7.8865967e-05   1.3273742e-04   9.4856383e-05   8.3510859e-05   1.1417079e-04   8.8439650e-05  -2.3462931e-05   1.0473294e-04   3.4245700e-06   6.2914580e-05   1.3990280e-04   1.0028354e-04   2.1249725e-04   6.8599242e-05   1.3214852e-04   1.2191191e-04
   1.0407190e-04   4.7846952e-05   3.4031895e-05   1.2860552e-04   6.6505934e-05   1.1916371e-04   1.5972045e-04   1.5452989e-04   1.6624219e-05  -1.1734478e-04   5.1144020e-06   1.4146328e-05   9.4821822e-05   2.3184302e-04   1.3553980e-04   1.5197234e-04   1.7257628e-04   1.0881829e-04   1.6931618e-04   1.1205607e-04   8.1258921e-05   2.4403841e-04   8.2165185e-05   1.3719367e-04   1.4667776e-04   1.0175425e-04   2.1923351e-04   1.4546217e-04   1.9414791e-04   8.8592453e-05   5.6256053e-05   8.8421199e-05   2.2818374e-04   8.9827088e-05   7.7909477e-05   1.3552800e-04   9.4421070e-05   8.3884297e-05   1.1418125e-04   8.1474071e-05  -2.0538149e-05   1.1021473e-04   2.7966988e-05   5.3419179e-05   1.7301127e-04   9.9627745e-05   1.7613807e-04   1.1184393e-04   1.5323878e-04   9.5312324e-05
   7.9673140e-05   6.2182485e-06   1.4591916e-05   1.0571210e-04   6.7960784e-05   1.1777225e-04   1.5559670e-04   1.5214541e-04  -6.0520684e-08  -1.3637220e-04  -2.3922448e-06  -4.3921436e-06   9.1143665e-05   2.3178104e-04   1.2441733e-04   1.5916678e-04   1.8116426e-04   1.1519977e-04   1.4541617e-04   9.1229107e-05   5.6147168e-05   1.8610874e-04   7.3953721e-05   1.3733281e-04   1.3610233e-04   8.4358049e-05   2.1335486e-04   1.6195244e-04   1.8651965e-04   8.8693669e-05   4.4806475e-05   1.0708314e-04   1.2996110e-04   6.8863250e-05   6.7725705e-05   1.2938651e-04   9.0975489e-05   9.1191032e-05   1.2147387e-04   9.1653805e-05  -4.9550104e-06   8.8305344e-05   4.7484387e-05   5.6903827e-05   1.4848835e-04   1.0508642e-04   2.2843467e-04   1.2656170e-04   1.8571562e-04   8.9204434e-05
   9.7526208e-05   6.5406028e-05   3.3415137e-05   1.3408036e-04   6.3551139e-05   1.2426505e-04   1.6038370e-04   1.3842943e-04   2.6373998e-05  -1.3246009e-04   3.5147542e-07   1.6168309e-05   9.6314157e-05   2.4981637e-04   1.3385534e-04   1.5199036e-04   1.7332617e-04   1.1576264e-04   1.5666486e-04   1.0939154e-04   7.1443057e-05   2.4421787e-04   9.5669850e-05   8.8649998e-05   1.5391645e-04   1.2058170e-04   2.2689610e-04   1.7486956e-04   1.9735862e-04   8.5424137e-05   5.6211269e-05   9.7863878e-05   1.7757999e-04   1.0297623e-04   8.2610641e-05   1.3813312e-04   1.0054767e-04   1.0233132e-04   1.1733283e-04   1.0260711e-04  -3.2005189e-06   6.2077444e-05   2.7172080e-05   6.5189335e-05   1.0407526e-04   9.1650560e-05   2.0026033e-04   1.2770246e-04   1.0309702e-04   1.1634419e-04
   7.4409254e-05   2.4429921e-05   2.3728195e-05   1.2414056e-04   6.5859364e-05   1.2595725e-04   1.5679658e-04   1.4805322e-04   2.4852059e-06  -1.5090888e-04  -7.5938947e-06  -8.5947659e-06   9.7591917e-05   2.4179790e-04   1.3081283e-04   1.5746680e-04   1.7098253e-04   1.1802214e-04   1.4500988e-04   9.5426993e-05   1.2166975e-05   1.9556329e-04   9.3713046e-05   1.1516656e-04   1.2797718e-04   1.0425253e-04   2.2025070e-04   1.8252437e-04   2.0732018e-04   9.9318335e-05   7.0867005e-05   1.0963639e-04   1.7638398e-04   8.1512779e-05   9.0993519e-05   1.4196489e-04   1.0979274e-04   1.1557464e-04   1.2042539e-04   1.0719861e-04   8.2296037e-06   9.9736440e-05   3.9283590e-05   2.9408835e-05   1.1780700e-04   7.1392962e-05   1.7378172e-04   1.0437313e-04   1.0969918e-04   1.1812717e-04
   7.0551250e-05   3.1575441e-05   3.5166417e-05   1.2501061e-04   6.3531465e-05   1.3369380e-04   1.5872312e-04   1.4078655e-04   3.5694615e-05  -1.3199555e-04  -3.7064108e-06  -1.3764623e-05   9.1942711e-05   2.3035382e-04   1.3144345e-04   1.4831594e-04   1.5161138e-04   1.2065627e-04   1.6799645e-04   9.0012240e-05   6.5215369e-05   1.7695551e-04   1.1069389e-04   1.3810805e-04   1.4648243e-04   1.3236690e-04   2.1468788e-04   1.8617057e-04   2.0747470e-04   9.3872615e-05   8.2368293e-05   9.4966497e-05   1.7564041e-04   1.0733496e-04   8.4927742e-05   1.1176827e-04   1.1638943e-04   1.3067837e-04   1.1994040e-04   1.4517091e-04   4.4075703e-05   9.8328746e-05   5.6438686e-05   6.0514587e-05   8.3361672e-05   8.9325957e-05   1.5982466e-04   1.0178916e-04   1.1364812e-04   8.1253376e-05
   6.8048656e-05   3.3952831e-05   3.4420162e-05   1.3050110e-04   5.8235360e-05   1.3742021e-04   1.6394729e-04   1.3673582e-04   4.2303534e-05  -1.3863460e-04   1.1298858e-05  -2.6763895e-05   9.0989241e-05   2.3767006e-04   1.4095336e-04   1.5159276e-04   1.5176073e-04   1.2148274e-04   1.2508967e-04   9.0139067e-05   1.5587406e-05   1.3267279e-04   1.1572852e-04   9.2641283e-05   1.5485547e-04   1.1046289e-04   2.3571598e-04   1.9312826e-04   2.1246067e-04   1.0098951e-04   8.8523520e-05   1.0524662e-04   1.5235227e-04   9.8107543e-05   9.7617878e-05   1.2317709e-04   1.1834680e-04   1.4275720e-04   1.2821403e-04   1.3306417e-04   5.3383672e-05   7.8672376e-05   7.0722504e-05   4.1317173e-05   6.0160328e-05   8.1031118e-05   1.6119353e-04   1.2090080e-04   5.8195455e-05   1.1343657e-04
   4.5115874e-05   1.1376049e-05   2.7230304e-05   1.0649496e-04   5.9417078e-05   1.3227144e-04   1.6131091e-04   1.2851313e-04   1.8463494e-05  -1.4585860e-04   6.4403494e-06  -5.2720556e-05   8.6985099e-05   2.1947362e-04   1.2815424e-04   1.5093622e-04   1.2934166e-04   1.1662455e-04   1.2215167e-04   7.9065016e-05   4.2634107e-05   1.0284301e-04   1.2411320e-04   9.2531933e-05   1.3483275e-04   1.3138790e-04   2.3036207e-04   1.7825289e-04   2.3031213e-04   1.0227082e-04   8.5767475e-05   9.4530660e-05   1.6492084e-04   1.2250156e-04   1.0412195e-04   1.1568100e-04   1.3958581e-04   1.4837833e-04   1.2802381e-04   1.3713702e-04   7.7258046e-05   7.7754070e-05   1.1482791e-04   3.9439830e-05   7.1511859e-05   9.6849006e-05   1.8345285e-04   1.6841259e-04   4.2245851e-05   9.3705632e-05
   6.8600326e-05   4.4491291e-05   6.0345286e-05   1.3940014e-04   5.4134427e-05   1.4274962e-04   1.6775572e-04   1.1229418e-04   4.4717803e-05  -1.2881984e-04   3.9679177e-05  -3.7462851e-05   8.9920592e-05   2.1922540e-04   1.4381064e-04   1.4333049e-04   1.2658347e-04   1.0523106e-04   1.2279552e-04   6.9908463e-05   5.5426903e-05   1.1417787e-04   1.0671531e-04   1.2174635e-04   1.4116564e-04   1.2593872e-04   2.1983776e-04   1.7759614e-04   2.0317339e-04   1.0111850e-04   9.2374190e-05   8.0793965e-05   1.5249723e-04   1.2187102e-04   1.0652615e-04   1.1762647e-04   1.2900271e-04   1.4570383e-04   1.1223622e-04   1.4574268e-04   6.3435291e-05   1.0085366e-04   1.1887000e-04   4.2063344e-05  -1.4277384e-05   5.9972877e-05   1.5389398e-04   1.6300761e-04   9.4768599e-05   9.9874116e-05
   5.3184638e-05   1.2305812e-05   3.6851161e-05   1.1096937e-04   5.1459712e-05   1.3579604e-04   1.5532342e-04   1.2719505e-04   1.8136721e-05  -1.4748423e-04   1.7098260e-05  -4.1990173e-05   8.1525344e-05   2.2331298e-04   1.3593528e-04   1.3801985e-04   1.2983698e-04   1.1827927e-04   9.2076654e-05   6.3506341e-05  -2.1255130e-06   9.2462891e-05   1.1834164e-04   1.1274253e-04   1.2780238e-04   1.0153445e-04   2.1789956e-04   1.8951119e-04   2.3975046e-04   1.0723832e-04   8.4660584e-05   9.4364012e-05   1.5374084e-04   1.0513366e-04   1.0627752e-04   1.1794917e-04   1.2836739e-04   1.5206437e-04   1.2330058e-04   1.3881836e-04   5.8336685e-05   6.3534448e-05   7.3453979e-05   3.3447755e-05   4.4506320e-05   7.7951023e-05   1.6820445e-04   1.3634334e-04   8.6779837e-05   7.2674360e-05
   6.7788984e-05   5.6306399e-05   5.1635008e-05   1.3263467e-04   5.7225297e-05   1.3579005e-04   1.5974940e-04   1.2947353e-04   6.5441389e-05  -1.1772296e-04   3.4186771e-05  -1.1238677e-05   9.0118294e-05   2.3203722e-04   1.3586585e-04   1.4121066e-04   1.1294192e-04   1.0882299e-04   1.5159183e-04   6.3077408e-05   6.8978901e-05   1.2208783e-04   1.2807619e-04   1.2088343e-04   1.4829393e-04   1.3566062e-04   2.1522969e-04   1.8950208e-04   2.3528440e-04   9.9969919e-05   9.9346667e-05   9.2375318e-05   1.6859458e-04   1.1696656e-04   1.0930961e-04   1.2137022e-04   1.4546838e-04   1.4902074e-04   1.2395915e-04   1.5222994e-04   6.3069834e-05   7.0072354e-05   8.6394386e-05   4.0195988e-05   6.1315273e-05   6.2372746e-05   1.9770603e-04   1.1914173e-04   4.6545963e-05   7.1307753e-05
   7.0402297e-05   3.1546253e-05   6.0495709e-05   1.2336735e-04   5.6505036e-05   1.3489192e-04   1.6145175e-04   1.2215415e-04   3.7592923e-05  -1.2140819e-04   4.0502251e-05  -4.7631791e-05   8.3634972e-05   2.1162443e-04   1.1521349e-04   1.2310814e-04   1.1050716e-04   9.6786272e-05   1.3051518e-04   6.0386334e-05   5.0351708e-05   1.1946314e-04   1.1669706e-04   1.1246672e-04   1.1449685e-04   1.0955650e-04   2.2460727e-04   1.8820856e-04   1.9449490e-04   9.0946254e-05   8.7429136e-05   8.1267855e-05   2.1400659e-04   1.1688277e-04   1.0037236e-04   8.4526924e-05   1.2244015e-04   1.3951703e-04   1.1613566e-04   1.3045824e-04   4.3390872e-05   6.8080226e-05   7.5099495e-05   3.1959047e-05   8.2263774e-05   5.3624470e-05   1.5463404e-04   1.5296275e-04   7.4792413e-05   9.0132096e-05
   4.2824013e-05   3.9348353e-05   4.1690884e-05   9.1725888e-05   5.8717367e-05   1.2703909e-04   1.4379277e-04   1.2823718e-04   2.8094779e-05  -1.2881818e-04   3.6313373e-05  -5.0563318e-05   7.1206094e-05   1.7961444e-04   1.0498653e-04   1.2544548e-04   1.0816354e-04   8.8860499e-05   1.0712468e-04   7.2577393e-05   8.8329514e-05   5.5735440e-05   1.0183422e-04   8.4871863e-05   1.0735035e-04   8.7564054e-05   2.1773783e-04   1.6556033e-04   2.2091928e-04   9.2994960e-05   8.2310711e-05   7.7165460e-05   1.7136651e-04   9.6483061e-05   1.0155571e-04   1.0490454e-04   1.2171440e-04   1.4017962e-04   1.2071492e-04   1.4919673e-04   6.3656087e-05   7.5229582e-05   8.5815685e-05   6.6672132e-05   7.9526777e-05   8.8736771e-05   1.5524143e-04   1.0858543e-04   5.6155044e-05   9.8430937e-05
   7.2055765e-05   2.4958350e-05   6.2928630e-05   1.1835536e-04   5.0760660e-05   1.2654864e-04   1.5903685e-04   1.2508701e-04   6.1085586e-05  -1.0709628e-04   5.1684554e-05  -3.2615288e-05   7.3017305e-05   1.9423009e-04   1.1518021e-04   1.1078704e-04   9.7065924e-05   8.6482105e-05   1.5877880e-04   4.3455228e-05   7.2158233e-05   1.2868110e-04   1.1781148e-04   1.1817526e-04   1.3980803e-04   1.1766032e-04   2.0755095e-04   1.7572708e-04   2.0084588e-04   8.2292849e-05   8.0193749e-05   6.9349902e-05   1.5953166e-04   9.9994213e-05   1.0404357e-04   1.2592276e-04   1.3758702e-04   1.3538953e-04   1.2370678e-04   1.4491830e-04   5.0864146e-05   6.1948747e-05   7.8290177e-05   4.6902656e-05   6.9537098e-05   5.3766755e-05   1.4692408e-04   7.3092706e-05   1.2531140e-04   1.1180268e-04
   4.7586673e-05   2.8767237e-05   4.1183815e-05   9.5346571e-05   5.4406493e-05   1.2458501e-04   1.4479076e-04   1.1990207e-04   2.4010385e-05  -1.2755228e-04   3.8238970e-05  -5.2062198e-05   6.4163272e-05   1.6270159e-04   9.8292861e-05   1.0666589e-04   9.6806507e-05   8.8474189e-05   1.2780578e-04   3.1858784e-05   7.2645897e-05   9.0033827e-05   1.1502202e-04   8.7421751e-05   1.0945258e-04   9.0383954e-05   1.9835036e-04   1.9135067e-04   2.0946856e-04   8.3048981e-05   7.8019948e-05   7.8328732e-05   1.7569565e-04   8.6829234e-05   9.8209166e-05   9.8533099e-05   1.4062798e-04   1.3800342e-04   1.0596785e-04   1.3237963e-04   3.2562086e-05   5.2327665e-05   2.1174177e-05   2.0923726e-05   4.0054703e-05   1.0322274e-04   1.4548528e-04   5.5008240e-05   7.8397650e-05   5.6328317e-05
   2.5278347e-05  -1.8289320e-05   1.8870174e-05   6.5515655e-05   5.6274595e-05   1.0982178e-04   1.3067493e-04   1.1817065e-04  -8.6128512e-06  -1.3264491e-04   1.7903014e-05  -6.5567867e-05   5.6331741e-05   1.6537718e-04   8.8096640e-05   1.0681608e-04   7.9114208e-05   7.8105521e-05   1.0229404e-04   7.7467048e-05   4.8525992e-05   1.0793700e-04   9.7088319e-05   8.8351459e-05   1.1926894e-04   9.6002215e-05   2.1498234e-04   1.6966723e-04   1.9955405e-04   8.3302824e-05   7.4858799e-05   7.7538745e-05   1.7444197e-04   8.9784575e-05   1.0023436e-04   1.0369485e-04   1.3621576e-04   1.4386825e-04   1.1126686e-04   1.4088707e-04   5.1091698e-05   9.2992843e-05   4.7500082e-05   5.4389297e-05   1.1081863e-04   8.6378714e-05   1.7682207e-04   8.8646746e-05   9.5759206e-05   8.5149411e-05
   5.4194734e-05   3.4633162e-05   4.2979605e-05   1.1363906e-04   5.1555377e-05   1.1858549e-04   1.5183796e-04   1.0887521e-04   6.4034502e-05  -1.0986807e-04   5.1992072e-05  -4.7944723e-05   5.1686813e-05   1.6559573e-04   1.0257151e-04   1.0049517e-04   7.6391036e-05   7.8547971e-05   1.3285625e-04   8.5885797e-05   7.5314907e-05   1.1339424e-04   1.0715029e-04   8.4601888e-05   1.4794218e-04   1.0528709e-04   1.9017878e-04   1.9340009e-04   1.9598127e-04   7.9235717e-05   8.4722677e-05   6.7222623e-05   1.5125022e-04   9.3328250e-05   9.9331752e-05   1.0340946e-04   1.2705899e-04   1.3281964e-04   1.0824287e-04   1.4989090e-04   4.2565985e-05   6.0132268e-05   4.1005129e-05   4.1510797e-05   5.2913609e-05   9.9289013e-05   1.3912980e-04   1.0135587e-04   1.0043744e-04   9.5009484e-05
   3.9808459e-05   3.8442769e-05   3.0021318e-05   9.4295749e-05   4.9552302e-05   1.1063718e-04   1.3372680e-04   1.1648658e-04   1.5595155e-05  -1.1749345e-04   4.0482315e-05  -5.3033378e-05   5.0421542e-05   1.5829236e-04   9.8788420e-05   9.6739153e-05   8.2081242e-05   7.7737364e-05   1.0528941e-04   5.7235622e-05   1.7015538e-05   9.4881369e-05   9.8691067e-05   1.0061616e-04   9.7096854e-05   7.1958020e-05   1.9795694e-04   1.6653011e-04   1.7630603e-04   8.0278718e-05   8.2545950e-05   8.2985658e-05   1.6541376e-04   6.1334402e-05   9.5614880e-05   1.0582084e-04   1.1934466e-04   1.2085275e-04   1.0627169e-04   1.2276956e-04   2.4200855e-05   8.9378846e-05   1.5309308e-05   2.7750064e-05   1.5574468e-04   7.9492718e-05   1.3527424e-04   1.1627972e-04   1.3396372e-04   8.5536682e-05
   1.3158240e-05  -1.2625475e-05   9.0641233e-06   6.2965802e-05   5.6023513e-05   1.1049441e-04   1.2881569e-04   1.0960001e-04  -7.5840026e-06  -1.3220028e-04   1.2092194e-05  -5.4054475e-05   4.0702984e-05   1.4338101e-04   7.4749885e-05   9.3525159e-05   6.6664674e-05   6.7651934e-05   1.1973920e-04   5.1577499e-05   2.8764172e-05   1.0137599e-04   8.5847969e-05   8.9744724e-05   1.1964340e-04   8.4462750e-05   1.8913399e-04   1.5705658e-04   1.9993032e-04   7.4925229e-05   7.6068907e-05   7.4857569e-05   1.3397921e-04   7.6593446e-05   9.4865674e-05   9.3235838e-05   1.3212360e-04   1.3510908e-04   1.1403280e-04   1.4844138e-04   4.7513760e-05   8.1941776e-05   7.1716240e-05   3.6310052e-05   1.2464212e-04   1.0926963e-04   1.8097472e-04   9.8661214e-05   7.4984731e-05   1.0738648e-04
   3.7010726e-05   2.8191082e-05   3.1620435e-05   1.0989886e-04   5.6599816e-05   1.1417630e-04   1.4516333e-04   1.1321548e-04   3.4277797e-05  -1.1922252e-04   4.6363341e-05  -3.8221984e-05   4.0124822e-05   1.5725428e-04   9.8288845e-05   8.6562701e-05   7.0539252e-05   6.9482543e-05   1.2705312e-04   1.2120359e-05   4.8738821e-05   1.0749004e-04   9.2791532e-05   5.5931851e-05   1.2556706e-04   9.3182476e-05   1.9323861e-04   1.6951760e-04   1.8363149e-04   7.4582305e-05   6.2643900e-05   8.1908795e-05   1.7667853e-04   7.6205695e-05   9.4702700e-05   9.6091055e-05   1.3207537e-04   1.3688781e-04   1.0402469e-04   1.4277540e-04   3.5028730e-05   8.6177628e-05   3.4763842e-05   4.3561846e-05   1.3008450e-04   9.0742375e-05   1.8098614e-04   9.1116010e-05   6.2058891e-05   1.3072949e-04
   2.1440097e-05   2.5930363e-05   1.9364608e-05   9.1655071e-05   5.4090127e-05   1.1134234e-04   1.3547839e-04   1.1107669e-04   9.6015692e-06  -1.4372874e-04   3.9474227e-05  -5.3272932e-05   3.0079416e-05   1.4605407e-04   9.6115094e-05   8.5997286e-05   7.8968333e-05   6.7277186e-05   9.2091315e-05   2.3223982e-05   2.0856747e-05   8.9608664e-05   9.5799529e-05   9.9179451e-05   9.2523172e-05   4.8778027e-05   1.8155701e-04   1.6773296e-04   2.0716999e-04   8.1291437e-05   6.7929992e-05   9.0741400e-05   1.6171577e-04   5.6911809e-05   9.2990347e-05   1.0077673e-04   1.2581504e-04   1.2754115e-04   9.4834759e-05   1.2212792e-04   3.8835453e-05   9.7986769e-05  -1.3854027e-06   1.6113785e-05   1.6425633e-04   6.1806568e-05   1.8791726e-04   8.2035163e-05   7.9329460e-05   4.4706536e-05
   3.4637647e-05   2.7065487e-06   3.6872647e-05   1.1168328e-04   5.8999249e-05   1.2229559e-04   1.4227454e-04   1.0709073e-04   1.7172653e-05  -1.4138492e-04   3.4516452e-05  -3.8580987e-05   2.5008369e-05   1.6090510e-04   8.7953464e-05   7.5485594e-05   6.6414308e-05   6.0154925e-05   1.2225716e-04   3.8298866e-05   2.5002691e-05   1.3678760e-04   1.0333558e-04   8.2310376e-05   1.3308381e-04   9.2915856e-05   1.8892108e-04   1.8335933e-04   2.1570423e-04   8.3522951e-05   7.8770237e-05   7.6092903e-05   1.9561556e-04   8.3589141e-05   9.5455973e-05   1.0456501e-04   1.5359271e-04   1.4643135e-04   1.0808899e-04   1.7008584e-04   6.0719121e-05   1.0189196e-04   9.6913856e-05   4.3341370e-05   1.5610667e-04   9.5287294e-05   1.4489116e-04   1.1100277e-04   7.4149903e-05   9.8536315e-05
   3.3711756e-05   2.6249982e-05   3.9380917e-05   1.2206225e-04   5.6574238e-05   1.3328636e-04   1.4001140e-04   9.7197844e-05   3.8603677e-05  -1.4753985e-04   4.1451938e-05  -5.5247343e-05   1.8845361e-05   1.2623219e-04   9.4151459e-05   7.6532990e-05   6.3602332e-05   6.4380220e-05   1.2207431e-04   3.6815749e-05   7.4276970e-05   1.0598167e-04   9.4246672e-05   7.5648568e-05   1.1910289e-04   7.8177800e-05   1.9376611e-04   1.7039196e-04   1.8753989e-04   9.3543254e-05   8.5091349e-05   8.5278596e-05   1.4532697e-04   7.0285321e-05   1.0083737e-04   1.0887755e-04   1.4062121e-04   1.4277862e-04   9.3814728e-05   1.6421983e-04   4.8113157e-05   1.1083458e-04   5.3494241e-05   2.0248130e-05   1.3476422e-04   9.6783355e-05   1.7621984e-04   1.1358369e-04   3.7895432e-05   4.3329568e-05
   2.0493593e-05   1.3328466e-05   3.2524895e-05   9.7150179e-05   6.5989690e-05   1.3034145e-04   1.2939991e-04   9.6362084e-05   1.4469452e-05  -1.6338957e-04   3.0905961e-05  -7.9130208e-05   1.1950789e-05   1.2418968e-04   7.7768593e-05   8.0030055e-05   5.5589928e-05   6.9556467e-05   1.1053480e-04   1.5754371e-05   4.6365192e-05   1.0460769e-04   8.9053407e-05   6.0224967e-05   1.2039861e-04   8.0892183e-05   1.8457913e-04   1.5733905e-04   2.0097342e-04   8.6426480e-05   7.7775658e-05   7.7030076e-05   1.5460591e-04   7.3124465e-05   1.0166432e-04   1.1952202e-04   1.5991380e-04   1.5160262e-04   1.0643152e-04   1.6188438e-04   5.9637041e-05   1.2590412e-04   6.1212988e-05   3.2993052e-05   1.1159247e-04   8.5211155e-05   1.6233392e-04   6.9470851e-05   1.1795575e-04   5.9102793e-05
   5.1524676e-05   4.1941472e-05   5.9452006e-05   1.4498204e-04   6.4249456e-05   1.3918801e-04   1.4146580e-04   1.0126214e-04   5.5939989e-05  -1.5996188e-04   4.7374309e-05  -6.0764181e-05   1.1840236e-05   1.3253813e-04   9.2539085e-05   6.9853799e-05   5.8458554e-05   6.0478298e-05   1.1318703e-04   1.0551127e-05   2.9924444e-05   1.1448583e-04   1.0374652e-04   8.1545033e-05   1.0804988e-04   7.1746399e-05   1.8722244e-04   1.7435102e-04   2.0082649e-04   9.1755966e-05   9.4855423e-05   6.8395108e-05   1.6267468e-04   6.6553046e-05   1.0879417e-04   1.0440523e-04   1.5924717e-04   1.5011439e-04   1.0789102e-04   1.5508114e-04   5.2424952e-05   1.2965637e-04   5.9099268e-05   2.4563617e-05   1.4009004e-04   1.0592402e-04   1.6565189e-04   9.7161137e-05   4.8073991e-05   5.1493142e-05
   4.5388075e-05   1.8866833e-05   7.2778843e-05   1.3009034e-04   8.1613391e-05   1.5130048e-04   1.3747589e-04   1.0187794e-04   6.5672168e-05  -1.5597527e-04   4.4785778e-05  -1.0714442e-04   9.8875125e-06   1.0477488e-04   6.9630478e-05   8.0571757e-05   7.1005670e-05   7.6733959e-05   1.2462918e-04   3.1757885e-05   8.1865030e-05   2.8851471e-05   9.5215910e-05   5.3547978e-05   6.1348212e-05   2.1795438e-05   1.9968768e-04   1.7615338e-04   2.1214948e-04   9.8891775e-05   1.1215516e-04   8.1948005e-05   1.6763508e-04   3.1051593e-05   9.8603188e-05   1.0141051e-04   1.6533669e-04   1.2845131e-04   9.9620855e-05   1.5289943e-04   3.6799418e-05   8.0506092e-05   2.8600301e-05   6.0443294e-06   1.3039031e-04   5.0969542e-05   1.5789649e-04   9.7685705e-05   1.5313295e-05   1.1239500e-05
   7.8486955e-05   5.0727711e-05   1.1552579e-04   1.5318087e-04   7.7474484e-05   1.7688534e-04   1.6177566e-04   1.0273747e-04   9.3814517e-05  -1.6502719e-04   5.7269990e-05  -8.4824656e-05   1.2697956e-05   1.2023283e-04   7.8357349e-05   7.0880604e-05   4.9059840e-05   5.7614285e-05   1.6472468e-04   5.3673422e-05   1.0933493e-04   1.1748604e-04   1.0530348e-04   6.6142762e-05   1.2312831e-04   8.2582490e-05   1.8855311e-04   1.7113498e-04   1.9706927e-04   8.7322813e-05   7.9561476e-05   7.1458329e-05   1.4431242e-04   8.5887383e-05   9.8986486e-05   1.0484117e-04   1.3186852e-04   1.4004797e-04   9.0162095e-05   1.5574289e-04   2.8854525e-05   1.1095106e-04   5.9684033e-05   5.9619455e-05   9.5302152e-05   1.0927780e-04   1.6458113e-04   1.0884988e-04   3.0154879e-05   7.5954908e-05
   6.8431604e-05   8.5548781e-06   9.5706862e-05   1.3466165e-04   7.3073497e-05   1.5259277e-04   1.4567342e-04   9.0603287e-05   4.3516822e-05  -1.7903687e-04   2.6744692e-05  -9.2034752e-05   1.4377079e-05   1.3318883e-04   9.1418944e-05   7.7354889e-05   6.5829045e-05   6.6900742e-05   1.1603298e-04   1.4726446e-05   5.1276871e-05   1.2913601e-04   9.8392971e-05   5.1673542e-05   9.0647933e-05   5.7108482e-05   1.8720685e-04   1.6180986e-04   2.0514798e-04   9.2239672e-05   1.0011849e-04   6.2474901e-05   1.5719494e-04   4.9820606e-05   1.0167478e-04   1.0331581e-04   1.4242070e-04   1.4916714e-04   8.9095731e-05   1.4702261e-04   1.5351734e-05   7.8006458e-05   3.4558550e-05   3.2658460e-05   7.8311197e-05   8.1339786e-05   1.7558965e-04   9.8630648e-05   9.0473615e-05   6.9914160e-05
   4.2991403e-05  -1.7389148e-05   6.4871092e-05   1.0231376e-04   7.7975434e-05   1.4381198e-04   1.3015590e-04   1.0729794e-04   4.4477310e-06  -1.9028093e-04  -7.6195442e-06  -8.6092827e-05   1.0481515e-05   1.2991457e-04   8.0899350e-05   8.2604434e-05   6.8648675e-05   7.6702650e-05   1.1263086e-04   3.3936936e-05   5.0563358e-05   1.4576121e-04   9.0947840e-05   7.5606185e-05   9.3722978e-05   8.4079853e-05   1.8425890e-04   1.6230233e-04   1.9633809e-04   8.9725174e-05   1.0747784e-04   6.5447501e-05   1.5304184e-04   6.6488908e-05   1.1084451e-04   1.3758946e-04   1.5400111e-04   1.6221707e-04   1.0754872e-04   1.7196291e-04   4.6954185e-05   1.3153530e-04   6.6010769e-05   6.4365908e-05   1.1193698e-04   9.8710814e-05   1.8573945e-04   1.3262844e-04   2.4556046e-05   1.0375821e-04
   7.9611869e-05   3.4950528e-05   9.3499948e-05   1.4238791e-04   7.6985569e-05   1.5137634e-04   1.3894196e-04   9.8685421e-05   3.8680308e-05  -1.8271945e-04   1.7243279e-05  -6.5640030e-05   1.3803442e-05   1.4010223e-04   9.5980969e-05   8.5835207e-05   7.8892328e-05   8.7008411e-05   1.2900903e-04   2.6500942e-05   3.0004241e-05   1.5906840e-04   9.5735755e-05   8.0373895e-05   9.1861271e-05   8.6529399e-05   1.9454544e-04   1.5508708e-04   1.9493877e-04   9.5798365e-05   1.1522656e-04   6.4630272e-05   1.3646920e-04   6.3178668e-05   1.0669554e-04   1.3608356e-04   1.5985317e-04   1.6848180e-04   1.0888611e-04   1.5699201e-04   3.2652875e-05   9.4785843e-05   5.0801693e-05   4.4513559e-05   9.2920243e-05   1.0626076e-04   1.6564652e-04   2.5083311e-05  -1.5250766e-05   6.0312843e-05
   7.7869314e-05   3.4559246e-06   1.0412962e-04   1.3306677e-04   8.9899295e-05   1.6279679e-04   1.4272612e-04   8.9683374e-05   5.2684645e-05  -2.3368436e-04   3.1591651e-05  -1.0869625e-04   1.5159217e-05   1.0079765e-04   1.0565566e-04   1.0154451e-04   9.1003167e-05   1.1982940e-04   1.2171355e-04   2.4236188e-05   3.6128615e-05   4.2222902e-05   1.2296524e-04   6.9337693e-05   5.9629558e-05   1.3076160e-05   2.2644989e-04   1.6677621e-04   2.4111888e-04   1.1682348e-04   1.4356362e-04   6.0577957e-05   1.9192405e-04   3.0865820e-05   1.0903371e-04   9.2461545e-05   1.6666875e-04   1.4890295e-04   9.5543997e-05   1.5199605e-04   1.4439346e-05   6.9659953e-05  -2.0343172e-05   1.8795585e-05   3.2707561e-05   2.7059297e-05   1.7021550e-04   5.4889384e-05  -2.5890775e-05   2.1489372e-05
   8.2297585e-05   1.9751253e-06   1.3858902e-04   1.4907634e-04   9.7631870e-05   1.8495540e-04   1.5079205e-04   9.6303207e-05   6.3290609e-05  -2.4551633e-04   3.2397791e-05  -9.5549301e-05   2.1421432e-05   1.2506465e-04   1.1099036e-04   7.9909842e-05   7.2566756e-05   1.0998780e-04   1.3083642e-04   5.5913195e-05   5.8309310e-05   9.5172822e-05   1.3118045e-04   5.9315742e-05   8.5429892e-05   7.1763614e-05   2.2330499e-04   1.7412074e-04   2.3406479e-04   1.1445123e-04   1.5095109e-04   5.9165133e-05   1.9641784e-04   6.1172526e-05   1.1174779e-04   1.1904824e-04   1.8332036e-04   1.8475227e-04   1.0762559e-04   1.4907970e-04   2.0873627e-05   4.8698519e-05  -6.0205844e-06   1.9725853e-06   5.8166512e-05   6.7470210e-05   1.4127510e-04   5.7385263e-05  -2.6243417e-05  -1.9222234e-05
   7.7015597e-05   2.3267838e-05   1.7163063e-04   1.6919378e-04   1.0541056e-04   2.2114950e-04   1.6230156e-04   8.2880935e-05   4.5417677e-05  -2.8335280e-04   4.6385085e-05  -1.1578707e-04   1.8163872e-05   1.0951381e-04   1.2553381e-04   9.0256384e-05   8.0303464e-05   1.3522580e-04   1.2520939e-04   6.1414448e-06   8.6048560e-05   4.8194215e-05   1.4697365e-04   7.0705959e-05   6.8322384e-05   4.3012460e-05   2.5085261e-04   1.4975792e-04   2.3907785e-04   1.2662266e-04   1.8700706e-04   5.8629044e-05   1.5221449e-04   4.7989288e-05   1.0689299e-04   1.1045190e-04   1.6010145e-04   1.7844402e-04   9.2247756e-05   1.5660064e-04  -8.9743808e-06   1.1874746e-04  -3.3999204e-05   3.3568551e-05   1.9185811e-05   4.6481506e-05   1.3208610e-04   1.3713710e-04  -4.6614801e-05   6.5099288e-05
   2.4103239e-05  -3.7279813e-05   1.7177967e-04   1.3705766e-04   1.0762601e-04   2.0185098e-04   1.5200644e-04   1.0726520e-04   2.9097762e-05  -3.9684499e-04  -2.4793808e-05  -1.0878697e-04   2.3294086e-05   1.0713493e-04   1.3149287e-04   8.2883409e-05   9.1028829e-05   1.4086375e-04   6.7705878e-05   2.2884027e-05  -1.0564858e-05   6.6358887e-05   1.2114443e-04   6.2039158e-05   4.9042643e-05   3.1060990e-06   2.2817284e-04   1.5232703e-04   2.6371764e-04   1.2514823e-04   1.5508811e-04   6.2463572e-05   1.6237456e-04   4.5907400e-05   1.0526409e-04   9.2675233e-05   1.6247878e-04   1.6170753e-04   9.8743280e-05   1.2822311e-04  -1.6559339e-07   6.9112350e-05  -8.8074961e-07   4.6327819e-05   3.4968976e-05   7.3664065e-05   1.6122121e-04   1.5072332e-04  -3.1274114e-05   7.5095631e-05
   5.3166634e-05   1.2899140e-05   1.4443348e-04   1.4352916e-04   8.8501110e-05   1.8606687e-04   1.4991105e-04   1.0765930e-04   4.7477039e-05  -2.4904529e-04  -2.4044673e-06  -9.6758486e-05   4.5546916e-05   9.7857628e-05   8.2575731e-05   8.3170402e-05   7.2748968e-05   8.8790752e-05   1.3412953e-04   1.4776300e-05   7.4866725e-06   6.9584756e-05   9.4120333e-05   7.1486975e-05   1.2283900e-04   6.4837783e-05   1.8093806e-04   1.6189886e-04   1.9763695e-04   1.0034811e-04   1.2378725e-04   6.3741805e-05   1.4917343e-04   7.0354065e-05   1.1395953e-04   9.5897907e-05   1.5629511e-04   1.5552375e-04   9.6433170e-05   1.4475021e-04   8.1643502e-06   2.8899309e-05  -9.1000957e-06   3.2440865e-05   3.5604087e-05   5.4366050e-05   1.0098546e-04   1.2482391e-04  -3.0212954e-05   6.5381726e-05
   5.3768730e-05   2.7794251e-05   1.0128421e-04   1.1961169e-04   7.8841258e-05   1.6698799e-04   1.3692012e-04   9.8994547e-05   2.9555515e-05  -2.2678979e-04   8.6362488e-06  -9.8190845e-05   4.2262007e-05   9.4961848e-05   8.1072096e-05   8.3518746e-05   7.8604789e-05   8.3429251e-05   1.2560947e-04   3.4888733e-05   1.0810822e-05   4.0314189e-05   9.0587499e-05   6.3694868e-05   8.5492415e-05   4.2974109e-05   1.8649208e-04   1.6561836e-04   1.9973655e-04   9.3588744e-05   1.0089164e-04   5.5614415e-05   1.3597438e-04   6.7912755e-05   9.6692114e-05   9.6385433e-05   1.3651817e-04   1.4742585e-04   9.0606016e-05   1.2352073e-04   2.1576054e-06   3.2914642e-05  -3.0224968e-05   2.8751188e-05  -1.8287003e-06   3.2855747e-05   1.0246555e-04   6.8974543e-05  -5.1853283e-05   6.7515582e-05
   3.0844687e-05   6.2398590e-06   6.5092041e-05   8.5577158e-05   7.8028439e-05   1.4744130e-04   1.2903953e-04   1.0555270e-04  -9.8315286e-06  -2.4005916e-04  -1.2996054e-05  -1.1207128e-04   3.6859812e-05   1.0501231e-04   7.2910516e-05   8.9396221e-05   8.1500868e-05   8.7966793e-05   8.6979271e-05   5.1474977e-05  -3.4003340e-05   4.8048541e-06   8.1596714e-05   6.5023291e-05   6.4986591e-05   1.6397131e-05   1.8865096e-04   1.5128411e-04   1.8868301e-04   9.5813491e-05   9.5967443e-05   4.3142129e-05   8.6991953e-05   4.5921439e-05   9.8074051e-05   1.0236147e-04   1.4825554e-04   1.6037223e-04   9.4253191e-05   1.2846942e-04   1.3347193e-05   2.7721198e-05   2.6016562e-05   4.1496114e-05   3.7767597e-05   8.7390690e-05   1.0361210e-04   8.5639178e-05  -2.9218538e-05   1.3639420e-05
   6.3010310e-05   1.5906146e-05   8.2983272e-05   1.2425713e-04   7.4319774e-05   1.4776869e-04   1.3981438e-04   1.0440980e-04   3.0317276e-05  -2.1712051e-04   4.9099340e-06  -7.5944008e-05   4.1304804e-05   1.0016538e-04   8.3567422e-05   7.7151715e-05   6.7584901e-05   8.7949884e-05   1.1444966e-04   6.0558959e-05  -8.0408208e-06   5.6480418e-05   8.4001040e-05   8.3977015e-05   8.3290324e-05   5.0961713e-05   1.6918030e-04   1.5218544e-04   1.9877775e-04   8.7170454e-05   9.5572563e-05   5.3102172e-05   1.5023857e-04   7.6402401e-05   1.0025054e-04   1.1723684e-04   1.5072209e-04   1.5636091e-04   9.9569806e-05   1.4459735e-04   2.8168640e-06   2.9263054e-05  -1.4682842e-06   4.3609445e-05   2.9079443e-05   7.5767188e-05   1.0711601e-04   8.3304541e-05  -1.9864241e-05   5.8109123e-05
   5.0120267e-05   6.9631542e-06   6.1964602e-05   1.0438514e-04   6.6373301e-05   1.3723769e-04   1.4105029e-04   1.0076847e-04   3.1107613e-06  -2.2137610e-04  -3.4230959e-06  -9.2051407e-05   3.8604765e-05   9.9304823e-05   6.9949638e-05   8.5304542e-05   7.6906908e-05   7.8345976e-05   9.1514827e-05   4.0570663e-05  -2.2007960e-05   1.7492248e-05   7.0191738e-05   4.6284033e-05   8.7265216e-05   4.2609452e-05   1.6586030e-04   1.6213741e-04   1.7907817e-04   8.7649118e-05   1.0317050e-04   6.7129920e-05   1.5032798e-04   6.5695574e-05   1.0553480e-04   9.1471193e-05   1.4989062e-04   1.2887055e-04   8.8008310e-05   1.2139962e-04  -1.6387074e-05   6.7503679e-06  -3.2951204e-05   2.7848273e-05   2.1444575e-05   2.7321637e-05   1.3978536e-04   3.4178218e-05  -1.5661060e-05   2.8645289e-05
   2.8863298e-05  -1.7974788e-05   3.8908136e-05   7.1041461e-05   6.8830246e-05   1.2635763e-04   1.2664223e-04   1.0179946e-04  -3.3456428e-05  -2.3764995e-04  -2.3071558e-05  -1.0262217e-04   3.3826840e-05   9.1347873e-05   5.7397931e-05   8.1883452e-05   6.4402411e-05   8.7451932e-05   6.2375257e-05   4.1792202e-05  -2.7175218e-05   1.0635377e-05   6.6460721e-05   5.9912625e-05   9.2555165e-05   4.2361225e-05   1.8511282e-04   1.5410203e-04   1.9649681e-04   8.1845057e-05   8.9144538e-05   5.3903244e-05   1.1740630e-04   6.9585389e-05   1.0838696e-04   1.0429664e-04   1.4134501e-04   1.5156387e-04   9.3269540e-05   1.4691828e-04   1.2820336e-05   2.7728478e-05  -6.0539509e-07   4.1707532e-05   9.2646978e-06   8.0725098e-05   1.1564977e-04   9.1256712e-05  -7.3760741e-05   2.7327891e-05
   4.9939455e-05   1.7414468e-05   5.8184214e-05   1.1044726e-04   6.4853448e-05   1.3206847e-04   1.3882885e-04   9.8278622e-05   1.0109675e-05  -2.2322063e-04  -5.4153465e-06  -7.6554454e-05   3.2498472e-05   9.9872013e-05   7.7442703e-05   7.4306947e-05   5.8539645e-05   7.6649019e-05   8.0711907e-05  -6.6291705e-06  -4.6272180e-05   2.7583781e-05   9.2953254e-05   5.4227257e-05   9.8576915e-05   5.4109289e-05   1.6391788e-04   1.5421913e-04   1.9726035e-04   8.1502789e-05   8.8301524e-05   6.2791652e-05   8.1732614e-05   7.9057470e-05   1.0376234e-04   1.0511818e-04   1.4366752e-04   1.3985144e-04   8.4222338e-05   1.4449027e-04  -1.9624513e-06   4.5835579e-05  -1.7556473e-05   4.5203004e-05  -1.9300196e-06   5.3703741e-05   1.2581139e-04   7.7926714e-05  -4.7794624e-06   7.6871373e-07
   3.2462634e-05   2.7728587e-05   3.6336947e-05   8.3296509e-05   6.0471477e-05   1.1517597e-04   1.2706783e-04   9.8279874e-05  -6.4881306e-06  -2.3384788e-04  -1.4761747e-05  -8.1472419e-05   2.7918346e-05   9.6070595e-05   6.6464469e-05   8.2526189e-05   6.9147020e-05   6.6784523e-05   6.5474334e-05  -4.4935445e-05  -3.4244906e-05  -3.3735927e-05   7.3944066e-05   6.5698230e-05   7.6576922e-05   1.7383405e-05   1.6546679e-04   1.6238041e-04   1.9435240e-04   8.4766070e-05   8.2503720e-05   6.8184228e-05   1.6148259e-04   7.3227995e-05   1.0331048e-04   8.2951963e-05   1.5323317e-04   1.3714639e-04   9.2300812e-05   1.4574682e-04   3.4090881e-06   8.6092296e-06  -4.2076936e-05   2.1619335e-05   1.1949190e-05   2.7961201e-05   1.3392030e-04   7.8015204e-05   8.3446203e-06   2.8413680e-05
   5.5125747e-05   2.4682498e-05   8.2742044e-05   9.5992247e-05   7.1444549e-05   1.4617569e-04   1.5196179e-04   9.7800643e-05   6.7892004e-05  -8.0537000e-05   6.2250983e-05  -7.6556651e-05   2.5766596e-05   8.5360625e-05   4.1156305e-05   8.6669999e-05   6.3014988e-05   6.1368170e-05   1.3725495e-04   5.7684294e-05   4.7269896e-05  -3.9322302e-05   9.6996366e-05   2.1692713e-05   9.1622096e-05   4.4675220e-05   1.5954820e-04   1.6154120e-04   1.7681948e-04   8.1342827e-05   7.1854927e-05   6.2852407e-05   1.2128167e-04   9.1711125e-05   1.0538221e-04   1.0554184e-04   1.4938269e-04   1.3955770e-04   9.0437927e-05   1.5999774e-04   5.5438813e-06  -4.2814372e-06   5.1088846e-06   6.3468040e-05  -1.1322028e-05   2.3229091e-05   1.2828805e-04   9.5657189e-05  -9.7771681e-06   6.2450134e-05
   4.5781326e-05   1.4946559e-05   5.8196267e-05   8.1844933e-05   5.4507545e-05   1.1055612e-04   1.2926421e-04   9.1749833e-05   2.8801218e-05  -1.6301604e-04   8.4261219e-06  -8.0317892e-05   1.8951509e-05   9.6287338e-05   5.3641630e-05   6.4537759e-05   5.7609643e-05   4.7968795e-05   7.9415797e-05   2.2969640e-05  -5.5832894e-05  -1.4586728e-05   7.0334849e-05   6.2714957e-05   8.7861612e-05   4.2885102e-05   1.4382399e-04   1.5871349e-04   1.6884002e-04   7.4116462e-05   6.4418120e-05   5.7363468e-05   7.5278593e-05   7.5978896e-05   1.0428624e-04   1.0157911e-04   1.4706083e-04   1.3661341e-04   9.1157708e-05   1.4979228e-04   8.0057307e-06   2.8395270e-05   4.0211330e-06   5.0352770e-05  -5.7614211e-06   2.7250964e-05   1.0904351e-04   1.0558035e-04   2.2098397e-05   9.4935793e-05
   2.9776060e-05  -6.2766585e-06   3.1304495e-05   5.4732121e-05   5.7483085e-05   9.7715674e-05   1.2873235e-04   8.9175192e-05  -2.6684404e-05  -1.7472735e-04  -7.6296583e-06  -8.3881576e-05   1.0896964e-05   8.0462210e-05   4.6598776e-05   7.3152027e-05   4.4720888e-05   5.3014453e-05   5.6793386e-05   7.9462061e-06  -7.2937612e-05  -2.1531657e-06   5.4610719e-05   6.3767395e-05   7.1614835e-05   5.7574092e-05   1.4932793e-04   1.4693783e-04   1.6217522e-04   6.8753208e-05   6.8181507e-05   4.6821238e-05   1.2643303e-04   8.0246435e-05   9.6770331e-05   1.0719828e-04   1.5241302e-04   1.5219042e-04   1.0273672e-04   1.6274548e-04   2.1077774e-05   2.1844768e-05   2.7762468e-05   6.6794666e-05   2.9043917e-06   6.1433355e-05   1.3648529e-04   1.0863921e-04   3.0152323e-05   7.5626667e-05
   6.0541570e-05   5.1121937e-05   6.2099280e-05   9.9314231e-05   5.6209770e-05   1.0640285e-04   1.3442492e-04   1.0345237e-04   4.7469501e-05  -1.3949230e-04   2.7422986e-05  -5.2751580e-05   1.7282855e-05   7.5571523e-05   5.0345116e-05   6.8616318e-05   4.4804041e-05   5.6211433e-05   7.5674667e-05   3.2249554e-05  -5.4781558e-05  -2.6878804e-05   8.0087812e-05   1.7436038e-05   7.6511060e-05   5.9479833e-05   1.4617917e-04   1.5784601e-04   1.9341259e-04   7.8435027e-05   7.5017750e-05   4.3777207e-05   1.0928373e-04   7.9621568e-05   1.0477584e-04   9.7017852e-05   1.4956798e-04   1.3997906e-04   9.2920069e-05   1.5257372e-04   1.7371867e-05   3.4351749e-05  -1.7246537e-05   6.4238222e-05   4.0020291e-06   7.5244716e-05   1.2390963e-04   7.1455383e-05  -3.9596403e-06   6.2104591e-05
   6.1842722e-05   3.3976232e-06   7.3674688e-05   8.0748709e-05   6.2394873e-05   1.0686750e-04   1.2303925e-04   9.2690359e-05   2.9066176e-05  -1.3009115e-04   1.7607488e-05  -8.2447768e-05   1.2264312e-05   6.5215798e-05   3.2776265e-05   6.8682195e-05   5.4918644e-05   5.4829714e-05   5.2888412e-05   8.6666914e-06  -4.4666154e-05  -6.3197811e-05   5.8854512e-05   6.1378225e-05   6.7797271e-05   2.4150395e-05   1.3567288e-04   1.4769337e-04   1.6152850e-04   6.3775697e-05   5.9398069e-05   6.5206870e-05   7.0689879e-05   6.7725290e-05   9.0177928e-05   7.3948482e-05   1.2492907e-04   1.2456859e-04   8.5098101e-05   1.3909645e-04   8.7297003e-06   1.3526482e-05   8.5527072e-06   8.4214626e-05  -3.6270487e-06   2.9698307e-05   1.2715960e-04   9.5859796e-05   5.8895057e-05   1.0007209e-04
   8.5343345e-05   3.3477354e-05   8.4308929e-05   9.7844277e-05   5.9988310e-05   9.9680670e-05   1.2728371e-04   1.0258446e-04   4.2569758e-05  -1.1621381e-04   3.8194066e-05  -4.7150093e-05   1.8295044e-05   7.8598147e-05   5.2193445e-05   5.4527107e-05   3.3187316e-05   2.6921629e-05   1.0113848e-04  -3.0668209e-06  -3.4543973e-05   1.5906280e-05   6.5275395e-05   7.1798349e-05   1.0551858e-04   7.1611139e-05   1.2674578e-04   1.5856678e-04   1.5629236e-04   5.4062555e-05   5.1017741e-05   5.1907700e-05   1.7016973e-04   1.2254709e-04   9.9127421e-05   1.1381487e-04   1.2468199e-04   1.2871562e-04   8.1680540e-05   1.4328890e-04   6.2165727e-06   1.2239961e-05   1.7856824e-05   1.0410298e-04  -1.2386666e-05   5.0823848e-05   1.3444842e-04   1.2758363e-04   7.8417790e-05   1.2430614e-04
   8.8385204e-05   1.4599600e-05   8.2968247e-05   8.9578170e-05   5.6597244e-05   8.6651853e-05   1.0810288e-04   9.0648165e-05   5.8885438e-05  -1.1550140e-04   3.6286121e-05  -4.8898324e-05   1.9935191e-05   7.6967881e-05   3.4483608e-05   6.7751804e-05   4.3971460e-05   1.9803014e-05   8.2952465e-05   1.0820833e-05  -7.0011331e-05  -3.3145869e-05   5.2993273e-05   7.9409845e-05   8.6467589e-05   5.0851173e-05   1.1793930e-04   1.4438300e-04   1.3058441e-04   5.9080743e-05   4.4215227e-05   5.3039625e-05   6.5727407e-05   8.3495484e-05   9.5927018e-05   9.8116252e-05   1.3110945e-04   1.2214437e-04   7.4699987e-05   1.1655730e-04  -4.0140549e-06   4.2914166e-05   4.0273432e-07   4.9695958e-05   4.0495433e-06   6.2336127e-05   1.1728315e-04   4.7861813e-05   9.8259603e-05   1.1594246e-04
   6.3546235e-05  -1.1807543e-05   5.7683494e-05   4.8980324e-05   5.7487523e-05   7.3364972e-05   1.0783622e-04   9.8078592e-05   2.1732508e-06  -1.2179273e-04   1.5053641e-05  -7.9895734e-05   1.2323282e-05   6.1991836e-05   2.2303226e-05   7.0095251e-05   3.8526712e-05   2.6905071e-05   5.9017657e-05   3.6551624e-05  -5.7390243e-05  -3.2866992e-05   3.5305700e-05   6.4264146e-05   8.7999688e-05   3.6677058e-05   1.0684554e-04   1.2606634e-04   1.2362596e-04   5.2337986e-05   3.5621670e-05   4.4342127e-05   1.2309190e-04   6.9751455e-05   8.7836452e-05   9.8097284e-05   1.4291375e-04   1.1355896e-04   7.7695055e-05   1.2310344e-04   1.1921536e-05   1.6990341e-05  -6.9123598e-06   6.4971922e-05   1.1489125e-06   7.1035734e-05   8.1434169e-05   8.8522189e-05   4.1196825e-05   4.2896805e-05
   9.1710674e-05   4.6601199e-05   8.2084247e-05   9.3097202e-05   5.6882702e-05   7.7763194e-05   1.1078564e-04   8.3359562e-05   5.2019084e-05  -1.0295352e-04   4.0285748e-05  -5.3883690e-05   1.5564692e-05   7.1778588e-05   3.8152073e-05   5.4100652e-05   3.6027785e-05   2.8260560e-05   9.5506992e-05   3.6374997e-05  -7.1072456e-05  -5.6461604e-06   4.0096529e-05   3.1562900e-05   6.2864805e-05   5.4954075e-05   1.0449972e-04   1.2211765e-04   1.0081220e-04   5.0273000e-05   3.1651954e-05   4.4102879e-05   8.3765372e-05   6.6512366e-05   8.6421271e-05   8.5785359e-05   1.3011826e-04   1.0454768e-04   6.7607631e-05   1.2501741e-04   4.8109559e-06  -8.0579266e-06   1.4256227e-05   6.0002702e-05  -3.5223991e-05   6.7382185e-05   9.9095756e-05   3.7508118e-05   5.1651255e-05   7.7686120e-05
   7.9727804e-05   3.1784559e-05   6.5081222e-05   7.9721249e-05   5.6390942e-05   7.9418220e-05   9.8037752e-05   7.9538506e-05   7.6916031e-06  -1.1266521e-04   3.5660651e-05  -6.1574821e-05   1.6498961e-05   6.1656938e-05   2.8933240e-05   7.0135415e-05   4.5841985e-05   3.8981689e-05   6.3956271e-05   2.4575498e-05  -6.4532251e-05  -5.0862898e-05   4.9516726e-05   4.2265194e-05   5.8195288e-05   3.0764677e-05   9.9333316e-05   1.2093985e-04   1.4149163e-04   5.0221715e-05   3.8748189e-05   4.3952776e-05   8.5903688e-05   5.6181951e-05   9.1495909e-05   8.8602879e-05   1.2353851e-04   9.2623421e-05   7.1126218e-05   1.0355561e-04  -1.0961375e-06  -9.6246304e-06   1.1581848e-05   3.3097491e-05   1.8009534e-06   4.9254220e-05   1.0102197e-04   8.6000160e-05   7.1813505e-05   9.0361682e-05
   6.7628629e-05  -9.2656774e-06   5.6809306e-05   6.2951083e-05   5.9306018e-05   7.8101555e-05   9.2985683e-05   1.0359776e-04   4.9877995e-05  -1.0350387e-04   2.2359824e-05  -5.3820644e-05   1.5172869e-05   6.7384084e-05   2.3063742e-05   5.9598620e-05   3.2738553e-05   3.0433945e-05   8.3507570e-05   3.0571459e-06  -2.8667821e-05  -5.1570164e-06   4.5365687e-05   3.2747026e-05   7.1214119e-05   7.0682421e-05   9.0869187e-05   1.2546210e-04   1.1343257e-04   4.4536057e-05   3.2586831e-05   5.7617504e-05   1.4976230e-04   6.9318725e-05   8.9097033e-05   1.0331775e-04   1.2739217e-04   1.0276250e-04   7.3726747e-05   1.0849663e-04   5.8891551e-06   8.4596704e-06   1.1493960e-05   4.4578599e-05  -7.6955148e-06   7.1111135e-05   9.4893214e-05   5.7215329e-05   4.7185480e-05   8.1297527e-05
   8.8786379e-05   3.0760941e-05   6.9233443e-05   9.1983791e-05   5.4335484e-05   7.8306715e-05   1.0060879e-04   8.2072525e-05   4.9721137e-05  -1.0410879e-04   4.4490185e-05  -5.0202616e-05   1.7372495e-05   7.7619043e-05   3.5822133e-05   6.3429223e-05   3.8691862e-05   2.3381490e-05   8.0101512e-05   6.1986252e-06  -6.5507687e-05  -5.5491978e-06   4.4953482e-05   6.1113940e-05   7.9383259e-05   5.9308728e-05   9.2686081e-05   1.1591177e-04   9.7706165e-05   4.6496370e-05   2.2189946e-05   5.1889041e-05   9.7452590e-05   5.7353969e-05   8.2595485e-05   1.1145532e-04   1.2162791e-04   8.9755020e-05   7.0963717e-05   9.8301658e-05   1.6794462e-06  -1.3205102e-05   7.5234861e-06   3.8876209e-05  -5.2720578e-05   4.1665120e-05   1.0242029e-04   6.6121152e-05   8.8856114e-06   7.5897355e-05
   6.5184147e-05  -4.7548770e-06   4.2822983e-05   6.5878339e-05   5.0719751e-05   6.2068139e-05   8.8751032e-05   8.6208354e-05   3.9177380e-06  -1.2995499e-04   2.7436899e-05  -5.9631420e-05   1.5237829e-05   8.6386804e-05   2.9147841e-05   7.1981092e-05   4.6320340e-05   2.6389698e-05   2.0552050e-05   7.3700248e-06  -1.0845545e-04  -2.8829856e-05   3.4163579e-05   4.3025768e-05   6.3338426e-05   2.4032115e-05   9.4715557e-05   1.1670002e-04   1.2819891e-04   4.4735374e-05   2.0926491e-05   5.5216558e-05   6.2795472e-05   5.6597397e-05   8.4824045e-05   9.0922869e-05   1.1628876e-04   8.9864530e-05   6.3596606e-05   8.2703147e-05  -2.2472877e-06   1.1155607e-05  -1.1778435e-05   3.6840025e-05   9.7705824e-06   6.8345711e-05   1.0808746e-04   5.6394252e-05   6.2432016e-05   6.5867949e-05
   7.5913216e-05   4.3441913e-05   5.0291241e-05   9.0360700e-05   4.8785692e-05   6.5420070e-05   9.3885632e-05   9.4915384e-05   2.5132886e-05  -1.1930195e-04   3.1072293e-05  -1.8821534e-05   1.9230349e-05   9.1779759e-05   4.9198639e-05   5.6625264e-05   3.9379047e-05   1.8062767e-05   8.0662241e-05   4.3305179e-05  -4.8827042e-05   1.7902548e-05   5.1943061e-05   6.6424444e-05   9.5490796e-05   8.8742570e-05   7.2377676e-05   1.2467381e-04   1.0591288e-04   4.1041363e-05   1.9832069e-05   6.6558481e-05   1.1476819e-04   7.9678633e-05   9.1719077e-05   1.2801560e-04   1.2771206e-04   1.0074364e-04   7.1697505e-05   1.0892525e-04   5.6383460e-06  -2.5014299e-07   8.5369247e-06   5.0351155e-05  -1.6953024e-06   7.7062592e-05   9.7769022e-05   9.5341908e-05   7.2149363e-05   1.2457800e-04
   7.1278089e-05   2.8583934e-05   4.0878342e-05   8.4294377e-05   4.4903023e-05   5.7984369e-05   8.4767264e-05   7.8521727e-05  -5.4169095e-06  -1.4240120e-04   1.4465439e-05  -2.8175491e-05   1.0730164e-05   1.0475059e-04   5.6545145e-05   4.4492837e-05   4.0867748e-05   2.2631473e-05   3.7875554e-05   9.0778221e-06  -1.3164092e-04   2.7668950e-05   4.5816028e-05   3.1265175e-05   9.9899895e-05   8.3077066e-05   8.0858154e-05   1.2702923e-04   1.0665490e-04   4.8871920e-05   2.6269408e-05   5.0815197e-05   8.0896360e-05   8.4375148e-05   9.6178366e-05   1.1182327e-04   1.1213325e-04   1.0941461e-04   6.8910776e-05   1.0673941e-04   2.0485175e-05   2.0787893e-05   2.0502068e-05   6.5645829e-05  -8.5551701e-06   8.7409222e-05   1.1963725e-04   1.2972530e-04   1.1002439e-04   1.1157698e-04
   5.0846571e-05   1.6155029e-05   1.7558805e-05   6.3196741e-05   4.7899000e-05   5.6711382e-05   8.5663029e-05   8.4208004e-05  -1.7644496e-05  -1.5168080e-04   4.0495098e-07  -4.5233541e-05   3.7919447e-06   1.0163666e-04   4.7132522e-05   6.6027103e-05   3.6463673e-05   2.4226601e-05   3.6178491e-05   2.6952701e-05  -1.3455740e-04   4.0596055e-06   3.9382689e-05   5.1212119e-05   9.3628849e-05   8.1330836e-05   9.9299679e-05   1.0320388e-04   1.0121116e-04   4.2561471e-05   2.6231797e-05   5.8108657e-05   5.9636204e-05   7.2515955e-05   9.9940291e-05   1.1851729e-04   1.2579767e-04   1.0598472e-04   7.5022246e-05   1.1090213e-04   1.9337196e-05  -4.7606623e-06   4.9980659e-05   7.0779875e-05   5.3356318e-05   1.1076431e-04   9.9321776e-05   9.6801261e-05   3.5905960e-05   1.1217398e-04
   8.4073530e-05   3.5562014e-05   4.6973313e-05   1.0194762e-04   4.9432321e-05   6.4198233e-05   9.2953160e-05   7.8096156e-05   2.7603424e-05  -1.3208321e-04   2.3087632e-05  -2.8504195e-05   4.3641326e-06   9.9821518e-05   5.4519849e-05   4.3146985e-05   3.4378598e-05   3.0638501e-05   4.5319772e-05   2.0373836e-05  -7.7467281e-05   3.0478530e-05   5.7089732e-05   5.4334312e-05   8.3663414e-05   9.2261886e-05   8.9673413e-05   1.2654296e-04   1.1530442e-04   4.6905865e-05   3.6634803e-05   6.0936407e-05   1.2211733e-04   8.6482934e-05   9.5812647e-05   1.1541960e-04   1.2867205e-04   1.1031225e-04   7.7120632e-05   1.1255366e-04   2.0714740e-05   1.3170166e-05   1.8703347e-05   5.0076356e-05   4.2063839e-05   1.0856795e-04   1.2281704e-04   7.2735202e-05  -3.5146961e-06   5.3788273e-05
   6.7378322e-05  -1.4256831e-05   5.3999876e-05   8.6869986e-05   5.4961838e-05   8.5058069e-05   9.4604002e-05   7.3407537e-05   3.0201469e-05  -1.7187039e-04   2.5513968e-05  -8.5655724e-05   1.8778879e-06   7.8060584e-05   4.3027878e-05   4.8670157e-05   4.1701620e-05   4.5107030e-05   2.9867611e-05   2.3128755e-06  -4.0983079e-05  -3.9984068e-05   5.4132572e-05   4.8956637e-05   5.1658189e-05   4.7719797e-05   9.2895978e-05   1.1913924e-04   1.3146522e-04   5.1907035e-05   4.2953950e-05   6.0169918e-05   9.4541545e-05   7.1868482e-05   9.0547503e-05   9.4548326e-05   1.1765156e-04   1.0190014e-04   5.5837903e-05   9.5176343e-05   2.2851668e-06   3.8018541e-05   1.7220382e-05   4.0635510e-05  -1.9740921e-05   6.6825596e-05   1.1448115e-04   1.0471402e-04   4.7613208e-05   4.5436198e-05
   6.6887296e-05   7.4708587e-06   6.8860543e-05   1.0920213e-04   5.9308728e-05   9.0517926e-05   9.6175572e-05   6.7232591e-05   2.5257890e-05  -1.5800595e-04   2.3638433e-05  -5.6845896e-05   1.0475214e-05   7.4991607e-05   4.3961627e-05   3.6012825e-05   2.8580116e-05   3.3493361e-05   1.0075362e-04  -3.8460616e-06  -2.2289649e-05   2.1216189e-05   6.0606588e-05   5.2756946e-05   1.0325274e-04   8.6725995e-05   8.5690677e-05   1.1962729e-04   9.4343799e-05   4.8217586e-05   5.3496009e-05   5.1714331e-05   1.1590534e-04   8.2080485e-05   1.0109638e-04   1.1017767e-04   1.3487713e-04   1.0384266e-04   6.9395595e-05   1.2039820e-04   2.3586206e-05  -3.7653805e-05   4.9307873e-05   4.9502971e-05  -1.0785348e-05   8.6575390e-05   1.0818274e-04   1.7446144e-05  -3.5977969e-06   4.1394876e-05
   6.9803682e-05   1.2272311e-05   6.7725836e-05   1.0343556e-04   5.1471521e-05   9.0805392e-05   9.1132999e-05   6.1601582e-05   4.2533582e-05  -1.5724047e-04   2.7484859e-05  -7.9615435e-05   6.5833492e-06   6.1231462e-05   4.3812175e-05   2.8130518e-05   3.5782497e-05   3.9307808e-05   6.7561603e-05  -2.7580971e-05  -3.3951914e-05  -8.8158367e-06   5.4628134e-05   3.2053737e-05   7.8162040e-05   5.2984444e-05   7.0770548e-05   1.0586019e-04   1.0805409e-04   4.3570184e-05   4.1788877e-05   3.8261183e-05   1.0225011e-04   6.4701497e-05   8.3086503e-05   9.7453500e-05   1.1216286e-04   8.0750666e-05   4.6481699e-05   9.0422385e-05   4.5892530e-06   4.6808786e-06   7.9905958e-06   1.8689117e-05  -1.0571208e-06   7.7372970e-05   9.2975824e-05   4.0876279e-05  -2.7697313e-05   2.5208272e-05
   4.2503518e-05   5.7132161e-06   3.4112349e-05   6.3853076e-05   5.2540971e-05   7.7653356e-05   8.1494014e-05   7.1983923e-05   5.4381262e-06  -1.7355796e-04   1.1546545e-05  -8.7058223e-05   1.2756254e-06   6.7537301e-05   2.8902683e-05   4.0764833e-05   4.3301767e-05   4.8669368e-05   3.3222543e-05  -1.6697561e-05  -5.0328716e-05  -4.7353409e-05   3.2640972e-05   2.0202060e-05   2.4292534e-05   1.1902932e-05   8.5938082e-05   1.0277298e-04   1.0286618e-04   4.6522124e-05   3.0179590e-05   4.6884536e-05   5.4369884e-05   3.6009300e-05   7.7308650e-05   1.1063647e-04   1.0854825e-04   8.5769097e-05   5.8799258e-05   1.0003171e-04   2.3268956e-05   1.7390512e-05  -2.8130896e-06   3.7612361e-05   2.7443855e-05   7.0383758e-05   7.0318936e-05   8.3613537e-05   4.1303767e-05  -5.2066307e-06
   7.0907459e-05   3.6405410e-05   5.0311231e-05   9.5440664e-05   4.6549074e-05   8.4657891e-05   9.3243361e-05   5.6441680e-05   5.5647535e-05  -1.4518622e-04   3.0593215e-05  -6.2650579e-05   3.2686548e-06   7.2227362e-05   2.8945671e-05   3.0757335e-05   3.6298698e-05   3.3759792e-05   8.3307379e-05   4.6161716e-05  -2.7279635e-05   6.9010430e-06   5.0246381e-05   4.0882234e-05   6.9939430e-05   4.6953246e-05   6.9903654e-05   1.1020013e-04   5.5238212e-05   3.4068140e-05   2.2336060e-05   4.1036012e-05   9.6285228e-05   6.2356063e-05   8.1737759e-05   1.1304967e-04   1.0725979e-04   7.2226430e-05   5.5950797e-05   7.5624805e-05   2.2708769e-05  -1.2514615e-05   9.6560370e-06   4.1680974e-05   1.7507944e-05   5.8311936e-05   7.8789832e-05   6.3817322e-05   3.5754027e-05   3.2406966e-05
   6.4390304e-05   3.7915903e-05   3.4126424e-05   7.7286291e-05   3.8775044e-05   6.6837099e-05   7.7205790e-05   6.2015366e-05   2.1088919e-05  -1.4546729e-04   2.2299058e-05  -7.9212186e-05   4.2252032e-06   6.5573062e-05   2.6535592e-05   3.1715976e-05   4.2021198e-05   3.8315535e-05   4.8608279e-05  -1.1572882e-05  -4.7053600e-05  -2.7344026e-05   3.8844202e-05   3.2792490e-05   4.9966824e-05   4.5333192e-05   6.7827481e-05   8.8260786e-05   9.0203081e-05   3.6602854e-05   2.0321164e-05   3.9752511e-05   9.5864038e-05   5.1483607e-05   8.1321356e-05   1.0019526e-04   1.0415268e-04   7.3452262e-05   4.1447096e-05   7.4772739e-05   4.6152834e-07  -2.2000877e-05  -1.3132789e-05   2.3815801e-05   2.8838599e-06   7.0110211e-05   7.7326331e-05   3.9132286e-05   6.9231894e-05   6.9570528e-06
   4.3084736e-05   9.1764359e-06   1.6400267e-05   4.2918589e-05   4.1632458e-05   6.0063183e-05   7.7882076e-05   6.4446154e-05  -1.6570928e-05  -1.4064278e-04  -8.3059504e-06  -7.6491131e-05   3.3789008e-06   7.2842638e-05  -4.1541789e-06   3.9257255e-05   3.3436208e-05   4.3675635e-05   5.6854031e-05   3.6178903e-05  -5.4627577e-05   9.1781967e-06   3.3871202e-05   2.9035915e-05   5.3797092e-05   4.0886360e-05   6.6434179e-05   9.9636898e-05   7.1616480e-05   2.5842106e-05   2.2943310e-05   3.6309386e-05   6.4505308e-05   5.4639459e-05   7.0026392e-05   1.0151439e-04   1.0130140e-04   7.3333620e-05   4.8828708e-05   9.5171672e-05   2.7156269e-05   6.0725692e-05   2.1090254e-05   3.0745909e-05   2.4994595e-05   7.7034347e-05   7.9960628e-05   2.2910743e-05  -4.4720979e-05   2.5504894e-06
   6.9660884e-05   4.7912017e-05   3.6851514e-05   8.2314618e-05   3.7229795e-05   6.7471483e-05   7.1786984e-05   5.3105956e-05   3.5234440e-05  -1.3288503e-04   2.5660262e-05  -7.3597439e-05   1.3941201e-06   5.9089904e-05   1.7325499e-05   3.1488853e-05   3.7929869e-05   3.7391128e-05   6.5325286e-05   1.0929361e-05  -3.4471948e-05  -9.0209124e-07   3.0889190e-05   3.9764713e-05   4.2568856e-05   3.4556415e-05   6.0274979e-05   9.1207417e-05   7.0159105e-05   2.7930060e-05   2.0395757e-05   3.0893618e-05   5.1059924e-05   5.3653301e-05   7.6621618e-05   9.2110466e-05   1.0503058e-04   6.6668217e-05   4.1728061e-05   9.5666568e-05   3.9979636e-06   3.5502705e-06  -1.5763821e-05   2.8261304e-05   3.0346440e-05   4.7249883e-05   7.9552803e-05   6.0178649e-05   6.8060990e-06   2.4142424e-05
   4.8566093e-05   8.5816991e-06   2.1068390e-05   6.1857172e-05   3.4877048e-05   5.5065226e-05   6.7413675e-05   5.5716358e-05   4.5187403e-06  -1.4793708e-04   1.5803647e-05  -8.6444088e-05  -2.0713605e-06   5.9812897e-05   4.3939708e-06   3.8860173e-05   4.6434172e-05   3.7242651e-05   3.8201873e-05   2.2993954e-05  -5.1824940e-05  -3.3963606e-05   2.8014707e-05  -4.1401159e-07   1.8144847e-05   1.8484267e-05   6.9277608e-05   8.1020975e-05   8.0602636e-05   2.5574887e-05   1.6650090e-05   3.3070603e-05   4.0234499e-05   4.2842170e-05   7.1385388e-05   6.8776593e-05   9.6380652e-05   7.2144459e-05   3.7376478e-05   6.5916662e-05  -3.4527684e-06   4.0111801e-05  -1.6460726e-05   1.2123157e-05   5.8082546e-06   3.7946684e-06   7.7823170e-05   6.8507121e-05   2.3065770e-06   8.8717989e-06
   4.0423001e-05  -1.1662562e-05   1.7058597e-05   6.1876854e-05   3.5015113e-05   5.3536329e-05   6.5711960e-05   5.2093459e-05   1.6134683e-05  -1.4857559e-04   5.5898986e-06  -4.9830331e-05   1.2159065e-06   6.9447924e-05   2.4972418e-05   2.5885338e-05   3.2334225e-05   3.8852479e-05   6.1696512e-05   2.0269159e-05  -5.0411021e-05   2.6364814e-05   3.3004693e-05   1.9738154e-05   6.1368402e-05   5.8137852e-05   6.1169325e-05   8.8483801e-05   5.5637578e-05   2.7057738e-05   2.4302964e-05   3.0253153e-05   9.1057002e-05   6.2353771e-05   6.3880194e-05   8.5723317e-05   1.0240782e-04   8.0205420e-05   4.1758693e-05   9.2670925e-05   3.8010745e-05   5.5030658e-05   1.4609393e-05   5.2725372e-05   5.3195046e-05   9.4574993e-05   6.1580817e-05   2.8867204e-05   2.9473089e-05   6.8661750e-05
   4.9834871e-05   4.0162649e-05   9.6364893e-06   7.3349445e-05   3.1912452e-05   4.8069629e-05   7.2612915e-05   5.3922511e-05   2.2472443e-05  -1.6117026e-04   9.9702847e-06  -3.0705269e-05   8.2579572e-06   9.8335884e-05   3.6035904e-05   2.9352837e-05   4.3461067e-05   2.0774998e-05   5.6803212e-05   1.3273542e-05  -4.6133478e-05   2.2884980e-05   3.2724089e-05   4.3283777e-05   4.7330439e-05   6.4047446e-05   6.0479000e-05   8.3167797e-05   8.9870606e-05   2.1548918e-05   1.6382055e-05   3.0334726e-05   5.3449316e-05   6.1966115e-05   8.1799255e-05   7.6578472e-05   9.3876413e-05   7.4162301e-05   4.4517132e-05   9.6677781e-05   2.1744239e-05   4.6129790e-05   6.1233877e-06   3.0871681e-05   4.3497319e-05   6.4476124e-05   6.5651315e-05   3.7450885e-05   4.3763466e-05   3.8637605e-05
   5.2105286e-05   4.7367262e-06   1.4676926e-05   5.6754645e-05   3.9134608e-05   5.9080823e-05   7.2107701e-05   6.0589238e-05   1.2093643e-05  -1.5502777e-04   1.6625962e-05  -7.5511416e-05  -2.2271304e-06   6.4604894e-05   2.0583282e-05   4.7901074e-05   3.6988407e-05   3.3200176e-05   3.2412874e-05  -7.9707515e-06  -7.3956486e-05  -3.0571162e-05   1.7430813e-05  -4.6212390e-06   2.9945093e-05   2.1877713e-05   7.7599601e-05   9.3923394e-05   9.6609576e-05   2.5227531e-05   5.5557766e-06   3.4898661e-05   2.5377745e-05   4.0138755e-05   6.6518987e-05   8.3910418e-05   9.3316441e-05   8.2919832e-05   3.7030255e-05   7.6469267e-05   3.6777172e-05   9.1709910e-05   3.2896300e-05   5.3952346e-05   4.4955868e-05   6.7445610e-05   7.8749581e-05   1.0035172e-04   1.2541078e-04   8.5337968e-05
   7.1644150e-05   5.7184268e-05   2.9402780e-05   8.8441942e-05   3.2857373e-05   5.2810192e-05   7.7807883e-05   4.3041779e-05   2.7618309e-05  -1.3760758e-04   2.5432644e-05  -3.7584654e-05   5.5782762e-06   7.3719697e-05   3.2863412e-05   3.7552803e-05   3.5212852e-05   2.5323323e-05   7.7242163e-05   6.7912338e-06  -7.9290774e-05   9.7704669e-06   2.6839547e-05   3.8219227e-05   6.7222740e-05   6.5547822e-05   5.3520798e-05   9.0171940e-05   7.0275157e-05   2.5236744e-05   1.8123021e-05   4.0716190e-05   7.7142140e-05   4.6909823e-05   7.4912445e-05   7.9006735e-05   9.2111899e-05   7.2438859e-05   4.8354024e-05   9.4685500e-05   3.3130749e-05   3.4744677e-05   4.5573692e-05   4.5461962e-05   4.8393442e-05   6.9170368e-05   7.9168756e-05   5.1690324e-05   8.6011358e-05   6.6361325e-05
   5.6420977e-05   4.9233851e-05   1.9962703e-05   7.4412412e-05   3.2031789e-05   4.7042275e-05   7.7950019e-05   4.4359644e-05   1.4716958e-05  -1.4122771e-04   2.0244763e-05  -5.4021304e-05   4.6480268e-06   5.0786701e-05   2.6117150e-05   4.3910506e-05   4.0650641e-05   1.3443516e-05   4.7769521e-05  -1.2450118e-05  -9.6368807e-05  -3.2832857e-05   3.1246247e-05   2.0670706e-05   5.8621583e-05   3.2799300e-05   6.9064947e-05   8.6519452e-05   7.2429822e-05   1.7969320e-05   2.1511583e-05   3.0899002e-05   3.3806471e-05   3.0337138e-05   7.0900976e-05   7.0891423e-05   9.5831107e-05   7.3686489e-05   3.8814826e-05   8.3522878e-05   2.0507785e-05   3.9163042e-05  -3.8475864e-06   3.2605963e-05   6.2470805e-05   6.8313049e-05   6.5450724e-05   8.0437007e-05   7.2282273e-05   4.3076670e-05
   4.2460142e-05  -4.2453053e-06   1.9793993e-05   6.7270281e-05   3.4821252e-05   3.5930640e-05   7.2958203e-05   5.6336288e-05   1.8135212e-05  -1.3190159e-04   6.4903052e-06  -3.2179072e-05   6.8767999e-06   6.4009655e-05   2.2098508e-05   3.4871991e-05   2.7226524e-05   9.0437497e-06   6.9774484e-05   4.4490855e-05  -4.1966076e-05   3.1280299e-05   1.9368386e-05   3.5694993e-05   8.9256784e-05   6.8549540e-05   5.4255968e-05   8.3669926e-05   5.3708132e-05   1.8392611e-05   1.4394097e-05   4.0377759e-05   4.3977929e-05   5.0739753e-05   6.6755310e-05   9.7565957e-05   1.0523073e-04   6.4851265e-05   4.0576415e-05   8.8329252e-05   4.2888289e-05   2.6152771e-05   1.8352417e-05   5.0286268e-05   7.9076053e-05   7.6899974e-05   6.6591070e-05   7.7069664e-05   7.9922669e-05   8.8397355e-05
   5.9874717e-05   3.4097331e-05   1.4527867e-05   7.5557997e-05   2.5972085e-05   3.2481803e-05   6.4340071e-05   6.5595399e-05  -1.8407936e-06  -1.5242906e-04   8.7403954e-08  -2.3270577e-05   7.5115577e-06   6.8881789e-05   2.4514015e-05   2.8750854e-05   3.1484484e-05   5.7501984e-06   5.7623169e-05   7.3037736e-06  -4.7251175e-05   5.8845031e-05   1.7999331e-05   4.0147850e-05   6.7627450e-05   6.1465507e-05   3.8668692e-05   8.6680986e-05   4.2546246e-05   1.2788326e-05   6.1972996e-06   3.7560389e-05   8.3479252e-05   5.2311374e-05   6.9405556e-05   9.1904651e-05   7.7907083e-05   7.0753376e-05   3.6075744e-05   7.7236786e-05   2.2644408e-05   5.3189509e-05   1.5293210e-05   5.1331812e-05   2.9948476e-05   8.5230829e-05   8.0607300e-05   8.4534797e-05   6.0985538e-05   7.0501046e-05
   4.7456495e-05   1.3475401e-05   1.2229017e-05   5.2619100e-05   3.0503796e-05   3.2040392e-05   6.3450105e-05   4.8429400e-05  -6.3413459e-06  -1.2951638e-04   1.9868744e-06  -5.8005979e-05   2.8954989e-06   4.2695810e-05   4.4117232e-06   4.3571443e-05   4.2256041e-05   8.7005828e-06   4.2684158e-05   1.2058723e-05  -7.3552910e-05  -1.9866624e-05   5.9079875e-06   4.2365624e-05   5.3987756e-06   2.7871511e-05   5.0294977e-05   8.1823389e-05   4.5598834e-05   1.4588505e-05   3.4789608e-07   4.3211621e-05   3.1602503e-05   7.2513371e-06   4.4199391e-05   7.1632479e-05   7.3336865e-05   5.5872581e-05   3.5541070e-05   7.3177333e-05   2.8428922e-05   7.9269812e-05   2.8254020e-05   4.2967335e-05   6.4793508e-05   1.1219353e-04   5.7535475e-05   6.9889276e-05   9.5867348e-05   6.7155859e-05
   6.7897381e-05   2.7506563e-05   3.4330555e-05   7.9448655e-05   2.8308496e-05   3.0011111e-05   6.3052146e-05   4.5272725e-05   1.4018024e-06  -1.1280541e-04   9.3748013e-06  -2.6367978e-05   7.2628659e-06   4.7737805e-05   1.7081325e-05   3.0897016e-05   2.6784126e-05   4.4533363e-06   8.9419431e-05   3.1572657e-05  -6.1453211e-05   3.1677304e-05   1.5938927e-05   3.3945027e-05   5.6574983e-05   5.7241516e-05   2.5391204e-05   6.5236258e-05   1.9937595e-05   1.2104428e-05   6.9903522e-06   4.6434074e-05   6.7240479e-05   2.6203792e-05   6.5072418e-05   8.5819345e-05   7.3135678e-05   6.3402666e-05   2.8550059e-05   8.1771679e-05   3.0206902e-05   3.7705275e-05   6.8848298e-05   5.0214083e-05   1.8189063e-05   9.4139905e-05   3.1481992e-05   1.0626423e-04   5.1344286e-05   6.2198735e-05
   5.4125278e-05   3.6138510e-06   2.2789740e-05   5.9735848e-05   2.5761186e-05   2.5881551e-05   5.3900811e-05   3.1445805e-05   6.8029913e-06  -1.2969266e-04   2.5743809e-06  -5.6441379e-05   5.4176949e-06   3.8659015e-05   1.2769981e-05   3.1169831e-05   3.2026986e-05   8.2368970e-06   6.8070018e-05   8.4804060e-06  -4.4363544e-05  -1.1996520e-05   7.2158405e-06   2.3862436e-05   3.2505464e-05   4.1686475e-05   2.7593473e-05   5.7547823e-05   3.7642094e-05   1.1002717e-05   1.2960993e-05   3.3745662e-05   5.4100845e-05   1.7836510e-05   6.2081759e-05   6.0095976e-05   6.9349298e-05   5.5821674e-05   2.2700906e-05   7.5066877e-05   2.4875826e-05  -2.8309171e-06   4.6590521e-05   2.8688197e-05   6.8465066e-05   6.3924861e-05   1.2384314e-05   6.9819631e-05   9.6543794e-05   9.2929018e-05
   2.2466509e-05  -2.8185004e-06  -2.4893648e-06   2.5142539e-05   2.4566136e-05   1.5454292e-05   4.7491736e-05   3.8890743e-05  -4.3949385e-05  -1.4099240e-04  -2.6906850e-05  -6.6505891e-05   3.7494908e-07   2.7574062e-05  -1.0515319e-06   3.2955690e-05   1.5944475e-05   1.2923791e-05   3.9216939e-05   5.0578928e-05  -8.5637163e-05   1.5535295e-06   4.7320791e-06   1.9613210e-05   4.8383732e-05   5.2356285e-05   1.5933494e-05   6.4410626e-05   3.2895583e-05   1.1616108e-05   8.6188356e-06   1.7212344e-05   2.5986868e-05   1.8583098e-05   6.2263454e-05   7.7772638e-05   8.0102327e-05   7.2043709e-05   3.3493183e-05   8.7954730e-05   3.9892162e-05   1.1591919e-05   9.5134295e-05   3.9211704e-05   2.0536772e-05   1.3673925e-04   9.7558905e-06   6.3245374e-05   4.4132241e-05   8.1188096e-05
   4.7846970e-05   2.2069928e-05   2.8374685e-05   6.7579022e-05   2.6966058e-05   2.3567114e-05   5.2636049e-05   2.6179678e-05   3.4280453e-07  -1.1207604e-04  -1.8586219e-06  -5.3499953e-05   2.7773763e-06   2.6764914e-05   8.9890746e-06   2.6058091e-05   1.5139272e-05   4.6600167e-06   5.4659671e-05   2.0530377e-05  -8.2311790e-06   1.2499020e-05   2.7085248e-06   4.6430196e-05   5.3903332e-05   5.9455655e-05   1.4098658e-05   6.9687725e-05   4.6809513e-05   1.1330550e-05   7.1182894e-06   3.2039188e-05   5.3785225e-05   1.4057174e-05   5.9348931e-05   6.4997985e-05   7.0311471e-05   6.3152896e-05   1.8325212e-05   7.3050731e-05   3.5138179e-05  -4.6415207e-06   2.7489070e-05   3.7914200e-05  -1.5885591e-05   6.5271495e-05   2.9620607e-05   3.8284161e-05   1.7237080e-05   6.2918145e-05
   3.3091710e-05   7.3259930e-06   1.0578889e-05   3.8443606e-05   2.4334220e-05   7.7120476e-06   3.7906852e-05   2.9989618e-05  -3.6768623e-05  -1.2188780e-04  -2.0251849e-05  -5.8054582e-05  -3.0369019e-06   2.4422636e-05  -2.9517321e-06   2.7146873e-05   1.6958291e-05   3.9397542e-06   3.1430020e-05   9.2325190e-06  -4.6668512e-05  -9.5716559e-06   3.6190870e-06   1.1094692e-05   3.2943924e-05   2.0429830e-05   1.9914807e-05   5.2956693e-05   2.8491033e-05   1.0292169e-05  -5.3537442e-06   4.3050593e-05   6.2032326e-05  -1.1616656e-06   5.1359955e-05   6.5702741e-05   6.3658059e-05   4.2478121e-05   1.9741599e-05   5.7291527e-05   1.4330742e-05  -2.9095708e-07   1.5148908e-05   2.8047665e-05   8.7187294e-07   9.9227895e-05   2.2896753e-05   8.6393275e-06   2.3654809e-05   6.0924369e-05
   5.5603527e-07  -2.0565023e-05  -1.2612541e-05   3.0713913e-06   2.3287435e-05  -2.2146482e-06   3.4698729e-05   5.0747291e-05  -6.1904509e-05  -1.1845811e-04  -4.3924490e-05  -5.5636876e-05  -6.0241850e-06   1.9800102e-05  -1.5877997e-05   2.8925559e-05   2.1383362e-07   9.8145856e-06   2.7801916e-05   1.9163301e-05  -1.3328754e-05   6.0906546e-06  -1.6000266e-06   3.6135458e-05   4.5953999e-05   3.3983262e-05   6.2747877e-06   5.6476052e-05   1.3349828e-05   4.4699132e-06  -1.3021917e-05   4.3297074e-05   7.2381183e-05   2.9557448e-05   5.5276723e-05   9.2888797e-05   6.5410968e-05   3.0611074e-05   2.7167784e-05   5.6083016e-05   2.0174844e-05   3.2677788e-05   4.7954272e-05   7.4825395e-05  -3.6703415e-05   8.1342449e-05   6.3870102e-05   6.3753505e-05   6.6918488e-05   9.1432266e-05
   6.9704380e-05   1.7851666e-05   8.1281323e-05   6.7331595e-05   3.4024866e-05   1.5751981e-05   7.0962466e-05   5.9650461e-05   2.8524833e-05  -2.7259037e-05   5.4127882e-05  -7.7127370e-05   4.9940577e-06   3.3566428e-06  -3.2957349e-05   3.4563134e-05  -7.0783135e-06  -3.5175202e-05   6.9218440e-05   1.7831409e-06   2.4983054e-05  -4.7467332e-05  -1.7840025e-06   3.2539294e-05   7.8562516e-05   5.2057239e-05  -2.8656606e-05   6.2219260e-05  -3.0911513e-05  -2.9701150e-05  -5.0540410e-05   4.5197416e-05   6.7534616e-05   4.0347219e-05   3.7047528e-05   7.8266916e-05   3.4839235e-05  -2.9001305e-06   1.0821665e-05   2.7246149e-05  -1.3843436e-05   4.8661987e-06   1.3818785e-05   6.4805339e-05  -9.6786680e-05   8.3159830e-05   3.8224585e-05   5.0719194e-05   3.6318856e-05   1.2391410e-04
   3.3111508e-05   2.0101465e-06   4.2320080e-05   2.7207521e-05   1.2319753e-05  -2.5704898e-05   4.1121195e-05   4.9060491e-05  -4.6581055e-05  -8.7780267e-05  -1.3670609e-06  -4.3208584e-05  -2.7611768e-06   2.1104539e-05  -2.8439810e-05   2.2542805e-05  -6.4784458e-06  -4.3270058e-05  -8.6371756e-07   4.7955611e-05  -1.4764827e-04  -3.0385108e-05  -2.6539745e-05   6.8433119e-06   4.3817068e-05   3.6052093e-05  -2.4894156e-05   4.9830516e-05  -5.0006765e-05  -3.0971478e-05  -4.5048695e-05   3.5049816e-05   1.6412583e-05   2.6368414e-05   3.2016149e-05   6.1969258e-05   3.0838881e-05   1.3192793e-05   1.5556041e-05   3.4326087e-05  -3.6891315e-06  -1.2340666e-05   4.6919275e-05   4.0510800e-05  -4.4488293e-05   6.9502028e-05  -1.4332397e-05   4.4985980e-05   1.6598251e-05   1.0447344e-04
   1.8915583e-05  -4.4236713e-05   4.0870440e-05   4.1609183e-05   1.9522140e-05  -1.4482251e-05   5.0886538e-05   3.4956778e-05  -1.6532333e-05  -7.9937949e-05  -4.9750874e-06  -2.1681044e-05  -6.5049080e-06   2.0641310e-05  -1.5893738e-05   7.8318462e-06  -1.9132322e-05  -3.0716848e-05   2.6338632e-05   8.2512852e-06  -6.4434244e-05  -2.5086350e-05   1.7171729e-05   7.4102522e-06   6.8840644e-05   6.7156820e-05  -3.1832984e-05   3.8581900e-05  -9.3070582e-07  -1.8416935e-05  -2.4261677e-05   1.6026805e-05   2.4731047e-05   3.0376081e-05   4.2402666e-05   6.5470609e-05   4.9188773e-05   2.5377225e-05   3.1895186e-05   6.4033513e-05   3.2243246e-05  -2.8017745e-05   8.7251741e-05   5.0655777e-05  -2.7588201e-05   8.8697670e-05  -3.1326814e-05   1.1036595e-04   5.4385848e-05   9.8514356e-05
   2.3164832e-05   4.2549732e-06   2.8184993e-05   5.0863200e-05   1.2313708e-05  -6.7418441e-06   4.4638899e-05   2.7551843e-05  -2.6719721e-05  -8.3720028e-05   3.3268159e-06  -3.9333412e-05  -1.2697898e-05   1.8561625e-05  -3.4723673e-06   1.5280091e-05  -1.7599437e-05  -2.3848801e-05   1.5377558e-05  -1.0823187e-05  -8.3581137e-05  -5.4392658e-05   2.1730422e-05  -2.1946566e-05   4.4004621e-05   5.3684336e-05  -2.3644301e-05   6.1430466e-05   1.9106055e-05  -9.1133079e-06  -8.2776478e-06   3.2573953e-05   5.5751028e-05   3.2027980e-05   3.6641570e-05   6.3813364e-05   6.1397332e-05   3.7818802e-05   2.0487205e-05   5.7000099e-05   2.4742187e-05  -7.4263233e-05   5.1702529e-05   3.1441403e-05  -5.0440416e-05   1.0170072e-04  -2.2223177e-05   8.2951919e-05  -1.0222211e-05   9.8083248e-05
   1.6429556e-05  -2.4265357e-05   3.2739143e-05   2.9170718e-05   2.3981938e-05   5.0646245e-06   3.7691381e-05   2.6044892e-05  -2.5585074e-05  -8.4103413e-05   4.9870728e-06  -8.9236062e-05  -2.4608687e-05  -1.6709251e-05  -2.5687184e-05   2.5460320e-05  -1.2026582e-05  -6.9234202e-06  -1.1155737e-05  -5.0814751e-06  -7.1972543e-05  -1.1993517e-04   6.7028973e-06   1.9944442e-05   4.0435752e-06   1.1300735e-05  -1.5747952e-05   3.0957890e-05   2.1830310e-05  -2.5840197e-06  -5.0541917e-07   2.3238552e-05   2.8270179e-06  -7.9272959e-06   2.8407598e-05   5.8995931e-05   5.2360625e-05   4.2889991e-05   2.3267356e-05   7.4632735e-05   4.0888754e-05  -6.6548280e-05   1.0492353e-04   5.6022443e-05  -5.2117528e-05   1.0228958e-04  -1.1317909e-05   9.4572337e-05  -3.5891960e-06   7.2633979e-05
   3.5748959e-05  -4.2287829e-06   4.6503115e-05   6.2703162e-05   1.4655114e-05   6.8988529e-06   4.8628524e-05   1.3904928e-05   2.7276865e-06  -9.9268218e-05  -1.3166549e-07  -5.7177946e-05  -2.2961667e-05   2.7659289e-06  -4.4894841e-06   1.0959363e-06  -2.2277314e-05  -1.7756163e-05   2.0310117e-05   1.6399719e-07  -5.7489124e-05  -2.4407756e-05   1.8999954e-05  -4.5865359e-06   4.0329811e-05   5.8797319e-05  -1.4902863e-05   5.9748105e-05   1.5608537e-05  -4.7076639e-07  -1.3305940e-06   1.9262319e-05   5.2781466e-05   4.9459686e-05   5.2403004e-05   7.2371731e-05   4.6168672e-05   4.3193602e-05   1.9427116e-05   6.8561501e-05   2.8619539e-05  -5.7547768e-05   9.2222428e-05   6.4681146e-05  -5.1909628e-05   9.7137228e-05  -4.4938792e-05   8.6647728e-05   2.6634609e-05   7.3679868e-05
   2.2581078e-05  -2.2817690e-05   3.6575628e-05   4.1299216e-05   1.6462227e-05   4.6059681e-06   2.9286917e-05   1.7077369e-05  -5.3723532e-05  -1.1086470e-04  -8.2805636e-06  -7.9361133e-05  -2.9293380e-05   1.2500186e-06  -1.1320453e-05   1.3482840e-05  -1.1244447e-05  -4.2351517e-06  -1.1569541e-05  -2.2027078e-05  -1.0889230e-04  -5.5073226e-05   2.8554091e-06   1.2871506e-05   3.7471840e-05   2.8705679e-05  -1.6007003e-05   5.3113941e-05   3.2153082e-05   2.5623297e-06   2.5008485e-06   3.8155933e-05   1.2491916e-05   2.6272373e-05   4.3105523e-05   6.3717431e-05   5.4611908e-05   4.3068714e-05   8.8666038e-06   4.7358368e-05   1.6476808e-05  -8.9868590e-05   6.9058093e-05   2.0699303e-05  -9.7963653e-05   5.2464649e-05  -3.5165128e-06   7.3890020e-05   3.3898625e-05   8.8784014e-05
  -6.8865111e-06  -5.1503343e-05   8.9553414e-06   2.9830544e-06   1.6642081e-05  -5.1325742e-06   2.3677860e-05   1.3016655e-05  -8.3227576e-05  -1.1763900e-04  -3.8344569e-05  -9.6395168e-05  -3.7619277e-05  -1.1886626e-05  -3.0098026e-05   1.9030544e-05  -1.7295884e-05  -3.0801039e-06  -1.1735547e-05   8.4598314e-06  -5.0310253e-05  -5.5646873e-05   1.2086131e-05  -3.4161279e-05   3.0561187e-05   1.1527059e-05  -8.3308742e-06   4.8186219e-05   9.1189731e-06   4.3340847e-06   6.7033884e-06   1.2831770e-05   2.8827551e-05   3.8585596e-05   4.4298413e-05   5.8434998e-05   4.9960912e-05   4.9305367e-05   1.5644488e-05   6.8407018e-05   3.6517111e-05  -4.6245830e-05   6.6678425e-05   4.0277580e-05  -4.9711492e-05   7.5128730e-05  -4.7771649e-05   9.5126816e-05  -3.9666284e-06   8.8028981e-05
   2.8017006e-05  -5.7809557e-06   4.0268686e-05   4.9647679e-05   1.4836011e-05   8.2794859e-06   3.5993744e-05   1.1884953e-05  -4.1387953e-05  -9.9393939e-05  -8.5538777e-06  -7.7371347e-05  -3.0598694e-05  -1.9051359e-06  -1.5262514e-05   6.9951261e-06  -1.0804921e-05  -9.5940231e-07  -1.2153265e-05  -1.4064345e-06  -6.8214824e-05  -4.8703532e-05   1.0172064e-05  -3.3463293e-05   3.0346913e-05   3.5200130e-05  -1.6925092e-05   4.8818205e-05  -1.5249047e-05   4.1825851e-06  -1.4399081e-06   2.7504779e-05   1.2589482e-05   3.9173628e-05   4.7641824e-05   4.7804617e-05   6.0407288e-05   4.3787873e-05   9.0754211e-06   6.7204986e-05   3.1679665e-05  -2.9184221e-05   7.0179492e-05   3.0609383e-05  -6.3746047e-05   5.8716094e-05  -5.4606782e-05   3.8663744e-05  -2.9236482e-05   5.9383572e-05
   1.1451914e-05  -4.2159303e-05   2.4015841e-05   2.6030655e-05   1.5580425e-05   3.3132674e-06   3.1478925e-05   5.7462107e-06  -4.6042896e-05  -1.0991403e-04  -2.1895918e-05  -8.8936518e-05  -3.5055382e-05  -2.1626676e-05  -1.4610377e-05   1.9311768e-05   4.3099917e-06   5.5482369e-06  -1.8731676e-05   8.5074555e-07  -1.0048550e-04  -8.9508700e-05   2.1935966e-05  -4.0381688e-05  -5.9070626e-06  -3.8265412e-06  -5.5967803e-06   4.1265899e-05   1.3044375e-05   4.0339473e-06   1.2343259e-05   1.4731547e-05  -2.1752716e-05   2.1733209e-05   4.0390925e-05   4.2709515e-05   4.8392536e-05   3.1811764e-05   4.3680998e-06   4.6946443e-05   1.4503044e-05  -8.2151520e-05   5.7499230e-05   6.7282195e-07  -6.6085820e-05   6.0439568e-05  -3.4550059e-05   4.1877949e-05  -4.5424946e-05   6.9553062e-05
  -1.7663493e-05  -8.5448424e-05   5.4854095e-06  -8.0857117e-06   1.8814653e-05   2.1218075e-06   2.6685779e-05   9.8774826e-06  -5.3424930e-05  -9.3440176e-05  -4.0336559e-05  -8.6062020e-05  -3.9438095e-05  -1.6921278e-05  -2.7000615e-05   1.0906020e-05  -1.0201424e-05  -2.9231855e-06   2.6461064e-06   9.4321476e-06  -4.0099541e-05  -5.9364058e-05   1.0336743e-06   6.4954065e-06   9.6886242e-06   1.4683162e-05  -2.0250112e-05   2.8050497e-05   1.3074393e-05   3.3768886e-06   1.4055640e-05   6.1447722e-06  -1.3326499e-05   4.3698907e-05   4.3924487e-05   6.1050530e-05   4.8005000e-05   4.3869157e-05   1.0160979e-05   7.7212309e-05   4.0516290e-05  -4.2361051e-05   7.9032696e-05   3.4248489e-05  -1.2411423e-04   6.3410655e-05  -4.1866835e-05   3.9504310e-05  -4.7301000e-05   5.1678293e-05
   2.3343580e-05  -8.6453001e-06   3.5920406e-05   3.5579731e-05   1.3209218e-05   8.1236658e-06   2.6475995e-05   1.5996298e-07  -3.7995214e-05  -8.9056055e-05  -1.8340641e-05  -7.7777469e-05  -4.0377188e-05  -3.2075384e-06  -2.6478483e-05   7.7571913e-06  -1.9302458e-06  -9.8993223e-07  -8.0793116e-06  -3.4228338e-05  -5.8626647e-05  -5.0775110e-05  -4.5457233e-07   1.2906700e-05  -4.2849392e-06   1.0486630e-05  -2.2081307e-05   2.9232922e-05   1.8012382e-05  -1.0969661e-06   5.1325910e-06   1.6051203e-05   2.9920561e-06   3.4274057e-05   3.4060242e-05   4.7941816e-05   4.8284983e-05   3.6727892e-05   1.1066041e-06   6.4303975e-05   7.6630258e-06  -4.7818954e-05   4.3631400e-05   2.7047718e-05  -3.7591424e-05   4.2798605e-05  -5.8208123e-05   2.2964312e-05  -5.9452657e-05   8.1170932e-05
  -2.4734311e-07  -3.4348723e-05   1.0644228e-05   7.8580742e-06   1.2547933e-05   4.3580635e-06   1.2766934e-05   6.1696765e-06  -5.3492797e-05  -1.1784980e-04  -3.2154810e-05  -8.2411549e-05  -3.8256021e-05  -1.1558878e-05  -2.1770953e-05   2.1751408e-05   1.6961325e-05   1.3068778e-05  -2.8862689e-05  -8.3457480e-06  -8.5418345e-05  -8.9664398e-05  -5.6609942e-06   1.2927045e-06  -3.7739446e-05  -2.7482201e-05  -2.0039985e-05   4.0003695e-05   5.3423904e-05   8.0966920e-06   1.3003443e-05   1.9810546e-05  -2.9878523e-05   1.9475763e-05   3.4960685e-05   2.6346966e-05   5.1438561e-05   4.3586686e-05   1.2764772e-05   5.4930544e-05   1.8659523e-06  -5.9274993e-05   4.1238996e-05   2.8475117e-06  -6.1143728e-05   2.3861661e-05  -4.7782076e-05  -1.6975389e-05  -1.1026445e-05  -4.9405412e-06
   1.5836200e-05   1.2422852e-06   4.4723853e-05   2.7000184e-05   2.2742926e-05   1.8402412e-05   2.8440767e-05   2.8494715e-06   1.2429558e-05  -5.1774998e-05  -5.2085707e-06  -8.6725602e-05  -3.3885783e-05  -3.8829461e-05  -4.6530407e-05   1.5072792e-05   9.5677087e-06   2.4728291e-05   6.1076506e-05  -1.0724410e-05   2.1216998e-05  -7.4539654e-05   1.5340509e-05  -2.4526831e-05  -5.3471713e-06  -2.8957247e-06  -3.0927142e-05   3.4293447e-05  -2.3852559e-05   1.0188945e-05   1.3633212e-05   2.8345446e-05   1.3168343e-06   1.0704820e-05   3.2968081e-05   4.6863337e-05   5.8760266e-05   2.1658252e-05   4.8582037e-06   5.6100409e-05   2.5233318e-05  -4.5804168e-06   2.8995593e-05  -1.9281292e-06  -8.8863628e-05   3.0145817e-05  -1.2906564e-05   2.1046993e-05  -9.2993170e-05  -5.4473581e-05
   4.3702788e-05  -2.5477739e-05   1.1068048e-04   3.5463632e-05   2.0738147e-05   3.4786590e-05   3.9988448e-05  -5.0945910e-06   1.0252612e-05  -5.0032893e-05   1.3512897e-05  -1.3052650e-04  -3.4392870e-05  -5.1867086e-05  -5.9032242e-05   1.5272693e-05   1.7260631e-05   9.9816716e-06   3.7414178e-05   2.0708245e-05   5.1582596e-05  -1.1457334e-04  -6.4407359e-06  -3.1783547e-05  -1.6401509e-05  -1.8362334e-05  -3.4344335e-05   5.4135207e-06  -1.2390027e-05  -7.6196538e-06  -2.1801507e-06   1.8202643e-05  -4.2545533e-05   1.9366509e-05   2.0339177e-05   4.2697542e-05   4.9713046e-05   8.3461618e-06  -2.3108219e-06   3.1610278e-05  -4.3678921e-07  -2.5507337e-05   2.6947553e-05   7.7504992e-06  -7.4520009e-05   2.3653867e-05  -4.1324816e-05   9.8011362e-05  -4.6378740e-05   3.6429472e-05
   8.3914119e-06  -2.9390467e-05   5.6015171e-05  -1.4251132e-05   1.8671157e-05   1.8677554e-05   1.1162144e-05   9.2464074e-07  -5.2138483e-05  -9.5395306e-05  -2.7131289e-05  -1.2877541e-04  -4.0648261e-05  -4.6348941e-05  -6.2469233e-05   1.6434426e-05   2.4976547e-05   2.3887937e-05  -3.0699903e-05  -5.0682524e-06  -7.9077829e-05  -1.0334491e-04  -1.6208649e-05  -4.2673040e-05  -2.9511883e-05  -3.9187569e-05  -2.5473741e-05   1.2238504e-05  -1.7077512e-06  -2.7666799e-06  -3.1465775e-06  -2.3595607e-07  -3.4788929e-05  -5.5130772e-06   1.6219334e-05   3.2511558e-05   4.2868178e-05   1.8253997e-05   5.5761784e-06   5.5904165e-05   3.1667765e-05  -1.6267173e-06   4.6798479e-05   3.3171233e-05  -7.6603210e-05   5.2255087e-05  -3.6942940e-05   6.5695836e-05  -5.9901013e-05   4.2517971e-05
   3.5502821e-05  -2.1307187e-05   6.0071747e-05   2.4326229e-05   1.3242007e-05   1.7941502e-05   2.2989176e-05   4.6047517e-06   3.5247622e-06  -7.3461895e-05  -1.2300914e-05  -8.5036729e-05  -2.9040380e-05  -2.4508048e-05  -3.7255995e-05  -9.9681358e-07   1.5511338e-05   1.6448532e-05   1.7258670e-05   2.5900536e-05  -1.3661267e-05  -5.4808603e-05   4.7590215e-06  -3.4287212e-05  -1.3409251e-05   6.8807326e-06  -4.1854495e-05   2.3386989e-05  -1.4787945e-05  -6.6136872e-06  -1.2202649e-05   1.0698649e-05  -2.2155114e-05   1.8697623e-05   1.4224550e-05   3.9118277e-05   3.7235215e-05   1.3784797e-05  -6.2169329e-07   4.8661161e-05   3.1843818e-05  -1.0022556e-05   7.4320080e-05   2.4819650e-05  -8.4149928e-05   3.4417302e-05  -4.0178722e-05   8.7358800e-05   1.1144548e-05   8.6541360e-05
   1.0643550e-05  -1.1814542e-05   2.6823267e-05   1.7836007e-06   6.7741548e-06   6.6672560e-06   3.0042002e-06   5.4144521e-06  -3.7232741e-05  -1.2059386e-04  -3.2858057e-05  -7.0804650e-05  -2.6028203e-05  -6.0283821e-07  -3.1685489e-05   9.5648902e-06   1.8322327e-05  -8.1791825e-07  -3.0170339e-05   3.3708936e-06  -9.3049726e-05  -7.8899073e-05   2.5141726e-06  -2.6975073e-05  -1.3612611e-05  -4.3637415e-06  -4.0223254e-05   2.6931071e-05   7.3951105e-07  -5.2142173e-06  -9.4047991e-06   2.9279461e-05  -2.1647757e-05   3.9980172e-05   3.2508658e-05   1.3211814e-05   2.5215048e-05   2.1127198e-05   1.2335123e-06   3.9086983e-05   1.2283407e-05  -3.2006901e-05   8.1626946e-05   1.6144473e-05  -9.4000228e-05   3.1367763e-05  -1.5394027e-05   1.0235110e-04  -1.2905252e-05   7.4207368e-05
   2.5533238e-05  -4.1808203e-06   5.0355717e-05   9.0730337e-06   1.3775631e-05   1.7667568e-05   1.0041526e-05   5.0718786e-06  -1.6660941e-05  -6.4278029e-05  -1.9671859e-05  -6.6317953e-05  -2.1152480e-05  -1.3139070e-05  -3.5766494e-05  -9.6039394e-06   1.0785819e-05  -1.3172469e-07   1.9903666e-05  -1.2402483e-06  -5.7032838e-05  -6.0653278e-05  -1.5723310e-06  -7.5032302e-05   1.6620674e-05   8.7296385e-06  -4.9681174e-05   1.7055032e-05  -8.3525902e-06  -1.3136675e-05  -1.9154293e-05   7.1572990e-06  -1.7154357e-06   4.0468934e-05   2.1813021e-05   2.2362239e-05   3.6959766e-05   1.4140041e-05   1.9529850e-06   3.8217022e-05   4.1783234e-05  -8.8706365e-06   9.5124808e-05   2.3568969e-05  -7.6512028e-05   6.2296313e-05  -4.7626705e-05   1.0397215e-04   1.6106065e-05   3.0333645e-06
   2.9936735e-05   1.7069533e-05   3.6614751e-05   6.4494084e-06   6.2475729e-06   1.9860599e-06   7.5515682e-06  -1.5563577e-05  -6.3712173e-06  -5.7917732e-05  -1.7250946e-05  -7.3345451e-05  -1.8278310e-05  -2.0773547e-05  -3.7825102e-05  -1.3850396e-05   1.2157292e-05  -5.5284331e-06   4.3548439e-06  -2.8013928e-06  -6.9602582e-05  -8.7390625e-05  -1.9812693e-05  -4.9365201e-05  -1.5669095e-05  -7.8782568e-06  -5.1499057e-05   2.9417120e-06  -2.1448106e-05  -1.3473479e-05  -1.6019836e-05   1.6065491e-05  -2.7266125e-05   2.1950382e-05   2.7038308e-05   2.5693284e-05   3.2852968e-05   1.0261043e-05  -8.4275524e-07   2.9918323e-05   3.2300515e-05  -4.8615817e-05   8.9876652e-05   1.3637726e-05  -1.4261487e-04   2.1557700e-05  -5.4499294e-05   8.5342166e-05  -1.0358751e-05   3.7760979e-05
   1.1249692e-05  -9.5779769e-06   9.9084555e-06  -2.2995953e-05   9.8391702e-06  -1.2337324e-05   1.1311109e-06  -1.1018205e-05  -4.0928553e-05  -7.3352792e-05  -3.0014249e-05  -8.0556587e-05  -1.4038204e-05  -7.6250362e-06  -3.0155525e-05   4.2251991e-06   2.3843315e-05   1.6731545e-05  -2.1523774e-05   1.5709917e-05  -9.1521586e-05  -1.0345837e-04  -3.5965462e-05  -4.2690535e-05  -1.0880231e-05  -2.8700606e-05  -4.5050339e-05  -1.7514024e-06  -1.3159716e-05  -1.1672673e-05  -2.0825306e-05   3.2553726e-06  -6.6218199e-05   1.1485628e-05   1.7705192e-05   1.6765305e-05   3.6362202e-05   1.7137947e-05   7.0721053e-06   4.8878264e-05   4.9302686e-05  -1.0354969e-05   8.8226632e-05   1.0760906e-05  -9.0320456e-05   3.2001906e-05  -4.8973783e-05   1.0812040e-04   5.1676233e-07   3.7865029e-05
   3.8270049e-05   2.0919199e-05   3.3359254e-05   5.8043038e-06   7.8428257e-06  -3.5507258e-06  -1.4631451e-06  -7.8652704e-07  -3.6390943e-06  -4.6332214e-05  -1.2904259e-05  -5.1250794e-05  -3.4467471e-06  -3.4215029e-06  -2.7871451e-05  -1.3793006e-05   1.0533789e-05   1.0841911e-05   9.5171026e-06   2.0999370e-05  -4.3551510e-05  -5.8271875e-05  -2.7845868e-05  -3.1339801e-05  -8.3785253e-06  -1.8867754e-06  -6.4560838e-05  -4.7556878e-06  -2.7932438e-05  -2.1184140e-05  -1.7349395e-05   1.7034377e-05  -7.5572125e-06   2.8074850e-05   1.7489958e-05   1.5455596e-05   1.6924723e-05   1.2390292e-05   9.0321573e-06   3.3272376e-05   3.3252578e-05  -4.3656946e-05   6.4239801e-05   2.3700890e-05  -9.0802081e-05   1.5789197e-05  -6.3011386e-05   6.5919950e-05  -1.1505243e-05   2.5338424e-05
   3.2534794e-05   2.3902662e-06   1.9854371e-05  -1.2535921e-05   4.6775672e-06  -1.2671480e-05  -1.2133472e-06  -2.1275466e-06  -2.2676528e-05  -4.7089889e-05  -2.2306805e-05  -6.6860965e-05  -3.0817382e-06  -5.7407938e-06  -3.5570712e-05  -5.8228652e-06   2.2968938e-05   7.4343093e-06  -2.0891172e-05  -1.2599311e-06  -6.9131733e-05  -9.9300552e-05  -2.9708692e-05  -7.2262541e-05  -8.5107085e-06  -3.7343601e-05  -4.7279114e-05  -3.9994925e-06  -1.8558143e-05  -2.2445038e-05  -1.8288692e-05   1.9785861e-05  -4.2227824e-05  -7.7356731e-07   2.3419008e-05  -2.1811984e-07   1.7156677e-05  -2.5093865e-07   4.6410179e-07   1.9131554e-05   1.2011511e-05  -2.5356265e-05   6.0364368e-05   2.9581309e-07  -1.1231637e-04   2.6223233e-06  -5.2580232e-05   2.1671989e-05  -1.1243564e-05   1.0407442e-05
   8.2015040e-06  -3.1914729e-05  -2.2821348e-06  -3.5339312e-05   1.0045455e-05  -1.4385976e-05  -8.2681881e-06   5.4528937e-06  -3.7997972e-05  -4.4681048e-05  -4.6764777e-05  -3.9302558e-05   4.2544439e-06   5.7973903e-06  -3.9881037e-05  -4.3013315e-06   1.2694061e-05   4.7385029e-06   3.1409945e-06   7.5106828e-07  -9.4586816e-05  -5.7603804e-05  -1.3548905e-05  -3.9211500e-05  -1.7199454e-05   1.2128327e-05  -6.6009437e-05  -3.7458037e-06  -4.5025066e-05  -2.9226227e-05  -2.9072602e-05   5.0904396e-06  -4.0437480e-05   2.3559267e-05   1.1891869e-05   5.7023499e-06   1.2808908e-05   3.1761226e-06   1.4104470e-06   3.5501900e-05   1.1430280e-05  -4.0404069e-05   6.6955938e-05   2.4154500e-05  -1.3259852e-04   1.6140493e-05  -5.9736842e-05   6.5098437e-05  -4.4335597e-05   5.4190168e-05
   2.7040433e-05  -1.9337993e-07   1.0629504e-05  -8.2223596e-06   3.5396683e-06  -1.8874684e-05  -1.5340356e-05   3.7666903e-06  -2.7777118e-05  -4.5874731e-05  -3.2308079e-05  -2.8707402e-05   7.7788864e-06   1.0936386e-05  -2.1095188e-05  -9.3007366e-06   1.5252920e-05   8.8678316e-06  -3.5946323e-05   8.9741852e-06  -8.0301004e-05  -5.7333247e-05  -1.5864041e-05  -5.2030249e-05   7.2266948e-06  -8.5450063e-07  -7.4893607e-05   1.0259024e-05  -5.6550405e-05  -3.1476964e-05  -2.0523525e-05  -1.2557812e-05  -4.1811210e-05   2.6862097e-05   1.3123972e-05   1.8907667e-05   7.8169596e-06   1.8775258e-05   1.2665477e-06   1.4872878e-05   1.4280164e-05  -7.1343915e-05   3.0895331e-05   2.3230950e-05  -1.2199634e-04   2.6638658e-05  -6.6876106e-05   3.2168708e-07  -7.9974425e-06   5.3285989e-05
   1.7970046e-05  -2.1668407e-06   6.5585218e-06  -2.0851840e-05   7.4609270e-06  -1.8163682e-05  -8.7264380e-06   5.1722232e-06  -4.2182928e-05  -5.2404364e-05  -3.2011376e-05  -4.9599297e-05   1.3334605e-05   9.8780029e-06  -2.1259048e-05   1.6874025e-06   1.8148468e-05   1.0829969e-05  -4.8646547e-05  -6.1506898e-06  -1.2158701e-04  -9.3986338e-05  -3.4312154e-05  -4.4913195e-05  -2.3452725e-05  -1.7895247e-05  -3.6366018e-05   3.4321347e-06  -2.6603650e-05  -2.0475856e-05  -1.2969393e-05   9.1711454e-06  -4.8366986e-05   1.4572815e-05   1.9309600e-05   7.9784850e-06   1.2014933e-05   4.3592281e-06   3.5623225e-07   1.6404192e-05   1.0484152e-05  -2.9460947e-05   3.7553182e-05   1.9558413e-05  -9.9988669e-05   2.3934554e-05  -4.2516524e-05   5.9533784e-05  -8.0207992e-06   3.1162723e-05
   5.0975897e-05   6.5141177e-07   4.5072065e-05   1.5390491e-05   7.3612036e-06  -4.0768750e-06   4.8097891e-06  -1.4785822e-05  -5.4427630e-07  -2.0891361e-05   2.2390732e-06  -5.8251033e-05   1.6347494e-05  -1.0817452e-05  -2.4626104e-05  -1.4845672e-05   1.1324992e-05  -1.0824535e-05   1.2239122e-05   2.3929555e-05  -8.2889273e-05  -1.1157162e-04  -1.7865928e-05  -1.5983207e-05   1.6975133e-05   1.3252376e-05  -7.7378732e-05  -8.4925823e-06  -5.4945616e-05  -2.9686606e-05  -8.5493721e-06   2.4150279e-07  -5.7962265e-05   3.0024059e-05   1.1144161e-05   1.3084952e-05   3.1054503e-06  -1.0562208e-05  -2.8024679e-06   3.2218370e-05   1.8147806e-05  -4.2596846e-05   6.2879997e-05   4.5252955e-06  -1.3640245e-04  -1.3914131e-05  -5.8956775e-05   3.6574045e-05  -2.6887275e-05   4.5390469e-05
   3.5790068e-05  -1.1548877e-05   2.8984388e-05  -9.9450353e-06   1.4759961e-06  -1.9222745e-05  -1.4972849e-05  -2.4984372e-05  -6.3078355e-06  -2.2920722e-05  -1.3008400e-05  -6.7126108e-05   1.6586502e-05  -2.3139466e-05  -3.1129122e-05  -2.7029173e-05   4.6011246e-06  -1.3275950e-05  -3.2274726e-05   1.8768311e-05  -3.4361587e-05  -1.1001934e-04  -3.0789168e-05  -7.5042997e-05  -1.0774887e-05  -1.6604190e-05  -6.9395996e-05  -1.3878832e-05  -3.6127196e-05  -3.0365694e-05  -3.6160473e-05   8.1216003e-06  -3.9257811e-05   1.2623199e-05   2.8604468e-06   1.8513441e-05   9.2910423e-06  -1.6304506e-05  -8.0476620e-06   1.1758997e-06   5.5582973e-06  -9.5875097e-05   5.4999615e-05  -5.3216263e-06  -1.5011136e-04  -3.4612953e-05  -1.1688954e-04   2.7567510e-05  -8.1860435e-06   3.4290253e-05
   1.0590602e-05  -2.7686685e-05   4.4671533e-06  -3.7111004e-05  -1.7410860e-06  -3.4982510e-05  -2.7244319e-05  -6.1238952e-06  -3.9544855e-05  -5.9980612e-05  -4.2749343e-05  -8.3182051e-05   1.0522798e-05  -1.4054727e-05  -4.0272276e-05  -2.7283491e-05  -4.1918065e-06  -3.6066438e-06  -4.5456378e-05  -2.5405657e-06  -9.2937436e-05  -5.3833064e-05  -3.2325333e-05  -5.3605709e-05  -2.8457125e-06  -6.6119096e-06  -7.2723189e-05  -1.8227211e-05  -5.3084041e-05  -3.1453848e-05  -2.5013576e-05  -3.7773352e-06  -6.4122672e-05   1.2688090e-05   9.1674101e-06  -4.7519584e-06  -2.0747059e-06   1.0106550e-06   6.5673498e-07   5.9195663e-06   1.8273069e-05  -6.4233762e-05   5.6832785e-05   2.8013599e-05  -8.0703729e-05   3.4798464e-05  -7.8975572e-05   4.7166610e-05  -2.5804045e-05   9.7159791e-06
   3.2132470e-05   1.2802156e-05   1.9087371e-05  -2.4920266e-06  -3.9871393e-06  -2.3954704e-05  -2.4758441e-05  -1.9992443e-05  -2.0324373e-05  -3.0902742e-05  -1.6197215e-05  -4.7277848e-05   1.8156099e-05  -1.3614478e-05  -2.7379394e-05  -4.0884941e-05  -7.7540935e-06  -1.9118323e-05  -2.5864234e-05  -8.3241530e-06  -3.3455890e-05  -4.1448995e-05  -2.4549248e-05  -3.9947765e-05   2.0804948e-06  -5.7094785e-06  -7.4242169e-05  -1.3010852e-05  -7.1248884e-05  -3.4509660e-05  -2.2869644e-05  -2.3134444e-06  -3.0420266e-05   1.6036853e-05   5.3145327e-06  -6.7552510e-06  -3.1905383e-06  -1.5559886e-05  -5.7052230e-06  -9.7339316e-06  -1.2227044e-05  -8.3160630e-05   1.3801389e-05   1.3071075e-05  -1.2570989e-04   1.4195730e-06  -1.1901664e-04  -3.5823432e-05   7.5372145e-07   2.8080201e-05
