  -1.6182304e-03  -7.6840352e-04  -9.8492741e-04  -1.3736633e-03  -7.9246593e-04  -8.3734270e-04  -1.1516026e-03  -9.4655569e-04  -5.1783741e-04   7.6348602e-04  -3.3854620e-04   6.4846600e-04  -1.2334669e-03  -1.4259960e-03  -1.3648351e-03  -1.3408179e-03  -1.4998463e-03  -1.2190019e-03  -1.4411126e-03  -1.2255053e-03   9.1627167e-05  -3.5906167e-04  -9.0861652e-04  -6.6737150e-05  -1.6458082e-03  -1.1586461e-03  -1.1668477e-03  -1.4657436e-03  -1.4194967e-03  -7.4988708e-04  -1.5693414e-03  -2.2158383e-03  -7.7690935e-04  -1.1711570e-03  -1.0928749e-03  -5.5825111e-04  -7.4209698e-04  -1.4203475e-03  -7.2724017e-04  -1.3752574e-03  -1.1688096e-04  -1.9002383e-04  -9.0030697e-04  -9.1566955e-04  -4.8204936e-04  -9.9889201e-04  -4.5244480e-05  -3.1381048e-04  -4.9924053e-04  -8.5675332e-04
  -8.7268860e-04  -2.9879919e-05  -1.7370493e-04  -5.0261267e-04  -2.1065840e-04  -3.0928690e-04  -4.9944507e-04  -5.9579109e-04  -3.8204158e-05   1.2412380e-03   1.3726538e-04   1.0972925e-03  -8.1231870e-04  -1.1085874e-03  -1.0342173e-03  -1.0727879e-03  -1.2123240e-03  -9.9690678e-04  -9.7339059e-04  -8.3949900e-04   5.3130317e-04   1.1275993e-04  -4.4122236e-04   2.1175625e-04  -1.1976667e-03  -5.9499376e-04  -9.3123916e-04  -1.1721882e-03  -1.1437044e-03  -4.7339639e-04  -1.3193490e-03  -1.9520577e-03  -4.8334227e-04  -8.5563684e-04  -8.7935093e-04  -3.5742001e-04  -4.9906236e-04  -1.2295027e-03  -5.6358060e-04  -1.2329685e-03  -1.5167292e-04  -2.0594380e-04  -7.9012814e-04  -8.8996242e-04  -4.8357405e-04  -8.9622568e-04  -5.0135909e-06  -2.5335635e-04  -4.8474426e-04  -8.0319535e-04
  -1.0130062e-03  -2.1034075e-04  -3.7667819e-04  -7.0957758e-04  -3.1579137e-04  -4.0107191e-04  -6.6044304e-04  -5.8039895e-04  -1.9740910e-04   9.9634659e-04  -1.4448467e-05   8.6811860e-04  -8.5110904e-04  -1.0823575e-03  -1.0377200e-03  -1.0081303e-03  -1.2060925e-03  -9.6404500e-04  -1.1210480e-03  -8.6074404e-04   3.1677954e-04  -5.6856064e-05  -5.6935422e-04   3.4194800e-05  -1.3051154e-03  -7.8964600e-04  -9.1699371e-04  -1.2285711e-03  -1.1455776e-03  -5.3261890e-04  -1.3828230e-03  -1.9943067e-03  -7.3700858e-04  -1.0659347e-03  -9.6695131e-04  -6.4187380e-04  -6.5338204e-04  -1.3500592e-03  -7.8284240e-04  -1.5025021e-03  -6.0474168e-04  -4.0091432e-04  -1.0362500e-03  -1.2337697e-03  -7.3056761e-04  -1.0837761e-03  -2.1946013e-04  -5.1898812e-04  -8.9275418e-04  -1.0684218e-03
  -1.5558337e-03  -8.2312222e-04  -9.2623016e-04  -1.2912552e-03  -6.3516531e-04  -6.8954477e-04  -9.9619769e-04  -7.6866150e-04  -3.5269940e-04   9.9332922e-04  -1.2084615e-04   8.5461873e-04  -8.3702302e-04  -1.1080189e-03  -1.0571043e-03  -9.8249956e-04  -1.1983615e-03  -9.5305406e-04  -9.1543572e-04  -7.5068325e-04   4.5591968e-04   1.1735783e-04  -3.0317961e-04   2.6969475e-04  -1.0132585e-03  -4.4891011e-04  -8.1900781e-04  -1.0589870e-03  -1.0456854e-03  -3.9820699e-04  -1.2041142e-03  -1.8189694e-03  -2.4318472e-04  -6.6459982e-04  -7.2757527e-04  -1.8250926e-04  -3.7967687e-04  -1.0639696e-03  -3.7987312e-04  -1.0170464e-03   9.5392497e-05  -9.3782292e-05  -5.9531722e-04  -6.7681435e-04  -3.4326944e-04  -7.4383651e-04   5.0915140e-05  -1.1286485e-04  -3.8157246e-04  -7.1699580e-04
  -7.6614431e-04  -5.7451278e-05  -1.1631367e-04  -3.8599790e-04  -6.7553818e-05  -2.0109137e-04  -3.7098315e-04  -3.7258284e-04  -3.2749431e-05   1.1477736e-03   1.7032684e-04   1.0304340e-03  -5.8494147e-04  -8.3505799e-04  -8.1664132e-04  -7.5892528e-04  -1.0090775e-03  -7.7984604e-04  -8.4637263e-04  -6.2705710e-04   4.8402880e-04   1.7534477e-04  -2.6664365e-04   3.0228921e-04  -9.2189678e-04  -4.1447088e-04  -6.9148821e-04  -9.8557735e-04  -8.8505674e-04  -3.2100713e-04  -1.1286638e-03  -1.7145108e-03  -2.7665362e-04  -6.6490052e-04  -6.6834292e-04  -2.1131980e-04  -3.3235026e-04  -1.0308340e-03  -4.0150507e-04  -1.0841249e-03  -1.0845772e-04  -1.5258433e-04  -6.4980023e-04  -7.8631705e-04  -4.3627486e-04  -7.3303265e-04  -3.6655052e-05  -2.5031908e-04  -5.3661584e-04  -8.5164129e-04
  -1.0427226e-03  -3.4166165e-04  -4.2060719e-04  -6.8769115e-04  -2.5561216e-04  -3.8468617e-04  -5.8703485e-04  -4.2775972e-04  -2.6548537e-04   8.5475529e-04  -5.1829433e-05   7.6791761e-04  -7.2414894e-04  -8.7190716e-04  -8.8762213e-04  -7.6569931e-04  -1.0774650e-03  -7.9164124e-04  -1.1109138e-03  -8.9086080e-04   2.2589794e-04  -1.1974595e-04  -5.0482998e-04   9.5084906e-05  -1.1729785e-03  -7.4855745e-04  -7.5332151e-04  -1.1000939e-03  -9.5762906e-04  -4.5712263e-04  -1.2617614e-03  -1.8402493e-03  -6.9057167e-04  -9.8998623e-04  -8.3575933e-04  -5.6908245e-04  -5.4897595e-04  -1.2085505e-03  -6.7439344e-04  -1.4136939e-03  -5.7307741e-04  -3.6071785e-04  -9.6043758e-04  -1.1325666e-03  -6.4173178e-04  -9.3938399e-04  -1.4146938e-04  -4.1013330e-04  -5.5203051e-04  -8.7470142e-04
  -9.6731563e-04  -2.3257492e-04  -1.4484010e-04  -3.6012442e-04   1.8426137e-05  -1.4337861e-04  -2.6510615e-04  -2.7386699e-04   2.8334227e-05   1.2091319e-03   2.3705965e-04   1.1041076e-03  -4.7317028e-04  -7.0526026e-04  -7.1077608e-04  -6.3415722e-04  -9.1362657e-04  -6.9479976e-04  -7.5062970e-04  -5.1003060e-04   5.9923151e-04   2.3623656e-04  -9.5569419e-05   4.3242489e-04  -7.3428854e-04  -2.2697885e-04  -5.6618050e-04  -8.1769394e-04  -7.3992764e-04  -2.0482756e-04  -9.8819158e-04  -1.5565073e-03  -8.8039313e-05  -4.3891539e-04  -4.8701727e-04   1.6125587e-05  -1.3877185e-04  -8.4797072e-04  -1.8051312e-04  -8.2388916e-04   1.7735870e-04  -3.0857533e-05  -4.9738999e-04  -5.4521841e-04  -2.2386754e-04  -5.6468934e-04   3.7550977e-05  -7.8139281e-05  -3.0170981e-04  -6.7192933e-04
  -6.1544665e-04  -7.2116353e-07   7.5360957e-05  -1.3887753e-04   1.5522369e-04  -4.7068716e-05  -1.3371732e-04  -1.0992411e-04   5.4687163e-05   1.1122487e-03   2.5257224e-04   1.0413956e-03  -4.1881460e-04  -5.7903473e-04  -6.2122120e-04  -5.0751201e-04  -8.3897129e-04  -5.9629802e-04  -7.7530614e-04  -5.5867177e-04   4.5725869e-04   1.7373670e-04  -1.4150100e-04   3.5497433e-04  -7.4369676e-04  -2.8227532e-04  -5.1360385e-04  -8.2133349e-04  -6.7287189e-04  -2.0666240e-04  -9.8576723e-04  -1.5176530e-03  -2.3101983e-04  -5.4194283e-04  -5.0585123e-04  -1.1035527e-04  -1.8636652e-04  -8.8088406e-04  -2.6319129e-04  -9.5465023e-04  -2.9728786e-05  -1.5465703e-04  -6.2445214e-04  -6.9612451e-04  -3.3713310e-04  -6.1851402e-04  -4.7545960e-05  -3.2771376e-04  -5.2689324e-04  -8.0904708e-04
  -1.0548173e-03  -3.9752817e-04  -4.0880291e-04  -6.1610434e-04  -1.7540382e-04  -3.3976999e-04  -4.9253076e-04  -2.7293240e-04  -2.8016180e-04   7.5682125e-04  -5.5782140e-05   7.1955810e-04  -6.3940469e-04  -7.0791785e-04  -7.7429687e-04  -5.8106700e-04  -9.6416241e-04  -6.9103157e-04  -1.0816992e-03  -8.1712438e-04   1.7423030e-04  -1.3068605e-04  -3.9423417e-04   1.6740416e-04  -9.6068834e-04  -5.9254497e-04  -5.8473583e-04  -9.1955438e-04  -7.8752812e-04  -3.3672253e-04  -1.0285723e-03  -1.5853228e-03  -2.8045080e-04  -6.0984830e-04  -5.1540433e-04  -4.2854332e-05  -1.7524081e-04  -8.0759783e-04  -1.4704911e-04  -7.8171422e-04   3.7876543e-04  -7.5548878e-06  -3.8587290e-04  -3.6576175e-04  -9.9615332e-05  -4.6414830e-04   5.0044058e-05  -7.0138172e-05  -1.1562111e-04  -5.3105201e-04
  -3.8820374e-04   1.8589677e-04   3.1730358e-04   1.5989949e-04   3.7312409e-04   1.2871207e-04   1.0789254e-04   7.1956129e-05   1.5758000e-04   1.2104232e-03   3.8095965e-04   1.1557491e-03  -2.7163766e-04  -4.0111743e-04  -4.5922861e-04  -3.3897188e-04  -7.0115132e-04  -5.0016562e-04  -6.3632120e-04  -4.0700336e-04   5.9871312e-04   3.1019014e-04   6.1840532e-05   4.9118669e-04  -5.0107681e-04  -5.3524487e-05  -3.4155382e-04  -5.8395258e-04  -4.6676773e-04  -3.0758041e-05  -8.0273167e-04  -1.3352662e-03   4.4595352e-05  -2.7698683e-04  -2.7172000e-04   1.9314444e-04   1.1055012e-04  -6.1747106e-04   4.3599750e-05  -5.8107870e-04   3.9829899e-04   8.6119129e-05  -3.6732279e-04  -3.3139213e-04  -3.6209327e-05  -3.6922671e-04   6.0915660e-05  -1.5408729e-04  -1.6948165e-04  -5.5873784e-04
  -5.5916194e-04   1.5271593e-05   8.9427791e-05  -4.9241120e-05   2.3097315e-04  -6.2061094e-06  -5.3377960e-05   1.9194267e-05   5.0131744e-06   9.8549901e-04   2.2513274e-04   9.5580606e-04  -3.8101303e-04  -4.3069851e-04  -5.1452580e-04  -3.2561741e-04  -7.3990342e-04  -5.0909957e-04  -7.6884142e-04  -5.3589774e-04   4.3668924e-04   1.3238323e-04  -1.0168046e-04   3.7610697e-04  -6.6785869e-04  -2.7317536e-04  -3.7644798e-04  -6.7759573e-04  -5.3050043e-04  -1.1587056e-04  -8.9617015e-04  -1.4040347e-03  -2.2782371e-04  -5.2766362e-04  -4.0828355e-04  -8.0238300e-05  -7.0950766e-05  -7.8294380e-04  -1.8694992e-04  -9.0672821e-04  -6.9425580e-05  -1.8431793e-04  -6.9745333e-04  -6.9176138e-04  -3.5292402e-04  -5.9331366e-04  -1.9624567e-04  -4.8761669e-04  -5.4275233e-04  -8.3258300e-04
  -1.1644255e-03  -5.8563193e-04  -5.0667429e-04  -6.6864712e-04  -1.5640483e-04  -3.3385490e-04  -4.3623726e-04  -2.1834379e-04  -1.4477197e-04   9.3708449e-04   6.0752271e-05   9.0203673e-04  -4.3171964e-04  -5.3891301e-04  -5.9932307e-04  -3.7505000e-04  -7.7292533e-04  -5.5157923e-04  -6.5463549e-04  -4.8747016e-04   5.5641262e-04   2.6486648e-04   1.0197131e-04   5.0349924e-04  -4.0291806e-04   2.7670609e-05  -3.3189217e-04  -4.8730470e-04  -4.4590302e-04   1.3911650e-05  -7.4739673e-04  -1.2357441e-03   1.9148797e-04  -1.7003034e-04  -1.8203241e-04   2.9879253e-04   2.2621293e-04  -5.1643420e-04   1.8987704e-04  -4.0743072e-04   5.9562316e-04   1.0299975e-04  -2.7428905e-04  -1.5405269e-04   7.7130644e-05  -3.0713805e-04   1.2533622e-05  -1.9075292e-04  -1.1888924e-05  -4.7985915e-04
  -3.1665314e-04   2.5665248e-04   3.3286988e-04   2.4252795e-04   4.3221889e-04   1.6113702e-04   1.9789343e-04   1.4415290e-04   1.3882069e-04   1.1493168e-03   3.9496002e-04   1.1150761e-03  -2.3185623e-04  -2.9958657e-04  -3.7530516e-04  -1.9598016e-04  -6.1231793e-04  -4.3610286e-04  -5.6019356e-04  -3.5996988e-04   6.6271151e-04   3.4304569e-04   1.7182747e-04   5.2414433e-04  -3.1727288e-04   5.3147043e-05  -2.3280716e-04  -4.0679571e-04  -3.2650353e-04   8.7622699e-05  -7.1695441e-04  -1.1635894e-03   1.8363773e-04  -2.0656812e-04  -1.4892498e-04   2.6216323e-04   2.4621235e-04  -5.3896138e-04   1.6147962e-04  -4.8457051e-04   4.2072908e-04  -4.1656449e-06  -3.8686828e-04  -3.1876823e-04  -3.9480565e-05  -3.9520467e-04  -1.2402820e-04  -2.7901059e-04  -1.7884892e-04  -5.6574697e-04
  -6.8689091e-04  -7.0713788e-05  -6.4767752e-05  -1.5330492e-04   1.5791602e-04  -6.1110521e-05  -8.8502660e-05  -1.0785416e-05  -7.4672884e-05   8.4833114e-04   1.5824915e-04   8.2092226e-04  -4.4038027e-04  -4.4064995e-04  -4.9962965e-04  -3.3320655e-04  -7.5648137e-04  -5.3208059e-04  -8.5984351e-04  -6.7091914e-04   3.3429486e-04   5.9524973e-05  -1.3475612e-04   2.8237727e-04  -6.5877399e-04  -3.1090208e-04  -3.4618139e-04  -6.1985245e-04  -4.8381923e-04  -1.0013350e-04  -9.1176777e-04  -1.3604939e-03  -2.2673162e-04  -5.8337080e-04  -3.9305771e-04  -1.2240960e-04  -2.3177870e-05  -7.9713779e-04  -1.8201723e-04  -9.1482548e-04  -1.0167733e-04  -2.5398441e-04  -7.7387894e-04  -7.3658593e-04  -3.8265102e-04  -6.5976189e-04  -3.9391324e-04  -6.5252412e-04  -5.8513047e-04  -8.8852679e-04
  -1.3185482e-03  -6.6253799e-04  -7.1299565e-04  -8.3166588e-04  -3.1314261e-04  -4.5718922e-04  -5.9040322e-04  -3.2723145e-04  -4.6721654e-04   4.9803988e-04  -2.0589458e-04   4.7193383e-04  -7.5707823e-04  -7.2747673e-04  -7.2533829e-04  -5.7224772e-04  -9.9870178e-04  -7.0455886e-04  -1.2356429e-03  -9.9449686e-04   7.4024785e-05  -2.8519501e-04  -4.9905054e-04  -2.9305893e-05  -1.0000712e-03  -7.4022170e-04  -5.3907052e-04  -8.3606131e-04  -7.0730416e-04  -3.3005563e-04  -1.1299889e-03  -1.5858895e-03  -4.5785939e-04  -8.9687831e-04  -5.6508690e-04  -2.2924157e-04  -1.9040953e-04  -8.9370459e-04  -2.1512966e-04  -8.5682533e-04   3.4124361e-04  -1.6166372e-04  -6.1580341e-04  -4.3233376e-04  -1.8642432e-04  -5.6625658e-04  -3.0582110e-04  -4.0966249e-04  -1.6488387e-04  -6.3017529e-04
  -5.6721468e-04   6.8444504e-05   1.1389501e-04   5.6968249e-05   2.6333542e-04   1.3665016e-05   7.1855909e-05  -6.4398773e-05  -6.9605712e-06   1.0809718e-03   2.7889182e-04   1.0289755e-03  -4.0753023e-04  -5.2197697e-04  -4.9027358e-04  -4.3687917e-04  -7.9216354e-04  -6.1011821e-04  -7.0848019e-04  -5.9982622e-04   5.3671323e-04   2.6134797e-04   2.4623438e-05   4.2203977e-04  -4.5714900e-04  -6.9926136e-05  -3.4832637e-04  -4.7531593e-04  -4.7602472e-04  -2.3251300e-06  -8.6984551e-04  -1.3038891e-03   5.8806520e-05  -3.5738025e-04  -2.7691494e-04   1.4423011e-04   1.6334900e-04  -6.9095619e-04   8.1109050e-05  -5.6028372e-04   4.0050171e-04  -1.0046429e-04  -5.1911332e-04  -3.7061519e-04  -1.5261090e-04  -5.2086380e-04  -3.2982373e-04  -4.1017897e-04  -2.1541858e-04  -6.2645017e-04
  -7.2718336e-04  -3.8981249e-05  -9.2773465e-05  -1.4062798e-04   9.4600910e-05  -1.0550560e-04  -9.8703662e-05  -1.4315995e-04  -1.2982219e-04   8.9271355e-04   1.5848107e-04   8.2989136e-04  -5.5268907e-04  -6.1711267e-04  -5.6744512e-04  -5.2048673e-04  -8.7651628e-04  -6.7777548e-04  -8.9004007e-04  -7.2910078e-04   4.0188213e-04   9.0523165e-05  -1.5821662e-04   2.2599932e-04  -6.5132719e-04  -3.1325148e-04  -4.5308488e-04  -5.9380295e-04  -5.8859843e-04  -1.2083532e-04  -9.9137437e-04  -1.4153082e-03  -1.7116497e-04  -6.0533715e-04  -4.3010202e-04  -1.6464622e-04  -1.9201303e-05  -8.8998157e-04  -2.0016448e-04  -8.9804415e-04  -6.4669228e-05  -3.7527483e-04  -8.8160310e-04  -7.7108317e-04  -4.3367789e-04  -7.6994934e-04  -5.5351568e-04  -7.8001595e-04  -5.3539471e-04  -8.8547065e-04
  -1.3609038e-03  -6.0104305e-04  -7.5126573e-04  -8.4123662e-04  -3.7968039e-04  -5.0855777e-04  -6.1100384e-04  -4.6807827e-04  -5.0255109e-04   5.1926391e-04  -2.0056129e-04   4.6406392e-04  -8.6607138e-04  -8.8715530e-04  -8.0323312e-04  -7.6277554e-04  -1.1072613e-03  -8.5175206e-04  -1.2610679e-03  -1.0845171e-03   6.0967290e-05  -2.4500501e-04  -5.0726649e-04  -5.5256471e-05  -1.0434767e-03  -7.3766406e-04  -6.3746923e-04  -8.3317590e-04  -8.2358695e-04  -3.6485639e-04  -1.2461704e-03  -1.6596154e-03  -6.2355946e-04  -1.0193032e-03  -7.2310184e-04  -5.5559078e-04  -3.3098538e-04  -1.2168386e-03  -5.9369940e-04  -1.3380304e-03  -6.0638273e-04  -6.9220411e-04  -1.2899226e-03  -1.2161953e-03  -7.9182984e-04  -1.1516168e-03  -8.0912496e-04  -1.1248321e-03  -9.4064005e-04  -1.1473388e-03
  -1.7384603e-03  -9.8278851e-04  -8.8701077e-04  -1.0152691e-03  -4.0114421e-04  -5.2725506e-04  -5.8289547e-04  -5.8526645e-04  -3.2661000e-04   8.6289836e-04  -6.3398620e-05   7.7269931e-04  -7.6919288e-04  -9.3867123e-04  -7.8946841e-04  -8.5353432e-04  -1.1194531e-03  -9.0102543e-04  -9.4387901e-04  -8.6448446e-04   3.6331601e-04   4.5648692e-05  -2.0325059e-04   2.5154735e-04  -7.3021255e-04  -3.2193010e-04  -6.2594487e-04  -6.6624593e-04  -7.5159129e-04  -2.0552702e-04  -1.1349398e-03  -1.5359024e-03  -9.2106558e-05  -5.9240160e-04  -5.1889668e-04  -1.1056069e-04  -3.1646661e-05  -9.9586800e-04  -1.7983501e-04  -7.8769331e-04   1.8396825e-04  -4.3467322e-04  -8.1061485e-04  -6.5365533e-04  -4.2948412e-04  -8.7084132e-04  -6.3649227e-04  -6.9904356e-04  -3.9674333e-04  -7.8144460e-04
  -1.0727554e-03  -2.6398950e-04  -4.0101720e-04  -4.9368833e-04  -2.0020946e-04  -3.6132243e-04  -3.5851632e-04  -5.0595013e-04  -2.5510613e-04   8.3591847e-04   3.3101410e-06   7.2867319e-04  -8.1181782e-04  -9.6011237e-04  -8.0404105e-04  -8.9853210e-04  -1.1426666e-03  -9.3337684e-04  -1.0103271e-03  -9.1991795e-04   3.4405669e-04  -6.4756778e-06  -2.8408473e-04   1.2097492e-04  -8.2636770e-04  -4.7674039e-04  -6.9666584e-04  -7.2864635e-04  -8.5262355e-04  -2.7554267e-04  -1.2111794e-03  -1.6145406e-03  -2.6641146e-04  -7.5632328e-04  -6.2534423e-04  -3.2663683e-04  -1.8517888e-04  -1.1412274e-03  -3.9954353e-04  -1.0318080e-03  -1.7546980e-04  -6.0565735e-04  -1.0293496e-03  -9.3179371e-04  -6.8796379e-04  -1.0157195e-03  -7.6212990e-04  -8.9497294e-04  -6.6026329e-04  -9.3124906e-04
  -1.5297798e-03  -6.3561369e-04  -9.2880148e-04  -1.0561529e-03  -6.0188409e-04  -6.9317938e-04  -8.1443170e-04  -7.6334225e-04  -6.0043437e-04   4.7594777e-04  -2.8857886e-04   3.7023463e-04  -1.1050733e-03  -1.2085512e-03  -9.9066179e-04  -1.1141528e-03  -1.3551067e-03  -1.0779590e-03  -1.3735631e-03  -1.2209218e-03   2.2972277e-05  -3.5555646e-04  -6.4879411e-04  -1.6437379e-04  -1.2183352e-03  -9.4029593e-04  -8.7101269e-04  -9.7852084e-04  -1.0875408e-03  -5.3985475e-04  -1.4478768e-03  -1.8574407e-03  -7.8373065e-04  -1.1945008e-03  -9.0734952e-04  -7.8412268e-04  -5.1687402e-04  -1.4745159e-03  -8.3272153e-04  -1.5142813e-03  -7.7896874e-04  -9.1899472e-04  -1.4443810e-03  -1.4174285e-03  -1.0628101e-03  -1.3948069e-03  -9.8838669e-04  -1.2755769e-03  -1.0300530e-03  -1.2544420e-03
  -2.0822233e-03  -1.1623368e-03  -1.3869095e-03  -1.6196199e-03  -8.7664690e-04  -9.4165420e-04  -1.0968914e-03  -9.9942926e-04  -5.6659390e-04   6.6651532e-04  -3.4387424e-04   5.2852882e-04  -1.0943036e-03  -1.3188128e-03  -1.0716519e-03  -1.2326022e-03  -1.4193055e-03  -1.1772600e-03  -1.1802061e-03  -1.1122940e-03   2.7270443e-04  -1.4486120e-04  -4.4590759e-04   5.6729034e-05  -9.6840144e-04  -6.1526510e-04  -8.9716789e-04  -9.1290154e-04  -1.1106711e-03  -4.4407035e-04  -1.3944498e-03  -1.7945846e-03  -3.6256149e-04  -8.7178982e-04  -7.9319347e-04  -3.9768795e-04  -3.2057406e-04  -1.3133904e-03  -5.1349576e-04  -1.0987344e-03  -1.1317912e-04  -6.8934669e-04  -1.1055502e-03  -9.5198239e-04  -7.8938465e-04  -1.0887131e-03  -7.9592789e-04  -9.1533485e-04  -5.9192284e-04  -8.9751481e-04
  -1.4288623e-03  -4.9329776e-04  -7.7647023e-04  -9.2870696e-04  -5.6243408e-04  -6.7040796e-04  -7.3094235e-04  -8.5357029e-04  -4.5372016e-04   7.0622523e-04  -1.9390158e-04   5.8737490e-04  -1.0888658e-03  -1.3062608e-03  -1.0365555e-03  -1.2751888e-03  -1.4295804e-03  -1.2041844e-03  -1.2489789e-03  -1.1628802e-03   2.4849345e-04  -1.6189969e-04  -5.7321793e-04  -2.2047851e-05  -1.1129780e-03  -7.5594941e-04  -9.6696737e-04  -9.8587153e-04  -1.1840302e-03  -5.1871326e-04  -1.4609199e-03  -1.8587349e-03  -5.5281230e-04  -1.0416281e-03  -8.9934404e-04  -5.9855159e-04  -4.6754366e-04  -1.4616597e-03  -7.0563948e-04  -1.3464463e-03  -4.7216300e-04  -7.4581138e-04  -1.3224478e-03  -1.2110134e-03  -8.9643226e-04  -1.2025307e-03  -8.4191380e-04  -1.0866872e-03  -7.2946254e-04  -1.0418387e-03
  -1.8045929e-03  -8.9085544e-04  -1.2180607e-03  -1.4145018e-03  -8.9927320e-04  -9.6085080e-04  -1.1268195e-03  -1.0428885e-03  -6.8190845e-04   4.0265283e-04  -4.3973181e-04   2.7810159e-04  -1.3263355e-03  -1.4912726e-03  -1.1940879e-03  -1.4373183e-03  -1.5925129e-03  -1.3219704e-03  -1.5366543e-03  -1.4678731e-03  -7.6064134e-05  -4.6999683e-04  -8.7581621e-04  -3.4053068e-04  -1.4610896e-03  -1.2020464e-03  -1.1340954e-03  -1.1932151e-03  -1.4348677e-03  -7.6459727e-04  -1.6691863e-03  -2.0899973e-03  -1.0369614e-03  -1.4586044e-03  -1.1512219e-03  -1.0516013e-03  -7.8076753e-04  -1.7549581e-03  -1.1234864e-03  -1.8019441e-03  -1.0647320e-03  -9.6856320e-04  -1.7253284e-03  -1.6475940e-03  -1.1864075e-03  -1.5024079e-03  -9.2066370e-04  -1.2738728e-03  -8.9001143e-04  -1.0949265e-03
  -1.7808843e-03  -7.9898810e-04  -9.5211249e-04  -1.1723514e-03  -6.9641526e-04  -7.8470702e-04  -8.7601569e-04  -1.0227490e-03  -4.3668991e-04   8.0634654e-04  -2.1030672e-04   6.6240295e-04  -1.1533806e-03  -1.4641433e-03  -1.1316402e-03  -1.4585084e-03  -1.5363178e-03  -1.3384977e-03  -1.2763226e-03  -1.1897867e-03   2.6877958e-04  -1.2840588e-04  -5.9380906e-04  -4.3146672e-05  -1.1503960e-03  -7.4650993e-04  -1.1147244e-03  -1.0606485e-03  -1.3635607e-03  -6.0148624e-04  -1.5096763e-03  -1.9579143e-03  -5.1745080e-04  -9.8880357e-04  -9.4844156e-04  -5.9286412e-04  -5.0234061e-04  -1.5183043e-03  -7.3105458e-04  -1.3104232e-03  -3.6621143e-04  -7.1868871e-04  -1.2991434e-03  -1.1575386e-03  -8.0973131e-04  -1.1921866e-03  -7.4916554e-04  -1.0031257e-03  -6.3580141e-04  -9.1666129e-04
  -1.5238422e-03  -5.4451847e-04  -8.5622718e-04  -1.1134078e-03  -7.1526866e-04  -7.8569935e-04  -9.1234420e-04  -1.0188139e-03  -4.7020259e-04   6.8712496e-04  -2.4822567e-04   5.5803888e-04  -1.1999160e-03  -1.4838842e-03  -1.1453959e-03  -1.4797879e-03  -1.5548365e-03  -1.3533235e-03  -1.3424148e-03  -1.2744204e-03   1.9117547e-04  -2.2524834e-04  -6.9874729e-04  -1.5082837e-04  -1.3086902e-03  -9.2769234e-04  -1.1639055e-03  -1.1430095e-03  -1.4066019e-03  -6.9148140e-04  -1.5800564e-03  -2.0222752e-03  -6.9649448e-04  -1.1936156e-03  -1.0518805e-03  -8.3321577e-04  -6.8000355e-04  -1.6473484e-03  -9.5844385e-04  -1.5392840e-03  -7.0127595e-04  -8.3239679e-04  -1.4491779e-03  -1.3805383e-03  -1.0115354e-03  -1.3244189e-03  -8.7773701e-04  -1.1478856e-03  -8.1554643e-04  -1.0834630e-03
  -1.9845376e-03  -9.7491522e-04  -1.4008858e-03  -1.6966644e-03  -1.1047859e-03  -1.1244481e-03  -1.3683179e-03  -1.2389540e-03  -8.1685762e-04   3.1393784e-04  -5.7049823e-04   1.9690329e-04  -1.4563282e-03  -1.6807785e-03  -1.3074530e-03  -1.6220781e-03  -1.7176609e-03  -1.4327278e-03  -1.6869679e-03  -1.5362700e-03  -1.4336414e-04  -5.6968810e-04  -1.0397509e-03  -3.8413904e-04  -1.6023309e-03  -1.3414667e-03  -1.2953365e-03  -1.3407142e-03  -1.6107298e-03  -9.0372487e-04  -1.7048761e-03  -2.1686028e-03  -9.6715649e-04  -1.4089743e-03  -1.1588725e-03  -8.7370601e-04  -7.6288631e-04  -1.6839313e-03  -9.7248063e-04  -1.4877414e-03  -2.7419085e-04  -6.6198525e-04  -1.1795306e-03  -1.0683562e-03  -8.2557090e-04  -1.1840684e-03  -7.3413522e-04  -7.9069525e-04  -4.9266330e-04  -7.9318305e-04
  -1.3001092e-03  -2.7017185e-04  -6.4167765e-04  -9.2074153e-04  -6.0973188e-04  -6.7989406e-04  -8.1165676e-04  -1.0065529e-03  -4.0789953e-04   8.2624011e-04  -1.4956281e-04   6.7215646e-04  -1.1281802e-03  -1.4838044e-03  -1.0886691e-03  -1.4897104e-03  -1.5096426e-03  -1.3074077e-03  -1.1908222e-03  -1.0976216e-03   2.8118386e-04  -8.6050088e-05  -6.2678405e-04  -6.8095294e-05  -1.1926810e-03  -7.5407879e-04  -1.1752119e-03  -1.0948693e-03  -1.4317741e-03  -6.6314917e-04  -1.4948265e-03  -1.9422801e-03  -5.1849638e-04  -1.0053928e-03  -9.5926988e-04  -6.1903318e-04  -5.6840089e-04  -1.5278143e-03  -8.1756531e-04  -1.3291008e-03  -3.2933301e-04  -6.0725806e-04  -1.0877942e-03  -1.0634129e-03  -7.5932354e-04  -1.1249696e-03  -7.1100402e-04  -8.0119580e-04  -5.3177786e-04  -8.1535289e-04
  -1.4491911e-03  -4.8254180e-04  -8.4640295e-04  -1.1716594e-03  -7.7765970e-04  -8.0777128e-04  -1.0135768e-03  -1.0464746e-03  -4.9627281e-04   6.0611957e-04  -2.9065108e-04   4.6911841e-04  -1.2004375e-03  -1.5074711e-03  -1.1237242e-03  -1.4907470e-03  -1.5414319e-03  -1.2951541e-03  -1.3733357e-03  -1.2447528e-03   7.7461482e-05  -2.6381871e-04  -7.9038285e-04  -2.3965942e-04  -1.3609526e-03  -9.9716126e-04  -1.2185065e-03  -1.1866508e-03  -1.4861611e-03  -7.7072106e-04  -1.5635627e-03  -2.0132507e-03  -8.7765983e-04  -1.2438460e-03  -1.0733610e-03  -9.5169706e-04  -7.7232654e-04  -1.6721966e-03  -1.0901099e-03  -1.6717892e-03  -8.5603516e-04  -8.4335450e-04  -1.3703749e-03  -1.4130694e-03  -1.0451300e-03  -1.3048497e-03  -8.6251134e-04  -1.0585593e-03  -8.0070086e-04  -1.0446346e-03
  -2.0328406e-03  -1.0883589e-03  -1.4921150e-03  -1.8616915e-03  -1.1927974e-03  -1.1822663e-03  -1.5016706e-03  -1.2968830e-03  -8.9953671e-04   2.6505094e-04  -6.5587217e-04   1.3188399e-04  -1.4114325e-03  -1.6738402e-03  -1.2911308e-03  -1.5933427e-03  -1.6711347e-03  -1.3776983e-03  -1.4442471e-03  -1.3073423e-03   9.8046301e-05  -3.1980634e-04  -8.0140732e-04  -2.2788724e-04  -1.2877358e-03  -9.3908794e-04  -1.2286406e-03  -1.1687347e-03  -1.4700681e-03  -7.8875566e-04  -1.4774975e-03  -1.9356268e-03  -5.5291736e-04  -9.8138314e-04  -9.6104073e-04  -5.9509091e-04  -6.1460637e-04  -1.4911912e-03  -7.7844562e-04  -1.2506898e-03  -1.6202494e-04  -5.3463422e-04  -9.5687748e-04  -9.1555866e-04  -6.3982996e-04  -9.9758490e-04  -5.9895293e-04  -6.6583243e-04  -3.0762018e-04  -6.5692514e-04
  -1.1191550e-03  -2.0162828e-04  -4.9819774e-04  -8.2002091e-04  -5.4945250e-04  -5.8692502e-04  -7.7461218e-04  -9.1788318e-04  -3.2851589e-04   7.9910585e-04  -1.1280335e-04   6.5273891e-04  -9.9334703e-04  -1.3624525e-03  -9.7473193e-04  -1.3509754e-03  -1.3897116e-03  -1.1743581e-03  -1.0710228e-03  -1.0461304e-03   3.6833287e-04  -1.6006141e-05  -5.6516554e-04  -1.6192451e-05  -1.0578093e-03  -6.6576689e-04  -1.0994610e-03  -1.0241219e-03  -1.3520598e-03  -6.2852260e-04  -1.3455251e-03  -1.7931357e-03  -4.7762887e-04  -8.6162327e-04  -8.5856987e-04  -5.5782392e-04  -5.4039183e-04  -1.4034580e-03  -7.7607587e-04  -1.2608959e-03  -2.8848238e-04  -4.8332996e-04  -9.1549347e-04  -9.5005485e-04  -5.9219159e-04  -9.5771515e-04  -5.9520599e-04  -6.1913539e-04  -3.9983430e-04  -7.0919032e-04
  -1.3434713e-03  -4.7197333e-04  -7.7379192e-04  -1.1276654e-03  -7.1441365e-04  -7.5274718e-04  -9.9841086e-04  -9.4292185e-04  -4.7237452e-04   5.6675513e-04  -2.9363169e-04   4.3549237e-04  -1.0650795e-03  -1.3613212e-03  -1.0125120e-03  -1.3204826e-03  -1.3940769e-03  -1.1705770e-03  -1.2835461e-03  -1.1555623e-03   1.3314630e-04  -2.3034055e-04  -7.8487769e-04  -1.8796077e-04  -1.2985904e-03  -9.6901442e-04  -1.1332015e-03  -1.1533285e-03  -1.3954876e-03  -7.5571961e-04  -1.4482755e-03  -1.8832205e-03  -9.1675087e-04  -1.1931745e-03  -1.0218399e-03  -9.4299903e-04  -7.6526665e-04  -1.5792225e-03  -1.0906258e-03  -1.6524986e-03  -8.8174717e-04  -6.8551907e-04  -1.2384020e-03  -1.3590954e-03  -9.0145750e-04  -1.1798050e-03  -7.4778061e-04  -9.8964304e-04  -7.5676135e-04  -9.8695827e-04
  -1.9174328e-03  -1.1147748e-03  -1.4185187e-03  -1.8128351e-03  -1.1263228e-03  -1.1294916e-03  -1.4841200e-03  -1.1783367e-03  -8.9402898e-04   1.9820132e-04  -6.6383142e-04   8.0277539e-05  -1.3009870e-03  -1.5298206e-03  -1.1942823e-03  -1.4326007e-03  -1.5499010e-03  -1.2561722e-03  -1.5449339e-03  -1.3288190e-03  -8.3579602e-05  -5.0733826e-04  -1.0113004e-03  -3.2625289e-04  -1.4922639e-03  -1.2119227e-03  -1.1993758e-03  -1.2389007e-03  -1.4472948e-03  -8.8354538e-04  -1.4352794e-03  -1.9056740e-03  -7.0005120e-04  -1.0944789e-03  -9.8149176e-04  -6.7449932e-04  -7.0804608e-04  -1.4745719e-03  -8.5990102e-04  -1.3558224e-03  -2.3151349e-04  -4.4473063e-04  -9.1243361e-04  -8.9126959e-04  -5.9382117e-04  -9.2948595e-04  -5.5592071e-04  -6.1217428e-04  -2.4044121e-04  -6.9047819e-04
  -1.0802514e-03  -2.3124492e-04  -4.6696697e-04  -7.8250951e-04  -4.9177249e-04  -5.5333867e-04  -7.2976388e-04  -8.1177009e-04  -2.4496921e-04   7.5919298e-04  -1.1277329e-04   6.2106381e-04  -8.8013645e-04  -1.2177961e-03  -8.9463603e-04  -1.1786730e-03  -1.2494599e-03  -1.0446346e-03  -1.0517566e-03  -9.2061085e-04   3.1140956e-04  -3.0790103e-05  -5.9275678e-04  -1.7083386e-05  -1.0672892e-03  -6.7579333e-04  -1.0244854e-03  -1.0173308e-03  -1.2532281e-03  -6.3038256e-04  -1.2454471e-03  -1.6987323e-03  -5.1257171e-04  -8.4807567e-04  -8.2533207e-04  -5.6809036e-04  -5.7424360e-04  -1.3539463e-03  -7.6197647e-04  -1.2996608e-03  -3.2710092e-04  -4.1396040e-04  -8.6537818e-04  -9.1728009e-04  -4.8290199e-04  -8.7611412e-04  -4.9599586e-04  -6.3975976e-04  -3.3633766e-04  -7.2195532e-04
  -1.2444396e-03  -4.6987378e-04  -6.9151790e-04  -1.0197907e-03  -6.3016475e-04  -6.9316424e-04  -9.1198221e-04  -8.1403612e-04  -4.2666253e-04   5.3108553e-04  -2.7930774e-04   4.1311921e-04  -9.3275250e-04  -1.2034076e-03  -9.2900189e-04  -1.1335661e-03  -1.2486855e-03  -1.0310200e-03  -1.1921520e-03  -1.0363768e-03   9.2578215e-05  -2.2523341e-04  -7.6990057e-04  -1.8020133e-04  -1.2446546e-03  -9.2721585e-04  -1.0340004e-03  -1.0972306e-03  -1.2894694e-03  -7.3696784e-04  -1.3269145e-03  -1.7709130e-03  -8.3427911e-04  -1.1363388e-03  -9.7258680e-04  -9.1328722e-04  -7.5927714e-04  -1.5205439e-03  -1.0497638e-03  -1.6689483e-03  -9.4695791e-04  -6.3426472e-04  -1.2845881e-03  -1.3177056e-03  -7.8832149e-04  -1.0967761e-03  -6.8675599e-04  -1.0133606e-03  -6.5050100e-04  -9.8237942e-04
  -1.8359706e-03  -1.0546290e-03  -1.3410429e-03  -1.7081014e-03  -1.0372417e-03  -1.0691890e-03  -1.3831913e-03  -1.0480578e-03  -8.1087794e-04   1.5870114e-04  -6.5266120e-04   6.3160369e-05  -1.1836870e-03  -1.3757066e-03  -1.1210657e-03  -1.2392568e-03  -1.4001600e-03  -1.1228947e-03  -1.4959006e-03  -1.2806216e-03  -1.9981292e-04  -5.9047749e-04  -1.0972664e-03  -4.0832558e-04  -1.5386065e-03  -1.3790963e-03  -1.1288397e-03  -1.2878749e-03  -1.4648493e-03  -9.3882525e-04  -1.4364343e-03  -1.8827309e-03  -9.9427311e-04  -1.3174582e-03  -1.0661785e-03  -9.0952707e-04  -8.4564282e-04  -1.5349471e-03  -1.0228559e-03  -1.5481112e-03  -4.1616225e-04  -4.5951174e-04  -1.0504404e-03  -9.8252459e-04  -5.0425879e-04  -9.5499924e-04  -5.0780823e-04  -6.9771596e-04  -3.0164060e-04  -7.7451242e-04
  -1.1339613e-03  -3.6283542e-04  -5.4493314e-04  -8.2415144e-04  -5.1292649e-04  -6.0647278e-04  -7.4139354e-04  -7.4156665e-04  -2.5634770e-04   6.4545864e-04  -1.8762333e-04   5.4015446e-04  -8.4103743e-04  -1.1262043e-03  -8.8202819e-04  -1.0381428e-03  -1.1623205e-03  -9.7246311e-04  -1.0238270e-03  -9.1459445e-04   2.0447224e-04  -1.0672686e-04  -6.4693252e-04  -5.4536747e-05  -1.1425689e-03  -7.4934552e-04  -9.5725089e-04  -1.0334256e-03  -1.2813227e-03  -6.6396390e-04  -1.2030749e-03  -1.6613198e-03  -5.4480199e-04  -8.9770794e-04  -8.7603240e-04  -6.6362577e-04  -6.1708398e-04  -1.3627307e-03  -8.2193949e-04  -1.3738030e-03  -4.5847506e-04  -4.4092955e-04  -9.8673650e-04  -9.5880299e-04  -5.1763083e-04  -8.9757435e-04  -4.9498811e-04  -7.0982386e-04  -3.4195447e-04  -7.9470885e-04
  -1.2971681e-03  -5.4761552e-04  -7.4275938e-04  -1.0339647e-03  -6.4475340e-04  -7.2610687e-04  -9.1223797e-04  -7.7456748e-04  -4.6082379e-04   4.2953779e-04  -3.4152271e-04   3.4738018e-04  -9.2700071e-04  -1.1318297e-03  -9.2352257e-04  -1.0071608e-03  -1.1835375e-03  -9.6469920e-04  -1.1590780e-03  -9.8239142e-04   5.4326770e-06  -2.9914558e-04  -8.0370827e-04  -2.1186046e-04  -1.2812695e-03  -9.7029615e-04  -1.0100052e-03  -1.1102419e-03  -1.2770722e-03  -7.5726584e-04  -1.2838813e-03  -1.7300713e-03  -9.1015868e-04  -1.1497868e-03  -9.9759642e-04  -9.8231691e-04  -7.8054704e-04  -1.5062379e-03  -1.0599062e-03  -1.6976952e-03  -1.0064124e-03  -6.1729125e-04  -1.3343052e-03  -1.3474470e-03  -8.1667845e-04  -1.1039900e-03  -6.6802435e-04  -1.0850484e-03  -6.7393325e-04  -1.0367694e-03
  -1.8894125e-03  -1.1570015e-03  -1.3833401e-03  -1.7037132e-03  -1.0542318e-03  -1.1109487e-03  -1.3827742e-03  -1.0206808e-03  -8.6340855e-04   8.0787155e-05  -6.9634366e-04   1.4887640e-05  -1.1667778e-03  -1.3129277e-03  -1.1157037e-03  -1.1360894e-03  -1.3395452e-03  -1.0714890e-03  -1.3700505e-03  -1.1722445e-03  -3.4376295e-05  -4.7719688e-04  -9.3132292e-04  -2.4256950e-04  -1.3674457e-03  -1.1027999e-03  -1.0312031e-03  -1.1520844e-03  -1.3554102e-03  -8.3228032e-04  -1.2818170e-03  -1.7324033e-03  -6.7956839e-04  -9.9008007e-04  -9.4471849e-04  -6.6128117e-04  -6.9217780e-04  -1.3908767e-03  -8.2199072e-04  -1.3856159e-03  -3.0685638e-04  -4.0057709e-04  -9.6621830e-04  -9.0480904e-04  -4.6373042e-04  -8.8495936e-04  -5.1382568e-04  -6.8147632e-04  -2.8182971e-04  -7.5443339e-04
  -1.1071343e-03  -3.4376426e-04  -5.0804258e-04  -7.5056369e-04  -4.7181602e-04  -5.8423245e-04  -6.9526403e-04  -6.7570334e-04  -3.2278372e-04   5.4626097e-04  -2.2418830e-04   4.7365393e-04  -8.2963519e-04  -1.0558597e-03  -8.6510263e-04  -9.1189251e-04  -1.0862965e-03  -9.0103305e-04  -9.8578411e-04  -8.8185945e-04   1.9098520e-04  -1.5302122e-04  -6.4594671e-04  -5.7245325e-05  -1.0947116e-03  -7.2386593e-04  -9.0532575e-04  -9.7947696e-04  -1.1716126e-03  -6.3379068e-04  -1.1574625e-03  -1.6121804e-03  -6.2184699e-04  -8.5941743e-04  -8.6244795e-04  -6.6633557e-04  -5.9634692e-04  -1.3108844e-03  -7.8193593e-04  -1.3580526e-03  -4.5119564e-04  -4.2189599e-04  -9.8490063e-04  -9.4521482e-04  -5.6006626e-04  -8.9246628e-04  -5.4934586e-04  -7.2111230e-04  -3.4534483e-04  -7.9354527e-04
  -1.3445411e-03  -5.8453210e-04  -7.7762420e-04  -1.0366885e-03  -6.4019667e-04  -7.4829406e-04  -9.0422324e-04  -7.4016466e-04  -5.2550482e-04   3.2740340e-04  -3.9996670e-04   2.7016242e-04  -9.3249563e-04  -1.1011057e-03  -9.1902900e-04  -9.0919854e-04  -1.1262125e-03  -9.1180054e-04  -1.2141515e-03  -9.2421775e-04  -1.7957811e-05  -3.6622799e-04  -8.4665988e-04  -2.5532677e-04  -1.2679539e-03  -1.0081069e-03  -9.5820555e-04  -1.1056657e-03  -1.2560996e-03  -7.5485883e-04  -1.2748796e-03  -1.7275574e-03  -9.6765428e-04  -1.1981982e-03  -1.0268851e-03  -1.0236000e-03  -8.0340542e-04  -1.4807805e-03  -1.0977122e-03  -1.7434176e-03  -1.0470481e-03  -6.6070579e-04  -1.3579692e-03  -1.3875051e-03  -7.9830876e-04  -1.1790746e-03  -7.2482997e-04  -1.0649385e-03  -6.8187679e-04  -1.0494090e-03
  -1.6644266e-03  -9.1723440e-04  -9.1182278e-04  -1.1678147e-03  -6.2806805e-04  -7.1488181e-04  -8.3875156e-04  -7.4476504e-04  -3.3838730e-04   6.0686888e-04  -2.3182243e-04   5.2769040e-04  -7.8239333e-04  -1.0178777e-03  -8.4857264e-04  -8.5516652e-04  -1.0413702e-03  -8.7559264e-04  -9.0820569e-04  -7.9507509e-04   3.1064384e-04  -6.3052867e-05  -5.4695993e-04   3.5034067e-05  -9.6809160e-04  -5.7041430e-04  -8.3627971e-04  -8.9995441e-04  -1.1032935e-03  -5.6077447e-04  -1.0634676e-03  -1.5339837e-03  -3.8788319e-04  -7.3304318e-04  -7.8403007e-04  -5.0103437e-04  -5.0320994e-04  -1.1762433e-03  -6.4040750e-04  -1.1734318e-03  -2.4042030e-04  -2.9748233e-04  -8.3394331e-04  -8.0471725e-04  -4.0272166e-04  -8.0126169e-04  -4.8899208e-04  -6.1427621e-04  -3.2549058e-04  -6.8637315e-04
  -1.0578367e-03  -3.3381951e-04  -4.5057273e-04  -6.9486967e-04  -3.8468765e-04  -5.2675273e-04  -6.3027692e-04  -5.7635736e-04  -3.3644316e-04   5.3350459e-04  -2.0502591e-04   4.7410186e-04  -7.4407161e-04  -9.2170952e-04  -7.9168763e-04  -7.4300868e-04  -9.7560248e-04  -7.8702962e-04  -9.2550053e-04  -8.0305111e-04   1.7173850e-04  -1.3355033e-04  -6.0872850e-04  -1.9807851e-05  -1.0261490e-03  -6.5413158e-04  -7.9930737e-04  -9.1660774e-04  -1.0604233e-03  -5.6311791e-04  -1.0727099e-03  -1.5295515e-03  -5.6994718e-04  -8.5490418e-04  -8.3535258e-04  -6.4615591e-04  -5.9998746e-04  -1.2368000e-03  -7.8122155e-04  -1.3545911e-03  -5.3790741e-04  -4.5229879e-04  -9.5883664e-04  -1.0183554e-03  -5.8633060e-04  -9.1340480e-04  -5.7811424e-04  -6.7520246e-04  -4.2362476e-04  -8.3304680e-04
  -1.4410946e-03  -7.5428508e-04  -9.1426173e-04  -1.1746336e-03  -6.9429580e-04  -8.0389425e-04  -9.9322153e-04  -7.5243303e-04  -6.5426400e-04   1.8540856e-04  -5.0276873e-04   1.2579125e-04  -9.8485977e-04  -1.0975490e-03  -9.4174768e-04  -8.5894990e-04  -1.1225661e-03  -8.6746417e-04  -1.2339313e-03  -1.0742227e-03  -1.0310741e-04  -4.7006304e-04  -9.0765522e-04  -2.9794191e-04  -1.3359400e-03  -1.1039772e-03  -9.1411371e-04  -1.1228889e-03  -1.2072967e-03  -7.5486681e-04  -1.2492768e-03  -1.6822658e-03  -1.0225965e-03  -1.2338571e-03  -1.0156747e-03  -9.2142908e-04  -8.0102036e-04  -1.3596345e-03  -9.3529123e-04  -1.4593148e-03  -2.8506276e-04  -3.7084721e-04  -8.5472158e-04  -8.4758952e-04  -4.5611424e-04  -8.6887041e-04  -4.8317554e-04  -4.6149018e-04  -1.8408247e-04  -5.8286171e-04
  -8.3373685e-04  -1.2769720e-04  -2.1641294e-04  -4.2976518e-04  -2.1679187e-04  -3.8403150e-04  -4.4232412e-04  -4.8891484e-04  -2.2587727e-04   6.7498680e-04  -7.5956166e-05   5.9403363e-04  -6.5497588e-04  -8.5112604e-04  -7.1720069e-04  -6.6463964e-04  -8.8810356e-04  -7.3000713e-04  -7.5499358e-04  -6.4982136e-04   3.5012164e-04   3.9876418e-06  -4.6556495e-04   5.4357661e-05  -8.6682820e-04  -4.8957922e-04  -7.1545609e-04  -8.1957813e-04  -9.3341316e-04  -4.5671928e-04  -9.7107509e-04  -1.4142354e-03  -3.9712444e-04  -6.7712448e-04  -7.2369172e-04  -4.3492235e-04  -4.4423577e-04  -1.0705991e-03  -5.5922050e-04  -1.0774395e-03  -1.1905006e-04  -2.4977114e-04  -6.5930357e-04  -7.0836581e-04  -3.7766411e-04  -7.4782374e-04  -4.3013555e-04  -4.3789580e-04  -1.5579147e-04  -5.4231501e-04
  -9.1201661e-04  -2.5555116e-04  -3.4709912e-04  -5.7743827e-04  -3.0106530e-04  -4.6190771e-04  -5.6153472e-04  -4.7829151e-04  -2.8774882e-04   4.8370578e-04  -1.8615770e-04   4.2347462e-04  -7.2211958e-04  -8.4827183e-04  -7.4499316e-04  -6.3623261e-04  -8.9771976e-04  -7.0382230e-04  -9.4392721e-04  -7.2910340e-04   1.9306778e-04  -1.5154511e-04  -6.3790090e-04  -6.5312874e-05  -1.0450012e-03  -6.7542726e-04  -7.2514906e-04  -9.0295856e-04  -9.7895809e-04  -5.3163851e-04  -1.0435067e-03  -1.4812332e-03  -6.2660011e-04  -8.9219218e-04  -8.2667306e-04  -6.8387203e-04  -5.7694741e-04  -1.1766712e-03  -7.6782791e-04  -1.3503993e-03  -5.7799090e-04  -4.0406900e-04  -9.3510130e-04  -1.0638277e-03  -5.9909053e-04  -9.2823448e-04  -6.1476266e-04  -7.4149185e-04  -4.1542298e-04  -8.3655049e-04
  -1.4880114e-03  -8.4938644e-04  -9.7948534e-04  -1.2376487e-03  -6.9900864e-04  -8.5219432e-04  -1.0239059e-03  -7.2161446e-04  -6.7078654e-04   1.7227198e-04  -5.1061442e-04   1.2747712e-04  -9.2824199e-04  -1.0181358e-03  -9.3273813e-04  -7.3989795e-04  -1.0301878e-03  -8.0175285e-04  -9.2352909e-04  -7.4810983e-04   2.2318478e-04  -1.6452894e-04  -5.9775665e-04   4.5835041e-05  -9.7086292e-04  -5.9295929e-04  -7.4195868e-04  -8.4974495e-04  -9.8643953e-04  -5.1481661e-04  -9.6728216e-04  -1.4179843e-03  -3.1709412e-04  -6.2560162e-04  -6.8984885e-04  -3.3236691e-04  -4.0202899e-04  -9.8834559e-04  -4.5475998e-04  -9.5811184e-04   8.1037258e-05  -7.7923112e-05  -5.7631260e-04  -5.8961730e-04  -2.8699765e-04  -6.4447342e-04  -3.6552121e-04  -3.1866677e-04   3.8902032e-05  -4.8017976e-04
  -6.3724892e-04   3.4823675e-05  -7.2261959e-05  -2.7093172e-04  -9.1209389e-05  -3.1521099e-04  -3.4438452e-04  -3.3431305e-04  -1.1173989e-04   6.2792475e-04  -2.3205690e-05   5.8942317e-04  -5.9342681e-04  -7.2299532e-04  -6.4985052e-04  -5.0015812e-04  -7.7354017e-04  -6.2146422e-04  -6.6641776e-04  -5.7089975e-04   3.4259472e-04   5.2438230e-05  -4.3407560e-04   1.9156930e-04  -8.0676639e-04  -4.0776483e-04  -6.0904241e-04  -7.4417389e-04  -8.2259497e-04  -3.6863645e-04  -8.6528203e-04  -1.3232962e-03  -3.1462181e-04  -5.8288715e-04  -6.3709071e-04  -3.2341739e-04  -3.4177839e-04  -9.3489309e-04  -4.4519879e-04  -9.6447795e-04  -6.6613720e-05  -7.1867202e-05  -6.2414171e-04  -6.6773675e-04  -2.4408594e-04  -6.6910789e-04  -3.6863078e-04  -4.1245273e-04  -9.3694609e-05  -6.0627301e-04
  -9.0443977e-04  -2.7375005e-04  -3.6092583e-04  -5.8636995e-04  -2.6573992e-04  -4.7334857e-04  -5.4946879e-04  -4.0326861e-04  -3.0751943e-04   4.0636750e-04  -1.9739954e-04   3.8232381e-04  -7.1841950e-04  -7.8800053e-04  -7.4159639e-04  -5.2999356e-04  -8.2525582e-04  -6.5505778e-04  -8.7975571e-04  -6.9294078e-04   1.5538433e-04  -1.6684998e-04  -6.5058452e-04  -3.4961820e-05  -1.0351868e-03  -6.9788506e-04  -6.8146462e-04  -8.7853812e-04  -9.3743973e-04  -5.1765994e-04  -1.0045840e-03  -1.4596393e-03  -6.5469538e-04  -9.1952074e-04  -8.0216659e-04  -6.8403693e-04  -5.7008810e-04  -1.1432690e-03  -7.6390762e-04  -1.3601921e-03  -6.2415638e-04  -3.7775951e-04  -9.9781901e-04  -1.1125609e-03  -6.0678198e-04  -9.1436296e-04  -5.6177098e-04  -7.6336699e-04  -4.8627486e-04  -8.2315534e-04
  -1.5099280e-03  -8.7819650e-04  -9.6936099e-04  -1.2454748e-03  -6.4841448e-04  -8.1927364e-04  -9.7539619e-04  -6.4212049e-04  -4.5113059e-04   3.6177909e-04  -3.6763868e-04   3.1411424e-04  -7.8404055e-04  -8.9402538e-04  -8.3737791e-04  -6.0831883e-04  -8.7458134e-04  -6.9775374e-04  -7.3726318e-04  -5.8651733e-04   3.0523396e-04  -7.2263842e-06  -4.4649749e-04   1.7496303e-04  -7.8424625e-04  -3.9985889e-04  -6.3971139e-04  -7.5399876e-04  -8.7921525e-04  -4.0377959e-04  -8.7977835e-04  -1.3346637e-03  -2.1552182e-04  -5.3554459e-04  -6.3015230e-04  -2.3066315e-04  -3.1555144e-04  -9.1144693e-04  -3.7377191e-04  -8.5842883e-04   1.1554857e-04  -5.4819004e-05  -5.6826661e-04  -5.3486810e-04  -2.7429205e-04  -6.2341243e-04  -3.2687621e-04  -3.8126434e-04  -3.5460063e-05  -5.1636779e-04
  -6.6451827e-04   2.8613124e-06  -8.0520527e-05  -2.7809056e-04  -5.4312866e-05  -3.0660580e-04  -3.0523774e-04  -2.9283011e-04  -1.0247205e-04   5.9023610e-04  -1.2511838e-05   5.6224590e-04  -5.9602689e-04  -6.7977072e-04  -6.4610643e-04  -4.5344638e-04  -7.1163481e-04  -5.8018271e-04  -6.2713993e-04  -5.2436668e-04   4.5348972e-04   5.6553672e-05  -4.0822139e-04   1.8190888e-04  -7.5721857e-04  -3.6129387e-04  -5.4032536e-04  -7.2096003e-04  -7.8987482e-04  -3.4337098e-04  -8.5870147e-04  -1.3119240e-03  -2.5251959e-04  -5.7348370e-04  -6.1989040e-04  -3.0268024e-04  -3.2436018e-04  -9.2507532e-04  -4.5138237e-04  -9.5249404e-04  -1.1515298e-04  -8.8286593e-05  -6.5221288e-04  -7.1243430e-04  -3.5240551e-04  -6.7322823e-04  -3.9399724e-04  -5.0216209e-04  -1.8808519e-04  -5.7597959e-04
  -9.5547695e-04  -3.7315837e-04  -4.0160763e-04  -6.2795752e-04  -2.7129974e-04  -4.9742794e-04  -5.6418200e-04  -3.9722261e-04  -3.2657286e-04   3.1886375e-04  -2.2960271e-04   3.0418872e-04  -7.6305110e-04  -7.7283650e-04  -7.6018483e-04  -5.2524719e-04  -8.1764406e-04  -6.2765158e-04  -9.0619997e-04  -7.4003678e-04   9.0328424e-05  -2.1265009e-04  -6.9216173e-04  -3.7268557e-05  -1.0481962e-03  -7.2292116e-04  -6.4895366e-04  -8.7653461e-04  -9.5164403e-04  -5.3367624e-04  -1.0300387e-03  -1.4715251e-03  -6.8396440e-04  -9.5880363e-04  -8.3683158e-04  -6.9497840e-04  -5.8529759e-04  -1.1517250e-03  -7.9020450e-04  -1.3644058e-03  -6.9308915e-04  -3.4828152e-04  -1.0490872e-03  -1.1535832e-03  -7.1851752e-04  -9.1566937e-04  -5.8013404e-04  -8.9937274e-04  -5.2708876e-04  -8.8315160e-04
  -1.5619677e-03  -9.5392868e-04  -1.0124501e-03  -1.2801149e-03  -6.7442463e-04  -8.7930553e-04  -9.9666521e-04  -6.6791719e-04  -5.8961916e-04   2.0774611e-04  -4.6482898e-04   1.8474400e-04  -8.8109047e-04  -9.3825895e-04  -9.0625981e-04  -6.2131969e-04  -9.0171717e-04  -7.1363832e-04  -7.7255367e-04  -6.0113712e-04   2.6877481e-04  -7.8758843e-05  -5.2883732e-04   1.2204011e-04  -8.5114071e-04  -4.5227114e-04  -6.4550235e-04  -7.8919629e-04  -9.3313615e-04  -4.4141195e-04  -9.4289239e-04  -1.3963183e-03  -2.8949906e-04  -5.9540133e-04  -6.8115222e-04  -2.7365997e-04  -3.5636124e-04  -9.7354362e-04  -4.3723866e-04  -8.9603674e-04   3.7724400e-05  -8.4754123e-05  -6.3715345e-04  -6.2861468e-04  -3.3193966e-04  -6.4896460e-04  -3.9977950e-04  -5.0661206e-04  -8.6442400e-05  -5.8126368e-04
  -7.7036471e-04  -7.0480237e-05  -1.5557797e-04  -3.4599824e-04  -1.0376867e-04  -3.7529733e-04  -3.3858360e-04  -3.3419547e-04  -1.7279953e-04   4.9196038e-04  -7.9715006e-05   4.8159895e-04  -6.8535790e-04  -7.2818511e-04  -7.2009605e-04  -4.8982672e-04  -7.5015571e-04  -6.2553864e-04  -6.8586145e-04  -5.5899110e-04   2.8405161e-04  -9.2855635e-06  -4.8521755e-04   1.5984719e-04  -8.2503725e-04  -4.1106014e-04  -5.7534262e-04  -7.5937074e-04  -8.3646842e-04  -3.8573993e-04  -9.2383183e-04  -1.3704924e-03  -3.5458530e-04  -6.3813053e-04  -6.7938032e-04  -3.0697070e-04  -3.7711932e-04  -9.8348712e-04  -4.9575802e-04  -9.8464906e-04  -1.5511527e-04  -1.1808973e-04  -7.6481519e-04  -7.6745806e-04  -4.2233206e-04  -7.0023781e-04  -4.1389774e-04  -6.7310734e-04  -2.0784272e-04  -6.5417378e-04
  -1.0638321e-03  -3.9072495e-04  -4.5609113e-04  -6.6743500e-04  -3.0616557e-04  -5.6596624e-04  -5.7751429e-04  -4.4239641e-04  -3.3268676e-04   2.3680371e-04  -2.7551080e-04   2.4893344e-04  -8.5567770e-04  -8.4067200e-04  -8.3796756e-04  -5.7273061e-04  -8.6252252e-04  -6.8657298e-04  -9.3920733e-04  -7.7847549e-04   1.4524760e-05  -2.4818722e-04  -7.4471551e-04  -1.0218403e-04  -1.0961449e-03  -7.4109650e-04  -7.0236728e-04  -9.1677316e-04  -9.7513781e-04  -5.5315509e-04  -1.0890232e-03  -1.5342048e-03  -7.3242374e-04  -9.8739751e-04  -8.7271287e-04  -6.8525487e-04  -6.0004968e-04  -1.2106523e-03  -8.2092820e-04  -1.3764718e-03  -6.9875730e-04  -3.7868682e-04  -1.1013524e-03  -1.1704484e-03  -7.1345019e-04  -9.5137511e-04  -6.4190378e-04  -9.8600285e-04  -5.6857505e-04  -9.1690867e-04
  -1.5813528e-03  -9.3632500e-04  -8.6660869e-04  -1.1322651e-03  -5.2272313e-04  -7.5379340e-04  -7.6924800e-04  -6.1242864e-04  -3.3372958e-04   4.0178176e-04  -2.7271069e-04   4.0359361e-04  -8.1803330e-04  -8.8518445e-04  -8.4948435e-04  -6.0719479e-04  -8.5763307e-04  -7.2354951e-04  -7.1121578e-04  -5.9289846e-04   2.3560514e-04  -2.5926820e-05  -4.7948200e-04   1.3225686e-04  -8.3526800e-04  -3.6715620e-04  -6.5387558e-04  -7.4617012e-04  -9.2176511e-04  -4.0452252e-04  -9.7037863e-04  -1.4093607e-03  -2.7285941e-04  -5.7138060e-04  -6.7591481e-04  -2.2711464e-04  -3.3564185e-04  -9.8169374e-04  -4.1517545e-04  -8.5277122e-04   6.8481262e-05  -5.8506779e-05  -6.6718715e-04  -6.0728483e-04  -2.6047570e-04  -6.5365830e-04  -3.8631097e-04  -5.7866343e-04  -7.4129581e-05  -5.6338398e-04
  -8.4159011e-04  -1.5932370e-04  -1.5718488e-04  -3.3927153e-04  -8.0414458e-05  -3.9896870e-04  -2.9917870e-04  -3.4134919e-04  -1.7614092e-04   4.5558822e-04  -9.4100076e-05   4.8647649e-04  -7.4075040e-04  -7.4108841e-04  -7.7274878e-04  -5.1446143e-04  -7.7472295e-04  -6.5765181e-04  -7.3704339e-04  -5.4694660e-04   2.3224010e-04  -1.1748820e-05  -5.1776180e-04   1.4525320e-04  -8.3563692e-04  -3.9562740e-04  -6.0708576e-04  -7.6184946e-04  -8.8438031e-04  -3.9134888e-04  -9.6889283e-04  -1.4227205e-03  -3.3051075e-04  -6.6299195e-04  -7.0182246e-04  -3.3592066e-04  -3.9258366e-04  -1.0234013e-03  -5.2897329e-04  -9.9087122e-04  -2.0727073e-04  -1.8375862e-04  -8.2802662e-04  -7.8462082e-04  -3.1417026e-04  -7.0730894e-04  -4.7228907e-04  -6.8480149e-04  -2.1995633e-04  -7.1026717e-04
  -1.1642027e-03  -4.5780008e-04  -5.2360742e-04  -7.1941840e-04  -3.4436118e-04  -6.2984269e-04  -5.9629377e-04  -5.0129031e-04  -4.3163978e-04   1.4965018e-04  -3.3889565e-04   1.8865975e-04  -9.6119283e-04  -9.0212649e-04  -9.1934844e-04  -6.3266326e-04  -9.1864640e-04  -7.4959645e-04  -1.0204776e-03  -8.1058330e-04  -3.5820813e-05  -3.1732486e-04  -7.9807278e-04  -1.2777702e-04  -1.1772572e-03  -7.8898168e-04  -7.3861069e-04  -9.5901603e-04  -1.0748307e-03  -5.9211056e-04  -1.1716078e-03  -1.5991171e-03  -7.6112547e-04  -1.0309197e-03  -9.1866666e-04  -7.0788321e-04  -6.5463991e-04  -1.2673326e-03  -8.7302184e-04  -1.3884637e-03  -5.8364245e-04  -3.3342181e-04  -1.0559885e-03  -1.0102428e-03  -5.0251867e-04  -8.9128013e-04  -5.4671476e-04  -7.2212442e-04  -6.7673725e-05  -6.1212986e-04
  -8.4449729e-04  -1.6052922e-04  -6.7612673e-05  -2.6183116e-04  -6.1700898e-06  -3.3861844e-04  -2.2946821e-04  -3.7465055e-04  -1.5184071e-04   5.0978729e-04  -6.0057726e-05   5.2848272e-04  -7.6762581e-04  -7.9818635e-04  -7.9283764e-04  -5.5865798e-04  -7.8179443e-04  -6.8991038e-04  -6.2661944e-04  -4.7722348e-04   3.7353588e-04   7.0677175e-05  -4.3535326e-04   1.7377009e-04  -7.5982133e-04  -2.6171471e-04  -5.9792353e-04  -6.8800699e-04  -8.8385411e-04  -3.3605087e-04  -9.4948593e-04  -1.3799932e-03  -1.7477921e-04  -4.9589045e-04  -6.3440314e-04  -1.5367936e-04  -3.0862039e-04  -9.6513773e-04  -3.9736769e-04  -7.8897085e-04   4.1075054e-05  -9.4653311e-05  -6.4784545e-04  -5.7108758e-04  -1.6916286e-04  -5.8911694e-04  -4.0863905e-04  -5.8754237e-04   1.5551064e-05  -5.1079050e-04
  -7.7011681e-04  -1.1224955e-04  -7.4795993e-05  -2.6040815e-04  -2.3865401e-05  -3.6162094e-04  -2.5345632e-04  -3.3749954e-04  -1.8728392e-04   3.8266290e-04  -1.1121722e-04   4.3010514e-04  -8.1314601e-04  -7.8332203e-04  -8.0810697e-04  -5.5508729e-04  -8.0215390e-04  -6.9783221e-04  -7.2640151e-04  -6.5496453e-04   2.6276379e-04  -3.4160588e-05  -5.7318207e-04   6.3512431e-05  -9.1534498e-04  -4.3699733e-04  -6.3562981e-04  -7.7171257e-04  -9.7736099e-04  -4.1287026e-04  -1.0137666e-03  -1.4629548e-03  -3.9135071e-04  -6.6387735e-04  -7.1798975e-04  -3.6206958e-04  -4.2683771e-04  -1.0658874e-03  -5.8265921e-04  -1.0225341e-03  -2.9163208e-04  -2.0465540e-04  -8.8698399e-04  -8.2073978e-04  -3.3655285e-04  -6.8575348e-04  -5.5500487e-04  -8.2097051e-04  -1.9097717e-04  -7.0870633e-04
  -1.3058487e-03  -6.0431199e-04  -6.5729162e-04  -8.5174950e-04  -4.3491609e-04  -7.0613972e-04  -6.8293826e-04  -5.7881832e-04  -5.6054653e-04   2.0517824e-05  -4.2888528e-04   9.4337709e-05  -1.0829940e-03  -9.9405192e-04  -1.0022237e-03  -7.1955461e-04  -9.8645326e-04  -8.1747858e-04  -1.0764790e-03  -9.3192921e-04  -4.6828234e-05  -3.6466765e-04  -8.8021893e-04  -1.7604344e-04  -1.2218695e-03  -8.3669135e-04  -7.8407605e-04  -1.0009274e-03  -1.1101288e-03  -6.1820360e-04  -1.2128856e-03  -1.6566660e-03  -7.7525008e-04  -1.0396577e-03  -9.1909117e-04  -6.1452674e-04  -6.5749983e-04  -1.2253852e-03  -7.5937022e-04  -1.1555009e-03  -5.4877164e-05  -1.5125003e-04  -7.9564232e-04  -6.1032880e-04  -9.5057287e-05  -6.9540064e-04  -4.4424378e-04  -6.4709393e-04   5.2881260e-05  -4.5132171e-04
  -6.7255716e-04  -8.0282298e-05   4.0606868e-05  -1.3093770e-04   5.6464356e-05  -2.8124664e-04  -1.4665093e-04  -3.4012226e-04  -8.5066305e-05   4.8662064e-04  -2.6104430e-05   5.3530902e-04  -8.0073759e-04  -8.0399832e-04  -8.1009348e-04  -5.8088644e-04  -7.8067521e-04  -7.2289392e-04  -6.0768990e-04  -5.4982363e-04   3.6026971e-04   1.1251047e-04  -4.4783120e-04   2.0466291e-04  -7.9498446e-04  -2.1138450e-04  -6.0614396e-04  -6.9636648e-04  -9.0548408e-04  -3.2750622e-04  -9.4913336e-04  -1.3828152e-03  -1.5945431e-04  -4.4545240e-04  -6.2722014e-04  -1.3107428e-04  -3.0111126e-04  -9.5568405e-04  -3.8765959e-04  -7.3525670e-04   1.3306257e-04  -6.9809234e-05  -5.9278676e-04  -4.2594396e-04  -5.9365277e-05  -5.3354912e-04  -3.8272754e-04  -4.4509338e-04   4.9422681e-05  -4.3289480e-04
  -7.3260954e-04  -1.1662105e-04  -6.5292566e-05  -2.4282647e-04  -2.8194007e-05  -3.4932632e-04  -2.4737394e-04  -3.5159625e-04  -2.2192756e-04   3.2102407e-04  -1.1737772e-04   3.8880747e-04  -8.9057814e-04  -8.3012815e-04  -8.3315506e-04  -6.0287147e-04  -8.3057792e-04  -7.3393423e-04  -7.6682889e-04  -5.9417926e-04   2.5006238e-04  -2.2587159e-05  -5.8298779e-04   4.6955953e-05  -9.4072946e-04  -3.9609359e-04  -6.5138936e-04  -7.8117591e-04  -9.9991041e-04  -4.0871536e-04  -1.0280638e-03  -1.4545160e-03  -4.2043411e-04  -6.2032382e-04  -7.3277164e-04  -3.6559309e-04  -4.3545337e-04  -1.0875494e-03  -5.9605349e-04  -9.9844055e-04  -2.5209234e-04  -1.9270476e-04  -7.9808699e-04  -7.4504619e-04  -2.7670333e-04  -7.1726984e-04  -5.3460471e-04  -7.4764626e-04  -2.4826726e-04  -6.7833089e-04
  -1.3111456e-03  -6.4026692e-04  -6.6249730e-04  -8.7909232e-04  -4.4896532e-04  -6.9319637e-04  -6.9276098e-04  -6.2926830e-04  -5.4064591e-04  -2.3491302e-05  -4.4462673e-04   5.4782548e-05  -1.1546374e-03  -1.0523698e-03  -1.0190688e-03  -7.7778910e-04  -1.0179428e-03  -8.6703245e-04  -1.0445057e-03  -9.0132514e-04  -1.3412282e-04  -3.7102989e-04  -8.9220458e-04  -1.9561473e-04  -1.2584324e-03  -8.1260066e-04  -8.1518624e-04  -9.9613215e-04  -1.1451765e-03  -6.1951805e-04  -1.2395254e-03  -1.6529048e-03  -8.1191171e-04  -1.0238172e-03  -9.5112645e-04  -7.4851234e-04  -6.9824932e-04  -1.3239249e-03  -9.0798229e-04  -1.3110609e-03  -3.1647284e-04  -2.6589623e-04  -8.8406313e-04  -7.4095186e-04  -3.0454010e-04  -7.9051004e-04  -4.9787929e-04  -5.5166974e-04  -3.5576766e-05  -5.0212879e-04
  -7.5823022e-04  -9.9268516e-05  -2.6278045e-05  -2.1914383e-04  -2.0577449e-05  -3.3803988e-04  -1.9730818e-04  -4.3301308e-04  -1.6034224e-04   4.1733973e-04  -7.3884185e-05   4.7843345e-04  -9.1249874e-04  -9.0494374e-04  -8.4224402e-04  -6.8580260e-04  -8.5903815e-04  -7.8923127e-04  -6.5035495e-04  -6.1343872e-04   3.8373141e-04   8.4470055e-05  -4.5511467e-04   1.8240514e-04  -7.9824001e-04  -2.1483297e-04  -6.3210912e-04  -7.0785574e-04  -9.3531405e-04  -3.3678563e-04  -9.8975783e-04  -1.4265855e-03  -1.4003509e-04  -4.1796389e-04  -6.5260578e-04  -1.4615490e-04  -3.1780964e-04  -9.8857004e-04  -4.2204824e-04  -7.3930371e-04   1.5772026e-04  -9.2102877e-05  -5.5068388e-04  -3.9988660e-04  -1.1415275e-04  -5.9298513e-04  -4.5368014e-04  -4.4565016e-04  -6.7783454e-05  -4.5589209e-04
  -7.4758520e-04  -1.0979281e-04  -7.2267758e-05  -2.7664006e-04  -6.7273868e-05  -3.5122928e-04  -2.5291005e-04  -4.2311291e-04  -2.1452340e-04   2.8345568e-04  -1.2791522e-04   3.5016684e-04  -9.7952259e-04  -9.0803328e-04  -8.6332794e-04  -6.8102934e-04  -8.8944932e-04  -7.8941730e-04  -7.3800108e-04  -6.7150104e-04   2.6203084e-04  -4.4305762e-05  -5.7430408e-04   4.4044446e-05  -9.5583318e-04  -3.9104291e-04  -6.6508161e-04  -7.6771103e-04  -9.9753449e-04  -4.1949932e-04  -1.0534503e-03  -1.4886857e-03  -3.6646298e-04  -5.8849907e-04  -7.4749097e-04  -3.6545479e-04  -4.2298544e-04  -1.0950317e-03  -6.1423285e-04  -9.7921374e-04  -2.2410719e-04  -2.8263166e-04  -7.4056204e-04  -7.1338884e-04  -3.1763304e-04  -7.3546212e-04  -5.7618454e-04  -7.0681726e-04  -3.1422608e-04  -6.8167283e-04
  -1.3069375e-03  -5.9527170e-04  -6.6461845e-04  -9.0346119e-04  -4.8844924e-04  -7.1255903e-04  -7.1125472e-04  -6.8406668e-04  -5.4478482e-04  -7.3091906e-05  -4.6707169e-04  -1.2633290e-05  -1.2387704e-03  -1.1133577e-03  -1.0562455e-03  -8.5197802e-04  -1.0704474e-03  -9.0145832e-04  -1.0662554e-03  -9.8679552e-04  -1.0531278e-04  -4.0518848e-04  -8.9168723e-04  -2.4730476e-04  -1.2945825e-03  -8.0404215e-04  -8.1325200e-04  -9.8075089e-04  -1.1772129e-03  -6.3586136e-04  -1.2738170e-03  -1.6918277e-03  -8.6481468e-04  -9.8631124e-04  -9.8676293e-04  -7.7926269e-04  -7.2353095e-04  -1.3690228e-03  -9.8278699e-04  -1.4351800e-03  -7.7305548e-04  -5.7586888e-04  -1.1366846e-03  -1.1405241e-03  -7.6513528e-04  -1.0682677e-03  -8.0312084e-04  -1.0278622e-03  -6.9594278e-04  -9.8251668e-04
  -1.8257378e-03  -1.1504911e-03  -1.0949173e-03  -1.4119357e-03  -7.4267993e-04  -9.0284983e-04  -9.3356514e-04  -8.8875805e-04  -5.1240774e-04   1.1480982e-04  -4.4847326e-04   1.2083062e-04  -1.2161620e-03  -1.1992393e-03  -1.0803600e-03  -9.2868629e-04  -1.0907038e-03  -9.4186352e-04  -8.4407424e-04  -8.6104835e-04   1.1761828e-04  -1.4822459e-04  -6.5032841e-04   1.3786452e-05  -1.0042824e-03  -4.1225771e-04  -7.6397887e-04  -8.4012200e-04  -1.1315537e-03  -4.8635286e-04  -1.1443325e-03  -1.5636430e-03  -3.6890438e-04  -5.5075379e-04  -8.0174062e-04  -2.9950897e-04  -4.3742303e-04  -1.1235047e-03  -5.3944468e-04  -8.7348412e-04   9.0945650e-05  -2.8659697e-04  -6.6564820e-04  -5.1053567e-04  -3.7399214e-04  -7.8710087e-04  -5.8587932e-04  -5.6662771e-04  -2.9696172e-04  -6.5941986e-04
  -9.9385262e-04  -2.7171706e-04  -2.8514717e-04  -5.1639020e-04  -2.6648535e-04  -4.9682119e-04  -4.0269585e-04  -6.3072861e-04  -3.1090461e-04   1.9739816e-04  -2.4207568e-04   2.4169404e-04  -1.1268589e-03  -1.0630230e-03  -9.7511738e-04  -8.4989710e-04  -1.0208233e-03  -8.7803556e-04  -8.3785615e-04  -7.8492647e-04   1.4680970e-04  -1.2820061e-04  -6.6471845e-04  -1.7567601e-05  -1.0384631e-03  -4.2973069e-04  -7.4050407e-04  -8.3177094e-04  -1.1037925e-03  -4.6277160e-04  -1.1461836e-03  -1.5579675e-03  -4.8606133e-04  -6.0871226e-04  -8.2315732e-04  -3.7764027e-04  -4.8503643e-04  -1.1663558e-03  -6.5335690e-04  -1.0108340e-03  -1.5791568e-04  -3.5497124e-04  -7.8554737e-04  -7.0000626e-04  -4.8261392e-04  -8.4131706e-04  -6.3484907e-04  -7.2741695e-04  -3.7548947e-04  -7.6621340e-04
  -1.3080933e-03  -5.4755656e-04  -6.5340963e-04  -8.9885941e-04  -5.3190911e-04  -7.2631764e-04  -7.0703810e-04  -7.6679752e-04  -5.7670363e-04  -1.0897034e-04  -4.8112072e-04  -3.8556431e-05  -1.3157515e-03  -1.1899070e-03  -1.0874585e-03  -9.5721049e-04  -1.1526492e-03  -9.5249474e-04  -1.1012139e-03  -1.0597805e-03  -1.1315378e-04  -4.1831008e-04  -9.2789863e-04  -2.7159776e-04  -1.3007595e-03  -8.0355495e-04  -8.7020110e-04  -1.0159852e-03  -1.2167124e-03  -6.4002920e-04  -1.3140860e-03  -1.7400361e-03  -8.5672247e-04  -9.8442344e-04  -1.0299858e-03  -7.6625880e-04  -7.2743319e-04  -1.3743395e-03  -9.7217824e-04  -1.3845786e-03  -6.4196880e-04  -5.9772580e-04  -1.1319489e-03  -1.0971616e-03  -8.6046685e-04  -1.1140484e-03  -8.5283443e-04  -1.0296444e-03  -7.5889379e-04  -1.0155310e-03
  -1.8406439e-03  -1.0750353e-03  -1.1806920e-03  -1.4725467e-03  -8.7378325e-04  -1.0270595e-03  -1.0778958e-03  -1.0015497e-03  -7.4925245e-04  -1.0622902e-04  -6.2750501e-04  -4.1408526e-05  -1.3629785e-03  -1.2991320e-03  -1.1696608e-03  -1.0413155e-03  -1.2098985e-03  -1.0107616e-03  -9.8774815e-04  -9.3708443e-04   9.4143419e-05  -2.5664360e-04  -7.3392398e-04  -5.3879579e-05  -1.0854481e-03  -4.9385085e-04  -8.4755121e-04  -8.7747758e-04  -1.1689398e-03  -5.2379642e-04  -1.2170627e-03  -1.6258636e-03  -4.6540075e-04  -6.3301146e-04  -8.7016914e-04  -3.7241922e-04  -4.8724603e-04  -1.1612335e-03  -5.8882462e-04  -9.3952287e-04   6.4004264e-05  -3.6341988e-04  -7.1538921e-04  -5.8675645e-04  -5.1916164e-04  -8.7863638e-04  -6.5128593e-04  -6.6793308e-04  -3.4777977e-04  -6.9606875e-04
  -1.0803291e-03  -2.7975746e-04  -3.9583739e-04  -6.3264876e-04  -3.8322288e-04  -5.8927969e-04  -5.0710130e-04  -7.1731361e-04  -4.6021573e-04   8.8930683e-05  -3.2581831e-04   1.6471039e-04  -1.2089426e-03  -1.1268035e-03  -1.0102023e-03  -9.3021226e-04  -1.0990083e-03  -9.2353713e-04  -9.1556588e-04  -8.9200842e-04   1.1049472e-04  -2.1413421e-04  -7.1585766e-04  -1.0981774e-04  -1.0665486e-03  -5.1280990e-04  -8.0491992e-04  -8.6472882e-04  -1.1609130e-03  -4.8441274e-04  -1.1919630e-03  -1.6156421e-03  -5.3545705e-04  -6.8498333e-04  -8.7641476e-04  -4.5524977e-04  -5.2082172e-04  -1.1632439e-03  -6.6214358e-04  -1.0307116e-03  -1.5967214e-04  -4.1023159e-04  -8.3121913e-04  -7.4948912e-04  -6.1026844e-04  -9.6381822e-04  -7.3192141e-04  -7.5495063e-04  -5.7189830e-04  -8.4789784e-04
  -1.3860868e-03  -6.0025713e-04  -7.2170561e-04  -9.9702575e-04  -6.1597535e-04  -7.8508107e-04  -7.7810802e-04  -8.2441518e-04  -6.5471377e-04  -1.7346969e-04  -5.5445737e-04  -9.4173578e-05  -1.3725248e-03  -1.2423929e-03  -1.1217057e-03  -1.0093626e-03  -1.2055353e-03  -9.8256173e-04  -1.2046947e-03  -1.1429345e-03  -1.4601641e-04  -4.9762178e-04  -9.8460866e-04  -3.2541304e-04  -1.3538982e-03  -8.7874732e-04  -8.9511060e-04  -1.0375516e-03  -1.2469413e-03  -6.5813970e-04  -1.3547400e-03  -1.7599397e-03  -9.2882750e-04  -1.0643775e-03  -1.0758194e-03  -8.2212215e-04  -7.7203097e-04  -1.3960643e-03  -9.9312176e-04  -1.4568281e-03  -7.1513484e-04  -6.4754958e-04  -1.2345002e-03  -1.1736818e-03  -9.6320047e-04  -1.2233750e-03  -8.7922259e-04  -1.0618133e-03  -8.0059050e-04  -1.0226376e-03
  -1.5810144e-03  -7.6618564e-04  -7.0491375e-04  -9.9241373e-04  -5.2769901e-04  -7.1185915e-04  -6.5320783e-04  -8.2215294e-04  -4.9082463e-04   1.2995678e-04  -3.7395186e-04   1.8075302e-04  -1.2160448e-03  -1.1666688e-03  -1.0357203e-03  -9.6649432e-04  -1.1239317e-03  -9.4530801e-04  -9.1481564e-04  -9.4321871e-04   1.3279506e-04  -1.9105396e-04  -6.9482741e-04  -9.9186225e-05  -1.0230573e-03  -4.6217968e-04  -8.1586814e-04  -8.3421328e-04  -1.1510905e-03  -4.6370985e-04  -1.1583712e-03  -1.5835040e-03  -4.3082589e-04  -6.2964292e-04  -8.6867617e-04  -3.3753412e-04  -4.6328636e-04  -1.0834138e-03  -5.4064923e-04  -8.8110554e-04   4.6651909e-05  -3.7143790e-04  -7.3635037e-04  -6.0864899e-04  -6.4318918e-04  -9.5236371e-04  -6.8282743e-04  -6.6555029e-04  -4.3698383e-04  -7.7600044e-04
  -1.0781030e-03  -3.1130109e-04  -3.7100451e-04  -6.6323666e-04  -3.8015103e-04  -5.7721493e-04  -5.1385054e-04  -6.8523700e-04  -4.2497599e-04   7.2708361e-05  -3.5012155e-04   1.4290921e-04  -1.1805197e-03  -1.0902340e-03  -9.8752044e-04  -8.8624714e-04  -1.0766875e-03  -8.7711844e-04  -9.7220991e-04  -8.8660081e-04   9.9652127e-05  -2.4219538e-04  -7.5526471e-04  -1.8200341e-04  -1.1197645e-03  -5.7272951e-04  -7.9097116e-04  -8.6190499e-04  -1.1364586e-03  -4.8157154e-04  -1.1791378e-03  -1.5960032e-03  -6.2673504e-04  -7.6543447e-04  -9.2397333e-04  -5.3359306e-04  -5.4007280e-04  -1.1514695e-03  -6.7665288e-04  -1.0955167e-03  -2.6278108e-04  -4.4796127e-04  -9.1666786e-04  -8.3271333e-04  -8.2770595e-04  -1.0529553e-03  -7.9747592e-04  -8.4171945e-04  -6.4831378e-04  -8.8404625e-04
  -1.4660823e-03  -7.3150493e-04  -8.4521918e-04  -1.1475025e-03  -7.1026752e-04  -8.5899711e-04  -8.8962365e-04  -8.5790438e-04  -7.6943066e-04  -2.5571857e-04  -6.2545371e-04  -1.7423331e-04  -1.3716338e-03  -1.2336093e-03  -1.1407792e-03  -9.8681566e-04  -1.2093593e-03  -9.5844921e-04  -1.2779656e-03  -1.1765395e-03  -2.4725997e-04  -5.5102597e-04  -1.0484145e-03  -4.2087008e-04  -1.4211126e-03  -9.8319154e-04  -9.1757136e-04  -1.0519678e-03  -1.2667764e-03  -6.7670422e-04  -1.3624204e-03  -1.7843966e-03  -1.0945537e-03  -1.1702074e-03  -1.1312949e-03  -9.3642325e-04  -8.2248211e-04  -1.3862471e-03  -1.0307744e-03  -1.5000318e-03  -7.5149379e-04  -6.9780834e-04  -1.2084690e-03  -1.1784526e-03  -9.7645225e-04  -1.2687317e-03  -8.3359703e-04  -9.1935252e-04  -6.3769059e-04  -8.6719601e-04
  -1.1948561e-03  -3.9061141e-04  -4.0784004e-04  -6.7912770e-04  -3.7013856e-04  -5.7652779e-04  -4.8769178e-04  -7.2732707e-04  -4.3717943e-04   1.7455466e-04  -3.0964499e-04   2.2195163e-04  -1.1205906e-03  -1.0896365e-03  -9.7858976e-04  -8.6479844e-04  -1.0415649e-03  -8.7303412e-04  -8.7832683e-04  -8.1432913e-04   1.7163013e-04  -1.5369231e-04  -6.6511019e-04   1.1431472e-05  -1.0187667e-03  -4.3568751e-04  -7.6354551e-04  -8.1845938e-04  -1.0499984e-03  -4.1317614e-04  -1.1042523e-03  -1.5382196e-03  -4.5264940e-04  -6.0756051e-04  -8.2670519e-04  -3.5277006e-04  -4.2899314e-04  -1.0107829e-03  -4.8963289e-04  -8.7329035e-04   6.4090425e-05  -3.1793895e-04  -7.4336375e-04  -6.2757952e-04  -5.9071160e-04  -9.2756347e-04  -6.3001923e-04  -6.7537313e-04  -3.6764352e-04  -7.4114877e-04
  -9.1456436e-04  -2.2718770e-04  -2.6574641e-04  -5.4768397e-04  -3.0122703e-04  -5.0821825e-04  -4.4223518e-04  -6.0514436e-04  -3.6271519e-04   1.0506596e-04  -2.9404386e-04   1.7999861e-04  -1.0642771e-03  -9.9338742e-04  -9.2807569e-04  -7.6258706e-04  -9.7176310e-04  -7.8596576e-04  -8.9098362e-04  -8.3970116e-04   1.4890093e-04  -2.0251323e-04  -7.3744293e-04  -1.3175883e-04  -1.0997466e-03  -5.3847779e-04  -7.4968458e-04  -8.4731542e-04  -1.0474096e-03  -4.4648218e-04  -1.1295959e-03  -1.5569743e-03  -5.8542902e-04  -7.8300422e-04  -8.7424729e-04  -4.8487846e-04  -5.1557948e-04  -1.0799615e-03  -6.4788992e-04  -1.0598783e-03  -2.3767949e-04  -4.5225487e-04  -9.1749214e-04  -8.3893456e-04  -7.8396942e-04  -1.0215559e-03  -7.4603816e-04  -7.9902186e-04  -6.6501077e-04  -8.7198470e-04
  -1.3416632e-03  -6.3103688e-04  -7.9106446e-04  -1.0800130e-03  -6.4314844e-04  -8.1826514e-04  -8.4231189e-04  -8.0428767e-04  -7.1853254e-04  -2.1785533e-04  -5.8078428e-04  -1.3608678e-04  -1.2591938e-03  -1.1382656e-03  -1.0844271e-03  -8.4977690e-04  -1.1145071e-03  -8.6954195e-04  -1.1997430e-03  -1.1119605e-03  -1.9535513e-04  -5.1532942e-04  -1.0127298e-03  -3.2189314e-04  -1.3723926e-03  -9.5860934e-04  -8.6760247e-04  -1.0338110e-03  -1.2132096e-03  -6.3677115e-04  -1.2935373e-03  -1.7336142e-03  -9.8159688e-04  -1.1557993e-03  -1.0873579e-03  -8.8334596e-04  -7.6825690e-04  -1.2782707e-03  -9.3452132e-04  -1.3919070e-03  -4.0905279e-04  -4.9215026e-04  -1.0442270e-03  -9.0968766e-04  -7.2145852e-04  -1.1089186e-03  -6.7021413e-04  -7.0347777e-04  -4.6412268e-04  -7.3569763e-04
  -8.1819895e-04  -1.3090347e-04  -1.8774983e-04  -4.3119726e-04  -2.1662496e-04  -4.4602551e-04  -3.4935601e-04  -5.7502638e-04  -2.7757220e-04   2.1730679e-04  -2.2123911e-04   2.8109160e-04  -9.5871324e-04  -9.1937109e-04  -8.7301165e-04  -6.8069471e-04  -8.8379002e-04  -7.4546441e-04  -7.2698668e-04  -6.8880757e-04   3.0224552e-04  -4.5157965e-05  -5.8432022e-04   4.6250552e-06  -9.2797232e-04  -3.6465007e-04  -6.7716092e-04  -7.6237728e-04  -9.5963868e-04  -3.4919049e-04  -1.0054057e-03  -1.4481065e-03  -3.8131259e-04  -5.8107177e-04  -7.7633309e-04  -2.9310960e-04  -3.8332969e-04  -9.1752084e-04  -4.3501981e-04  -8.2733802e-04   1.0063744e-04  -2.4702633e-04  -6.7606958e-04  -5.5674370e-04  -5.2796159e-04  -8.7448541e-04  -5.7917828e-04  -5.8411871e-04  -3.8925555e-04  -6.7605672e-04
  -7.5377634e-04  -1.2856269e-04  -1.8749486e-04  -4.3838992e-04  -2.0903372e-04  -4.4906410e-04  -3.6725571e-04  -5.1519828e-04  -3.1100129e-04   9.8279961e-05  -2.5146318e-04   1.7365867e-04  -9.5733901e-04  -8.7686576e-04  -8.5952354e-04  -6.0026464e-04  -8.4256346e-04  -6.7664869e-04  -8.7743858e-04  -8.0550084e-04   1.1259978e-04  -1.7067234e-04  -7.1233459e-04  -1.2534950e-04  -1.0834450e-03  -5.4296461e-04  -6.6622032e-04  -8.3250448e-04  -9.7210874e-04  -4.1568946e-04  -1.0374465e-03  -1.4878352e-03  -6.1336352e-04  -7.6804147e-04  -8.4553560e-04  -5.0554489e-04  -4.9793441e-04  -1.0205081e-03  -6.2300981e-04  -1.0525073e-03  -2.7906944e-04  -4.6413043e-04  -8.8206050e-04  -8.6286251e-04  -7.9122168e-04  -1.0077527e-03  -7.4767577e-04  -8.4492465e-04  -7.5387803e-04  -9.3304075e-04
  -1.2954647e-03  -6.5740914e-04  -8.0507109e-04  -1.0822824e-03  -6.1836344e-04  -7.8867777e-04  -8.3384459e-04  -7.6222012e-04  -6.9999206e-04  -2.7878763e-04  -5.9938862e-04  -2.0828987e-04  -1.2232834e-03  -1.0939753e-03  -1.0399320e-03  -7.5712707e-04  -1.0232405e-03  -7.9018803e-04  -1.1842664e-03  -1.0250426e-03  -1.9814396e-04  -5.3924118e-04  -9.7609643e-04  -4.2640339e-04  -1.3811252e-03  -9.2998199e-04  -8.3121751e-04  -1.0020314e-03  -1.1150575e-03  -6.0589891e-04  -1.2465479e-03  -1.6923686e-03  -1.0823038e-03  -1.1923824e-03  -1.0645930e-03  -8.9752808e-04  -7.2083366e-04  -1.2324345e-03  -9.1749465e-04  -1.3687019e-03  -6.8540120e-04  -6.2954094e-04  -1.1147817e-03  -1.1136611e-03  -9.0834667e-04  -1.1600932e-03  -8.1856857e-04  -8.4573746e-04  -6.4431393e-04  -7.7398663e-04
  -1.1421567e-03  -4.3602267e-04  -4.4388403e-04  -6.9572742e-04  -3.5399836e-04  -5.1445630e-04  -5.0900434e-04  -6.9802639e-04  -4.5659355e-04   8.3613515e-05  -3.4025760e-04   1.4448297e-04  -1.0510419e-03  -1.0295544e-03  -9.0079854e-04  -7.2889333e-04  -9.2668820e-04  -7.2736957e-04  -8.1846106e-04  -7.6570443e-04   2.2069499e-04  -1.3391236e-04  -5.9598382e-04  -1.0147271e-04  -9.4412424e-04  -3.7535114e-04  -6.5969548e-04  -7.5064122e-04  -8.9955982e-04  -3.2431466e-04  -1.0084105e-03  -1.4479875e-03  -3.7007485e-04  -5.8816199e-04  -7.4150995e-04  -2.6007011e-04  -3.1915199e-04  -8.5268641e-04  -3.3409070e-04  -7.0638757e-04   1.5448969e-04  -2.7859802e-04  -6.2357291e-04  -5.2311365e-04  -5.1763759e-04  -7.8233430e-04  -6.1226351e-04  -5.8177637e-04  -4.3791559e-04  -6.3959783e-04
  -8.8851416e-04  -2.3186152e-04  -3.3189825e-04  -5.6595739e-04  -2.9326798e-04  -4.9637933e-04  -4.6896495e-04  -5.8364257e-04  -4.3405540e-04   5.5266692e-06  -3.2483629e-04   1.1124223e-04  -1.0282430e-03  -9.7556424e-04  -8.6449739e-04  -6.5532065e-04  -9.0453814e-04  -6.7597959e-04  -8.4718305e-04  -8.0066232e-04   9.6586424e-05  -2.0810694e-04  -7.0552016e-04  -1.7394556e-04  -1.0201057e-03  -4.7624719e-04  -6.8707258e-04  -7.8612688e-04  -8.9499308e-04  -3.5795325e-04  -1.0601433e-03  -1.4667473e-03  -5.9173175e-04  -7.2999514e-04  -7.9549075e-04  -4.0918379e-04  -4.0015072e-04  -9.1999443e-04  -4.7296123e-04  -9.0370356e-04  -1.5668040e-04  -3.6167805e-04  -8.1213098e-04  -7.2227651e-04  -6.5731176e-04  -8.7704248e-04  -7.1729970e-04  -8.1729406e-04  -6.4876926e-04  -7.8197662e-04
  -1.3672690e-03  -6.8241992e-04  -8.7957107e-04  -1.1107876e-03  -6.4957532e-04  -8.3728385e-04  -8.6112495e-04  -7.9269370e-04  -7.2006258e-04  -3.3504149e-04  -6.1836262e-04  -1.9162062e-04  -1.2509092e-03  -1.1245371e-03  -1.0235190e-03  -7.7041984e-04  -1.0647597e-03  -7.9012563e-04  -1.2104808e-03  -1.0992247e-03  -2.6523587e-04  -5.4089754e-04  -1.0055109e-03  -3.9147492e-04  -1.3297645e-03  -8.7350304e-04  -8.0479070e-04  -9.8657177e-04  -1.0655257e-03  -5.6714349e-04  -1.2577142e-03  -1.6392379e-03  -1.0271861e-03  -1.1195798e-03  -1.0065697e-03  -7.9906447e-04  -6.7787908e-04  -1.1594836e-03  -8.2726579e-04  -1.3219105e-03  -6.8304595e-04  -6.1411445e-04  -1.2210568e-03  -1.1399910e-03  -8.4946834e-04  -1.0989517e-03  -8.5919484e-04  -1.1039084e-03  -8.0215069e-04  -9.4021816e-04
  -1.5223690e-03  -7.4754079e-04  -7.7590160e-04  -9.7834680e-04  -5.0276989e-04  -7.2031433e-04  -6.6043518e-04  -7.6383166e-04  -4.7562455e-04   3.7237098e-06  -4.0298907e-04   1.4903992e-04  -1.0892784e-03  -1.0370729e-03  -9.4323576e-04  -7.2642585e-04  -9.6937036e-04  -7.6728710e-04  -8.7654253e-04  -8.5004995e-04   1.0499867e-04  -2.0096490e-04  -7.1072223e-04  -1.0758957e-04  -1.0291245e-03  -4.2714833e-04  -7.1120623e-04  -8.0831099e-04  -9.6943014e-04  -3.8806559e-04  -1.0752568e-03  -1.4846481e-03  -4.1980357e-04  -6.2729541e-04  -7.7846705e-04  -2.8312180e-04  -3.8699468e-04  -9.0106874e-04  -3.8727367e-04  -7.6958106e-04   3.5285731e-05  -3.1835196e-04  -8.0054975e-04  -5.9332018e-04  -4.6154423e-04  -7.9544575e-04  -6.4952963e-04  -8.3727058e-04  -4.8210711e-04  -7.1200647e-04
  -1.0470061e-03  -3.2266378e-04  -4.6852912e-04  -6.2906020e-04  -3.4129791e-04  -6.0931564e-04  -5.0147669e-04  -6.1873125e-04  -4.8628743e-04  -6.6295717e-05  -3.7867232e-04   1.2107263e-04  -1.0774229e-03  -9.7410107e-04  -9.1866334e-04  -6.5109634e-04  -9.1860356e-04  -7.2857185e-04  -9.4095489e-04  -8.4036490e-04  -1.1523525e-05  -2.5615515e-04  -7.6341489e-04  -1.3893889e-04  -1.0675401e-03  -5.1022146e-04  -7.0589088e-04  -8.0827775e-04  -9.5955032e-04  -4.1213463e-04  -1.1122283e-03  -1.5095365e-03  -5.7627558e-04  -7.6326838e-04  -8.4223266e-04  -4.3183539e-04  -4.6974301e-04  -9.5991476e-04  -5.1184447e-04  -9.4092038e-04  -2.4292500e-04  -3.9864104e-04  -9.7305508e-04  -7.6972728e-04  -5.5530615e-04  -8.8630803e-04  -7.2706747e-04  -9.8742649e-04  -6.9334137e-04  -8.8276743e-04
  -1.4803577e-03  -7.7165401e-04  -9.4072701e-04  -1.0985715e-03  -6.6774490e-04  -9.0166298e-04  -8.7105087e-04  -7.9308759e-04  -7.8544696e-04  -3.9019034e-04  -6.5902685e-04  -1.9232435e-04  -1.3097710e-03  -1.1330886e-03  -1.0597063e-03  -7.7647413e-04  -1.0646274e-03  -8.2056463e-04  -1.2922976e-03  -1.1592365e-03  -3.2599692e-04  -5.6279969e-04  -1.0752018e-03  -3.9577243e-04  -1.3655841e-03  -9.1459294e-04  -8.2893198e-04  -1.0281686e-03  -1.1343895e-03  -6.1962550e-04  -1.2983684e-03  -1.6909569e-03  -9.7245013e-04  -1.1403869e-03  -1.0553236e-03  -8.3610875e-04  -7.5039995e-04  -1.2250995e-03  -8.6137006e-04  -1.3696594e-03  -6.3160300e-04  -6.0380768e-04  -1.2173465e-03  -1.0085317e-03  -6.5585668e-04  -1.0150990e-03  -7.2233536e-04  -1.0697533e-03  -5.8076385e-04  -7.8326033e-04
  -1.1583401e-03  -4.4714054e-04  -4.8155498e-04  -6.2156678e-04  -3.2827037e-04  -6.2769244e-04  -4.6435487e-04  -6.5143994e-04  -4.9662293e-04  -2.6148640e-05  -3.6857702e-04   1.7234574e-04  -1.1091800e-03  -1.0123763e-03  -9.5045811e-04  -6.8853109e-04  -9.2861749e-04  -7.6795381e-04  -8.3866576e-04  -8.1946107e-04   5.1244297e-05  -1.8831861e-04  -7.2741555e-04  -7.1472568e-05  -9.9779037e-04  -4.0418643e-04  -7.0211443e-04  -7.8341714e-04  -9.9720969e-04  -3.8097825e-04  -1.1008162e-03  -1.4921123e-03  -3.8794227e-04  -6.1050971e-04  -7.9807197e-04  -3.1160560e-04  -4.0474525e-04  -9.2056987e-04  -4.2986879e-04  -8.0153823e-04  -2.7623426e-05  -3.5432505e-04  -8.7127771e-04  -5.7422312e-04  -4.5251357e-04  -7.6748250e-04  -6.8972132e-04  -9.2627341e-04  -5.1618373e-04  -7.6350104e-04
  -1.0916739e-03  -4.0044688e-04  -4.8291878e-04  -6.2967988e-04  -3.4914547e-04  -6.5180607e-04  -4.9751875e-04  -6.4250216e-04  -5.0900149e-04  -1.3944456e-04  -4.1481495e-04   5.2052972e-05  -1.1642079e-03  -1.0138351e-03  -9.6216029e-04  -6.9504674e-04  -9.3121664e-04  -7.6829572e-04  -9.7902981e-04  -8.9264655e-04  -1.1792370e-04  -3.0307559e-04  -8.3434663e-04  -2.3116684e-04  -1.1275199e-03  -5.8147457e-04  -7.3925353e-04  -8.6760253e-04  -1.0367822e-03  -4.7122946e-04  -1.1572336e-03  -1.5643942e-03  -6.4643187e-04  -7.8340602e-04  -8.8520878e-04  -5.4003717e-04  -5.4305524e-04  -1.0522291e-03  -6.1604381e-04  -1.0115685e-03  -3.8105034e-04  -5.0517736e-04  -1.0477811e-03  -8.3850004e-04  -6.5157725e-04  -9.4800547e-04  -8.1551424e-04  -1.0889069e-03  -8.1232621e-04  -9.4386609e-04
  -1.6121259e-03  -8.9257798e-04  -1.0606411e-03  -1.2352134e-03  -7.4883236e-04  -1.0000714e-03  -9.5470756e-04  -8.8128325e-04  -8.5400953e-04  -4.8698860e-04  -7.2910538e-04  -3.0146868e-04  -1.4345421e-03  -1.2281513e-03  -1.1564677e-03  -8.4866909e-04  -1.1216430e-03  -8.8568655e-04  -1.2735272e-03  -1.1987260e-03  -3.5281756e-04  -6.0899992e-04  -1.0868321e-03  -3.7845058e-04  -1.4047757e-03  -9.4033708e-04  -8.4912451e-04  -1.0268727e-03  -1.1994203e-03  -6.4136158e-04  -1.2464377e-03  -1.6536935e-03  -6.8772084e-04  -8.4310636e-04  -9.3419000e-04  -4.4799014e-04  -5.6628755e-04  -1.0350277e-03  -5.4318295e-04  -8.5860450e-04   4.0737221e-05  -3.6553756e-04  -8.1621413e-04  -4.9367396e-04  -4.3647771e-04  -8.0821523e-04  -7.0563197e-04  -8.5017778e-04  -4.7131715e-04  -7.3744857e-04
  -9.5383980e-04  -2.4128502e-04  -3.1810327e-04  -4.5203150e-04  -2.3397521e-04  -5.6092767e-04  -3.7301410e-04  -6.0680875e-04  -3.9696044e-04  -1.9779694e-05  -3.1117102e-04   1.6063398e-04  -1.1384902e-03  -1.0082715e-03  -9.5122715e-04  -6.8304862e-04  -8.9925819e-04  -7.7621109e-04  -8.4149756e-04  -8.4377563e-04   2.6002441e-05  -1.8995203e-04  -7.5132004e-04  -9.9117708e-05  -1.0745326e-03  -4.5236948e-04  -7.3003012e-04  -8.2920131e-04  -1.0282370e-03  -4.2064651e-04  -1.1079955e-03  -1.5083568e-03  -4.8416122e-04  -6.0745265e-04  -8.1448950e-04  -3.6049145e-04  -4.3384609e-04  -9.5995620e-04  -4.5656343e-04  -8.1174850e-04  -3.1510666e-05  -3.6154749e-04  -8.0798153e-04  -5.1887840e-04  -4.3158772e-04  -7.8902050e-04  -6.6379952e-04  -8.8506687e-04  -5.4849457e-04  -7.7309640e-04
  -1.1765440e-03  -4.3787516e-04  -5.8013987e-04  -7.2839065e-04  -4.1768697e-04  -7.2749628e-04  -6.0235627e-04  -6.9230440e-04  -5.7033909e-04  -2.4746059e-04  -4.7450388e-04  -3.9936582e-05  -1.2636771e-03  -1.0994480e-03  -1.0333484e-03  -7.4369536e-04  -9.7311282e-04  -8.2982355e-04  -1.0397256e-03  -9.4743341e-04  -1.3684246e-04  -3.6499865e-04  -9.1795390e-04  -2.9310543e-04  -1.2421492e-03  -7.0004718e-04  -7.9598819e-04  -9.5714093e-04  -1.1256838e-03  -5.4965517e-04  -1.2106824e-03  -1.6365972e-03  -7.3778612e-04  -8.7562780e-04  -9.6473814e-04  -6.4249744e-04  -6.4879586e-04  -1.1418229e-03  -7.4828538e-04  -1.1497586e-03  -5.6988362e-04  -5.4906786e-04  -1.1598020e-03  -9.1325975e-04  -7.3198980e-04  -9.8454219e-04  -8.7914767e-04  -1.2183296e-03  -8.8127539e-04  -9.8821265e-04
  -1.7760437e-03  -1.0775846e-03  -1.2120698e-03  -1.4054328e-03  -8.4701629e-04  -1.0931111e-03  -1.0762806e-03  -9.6802297e-04  -9.1132487e-04  -5.1354821e-04  -7.9133117e-04  -2.9328707e-04  -1.4500053e-03  -1.2912542e-03  -1.2238146e-03  -8.9328561e-04  -1.1190724e-03  -9.2990568e-04  -1.0454437e-03  -9.1134838e-04  -8.1235601e-05  -3.5595483e-04  -8.5123954e-04  -2.1137419e-04  -1.1628721e-03  -5.6896033e-04  -7.9557794e-04  -9.3611365e-04  -1.1475615e-03  -5.2063359e-04  -1.1492990e-03  -1.5801700e-03  -4.3055121e-04  -5.7748985e-04  -8.5897301e-04  -3.2833425e-04  -4.6047178e-04  -9.7460335e-04  -4.5242836e-04  -7.3591707e-04   9.2366594e-05  -3.6249225e-04  -7.3855883e-04  -4.0580833e-04  -4.1072018e-04  -7.6674932e-04  -6.8266387e-04  -8.1255240e-04  -3.8913079e-04  -6.7159079e-04
  -9.1069774e-04  -1.8849802e-04  -3.0093594e-04  -4.4689651e-04  -2.4812185e-04  -5.6895142e-04  -3.9300541e-04  -6.4502284e-04  -4.3955178e-04  -7.8806828e-05  -3.1656137e-04   1.2153725e-04  -1.1850552e-03  -1.0637124e-03  -9.8089408e-04  -7.3433644e-04  -9.2158123e-04  -8.0869324e-04  -8.0694718e-04  -7.5939769e-04   9.0032881e-05  -1.6352159e-04  -7.1245997e-04  -1.1300633e-04  -1.0493327e-03  -4.2353079e-04  -7.3653564e-04  -8.2562777e-04  -1.0628287e-03  -4.2347715e-04  -1.0848076e-03  -1.5163153e-03  -4.2524934e-04  -5.4026360e-04  -8.1675465e-04  -3.5118900e-04  -4.4638070e-04  -9.5791847e-04  -4.7606413e-04  -7.6213456e-04  -5.7392092e-05  -3.4391752e-04  -7.8242720e-04  -5.0416461e-04  -4.5020401e-04  -7.5944595e-04  -7.2944182e-04  -8.5080037e-04  -5.2023842e-04  -7.8170327e-04
  -1.2172682e-03  -4.5708197e-04  -6.3188409e-04  -8.0349308e-04  -4.7512350e-04  -7.4482284e-04  -6.6030648e-04  -7.5056247e-04  -6.3026452e-04  -3.1617537e-04  -5.0370238e-04  -9.3230861e-05  -1.3307307e-03  -1.1655685e-03  -1.0744374e-03  -8.1405928e-04  -1.0120873e-03  -8.6654437e-04  -1.0842982e-03  -9.3498401e-04  -1.6710597e-04  -4.0068949e-04  -9.5877249e-04  -3.1358865e-04  -1.2840789e-03  -7.3927769e-04  -8.3295564e-04  -9.9666556e-04  -1.1847563e-03  -5.9254345e-04  -1.2282063e-03  -1.6539567e-03  -7.8215118e-04  -9.0100255e-04  -1.0075206e-03  -7.2715530e-04  -7.0879684e-04  -1.1974112e-03  -8.0516940e-04  -1.1850997e-03  -6.2243693e-04  -6.3336740e-04  -1.1046691e-03  -9.1291621e-04  -7.8330468e-04  -1.0223354e-03  -9.2289306e-04  -1.1572530e-03  -9.1922586e-04  -1.0379718e-03
  -1.8091121e-03  -1.0311457e-03  -1.2523510e-03  -1.4832636e-03  -9.0269145e-04  -1.1290032e-03  -1.1467497e-03  -1.0309418e-03  -9.8582963e-04  -6.6027913e-04  -8.5278193e-04  -4.2907338e-04  -1.5909243e-03  -1.4131905e-03  -1.2758565e-03  -1.0182740e-03  -1.2263659e-03  -1.0159822e-03  -1.3795362e-03  -1.1759418e-03  -3.9258305e-04  -6.6699152e-04  -1.1849179e-03  -4.7020084e-04  -1.5341470e-03  -1.0221672e-03  -9.3975797e-04  -1.1326335e-03  -1.3152299e-03  -7.4186258e-04  -1.2858191e-03  -1.7338627e-03  -7.3413271e-04  -8.5718260e-04  -1.0158059e-03  -5.5512937e-04  -6.8385014e-04  -1.1490141e-03  -6.3862820e-04  -9.0150378e-04   1.8534618e-05  -4.3359830e-04  -8.0611196e-04  -4.8670065e-04  -5.2191142e-04  -8.5513486e-04  -7.4970210e-04  -8.5336564e-04  -4.6878681e-04  -7.4424141e-04
  -1.0139063e-03  -2.7453035e-04  -3.5691136e-04  -5.2733917e-04  -3.0507336e-04  -6.0231169e-04  -4.5750599e-04  -7.3375535e-04  -4.7150734e-04  -1.0385845e-04  -3.4943037e-04   1.0014870e-04  -1.2606437e-03  -1.1763221e-03  -1.0417525e-03  -8.6821138e-04  -9.9774159e-04  -8.9363725e-04  -9.0221054e-04  -8.5657393e-04   2.8238357e-05  -1.9966722e-04  -7.9173152e-04  -1.8007845e-04  -1.1010480e-03  -4.6637852e-04  -7.9648825e-04  -9.1735448e-04  -1.1625704e-03  -4.8756300e-04  -1.1366055e-03  -1.5635684e-03  -4.6484484e-04  -5.8201252e-04  -8.8183733e-04  -4.2453743e-04  -5.2126771e-04  -1.0356090e-03  -5.4044533e-04  -8.0469216e-04  -1.2294116e-05  -4.1368321e-04  -7.3964032e-04  -4.9946620e-04  -5.3532491e-04  -8.0540910e-04  -7.4958900e-04  -8.2708080e-04  -5.9553405e-04  -7.7678129e-04
  -1.1883503e-03  -4.4593762e-04  -5.9610570e-04  -7.9613685e-04  -4.9077359e-04  -7.5005693e-04  -6.6308444e-04  -8.1234123e-04  -6.2270573e-04  -3.2191348e-04  -4.9560046e-04  -1.0265398e-04  -1.3660718e-03  -1.2534814e-03  -1.1087803e-03  -9.2045061e-04  -1.0680287e-03  -9.3800225e-04  -1.0617645e-03  -1.0093132e-03  -1.4015693e-04  -3.8084513e-04  -9.7032991e-04  -3.3004506e-04  -1.3188866e-03  -7.2235329e-04  -8.5602159e-04  -1.0283332e-03  -1.2440580e-03  -6.1857066e-04  -1.2473112e-03  -1.6661531e-03  -7.5282936e-04  -8.7459642e-04  -1.0460451e-03  -7.3194172e-04  -7.4736803e-04  -1.2390956e-03  -8.3925296e-04  -1.1888201e-03  -5.7809066e-04  -6.1386509e-04  -1.0955924e-03  -9.2012930e-04  -8.8581606e-04  -1.0424044e-03  -9.0755732e-04  -1.1545883e-03  -8.6611154e-04  -1.0176436e-03
  -1.7857336e-03  -1.0207093e-03  -1.2402410e-03  -1.5026948e-03  -9.2281855e-04  -1.1365052e-03  -1.1679351e-03  -1.0931819e-03  -9.9196308e-04  -6.7196944e-04  -8.4763922e-04  -4.5527460e-04  -1.6267063e-03  -1.4690792e-03  -1.3140611e-03  -1.1012880e-03  -1.2641087e-03  -1.0661964e-03  -1.4464268e-03  -1.2530050e-03  -4.7758513e-04  -7.4424141e-04  -1.2790955e-03  -5.8556476e-04  -1.6380879e-03  -1.1705921e-03  -1.0391073e-03  -1.2591826e-03  -1.4286992e-03  -8.5565203e-04  -1.4652173e-03  -1.8937624e-03  -1.2119687e-03  -1.3216060e-03  -1.2975179e-03  -1.1625607e-03  -1.0312493e-03  -1.5086697e-03  -1.2130308e-03  -1.6266814e-03  -1.0864506e-03  -8.6956180e-04  -1.4583147e-03  -1.2879447e-03  -1.1064664e-03  -1.3379555e-03  -9.8291505e-04  -1.1626352e-03  -8.6654496e-04  -1.0144488e-03
  -1.5873865e-03  -7.1208726e-04  -8.1347424e-04  -1.0310098e-03  -6.2768534e-04  -8.5185532e-04  -7.8911241e-04  -9.9636836e-04  -6.5131037e-04  -2.5086658e-04  -5.3813524e-04  -5.1816500e-05  -1.4440569e-03  -1.4022528e-03  -1.2185826e-03  -1.0805422e-03  -1.1677259e-03  -1.0439417e-03  -1.0149560e-03  -9.6666254e-04  -4.8560505e-05  -3.4686731e-04  -9.2659821e-04  -2.4340056e-04  -1.2503440e-03  -6.2032283e-04  -9.3213934e-04  -1.0354830e-03  -1.2748366e-03  -6.1250175e-04  -1.2663634e-03  -1.7053771e-03  -6.1741087e-04  -7.2083395e-04  -1.0431167e-03  -5.6901679e-04  -6.7158113e-04  -1.2182404e-03  -7.1864144e-04  -9.9054177e-04  -2.2530438e-04  -5.2676816e-04  -9.3805121e-04  -7.0549961e-04  -7.2718307e-04  -1.0239808e-03  -8.6131453e-04  -9.3802833e-04  -7.4961194e-04  -9.1291592e-04
  -1.3177418e-03  -4.9786334e-04  -6.8928010e-04  -9.1754040e-04  -5.9674593e-04  -8.3441572e-04  -7.6567428e-04  -9.4229163e-04  -6.4926455e-04  -3.3888206e-04  -5.4803205e-04  -1.1619928e-04  -1.4608791e-03  -1.3937068e-03  -1.2126878e-03  -1.0806227e-03  -1.1728194e-03  -1.0295634e-03  -1.0832242e-03  -1.0437032e-03  -2.0684551e-04  -4.2494482e-04  -1.0222906e-03  -3.4020096e-04  -1.3552688e-03  -7.5312337e-04  -9.7699277e-04  -1.1048476e-03  -1.3590074e-03  -6.8195123e-04  -1.3021438e-03  -1.7671905e-03  -7.6482416e-04  -8.9483772e-04  -1.1243594e-03  -7.6696411e-04  -7.9601299e-04  -1.3151753e-03  -8.9615950e-04  -1.2167939e-03  -5.4554833e-04  -6.2272610e-04  -1.1312356e-03  -9.3953300e-04  -8.5700571e-04  -1.1588248e-03  -9.1831305e-04  -1.1561918e-03  -9.9216006e-04  -1.0615541e-03
  -1.8172703e-03  -1.0182634e-03  -1.2463199e-03  -1.5086634e-03  -9.8572660e-04  -1.1779158e-03  -1.2064195e-03  -1.1766423e-03  -9.9959155e-04  -6.9095165e-04  -8.6518691e-04  -4.5849915e-04  -1.6937651e-03  -1.5708086e-03  -1.3752619e-03  -1.2218396e-03  -1.3407102e-03  -1.1399220e-03  -1.4301587e-03  -1.2913706e-03  -4.5301672e-04  -7.5932685e-04  -1.3220343e-03  -6.3801627e-04  -1.6846855e-03  -1.1934382e-03  -1.1154438e-03  -1.2881577e-03  -1.5371552e-03  -9.0024277e-04  -1.5058094e-03  -1.9638191e-03  -1.2701496e-03  -1.3317997e-03  -1.3582804e-03  -1.2215805e-03  -1.0675663e-03  -1.5754774e-03  -1.2652988e-03  -1.6563386e-03  -1.1081528e-03  -8.7626744e-04  -1.5195390e-03  -1.3805790e-03  -1.1324106e-03  -1.4441884e-03  -1.0485040e-03  -1.3392268e-03  -1.1114149e-03  -1.1488805e-03
  -1.8535024e-03  -1.0012069e-03  -1.0508586e-03  -1.3026332e-03  -8.1372232e-04  -1.0058853e-03  -9.7475166e-04  -1.1345771e-03  -7.4475637e-04  -3.5293211e-04  -6.3771318e-04  -1.2865420e-04  -1.5411013e-03  -1.5235026e-03  -1.3099301e-03  -1.2230109e-03  -1.2684910e-03  -1.1368765e-03  -1.1129543e-03  -1.0700809e-03  -1.1369392e-04  -4.3521114e-04  -1.0234666e-03  -3.2761341e-04  -1.3638710e-03  -7.1274722e-04  -1.0331238e-03  -1.1270219e-03  -1.4214049e-03  -7.0279610e-04  -1.3293502e-03  -1.8154448e-03  -6.8723533e-04  -8.5215486e-04  -1.1397408e-03  -6.9465861e-04  -7.7799940e-04  -1.3146321e-03  -8.2551484e-04  -1.1068708e-03  -2.8952214e-04  -5.9358723e-04  -1.0394703e-03  -8.2458265e-04  -8.0800848e-04  -1.1650942e-03  -9.0867223e-04  -1.0163699e-03  -8.5558591e-04  -9.9093025e-04
  -1.4950472e-03  -6.7909667e-04  -8.3719840e-04  -1.0934531e-03  -7.3282939e-04  -9.4538491e-04  -9.1703859e-04  -1.0860163e-03  -7.6330814e-04  -4.3994884e-04  -6.4801419e-04  -1.9976325e-04  -1.5605307e-03  -1.5143992e-03  -1.2991972e-03  -1.2189650e-03  -1.2622284e-03  -1.1095884e-03  -1.1884767e-03  -1.1202635e-03  -2.7119165e-04  -5.2224385e-04  -1.1014659e-03  -4.1588277e-04  -1.4493428e-03  -8.4436656e-04  -1.0554460e-03  -1.1722940e-03  -1.4624434e-03  -7.4373669e-04  -1.3743461e-03  -1.8564503e-03  -8.9574186e-04  -1.0228918e-03  -1.2066178e-03  -8.7749667e-04  -8.9288369e-04  -1.3923255e-03  -9.9541363e-04  -1.3013043e-03  -5.6829606e-04  -6.9390138e-04  -1.2045667e-03  -1.0550385e-03  -9.3513855e-04  -1.2722267e-03  -1.0031384e-03  -1.1693860e-03  -1.0515521e-03  -1.1112959e-03
  -1.9271839e-03  -1.0795036e-03  -1.3477450e-03  -1.6220626e-03  -1.0913792e-03  -1.2468747e-03  -1.3111281e-03  -1.2788920e-03  -1.0817189e-03  -7.7492517e-04  -9.4426906e-04  -5.3155579e-04  -1.7831484e-03  -1.6812128e-03  -1.4512577e-03  -1.3534535e-03  -1.4229122e-03  -1.2050172e-03  -1.5326764e-03  -1.3943858e-03  -5.6611438e-04  -8.6299091e-04  -1.3957692e-03  -6.6324382e-04  -1.7563438e-03  -1.2796141e-03  -1.1953522e-03  -1.3490579e-03  -1.6241831e-03  -9.5272245e-04  -1.5586237e-03  -2.0276292e-03  -1.2995520e-03  -1.4353059e-03  -1.4143090e-03  -1.2567490e-03  -1.1492451e-03  -1.5933166e-03  -1.2805965e-03  -1.6082778e-03  -5.9470820e-04  -6.5160362e-04  -1.1984331e-03  -1.0420197e-03  -9.5654785e-04  -1.3118727e-03  -9.2876062e-04  -1.0657287e-03  -8.3749095e-04  -9.8682672e-04
  -1.3988719e-03  -5.2497769e-04  -7.3374540e-04  -9.8397059e-04  -6.8967952e-04  -8.8931120e-04  -8.3915342e-04  -1.0940720e-03  -6.7406899e-04  -3.4073112e-04  -5.9893588e-04  -1.2111435e-04  -1.5371740e-03  -1.5259278e-03  -1.2966328e-03  -1.2511193e-03  -1.2574485e-03  -1.1166448e-03  -1.0852552e-03  -1.0009548e-03  -1.1035054e-04  -4.2573980e-04  -1.0143688e-03  -3.6920325e-04  -1.3602704e-03  -7.4474077e-04  -1.0605229e-03  -1.1198125e-03  -1.4226059e-03  -6.9588854e-04  -1.3304609e-03  -1.8059508e-03  -7.4801169e-04  -9.0945553e-04  -1.1649316e-03  -7.3340285e-04  -8.1613701e-04  -1.3157085e-03  -8.8470796e-04  -1.1458349e-03  -2.7924232e-04  -5.1129732e-04  -9.9364005e-04  -8.3853223e-04  -7.7794760e-04  -1.1917078e-03  -8.7449519e-04  -1.0048435e-03  -8.1901602e-04  -9.2822546e-04
  -1.4503545e-03  -6.4588181e-04  -8.2750589e-04  -1.1055513e-03  -7.6696172e-04  -9.5223583e-04  -9.4274059e-04  -1.0862499e-03  -7.4862083e-04  -4.8334405e-04  -6.7805679e-04  -2.5537281e-04  -1.5921374e-03  -1.5177887e-03  -1.3144730e-03  -1.2446156e-03  -1.2725726e-03  -1.1022475e-03  -1.2452799e-03  -1.1499402e-03  -2.3496206e-04  -5.7096715e-04  -1.1800484e-03  -4.9484504e-04  -1.4920646e-03  -9.3886716e-04  -1.1118003e-03  -1.2067240e-03  -1.4620026e-03  -7.8397681e-04  -1.3724791e-03  -1.8720006e-03  -1.0291968e-03  -1.1265634e-03  -1.2625973e-03  -9.7779743e-04  -9.5957296e-04  -1.4126048e-03  -1.0849340e-03  -1.3943256e-03  -7.0121681e-04  -6.7989004e-04  -1.2559316e-03  -1.1623472e-03  -1.0832055e-03  -1.3662389e-03  -1.0191449e-03  -1.1895739e-03  -1.1145324e-03  -1.1790460e-03
  -1.9982150e-03  -1.1788318e-03  -1.4351384e-03  -1.7453737e-03  -1.1601098e-03  -1.3126439e-03  -1.4102639e-03  -1.3083969e-03  -1.1433907e-03  -8.3075836e-04  -1.0092001e-03  -5.8883242e-04  -1.8120562e-03  -1.6957340e-03  -1.4920642e-03  -1.3705315e-03  -1.4384354e-03  -1.2079927e-03  -1.5512727e-03  -1.4209470e-03  -5.5547798e-04  -8.8169833e-04  -1.4373948e-03  -6.8569893e-04  -1.7534664e-03  -1.3251908e-03  -1.1822683e-03  -1.3381602e-03  -1.5935977e-03  -9.4686821e-04  -1.4675932e-03  -1.9778297e-03  -1.0356398e-03  -1.2346740e-03  -1.2933363e-03  -8.7247498e-04  -9.9353993e-04  -1.3818834e-03  -9.8959170e-04  -1.2313959e-03  -1.8480892e-04  -4.7178482e-04  -9.6422294e-04  -8.1926532e-04  -7.6204777e-04  -1.2209732e-03  -8.4214314e-04  -9.3940680e-04  -7.4241532e-04  -9.1229891e-04
  -1.2603377e-03  -4.7195502e-04  -5.9662620e-04  -8.5705414e-04  -5.9766462e-04  -8.1433787e-04  -7.4954319e-04  -1.0048413e-03  -6.0813670e-04  -2.9258980e-04  -5.2756898e-04  -6.3354622e-05  -1.4630157e-03  -1.4259212e-03  -1.2311557e-03  -1.1726969e-03  -1.1778791e-03  -1.0497352e-03  -1.0403947e-03  -1.0141293e-03  -1.3726292e-04  -3.9016118e-04  -1.0118869e-03  -3.1492396e-04  -1.3209345e-03  -7.1734341e-04  -1.0117571e-03  -1.0913447e-03  -1.3647698e-03  -6.6772738e-04  -1.2620722e-03  -1.7614709e-03  -7.4419868e-04  -8.9310604e-04  -1.1117003e-03  -6.8311364e-04  -7.6996605e-04  -1.2110022e-03  -8.1678672e-04  -1.0700326e-03  -1.9719801e-04  -4.1603154e-04  -9.1188127e-04  -7.8279187e-04  -7.1565877e-04  -1.1308433e-03  -7.9304009e-04  -9.1065507e-04  -7.8607298e-04  -9.7791920e-04
  -1.3787113e-03  -5.7585415e-04  -7.7138521e-04  -1.0520965e-03  -7.2531472e-04  -9.1967511e-04  -9.1496238e-04  -1.0194746e-03  -7.3816779e-04  -4.8126915e-04  -6.5646070e-04  -2.2689423e-04  -1.5223440e-03  -1.4342437e-03  -1.2673832e-03  -1.1641018e-03  -1.1943717e-03  -1.0300563e-03  -1.1696568e-03  -1.0953099e-03  -2.3612373e-04  -5.4572237e-04  -1.1587206e-03  -4.4939070e-04  -1.4731314e-03  -9.2035707e-04  -1.0428294e-03  -1.1656273e-03  -1.3921149e-03  -7.5336965e-04  -1.3237239e-03  -1.8184897e-03  -1.0033341e-03  -1.1355648e-03  -1.2145613e-03  -9.4852556e-04  -9.3176455e-04  -1.3443369e-03  -1.0447423e-03  -1.3747402e-03  -6.9314550e-04  -6.1057514e-04  -1.1704819e-03  -1.1513464e-03  -9.6006092e-04  -1.2934717e-03  -9.4782538e-04  -1.2048284e-03  -1.1041134e-03  -1.1202355e-03
  -1.9281565e-03  -1.1836396e-03  -1.3675304e-03  -1.6947341e-03  -1.1024629e-03  -1.2737490e-03  -1.3664560e-03  -1.2407139e-03  -1.1049974e-03  -7.9266663e-04  -9.8202948e-04  -5.3996092e-04  -1.7172394e-03  -1.5848507e-03  -1.4227254e-03  -1.2598968e-03  -1.3415829e-03  -1.1149563e-03  -1.3953514e-03  -1.2449130e-03  -3.8898987e-04  -7.0212013e-04  -1.2531127e-03  -4.6922095e-04  -1.5648837e-03  -1.0724055e-03  -1.0948482e-03  -1.2092601e-03  -1.4619225e-03  -8.2993851e-04  -1.3129639e-03  -1.8291372e-03  -8.4686355e-04  -9.8825083e-04  -1.1498511e-03  -6.7748677e-04  -8.2913158e-04  -1.2152855e-03  -8.0068730e-04  -1.0548538e-03  -6.2062936e-05  -3.6769960e-04  -8.5682824e-04  -6.9888210e-04  -6.5383641e-04  -1.0833808e-03  -7.2353269e-04  -8.8956457e-04  -6.4932671e-04  -8.2626304e-04
  -1.1070446e-03  -3.5199625e-04  -4.4616687e-04  -7.0689054e-04  -4.8011669e-04  -7.2045816e-04  -6.4194959e-04  -8.7172096e-04  -5.6374486e-04  -2.7735246e-04  -4.6569167e-04  -2.6333882e-05  -1.3363902e-03  -1.2848789e-03  -1.1173660e-03  -1.0306020e-03  -1.0532532e-03  -9.1387657e-04  -9.4856095e-04  -8.9984911e-04  -3.5886325e-05  -3.1150691e-04  -9.3666371e-04  -2.6591364e-04  -1.2089594e-03  -6.2347652e-04  -9.1908703e-04  -1.0021802e-03  -1.2533411e-03  -5.8178953e-04  -1.1420191e-03  -1.6569707e-03  -6.4556091e-04  -8.0763811e-04  -1.0145829e-03  -5.6539132e-04  -6.8812980e-04  -1.0868036e-03  -7.1176578e-04  -9.5314358e-04  -1.2423471e-04  -3.2900370e-04  -7.8721624e-04  -6.9004134e-04  -6.0820510e-04  -9.8746840e-04  -6.8806962e-04  -8.4337190e-04  -7.3388277e-04  -8.4306276e-04
  -1.2777864e-03  -5.5795192e-04  -6.6122535e-04  -9.4206393e-04  -6.1494776e-04  -8.4295106e-04  -8.2368526e-04  -8.7394356e-04  -6.6616264e-04  -4.7042564e-04  -6.0079526e-04  -2.0370251e-04  -1.3883488e-03  -1.2734315e-03  -1.1596455e-03  -9.9292363e-04  -1.0598066e-03  -8.9454709e-04  -1.0827719e-03  -9.8967890e-04  -2.2690205e-04  -4.9727503e-04  -1.1017707e-03  -4.2483010e-04  -1.4052717e-03  -8.6175412e-04  -9.6034905e-04  -1.0842554e-03  -1.3002373e-03  -6.8801659e-04  -1.2307402e-03  -1.7362719e-03  -9.3591143e-04  -1.0926984e-03  -1.1329477e-03  -8.7238452e-04  -8.7580876e-04  -1.2376959e-03  -9.8145287e-04  -1.3106788e-03  -6.6987117e-04  -5.8712799e-04  -1.1421922e-03  -1.1014601e-03  -8.8265951e-04  -1.2129570e-03  -8.7899913e-04  -1.1360758e-03  -1.0827228e-03  -1.0928287e-03
  -1.8398013e-03  -1.1157177e-03  -1.2716406e-03  -1.5911123e-03  -1.0054315e-03  -1.1985908e-03  -1.2652708e-03  -1.1280113e-03  -1.0475923e-03  -8.1684289e-04  -9.4042125e-04  -5.3160655e-04  -1.6183954e-03  -1.4440262e-03  -1.3104393e-03  -1.1067266e-03  -1.2202414e-03  -9.9558767e-04  -1.3410449e-03  -1.1452434e-03  -3.6204554e-04  -7.0334761e-04  -1.2371811e-03  -4.8549779e-04  -1.5388509e-03  -1.0549660e-03  -9.9285366e-04  -1.1564530e-03  -1.3530657e-03  -7.7694206e-04  -1.2483262e-03  -1.7401255e-03  -8.3758507e-04  -9.7220152e-04  -1.0848854e-03  -6.1598036e-04  -7.8225695e-04  -1.1197329e-03  -7.6648151e-04  -9.8066346e-04  -3.3286655e-05  -4.0970297e-04  -7.5608480e-04  -6.4501137e-04  -6.3628727e-04  -9.8587340e-04  -7.0149341e-04  -7.4535125e-04  -6.8220537e-04  -7.8195595e-04
  -1.0660898e-03  -3.5915640e-04  -3.9527955e-04  -6.4178481e-04  -4.0653776e-04  -6.7121733e-04  -5.5475149e-04  -7.6931901e-04  -5.0082523e-04  -3.3531635e-04  -4.5283066e-04  -5.0703966e-05  -1.2548859e-03  -1.1634250e-03  -1.0488330e-03  -8.8164746e-04  -9.5065200e-04  -8.2448276e-04  -9.2662807e-04  -8.4720255e-04  -1.3289313e-05  -3.1114204e-04  -8.8084792e-04  -2.5999907e-04  -1.1602737e-03  -5.8892113e-04  -8.5192057e-04  -9.4512297e-04  -1.1694996e-03  -5.3287327e-04  -1.0878134e-03  -1.5765005e-03  -6.1408133e-04  -7.5102434e-04  -9.3694299e-04  -5.0689554e-04  -6.3430180e-04  -9.8116207e-04  -6.4246170e-04  -8.8095129e-04  -8.6245236e-05  -3.9047870e-04  -6.9084344e-04  -6.3769810e-04  -5.8048964e-04  -9.1992907e-04  -7.4765680e-04  -8.0308435e-04  -7.6111621e-04  -8.2012371e-04
  -1.2529228e-03  -5.3127704e-04  -6.2752818e-04  -8.8074792e-04  -5.4753409e-04  -7.8839657e-04  -7.4436783e-04  -8.0906041e-04  -6.8916834e-04  -5.4663356e-04  -6.1086810e-04  -2.3561479e-04  -1.3276674e-03  -1.1788692e-03  -1.0798521e-03  -8.7577506e-04  -9.7839558e-04  -7.9886138e-04  -1.0590925e-03  -9.9468930e-04  -2.1928138e-04  -5.0495082e-04  -1.0720473e-03  -4.4153459e-04  -1.3453735e-03  -8.0981827e-04  -8.8319008e-04  -1.0377538e-03  -1.1906759e-03  -6.3249742e-04  -1.1886323e-03  -1.6435869e-03  -8.8868901e-04  -1.0328756e-03  -1.0584763e-03  -8.1068976e-04  -8.0970873e-04  -1.1391515e-03  -8.9476805e-04  -1.2299723e-03  -6.0437917e-04  -6.1309116e-04  -1.0072489e-03  -1.0191979e-03  -8.8693708e-04  -1.1029515e-03  -9.2228933e-04  -1.0180128e-03  -1.0505562e-03  -1.0569742e-03
  -1.8255844e-03  -1.1361985e-03  -1.2287449e-03  -1.5195077e-03  -9.3478459e-04  -1.1473725e-03  -1.1954714e-03  -1.0453461e-03  -1.0930280e-03  -8.9365075e-04  -9.5167378e-04  -5.6988583e-04  -1.5602246e-03  -1.3755909e-03  -1.2679921e-03  -1.0108030e-03  -1.1594862e-03  -9.2058541e-04  -1.4194292e-03  -1.2845149e-03  -5.5350328e-04  -8.4320654e-04  -1.3582841e-03  -6.4573967e-04  -1.6235404e-03  -1.2243914e-03  -1.0227484e-03  -1.2178851e-03  -1.3653664e-03  -8.2442194e-04  -1.3593080e-03  -1.8269860e-03  -1.2326648e-03  -1.3247114e-03  -1.2023405e-03  -9.6945249e-04  -9.6958427e-04  -1.2199339e-03  -9.8311366e-04  -1.2312835e-03  -2.2228465e-04  -5.8693660e-04  -8.4705412e-04  -7.7388948e-04  -7.3376606e-04  -1.0737636e-03  -8.5723575e-04  -7.9600746e-04  -7.9047371e-04  -7.9892401e-04
  -1.2081758e-03  -4.4408170e-04  -5.1507645e-04  -7.3457422e-04  -4.5471851e-04  -7.2393182e-04  -6.0221244e-04  -7.9375220e-04  -6.2567776e-04  -4.4257147e-04  -5.4251641e-04  -1.3369086e-04  -1.2582564e-03  -1.1660268e-03  -1.0361160e-03  -8.4019644e-04  -9.4919733e-04  -7.8659679e-04  -9.6556242e-04  -8.3720405e-04  -1.2102087e-04  -3.7637466e-04  -9.3737239e-04  -3.3699014e-04  -1.1577315e-03  -6.0630456e-04  -8.4716990e-04  -9.2007860e-04  -1.1215718e-03  -5.2428833e-04  -1.1203928e-03  -1.5714896e-03  -6.8898418e-04  -7.8243180e-04  -9.3282474e-04  -5.2876951e-04  -6.5040943e-04  -9.6863566e-04  -6.3787086e-04  -8.8782760e-04  -1.0840264e-04  -5.3544116e-04  -7.1104639e-04  -6.2924414e-04  -6.8866683e-04  -9.0796145e-04  -8.3362486e-04  -7.6066219e-04  -9.2002790e-04  -8.2703406e-04
  -1.2924355e-03  -5.4059760e-04  -6.2629289e-04  -8.5087749e-04  -5.1912409e-04  -7.9058635e-04  -6.9783762e-04  -7.8212749e-04  -7.3918211e-04  -6.1553571e-04  -6.4151251e-04  -2.8397582e-04  -1.3124534e-03  -1.1636413e-03  -1.0525952e-03  -8.2561735e-04  -9.6654065e-04  -7.8215869e-04  -1.0783991e-03  -9.6668286e-04  -3.0601010e-04  -5.1915192e-04  -1.0480020e-03  -4.4116550e-04  -1.2855189e-03  -7.6785980e-04  -8.5149071e-04  -1.0017970e-03  -1.1380600e-03  -5.8562908e-04  -1.1864720e-03  -1.6219525e-03  -8.8934315e-04  -9.6214027e-04  -1.0167923e-03  -7.5074763e-04  -7.4909290e-04  -1.0909679e-03  -8.2554528e-04  -1.1392309e-03  -5.2188931e-04  -7.0491381e-04  -9.4983185e-04  -9.6679811e-04  -9.2652079e-04  -1.0734737e-03  -1.0179711e-03  -1.0441544e-03  -1.1914612e-03  -1.0317087e-03
  -1.8493617e-03  -1.0946459e-03  -1.2095810e-03  -1.4701413e-03  -9.0576638e-04  -1.1350636e-03  -1.1404810e-03  -1.0125471e-03  -1.1071302e-03  -9.5929753e-04  -9.6895429e-04  -6.1747595e-04  -1.5490535e-03  -1.3468921e-03  -1.2217503e-03  -9.6204149e-04  -1.1474855e-03  -8.9792552e-04  -1.4551186e-03  -1.2361614e-03  -5.6530285e-04  -8.5512764e-04  -1.3280006e-03  -6.8437855e-04  -1.6032576e-03  -1.1648355e-03  -9.7585219e-04  -1.1903148e-03  -1.3020998e-03  -7.7988626e-04  -1.3518899e-03  -1.7685221e-03  -1.1430910e-03  -1.2399780e-03  -1.1409986e-03  -8.5093628e-04  -8.8853482e-04  -1.1543107e-03  -8.7892334e-04  -1.1256981e-03  -1.5683977e-04  -6.4593297e-04  -7.6547929e-04  -7.0615759e-04  -7.6049106e-04  -9.9228229e-04  -9.2240021e-04  -7.6199649e-04  -8.4748433e-04  -8.1934273e-04
  -1.2181021e-03  -4.9590576e-04  -4.9546344e-04  -7.0326519e-04  -4.2167524e-04  -7.0429110e-04  -5.5365899e-04  -7.6532533e-04  -7.0901524e-04  -5.0369679e-04  -5.6236074e-04  -1.8228529e-04  -1.2587516e-03  -1.1254859e-03  -1.0118093e-03  -7.8875222e-04  -9.2812418e-04  -7.5495796e-04  -9.3160698e-04  -9.4996078e-04  -1.4802869e-04  -3.9003542e-04  -9.2701014e-04  -3.3502933e-04  -1.1278098e-03  -5.5559730e-04  -8.0688100e-04  -9.1380446e-04  -1.0666668e-03  -4.8388890e-04  -1.1205127e-03  -1.5505065e-03  -6.4936909e-04  -7.2849623e-04  -8.9889613e-04  -4.9946032e-04  -6.1715138e-04  -9.3987159e-04  -5.8902142e-04  -8.3136756e-04  -6.8292924e-05  -5.8402616e-04  -6.5713533e-04  -6.0357904e-04  -6.7477039e-04  -8.9388067e-04  -8.9818944e-04  -7.8549085e-04  -9.6745556e-04  -8.4281067e-04
  -1.3292566e-03  -5.6202081e-04  -6.5363391e-04  -8.6519844e-04  -5.2318664e-04  -7.9348945e-04  -7.0055830e-04  -7.8889943e-04  -8.1989495e-04  -6.8305177e-04  -6.8435125e-04  -3.4526226e-04  -1.3340738e-03  -1.1419280e-03  -1.0496262e-03  -7.9788693e-04  -9.7013131e-04  -7.6163653e-04  -1.1152257e-03  -1.0465092e-03  -2.7875448e-04  -5.5317162e-04  -1.0642103e-03  -4.5504281e-04  -1.2864689e-03  -7.7802973e-04  -8.4511540e-04  -9.8112307e-04  -1.1313929e-03  -5.6934793e-04  -1.1979520e-03  -1.6075433e-03  -8.8709511e-04  -9.4931619e-04  -1.0131029e-03  -7.6000788e-04  -7.5992080e-04  -1.0605558e-03  -8.2064199e-04  -1.1290967e-03  -5.6950341e-04  -7.9952489e-04  -9.6694822e-04  -9.4923208e-04  -1.0097192e-03  -1.0544284e-03  -1.1233995e-03  -1.0566396e-03  -1.2397396e-03  -1.0227299e-03
  -1.9154219e-03  -1.1451049e-03  -1.2885226e-03  -1.5445353e-03  -9.4370032e-04  -1.1732456e-03  -1.1820059e-03  -1.0321186e-03  -1.1975059e-03  -1.0358869e-03  -1.0263143e-03  -6.8805483e-04  -1.5891696e-03  -1.3714840e-03  -1.2401883e-03  -9.5812196e-04  -1.1555626e-03  -8.9561159e-04  -1.4723834e-03  -1.3147420e-03  -6.3205848e-04  -9.0585503e-04  -1.3639061e-03  -7.6065189e-04  -1.6463734e-03  -1.2185486e-03  -9.7087323e-04  -1.1962234e-03  -1.3036504e-03  -7.9121639e-04  -1.4128226e-03  -1.8051696e-03  -1.3102007e-03  -1.3256337e-03  -1.2123770e-03  -1.0076198e-03  -9.7591511e-04  -1.2160629e-03  -9.9200674e-04  -1.2549311e-03  -3.0481047e-04  -7.5440173e-04  -8.6398784e-04  -7.7698374e-04  -8.4201072e-04  -1.0101234e-03  -1.0189370e-03  -8.7941525e-04  -9.4272487e-04  -8.8039588e-04
  -1.2601875e-03  -4.8367796e-04  -5.5016723e-04  -7.4597984e-04  -4.5052721e-04  -7.3593069e-04  -5.8183650e-04  -7.8349182e-04  -7.3751109e-04  -5.3010084e-04  -5.8856147e-04  -2.0803473e-04  -1.2707937e-03  -1.1359570e-03  -1.0330699e-03  -7.8598876e-04  -9.4290101e-04  -7.6413254e-04  -9.4557740e-04  -9.1033848e-04  -8.0122612e-05  -3.9875781e-04  -9.3701121e-04  -3.3555966e-04  -1.1155497e-03  -5.5144774e-04  -8.0926804e-04  -9.1158849e-04  -1.0975318e-03  -4.8395633e-04  -1.1412918e-03  -1.5445824e-03  -6.2151806e-04  -7.1183214e-04  -9.0990105e-04  -4.8435506e-04  -6.2965025e-04  -9.2571334e-04  -5.7960657e-04  -8.2997320e-04  -9.7119497e-05  -6.6335528e-04  -7.0808333e-04  -5.8655650e-04  -7.0870714e-04  -8.5824332e-04  -9.7351044e-04  -9.0344448e-04  -9.6654292e-04  -8.2734425e-04
  -1.2997582e-03  -5.5488449e-04  -6.3545053e-04  -8.3932717e-04  -5.2029523e-04  -8.2285109e-04  -6.7466166e-04  -7.6704990e-04  -7.7983603e-04  -6.6782802e-04  -6.5352209e-04  -3.2944619e-04  -1.3211338e-03  -1.1361577e-03  -1.0539693e-03  -7.7477522e-04  -9.5951254e-04  -7.8102446e-04  -1.0535242e-03  -9.7389106e-04  -2.1723275e-04  -5.2130059e-04  -1.0598218e-03  -4.7692144e-04  -1.2785053e-03  -7.3502772e-04  -8.3589990e-04  -9.7465579e-04  -1.1361488e-03  -5.5940205e-04  -1.1976989e-03  -1.6004469e-03  -8.3583663e-04  -9.0669090e-04  -1.0129425e-03  -7.2259444e-04  -7.7288848e-04  -1.0646409e-03  -7.8798452e-04  -1.0963731e-03  -5.7857326e-04  -8.2411611e-04  -1.0129438e-03  -9.1121474e-04  -9.5054950e-04  -1.0323471e-03  -1.0739476e-03  -1.2196575e-03  -1.2184925e-03  -1.0156456e-03
  -1.8473587e-03  -1.0820531e-03  -1.2504270e-03  -1.4988026e-03  -9.2422636e-04  -1.1754413e-03  -1.1560734e-03  -1.0090172e-03  -1.1335192e-03  -1.0058074e-03  -9.8431809e-04  -6.4698496e-04  -1.5582739e-03  -1.3341884e-03  -1.2426976e-03  -9.3540375e-04  -1.1325224e-03  -8.9483475e-04  -1.4179074e-03  -1.2726476e-03  -5.4185948e-04  -8.3857501e-04  -1.3413784e-03  -7.1138237e-04  -1.6220097e-03  -1.1826479e-03  -9.7189168e-04  -1.1975827e-03  -1.3270420e-03  -7.8130723e-04  -1.4000298e-03  -1.8012299e-03  -1.2901073e-03  -1.3131353e-03  -1.2446097e-03  -1.1464871e-03  -1.0305895e-03  -1.3350045e-03  -1.1358277e-03  -1.5052567e-03  -9.5685339e-04  -9.6524018e-04  -1.2641335e-03  -1.1526369e-03  -1.0057569e-03  -1.1740127e-03  -1.0893221e-03  -1.1208617e-03  -1.0617542e-03  -9.5669803e-04
  -1.4569887e-03  -6.4936967e-04  -6.9763843e-04  -9.0182805e-04  -5.4246344e-04  -8.3554134e-04  -6.8647461e-04  -8.4060465e-04  -7.2709273e-04  -5.5650930e-04  -6.1570678e-04  -2.1379626e-04  -1.3124968e-03  -1.1872180e-03  -1.0960108e-03  -8.3497330e-04  -9.7544410e-04  -8.1696338e-04  -9.2142005e-04  -8.8912720e-04  -8.7845088e-05  -3.5956886e-04  -9.2003861e-04  -3.3981426e-04  -1.1574556e-03  -5.4840610e-04  -8.2078483e-04  -9.3124114e-04  -1.0986154e-03  -4.9346749e-04  -1.1478262e-03  -1.5565329e-03  -6.1252102e-04  -6.8893336e-04  -9.3802484e-04  -4.9642770e-04  -6.3137774e-04  -9.5536228e-04  -5.8724545e-04  -8.2140055e-04  -1.3915982e-04  -6.5656804e-04  -7.9886196e-04  -5.7469471e-04  -6.6125178e-04  -8.5164909e-04  -9.5656805e-04  -9.5101411e-04  -9.0963813e-04  -8.0446142e-04
  -1.2170480e-03  -4.4299447e-04  -5.8975327e-04  -7.8520767e-04  -4.9060717e-04  -7.9177046e-04  -6.3683174e-04  -7.6550693e-04  -6.8134139e-04  -6.3198659e-04  -5.9319875e-04  -2.7876112e-04  -1.2962820e-03  -1.1406428e-03  -1.0625329e-03  -7.7959697e-04  -9.4127207e-04  -7.8605791e-04  -9.4976067e-04  -9.1835990e-04  -1.8961119e-04  -4.3183702e-04  -9.9404494e-04  -4.4324945e-04  -1.2334844e-03  -6.6753180e-04  -8.3145313e-04  -9.7149663e-04  -1.1406594e-03  -5.3678907e-04  -1.1783795e-03  -1.5787812e-03  -7.6779682e-04  -8.1586553e-04  -9.9113979e-04  -6.7527971e-04  -7.2486233e-04  -1.0354199e-03  -7.4552401e-04  -9.7916264e-04  -4.5077089e-04  -8.2150218e-04  -9.5639681e-04  -8.0176390e-04  -8.6398481e-04  -9.6045603e-04  -1.0635317e-03  -1.1205242e-03  -1.1048721e-03  -1.0095703e-03
  -1.6844484e-03  -9.4552798e-04  -1.1281539e-03  -1.3618272e-03  -8.6278078e-04  -1.1006731e-03  -1.0765065e-03  -9.8699273e-04  -1.0334408e-03  -9.6782518e-04  -8.9176622e-04  -6.0641504e-04  -1.5243256e-03  -1.3110733e-03  -1.2325303e-03  -9.2986255e-04  -1.1057016e-03  -8.8981021e-04  -1.3275581e-03  -1.1875582e-03  -4.8366131e-04  -7.5455615e-04  -1.2873643e-03  -6.6760334e-04  -1.5431795e-03  -1.0782849e-03  -9.7039482e-04  -1.1584878e-03  -1.2955402e-03  -7.4910128e-04  -1.3621278e-03  -1.7756433e-03  -1.2107102e-03  -1.2176580e-03  -1.2174443e-03  -1.0600960e-03  -9.9180744e-04  -1.2936451e-03  -1.0999879e-03  -1.4024011e-03  -9.8734035e-04  -1.0980864e-03  -1.2786638e-03  -1.2243047e-03  -1.1940828e-03  -1.2360894e-03  -1.2119849e-03  -1.2931635e-03  -1.3425603e-03  -1.1174185e-03
  -1.8326842e-03  -9.7132096e-04  -1.0599263e-03  -1.2732978e-03  -7.6128735e-04  -9.8972162e-04  -8.9164369e-04  -9.9908235e-04  -7.9657719e-04  -6.3404738e-04  -6.6904625e-04  -2.9107393e-04  -1.3697421e-03  -1.2760009e-03  -1.1541785e-03  -9.1465580e-04  -1.0199547e-03  -8.5874670e-04  -9.2262379e-04  -8.5281016e-04  -1.1725296e-04  -4.0042819e-04  -9.6232205e-04  -3.9784377e-04  -1.1821814e-03  -5.8027112e-04  -8.6105650e-04  -9.7814377e-04  -1.1790647e-03  -5.3456699e-04  -1.1748882e-03  -1.5866132e-03  -6.6888670e-04  -6.8384683e-04  -9.6104399e-04  -4.9476093e-04  -6.4922939e-04  -1.0004711e-03  -5.9241283e-04  -7.8377273e-04  -1.0529708e-04  -7.7605626e-04  -7.4465561e-04  -5.8371050e-04  -8.3926634e-04  -8.8488759e-04  -9.9209719e-04  -8.6630834e-04  -9.3515194e-04  -8.3757180e-04
  -1.2328188e-03  -4.5219428e-04  -6.2713824e-04  -8.2374789e-04  -5.3897680e-04  -8.1414729e-04  -6.7532150e-04  -8.3539548e-04  -7.2184496e-04  -6.6867628e-04  -5.9048011e-04  -3.0138582e-04  -1.3127106e-03  -1.1989875e-03  -1.0821223e-03  -8.4065966e-04  -9.6352468e-04  -8.1603817e-04  -9.0590818e-04  -8.1765687e-04  -9.0537200e-05  -4.1918422e-04  -9.6710137e-04  -4.5383364e-04  -1.2219674e-03  -6.3316029e-04  -8.4982911e-04  -9.7410043e-04  -1.1606606e-03  -5.3331332e-04  -1.1731357e-03  -1.5994332e-03  -7.6190452e-04  -7.8639475e-04  -1.0020628e-03  -6.4556673e-04  -7.1402587e-04  -1.0566108e-03  -7.4227276e-04  -9.4121037e-04  -3.7539861e-04  -8.4164599e-04  -8.5722131e-04  -7.6658791e-04  -9.7353384e-04  -9.6020004e-04  -1.1028470e-03  -1.0440882e-03  -1.1583639e-03  -9.6646923e-04
  -1.5814854e-03  -7.7390391e-04  -1.0771658e-03  -1.2970275e-03  -8.5587398e-04  -1.0797175e-03  -1.0555875e-03  -1.0111706e-03  -1.0055848e-03  -9.8032248e-04  -8.4858673e-04  -6.0516328e-04  -1.5110391e-03  -1.3404526e-03  -1.2253439e-03  -9.6430734e-04  -1.1021082e-03  -9.0367085e-04  -1.2624302e-03  -1.0635331e-03  -4.0211744e-04  -7.2026404e-04  -1.2508248e-03  -6.5799954e-04  -1.5076089e-03  -1.0314700e-03  -9.5309381e-04  -1.1659599e-03  -1.3168578e-03  -7.3605753e-04  -1.3630860e-03  -1.7673575e-03  -1.1611255e-03  -1.1860831e-03  -1.2088965e-03  -1.0394220e-03  -9.8826049e-04  -1.2904725e-03  -1.0693754e-03  -1.3470863e-03  -9.2163956e-04  -1.0489548e-03  -1.2001264e-03  -1.1853154e-03  -1.2538945e-03  -1.2420884e-03  -1.2229542e-03  -1.2564829e-03  -1.3989981e-03  -1.0919482e-03
  -1.7835052e-03  -9.6510421e-04  -1.0849612e-03  -1.3097224e-03  -8.0113992e-04  -1.0061444e-03  -9.3620911e-04  -1.0346067e-03  -8.2128961e-04  -7.0004107e-04  -6.7118817e-04  -3.2731131e-04  -1.3733811e-03  -1.3072203e-03  -1.1635730e-03  -9.5153856e-04  -1.0416703e-03  -9.0438401e-04  -9.2698063e-04  -9.0989529e-04  -7.3404110e-05  -3.9962880e-04  -9.6226117e-04  -3.9395050e-04  -1.1761180e-03  -5.9735327e-04  -8.7307522e-04  -9.8957086e-04  -1.1982128e-03  -5.5378542e-04  -1.1819490e-03  -1.6070890e-03  -6.4329250e-04  -7.2842755e-04  -9.7740255e-04  -5.3365744e-04  -6.8269868e-04  -1.0452535e-03  -6.4373569e-04  -7.9421478e-04  -1.5619927e-04  -7.6468493e-04  -7.4519182e-04  -6.2123057e-04  -8.5626700e-04  -9.2751125e-04  -9.9428091e-04  -8.5577799e-04  -1.0225966e-03  -8.7310589e-04
  -1.2401519e-03  -4.9852283e-04  -6.6744722e-04  -8.6765044e-04  -5.8820337e-04  -8.3498121e-04  -7.2640210e-04  -8.8336907e-04  -7.7774795e-04  -7.4835547e-04  -6.1430805e-04  -3.5238653e-04  -1.3299729e-03  -1.2397058e-03  -1.1121766e-03  -8.8738190e-04  -9.8871277e-04  -8.5429178e-04  -9.3137583e-04  -8.7760406e-04  -1.5713980e-04  -4.3457336e-04  -9.9751749e-04  -4.6150573e-04  -1.2227435e-03  -6.5167865e-04  -8.5913000e-04  -1.0140362e-03  -1.1875746e-03  -5.6460302e-04  -1.1948729e-03  -1.6089885e-03  -7.9949986e-04  -8.1919512e-04  -1.0203682e-03  -6.6621898e-04  -7.5413252e-04  -1.0967939e-03  -7.4829930e-04  -9.5829228e-04  -4.0910236e-04  -8.1719703e-04  -8.7514572e-04  -7.8252674e-04  -9.9843298e-04  -9.9378615e-04  -1.0915552e-03  -1.0358077e-03  -1.1303250e-03  -9.6728321e-04
  -1.5574743e-03  -8.1208657e-04  -1.0756905e-03  -1.2985051e-03  -8.6331257e-04  -1.0826217e-03  -1.0633797e-03  -1.0265823e-03  -1.0441896e-03  -1.0508125e-03  -8.6813333e-04  -6.4215442e-04  -1.5172318e-03  -1.3676041e-03  -1.2271152e-03  -9.9621608e-04  -1.1206617e-03  -9.2893589e-04  -1.2247462e-03  -1.0542885e-03  -4.2308689e-04  -7.1378856e-04  -1.2723107e-03  -7.0762594e-04  -1.5294970e-03  -1.0331020e-03  -9.7398553e-04  -1.1872384e-03  -1.3458208e-03  -7.4880035e-04  -1.3721860e-03  -1.7774182e-03  -1.1852566e-03  -1.1901300e-03  -1.2265088e-03  -1.0666528e-03  -9.7606576e-04  -1.3164424e-03  -1.0812361e-03  -1.3462298e-03  -7.9196371e-04  -9.6817943e-04  -1.0819625e-03  -1.0406366e-03  -1.1334225e-03  -1.1670691e-03  -1.0613533e-03  -9.8080060e-04  -1.0772981e-03  -8.8852999e-04
  -1.2601443e-03  -4.9093162e-04  -6.2885962e-04  -8.2270801e-04  -5.4768042e-04  -7.8067888e-04  -6.6702528e-04  -8.8726921e-04  -7.0025952e-04  -6.9501280e-04  -5.5946229e-04  -2.9411467e-04  -1.3034405e-03  -1.2526988e-03  -1.0947727e-03  -9.1509998e-04  -9.7723573e-04  -8.5626915e-04  -8.3073450e-04  -7.7064324e-04  -6.7721208e-05  -3.2369708e-04  -9.0791925e-04  -3.5174735e-04  -1.1033361e-03  -5.0161913e-04  -8.4844336e-04  -9.4225683e-04  -1.1322339e-03  -4.9145077e-04  -1.1265586e-03  -1.5454100e-03  -6.4801838e-04  -6.3944230e-04  -9.2203205e-04  -4.7568828e-04  -6.3989399e-04  -9.9848362e-04  -6.0105114e-04  -7.5408298e-04  -9.4968484e-05  -6.6961074e-04  -6.0577574e-04  -5.3851824e-04  -8.2407048e-04  -8.4830966e-04  -9.0114621e-04  -7.2367536e-04  -9.4879896e-04  -8.1073766e-04
  -1.0546307e-03  -3.2679350e-04  -5.1414571e-04  -7.2042778e-04  -4.9595401e-04  -7.3134963e-04  -6.4421707e-04  -8.0108095e-04  -6.4676825e-04  -7.8143267e-04  -5.7174545e-04  -3.6925351e-04  -1.2862087e-03  -1.1968664e-03  -1.0653751e-03  -8.5348578e-04  -9.5176673e-04  -8.2331512e-04  -8.7184773e-04  -7.6324213e-04  -1.3675861e-04  -3.8839760e-04  -9.8269014e-04  -4.2470996e-04  -1.1813455e-03  -5.9292070e-04  -8.4737816e-04  -9.5887406e-04  -1.1359964e-03  -5.2553759e-04  -1.1542124e-03  -1.5711843e-03  -7.9338945e-04  -7.7747134e-04  -9.7089587e-04  -6.2202202e-04  -7.1729597e-04  -1.0562323e-03  -7.2606950e-04  -9.0828777e-04  -3.7436085e-04  -7.5234659e-04  -7.6732057e-04  -7.3015672e-04  -9.5056579e-04  -8.9179701e-04  -1.0065859e-03  -9.5636374e-04  -1.1362454e-03  -9.2182501e-04
  -1.4758604e-03  -7.6408446e-04  -1.0215209e-03  -1.2496174e-03  -8.2437001e-04  -1.0259949e-03  -1.0250774e-03  -9.8984304e-04  -9.8925037e-04  -1.1177349e-03  -8.6989265e-04  -6.8747095e-04  -1.4986421e-03  -1.3455203e-03  -1.2166930e-03  -9.6654578e-04  -1.0922811e-03  -8.9598488e-04  -1.1219439e-03  -9.7700499e-04  -3.5171202e-04  -6.4825307e-04  -1.1648849e-03  -5.9009792e-04  -1.3674902e-03  -8.7209966e-04  -8.7710429e-04  -1.0550994e-03  -1.1886903e-03  -6.4101390e-04  -1.1838657e-03  -1.6298052e-03  -7.7946059e-04  -7.7933964e-04  -9.5914165e-04  -4.7771545e-04  -6.8417029e-04  -9.8372402e-04  -6.0386810e-04  -7.1480806e-04   9.7774209e-05  -5.3250726e-04  -4.6385927e-04  -3.9171256e-04  -6.6786702e-04  -7.2786387e-04  -8.0044451e-04  -5.9341360e-04  -7.8158185e-04  -6.4257201e-04
  -7.7414402e-04  -1.2516334e-04  -2.2879727e-04  -4.1780152e-04  -2.8833692e-04  -5.3491531e-04  -4.0148289e-04  -6.6703849e-04  -5.2201131e-04  -6.7093561e-04  -4.2528601e-04  -2.4517535e-04  -1.1628502e-03  -1.0665755e-03  -9.6292724e-04  -7.5765845e-04  -8.4138970e-04  -7.2686363e-04  -6.5137097e-04  -5.9120177e-04   7.7555715e-06  -2.3282843e-04  -8.0654700e-04  -2.8212604e-04  -9.5450180e-04  -3.6369477e-04  -7.1158481e-04  -8.2671223e-04  -9.9126250e-04  -3.8018700e-04  -1.0035830e-03  -1.4036914e-03  -5.1121903e-04  -5.3360069e-04  -7.8917819e-04  -3.1211975e-04  -5.1654724e-04  -8.3679525e-04  -4.3466617e-04  -5.6902581e-04   8.7200489e-05  -4.6241784e-04  -3.7113004e-04  -3.3965689e-04  -6.4910937e-04  -6.2797515e-04  -7.3993817e-04  -5.3482607e-04  -8.0888555e-04  -6.1327231e-04
  -9.0144784e-04  -2.8158005e-04  -4.0573569e-04  -6.1015523e-04  -4.0690132e-04  -6.3671474e-04  -5.6288217e-04  -6.8310910e-04  -6.4148434e-04  -8.6814858e-04  -5.6143530e-04  -4.3109924e-04  -1.2373986e-03  -1.0887985e-03  -9.9736662e-04  -7.6011982e-04  -8.7207620e-04  -7.2966219e-04  -8.5090677e-04  -6.6796131e-04  -1.5602629e-04  -4.0050939e-04  -9.4518391e-04  -4.6130476e-04  -1.1247421e-03  -5.5974483e-04  -7.6061179e-04  -8.9275249e-04  -1.0491796e-03  -4.7212307e-04  -1.0762281e-03  -1.4722678e-03  -7.6976098e-04  -7.6455291e-04  -9.0539095e-04  -5.8748847e-04  -6.5866107e-04  -9.6165191e-04  -6.7833194e-04  -8.5809198e-04  -3.7990077e-04  -6.5900345e-04  -6.4507290e-04  -6.7353947e-04  -9.0423645e-04  -8.0749003e-04  -9.1864739e-04  -8.5108646e-04  -1.1073910e-03  -8.9652126e-04
  -1.4473258e-03  -8.4997632e-04  -9.8059326e-04  -1.2247000e-03  -7.7314151e-04  -9.7085058e-04  -9.9024095e-04  -8.9750421e-04  -9.1804052e-04  -1.0976329e-03  -8.4159343e-04  -6.4711459e-04  -1.3667675e-03  -1.2268487e-03  -1.1224104e-03  -8.5298950e-04  -9.7553205e-04  -7.9231488e-04  -7.9351920e-04  -6.7327305e-04  -7.9149984e-05  -3.4147373e-04  -8.3220168e-04  -3.7034214e-04  -9.6197810e-04  -3.9204000e-04  -7.1070204e-04  -8.2989805e-04  -9.7115862e-04  -3.9797442e-04  -9.6175546e-04  -1.3746518e-03  -4.2788897e-04  -4.5466938e-04  -7.2287273e-04  -2.0205950e-04  -4.5187341e-04  -7.3014857e-04  -3.3570430e-04  -4.1162956e-04   2.8885994e-04  -3.0864959e-04  -1.9370591e-04  -1.4584218e-04  -4.9062329e-04  -4.7640051e-04  -5.9717451e-04  -3.7608173e-04  -5.0739548e-04  -4.4525840e-04
  -5.1937019e-04   1.7466195e-05   1.1564574e-06  -1.5934330e-04  -9.8733544e-05  -3.6299488e-04  -2.1850105e-04  -4.7236134e-04  -4.0410869e-04  -6.8029173e-04  -3.3866850e-04  -2.3035108e-04  -1.0291794e-03  -8.9431577e-04  -8.2456204e-04  -5.9858651e-04  -7.1195950e-04  -6.0144532e-04  -5.0383800e-04  -3.8739489e-04   1.1362165e-04  -1.2100593e-04  -6.2464713e-04  -1.8443984e-04  -7.3392212e-04  -1.4808033e-04  -5.5870152e-04  -6.7525776e-04  -8.1441284e-04  -2.1558857e-04  -8.1698992e-04  -1.2249954e-03  -3.4812029e-04  -3.3827533e-04  -6.0266815e-04  -9.9505152e-05  -3.1976341e-04  -6.0189614e-04  -2.2726505e-04  -3.2331795e-04   2.4173979e-04  -2.6990395e-04  -1.1798176e-04  -1.5355572e-04  -4.2889541e-04  -4.0414094e-04  -5.6969112e-04  -2.7215760e-04  -5.8000372e-04  -4.7512079e-04
  -7.3284394e-04  -2.0307860e-04  -2.2821469e-04  -4.0742845e-04  -2.4148266e-04  -4.7142184e-04  -3.8020391e-04  -5.1430252e-04  -5.4796919e-04  -8.9114887e-04  -4.9632718e-04  -4.2041636e-04  -1.1125479e-03  -9.2223287e-04  -8.7036018e-04  -6.0943927e-04  -7.5235893e-04  -5.9899961e-04  -7.3454325e-04  -6.4277521e-04  -1.1854990e-04  -3.3225480e-04  -8.2824327e-04  -3.6135616e-04  -9.5396908e-04  -4.0575996e-04  -6.0614472e-04  -7.7915110e-04  -8.4189238e-04  -3.2787485e-04  -9.2549186e-04  -1.2982979e-03  -6.1942224e-04  -6.3161907e-04  -7.2608539e-04  -4.1641330e-04  -5.2300410e-04  -7.5756910e-04  -4.9180444e-04  -6.6214910e-04  -2.1138955e-04  -4.7160065e-04  -4.1466375e-04  -5.2663585e-04  -6.7051902e-04  -5.8860774e-04  -7.2145427e-04  -5.5139052e-04  -9.4407680e-04  -7.3121447e-04
  -1.2683850e-03  -7.6252286e-04  -7.9554511e-04  -9.9576614e-04  -6.1084627e-04  -7.9735328e-04  -7.9181179e-04  -7.2843808e-04  -8.9902611e-04  -1.2031798e-03  -8.0381177e-04  -7.0646004e-04  -1.3246660e-03  -1.1151780e-03  -1.0356799e-03  -7.4764143e-04  -9.1953401e-04  -7.0230215e-04  -9.5334114e-04  -8.1504852e-04  -3.1421619e-04  -5.3614134e-04  -9.6895761e-04  -4.3645379e-04  -1.0632429e-03  -5.8366451e-04  -6.4373796e-04  -8.4322586e-04  -8.9828373e-04  -4.1379355e-04  -9.2776271e-04  -1.3141157e-03  -4.7090929e-04  -5.1194045e-04  -6.7074440e-04  -1.6564668e-04  -4.2245947e-04  -6.3079165e-04  -2.6323559e-04  -3.3598585e-04   3.7101805e-04  -2.4070323e-04  -9.0034671e-05  -7.4091593e-05  -3.8638810e-04  -2.9502259e-04  -5.0593022e-04  -2.2623126e-04  -5.3849589e-04  -3.6591460e-04
  -4.3765709e-04   3.9575403e-05   1.3543422e-04   1.4784158e-05   5.9025453e-05  -2.2545618e-04  -3.2653727e-05  -3.1725393e-04  -3.3040706e-04  -6.5614330e-04  -2.6156008e-04  -1.6763782e-04  -9.1860333e-04  -7.4340141e-04  -7.0907263e-04  -4.5987044e-04  -6.1158848e-04  -4.9080048e-04  -4.5341393e-04  -3.4655229e-04   9.2490642e-05  -6.0780465e-05  -5.3106388e-04  -1.5703119e-04  -6.0582347e-04  -2.9282228e-05  -4.2871942e-04  -5.2917248e-04  -6.3163042e-04  -8.6374843e-05  -7.0624833e-04  -1.0561808e-03  -2.0431215e-04  -2.0423303e-04  -4.4362640e-04   4.7296617e-05  -1.6464293e-04  -4.0394938e-04  -4.6132023e-05  -9.3289680e-05   4.0031626e-04  -1.3886673e-04   6.0636007e-06   1.5476662e-05  -2.7036385e-04  -1.5245876e-04  -3.6380725e-04  -1.1514122e-04  -4.9585331e-04  -3.4654859e-04
  -5.4825895e-04  -5.3376443e-05  -2.5998546e-05  -1.5026960e-04  -5.2757947e-05  -2.8558497e-04  -1.5879392e-04  -3.0960291e-04  -4.4877097e-04  -8.5065240e-04  -3.7534788e-04  -3.4308110e-04  -9.6780539e-04  -7.3894602e-04  -7.2187075e-04  -4.3521103e-04  -6.3286728e-04  -4.6623824e-04  -5.8630126e-04  -5.2195374e-04  -1.5531042e-04  -2.3420772e-04  -6.9512281e-04  -2.6482655e-04  -7.3579774e-04  -2.4889960e-04  -4.2924826e-04  -6.0857512e-04  -6.4644677e-04  -1.5210011e-04  -7.8629976e-04  -1.1339148e-03  -5.0364551e-04  -4.4897597e-04  -5.5881351e-04  -2.1382893e-04  -3.3292372e-04  -5.3343904e-04  -2.7451225e-04  -4.3729832e-04  -7.9306577e-05  -3.1540784e-04  -2.8646947e-04  -3.6889684e-04  -5.2232802e-04  -3.7112128e-04  -5.1177660e-04  -4.1702070e-04  -8.0576242e-04  -5.8777450e-04
  -1.1102484e-03  -6.0431840e-04  -6.1863684e-04  -7.8144227e-04  -4.4833511e-04  -6.4115477e-04  -5.8607844e-04  -5.5567798e-04  -7.5335824e-04  -1.1829825e-03  -7.0379331e-04  -6.7465898e-04  -1.2093227e-03  -9.0279663e-04  -9.1810728e-04  -5.7884492e-04  -7.9765101e-04  -5.7127746e-04  -9.3139522e-04  -7.8387558e-04  -3.7509223e-04  -5.7225244e-04  -9.9331466e-04  -5.1064696e-04  -1.0876226e-03  -6.6605577e-04  -5.7195331e-04  -7.9936726e-04  -8.2260370e-04  -3.7222385e-04  -1.0030020e-03  -1.3371832e-03  -8.8594947e-04  -8.3714275e-04  -7.9084939e-04  -6.0966902e-04  -6.1099499e-04  -8.0319669e-04  -6.1760226e-04  -8.4060052e-04  -4.5284731e-04  -4.6647780e-04  -5.8459648e-04  -5.8925879e-04  -6.1170547e-04  -5.0682930e-04  -5.0199480e-04  -4.4311339e-04  -6.9320068e-04  -5.2378653e-04
  -7.2284404e-04  -2.5961068e-04  -1.0970651e-04  -1.9915937e-04  -7.1818504e-05  -3.0003962e-04  -1.2575784e-04  -3.6662823e-04  -3.6131145e-04  -7.6525961e-04  -3.5566895e-04  -2.8463136e-04  -9.6696935e-04  -7.5052324e-04  -7.5938692e-04  -4.6334838e-04  -6.4192392e-04  -4.9082830e-04  -4.6274674e-04  -4.6094230e-04   4.2118940e-05  -1.3808689e-04  -5.2945357e-04  -2.3436852e-04  -6.1180012e-04  -7.7126882e-05  -3.7349586e-04  -5.2073353e-04  -5.7979970e-04  -5.7448877e-05  -7.3452608e-04  -1.0281906e-03  -3.0227812e-04  -2.2493862e-04  -4.5164931e-04   1.1136825e-05  -1.7956972e-04  -4.0468617e-04  -4.8082748e-05  -1.5918998e-04   2.5548175e-04  -2.1606369e-04  -1.1639341e-04  -1.0342227e-04  -3.4303367e-04  -2.1465107e-04  -3.4701126e-04  -2.6915080e-04  -5.7468325e-04  -4.2246241e-04
