   1.6283523e-04  -2.7235350e-04   2.6896608e-04  -6.8543747e-04  -2.3554171e-04  -4.8837101e-04  -8.3900179e-04   2.8785647e-04  -4.4756304e-04   4.3089184e-04  -8.1084878e-04  -3.1128290e-04  -7.0500717e-04   7.5199438e-04  -4.1980058e-04  -5.1123054e-05  -5.1096891e-04  -7.1015215e-04  -9.4840245e-04  -5.4836296e-04  -6.3782214e-04  -1.0138449e-03  -6.9881411e-04   3.0368348e-04  -7.0075112e-05  -5.6180783e-04  -2.6912536e-04   1.7374045e-04  -4.4068423e-04   6.0056478e-05  -1.6841143e-03  -8.2949962e-04  -1.1258236e-03  -5.8806752e-04  -1.8424235e-04   3.5765249e-04  -5.8145448e-05  -5.4889597e-04  -2.0519675e-04  -5.2948663e-04  -5.1460136e-04  -3.1261018e-04   4.1928425e-04  -1.1897315e-03  -1.0879993e-04   1.1975826e-03   4.6225399e-04  -9.5445279e-04   2.2728920e-04   2.6638721e-04
  -3.0400156e-04  -7.2900607e-04  -2.8817376e-04  -1.2152359e-03  -6.0940592e-04  -8.1943261e-04  -1.2309988e-03   7.1605122e-05  -7.9874758e-04   8.1689352e-05  -1.0382083e-03  -6.2922994e-04  -9.0227567e-04   5.1341613e-04  -5.6510413e-04  -1.8657136e-04  -6.6588767e-04  -8.2059274e-04  -1.2592521e-03  -7.8418013e-04  -9.5501362e-04  -1.3204514e-03  -9.4341085e-04   1.3080509e-04  -3.0907377e-04  -9.0894796e-04  -3.5864094e-04  -2.2018030e-06  -5.6464504e-04  -1.3178903e-04  -1.7850411e-03  -9.0879324e-04  -1.3163574e-03  -7.6870021e-04  -2.4114878e-04   3.8480019e-04  -1.2548774e-04  -5.5155391e-04  -1.7595591e-04  -4.4816951e-04  -1.0510318e-04  -1.2267384e-04   6.5625145e-04  -9.5073017e-04   1.9199217e-05   1.3397288e-03   6.1683421e-04  -6.3709338e-04   5.8315456e-04   4.8154464e-04
   3.5241205e-04  -1.0857572e-04   4.2889177e-04  -4.9868081e-04  -1.1568862e-04  -3.8366098e-04  -7.0935610e-04   3.5153906e-04  -4.6116704e-04   5.1728287e-04  -7.4510399e-04  -2.2786355e-04  -6.4915977e-04   8.0346997e-04  -3.6546923e-04  -2.5640980e-05  -4.6661575e-04  -6.7480298e-04  -9.0734218e-04  -4.4659385e-04  -5.0765561e-04  -9.1226713e-04  -5.7030434e-04   3.6981874e-04   7.0228438e-05  -4.1662427e-04  -2.0890584e-04   2.5965885e-04  -3.1621839e-04   1.6351158e-04  -1.6137771e-03  -7.5717346e-04  -9.9611783e-04  -4.6614674e-04  -6.0318365e-05   5.5314403e-04   1.1482143e-04  -3.8111029e-04   2.3882041e-05  -2.1122221e-04  -1.9744186e-05  -3.9638962e-05   8.4021437e-04  -9.1538968e-04   2.6146143e-05   1.3339052e-03   6.2361849e-04  -5.9800653e-04   4.4045976e-04   4.6837452e-04
   1.6938413e-04  -2.0401747e-04   1.6496048e-04  -7.5662613e-04  -3.0255844e-04  -5.2724761e-04  -8.9919323e-04   2.3935497e-04  -6.4702024e-04   3.7849910e-04  -8.4507454e-04  -3.7083559e-04  -7.2810415e-04   6.8806362e-04  -4.1483634e-04  -7.5922049e-05  -5.4135948e-04  -7.0804346e-04  -1.0121770e-03  -5.7888112e-04  -7.4340275e-04  -1.0920633e-03  -6.7571353e-04   2.1950121e-04  -5.3948112e-05  -6.1928167e-04  -2.7536746e-04   1.7185908e-04  -3.4318049e-04   4.8015809e-05  -1.7097743e-03  -8.2960492e-04  -1.2180131e-03  -6.7724695e-04  -1.7370182e-04   2.5057228e-04  -8.5897998e-05  -5.1417213e-04  -2.5652145e-04  -5.2070536e-04  -5.0621369e-04  -2.0995966e-04   5.2599108e-04  -1.2673928e-03  -2.8847996e-04   1.0595729e-03   4.4127606e-04  -8.6799520e-04   4.3880991e-05   1.8175076e-04
  -4.4728821e-04  -9.0572843e-04  -5.1327853e-04  -1.4295940e-03  -7.5109926e-04  -8.9578022e-04  -1.3508736e-03  -3.8737773e-05  -9.7285165e-04   9.3101226e-05  -1.0834082e-03  -5.7376170e-04  -9.3429192e-04   4.0512669e-04  -5.9699273e-04  -2.3641709e-04  -7.2556589e-04  -8.2111039e-04  -1.1867358e-03  -7.4436795e-04  -7.1509281e-04  -1.2064482e-03  -6.6060858e-04   2.1858144e-04  -3.4878671e-05  -6.3565461e-04  -3.3255518e-04   1.9456423e-04  -3.2828949e-04   2.3703995e-05  -1.6899444e-03  -8.2967954e-04  -1.0936321e-03  -5.1605166e-04  -6.4161883e-05   5.3764699e-04   6.5889173e-05  -3.8364425e-04   8.8846937e-06  -1.2878599e-04   1.7534620e-04   2.5736290e-05   9.4145001e-04  -8.9405040e-04  -4.8067293e-05   1.2560536e-03   6.8210188e-04  -4.8381113e-04   4.1519327e-04   4.8617617e-04
   3.9927560e-04  -2.8691702e-06   3.9369252e-04  -5.0096138e-04  -1.6681019e-04  -3.5608702e-04  -7.0077635e-04   2.6939716e-04  -4.7870592e-04   5.4704712e-04  -6.9053378e-04  -1.5643836e-04  -6.5968343e-04   7.1797718e-04  -3.4615080e-04  -7.9083897e-05  -5.3971610e-04  -6.7124842e-04  -9.3847601e-04  -4.3875753e-04  -6.0802797e-04  -9.7531220e-04  -4.7864829e-04   3.4605336e-04   1.5160798e-04  -3.9034244e-04  -2.2894755e-04   3.2726431e-04  -2.2097802e-04   2.1009252e-04  -1.6138727e-03  -7.3132047e-04  -9.9285692e-04  -3.9012427e-04   1.1805727e-05   5.5774266e-04   1.3493479e-04  -3.1440813e-04   6.1892279e-05  -6.7967907e-05   1.3305305e-04   5.6117104e-05   1.0686044e-03  -9.5937774e-04  -3.2560865e-04   1.2369964e-03   5.9845479e-04  -4.2896665e-04   1.9906621e-04   4.5772590e-04
   9.2585891e-05  -2.5664803e-04   4.3774256e-05  -8.4062316e-04  -4.0780683e-04  -4.8186979e-04  -9.1795612e-04   1.3656403e-04  -7.7870820e-04   3.5567020e-04  -7.9261081e-04  -3.2449083e-04  -7.7969563e-04   5.6460960e-04  -4.2693733e-04  -1.6397894e-04  -6.5216934e-04  -6.9351261e-04  -1.2345050e-03  -6.2215194e-04  -7.6389749e-04  -1.2433669e-03  -6.1379746e-04   1.6222931e-04  -3.9128419e-05  -6.6329428e-04  -2.9648459e-04   2.6861599e-04  -2.7565987e-04   3.2358432e-05  -1.7379092e-03  -8.3963003e-04  -1.3904142e-03  -7.0298667e-04  -1.2436356e-04   1.5857912e-04  -1.1200342e-04  -5.0065311e-04  -3.0204482e-04  -4.6452583e-04  -4.4357305e-04  -1.4174513e-04   7.1118347e-04  -1.4290309e-03  -6.3126808e-04   7.5459020e-04   3.9200921e-04  -7.1075489e-04  -1.7332518e-04   7.9130274e-05
  -5.2976678e-04  -8.7971881e-04  -6.5513107e-04  -1.5762454e-03  -8.8508613e-04  -9.6144940e-04  -1.4351055e-03  -1.7409441e-04  -1.0669635e-03   2.0854386e-06  -1.0429256e-03  -6.3308934e-04  -1.0007902e-03   2.7432194e-04  -6.1363576e-04  -3.3964054e-04  -8.6973188e-04  -8.2212366e-04  -1.5081478e-03  -8.7438960e-04  -1.0333196e-03  -1.5311311e-03  -8.1836880e-04   5.9408554e-05  -2.5033875e-04  -9.7559456e-04  -4.1397975e-04   7.6799326e-05  -3.9042238e-04  -1.6340389e-04  -1.8212467e-03  -9.3362195e-04  -1.4460417e-03  -7.5465080e-04  -1.6752240e-04   2.9458728e-04  -1.2207156e-04  -4.9846130e-04  -1.8873205e-04  -2.4412306e-04   2.0570887e-04   9.2631424e-05   1.0876254e-03  -1.1233462e-03  -4.3191508e-04   9.1212580e-04   5.4962421e-04  -3.9559769e-04   1.2496888e-04   2.9669527e-04
   1.8461779e-04  -1.4250314e-04   1.5130074e-04  -7.2431559e-04  -3.5936898e-04  -4.5548755e-04  -8.1442611e-04   8.5931344e-05  -6.2568043e-04   4.5712054e-04  -7.1995729e-04  -2.1113615e-04  -7.6273590e-04   5.5285840e-04  -4.1244738e-04  -2.2561160e-04  -7.1761321e-04  -7.2134443e-04  -1.1121911e-03  -5.8458059e-04  -6.6209061e-04  -1.1403967e-03  -5.3218735e-04   3.0547054e-04   9.3550065e-05  -5.1074690e-04  -2.8477432e-04   2.8715437e-04  -2.5978641e-04   9.0450660e-05  -1.7164475e-03  -8.0118957e-04  -1.1668782e-03  -4.9436023e-04  -4.8856986e-05   4.2713122e-04   1.5021432e-06  -3.9310727e-04  -7.2989584e-05  -1.8209862e-04   7.1214614e-05   4.7738267e-05   1.0534707e-03  -1.1448191e-03  -4.1740382e-04   8.7731960e-04   5.5338367e-04  -4.8506504e-04   2.5413643e-05   2.3513532e-04
   1.1527981e-05  -3.5957003e-04  -8.6483065e-05  -9.6828339e-04  -5.1627058e-04  -6.1050837e-04  -1.0018642e-03   6.2806644e-06  -6.9450471e-04   2.7981304e-04  -7.9462584e-04  -3.4351781e-04  -8.3163561e-04   4.8242172e-04  -4.6918169e-04  -2.6201137e-04  -7.8303635e-04  -7.5715285e-04  -1.2365740e-03  -7.0503767e-04  -8.5458206e-04  -1.2922625e-03  -6.9253606e-04   1.8941185e-04  -1.0309891e-04  -7.4232690e-04  -3.5324474e-04   1.6790931e-04  -3.6603049e-04  -7.4665557e-05  -1.8184404e-03  -8.9201785e-04  -1.4552010e-03  -7.6083594e-04  -2.1165969e-04   7.8740348e-05  -2.4099089e-04  -5.6577229e-04  -4.0348188e-04  -5.7614787e-04  -5.4352370e-04  -1.4795703e-04   6.0827710e-04  -1.5129864e-03  -7.0041872e-04   5.9584336e-04   3.8080689e-04  -8.5015182e-04  -3.2468091e-04  -6.3515094e-05
  -5.6623074e-04  -9.3427161e-04  -7.2619721e-04  -1.6327570e-03  -9.4887539e-04  -1.0339323e-03  -1.4746283e-03  -2.4499517e-04  -1.0119200e-03  -4.6513676e-05  -1.0515273e-03  -6.4089708e-04  -1.0531271e-03   2.0419536e-04  -6.4937171e-04  -4.2038225e-04  -9.5666264e-04  -8.7038963e-04  -1.4649873e-03  -9.0291898e-04  -1.0171979e-03  -1.5042142e-03  -8.5253594e-04   1.0624497e-04  -2.3103684e-04  -9.4724941e-04  -4.3486783e-04   3.7726906e-05  -4.7870472e-04  -2.1526548e-04  -1.8648700e-03  -9.5466961e-04  -1.4041953e-03  -7.5083890e-04  -2.1524694e-04   2.7611584e-04  -2.1554895e-04  -5.2867935e-04  -2.4160698e-04  -3.2966762e-04   7.8748330e-05   8.0398800e-05   9.7511685e-04  -1.1743698e-03  -4.2579361e-04   8.0408982e-04   5.2067783e-04  -5.3182669e-04   1.2607517e-04   1.8607061e-04
   1.5145702e-04  -1.6923701e-04   9.1408059e-05  -7.8666309e-04  -4.0739475e-04  -5.5546960e-04  -8.9460966e-04   4.1966290e-05  -5.5439008e-04   3.5826900e-04  -7.3641312e-04  -2.4535941e-04  -7.9840381e-04   5.1686779e-04  -4.6067082e-04  -2.7227882e-04  -7.8693876e-04  -7.6894223e-04  -1.1310872e-03  -6.5535161e-04  -7.1112491e-04  -1.1719085e-03  -5.9326208e-04   3.0487296e-04   5.5079154e-06  -5.7247054e-04  -3.3475441e-04   2.0965208e-04  -3.4008885e-04  -5.8947517e-06  -1.7909604e-03  -8.5400062e-04  -1.1874601e-03  -5.5032258e-04  -1.2276863e-04   3.5568510e-04  -1.0837804e-04  -4.5688581e-04  -1.7237836e-04  -3.0348965e-04  -4.1822532e-05   6.3368265e-05   9.5969794e-04  -1.2134998e-03  -4.4671434e-04   7.4520335e-04   5.5591000e-04  -5.3157751e-04  -5.5260414e-05   1.7657204e-04
  -5.0043287e-05  -4.0592189e-04  -1.4325076e-04  -1.0318559e-03  -5.7407026e-04  -6.8894087e-04  -1.0531135e-03  -4.4732773e-05  -6.8176381e-04   1.9948087e-04  -8.1819011e-04  -3.7908703e-04  -8.8047556e-04   4.4143168e-04  -5.1603897e-04  -3.2423364e-04  -8.3373883e-04  -8.0448861e-04  -1.2738428e-03  -8.0096681e-04  -9.5580763e-04  -1.3412797e-03  -7.1650586e-04   1.3907276e-04  -1.4426421e-04  -8.0526457e-04  -4.2078272e-04   1.2620752e-04  -4.2442614e-04  -1.2849775e-04  -1.8918850e-03  -9.3692675e-04  -1.5042841e-03  -8.0003985e-04  -2.5741669e-04  -6.1740243e-06  -3.1016927e-04  -6.1081554e-04  -4.6497531e-04  -6.1813649e-04  -5.6768366e-04  -1.6279335e-04   6.5360096e-04  -1.5429403e-03  -8.1406638e-04   4.5358995e-04   3.6654132e-04  -7.5912115e-04  -4.4493275e-04  -5.6762594e-05
  -5.8900821e-04  -9.4919396e-04  -6.1268499e-04  -1.5481662e-03  -8.3397259e-04  -8.8198279e-04  -1.2988494e-03  -2.1242193e-04  -6.7007635e-04   3.4324871e-04  -8.3138677e-04  -2.5531196e-04  -8.7261922e-04   3.9374444e-04  -5.4629031e-04  -3.5558306e-04  -8.2745403e-04  -8.3001750e-04  -1.0744440e-03  -6.7132508e-04  -7.1418227e-04  -1.1625547e-03  -5.0944841e-04   3.2868976e-04   1.1473454e-04  -4.9500732e-04  -3.7125152e-04   2.3102660e-04  -3.1326726e-04   3.1532665e-05  -1.7838808e-03  -8.1849337e-04  -1.1455773e-03  -4.2013353e-04  -6.6531749e-05   4.2550243e-04  -5.7696183e-05  -3.9537184e-04  -6.2516890e-05  -7.9184530e-05   1.9672154e-04   1.6456190e-04   1.1885926e-03  -1.0710364e-03  -4.2656888e-04   8.2833553e-04   6.1907468e-04  -3.7664521e-04   3.3706940e-05   2.7358287e-04
   1.4394491e-04  -2.1559856e-04   1.0586637e-04  -7.9875131e-04  -4.0288680e-04  -5.1411317e-04  -8.4892148e-04   4.1770625e-05  -5.6011399e-04   3.6634741e-04  -6.9621386e-04  -2.1456760e-04  -8.0020120e-04   5.3002208e-04  -4.4423027e-04  -2.8063185e-04  -7.6495542e-04  -7.6443690e-04  -1.0724686e-03  -6.6198147e-04  -7.9978094e-04  -1.1688772e-03  -5.2490470e-04   3.4070143e-04   8.8280583e-05  -5.3484412e-04  -3.3428665e-04   2.4888435e-04  -3.0908658e-04   2.6531423e-05  -1.8033237e-03  -8.0390158e-04  -1.2605374e-03  -5.0310814e-04  -1.0758816e-04   3.3215512e-04  -1.3678020e-04  -4.4804261e-04  -1.8292270e-04  -2.6691137e-04  -8.6635926e-05   6.2632869e-05   1.0362169e-03  -1.2097178e-03  -4.9897999e-04   7.0282712e-04   5.5149937e-04  -4.3499868e-04  -1.0517844e-04   1.1657509e-04
  -1.7800309e-04  -5.2351394e-04  -2.5924653e-04  -1.1916849e-03  -6.5354281e-04  -7.9010817e-04  -1.1395392e-03  -9.2400085e-05  -7.5810507e-04   8.8800211e-05  -8.7452907e-04  -4.7790614e-04  -9.4426825e-04   3.8271287e-04  -5.4393295e-04  -3.5836725e-04  -8.6704368e-04  -8.3435845e-04  -1.3074930e-03  -8.6034252e-04  -1.0344610e-03  -1.4492718e-03  -7.4417610e-04   1.1459443e-04  -2.0530894e-04  -9.1257162e-04  -4.5079374e-04   8.8275221e-05  -4.8626383e-04  -2.0404461e-04  -1.9677032e-03  -9.3505019e-04  -1.7282703e-03  -8.7649748e-04  -3.1328000e-04  -1.0123839e-04  -4.4285570e-04  -6.8452163e-04  -5.6895608e-04  -7.4649852e-04  -4.6350298e-04   8.9330833e-06   8.2522695e-04  -1.4439595e-03  -5.5277382e-04   5.8268668e-04   6.0131820e-04  -4.3622777e-04   1.1799319e-04   2.5242128e-04
   1.9538094e-04  -1.8832339e-04   2.3236738e-04  -7.4270897e-04  -2.8678172e-04  -4.6671182e-04  -7.5142382e-04   8.2965205e-05  -4.8073856e-04   4.3800290e-04  -6.5684121e-04  -1.5848638e-04  -7.6713390e-04   5.7960296e-04  -4.2292342e-04  -2.6597519e-04  -7.1158860e-04  -7.5971079e-04  -9.5079438e-04  -6.3859427e-04  -6.2395551e-04  -1.0399316e-03  -4.3906402e-04   4.0472197e-04   1.8017124e-04  -3.9272511e-04  -3.2169963e-04   3.0618915e-04  -3.2257399e-04   8.2125865e-05  -1.7723397e-03  -7.4087892e-04  -1.1706043e-03  -3.4177586e-04  -3.3418808e-05   5.1108381e-04  -5.9222191e-05  -3.8944680e-04  -3.9284230e-05  -9.7618460e-05   1.9019697e-04   2.7236313e-04   1.2807035e-03  -1.0130013e-03  -3.6411858e-04   8.6071657e-04   6.8278692e-04  -2.1750486e-04   1.2854222e-04   3.8574266e-04
   3.1988265e-04  -1.1700729e-04   2.3916247e-04  -7.5302267e-04  -3.0237628e-04  -4.7536232e-04  -7.6890091e-04   1.0566322e-04  -5.3720811e-04   3.2324970e-04  -6.7904464e-04  -2.4116354e-04  -7.7597314e-04   5.7966122e-04  -4.1493415e-04  -2.4967585e-04  -7.1825227e-04  -7.4362278e-04  -1.0355832e-03  -6.1123370e-04  -7.6810381e-04  -1.1708223e-03  -5.2586175e-04   3.0611811e-04   9.6957338e-05  -5.3044583e-04  -3.2598752e-04   2.6740547e-04  -3.6304607e-04   1.0723740e-05  -1.8148379e-03  -7.7758927e-04  -1.3325994e-03  -5.0096877e-04  -9.2654715e-05   2.9898304e-04  -1.7800098e-04  -4.5641381e-04  -2.1110095e-04  -3.0018759e-04  -1.3824839e-04   1.0715843e-04   1.1052695e-03  -1.2198851e-03  -5.6385400e-04   6.6425261e-04   5.4623606e-04  -3.4178564e-04  -1.0900534e-04   2.0205574e-04
  -1.8788911e-04  -6.7744969e-04  -3.6217296e-04  -1.3391194e-03  -7.0105598e-04  -8.2913000e-04  -1.1953119e-03  -1.2638136e-04  -8.7465812e-04  -1.8091698e-05  -9.2565210e-04  -5.4649508e-04  -9.9014805e-04   3.2441627e-04  -5.7128252e-04  -3.9419063e-04  -8.8964286e-04  -8.5473113e-04  -1.3754811e-03  -9.1559370e-04  -1.1016165e-03  -1.4974988e-03  -7.8614708e-04   9.3940544e-05  -1.9103542e-04  -9.0365816e-04  -4.4543800e-04   9.1896618e-05  -4.4834684e-04  -1.9078139e-04  -1.9080559e-03  -8.8175567e-04  -1.5302517e-03  -6.9160719e-04  -1.6122777e-04   2.7295545e-04  -2.7766355e-04  -5.0358236e-04  -2.3562480e-04  -2.4264674e-04   2.9333381e-04   3.2019487e-04   1.3470796e-03  -1.0103032e-03  -3.3494204e-04   8.3787751e-04   7.4333645e-04  -1.2386389e-04   2.0983467e-04   4.7921229e-04
   4.8993289e-04  -7.4014974e-06   4.1618236e-04  -5.7336799e-04  -1.7780568e-04  -3.6243431e-04  -6.2265631e-04   1.6237608e-04  -4.6464903e-04   4.0943144e-04  -6.1256840e-04  -1.5563810e-04  -7.1792171e-04   6.4448453e-04  -3.6552048e-04  -2.1596288e-04  -6.8314100e-04  -7.1120937e-04  -9.3491992e-04  -6.3565257e-04  -6.9739512e-04  -1.0693033e-03  -4.2714586e-04   4.2106624e-04   2.2296373e-04  -3.7874671e-04  -2.9073062e-04   3.4493004e-04  -2.5989857e-04   8.9313246e-05  -1.7467529e-03  -6.8916782e-04  -1.1971917e-03  -3.1466494e-04   1.5829235e-05   5.1667826e-04  -5.8267473e-05  -3.3435429e-04  -3.6077174e-05  -5.9930615e-05   2.6557458e-04   3.5578673e-04   1.4300279e-03  -9.6036593e-04  -3.2559442e-04   8.5786497e-04   7.2869274e-04  -1.2093253e-04   1.8808209e-04   4.0632644e-04
   3.0620236e-04  -1.9863826e-04   1.8260867e-04  -8.0865325e-04  -3.5165422e-04  -5.0300721e-04  -8.0282014e-04   1.0494905e-04  -5.6255650e-04   2.1810435e-04  -7.0817786e-04  -3.2676561e-04  -7.9440034e-04   5.6315307e-04  -4.1406826e-04  -2.3539280e-04  -7.3430390e-04  -7.1293418e-04  -1.0855109e-03  -6.8986928e-04  -8.2642812e-04  -1.2482119e-03  -5.6093006e-04   2.8553378e-04   4.5237597e-05  -6.0160039e-04  -3.1331103e-04   2.4496100e-04  -3.4596567e-04  -3.1819043e-05  -1.8154606e-03  -7.4085913e-04  -1.4192249e-03  -5.3582701e-04  -1.0715688e-04   1.9421990e-04  -2.4120604e-04  -5.0211477e-04  -3.1219155e-04  -3.9965331e-04  -2.5736802e-04   1.1553779e-04   1.0712510e-03  -1.3133384e-03  -6.1041542e-04   5.9099070e-04   5.5079034e-04  -4.1035953e-04  -2.1171414e-04   1.9493877e-04
  -3.1624787e-04  -8.1832422e-04  -5.0291675e-04  -1.5060749e-03  -7.9962926e-04  -9.1313221e-04  -1.2918526e-03  -1.6921757e-04  -9.1675378e-04  -4.8292062e-05  -9.7900908e-04  -5.8026524e-04  -9.8179746e-04   3.1486788e-04  -5.8550260e-04  -3.6915659e-04  -8.9580973e-04  -7.9289399e-04  -1.1520964e-03  -7.6407794e-04  -8.1154378e-04  -1.3038971e-03  -5.8364990e-04   3.0115258e-04   4.2632193e-05  -6.0023199e-04  -3.4298192e-04   2.1813120e-04  -3.7769033e-04  -7.4212709e-05  -1.7906404e-03  -7.3115242e-04  -1.2165968e-03  -3.8263213e-04  -4.6625752e-05   4.7066616e-04  -1.2531063e-04  -4.2484424e-04  -7.9083737e-05  -8.5159118e-05   3.0706666e-04   3.3783269e-04   1.4050816e-03  -9.6322183e-04  -3.5427301e-04   8.2896778e-04   7.4752868e-04  -8.4950814e-05   2.6453039e-04   4.3073727e-04
   3.9954920e-04  -9.3502618e-05   3.1074599e-04  -6.9203868e-04  -2.7429109e-04  -4.4488386e-04  -7.2666968e-04   1.1799678e-04  -4.9701746e-04   2.7466632e-04  -6.7090133e-04  -2.7605260e-04  -7.5988279e-04   6.0894137e-04  -3.9154600e-04  -2.0500155e-04  -7.1386038e-04  -6.8930653e-04  -9.9381967e-04  -6.3114369e-04  -7.0979190e-04  -1.1389006e-03  -4.6336467e-04   3.6348170e-04   1.6308513e-04  -4.5557818e-04  -2.7764915e-04   2.9706748e-04  -2.1563780e-04   3.9682789e-05  -1.7298996e-03  -6.7664013e-04  -1.2120128e-03  -3.5107438e-04  -1.8946057e-05   4.5077980e-04  -1.0492292e-04  -4.0607873e-04  -1.3115341e-04  -1.0837957e-04   1.5715501e-04   2.8589799e-04   1.3689896e-03  -1.0460357e-03  -4.4033304e-04   7.6811283e-04   6.6654076e-04  -1.0068721e-04   1.3897035e-04   3.5151828e-04
   1.1301225e-04  -4.1596888e-04  -8.5631900e-06  -1.0019926e-03  -4.7874206e-04  -6.1612763e-04  -9.2648208e-04   1.0890513e-05  -7.6579920e-04   6.4976819e-05  -8.2848722e-04  -4.6087324e-04  -8.7106152e-04   4.7570487e-04  -4.5253185e-04  -2.8119373e-04  -8.0257951e-04  -7.2667794e-04  -1.1718451e-03  -8.0326275e-04  -9.4666809e-04  -1.3851789e-03  -6.5452250e-04   1.5683100e-04  -6.5148190e-05  -7.0453930e-04  -3.5145614e-04   1.9627459e-04  -3.8795674e-04  -1.1481126e-04  -1.8403364e-03  -7.9472642e-04  -1.5555769e-03  -6.6314620e-04  -1.7312642e-04   8.2218212e-05  -3.2837209e-04  -5.8356457e-04  -4.4132469e-04  -4.9347861e-04  -3.7274283e-04   5.8787231e-05   1.0348551e-03  -1.4178664e-03  -6.9798308e-04   5.4122764e-04   5.0463405e-04  -3.8798651e-04  -7.5297903e-05   2.2778205e-04
  -1.6766204e-04  -6.5323897e-04  -1.2685629e-04  -1.1039383e-03  -4.6659255e-04  -5.7052681e-04  -8.7923487e-04  -3.5979256e-06  -5.7677348e-04   3.2410046e-04  -7.3187106e-04  -2.3188276e-04  -7.6286035e-04   5.7631865e-04  -4.0717178e-04  -2.4811135e-04  -7.3221500e-04  -7.0506212e-04  -9.0467639e-04  -5.5265799e-04  -6.5211637e-04  -1.0883093e-03  -4.4629042e-04   3.4606393e-04   2.4178044e-04  -3.5130585e-04  -2.7588144e-04   3.4674662e-04  -2.4641302e-04   7.8252007e-05  -1.6883726e-03  -6.1033235e-04  -1.0724234e-03  -2.1843481e-04   2.2310554e-05   5.5624719e-04  -4.6277371e-05  -3.3011107e-04  -3.7234875e-06   1.9768931e-05   3.6251420e-04   4.1831029e-04   1.5283478e-03  -9.4027980e-04  -4.1493980e-04   8.7359938e-04   7.3834090e-04  -4.9780792e-05   2.0604332e-04   4.9266918e-04
   3.7272161e-04  -1.9114418e-04   3.2180754e-04  -6.6784816e-04  -2.3761133e-04  -4.1243847e-04  -6.8245933e-04   1.5677483e-04  -5.3766649e-04   2.7062211e-04  -6.7678647e-04  -2.4698192e-04  -7.1168417e-04   6.4570771e-04  -3.4014790e-04  -1.7246352e-04  -6.9032528e-04  -6.3045672e-04  -9.3899452e-04  -5.8011210e-04  -7.5824646e-04  -1.1288685e-03  -4.9614231e-04   3.5627157e-04   1.7916790e-04  -4.3645143e-04  -2.5171935e-04   3.3710443e-04  -2.0841752e-04   3.6841389e-05  -1.7053279e-03  -6.1490253e-04  -1.1741419e-03  -3.2642821e-04  -1.1028511e-05   4.2281463e-04  -1.4564759e-04  -4.0267920e-04  -1.6100146e-04  -1.7656438e-04   4.7362482e-05   3.4882763e-04   1.3159745e-03  -1.0770335e-03  -4.8445538e-04   7.9613563e-04   6.9764076e-04  -1.3482923e-04   9.7856304e-05   3.5266936e-04
   2.7157099e-05  -5.2471040e-04  -1.0877995e-04  -1.0918077e-03  -5.2737951e-04  -6.8531546e-04  -9.7756158e-04   2.5927511e-05  -7.4491609e-04  -4.0023449e-05  -8.7349134e-04  -5.1871553e-04  -8.6630427e-04   4.6306395e-04  -4.7437972e-04  -2.5850674e-04  -7.9958729e-04  -7.1348058e-04  -1.2136764e-03  -8.1940152e-04  -1.0464072e-03  -1.4198126e-03  -7.1756373e-04   1.8795695e-04  -7.7418183e-05  -7.9585187e-04  -3.5791428e-04   1.4911270e-04  -4.0005473e-04  -1.6910332e-04  -1.8022442e-03  -7.0290040e-04  -1.4076720e-03  -5.6427048e-04  -9.8513621e-05   3.2130897e-04  -2.7542052e-04  -4.3855782e-04  -2.1168885e-04  -1.6165945e-04   3.6790044e-04   4.6358380e-04   1.4973538e-03  -8.9265197e-04  -2.7949363e-04   9.5202914e-04   8.6767087e-04   4.8556230e-05   4.1100619e-04   6.0854526e-04
   6.6747249e-04   7.9044010e-05   6.0408562e-04  -3.9416767e-04  -1.7107131e-05  -2.4034934e-04  -4.5875533e-04   2.9817485e-04  -4.0031926e-04   3.4345267e-04  -5.7906908e-04  -1.6242536e-04  -6.0607441e-04   7.8918086e-04  -2.6537233e-04  -6.2448154e-05  -5.7635881e-04  -5.7133095e-04  -7.9753081e-04  -4.3723991e-04  -6.1905279e-04  -1.0055837e-03  -3.6389433e-04   4.4298643e-04   3.2863911e-04  -2.9676012e-04  -1.6524075e-04   4.1820534e-04  -1.4758128e-04   1.2478082e-04  -1.5976187e-03  -4.9056584e-04  -1.0017776e-03  -1.6028353e-04   1.1056376e-04   6.2518427e-04  -2.8240816e-05  -2.5097674e-04   4.1337033e-05   6.4343185e-05   4.1085825e-04   4.9524417e-04   1.6233303e-03  -8.2331902e-04  -2.3877886e-04   1.0544511e-03   8.5285981e-04   7.8733901e-05   4.0424848e-04   5.6853733e-04
   5.0346978e-04  -1.1682502e-04   3.9436310e-04  -6.0518034e-04  -1.7246703e-04  -3.8609633e-04  -6.3034671e-04   2.6171876e-04  -5.3325738e-04   1.4530410e-04  -6.8304618e-04  -3.3060112e-04  -6.6004251e-04   7.2739902e-04  -2.9298416e-04  -6.0024129e-05  -6.0890953e-04  -5.7210331e-04  -9.3097397e-04  -5.9817539e-04  -8.5191621e-04  -1.1602247e-03  -5.1867130e-04   2.8095327e-04   1.5538599e-04  -4.8862339e-04  -1.9729463e-04   3.2337211e-04  -1.8297839e-04   1.7075612e-05  -1.6564375e-03  -5.2033964e-04  -1.2474733e-03  -3.6826104e-04  -1.7424849e-06   3.8140884e-04  -1.8724789e-04  -3.8362961e-04  -2.2956752e-04  -2.5799341e-04  -7.7703466e-05   2.7673258e-04   1.2675413e-03  -1.1460206e-03  -4.7146805e-04   8.3260343e-04   6.6605245e-04  -1.8746857e-04   1.4053995e-04   3.7340910e-04
  -9.1779257e-05  -6.9935503e-04  -2.6936395e-04  -1.2626757e-03  -5.8223068e-04  -7.4299658e-04  -1.0529167e-03   2.1194803e-05  -7.0507941e-04   1.1099371e-04  -8.3017687e-04  -3.7114057e-04  -7.0708635e-04   6.0570112e-04  -3.8783540e-04  -1.1947606e-04  -6.4564619e-04  -6.1880192e-04  -7.9548452e-04  -5.2573776e-04  -5.7010236e-04  -1.0380142e-03  -3.9035582e-04   4.6023613e-04   3.1799285e-04  -2.6866904e-04  -1.5453302e-04   4.2184099e-04  -1.4365032e-04   1.1716245e-04  -1.5515485e-03  -4.0203752e-04  -8.7730598e-04  -4.4708948e-05   1.4329240e-04   7.4488105e-04   1.4318187e-05  -1.7497128e-04   1.2939917e-04   2.1061656e-04   5.8445591e-04   5.7966815e-04   1.7111587e-03  -6.7610753e-04  -8.7342465e-05   1.2447700e-03   9.1262802e-04   2.4568805e-04   6.3558778e-04   8.0324587e-04
   7.8536331e-04   1.0370924e-04   6.4054865e-04  -3.5206423e-04   2.7028096e-05  -2.2635017e-04  -4.2371344e-04   3.9907143e-04  -3.6058857e-04   2.6819759e-04  -5.7311245e-04  -2.0612561e-04  -5.2675966e-04   8.7637949e-04  -2.0113887e-04   6.0854200e-05  -4.7112038e-04  -4.7344563e-04  -7.0666434e-04  -3.9053531e-04  -5.6373700e-04  -9.6669281e-04  -3.4118968e-04   4.4949530e-04   3.6592598e-04  -2.2922327e-04  -7.8863275e-05   4.6639709e-04  -4.9425205e-05   1.8748458e-04  -1.4870011e-03  -3.3833066e-04  -9.6839078e-04  -7.9080688e-05   1.8786665e-04   7.1027700e-04   2.8815039e-05  -1.4782812e-04   9.3364426e-05   1.4881365e-04   4.3258027e-04   5.7053083e-04   1.6817638e-03  -7.7880610e-04  -2.2824193e-04   1.1926829e-03   8.5700589e-04   2.3542509e-04   4.7820667e-04   7.1472529e-04
   4.5378116e-04  -2.1211285e-04   2.8426986e-04  -7.0139108e-04  -2.1204275e-04  -3.9495123e-04  -6.7367754e-04   2.7253275e-04  -6.5039389e-04   1.0853415e-05  -7.3970528e-04  -4.2797212e-04  -6.6001597e-04   7.1292790e-04  -2.8035781e-04  -1.6364738e-05  -5.6362472e-04  -5.2901974e-04  -9.6942612e-04  -5.9511454e-04  -9.2088536e-04  -1.2371044e-03  -5.4383976e-04   2.6082961e-04   1.3717078e-04  -5.2812847e-04  -2.0206757e-04   3.5706430e-04  -1.0006073e-04   1.7758986e-05  -1.6202661e-03  -4.6788019e-04  -1.2517731e-03  -4.1392096e-04   1.2833836e-05   3.2277111e-04  -2.0651078e-04  -3.3601487e-04  -2.4149094e-04  -2.3718219e-04  -8.9627378e-05   2.9203607e-04   1.3075713e-03  -1.1664621e-03  -5.5739674e-04   9.1059349e-04   6.5647048e-04  -4.8438174e-05   2.4063980e-04   6.0065428e-04
   9.6165277e-05  -4.9966009e-04   9.4001669e-05  -8.8224752e-04  -2.4141703e-04  -3.8367233e-04  -6.6152232e-04   2.1727246e-04  -5.4074958e-04   2.6800003e-04  -6.4821122e-04  -2.3552678e-04  -5.6705670e-04   7.8777695e-04  -2.4942015e-04   8.2946635e-06  -4.9183198e-04  -4.8668514e-04  -6.7161850e-04  -3.9789293e-04  -5.7371461e-04  -9.6196349e-04  -2.9804360e-04   4.6764812e-04   4.8148891e-04  -1.5264901e-04  -7.6700242e-05   5.4546626e-04   1.2127194e-05   2.3603320e-04  -1.4361269e-03  -2.7314932e-04  -8.3781482e-04   2.7049391e-05   2.5026515e-04   8.2205056e-04   1.0344886e-04  -3.8154398e-05   2.3287279e-04   3.5877249e-04   6.9751753e-04   6.1999174e-04   1.8269275e-03  -6.7805283e-04  -1.6668845e-04   1.3068940e-03   9.4495690e-04   3.1006944e-04   7.0219242e-04   8.5618650e-04
   7.1817363e-04   5.5354918e-05   5.8634765e-04  -3.9478514e-04   1.3486412e-05  -2.4082237e-04  -4.4373819e-04   4.0594095e-04  -4.2644856e-04   2.1188754e-04  -6.0025736e-04  -3.0566801e-04  -5.0571613e-04   8.7385316e-04  -1.7576748e-04   1.1160996e-04  -4.5269728e-04  -4.2634926e-04  -6.8122672e-04  -4.4893564e-04  -6.4348115e-04  -9.9099940e-04  -4.0342618e-04   4.1252177e-04   3.6198777e-04  -2.4996858e-04  -1.9241765e-05   4.8957649e-04   1.3738982e-05   1.4954471e-04  -1.4620273e-03  -2.5184633e-04  -9.4603305e-04  -1.2301251e-04   1.7716947e-04   6.8311091e-04  -1.4059496e-05  -1.1711873e-04   4.3409058e-05   4.7965368e-05   3.0667355e-04   4.5918798e-04   1.5296333e-03  -8.7712437e-04  -2.4944777e-04   1.2105549e-03   8.1915659e-04   6.9155081e-05   5.2784785e-04   6.9240038e-04
   3.1437847e-04  -3.7813929e-04   1.0739487e-04  -8.6681877e-04  -3.0950533e-04  -5.4074900e-04  -8.0037821e-04   2.5331936e-04  -6.8072946e-04  -1.1010622e-04  -8.1269990e-04  -6.2705827e-04  -6.8105210e-04   6.8147870e-04  -3.0985492e-04   2.7525502e-05  -5.6327489e-04  -4.9010251e-04  -9.7561564e-04  -6.3254416e-04  -9.5497980e-04  -1.2956053e-03  -6.8723719e-04   1.7706279e-04   1.2425687e-05  -6.6770398e-04  -1.3723783e-04   2.5831803e-04  -1.8370373e-04  -1.0943784e-04  -1.6303821e-03  -3.9688821e-04  -1.4108118e-03  -5.2468095e-04  -7.6902841e-05   2.0933797e-04  -3.5225853e-04  -3.7937317e-04  -3.9924428e-04  -5.2461290e-04  -3.8833602e-04   1.8315006e-04   9.7075122e-04  -1.3275589e-03  -4.2271023e-04   8.6689449e-04   7.4629299e-04  -1.7454082e-04   4.9895589e-04   6.0127518e-04
   2.7900664e-04  -3.9398076e-04   2.9946055e-04  -6.7604874e-04  -1.2798622e-04  -3.8955014e-04  -5.7699520e-04   3.4136834e-04  -4.2149675e-04   1.9088466e-04  -6.6148705e-04  -3.4999548e-04  -5.3137471e-04   8.4915792e-04  -2.5381727e-04   1.1613945e-04  -4.4537519e-04  -4.6221117e-04  -6.6823274e-04  -4.2655549e-04  -6.1839283e-04  -9.6520537e-04  -4.5425864e-04   4.2831429e-04   3.3835793e-04  -2.6830734e-04  -2.8217077e-05   4.2208954e-04  -5.7252131e-05   9.7448326e-05  -1.4700886e-03  -2.2003127e-04  -8.8322838e-04  -1.0053715e-04   1.2498174e-04   7.2439964e-04  -5.0037648e-05  -1.0902032e-04   3.3932429e-05  -3.5031782e-05   2.6260348e-04   4.5077395e-04   1.3332634e-03  -8.5137406e-04   8.4937432e-07   1.2770942e-03   9.2398212e-04  -1.0413457e-04   7.7383040e-04   6.9716794e-04
   6.0192985e-04  -1.3604846e-04   4.7767983e-04  -5.1454228e-04  -6.0114035e-05  -3.9551873e-04  -5.3841993e-04   4.4856453e-04  -2.7259317e-04   5.5523815e-05  -6.5767439e-04  -4.5882366e-04  -5.2814418e-04   8.8249013e-04  -2.3936032e-04   1.9178042e-04  -4.0463687e-04  -4.3780019e-04  -6.6460948e-04  -4.1781849e-04  -7.2662882e-04  -1.0255411e-03  -5.5581302e-04   3.4592938e-04   2.1841233e-04  -4.1377000e-04  -2.5304063e-05   3.4495589e-04  -1.0725849e-04   1.2322233e-05  -1.5060273e-03  -2.4971023e-04  -1.0468896e-03  -2.7221121e-04   3.3556571e-05   5.6998612e-04  -2.0048259e-04  -2.1208012e-04  -1.5046529e-04  -2.8817216e-04  -7.3167721e-05   1.9770014e-04   1.0523781e-03  -1.0272083e-03  -5.2752646e-05   1.2459107e-03   7.6353137e-04  -3.3808115e-04   6.0744531e-04   6.3830742e-04
   1.5017205e-04  -5.4376293e-04  -2.6148491e-05  -9.8676758e-04  -4.0208863e-04  -6.9999677e-04  -9.1344863e-04   2.8546131e-04  -6.6907040e-04  -3.0521129e-04  -9.3842036e-04  -8.0026308e-04  -7.0966891e-04   6.7300425e-04  -4.0071778e-04   6.8113208e-05  -5.1977934e-04  -5.2985328e-04  -1.0397149e-03  -7.2974310e-04  -1.0131841e-03  -1.2957883e-03  -8.2874275e-04   1.3014892e-04  -9.4026393e-05  -7.7067385e-04  -1.5629928e-04   1.6315222e-04  -2.5636484e-04  -1.9080869e-04  -1.6208902e-03  -3.6572819e-04  -1.3110942e-03  -5.6308520e-04  -9.7740209e-05   4.3867220e-04  -3.1842454e-04  -2.7490867e-04  -2.2963322e-04  -2.8944510e-04   2.1526597e-04   3.3898075e-04   1.2041411e-03  -8.3171023e-04   9.9998120e-05   1.3936741e-03   9.2740415e-04  -1.1374520e-04   9.8195742e-04   9.0404932e-04
   7.5482775e-04   4.1596089e-05   6.8078068e-04  -2.7470206e-04   8.4414613e-05  -2.8660736e-04  -4.0776958e-04   5.3926167e-04  -2.9001379e-04   1.2393699e-04  -6.2967924e-04  -4.1464952e-04  -4.7074276e-04   9.6884451e-04  -2.1627417e-04   2.5935096e-04  -2.9291632e-04  -3.9576151e-04  -5.9575413e-04  -3.7848603e-04  -5.9095171e-04  -8.8691537e-04  -4.8244619e-04   4.3014527e-04   3.2490861e-04  -2.8119297e-04  -1.8549561e-06   4.1056337e-04  -4.0753563e-05   1.0731291e-04  -1.4113502e-03  -1.2304084e-04  -8.8138034e-04  -1.1033092e-04   1.3632291e-04   7.9274661e-04  -4.7744350e-05  -5.2620206e-05   4.9609665e-05  -1.9872907e-05   2.8542409e-04   4.1410723e-04   1.2172709e-03  -7.7156402e-04   1.2924008e-04   1.4911828e-03   9.1158715e-04  -1.6061378e-04   9.0398121e-04   9.0660271e-04
   6.0322584e-04  -9.8546123e-05   5.0328136e-04  -4.3601508e-04  -4.3607859e-05  -3.8210818e-04  -5.2249752e-04   5.2428717e-04  -3.6226629e-04  -2.2162298e-05  -7.0032373e-04  -5.4325827e-04  -5.3764711e-04   9.1093546e-04  -2.5654395e-04   2.4591477e-04  -3.0419949e-04  -3.9873435e-04  -7.2109204e-04  -4.1979933e-04  -7.1892515e-04  -1.0400593e-03  -5.7906110e-04   2.8772312e-04   1.7786532e-04  -4.6503067e-04  -2.3784212e-05   3.5119592e-04  -1.0266905e-04   2.3936676e-05  -1.4634560e-03  -1.7998621e-04  -1.1374820e-03  -3.1811977e-04   3.1334475e-05   5.1674433e-04  -1.9007958e-04  -1.7671833e-04  -1.6944708e-04  -2.6652403e-04  -1.3738203e-04   8.4520158e-05   9.8299817e-04  -1.0774208e-03  -1.9025951e-04   1.2580488e-03   6.7852502e-04  -3.4379837e-04   4.8510372e-04   6.8251858e-04
   9.1672213e-05  -5.7407288e-04   9.7594180e-05  -8.5016491e-04  -2.3623039e-04  -5.0663791e-04  -6.6704268e-04   3.7954331e-04  -3.7457008e-04   1.4312616e-04  -6.8517629e-04  -4.1218550e-04  -4.9018534e-04   9.1813318e-04  -2.3341636e-04   2.5661444e-04  -2.5980250e-04  -3.8911443e-04  -4.8329620e-04  -2.4918388e-04  -4.6925183e-04  -8.3229353e-04  -4.1721758e-04   4.9703981e-04   4.3120346e-04  -1.5664578e-04   6.6923385e-05   5.1500194e-04   5.4056709e-05   1.8788173e-04  -1.3054791e-03   3.3072370e-06  -7.3600502e-04   3.8685226e-05   2.4817168e-04   9.6205965e-04   8.3713123e-05   1.1223438e-04   2.3285668e-04   2.3953133e-04   5.1116641e-04   4.0845966e-04   1.4076234e-03  -5.9456547e-04   2.1466114e-04   1.6510215e-03   9.1670046e-04   4.1466351e-06   9.8730158e-04   1.0576480e-03
   8.1451988e-04   6.5881424e-05   7.5653708e-04  -1.6040029e-04   1.4966835e-04  -2.0493775e-04  -2.9551872e-04   6.7585678e-04  -2.4651730e-04   1.5205958e-04  -5.7110895e-04  -3.8631560e-04  -3.9907210e-04   1.0593622e-03  -1.1957123e-04   3.9323181e-04  -1.3869398e-04  -2.8890217e-04  -4.9452909e-04  -2.2813042e-04  -5.5939046e-04  -8.2412508e-04  -4.2033428e-04   4.2196311e-04   4.1158273e-04  -2.0348956e-04   1.1525542e-04   5.5579015e-04   5.5615070e-05   2.1225981e-04  -1.2835050e-03   3.6506211e-05  -8.0661656e-04  -4.1877269e-05   2.4528868e-04   8.6438790e-04   1.8641793e-05   1.0591645e-04   1.4240079e-04   1.0082714e-04   2.7175981e-04   3.0517616e-04   1.2633845e-03  -7.4927899e-04   1.2659557e-04   1.5879687e-03   8.2572614e-04  -1.4094483e-04   8.6761301e-04   9.4123959e-04
   4.7625531e-04  -2.1859616e-04   3.6818819e-04  -5.2538980e-04  -1.1220907e-04  -4.3405456e-04  -5.6585262e-04   5.3166482e-04  -4.9974781e-04  -1.2731313e-04  -7.5680617e-04  -6.4965780e-04  -5.5536669e-04   8.9350849e-04  -2.4450597e-04   2.9148778e-04  -2.5327416e-04  -3.7336757e-04  -7.6773437e-04  -4.4501436e-04  -8.3098206e-04  -1.1022972e-03  -6.6281244e-04   2.3384097e-04   1.2231473e-04  -5.3864409e-04   5.5073351e-06   3.6827420e-04  -6.9849244e-05   9.7605935e-06  -1.4134281e-03  -7.8764257e-05  -1.1295807e-03  -3.5705534e-04   1.0457405e-04   6.5786188e-04  -1.5390941e-04   1.2979392e-05  -1.5222666e-05   2.7977317e-06   4.3630545e-04   4.3305574e-04   1.3353482e-03  -5.9589604e-04   2.6274068e-04   1.7024835e-03   9.6095377e-04   1.8108412e-05   1.1823878e-03   1.2222392e-03
   1.0933189e-03   3.0588062e-04   1.0531896e-03   1.4840443e-04   3.8221054e-04  -2.9066032e-05  -5.7165627e-05   8.5286720e-04  -5.2331234e-05   3.0816926e-04  -4.3678790e-04  -2.4684554e-04  -2.5890977e-04   1.2331839e-03  -1.6201573e-05   5.3205859e-04   1.1854892e-05  -2.0352862e-04  -3.0141184e-04  -2.5002420e-05  -3.9358702e-04  -6.5659516e-04  -3.0490133e-04   5.6574744e-04   5.5838516e-04  -1.6436379e-05   2.5095808e-04   6.8911962e-04   2.7964194e-04   3.4236207e-04  -1.1303576e-03   2.4270799e-04  -5.6231598e-04   1.7357145e-04   4.1451585e-04   1.1292008e-03   1.8223771e-04   3.5285574e-04   3.7407628e-04   3.9749517e-04   6.1740348e-04   5.0997932e-04   1.5065891e-03  -4.4119154e-04   3.2876272e-04   1.9035874e-03   1.0135625e-03   6.0921804e-05   1.1780986e-03   1.2562979e-03
   1.0267999e-03   2.3899483e-04   9.5433096e-04   6.9628171e-05   3.0881856e-04  -7.1693037e-05  -1.1139449e-04   8.7407458e-04  -1.6727026e-04   1.6564375e-04  -4.9476069e-04  -3.5993103e-04  -2.8219828e-04   1.2203454e-03  -1.2097404e-05   5.6851766e-04   1.5110870e-05  -1.7818379e-04  -4.2987338e-04  -1.4474991e-04  -5.7250093e-04  -7.5875869e-04  -3.9830306e-04   4.8800049e-04   4.7103965e-04  -1.7064049e-04   2.3333813e-04   6.4737827e-04   2.2094673e-04   2.7650470e-04  -1.1679466e-03   2.1329822e-04  -7.4230746e-04   5.5073206e-06   3.4189929e-04   9.5348322e-04   8.7317916e-05   2.6788711e-04   2.0250968e-04   1.7096307e-04   2.4224169e-04   3.2936424e-04   1.2413801e-03  -7.0553715e-04   1.9743622e-04   1.7394354e-03   8.4366812e-04  -1.2443122e-04   8.8419684e-04   1.0333211e-03
   4.7119180e-04  -2.8315454e-04   3.5719524e-04  -5.0508371e-04  -8.8087050e-05  -4.3082959e-04  -5.1295693e-04   6.4837100e-04  -4.6489685e-04  -1.4006013e-04  -7.3983637e-04  -6.2133273e-04  -4.5724088e-04   9.9206564e-04  -1.8250596e-04   4.4699371e-04  -1.2228382e-04  -2.7169357e-04  -5.0897966e-04  -2.4267656e-04  -5.7757064e-04  -8.4566278e-04  -4.5104229e-04   4.7020082e-04   4.2099049e-04  -1.7869768e-04   2.3127202e-04   6.3580280e-04   2.4484418e-04   2.5328033e-04  -1.1173321e-03   2.9770870e-04  -6.1615556e-04   1.9792939e-04   4.6843532e-04   1.2230631e-03   2.3034368e-04   4.6982689e-04   4.8472505e-04   5.6650699e-04   8.0763077e-04   5.4758758e-04   1.5785053e-03  -2.8542773e-04   4.8606156e-04   2.0013610e-03   1.0299888e-03   2.6631236e-04   1.2688340e-03   1.4775882e-03
   1.3254642e-03   4.5680511e-04   1.2749353e-03   3.9970124e-04   5.5099797e-04   1.3779692e-04   1.5550065e-04   1.0338286e-03  -1.4409949e-05   3.1309816e-04  -3.4345791e-04  -2.5400289e-04  -1.5119604e-04   1.3782877e-03   1.1842361e-04   7.1886828e-04   1.7389496e-04  -5.6841884e-05  -1.5564995e-04   7.0822112e-05  -3.4869328e-04  -5.4634828e-04  -2.0277813e-04   5.8442564e-04   7.0351543e-04   9.3359260e-05   4.0640702e-04   8.5311360e-04   4.0325694e-04   4.9363839e-04  -9.6621545e-04   4.8089135e-04  -4.4790152e-04   3.3822804e-04   5.9762498e-04   1.3288674e-03   3.6105205e-04   6.1547582e-04   5.6538277e-04   6.5909553e-04   7.4922788e-04   5.4258370e-04   1.6483077e-03  -2.8799649e-04   4.3948169e-04   2.0164978e-03   1.0102040e-03   2.9440090e-04   1.1865513e-03   1.4261666e-03
   1.0642004e-03   2.7532456e-04   9.9954475e-04   1.4134926e-04   3.6339159e-04   1.2663636e-05  -1.3388721e-05   9.6706371e-04  -1.7907321e-04   1.1370064e-04  -4.5849336e-04  -4.2914742e-04  -2.3818137e-04   1.2852759e-03   7.7215263e-05   6.7798258e-04   1.2727831e-04  -7.3004085e-05  -3.5873888e-04  -2.4063524e-05  -5.6083151e-04  -7.4036664e-04  -3.6994513e-04   4.2292924e-04   5.0019141e-04  -1.2093818e-04   3.7501560e-04   7.6291838e-04   3.7852005e-04   3.6672357e-04  -1.0749347e-03   3.9460274e-04  -7.7663804e-04   9.5496594e-05   4.4852559e-04   1.0230445e-03   1.6011184e-04   4.3359376e-04   2.6721007e-04   2.2788123e-04   1.9689125e-04   2.8939926e-04   1.2810545e-03  -6.5694854e-04   2.0123854e-04   1.7575094e-03   8.0586638e-04  -4.2239593e-05   8.6923153e-04   1.0685743e-03
   4.6654334e-04  -3.0509281e-04   3.5858146e-04  -4.9823307e-04  -8.7954839e-05  -3.8313703e-04  -4.6106023e-04   6.8414159e-04  -5.0281826e-04  -2.1585960e-04  -7.3711679e-04  -7.5233169e-04  -4.5995702e-04   1.0069946e-03  -1.1719456e-04   4.9106206e-04  -6.4908701e-05  -2.0271471e-04  -5.5820198e-04  -1.8858394e-04  -6.1896257e-04  -9.1639726e-04  -4.6691357e-04   3.6964306e-04   3.8938655e-04  -2.7550739e-04   3.1223081e-04   6.7696883e-04   2.9193875e-04   2.6812390e-04  -1.0727242e-03   3.8438858e-04  -5.5769575e-04   1.9523992e-04   5.0144206e-04   1.2610842e-03   2.6375827e-04   5.4709963e-04   5.1680545e-04   5.9032202e-04   7.6131237e-04   4.3953751e-04   1.6356921e-03  -2.6566142e-04   4.1403505e-04   2.0094106e-03   9.5418189e-04   2.2467601e-04   1.2846941e-03   1.4058806e-03
   1.2650716e-03   3.9953223e-04   1.2285846e-03   3.8913451e-04   5.4027687e-04   1.2501837e-04   1.8248477e-04   1.0282411e-03  -5.9083577e-05   2.1798121e-04  -3.8092697e-04  -3.5447624e-04  -1.5646171e-04   1.3632482e-03   1.4074473e-04   7.3008478e-04   1.8461068e-04  -4.1930907e-05  -1.8323882e-04   5.4031199e-05  -4.1351342e-04  -5.9153861e-04  -2.1484711e-04   5.4325041e-04   6.5627170e-04   6.3698710e-05   4.6981353e-04   8.9954113e-04   4.7787011e-04   5.1167759e-04  -9.5316599e-04   5.3602282e-04  -4.2003766e-04   3.6208666e-04   6.1262742e-04   1.3498571e-03   3.8583836e-04   6.7305687e-04   5.9062906e-04   6.4636004e-04   6.7182694e-04   4.1436061e-04   1.6245765e-03  -2.9578424e-04   3.6977546e-04   2.0015221e-03   8.9803332e-04   2.5649398e-04   1.1561995e-03   1.3309323e-03
   9.9276367e-04   1.9761607e-04   9.4048755e-04   1.2784649e-04   3.3225116e-04  -2.6910273e-05  -5.1798438e-06   9.4875338e-04  -2.1098988e-04   2.6844211e-05  -4.9307197e-04  -5.1749928e-04  -2.5027947e-04   1.2709290e-03   8.0263919e-05   6.8640860e-04   1.2108919e-04  -8.5964697e-05  -3.3513221e-04  -1.1224818e-04  -5.4436800e-04  -7.6669815e-04  -3.6610119e-04   3.3929612e-04   4.5919712e-04  -1.4849287e-04   3.8462892e-04   7.8410510e-04   3.5813110e-04   3.8254567e-04  -1.0811788e-03   4.2966977e-04  -7.1751233e-04   1.0851217e-04   4.5512823e-04   1.0563420e-03   1.7363670e-04   4.6671127e-04   3.0324713e-04   2.8513183e-04   2.0464168e-04   1.4596908e-04   1.2652865e-03  -6.4126990e-04   1.0512684e-04   1.7599871e-03   7.2670553e-04  -4.5809702e-05   8.0469681e-04   1.0647608e-03
   3.8727082e-04  -3.3625221e-04   3.3006983e-04  -4.8598018e-04  -9.9001722e-05  -4.1360964e-04  -4.3397152e-04   6.6605909e-04  -5.1014341e-04  -2.8850359e-04  -7.5742428e-04  -8.0010778e-04  -4.7639111e-04   9.9090312e-04  -1.1241497e-04   4.7823237e-04  -8.1242768e-05  -2.4524279e-04  -6.8071450e-04  -3.4532504e-04  -8.5154671e-04  -1.0625144e-03  -6.2194915e-04   1.7690817e-04   1.9892267e-04  -4.7445920e-04   2.4604186e-04   5.8779545e-04   2.3529776e-04   1.9003471e-04  -1.1915871e-03   3.0072668e-04  -8.8316097e-04  -4.1980460e-05   3.7891886e-04   1.0620082e-03   1.1731884e-04   4.5438990e-04   3.6865991e-04   4.4191733e-04   6.2919181e-04   2.8063040e-04   1.5320425e-03  -3.4428187e-04   2.7899942e-04   1.8962290e-03   7.8744726e-04   2.0049930e-04   1.0695003e-03   1.3634866e-03
   1.0471514e-03   2.4179343e-04   1.0599360e-03   2.5742847e-04   4.1501631e-04   2.2986163e-05   1.2268939e-04   9.4041455e-04  -1.8781050e-04   1.1088681e-04  -4.6285434e-04  -4.3396425e-04  -2.4408287e-04   1.2483223e-03   9.9647616e-05   6.2056340e-04   9.0921516e-05  -1.4675244e-04  -3.0559077e-04  -8.6007021e-05  -4.7247921e-04  -6.8493438e-04  -2.8678594e-04   4.2945985e-04   5.4943433e-04  -2.1707551e-06   4.0657309e-04   8.8195433e-04   4.4135150e-04   4.8100468e-04  -1.0290111e-03   4.8667967e-04  -4.9353536e-04   3.0064015e-04   5.6580035e-04   1.2917514e-03   3.3574269e-04   6.2176847e-04   5.8023381e-04   6.6178635e-04   6.5408781e-04   2.4483225e-04   1.6035161e-03  -3.3674957e-04   2.4008981e-04   1.9106722e-03   7.6363154e-04   2.5763150e-04   1.0363817e-03   1.2848070e-03
   8.4830757e-04   1.4808871e-04   8.4605295e-04   6.6577471e-05   2.5651944e-04  -9.7912969e-05  -4.3767242e-05   8.5127901e-04  -3.3871375e-04  -4.8211587e-05  -5.5967976e-04  -5.6960201e-04  -3.2697202e-04   1.1562383e-03   6.0462939e-05   5.5215380e-04   2.2784456e-05  -1.8846506e-04  -4.5980644e-04  -2.2997455e-04  -6.1072345e-04  -8.2555623e-04  -4.1296901e-04   2.8442862e-04   4.3276986e-04  -1.5651042e-04   3.4252385e-04   8.0647826e-04   3.8867383e-04   3.9993369e-04  -1.1228452e-03   4.1076704e-04  -7.1618619e-04   1.0044654e-04   4.4837064e-04   1.0432121e-03   2.0791833e-04   4.6200785e-04   3.6500103e-04   3.7309201e-04   2.6096849e-04   1.1503266e-04   1.3588056e-03  -6.5538596e-04   2.4250421e-05   1.6936566e-03   5.7749188e-04   2.5047873e-05   7.8496884e-04   1.0343570e-03
   2.6301038e-04  -3.8035272e-04   2.2852285e-04  -5.3202407e-04  -1.7507115e-04  -4.6346689e-04  -4.6644054e-04   5.5335846e-04  -6.5114588e-04  -3.0799510e-04  -7.9933234e-04  -8.2125026e-04  -5.1688572e-04   8.9643232e-04  -1.1975905e-04   3.6350029e-04  -1.5998766e-04  -3.2127407e-04  -5.2398228e-04  -2.9490091e-04  -6.2711973e-04  -8.9555315e-04  -4.4996655e-04   2.8028211e-04   4.5471187e-04  -1.6076870e-04   2.8553462e-04   7.8869681e-04   3.5830814e-04   3.7455247e-04  -1.1006170e-03   4.3824239e-04  -5.7600491e-04   2.6566442e-04   5.3617905e-04   1.3009988e-03   3.2851714e-04   5.9604202e-04   6.1637245e-04   7.1297551e-04   7.5781014e-04   2.9097544e-04   1.6485214e-03  -2.8361526e-04   2.9150935e-04   1.9146688e-03   7.2348135e-04   3.2231925e-04   1.1890025e-03   1.3885567e-03
   1.0401306e-03   2.8925939e-04   1.0492905e-03   2.5543885e-04   3.7594623e-04   4.3835407e-06   9.4415016e-05   8.7101012e-04  -2.3662671e-04   7.6660457e-05  -4.6946789e-04  -4.8293406e-04  -2.7986275e-04   1.1717976e-03   9.7653639e-05   5.0604081e-04   2.0041958e-05  -2.1624989e-04  -3.2358861e-04  -6.9089052e-05  -4.8014784e-04  -6.9712184e-04  -2.8658495e-04   4.1810467e-04   5.8069453e-04  -2.0708652e-05   3.7724225e-04   9.0108748e-04   4.2954425e-04   5.0751207e-04  -1.0514110e-03   5.1075150e-04  -4.8336267e-04   3.0101725e-04   5.7946367e-04   1.2988254e-03   3.4888685e-04   5.9217855e-04   5.9394230e-04   6.5550249e-04   6.3222897e-04   2.8985855e-04   1.5759711e-03  -3.8592462e-04   2.2143158e-04   1.8260495e-03   7.1173423e-04   1.9505258e-04   1.0007328e-03   1.2568107e-03
   6.8691466e-04   2.9772580e-05   6.7459716e-04  -1.0704591e-04   1.0769586e-04  -2.1315445e-04  -1.7183072e-04   7.1871845e-04  -3.8995635e-04  -1.1447608e-04  -5.9194281e-04  -6.6302245e-04  -4.0069403e-04   1.0299711e-03   1.1855148e-05   3.9251786e-04  -8.4976702e-05  -3.0151909e-04  -5.1285489e-04  -3.3279380e-04  -6.7268388e-04  -8.8983023e-04  -4.8379900e-04   1.6788310e-04   3.3117953e-04  -2.7564392e-04   2.4085568e-04   7.5465930e-04   2.7173851e-04   3.1656720e-04  -1.1900661e-03   3.7201322e-04  -8.2223269e-04  -2.0213497e-06   3.7001810e-04   9.2694629e-04   8.4979896e-05   3.4024444e-04   2.0982532e-04   2.2390430e-04   7.9729965e-05   3.4049310e-05   1.1747666e-03  -8.0163451e-04  -6.8352485e-05   1.4921622e-03   5.0626119e-04  -1.1388556e-04   7.3788618e-04   9.5054694e-04
   1.5435959e-04  -4.5587492e-04   2.3835123e-04  -5.8579392e-04  -1.1995609e-04  -3.9103770e-04  -3.8492234e-04   5.2548293e-04  -3.5284407e-04   6.0352173e-05  -5.9614656e-04  -5.3425675e-04  -3.5329966e-04   1.0146124e-03  -3.1610529e-05   3.6736377e-04  -8.5137872e-05  -3.2611017e-04  -3.0771681e-04  -1.7653390e-04  -3.9954751e-04  -6.8251730e-04  -3.1812448e-04   3.7728494e-04   5.5726443e-04  -1.0208832e-05   3.0126353e-04   8.7075279e-04   3.4200677e-04   4.6679238e-04  -1.0608204e-03   5.0777261e-04  -4.5757889e-04   3.5240984e-04   5.5241695e-04   1.3171617e-03   3.3549371e-04   5.5077975e-04   6.2404625e-04   7.3981413e-04   7.2437397e-04   3.3119100e-04   1.6394982e-03  -3.1072751e-04   2.6287645e-04   1.7733698e-03   7.4845029e-04   2.5689718e-04   1.1780736e-03   1.3003743e-03
   9.1547333e-04   2.3602924e-04   8.9688634e-04   7.0054572e-05   2.4263091e-04  -8.1666010e-05  -3.0539384e-05   7.3722843e-04  -1.9293489e-04   8.4279527e-05  -4.6716889e-04  -4.8939855e-04  -2.9504451e-04   1.0921350e-03   6.7372588e-05   3.8458590e-04  -4.1871237e-05  -3.0779248e-04  -3.5164738e-04  -1.8017652e-04  -5.3778279e-04  -6.8911241e-04  -3.2954552e-04   2.9595781e-04   5.3499313e-04  -7.0403177e-05   2.8552045e-04   8.6826761e-04   2.8666935e-04   4.4718850e-04  -1.0875675e-03   4.6677142e-04  -5.7673809e-04   2.2985367e-04   5.0090341e-04   1.1810000e-03   2.4335236e-04   4.5186194e-04   4.6194150e-04   5.1765988e-04   4.3430598e-04   2.1526276e-04   1.4238129e-03  -5.4221804e-04   5.8529651e-05   1.6196028e-03   6.3229987e-04   1.1910875e-04   9.7875204e-04   1.0905749e-03
   5.2987604e-04  -6.1221355e-05   4.2913409e-04  -3.9199230e-04  -9.4605086e-05  -3.6172548e-04  -4.0078143e-04   5.4020097e-04  -4.0243132e-04  -1.9259834e-04  -6.3637475e-04  -7.4819516e-04  -4.7389930e-04   8.7106955e-04  -7.2704934e-05   2.3113385e-04  -1.9169759e-04  -4.1232959e-04  -6.3689024e-04  -4.3130654e-04  -7.5279584e-04  -9.6637919e-04  -6.0818379e-04   1.1582521e-04   1.8916371e-04  -4.7153656e-04   1.3403772e-04   6.4144551e-04   1.2399605e-04   1.7752775e-04  -1.2640610e-03   2.8581105e-04  -9.8202971e-04  -1.7003434e-04   2.4719344e-04   7.3227147e-04  -6.2064733e-05   1.4065580e-04   1.2242293e-05  -2.8889317e-06  -1.6993920e-04  -4.8306832e-05   1.0166317e-03  -9.8264380e-04  -1.7375266e-04   1.2486726e-03   4.4017818e-04  -2.4697394e-04   7.4854097e-04   9.2920521e-04
   2.5112552e-04  -3.2982224e-04   3.9613800e-04  -4.4150831e-04  -3.4100634e-05  -3.1140979e-04  -3.1698431e-04   4.8711465e-04  -2.4846752e-04   1.1698587e-04  -5.4631784e-04  -4.8848457e-04  -3.7001364e-04   9.2872558e-04  -3.9432973e-05   2.1859775e-04  -1.3755470e-04  -4.1374748e-04  -3.5756841e-04  -2.3928932e-04  -4.1026931e-04  -6.6720758e-04  -3.8717809e-04   3.3310248e-04   4.6971312e-04  -8.7862136e-05   1.9211951e-04   7.9478259e-04   2.2364392e-04   3.8255838e-04  -1.1114987e-03   4.2868688e-04  -4.8995437e-04   2.7165396e-04   4.5633607e-04   1.2336265e-03   2.4277123e-04   4.0768116e-04   5.0717936e-04   5.9392082e-04   5.9779757e-04   2.9068283e-04   1.5153765e-03  -4.6314870e-04   9.3692426e-05   1.5992146e-03   6.8352261e-04   1.4369006e-04   1.0612617e-03   1.1899616e-03
   8.8158448e-04   2.4977219e-04   8.1480190e-04  -8.1627521e-05   1.4363916e-04  -1.3856102e-04  -1.6541210e-04   6.1237114e-04  -2.0937277e-04   1.2976979e-04  -4.6731334e-04  -4.8475084e-04  -3.4242272e-04   9.6801104e-04   1.5525007e-08   2.3513375e-04  -1.2047899e-04  -3.9019619e-04  -4.0950521e-04  -2.1466480e-04  -5.0384976e-04  -7.0115487e-04  -4.1909548e-04   2.6664577e-04   3.8133041e-04  -1.8508415e-04   1.6178173e-04   7.3923962e-04   1.8325527e-04   3.2248034e-04  -1.1435208e-03   3.8183475e-04  -6.1565579e-04   1.0516846e-04   3.7887332e-04   1.0298025e-03   1.2600252e-04   2.8093363e-04   2.9722005e-04   3.7787773e-04   2.6912909e-04   1.8880780e-04   1.2987012e-03  -6.9876632e-04  -9.1531234e-05   1.4605568e-03   5.6895707e-04  -5.7156758e-05   8.8849006e-04   1.0892377e-03
   4.3601327e-04  -1.9226935e-04   2.6686708e-04  -6.2337564e-04  -2.5124676e-04  -4.4968483e-04  -5.7822390e-04   3.7170528e-04  -5.0892384e-04  -1.8262907e-04  -6.8514305e-04  -7.8207901e-04  -5.6890951e-04   6.9524639e-04  -1.5248862e-04   6.0280236e-05  -2.8688856e-04  -5.0204538e-04  -7.5364753e-04  -5.2188151e-04  -8.2263700e-04  -1.0485674e-03  -6.8820373e-04  -2.1859396e-05   6.5301901e-05  -6.0561881e-04  -8.3281129e-06   5.2961858e-04  -6.6992616e-05   5.3106793e-05  -1.3409640e-03   1.8671541e-04  -1.1418855e-03  -3.2355351e-04   1.2126567e-04   5.2879169e-04  -1.9247332e-04  -2.7819194e-06  -1.2197296e-04  -1.3724354e-04  -3.2041813e-04  -9.4820745e-05   8.8581670e-04  -1.1392429e-03  -4.7649769e-04   1.0468258e-03   2.8838395e-04  -3.8162596e-04   4.7589614e-04   7.5601926e-04
  -6.9106412e-05  -6.9036451e-04  -7.8293036e-05  -1.0214142e-03  -4.0448504e-04  -5.8460096e-04  -7.1336620e-04   1.8483018e-04  -4.4756831e-04   1.0498696e-04  -6.7025848e-04  -5.6382822e-04  -5.2855379e-04   6.8833661e-04  -1.9008071e-04   8.1217968e-06  -2.8250203e-04  -5.3285126e-04  -5.1343697e-04  -3.5315042e-04  -4.9916160e-04  -7.9850911e-04  -5.0311006e-04   1.6366327e-04   3.2799027e-04  -2.5395409e-04   2.2347040e-05   6.4070930e-04   2.9123853e-06   2.2031534e-04  -1.2165726e-03   2.8582214e-04  -6.8027107e-04   6.1849641e-05   3.0386730e-04   1.0114908e-03   7.2250281e-05   2.1101393e-04   3.0717009e-04   4.2928304e-04   4.5967926e-04   1.6387524e-04   1.4019178e-03  -6.4453785e-04  -1.0034932e-04   1.3786162e-03   4.9716950e-04  -1.3994316e-05   9.4538013e-04   1.0650173e-03
   6.8019412e-04   6.9754540e-05   5.7010353e-04  -3.7156916e-04  -5.6569053e-05  -2.8980337e-04  -3.8425808e-04   3.7222289e-04  -3.9533625e-04   1.4062908e-04  -5.8357883e-04  -5.2903401e-04  -5.0858356e-04   7.2807184e-04  -1.1915519e-04   3.5506342e-05  -2.6526867e-04  -5.0238636e-04  -5.7599630e-04  -4.2289845e-04  -6.2115351e-04  -8.3099143e-04  -5.3957384e-04   9.6499003e-05   2.3989468e-04  -3.3679852e-04   1.4121823e-05   5.9108628e-04   1.0491782e-05   1.8226584e-04  -1.2518084e-03   2.5992250e-04  -8.0316217e-04  -7.1527393e-05   2.4203502e-04   8.4359961e-04  -1.7080441e-05   1.0654306e-04   1.3972771e-04   2.2728201e-04   1.7769067e-04   7.2224604e-05   1.2383874e-03  -8.7089039e-04  -2.9918502e-04   1.2212733e-03   3.7302347e-04  -1.9784892e-04   7.5073546e-04   9.4663585e-04
   2.8095473e-04  -3.0539991e-04   1.0625730e-04  -8.3545281e-04  -3.9249935e-04  -5.6401920e-04  -7.4373861e-04   1.6818944e-04  -7.4301648e-04  -1.0713233e-04  -7.9690124e-04  -7.9450716e-04  -7.1497622e-04   4.9291016e-04  -2.6311609e-04  -1.2245897e-04  -4.2227667e-04  -5.9174711e-04  -8.7383640e-04  -6.3632039e-04  -8.7783299e-04  -1.1373998e-03  -7.7286165e-04  -1.4086824e-04  -9.4600451e-05  -7.0944952e-04  -1.7282489e-04   4.0904619e-04  -2.2413535e-04  -6.0420851e-05  -1.4322008e-03   6.6713612e-05  -1.2263055e-03  -4.6520945e-04   5.5186729e-07   3.7505757e-04  -3.0456358e-04  -1.4833441e-04  -2.7133786e-04  -2.2758717e-04  -3.6398834e-04  -2.5864874e-04   8.5347355e-04  -1.2611334e-03  -5.8554090e-04   9.0234482e-04   2.1197501e-04  -4.0353375e-04   5.5769994e-04   8.3083665e-04
   2.0514369e-04  -3.2357799e-04   2.9313340e-04  -6.5329543e-04  -1.9820078e-04  -4.2219483e-04  -5.3680298e-04   2.1104648e-04  -5.1499117e-04   2.6489922e-04  -6.7099888e-04  -4.7844401e-04  -6.0788804e-04   5.8298587e-04  -2.1581992e-04  -1.0495347e-04  -3.5772912e-04  -5.8247510e-04  -6.0552394e-04  -4.6539598e-04  -5.5455125e-04  -8.2743599e-04  -5.8540341e-04   1.0968536e-04   2.1769656e-04  -3.4660971e-04  -1.0989161e-04   5.3338299e-04  -5.5786779e-05   1.3989060e-04  -1.2887293e-03   1.9214941e-04  -7.6304784e-04  -5.5432662e-05   1.9742115e-04   8.9205883e-04  -3.3884869e-05   9.2018170e-05   1.6088129e-04   2.7963467e-04   3.2659233e-04   7.5691765e-05   1.2609735e-03  -8.4959017e-04  -3.4758140e-04   1.2003523e-03   3.3493523e-04  -2.3585920e-04   7.5186772e-04   9.0906792e-04
   5.5462087e-04  -3.1077590e-05   4.6241653e-04  -5.1819655e-04  -1.4935246e-04  -3.9511311e-04  -5.0150452e-04   2.8027841e-04  -5.8372586e-04   2.2959242e-04  -6.8072753e-04  -4.8957596e-04  -6.2548334e-04   5.8036519e-04  -2.0955142e-04  -8.1674421e-05  -3.6091069e-04  -5.4830813e-04  -6.9819001e-04  -5.2619894e-04  -6.2145310e-04  -9.0829120e-04  -6.7016284e-04   2.7837443e-05   8.8110864e-05  -4.6695551e-04  -1.3390912e-04   4.9910258e-04  -1.5562170e-04   6.1653031e-05  -1.3448491e-03   1.5218121e-04  -9.2910015e-04  -2.4053088e-04   1.2100366e-04   6.9644389e-04  -1.7178128e-04   6.8882500e-08  -2.0850646e-05   5.8908929e-05   1.7946772e-05  -3.3124295e-05   1.0189485e-03  -1.0620788e-03  -3.8733264e-04   1.0787733e-03   2.6250529e-04  -4.4496736e-04   5.0007831e-04   7.3454843e-04
   1.2106603e-04  -4.5869290e-04  -4.0991577e-05  -9.9244411e-04  -4.9206999e-04  -7.4374856e-04  -8.7755796e-04   1.0119968e-04  -8.2962884e-04  -4.1176379e-05  -8.8602590e-04  -7.3348510e-04  -8.0637832e-04   3.8652608e-04  -3.4948191e-04  -1.7446998e-04  -4.9319246e-04  -6.4354000e-04  -1.0141284e-03  -8.0097007e-04  -9.2971756e-04  -1.2087047e-03  -9.4458670e-04  -1.6232386e-04  -2.1646504e-04  -8.1960746e-04  -2.5685952e-04   2.9009898e-04  -3.2008562e-04  -1.8343343e-04  -1.4776349e-03  -4.7398612e-06  -1.2433043e-03  -5.6944054e-04  -2.4846264e-05   5.0793437e-04  -3.3968769e-04  -8.3152729e-05  -1.1944118e-04   5.3734511e-06   2.9261602e-04   9.3651252e-05   1.1765545e-03  -8.3604857e-04  -2.1828055e-04   1.1917998e-03   3.4962167e-04  -2.8185974e-04   7.7570800e-04   9.1286586e-04
   7.3848729e-04   1.2385526e-04   6.8046449e-04  -2.8640821e-04   1.9400908e-05  -3.2480538e-04  -3.6534169e-04   3.8359658e-04  -4.7024927e-04   4.4768114e-04  -6.2126090e-04  -3.0607224e-04  -5.7062518e-04   6.8374298e-04  -1.5916105e-04   4.4964527e-06  -2.8519676e-04  -5.0313829e-04  -5.6664663e-04  -4.6508433e-04  -5.3345790e-04  -7.8111090e-04  -6.1503408e-04   1.5283471e-04   1.7814260e-04  -3.4821316e-04  -1.0201298e-04   5.3605565e-04  -1.4683677e-04   9.5218355e-05  -1.2827552e-03   1.8260114e-04  -7.5611740e-04  -1.2954600e-04   1.9195459e-04   8.3949819e-04  -9.6790558e-05   1.0815277e-04   1.1285095e-04   2.4797345e-04   3.0092339e-04   5.6166395e-05   1.1752007e-03  -8.2748418e-04  -1.6053753e-04   1.2469465e-03   3.9050143e-04  -3.9175039e-04   6.7479804e-04   8.7162061e-04
   5.5402989e-04  -6.6008593e-05   4.5879622e-04  -5.0505990e-04  -1.4030021e-04  -4.4723233e-04  -5.2074756e-04   3.3860357e-04  -5.5012596e-04   3.1000029e-04  -6.9487770e-04  -4.1147319e-04  -6.5746118e-04   6.1469281e-04  -2.1271729e-04  -1.1856567e-06  -3.1531055e-04  -5.0947047e-04  -7.6511299e-04  -5.4469286e-04  -6.9548591e-04  -9.3702914e-04  -7.3965505e-04   1.7157985e-05   4.4980941e-05  -5.5801281e-04  -1.4553781e-04   4.4185668e-04  -2.0425887e-04  -1.8744497e-05  -1.3525633e-03   1.2202833e-04  -1.0439272e-03  -3.5317885e-04   6.7324530e-05   5.7677028e-04  -2.5449027e-04  -1.4230329e-05  -1.4950499e-04  -7.9588142e-05  -1.7782081e-04  -1.5888759e-04   8.7222637e-04  -1.1469208e-03  -4.4715227e-04   1.0053054e-03   1.6605073e-04  -6.0571008e-04   3.3881719e-04   6.5060728e-04
  -6.7734727e-05  -6.3870428e-04  -1.6950689e-04  -1.1346077e-03  -5.1562139e-04  -7.7290210e-04  -9.1602630e-04   1.2886291e-04  -7.0882856e-04   3.8233917e-04  -8.0365717e-04  -3.5892212e-04  -6.6985528e-04   5.4103864e-04  -2.7026160e-04  -2.0056412e-05  -3.1605162e-04  -5.2882021e-04  -5.9086678e-04  -4.3146775e-04  -4.6998396e-04  -7.8774191e-04  -6.0201489e-04   1.9825563e-04   2.1340243e-04  -3.1174225e-04  -1.0315041e-04   5.5164867e-04  -1.2918696e-04   1.0988711e-04  -1.2343648e-03   2.2188466e-04  -7.6575525e-04  -3.7200050e-05   2.3969972e-04   9.4141503e-04  -2.6329988e-05   2.2095867e-04   2.2510192e-04   4.2168470e-04   4.7005076e-04   1.1758068e-04   1.3077048e-03  -6.6550018e-04  -5.2298037e-05   1.3561174e-03   3.9474573e-04  -2.9518170e-04   7.7716226e-04   9.7429904e-04
   7.6289038e-04   1.4169987e-04   6.9256127e-04  -2.6415440e-04   4.1531657e-05  -2.9584309e-04  -3.3914822e-04   4.7784060e-04  -4.6840901e-04   5.3643610e-04  -5.9176300e-04  -1.8929741e-04  -5.4144848e-04   7.6110248e-04  -1.0799537e-04   1.4606820e-04  -1.7776631e-04  -3.9455830e-04  -5.6920439e-04  -3.8334867e-04  -4.7621329e-04  -7.4504979e-04  -5.7494780e-04   2.4640246e-04   2.4184733e-04  -3.2616532e-04  -4.3558270e-05   5.9314887e-04  -6.1552142e-05   1.4462310e-04  -1.2133506e-03   2.4054972e-04  -8.2299684e-04  -9.4738243e-05   2.5667701e-04   8.7483937e-04  -4.8201022e-05   2.1417467e-04   1.1887580e-04   2.8894769e-04   2.2555969e-04   3.8853286e-05   1.1902141e-03  -8.1492210e-04  -2.0507872e-04   1.2932299e-03   2.8376622e-04  -4.3554464e-04   6.5105286e-04   8.4431941e-04
   4.1977729e-04  -2.1938117e-04   3.1585380e-04  -6.2627724e-04  -2.0834820e-04  -5.2248331e-04  -6.1192090e-04   3.6421168e-04  -7.0217979e-04   2.9083164e-04  -7.6743832e-04  -3.9726077e-04  -6.7415269e-04   6.1907014e-04  -1.9643603e-04   9.2582108e-05  -2.7072948e-04  -4.4992132e-04  -8.1792910e-04  -5.7435170e-04  -7.3709275e-04  -1.0197628e-03  -7.9705776e-04   3.6282445e-06  -4.7443882e-05  -6.4315990e-04  -1.2737943e-04   4.3465616e-04  -1.8889092e-04  -6.1809915e-05  -1.3650594e-03   9.5758776e-05  -1.1991059e-03  -4.5107328e-04   5.6090932e-05   4.4629091e-04  -3.0871856e-04  -1.5241679e-05  -2.4187304e-04  -1.8111178e-04  -2.8634068e-04  -1.6349883e-04   8.5820531e-04  -1.1341309e-03  -3.3834594e-04   1.0573932e-03   2.3268469e-04  -5.6915265e-04   6.1308191e-04   8.9250552e-04
   6.2863581e-04   2.9847977e-05   7.3468749e-04  -2.1691363e-04   1.3596323e-04  -2.4854465e-04  -2.5760758e-04   5.2510464e-04  -4.1373962e-04   6.7484047e-04  -5.5496366e-04  -4.1701398e-05  -4.8565184e-04   8.2273828e-04  -5.5555978e-05   2.2483616e-04  -1.0385512e-04  -3.5111987e-04  -4.4767678e-04  -2.9184637e-04  -3.1098261e-04  -6.1650365e-04  -4.8781728e-04   3.2139156e-04   3.8247791e-04  -1.7186263e-04   4.0546311e-05   6.8372488e-04   5.0003440e-05   2.2418342e-04  -1.1318186e-03   3.0375097e-04  -6.2066223e-04   7.3735107e-05   3.6906183e-04   1.0523760e-03   7.9848047e-05   3.5812016e-04   3.0731331e-04   4.9353373e-04   4.7111485e-04   1.5430311e-04   1.3722546e-03  -5.9023465e-04   8.3889208e-05   1.4488319e-03   3.8430080e-04  -2.7060215e-04   8.1534620e-04   9.6218346e-04
   8.7852671e-04   1.7276497e-04   8.4176217e-04  -1.2176090e-04   1.8706227e-04  -2.1688017e-04  -2.1376630e-04   6.3649449e-04  -4.1669668e-04   6.0635211e-04  -5.4568955e-04  -7.3754469e-05  -4.4612601e-04   8.9950743e-04  -3.0688248e-06   3.2406708e-04  -6.2057130e-05  -2.7397883e-04  -4.7151168e-04  -3.6305207e-04  -4.9531698e-04  -6.8725157e-04  -5.3548842e-04   3.1453517e-04   2.9085911e-04  -2.9100446e-04   5.9459857e-05   6.3480338e-04  -3.9281213e-06   1.7582970e-04  -1.1566930e-03   2.8676967e-04  -7.5002346e-04  -9.0388188e-05   3.0406978e-04   8.6404476e-04  -2.5747613e-05   2.9296632e-04   1.4035060e-04   2.7555876e-04   1.6728109e-04   2.4588702e-05   1.2004382e-03  -7.7693444e-04  -6.4315958e-05   1.3433578e-03   2.8268780e-04  -4.6597005e-04   6.2303653e-04   8.0664601e-04
   3.6795519e-04  -2.7069074e-04   2.5677425e-04  -6.7851524e-04  -2.0007492e-04  -5.5409572e-04  -6.4086006e-04   4.3180006e-04  -7.5764500e-04   2.7399496e-04  -7.9484290e-04  -3.8836629e-04  -6.3404063e-04   6.9934770e-04  -1.4853894e-04   2.1285951e-04  -2.0031503e-04  -3.5993982e-04  -8.0963154e-04  -5.6888582e-04  -7.6701166e-04  -1.0118303e-03  -7.9910108e-04   5.2021249e-05  -1.5700569e-05  -6.7942921e-04  -3.0719464e-05   4.4798429e-04  -1.1242140e-04  -6.8741865e-05  -1.3382309e-03   1.0456415e-04  -1.1840031e-03  -4.7254647e-04   7.8365323e-05   4.5452581e-04  -3.0008302e-04   7.2102004e-05  -2.0473932e-04  -1.1537111e-04   6.6853245e-05  -2.3925213e-05   1.1268368e-03  -8.1792899e-04  -2.4160194e-05   1.3175888e-03   3.5223621e-04  -3.1550170e-04   8.6381665e-04   9.0493384e-04
   8.8766631e-04   1.8441354e-04   8.9262379e-04  -6.0119866e-05   2.5284584e-04  -1.8581921e-04  -1.5921654e-04   6.4955198e-04  -3.9886977e-04   6.6212023e-04  -5.2788871e-04  -3.0059467e-05  -4.0959165e-04   9.3809335e-04   3.4598794e-05   3.8480622e-04  -1.4246943e-05  -2.4694600e-04  -3.8826489e-04  -2.4243875e-04  -3.3823799e-04  -5.9524551e-04  -4.7283043e-04   3.8622413e-04   4.1615230e-04  -1.4413637e-04   1.5604254e-04   7.0841401e-04   1.2336162e-04   2.4081457e-04  -1.1141936e-03   3.0189953e-04  -6.1253185e-04   6.2005915e-05   3.8667343e-04   1.0304411e-03   8.4652980e-05   3.9273829e-04   3.0802999e-04   4.7271568e-04   4.5169209e-04   1.2452069e-04   1.4052308e-03  -5.3243735e-04   1.3966288e-04   1.4801632e-03   3.8059076e-04  -2.9367482e-04   8.2994072e-04   9.1815245e-04
   8.6637744e-04   1.6011568e-04   8.1012322e-04  -1.4168389e-04   1.9723516e-04  -2.1814721e-04  -2.4819045e-04   6.8062439e-04  -4.9913808e-04   5.1988097e-04  -5.7377864e-04  -1.4657497e-04  -4.2055480e-04   9.4276393e-04   4.1965661e-05   4.1213975e-04  -2.7888571e-05  -2.2804423e-04  -5.1773741e-04  -2.8450752e-04  -5.2686146e-04  -7.0722715e-04  -5.6603592e-04   2.8806541e-04   3.0313685e-04  -3.0888023e-04   1.3327306e-04   6.5258966e-04   1.2567926e-04   1.5469213e-04  -1.1662252e-03   2.7256095e-04  -8.2765857e-04  -1.1331754e-04   3.2035907e-04   8.4503833e-04  -4.5778448e-05   3.0098594e-04   1.2016528e-04   2.2847348e-04   9.5834243e-05  -2.9583964e-06   1.1950247e-03  -7.7249535e-04   1.0400541e-05   1.3489465e-03   2.6451467e-04  -4.7181040e-04   6.4817746e-04   7.1449211e-04
   2.9340555e-04  -3.7972417e-04   1.9050535e-04  -7.5312308e-04  -2.2260837e-04  -5.9039064e-04  -6.6944840e-04   4.2937187e-04  -7.7840773e-04   2.0265770e-04  -8.3607348e-04  -4.4565182e-04  -6.2816223e-04   7.0029614e-04  -1.2364579e-04   2.6691120e-04  -2.0488437e-04  -3.5384169e-04  -8.3689712e-04  -5.2408001e-04  -7.7499350e-04  -1.0154793e-03  -8.1891340e-04   7.3886134e-05  -1.3334932e-05  -6.7914382e-04   8.5055826e-06   4.5051822e-04  -7.8036239e-05  -6.7978202e-05  -1.3191678e-03   9.2327537e-05  -1.0511731e-03  -3.9746234e-04   1.7610080e-04   6.7731494e-04  -1.8437806e-04   2.1411835e-04   6.3298954e-05   2.1116259e-04   3.8918879e-04   6.4373104e-05   1.3631511e-03  -5.6131266e-04   1.4738226e-04   1.4757876e-03   3.4182679e-04  -3.4267153e-04   8.4881211e-04   8.8865974e-04
   8.9601823e-04   1.9314786e-04   8.8789163e-04  -5.9258284e-05   2.7078844e-04  -1.9982657e-04  -1.4794164e-04   6.8944239e-04  -4.3324320e-04   5.8383337e-04  -5.5589469e-04  -8.0238096e-05  -3.9170688e-04   9.7840279e-04   6.5337212e-05   4.3773770e-04  -2.3352486e-05  -2.3487378e-04  -4.6650541e-04  -3.3739529e-04  -4.3702073e-04  -6.3579017e-04  -4.8906333e-04   3.6358490e-04   3.7066283e-04  -1.7921832e-04   1.5336201e-04   6.9584232e-04   1.4049299e-04   2.2437463e-04  -1.1490664e-03   2.6615598e-04  -6.6366396e-04   2.8512473e-05   3.8872150e-04   1.0579764e-03   7.0761300e-05   3.9657712e-04   3.2803716e-04   4.4706088e-04   4.3729911e-04   1.0463352e-04   1.4706719e-03  -4.9652590e-04   2.2019596e-04   1.5512127e-03   3.7021955e-04  -2.2239155e-04   8.3030807e-04   8.7451685e-04
   7.4903434e-04   3.9725302e-05   7.1293017e-04  -2.2366949e-04   1.4337996e-04  -2.8243673e-04  -2.9172972e-04   6.4742577e-04  -6.0625718e-04   4.1082109e-04  -6.4914225e-04  -2.2288250e-04  -4.5427633e-04   9.1796694e-04   3.7849790e-05   4.1144810e-04  -7.2754112e-05  -2.6117830e-04  -6.5244531e-04  -3.8629444e-04  -5.4334174e-04  -7.7896944e-04  -5.9394696e-04   2.4524977e-04   2.9349572e-04  -3.2204200e-04   1.3842921e-04   6.4644025e-04   8.2640727e-05   1.5542714e-04  -1.2091369e-03   2.0275329e-04  -8.7763829e-04  -1.3966093e-04   2.9207396e-04   8.2423585e-04  -4.4122047e-05   2.9154305e-04   1.3250098e-04   2.1174971e-04   8.6151689e-05  -1.1436202e-04   1.2356467e-03  -7.6374447e-04  -6.9243921e-05   1.3428512e-03   2.0487259e-04  -4.3853800e-04   4.8241942e-04   7.1775320e-04
   1.6615502e-04  -4.2328431e-04   9.0332411e-05  -8.2329405e-04  -2.6583741e-04  -6.4737711e-04  -7.0762960e-04   3.7300284e-04  -9.0014836e-04   2.0836906e-04  -8.7675854e-04  -4.1784559e-04  -6.0501578e-04   7.0281693e-04  -1.1993114e-04   2.8255349e-04  -2.0011689e-04  -3.5735450e-04  -6.4488529e-04  -3.4167126e-04  -4.9722061e-04  -7.6956645e-04  -5.3255900e-04   3.5829880e-04   3.5354399e-04  -2.1976810e-04   1.2752748e-04   7.0507091e-04   1.1417545e-04   2.1227638e-04  -1.1672901e-03   2.2888904e-04  -6.2110985e-04   1.0327251e-04   4.1597357e-04   1.1589511e-03   1.4677006e-04   4.3782714e-04   4.5962524e-04   5.9047405e-04   6.2848127e-04   1.1010459e-04   1.6097468e-03  -3.9113176e-04   1.7192222e-04   1.5978329e-03   3.6332422e-04  -4.1940904e-05   8.2927826e-04   1.0618946e-03
   9.5596397e-04   2.8659901e-04   9.3085191e-04  -2.2343856e-06   3.0680743e-04  -1.5712452e-04  -1.1924568e-04   7.0951617e-04  -5.4979831e-04   5.1740679e-04  -5.6338467e-04  -1.3375931e-04  -4.0215894e-04   9.6682581e-04   1.0365529e-04   4.3893632e-04  -4.8323491e-05  -2.4595365e-04  -5.2386732e-04  -2.9568493e-04  -3.5245650e-04  -6.4855011e-04  -4.3856827e-04   4.0542451e-04   4.6915241e-04  -1.1554004e-04   1.9645468e-04   8.0803334e-04   2.0387972e-04   3.1635448e-04  -1.1395988e-03   2.7086263e-04  -6.4003939e-04   1.1311145e-04   4.5524433e-04   1.1232974e-03   1.7772167e-04   4.4765967e-04   4.3471562e-04   5.3430040e-04   4.9136439e-04   3.2540211e-05   1.5556035e-03  -4.8559389e-04   8.2343213e-05   1.5017891e-03   3.2151121e-04  -1.2009701e-04   6.9334463e-04   9.2370156e-04
   6.1280566e-04   4.3505152e-05   5.7564641e-04  -3.4545019e-04   6.3306346e-05  -3.6912257e-04  -3.6901576e-04   5.8200222e-04  -7.3657330e-04   2.9750017e-04  -7.0924277e-04  -3.4141543e-04  -5.2842393e-04   8.6234591e-04   1.2623598e-05   3.5659058e-04  -1.5599647e-04  -3.1500781e-04  -7.3472108e-04  -4.5048786e-04  -6.7735999e-04  -8.6786185e-04  -6.5920048e-04   2.0477944e-04   1.9984612e-04  -3.9626233e-04   1.1097343e-04   6.3871511e-04   1.0802672e-04   1.4030206e-04  -1.3020211e-03   1.2102860e-04  -9.3314500e-04  -2.0852219e-04   2.6592915e-04   7.4054667e-04  -9.2769398e-05   2.0798649e-04   7.7933728e-05   7.9065219e-05  -3.0402689e-05  -1.5615014e-04   1.1907592e-03  -8.6179015e-04  -1.0868142e-04   1.2705065e-03   2.7686002e-04  -2.4134532e-04   6.7781744e-04   8.8476000e-04
   7.1140024e-04   7.2855793e-05   8.8199397e-04  -7.1767776e-05   3.2954713e-04  -1.7907255e-04  -1.1189585e-04   6.7884120e-04  -4.5819982e-04   5.8081961e-04  -5.4698077e-04  -9.3621929e-05  -3.8268516e-04   1.0087570e-03   1.0041879e-04   4.2495166e-04  -5.3249201e-05  -2.7533146e-04  -4.4723385e-04  -2.9056077e-04  -2.9911989e-04  -5.6462921e-04  -3.8467447e-04   4.3758703e-04   5.4116134e-04  -7.4966974e-06   2.4124625e-04   8.2586944e-04   2.3995075e-04   3.7610560e-04  -1.1235441e-03   2.5635216e-04  -4.9863546e-04   2.1246423e-04   5.0704327e-04   1.2110289e-03   2.3653700e-04   4.7117737e-04   5.4574542e-04   5.8617891e-04   6.1524636e-04   9.0392132e-05   1.6101879e-03  -4.1822414e-04   1.6815125e-04   1.5485892e-03   4.4754372e-04  -3.6761703e-05   8.6851191e-04   1.0224493e-03
   9.1962545e-04   2.4897332e-04   9.3915692e-04  -3.1836815e-05   3.2968179e-04  -1.7254781e-04  -1.1987479e-04   7.3237903e-04  -4.8823873e-04   4.8358267e-04  -5.6136528e-04  -1.6651880e-04  -3.8985992e-04   1.0332114e-03   1.1709632e-04   4.4003638e-04  -7.3172334e-05  -2.8656458e-04  -5.3326355e-04  -3.5474598e-04  -4.7704286e-04  -6.5463496e-04  -4.8882514e-04   3.6084687e-04   4.1512444e-04  -1.2636051e-04   2.0164314e-04   7.7916135e-04   2.1793044e-04   2.9998616e-04  -1.1878667e-03   1.9102238e-04  -6.8137003e-04   4.0566054e-05   4.1432577e-04   1.0304681e-03   1.2151869e-04   3.3176405e-04   3.5349641e-04   3.3621365e-04   3.0064900e-04  -2.6066700e-05   1.4232042e-03  -6.3567568e-04   5.8660311e-07   1.4020636e-03   3.3829000e-04  -2.5048814e-04   6.4322515e-04   8.0162927e-04
   3.8699334e-04  -2.2678076e-04   3.3244945e-04  -5.9098145e-04  -9.1641625e-05  -5.3066766e-04  -5.3964101e-04   4.9674703e-04  -7.6000992e-04   1.5823444e-04  -8.0538949e-04  -4.6589746e-04  -6.1020005e-04   7.7216752e-04  -6.6631241e-05   2.8311665e-04  -2.4491042e-04  -4.0543775e-04  -8.7462633e-04  -6.2510476e-04  -7.6865935e-04  -9.8000444e-04  -7.4582221e-04   1.3704665e-04   8.5916305e-05  -5.3478905e-04   5.6689114e-05   5.4392306e-04  -1.1066329e-05   4.8456171e-05  -1.3910738e-03  -1.3182671e-05  -1.0728550e-03  -3.4831939e-04   1.6318476e-04   6.3050305e-04  -1.5914800e-04   8.1873804e-05   6.0674935e-05   1.6692802e-05   3.3711889e-04  -2.5888065e-05   1.4227639e-03  -6.1034388e-04   1.1856970e-04   1.3403971e-03   4.2691830e-04  -9.9282574e-05   9.0199581e-04   9.1572409e-04
   9.8758470e-04   3.0906845e-04   1.0202853e-03   4.0838178e-05   3.8101414e-04  -1.4165614e-04  -6.4705018e-05   6.9306581e-04  -4.2778015e-04   5.6319061e-04  -5.3019234e-04  -1.0380481e-04  -3.8800162e-04   1.0250165e-03   9.7489952e-05   4.0380959e-04  -8.4023290e-05  -3.3351098e-04  -4.5649798e-04  -2.3465072e-04  -3.1221224e-04  -5.7351106e-04  -3.9559766e-04   4.4071485e-04   4.9711473e-04  -2.6930897e-05   1.9861141e-04   8.0146734e-04   1.2499897e-04   3.6332858e-04  -1.1805714e-03   1.5430989e-04  -5.3085241e-04   1.3957739e-04   4.5289489e-04   1.1741704e-03   1.9355412e-04   3.2398530e-04   5.0238275e-04   4.9022352e-04   5.8697438e-04   1.3402055e-04   1.6351254e-03  -4.6124496e-04   1.6308943e-04   1.4423880e-03   4.9052597e-04   3.5043799e-05   8.2550978e-04   9.1648696e-04
   8.5684535e-04   2.2045770e-04   8.5615244e-04  -1.1626387e-04   2.5450331e-04  -2.2061128e-04  -2.1586417e-04   6.5435149e-04  -5.6806911e-04   4.1752713e-04  -6.0442009e-04  -2.4242252e-04  -4.7530929e-04   9.3496381e-04   5.2306692e-05   3.3729649e-04  -1.5378490e-04  -3.8323642e-04  -6.3217222e-04  -3.9736484e-04  -4.6127019e-04  -7.3249504e-04  -5.3263007e-04   3.0995996e-04   3.1385431e-04  -2.0464479e-04   1.4507514e-04   7.1987434e-04   9.2761213e-05   2.4349443e-04  -1.2752939e-03   4.2224947e-05  -7.9132384e-04  -7.4053954e-05   3.2300848e-04   9.3798479e-04   4.5916353e-05   1.5132586e-04   2.3836002e-04   1.6883759e-04   1.5423070e-04  -4.9136772e-05   1.3338785e-03  -8.1587792e-04  -9.5880503e-05   1.1941621e-03   3.0089932e-04  -2.4405122e-04   4.8794516e-04   6.8334973e-04
   1.9248860e-04  -4.0490643e-04   1.3464295e-04  -8.2378637e-04  -2.5378197e-04  -6.4913905e-04  -7.2488753e-04   3.3187694e-04  -8.6560793e-04   5.4258973e-05  -8.8157848e-04  -5.9877679e-04  -7.3973904e-04   6.3215487e-04  -1.7208507e-04   1.2812550e-04  -3.7329172e-04  -5.3007557e-04  -9.7038562e-04  -7.0145319e-04  -8.4275048e-04  -1.1001069e-03  -8.1101706e-04  -7.8957128e-06  -1.9886340e-05  -6.8672054e-04  -5.1466250e-05   4.6067676e-04  -1.8264746e-04  -3.4714998e-05  -1.4974660e-03  -1.8700505e-04  -1.2780183e-03  -5.1251589e-04   3.6267873e-05   4.4189271e-04  -2.6488781e-04  -1.6622499e-04  -1.6721802e-04  -2.9689755e-04  -5.9968585e-05  -1.5530176e-04   1.1969405e-03  -9.3243521e-04  -2.1189789e-04   1.0972102e-03   3.0977704e-04  -2.3632807e-04   6.3717354e-04   7.6800078e-04
   6.8248593e-04   8.6976419e-05   7.5415993e-04  -2.5291558e-04   1.6025516e-04  -3.1720180e-04  -2.8423633e-04   4.9529842e-04  -6.2025600e-04   4.3233833e-04  -6.6763069e-04  -2.6760064e-04  -5.8722537e-04   7.7402563e-04  -7.9219957e-05   1.5606932e-04  -2.7690822e-04  -5.2212848e-04  -5.9585361e-04  -4.1250957e-04  -4.0708893e-04  -7.2166556e-04  -5.2249985e-04   2.9757930e-04   3.0275047e-04  -2.0728985e-04   6.3397900e-05   6.3982490e-04  -6.8716654e-05   2.3737767e-04  -1.3392837e-03  -6.8995680e-05  -6.7709887e-04  -6.5385779e-05   2.6106538e-04   9.9885999e-04   6.0880855e-05   6.0459715e-05   2.9956314e-04   2.3273600e-04   3.8838081e-04  -4.0239829e-05   1.4817817e-03  -7.0602034e-04  -8.7753622e-05   1.1991484e-03   2.9383734e-04  -1.1911066e-04   6.5130921e-04   7.3778827e-04
   5.6715886e-04   2.4841254e-05   5.9338630e-04  -4.1802507e-04   1.8569024e-05  -4.1419454e-04  -4.4608620e-04   4.0658613e-04  -7.4009108e-04   2.9388114e-04  -7.4586476e-04  -3.9697613e-04  -6.7483058e-04   6.6676474e-04  -1.3321410e-04   7.1908202e-05  -3.7052721e-04  -5.7691801e-04  -7.7007810e-04  -5.3238211e-04  -5.4376514e-04  -8.5722347e-04  -6.7790091e-04   1.3237436e-04   1.0821784e-04  -3.8897144e-04  -1.9758396e-05   5.4250605e-04  -1.7424492e-04   1.0635234e-04  -1.4414280e-03  -1.7910750e-04  -9.8317093e-04  -2.9397567e-04   1.3721621e-04   7.4982183e-04  -8.9206296e-05  -1.1262439e-04   6.1741688e-05  -6.3990061e-05  -1.3896980e-05  -2.2323881e-04   1.1653291e-03  -1.0328966e-03  -2.5052801e-04   9.4785733e-04   1.4765044e-04  -3.8330446e-04   3.5635242e-04   5.2229059e-04
  -3.8464412e-05  -5.5181084e-04  -6.9098394e-05  -1.0495164e-03  -4.4470213e-04  -8.2353508e-04  -9.3169062e-04   1.1986570e-04  -1.0548417e-03  -2.5442287e-05  -1.0104700e-03  -6.9853617e-04  -9.2061644e-04   3.7620391e-04  -3.3318618e-04  -1.1822981e-04  -5.7765911e-04  -7.3512131e-04  -1.0967274e-03  -8.0484065e-04  -8.9590752e-04  -1.2024752e-03  -9.4772398e-04  -8.5820400e-05  -2.1956480e-04  -8.1289193e-04  -2.1529810e-04   3.0600946e-04  -3.4643590e-04  -1.4930076e-04  -1.6496257e-03  -3.9962283e-04  -1.4134212e-03  -6.8316079e-04  -9.9240737e-05   4.1055444e-04  -3.4010570e-04  -3.1985663e-04  -1.5898154e-04  -2.9019720e-04   1.6999584e-04  -1.6941049e-04   1.2188874e-03  -9.4334350e-04  -1.8514470e-04   9.9383492e-04   2.1943584e-04  -2.5204211e-04   5.5752281e-04   6.4988813e-04
   5.2870368e-04  -6.4738413e-07   5.9979985e-04  -4.1011677e-04  -5.0987287e-06  -4.6791183e-04  -4.7414092e-04   2.9204748e-04  -7.4032991e-04   3.8518314e-04  -7.6989230e-04  -3.0951944e-04  -7.3853356e-04   5.6683057e-04  -2.2264097e-04  -5.7678084e-05  -4.6927598e-04  -7.0592767e-04  -7.4154773e-04  -5.9229316e-04  -5.1278202e-04  -8.1513129e-04  -6.7914143e-04   1.9887036e-04   1.3997905e-04  -3.2552393e-04  -1.3364948e-04   4.9694267e-04  -2.7470253e-04   1.0742513e-04  -1.5027567e-03  -2.7308080e-04  -8.8127615e-04  -2.6057786e-04   1.0511116e-04   8.3246006e-04  -7.4051386e-05  -1.6151481e-04   1.4440161e-04   4.4728331e-05   3.0588976e-04  -8.1528058e-05   1.2967389e-03  -8.8284287e-04  -1.4682805e-04   1.0191788e-03   2.2430679e-04  -3.1713038e-04   5.0056505e-04   6.0846348e-04
   3.6153488e-04  -1.1816942e-04   3.9504431e-04  -6.0108805e-04  -1.5852110e-04  -6.0100877e-04  -6.3788856e-04   2.2355173e-04  -8.0026744e-04   2.5332780e-04  -8.4861304e-04  -4.2261026e-04  -8.3306781e-04   4.7155269e-04  -2.9705319e-04  -1.3658925e-04  -5.4721237e-04  -7.5462752e-04  -8.4960280e-04  -6.8719510e-04  -6.1820913e-04  -9.4332511e-04  -8.0561626e-04   8.6868655e-05  -3.4256991e-05  -5.2421348e-04  -2.2815580e-04   3.5990705e-04  -3.4898546e-04  -2.1902013e-05  -1.5964658e-03  -3.6344503e-04  -1.1058555e-03  -4.7908173e-04  -3.9356353e-05   5.7743856e-04  -2.4495463e-04  -3.2252751e-04  -1.1887083e-04  -3.0812065e-04  -1.3883712e-04  -2.5086687e-04   9.7298651e-04  -1.2383132e-03  -3.6690416e-04   7.5662945e-04   7.5851240e-05  -5.5875041e-04   1.7095389e-04   3.5097965e-04
  -2.4081058e-04  -7.1811932e-04  -2.6402192e-04  -1.2433656e-03  -6.0347066e-04  -9.8651194e-04  -1.1112299e-03  -3.7746628e-05  -1.1030602e-03   1.0911777e-04  -1.0819210e-03  -5.6225236e-04  -9.7667356e-04   2.4807468e-04  -4.6263874e-04  -2.6602621e-04  -6.6781620e-04  -8.4377581e-04  -8.1912125e-04  -6.0197618e-04  -5.0205260e-04  -9.1571477e-04  -7.7536743e-04   1.3235086e-04   1.5368238e-05  -4.4387882e-04  -2.3434852e-04   3.8210838e-04  -4.1284395e-04  -3.2255960e-07  -1.5611016e-03  -3.7892169e-04  -9.1343519e-04  -2.8501681e-04   3.5188918e-05   8.4350863e-04  -1.0431291e-04  -2.1396401e-04   1.4027883e-04   4.3001171e-05   4.0477651e-04  -4.9144375e-05   1.2497583e-03  -8.6472405e-04  -1.0855185e-04   9.9773740e-04   2.4477785e-04  -2.9400282e-04   5.0212193e-04   6.0886564e-04
   5.0727453e-04   1.8974908e-05   5.4451392e-04  -4.6959062e-04  -8.1707105e-05  -5.4187677e-04  -5.7174364e-04   2.3641587e-04  -7.2295312e-04   4.0877727e-04  -7.8747567e-04  -2.7883277e-04  -8.1800978e-04   4.6276621e-04  -3.1586085e-04  -1.9190465e-04  -5.4828404e-04  -7.8154617e-04  -7.1741297e-04  -5.6871935e-04  -5.7222188e-04  -8.1080984e-04  -7.4145762e-04   1.7939669e-04   4.9291924e-05  -4.1358086e-04  -2.4750279e-04   3.8901140e-04  -4.4195348e-04   3.0219540e-05  -1.5565695e-03  -3.7021880e-04  -1.0021683e-03  -3.5040276e-04   1.7073042e-05   7.7188259e-04  -1.5378432e-04  -2.7112541e-04   2.4985182e-05  -9.3004790e-05   1.7782456e-04  -1.2826132e-04   1.1268053e-03  -1.0294528e-03  -2.1703989e-04   9.4613887e-04   1.8985955e-04  -4.1846224e-04   3.7017805e-04   5.0796458e-04
   1.4564089e-04  -2.8945302e-04   1.6373364e-04  -8.4285252e-04  -3.5320845e-04  -7.6470600e-04  -8.5109635e-04   1.0206674e-04  -9.4514195e-04   1.9582735e-04  -9.4520021e-04  -4.6134752e-04  -9.6915045e-04   2.9145926e-04  -4.2544454e-04  -2.9846685e-04  -6.4493011e-04  -8.5681572e-04  -9.5489592e-04  -7.3869072e-04  -7.8290689e-04  -1.0660110e-03  -9.2814001e-04  -5.6338682e-05  -2.2178637e-04  -7.2691054e-04  -3.7034546e-04   2.0385951e-04  -5.5859855e-04  -1.7785751e-04  -1.6926683e-03  -5.2488717e-04  -1.3791352e-03  -7.2006503e-04  -1.9741802e-04   3.6303082e-04  -4.1242104e-04  -4.9079175e-04  -3.5531769e-04  -5.4424931e-04  -3.0645489e-04  -3.3296604e-04   8.2238513e-04  -1.3364030e-03  -3.2203479e-04   7.2270021e-04   1.0909166e-04  -5.5536063e-04   4.1225165e-04   5.6573912e-04
   3.3023921e-04  -1.0391893e-04   5.3977570e-04  -4.9074530e-04  -6.8003508e-05  -5.3081708e-04  -5.7680294e-04   1.9824762e-04  -6.8273512e-04   5.4507219e-04  -7.8035885e-04  -1.4387461e-04  -8.3589618e-04   4.2180350e-04  -3.4312668e-04  -2.5835627e-04  -5.5325869e-04  -8.0346630e-04  -6.1474374e-04  -4.8372371e-04  -3.9160636e-04  -7.1251864e-04  -6.6961348e-04   2.1321871e-04   6.8280598e-05  -3.2091499e-04  -2.6432460e-04   3.9260116e-04  -4.0801321e-04   5.4401135e-05  -1.5217753e-03  -3.6065071e-04  -8.5975416e-04  -2.9081426e-04   3.2534594e-05   8.7483769e-04  -8.3927771e-05  -2.3026603e-04   9.5303978e-05   1.8816516e-05   3.4881715e-04  -7.0918912e-05   1.2231466e-03  -8.9676044e-04  -9.9964003e-05   1.0782973e-03   1.8160188e-04  -4.0303252e-04   4.6057755e-04   6.1470567e-04
   4.5906648e-04  -5.3858603e-05   5.3137029e-04  -5.0867855e-04  -1.0920203e-04  -5.3777103e-04  -6.3269213e-04   2.1137905e-04  -8.1072550e-04   4.5539203e-04  -8.2358066e-04  -2.0536566e-04  -8.7352144e-04   3.8578492e-04  -3.5065989e-04  -2.5928015e-04  -5.5811490e-04  -7.8586244e-04  -7.2074658e-04  -5.5693946e-04  -4.4946998e-04  -8.1189472e-04  -7.9147832e-04   7.9081037e-05  -3.6672285e-05  -4.6819935e-04  -3.3854201e-04   3.2487084e-04  -4.7893441e-04  -3.7639653e-05  -1.5767860e-03  -4.2549675e-04  -1.0574340e-03  -4.7136040e-04  -5.0800030e-05   6.5861602e-04  -2.3105067e-04  -3.1441645e-04  -1.0798526e-04  -2.0896300e-04   6.2636187e-05  -2.3049838e-04   1.0514278e-03  -1.1033301e-03  -2.3876237e-04   9.2794903e-04   5.3065192e-05  -5.5759784e-04   2.1021519e-04   4.8993964e-04
  -6.2380052e-05  -5.0184049e-04  -8.2131111e-05  -1.1069489e-03  -5.2382203e-04  -8.9801097e-04  -1.0646929e-03  -3.2416097e-05  -1.1305525e-03   1.3517569e-04  -1.0673056e-03  -5.0275988e-04  -1.1057422e-03   1.3130927e-04  -5.0895882e-04  -4.1481570e-04  -7.3726976e-04  -8.7593845e-04  -1.0469219e-03  -8.0828340e-04  -7.5819081e-04  -1.0944005e-03  -1.0078418e-03  -4.4308817e-05  -2.6691644e-04  -7.7438517e-04  -4.0732275e-04   1.8827760e-04  -5.8179756e-04  -2.0331563e-04  -1.6312783e-03  -4.8886560e-04  -1.1512204e-03  -5.2232214e-04  -7.1530361e-05   7.4015884e-04  -2.3542534e-04  -2.8128072e-04  -8.2526794e-06  -2.3582157e-05   4.7342863e-04  -3.4142657e-05   1.2916841e-03  -8.1117271e-04  -3.1724227e-05   1.1141960e-03   2.0837224e-04  -3.6691676e-04   4.7133595e-04   7.0479739e-04
   6.3369982e-04   1.6365611e-04   7.1264489e-04  -3.3548306e-04   1.8959448e-05  -4.3308688e-04  -5.0147536e-04   2.6171439e-04  -7.6322467e-04   5.9982500e-04  -7.4894470e-04  -4.9465762e-05  -8.4995915e-04   3.9717718e-04  -3.2466961e-04  -2.5519088e-04  -5.2655826e-04  -7.3829299e-04  -6.3335052e-04  -4.9205887e-04  -3.6201652e-04  -7.0829497e-04  -6.9759553e-04   1.8683002e-04   7.3725991e-05  -3.6286627e-04  -2.9021612e-04   3.7936773e-04  -4.0649387e-04   2.1074537e-05  -1.5021091e-03  -3.5138524e-04  -8.9358672e-04  -3.2811335e-04   3.9840128e-05   8.4243255e-04  -1.0821348e-04  -1.7217355e-04   6.8527763e-05   2.3537767e-05   3.8758572e-04  -7.9155107e-06   1.3011370e-03  -8.3223375e-04  -6.6585504e-05   1.1309680e-03   1.9733529e-04  -3.8893972e-04   4.1611888e-04   6.6725188e-04
   3.9275005e-04  -1.0677916e-04   4.0237853e-04  -6.4741418e-04  -2.0250797e-04  -5.9813185e-04  -7.3934416e-04   1.6593598e-04  -9.0881286e-04   4.0531889e-04  -8.7543140e-04  -2.0662912e-04  -9.4659347e-04   2.8337422e-04  -3.9569347e-04  -2.9093202e-04  -5.8614154e-04  -7.5581478e-04  -8.6307176e-04  -6.3338346e-04  -5.3825852e-04  -8.9905225e-04  -8.6443045e-04   2.3035860e-05  -1.6614326e-04  -6.0425734e-04  -3.6360873e-04   2.7995778e-04  -5.0983985e-04  -1.2239450e-04  -1.6072295e-03  -4.4766944e-04  -1.1501566e-03  -5.8176840e-04  -9.8959317e-05   4.9441692e-04  -3.1911294e-04  -3.3813500e-04  -2.8060289e-04  -3.5963839e-04  -1.6060339e-04  -2.5741238e-04   9.1472722e-04  -1.2049015e-03  -3.8831992e-04   8.4260158e-04  -3.3961791e-05  -6.8673567e-04   1.0084073e-05   3.3091276e-04
  -2.1661787e-04  -7.3082407e-04  -1.8640875e-04  -1.2583579e-03  -5.3327536e-04  -8.7907421e-04  -1.0690397e-03  -3.8157294e-05  -9.4145455e-04   5.3334940e-04  -9.2392112e-04  -1.1007794e-04  -9.3962235e-04   2.4820658e-04  -4.4041191e-04  -3.0942331e-04  -5.9825520e-04  -7.6465972e-04  -7.0104329e-04  -4.4977313e-04  -3.4386571e-04  -7.3676347e-04  -7.2465645e-04   2.4156339e-04   5.7646375e-05  -3.7456755e-04  -3.1088077e-04   3.4792410e-04  -4.3512645e-04  -1.2338777e-05  -1.5212004e-03  -3.7090550e-04  -8.3894789e-04  -2.9216832e-04   2.5907713e-05   8.4516127e-04  -1.3104118e-04  -1.5215047e-04   6.4197360e-05   4.2971882e-05   4.3497729e-04   5.8929432e-05   1.2836837e-03  -7.7909924e-04  -7.0442737e-05   1.1499627e-03   2.0725999e-04  -3.9565261e-04   4.2861036e-04   5.4312852e-04
   4.7615485e-04  -4.8901722e-05   4.9721828e-04  -5.4048700e-04  -1.1583848e-04  -5.1987136e-04  -6.4555387e-04   2.2264665e-04  -7.9155213e-04   5.5100804e-04  -8.0721453e-04  -4.5282333e-05  -8.7455130e-04   3.8245940e-04  -3.5011664e-04  -1.9915889e-04  -5.2543869e-04  -6.8398286e-04  -7.1996037e-04  -5.2231830e-04  -4.4322031e-04  -7.5072062e-04  -7.5833913e-04   1.9702992e-04   1.1739795e-05  -4.4550456e-04  -2.7921348e-04   3.4681405e-04  -4.3508603e-04  -2.9995304e-05  -1.5309943e-03  -3.6636289e-04  -9.8458317e-04  -3.9575598e-04  -1.0861543e-05   7.0743542e-04  -1.8981381e-04  -2.1767091e-04  -8.9691617e-05  -1.5573693e-04   1.2054780e-04  -3.9981755e-05   1.0981490e-03  -9.7372767e-04  -1.7326656e-04   1.0301579e-03   1.4036222e-04  -6.1663648e-04   2.5234531e-04   3.9264068e-04
   1.0791241e-04  -3.7016033e-04   9.8751152e-05  -9.2937518e-04  -3.9368030e-04  -7.8521244e-04  -9.4294042e-04   1.0098178e-04  -9.5697254e-04   2.8077155e-04  -9.7258389e-04  -2.8891934e-04  -1.0096626e-03   2.3203557e-04  -4.7315916e-04  -2.6817998e-04  -6.2500569e-04  -7.4399571e-04  -9.9801051e-04  -6.8699016e-04  -7.2925421e-04  -1.0416617e-03  -9.8706677e-04  -1.5547377e-05  -2.8669141e-04  -8.1091467e-04  -3.8245282e-04   1.6571510e-04  -5.6137628e-04  -2.6617167e-04  -1.6677757e-03  -5.0626841e-04  -1.3673308e-03  -7.5500895e-04  -2.2363057e-04   2.6331274e-04  -4.8136554e-04  -4.3890151e-04  -4.5510891e-04  -5.9426459e-04  -1.4217284e-04  -1.4464282e-04   9.0169755e-04  -1.0876703e-03  -1.4668651e-04   9.7061461e-04   1.9581467e-04  -6.0031144e-04   3.5886664e-04   4.6730516e-04
   4.8621453e-04  -7.3346513e-05   5.9142557e-04  -4.5349158e-04  -4.4058415e-05  -4.9641728e-04  -5.6710601e-04   2.6897891e-04  -7.1275694e-04   5.9190800e-04  -7.8695320e-04   1.7658085e-05  -8.4781554e-04   4.1679907e-04  -3.5072514e-04  -1.5381820e-04  -4.8809513e-04  -6.6033530e-04  -6.7419064e-04  -5.1740662e-04  -3.8523527e-04  -7.3139113e-04  -7.5646624e-04   2.4614649e-04   1.8425724e-05  -4.1400056e-04  -2.6232272e-04   3.3706788e-04  -3.9015463e-04  -3.3639528e-05  -1.5185183e-03  -3.5056597e-04  -9.2398172e-04  -3.4177257e-04  -1.5609075e-05   7.4051844e-04  -2.0188034e-04  -1.8418535e-04  -5.1486248e-05  -1.1369392e-04   2.2082700e-04   2.7280485e-05   1.1958526e-03  -8.4179163e-04  -4.1326664e-05   1.1083480e-03   2.4108445e-04  -5.0660007e-04   3.7564299e-04   4.4065079e-04
   3.8758302e-04  -1.7792328e-04   4.5674006e-04  -5.8373995e-04  -1.4465912e-04  -5.7751196e-04  -6.6462194e-04   2.6537484e-04  -7.8454963e-04   4.5721314e-04  -8.6222804e-04  -7.2002760e-05  -8.9240441e-04   3.8265204e-04  -3.6750600e-04  -1.3391121e-04  -5.1031623e-04  -6.6179456e-04  -8.0728909e-04  -5.4527266e-04  -5.9382798e-04  -8.6333393e-04  -8.4110495e-04   1.7161024e-04  -6.3135354e-05  -5.7047646e-04  -2.8922237e-04   2.6718018e-04  -4.5921208e-04  -1.1565629e-04  -1.5685195e-03  -3.9466325e-04  -1.0604836e-03  -5.0540006e-04  -9.0105132e-05   5.7605596e-04  -3.1293955e-04  -2.7566493e-04  -2.2518392e-04  -3.2971051e-04  -1.1736796e-04  -1.0768740e-04   9.4165304e-04  -1.0902144e-03  -2.8701182e-04   9.4845670e-04   6.4418484e-05  -7.3902309e-04   8.8924236e-05   2.4386373e-04
  -1.5832040e-04  -6.8611361e-04  -1.3402339e-04  -1.1371039e-03  -5.2191009e-04  -9.3182962e-04  -1.0636648e-03   4.5789238e-05  -1.0725285e-03   2.7405185e-04  -1.0733928e-03  -2.3414055e-04  -1.0013297e-03   2.3404938e-04  -4.8605684e-04  -2.1153984e-04  -5.8583956e-04  -7.2046410e-04  -8.1488473e-04  -5.4727186e-04  -4.7546069e-04  -8.5295492e-04  -7.8297011e-04   2.6932475e-04  -1.0442970e-05  -4.5043876e-04  -2.7644492e-04   3.2028044e-04  -3.8233722e-04  -5.4621923e-05  -1.5092419e-03  -3.3312544e-04  -9.2818239e-04  -2.4122068e-04   3.6335248e-05   8.5174362e-04  -1.3763526e-04  -9.9061581e-05   7.9369820e-05   9.7466313e-05   4.3740135e-04   1.4120960e-04   1.3262418e-03  -6.8605813e-04   3.4728913e-05   1.2233147e-03   2.2377189e-04  -4.0056781e-04   4.1690993e-04   5.3125445e-04
   5.4091302e-04  -2.8634999e-05   6.3634559e-04  -3.7881662e-04  -4.7462968e-06  -4.5788559e-04  -5.0542160e-04   3.5809694e-04  -7.7722943e-04   5.2818336e-04  -8.1608229e-04   1.6149757e-05  -8.1591547e-04   4.8383730e-04  -2.9665232e-04  -4.6135552e-05  -4.2941942e-04  -5.9137418e-04  -7.2398002e-04  -5.5481028e-04  -5.2669982e-04  -7.7459798e-04  -7.2310783e-04   2.5551254e-04   1.2132977e-04  -3.9391659e-04  -1.9844064e-04   3.9167446e-04  -3.3131661e-04   3.2920205e-05  -1.4967633e-03  -2.9955842e-04  -9.0140785e-04  -2.6455396e-04   5.3812506e-05   7.9199602e-04  -1.2460430e-04  -9.6918011e-05   3.6139616e-05  -5.3938925e-06   2.5371270e-04   1.8449804e-05   1.2718814e-03  -7.9014682e-04  -1.0924261e-04   1.1869076e-03   1.6746868e-04  -5.1075080e-04   2.4972015e-04   4.1336840e-04
   1.8761470e-04  -3.4922140e-04   2.7569765e-04  -7.1752805e-04  -2.3437050e-04  -6.7525677e-04  -7.4381294e-04   2.5852860e-04  -9.8724337e-04   2.9562027e-04  -9.8248140e-04  -1.9036215e-04  -9.3765697e-04   3.5635507e-04  -3.8421177e-04  -1.1002716e-04  -5.1600882e-04  -6.3189131e-04  -9.6553896e-04  -7.3973124e-04  -7.3526520e-04  -1.0263253e-03  -9.3169470e-04   5.0109658e-05  -1.7177695e-04  -6.6243083e-04  -2.9036569e-04   2.5993600e-04  -4.0925544e-04  -1.4453268e-04  -1.6193761e-03  -4.2721484e-04  -1.2238048e-03  -5.7446986e-04  -1.2191454e-04   4.2480748e-04  -3.5996715e-04  -2.6117259e-04  -2.3577407e-04  -2.9602298e-04   1.5896068e-04   8.9130317e-06   1.2236707e-03  -8.1011286e-04  -1.2875242e-04   1.1757277e-03   1.9286081e-04  -3.4308920e-04   4.1002879e-04   5.3822092e-04
   6.1098213e-04   4.4680055e-05   7.8655698e-04  -2.2648225e-04   1.3722014e-04  -3.4679912e-04  -3.5926927e-04   4.1965663e-04  -8.0014503e-04   6.1473483e-04  -7.9735462e-04   9.1908012e-05  -7.5389590e-04   5.6319084e-04  -2.2124653e-04   7.3115648e-06  -3.5870739e-04  -5.3747732e-04  -6.6294480e-04  -4.5902297e-04  -3.8946510e-04  -6.9849408e-04  -6.2860944e-04   3.2608060e-04   2.2080750e-04  -2.4102262e-04  -1.2302323e-04   5.1028439e-04  -2.0915399e-04   1.4190540e-04  -1.4343811e-03  -2.3680489e-04  -7.6536479e-04  -1.0777402e-04   1.5333507e-04   9.3786314e-04  -1.6838991e-05   3.5080713e-05   2.2383542e-04   2.1094663e-04   4.6665742e-04   1.6203597e-04   1.4878707e-03  -6.0222298e-04  -2.1183934e-05   1.3082311e-03   1.8572382e-04  -2.9586980e-04   3.8461480e-04   5.8996055e-04
   4.6022420e-04  -9.0899652e-05   6.0679280e-04  -3.9331443e-04   9.9039698e-06  -4.5314195e-04  -4.9026828e-04   4.0494569e-04  -9.1650139e-04   4.4062617e-04  -9.0097700e-04  -6.7778405e-05  -8.2286430e-04   5.1317702e-04  -2.5970768e-04   2.0663745e-06  -3.9914530e-04  -5.3728902e-04  -8.2489988e-04  -5.8354833e-04  -5.8604771e-04  -8.6759421e-04  -7.6678500e-04   1.9202955e-04   7.3892756e-05  -4.4184100e-04  -1.6282978e-04   4.3995492e-04  -2.5004955e-04   4.6969351e-05  -1.5024496e-03  -2.9166462e-04  -1.0249958e-03  -2.9415751e-04   5.9988695e-05   6.8420905e-04  -1.5463673e-04  -7.8489080e-05   7.6690321e-06  -5.3418527e-05   7.7403412e-05  -4.2342381e-05   1.2575560e-03  -8.6884480e-04  -2.7569217e-04   1.1051601e-03   6.4817182e-06  -5.2510225e-04   1.0619037e-04   3.5510183e-04
  -1.6108592e-04  -6.5855979e-04  -8.6191118e-05  -1.0423368e-03  -4.5086798e-04  -8.4729848e-04  -9.6586178e-04   1.0694480e-04  -1.2856468e-03   9.7726603e-05  -1.1826076e-03  -3.9483825e-04  -1.0287592e-03   2.4892509e-04  -4.2676300e-04  -1.4634531e-04  -5.8028469e-04  -6.4244925e-04  -1.0022529e-03  -7.3125068e-04  -5.8834424e-04  -1.0140317e-03  -8.6012646e-04   1.9557816e-04  -6.2531012e-06  -5.2073703e-04  -1.8264704e-04   3.9081293e-04  -2.3869067e-04  -3.1813431e-06  -1.5044266e-03  -3.0017976e-04  -8.5214793e-04  -1.6675293e-04   1.2303708e-04   9.3443121e-04  -4.8830116e-05   3.0500361e-05   2.7111292e-04   2.4436059e-04   6.1547547e-04   1.8221651e-04   1.5274575e-03  -5.3473021e-04  -2.9895495e-05   1.3267879e-03   1.9460155e-04  -2.1503236e-04   4.4269263e-04   6.1646436e-04
   6.0449762e-04   6.1414190e-05   7.7033712e-04  -2.1153013e-04   1.3446297e-04  -3.5531187e-04  -3.5223403e-04   4.4799209e-04  -8.9238043e-04   5.1531103e-04  -8.7182655e-04  -1.1710061e-05  -7.7189971e-04   5.7305052e-04  -1.9813456e-04   4.8766444e-05  -3.7283561e-04  -4.9530319e-04  -7.3618698e-04  -5.2515889e-04  -3.9951596e-04  -7.7603071e-04  -6.7563087e-04   3.0166656e-04   2.0136680e-04  -2.8070976e-04  -7.9085214e-05   5.3657842e-04  -1.0771963e-04   1.7437636e-04  -1.4365980e-03  -2.1566538e-04  -7.8486581e-04  -9.1754708e-05   1.8502354e-04   9.4270258e-04  -1.3708907e-06   8.5479187e-05   2.7176403e-04   2.1114269e-04   4.4503060e-04   1.9303999e-04   1.5277520e-03  -6.3016766e-04  -6.6885172e-05   1.2774660e-03   1.5563973e-04  -2.7802130e-04   3.2956735e-04   5.0099660e-04
   2.6698291e-04  -2.3947161e-04   3.9523473e-04  -5.5920082e-04  -1.0779020e-04  -5.7339406e-04  -6.0488028e-04   3.3217139e-04  -1.0397462e-03   2.9723969e-04  -1.0127083e-03  -2.1312246e-04  -8.6395512e-04   4.7524003e-04  -2.8018007e-04   5.5896585e-06  -4.4631097e-04  -5.2943162e-04  -9.4390515e-04  -6.5562688e-04  -6.8284245e-04  -9.9014456e-04  -8.6936587e-04   1.3852357e-04  -4.9359078e-05  -5.5505324e-04  -1.5290477e-04   3.8448148e-04  -2.5325571e-04   1.1455511e-05  -1.5776840e-03  -3.3926050e-04  -1.1443285e-03  -3.9092731e-04   4.6726004e-06   5.7387451e-04  -2.1679650e-04  -1.3730791e-04  -7.2725918e-05  -1.9315329e-04  -1.1919192e-04  -1.3137179e-04   1.1014113e-03  -1.0281177e-03  -3.2654856e-04   9.7649056e-04  -6.9273752e-05  -5.8882969e-04  -4.2779848e-05   2.0138042e-04
  -3.7796382e-04  -8.6908479e-04  -2.7154913e-04  -1.2322258e-03  -5.1756948e-04  -9.2078710e-04  -1.0332939e-03   7.6832825e-05  -1.1799369e-03   3.3800473e-04  -1.1394159e-03  -2.0271937e-04  -8.9563557e-04   3.7197617e-04  -3.6857821e-04  -6.5047643e-05  -4.8839324e-04  -5.9500424e-04  -8.3828130e-04  -5.5406342e-04  -5.0897960e-04  -8.6197193e-04  -7.3250785e-04   2.3728880e-04   1.5362888e-04  -3.2874235e-04  -1.2958654e-04   4.5315712e-04  -2.0384493e-04   1.2224348e-04  -1.5025107e-03  -2.9200505e-04  -7.7608228e-04  -1.0021163e-04   1.2116021e-04   9.3023386e-04  -7.7715513e-06   3.2847456e-05   2.7808273e-04   2.2720644e-04   5.0058367e-04   2.0206848e-04   1.4648568e-03  -6.1464164e-04  -8.6014144e-05   1.2222262e-03   1.8672719e-04  -2.6866328e-04   3.4939346e-04   4.4683553e-04
   3.4920051e-04  -2.1333878e-04   4.8433384e-04  -4.5559779e-04  -4.2870201e-05  -5.1999831e-04  -5.1506725e-04   3.7440611e-04  -9.1667060e-04   3.8242960e-04  -9.7368384e-04  -1.2918742e-04  -8.0976676e-04   5.2082498e-04  -2.5249374e-04   3.6993908e-05  -4.1629135e-04  -5.2767282e-04  -8.3177362e-04  -5.8327144e-04  -5.5408594e-04  -8.5836992e-04  -7.5930817e-04   2.6486930e-04   1.0881189e-04  -3.8376602e-04  -1.1869783e-04   4.5194619e-04  -2.0409207e-04   1.1397685e-04  -1.5275726e-03  -2.9660959e-04  -8.8049035e-04  -1.9768850e-04   8.4405729e-05   7.7651895e-04  -7.6725468e-05  -3.5321395e-05   1.4756524e-04   2.1289216e-05   2.0492962e-04   1.3286644e-04   1.3069712e-03  -8.2859636e-04  -1.7800264e-04   1.1182232e-03   1.1402070e-04  -4.4162755e-04   1.5759486e-04   3.0285190e-04
  -5.0409373e-05  -5.3779333e-04   6.2744104e-05  -8.6088077e-04  -3.4182132e-04  -7.7116059e-04  -8.2266575e-04   1.9482103e-04  -1.1997520e-03   9.7115728e-05  -1.1604326e-03  -3.9977976e-04  -9.7405579e-04   3.3828840e-04  -3.8090392e-04  -7.5461008e-05  -5.4462795e-04  -6.3374662e-04  -1.1077353e-03  -7.6717034e-04  -8.4502029e-04  -1.1602743e-03  -1.0018540e-03  -2.4900943e-05  -1.9472100e-04  -7.5245259e-04  -2.3276276e-04   2.6795757e-04  -3.4694202e-04  -1.1235322e-04  -1.6964695e-03  -4.7321629e-04  -1.3305604e-03  -5.8987306e-04  -1.4278002e-04   3.4740334e-04  -3.4703026e-04  -3.0320475e-04  -2.6845292e-04  -4.4746886e-04  -4.1274479e-04  -1.9421161e-04   8.4115966e-04  -1.2432676e-03  -5.9567910e-04   7.3078042e-04  -1.3024794e-04  -7.6411228e-04  -2.1243645e-04   6.1448038e-05
  -5.7277363e-04  -1.0898383e-03  -3.5923187e-04  -1.3321459e-03  -5.4929854e-04  -9.3811541e-04  -1.0159193e-03   2.1558881e-05  -1.1370247e-03   2.8211719e-04  -1.1733781e-03  -2.5274963e-04  -9.4974105e-04   3.2020744e-04  -4.3140541e-04  -1.2984540e-04  -5.6206196e-04  -6.7561073e-04  -9.2918071e-04  -7.0804195e-04  -6.1453308e-04  -9.5249817e-04  -8.4915798e-04   1.6796237e-04  -3.9245788e-06  -4.5621127e-04  -1.9852669e-04   3.4668273e-04  -3.0311695e-04   2.8403989e-05  -1.6144291e-03  -4.2750608e-04  -9.5663156e-04  -2.6397905e-04  -1.2084553e-05   7.2163093e-04  -1.1774279e-04  -1.4452856e-04   1.1867722e-04   1.3651628e-05   2.6312092e-04   7.9978810e-05   1.2749766e-03  -8.5333973e-04  -2.5536405e-04   1.0135034e-03   5.4205215e-05  -5.0548284e-04   1.4581780e-04   2.9852477e-04
   2.2840573e-05  -4.0909994e-04   1.9293174e-04  -7.4952992e-04  -2.5677908e-04  -7.0981018e-04  -7.2401966e-04   1.9190126e-04  -1.1087629e-03   2.2021349e-04  -1.1478659e-03  -2.9873280e-04  -9.5075404e-04   3.3926513e-04  -3.8500753e-04  -1.1499275e-04  -5.5334676e-04  -6.6488807e-04  -1.0501904e-03  -7.5979443e-04  -6.9420302e-04  -1.0116793e-03  -9.2551601e-04   8.8093548e-05  -8.6341148e-05  -5.6003017e-04  -2.3292960e-04   3.0013375e-04  -3.8395272e-04  -5.7497900e-06  -1.6795407e-03  -4.9641589e-04  -1.0424516e-03  -4.2736426e-04  -8.4050436e-05   5.4505380e-04  -2.2496507e-04  -2.4556150e-04  -5.1103627e-05  -2.0704806e-04  -3.9565701e-05  -4.9244969e-05   1.1016051e-03  -1.0546816e-03  -4.1297148e-04   8.7982952e-04  -7.7959550e-05  -6.0663035e-04   4.1845287e-05   1.8764030e-04
  -3.4906378e-04  -7.6561078e-04  -2.6952368e-04  -1.1874159e-03  -5.8184599e-04  -9.8831335e-04  -1.0728687e-03  -5.1278967e-06  -1.4210928e-03  -7.9486243e-05  -1.3599712e-03  -5.8932329e-04  -1.1510911e-03   1.1535505e-04  -5.2281580e-04  -2.6087087e-04  -7.1543251e-04  -7.8515662e-04  -1.2862143e-03  -9.8038034e-04  -1.0023158e-03  -1.3075155e-03  -1.1767828e-03  -1.8054552e-04  -4.0485614e-04  -9.3432964e-04  -3.7619995e-04   1.2739829e-04  -5.4030819e-04  -2.3524929e-04  -1.8417692e-03  -6.6807622e-04  -1.5053771e-03  -8.0469449e-04  -2.9692485e-04   1.5140232e-04  -4.9639912e-04  -4.9233885e-04  -4.0636197e-04  -6.2745280e-04  -3.9350259e-04  -2.4203135e-04   8.7846984e-04  -1.2939423e-03  -5.7024544e-04   7.0699351e-04  -6.2763618e-05  -5.7444914e-04   7.3278665e-05   2.3594552e-04
  -4.5563364e-05  -4.6130354e-04   1.9067962e-04  -7.6229416e-04  -2.7318756e-04  -7.2449906e-04  -7.4373820e-04   9.6109128e-05  -1.1647074e-03   2.5589188e-04  -1.1880908e-03  -2.8896422e-04  -1.0174686e-03   2.4603726e-04  -4.5226980e-04  -2.3960037e-04  -6.3584262e-04  -7.6382322e-04  -9.8570774e-04  -7.7594351e-04  -6.2881829e-04  -9.8255579e-04  -9.4057480e-04   7.7002216e-05  -1.1942093e-04  -5.1527371e-04  -3.1383891e-04   2.8484830e-04  -4.2359228e-04   7.7083287e-06  -1.7133902e-03  -5.6001358e-04  -1.0216751e-03  -3.8456643e-04  -9.7649267e-05   6.2753609e-04  -1.8901500e-04  -2.7242745e-04   3.3027933e-05  -1.1222472e-04   1.6079503e-04  -3.2113687e-05   1.2328571e-03  -9.8261086e-04  -4.5246707e-04   8.8879553e-04  -1.3040539e-05  -4.8137424e-04   8.9998539e-05   3.0731724e-04
  -3.8539147e-05  -4.4747355e-04   8.5072905e-05  -8.7850704e-04  -3.7466962e-04  -8.0614572e-04  -8.5475069e-04   4.9305509e-05  -1.3019579e-03   1.2544825e-04  -1.2553850e-03  -4.1357367e-04  -1.0897764e-03   1.7521839e-04  -4.8615990e-04  -2.8125796e-04  -6.9057813e-04  -7.9813349e-04  -1.1053119e-03  -9.0146938e-04  -7.4214523e-04  -1.1183958e-03  -1.0334266e-03  -6.7203102e-05  -2.3947106e-04  -6.8008900e-04  -3.8283027e-04   2.2438497e-04  -4.8475165e-04  -8.5314437e-05  -1.7903973e-03  -6.4983865e-04  -1.2604290e-03  -5.8722089e-04  -1.9585449e-04   4.0119074e-04  -3.1220846e-04  -3.9951442e-04  -1.6332163e-04  -3.1470420e-04  -1.4608334e-04  -1.6595972e-04   9.7592344e-04  -1.2267021e-03  -6.2957342e-04   7.2399521e-04  -1.7513381e-04  -7.1781431e-04  -2.0669622e-04   1.5562914e-04
  -5.5904954e-04  -9.2686206e-04  -5.3257082e-04  -1.4698707e-03  -7.8629795e-04  -1.1631402e-03  -1.3011032e-03  -2.0838069e-04  -1.5848359e-03  -1.1087375e-04  -1.4992302e-03  -6.5080030e-04  -1.2572138e-03  -6.0599225e-05  -6.5573066e-04  -4.3386352e-04  -8.4497931e-04  -8.9748844e-04  -1.1930102e-03  -9.5627096e-04  -6.7908497e-04  -1.1551080e-03  -1.0621039e-03  -5.4859676e-05  -2.6795419e-04  -6.8204419e-04  -4.0881973e-04   1.7526065e-04  -5.2951294e-04  -1.0157893e-04  -1.7817256e-03  -6.3705601e-04  -1.0784118e-03  -4.5169619e-04  -1.4757298e-04   6.6108664e-04  -1.9933442e-04  -3.1649950e-04   7.3802701e-05  -4.7337158e-05   3.4758114e-04   4.4241864e-05   1.3230921e-03  -9.1731170e-04  -4.1899839e-04   8.8271638e-04   1.0783145e-05  -4.6687236e-04   1.5367755e-04   3.6577063e-04
   1.6242581e-04  -2.8332858e-04   2.3901802e-04  -7.2442502e-04  -2.8684502e-04  -7.3860976e-04  -7.7995774e-04   6.9060108e-05  -1.2458239e-03   2.2398967e-04  -1.2195858e-03  -3.3364198e-04  -1.0668960e-03   1.7507432e-04  -4.7893063e-04  -3.2932850e-04  -7.1109470e-04  -8.2592975e-04  -1.0465735e-03  -8.1547443e-04  -6.1024720e-04  -1.0001285e-03  -9.7715703e-04   3.0272020e-05  -1.6524922e-04  -5.6090514e-04  -3.6877149e-04   2.3948684e-04  -4.7942071e-04  -6.1508586e-06  -1.7648984e-03  -6.3663715e-04  -1.0997293e-03  -4.5668404e-04  -1.3076788e-04   6.1108102e-04  -2.0143641e-04  -3.4050649e-04   2.1880072e-05  -1.2261262e-04   1.8007444e-04   2.9465509e-05   1.2373665e-03  -1.0411624e-03  -5.3781486e-04   8.0399256e-04  -3.9634950e-05  -5.2801857e-04  -1.1573599e-05   2.6130982e-04
  -1.4130327e-04  -5.1294145e-04  -1.0323704e-04  -1.0718429e-03  -5.1986886e-04  -9.3462528e-04  -1.0342062e-03  -4.9393871e-05  -1.4006459e-03   3.8736373e-05  -1.3510834e-03  -5.0766865e-04  -1.1920665e-03   3.4548822e-05  -5.6786917e-04  -4.0821693e-04  -8.0905424e-04  -8.9140737e-04  -1.2405061e-03  -9.8741427e-04  -8.7854022e-04  -1.2258842e-03  -1.1692474e-03  -1.6190449e-04  -4.1343493e-04  -8.5626228e-04  -4.9282133e-04   1.1177704e-04  -6.3323585e-04  -1.8951102e-04  -1.8843948e-03  -7.6139992e-04  -1.4132980e-03  -7.9912558e-04  -3.0269820e-04   2.4860789e-04  -4.3889834e-04  -5.6395819e-04  -3.2907815e-04  -5.3636852e-04  -1.5917051e-04  -1.1703886e-04   9.7449456e-04  -1.2285686e-03  -5.6660309e-04   6.9118233e-04  -5.2761407e-05  -5.8058626e-04   2.0566964e-04   3.4439311e-04
   1.9805529e-04  -1.9974644e-04   3.5391041e-04  -6.4666738e-04  -1.7901958e-04  -6.6724891e-04  -6.9898454e-04   8.9413435e-05  -1.1496405e-03   3.5654948e-04  -1.1711797e-03  -2.1051658e-04  -1.0253668e-03   2.0307074e-04  -4.8277446e-04  -3.3055368e-04  -7.0149230e-04  -8.3593914e-04  -9.2426437e-04  -7.1543735e-04  -4.8863661e-04  -8.8209717e-04  -9.0247026e-04   8.5937056e-05  -1.0669523e-04  -4.5237943e-04  -3.6712410e-04   2.9237615e-04  -4.7920129e-04   5.0730960e-05  -1.7349267e-03  -6.1378098e-04  -9.3092764e-04  -3.7704551e-04  -9.3927585e-05   7.2158047e-04  -1.4434608e-04  -3.2355217e-04   1.0671002e-04  -3.9089995e-05   3.4589678e-04   1.3103310e-04   1.3014314e-03  -9.5221121e-04  -4.2917047e-04   8.9636940e-04   1.6637652e-05  -4.4863988e-04   2.1448842e-04   4.4309100e-04
   2.0207255e-04  -2.7411140e-04   2.6978663e-04  -7.4223365e-04  -2.5648961e-04  -7.3475525e-04  -7.9709949e-04   8.4168350e-05  -1.2189661e-03   2.3803036e-04  -1.2299786e-03  -3.2118158e-04  -1.0659466e-03   1.6363557e-04  -4.9396302e-04  -3.3689156e-04  -7.3320034e-04  -8.4009831e-04  -1.0703427e-03  -8.1439776e-04  -6.2056771e-04  -1.0287596e-03  -1.0076403e-03  -2.9031195e-05  -2.2536515e-04  -6.0190842e-04  -4.0315808e-04   2.1593226e-04  -5.3604820e-04  -5.0247567e-05  -1.7866318e-03  -6.7921093e-04  -1.1423801e-03  -5.7762867e-04  -1.8237018e-04   5.2302738e-04  -2.7138862e-04  -4.2539946e-04  -9.9590005e-05  -2.7532541e-04   6.5234804e-06  -8.1695798e-05   1.0461031e-03  -1.1804417e-03  -5.3550379e-04   7.4209797e-04  -1.2847564e-04  -7.4533344e-04  -3.0392095e-05   2.0708227e-04
  -3.1673221e-04  -7.3790533e-04  -3.3461745e-04  -1.3208907e-03  -6.6601072e-04  -1.0863878e-03  -1.2336328e-03  -1.4818495e-04  -1.5131390e-03  -5.0654406e-05  -1.4675260e-03  -5.9456006e-04  -1.2585162e-03  -6.2830986e-05  -6.7543640e-04  -4.7429535e-04  -8.9101581e-04  -9.4758876e-04  -1.1881478e-03  -8.8060577e-04  -7.0618489e-04  -1.1454466e-03  -1.0829597e-03  -2.6642936e-05  -2.6797602e-04  -6.6429231e-04  -4.2986707e-04   1.8019880e-04  -5.7646999e-04  -1.0100168e-04  -1.7988026e-03  -6.9809804e-04  -1.0615686e-03  -4.6285935e-04  -1.3925828e-04   7.4034027e-04  -1.6208517e-04  -3.6475318e-04   1.1064633e-04  -3.0685664e-05   4.8126304e-04   1.9919117e-04   1.2963141e-03  -8.5622357e-04  -3.1210243e-04   9.1554725e-04   2.9687226e-05  -5.1296141e-04   3.0296179e-04   3.9084468e-04
   3.8415403e-04  -1.0318853e-04   4.6208024e-04  -5.5248948e-04  -1.2297813e-04  -6.4402819e-04  -6.7230227e-04   1.4573523e-04  -1.1443737e-03   3.1377602e-04  -1.1904916e-03  -2.4525932e-04  -1.0404576e-03   2.1510015e-04  -4.9169123e-04  -3.1513063e-04  -7.2041916e-04  -8.3403604e-04  -9.5654349e-04  -7.3099340e-04  -5.4052484e-04  -9.4364292e-04  -9.3669177e-04   5.2412146e-05  -1.3847355e-04  -4.7736306e-04  -3.5877549e-04   2.4870958e-04  -5.0136872e-04   2.9131810e-05  -1.7598798e-03  -6.5031601e-04  -9.7796752e-04  -4.4157234e-04  -1.1347917e-04   7.2791515e-04  -1.2989859e-04  -3.3822079e-04   8.6073705e-05  -8.0993152e-05   3.1255267e-04   1.0092318e-04   1.2379541e-03  -9.4583479e-04  -3.2396411e-04   8.9471735e-04  -7.2351399e-06  -6.0603168e-04   1.5879179e-04   2.9157632e-04
   7.6174067e-05  -3.5902628e-04   1.5236209e-04  -8.5081905e-04  -3.2574285e-04  -8.0363284e-04  -8.8530639e-04   6.3071224e-05  -1.3136152e-03   1.2356212e-04  -1.3236220e-03  -3.9587604e-04  -1.1499841e-03   1.0992923e-04  -5.7518750e-04  -3.7193438e-04  -8.0946239e-04  -8.9658733e-04  -1.1751538e-03  -1.0055818e-03  -7.7019568e-04  -1.1448029e-03  -1.0943344e-03  -6.5048705e-05  -3.8286429e-04  -7.1306189e-04  -4.4393036e-04   1.5044858e-04  -5.7971000e-04  -1.0580751e-04  -1.8713217e-03  -7.5957045e-04  -1.2844406e-03  -7.0967467e-04  -2.7709577e-04   4.3991409e-04  -3.2985854e-04  -5.3175527e-04  -1.9470710e-04  -4.2074829e-04  -1.3719143e-04  -6.0851733e-05   8.5780997e-04  -1.2680807e-03  -5.6277122e-04   6.6300266e-04  -1.8556863e-04  -8.7356946e-04   3.4764557e-07   1.6674705e-04
  -1.9065478e-04  -6.2074000e-04   1.1131369e-04  -8.8737003e-04  -2.5526588e-04  -7.5592147e-04  -7.9561601e-04   6.0879487e-05  -1.2146455e-03   3.4383329e-04  -1.2659179e-03  -1.9660796e-04  -1.0811776e-03   1.8053094e-04  -5.4791017e-04  -3.4444945e-04  -7.7391381e-04  -8.7998930e-04  -9.7110926e-04  -7.0973911e-04  -5.6280533e-04  -9.5374009e-04  -8.9077017e-04   1.3790443e-04  -9.7618933e-05  -4.0615231e-04  -3.5333837e-04   2.6836293e-04  -4.8870622e-04   8.2344231e-05  -1.7703396e-03  -6.4690853e-04  -9.4585831e-04  -3.5901263e-04  -8.4352076e-05   8.4833370e-04  -5.9719663e-05  -3.0119965e-04   1.9858043e-04   3.8322793e-05   4.6798753e-04   1.9355853e-04   1.2607081e-03  -8.5528794e-04  -2.5731506e-04   9.8247267e-04  -2.5835916e-05  -6.3986279e-04   2.2417474e-04   3.9109070e-04
   2.0881480e-04  -2.8017000e-04   3.9030568e-04  -6.2530540e-04  -1.3869126e-04  -6.5882789e-04  -6.8918866e-04   1.6879980e-04  -1.2416294e-03   2.3845675e-04  -1.2750442e-03  -2.7079304e-04  -1.1169948e-03   1.9169043e-04  -5.2868435e-04  -3.3539117e-04  -7.9513545e-04  -8.6145691e-04  -1.0304330e-03  -8.3260488e-04  -6.3759205e-04  -1.0415590e-03  -9.4147213e-04   2.2470185e-05  -2.1987018e-04  -4.9205968e-04  -3.8296077e-04   2.5414643e-04  -5.1387289e-04   5.9233789e-05  -1.8254359e-03  -6.9300522e-04  -1.0488081e-03  -5.0407404e-04  -1.3763552e-04   7.0309924e-04  -1.1871337e-04  -3.6802297e-04   8.5206178e-05  -1.0381018e-04   2.5591123e-04   6.2892555e-05   1.1218577e-03  -9.5950399e-04  -3.6860351e-04   8.9662301e-04  -1.4207672e-04  -8.0272992e-04   1.4304629e-04   2.4742162e-04
  -2.0904493e-04  -6.5289461e-04  -7.1837974e-05  -1.0504645e-03  -4.5932486e-04  -9.2864840e-04  -1.0248279e-03  -3.1870077e-05  -1.4763420e-03  -5.3627715e-05  -1.4857755e-03  -5.2864774e-04  -1.3061019e-03  -3.1983189e-05  -6.6565420e-04  -4.7474974e-04  -9.5198950e-04  -9.6155854e-04  -1.3037492e-03  -1.1122946e-03  -9.0553489e-04  -1.3497495e-03  -1.1870530e-03  -1.2629863e-04  -4.4278055e-04  -7.9239660e-04  -4.8245120e-04   7.4262760e-05  -6.1860512e-04  -1.1866605e-04  -1.9547225e-03  -8.1600586e-04  -1.2912193e-03  -7.3739188e-04  -2.4204592e-04   6.1233621e-04  -2.3388847e-04  -4.1564862e-04   5.9165901e-05  -1.1051077e-04   5.1702344e-04   1.5348235e-04   1.2700494e-03  -7.7832351e-04  -1.7166501e-04   9.8900311e-04  -7.9824153e-05  -6.1534363e-04   3.2357418e-04   4.4008298e-04
   3.0905617e-04  -1.6214295e-04   5.4974348e-04  -4.3184165e-04  -9.2011051e-06  -5.5907905e-04  -5.5116758e-04   1.8907095e-04  -1.2853905e-03   2.8211978e-04  -1.2800193e-03  -1.9517512e-04  -1.1299687e-03   1.8670500e-04  -5.3107325e-04  -3.6353548e-04  -8.2614098e-04  -8.6318707e-04  -9.9623913e-04  -8.8483788e-04  -5.5467931e-04  -1.0443695e-03  -8.8960089e-04   8.8078035e-05  -9.6042007e-05  -3.6405426e-04  -3.6301991e-04   3.2223595e-04  -4.0200734e-04   1.6776097e-04  -1.8044546e-03  -6.5557659e-04  -9.2307536e-04  -3.7210918e-04  -4.5052981e-05   9.4098086e-04   5.1175532e-05  -2.2726381e-04   3.2525667e-04   1.5713242e-04   6.1437319e-04   2.2513539e-04   1.3280226e-03  -7.0241123e-04  -1.3190082e-04   1.0380482e-03  -1.1701554e-04  -5.7329173e-04   2.8797571e-04   4.2044328e-04
   8.9167152e-05  -3.1108042e-04   3.3768074e-04  -6.0767500e-04  -1.5371856e-04  -6.6096388e-04  -6.8605714e-04   1.4503430e-04  -1.4002788e-03   1.1659083e-04  -1.3895555e-03  -3.5546671e-04  -1.2297524e-03   1.0799508e-04  -5.8099703e-04  -4.2060643e-04  -8.9845061e-04  -8.8395568e-04  -1.1729780e-03  -1.0266164e-03  -7.1186328e-04  -1.1777887e-03  -1.0080629e-03  -2.4967303e-05  -2.7960661e-04  -5.2055728e-04  -3.9547597e-04   2.5040473e-04  -4.7366403e-04   9.2034206e-05  -1.8675813e-03  -7.1766658e-04  -1.1020112e-03  -5.4263324e-04  -1.3059328e-04   7.2370080e-04  -7.9175014e-05  -3.2562437e-04   1.0667266e-04  -9.6327392e-05   2.2215005e-04  -8.4570011e-06   1.0503207e-03  -9.6079218e-04  -3.5898515e-04   8.6695264e-04  -3.3394317e-04  -8.7645173e-04  -1.1639405e-05   1.0939045e-04
  -4.4215203e-04  -8.3707209e-04  -1.0943715e-04  -1.0747935e-03  -3.8387155e-04  -8.4431033e-04  -9.1738661e-04  -1.6124879e-05  -1.4851897e-03   1.9654843e-04  -1.4436013e-03  -2.9143778e-04  -1.2288254e-03   6.8823341e-05  -6.1852473e-04  -4.5201401e-04  -8.9840946e-04  -8.8980136e-04  -9.8182983e-04  -8.7729783e-04  -5.3198088e-04  -1.0495534e-03  -8.6341304e-04   1.0114287e-04  -6.1191960e-05  -2.9260345e-04  -3.4238485e-04   3.5682716e-04  -3.6642625e-04   2.3111964e-04  -1.7851371e-03  -6.2030845e-04  -8.6900854e-04  -2.5242957e-04   1.5828164e-05   1.0561654e-03   1.5064083e-04  -1.1899620e-04   4.7395244e-04   3.6639624e-04   7.9628266e-04   2.6075961e-04   1.4531827e-03  -5.3050037e-04  -5.7101752e-05   1.1728280e-03  -1.6025513e-04  -5.3497212e-04   4.0365171e-04   4.2928351e-04
   1.5732918e-04  -2.4785611e-04   4.8831117e-04  -4.4384142e-04  -1.8870549e-05  -5.5720704e-04  -5.3844741e-04   2.0130159e-04  -1.3689972e-03   2.0197729e-04  -1.3743755e-03  -2.7771693e-04  -1.1938041e-03   1.3835696e-04  -5.3338526e-04  -3.9066561e-04  -8.7018166e-04  -8.4337138e-04  -1.0457227e-03  -9.2995819e-04  -5.4237386e-04  -1.0746593e-03  -8.7489228e-04   5.2488867e-05  -8.2962797e-05  -3.2877989e-04  -3.1980808e-04   3.7130507e-04  -3.4580386e-04   2.5177022e-04  -1.8138419e-03  -6.2624633e-04  -9.0887852e-04  -3.3036724e-04  -1.0811369e-06   9.5189316e-04   1.2081875e-04  -1.5224809e-04   4.0270743e-04   2.3260547e-04   6.0933799e-04   1.6553690e-04   1.3351911e-03  -6.7112839e-04  -1.3074192e-04   1.1254497e-03  -2.5421692e-04  -6.6711154e-04   1.8241296e-04   3.5292940e-04
  -2.1427445e-04  -5.5306614e-04   9.2553324e-05  -8.3309901e-04  -3.0957750e-04  -7.7937858e-04  -8.3918200e-04   3.0914693e-05  -1.6405158e-03  -6.4619999e-05  -1.5487726e-03  -5.2822573e-04  -1.3702000e-03  -5.6545257e-05  -6.6043140e-04  -5.1982212e-04  -1.0056322e-03  -9.1468298e-04  -1.2711334e-03  -1.1129902e-03  -8.3839532e-04  -1.3658616e-03  -1.1064942e-03  -1.6376656e-04  -3.8375589e-04  -6.4286025e-04  -4.5764531e-04   1.9367381e-04  -4.6078674e-04   6.5650092e-05  -1.9660420e-03  -7.7923434e-04  -1.3265569e-03  -6.5311411e-04  -1.9086077e-04   5.9474091e-04  -1.1899820e-04  -3.4356533e-04   8.1288679e-05  -1.3616490e-04   4.1391875e-04   7.8933968e-05   1.2085267e-03  -7.5470231e-04  -1.9528487e-04   1.0255150e-03  -2.5113727e-04  -6.4870558e-04   3.7704725e-04   4.4392064e-04
   1.7541581e-04  -2.1056576e-04   5.6744652e-04  -3.8716718e-04   4.6107321e-05  -5.1209243e-04  -4.8189628e-04   1.9761547e-04  -1.3932112e-03   2.4023313e-04  -1.3765569e-03  -2.4678034e-04  -1.2104923e-03   1.1324223e-04  -5.6484749e-04  -4.3312125e-04  -8.9223759e-04  -8.4230839e-04  -9.4075099e-04  -9.3969487e-04  -4.9304659e-04  -1.0258937e-03  -8.6109608e-04   1.2080341e-04  -6.2342006e-05  -2.4789362e-04  -3.2481583e-04   3.9690163e-04  -3.2978738e-04   3.0820013e-04  -1.7963874e-03  -5.8822171e-04  -7.9102919e-04  -2.0617893e-04   3.8677616e-05   1.0741933e-03   1.9347973e-04  -7.6200777e-05   5.2385608e-04   3.6472839e-04   7.9850690e-04   2.4353589e-04   1.4249147e-03  -5.1457330e-04   4.8109214e-05   1.1988647e-03  -1.9793927e-04  -6.2984845e-04   3.6566169e-04   4.0167640e-04
   1.3173855e-04  -2.8048837e-04   4.6945395e-04  -4.7279254e-04  -3.9550399e-05  -5.7018944e-04  -5.5272743e-04   1.9149421e-04  -1.3652060e-03   1.2280818e-04  -1.4001167e-03  -3.5174843e-04  -1.2454304e-03   9.0751884e-05  -5.8202888e-04  -4.3448439e-04  -9.0885733e-04  -8.4921293e-04  -1.0533462e-03  -1.0109509e-03  -6.0855533e-04  -1.1410005e-03  -9.6646801e-04   1.0927573e-05  -1.9556587e-04  -4.1074821e-04  -3.5363948e-04   3.0561115e-04  -3.8796768e-04   2.0353476e-04  -1.8617376e-03  -6.4567768e-04  -1.0078334e-03  -3.8578521e-04  -7.1065733e-05   8.6298451e-04   4.7296486e-05  -1.7160975e-04   3.2437861e-04   1.0021352e-04   4.4562091e-04   5.3229716e-05   1.1657268e-03  -7.5984088e-04  -1.9167303e-04   1.0717622e-03  -3.3451337e-04  -8.5675978e-04   1.6139138e-04   1.4258368e-04
  -3.7700811e-04  -6.5215392e-04  -1.0416552e-04  -1.0152360e-03  -4.4260675e-04  -9.2365901e-04  -9.5806987e-04  -1.3322047e-05  -1.5875255e-03  -1.7217170e-04  -1.6154221e-03  -6.2732922e-04  -1.4138978e-03  -1.2430857e-04  -7.4158370e-04  -5.5471668e-04  -1.0446270e-03  -9.4861613e-04  -1.2170915e-03  -1.1210564e-03  -7.3405704e-04  -1.3003123e-03  -1.0765495e-03  -4.5383975e-05  -3.1354558e-04  -5.6431914e-04  -4.1481230e-04   2.1413066e-04  -4.6799451e-04   1.1178420e-04  -1.8661406e-03  -6.9283374e-04  -9.6507225e-04  -3.1204137e-04  -6.2256004e-05   1.0234702e-03   1.1022689e-04  -1.2148335e-04   4.9548561e-04   2.8814739e-04   8.1622665e-04   2.6962574e-04   1.3543669e-03  -4.8369041e-04   8.4940715e-05   1.1990886e-03  -1.5608751e-04  -6.9903245e-04   5.0922128e-04   3.6404154e-04
   3.1573363e-04  -9.0268069e-05   6.1041827e-04  -3.4003751e-04   3.2614840e-05  -5.1460823e-04  -4.5916837e-04   2.5045872e-04  -1.1952212e-03   1.6705494e-04  -1.3228803e-03  -3.0729856e-04  -1.1825351e-03   1.2755112e-04  -5.6933949e-04  -3.9985988e-04  -8.5358624e-04  -8.3782029e-04  -9.2451164e-04  -8.6871861e-04  -5.1565701e-04  -1.0246539e-03  -9.0716709e-04   1.0387648e-04  -1.4081411e-04  -3.3749989e-04  -3.3561158e-04   3.2502034e-04  -3.8469105e-04   2.4566523e-04  -1.7920926e-03  -6.2322075e-04  -8.8123255e-04  -2.2666508e-04  -2.4492076e-05   1.0061492e-03   1.5157857e-04  -9.0922229e-05   4.9450569e-04   2.6052419e-04   6.7938474e-04   2.2983957e-04   1.2906038e-03  -5.5574806e-04   4.9509188e-05   1.2090954e-03  -1.7399632e-04  -7.6478958e-04   3.7062599e-04   2.2612930e-04
   5.5269153e-05  -2.6067937e-04   2.7319352e-04  -6.7232718e-04  -2.1255451e-04  -6.9159450e-04  -7.0184539e-04   1.3564820e-04  -1.2912301e-03  -3.2159365e-05  -1.4258696e-03  -4.9547973e-04  -1.2664828e-03   3.6065016e-05  -6.5316592e-04  -4.5022395e-04  -9.0684212e-04  -8.7641680e-04  -1.0805208e-03  -9.5697481e-04  -7.1794790e-04  -1.1835978e-03  -1.0643248e-03  -9.1180642e-05  -3.3839291e-04  -5.6810840e-04  -4.1589211e-04   1.9392012e-04  -4.5844953e-04   8.0724385e-05  -1.8921584e-03  -7.1570667e-04  -1.1298220e-03  -4.9501529e-04  -1.9197530e-04   6.7109504e-04  -7.5798984e-05  -2.7906423e-04   1.7006588e-04  -1.1513662e-04   1.8790133e-04  -2.5629715e-05   9.2122710e-04  -8.9639111e-04  -1.8747177e-04   9.4206177e-04  -3.6395690e-04  -9.9994882e-04   5.0079241e-05  -2.8831982e-05
  -4.1778228e-04  -7.5909088e-04  -1.4486954e-04  -1.1320792e-03  -4.4373662e-04  -8.7235525e-04  -9.0855942e-04  -3.6655136e-05  -1.2970921e-03   9.9850644e-05  -1.4322685e-03  -3.7214605e-04  -1.2333234e-03   2.8833099e-06  -6.9307972e-04  -4.8780296e-04  -8.9687167e-04  -9.2437863e-04  -9.0518891e-04  -8.4283395e-04  -4.6508363e-04  -1.0094011e-03  -8.9483894e-04   1.8302335e-05  -1.3597534e-04  -3.4966265e-04  -4.1786759e-04   2.5383747e-04  -4.0982474e-04   2.0215288e-04  -1.7981426e-03  -6.6028378e-04  -8.4077223e-04  -2.0108611e-04  -7.0241826e-05   1.0045875e-03   1.3515561e-04  -1.2002596e-04   5.0127774e-04   3.0248912e-04   7.3368044e-04   1.8074794e-04   1.3168602e-03  -5.0397450e-04   1.6477503e-04   1.1959054e-03  -1.5376935e-04  -7.3392870e-04   4.2215889e-04   2.6227633e-04
   2.9424648e-04  -2.9524703e-05   4.4573363e-04  -5.2190816e-04  -1.1581973e-04  -5.7270797e-04  -5.9121387e-04   1.6141740e-04  -1.1525468e-03   1.1657269e-04  -1.3058226e-03  -3.5188676e-04  -1.1656069e-03   8.9958718e-05  -6.0406170e-04  -4.5042738e-04  -8.3437882e-04  -8.6757517e-04  -9.2841272e-04  -8.1090897e-04  -4.7554602e-04  -9.8960195e-04  -9.1809360e-04   1.3983997e-05  -2.0392796e-04  -4.0701625e-04  -4.1010950e-04   2.4828760e-04  -4.6795901e-04   1.7368160e-04  -1.7874253e-03  -6.7106466e-04  -9.5593918e-04  -2.9297933e-04  -1.3074055e-04   8.5558777e-04   4.9103441e-05  -2.0674699e-04   3.3632840e-04   1.0824254e-04   4.3731887e-04   4.9403254e-05   1.1363645e-03  -7.0504140e-04   3.5554847e-06   1.0896927e-03  -2.2599610e-04  -8.4407622e-04   2.2333444e-04   1.0898669e-04
  -3.0404670e-05  -3.3998711e-04   5.2283976e-06  -9.6836395e-04  -4.4602921e-04  -8.5383654e-04  -9.4052753e-04  -3.4197223e-05  -1.3338480e-03  -1.6436653e-04  -1.4755267e-03  -6.4016052e-04  -1.3239620e-03  -1.0745269e-04  -7.3327241e-04  -5.6823186e-04  -9.5217914e-04  -9.5055223e-04  -1.1726860e-03  -9.9739456e-04  -7.6898653e-04  -1.2542419e-03  -1.1758629e-03  -2.0767099e-04  -4.8859144e-04  -7.7219697e-04  -5.4030854e-04   3.4604920e-05  -6.3813204e-04  -8.6833854e-05  -1.9299887e-03  -8.3165243e-04  -1.3071257e-03  -6.5259339e-04  -3.6029925e-04   3.8689066e-04  -2.7249070e-04  -4.6899723e-04  -6.2089595e-05  -3.8835459e-04  -6.6855202e-05  -1.5118986e-04   8.1257406e-04  -1.0113193e-03  -1.6465795e-04   8.5564289e-04  -2.3197824e-04  -9.5396925e-04   3.0762184e-04   8.4762352e-05
