   7.1493050e-05  -1.1889158e-05   6.7621419e-05   3.9585011e-05   1.6686789e-05  -6.0631337e-05  -3.7066860e-05   5.9337235e-06   1.4112546e-04  -5.7515630e-04   1.3982969e-04  -2.6318603e-04   1.7934649e-04   6.8352485e-05   3.1691237e-05  -2.7744736e-05  -5.0300587e-05  -7.4320873e-05  -4.6036121e-06   2.8666389e-05  -2.9325829e-04  -1.2967639e-04  -1.2847785e-05  -5.2712716e-05  -7.3676101e-06  -1.3774563e-06  -1.6760681e-04  -3.2885135e-05  -2.5590247e-04  -7.2901144e-05  -1.4178385e-04   3.5712827e-05  -1.2576311e-04   7.3697920e-05  -1.8774492e-05  -1.3564805e-05  -1.2572865e-04  -1.3033453e-04  -7.1334973e-05  -1.0866384e-04   3.7127360e-05   1.1204864e-04   6.4687985e-05  -4.2516331e-06   7.0636139e-05  -1.0268402e-05   3.5926753e-06  -3.2742671e-05   1.5804003e-04   1.0449851e-04
   4.7763562e-05  -5.7760699e-05   4.6457335e-05   1.2450448e-06   2.0325182e-05  -6.3504536e-05  -4.4887980e-05   1.1877552e-05   9.2187001e-05  -5.8241817e-04   1.2841378e-04  -2.7376454e-04   1.6850457e-04   7.1036680e-05   1.5613421e-05  -2.2500228e-05  -4.9930688e-05  -6.6822300e-05  -3.3651635e-05  -1.3456847e-05  -2.7830229e-04  -1.3247720e-04  -3.5063447e-05  -3.8480073e-05  -2.5388301e-05  -7.3935780e-06  -1.6480207e-04  -4.9158290e-05  -2.4863327e-04  -8.0869948e-05  -1.4223684e-04   2.9695293e-05  -1.3802851e-04   6.1452272e-05  -3.2458705e-05  -2.4871937e-05  -1.1743078e-04  -1.2270415e-04  -7.0728187e-05  -8.7304536e-05   8.0361111e-05   1.1714419e-04   1.0515692e-04   2.2612978e-05   3.6185320e-05   2.3151148e-05  -2.1090686e-05  -1.2532154e-05   1.6512716e-04   1.0278724e-04
   7.5164025e-05   8.8638753e-06   8.0884638e-05   4.2287451e-05   1.4818182e-05  -5.4866305e-05  -3.6360580e-05  -8.3453433e-06   1.5441887e-04  -5.5761379e-04   1.4213131e-04  -2.5118739e-04   1.7022791e-04   6.4917876e-05   2.6631527e-05  -3.3668872e-05  -5.1318661e-05  -7.6852484e-05  -9.5182468e-06  -9.2539005e-07  -2.9649169e-04  -1.0922198e-04  -8.5755155e-06  -5.3508706e-05  -9.3890566e-07   2.0866935e-05  -1.6516595e-04  -3.7233978e-05  -2.6194679e-04  -7.1784765e-05  -1.3900208e-04   3.2885986e-05  -1.0744476e-04   7.8792364e-05  -2.8201257e-05  -7.7191844e-06  -1.2149565e-04  -1.2465456e-04  -7.3423027e-05  -1.0359973e-04   5.7280606e-05   1.1859905e-04   7.6173601e-05   9.2739065e-06   2.4120818e-05   7.3809142e-06   4.2061961e-06  -3.1763971e-05   1.4644609e-04   9.5203839e-05
   6.3078725e-05   4.4548274e-06   6.4644519e-05   1.9665749e-05   1.5596632e-05  -5.3987682e-05  -4.7566216e-05  -2.2935460e-06   1.3031310e-04  -5.6083244e-04   1.3010837e-04  -2.5616554e-04   1.6302137e-04   6.3013504e-05   2.2785820e-05  -2.8160990e-05  -4.6917045e-05  -6.4728200e-05  -3.7189548e-05  -1.0643569e-05  -2.9834392e-04  -1.4902334e-04  -3.0186156e-06  -3.6299611e-05  -2.5838992e-05  -1.1491351e-05  -1.5736400e-04  -2.9399358e-05  -2.4246829e-04  -6.7004512e-05  -1.3684868e-04   2.8892673e-05  -1.0537469e-04   7.3080220e-05  -2.2608272e-05  -2.3494204e-05  -1.1696972e-04  -1.2194844e-04  -8.0275975e-05  -1.2201873e-04   6.3696541e-05   5.7598914e-05   5.3892698e-05  -1.1578870e-05   2.6279209e-05  -2.4404499e-05  -9.2288783e-06  -8.6501394e-05   1.3803385e-04   8.2478640e-05
   3.8321337e-05  -3.5585879e-05   4.2011266e-05  -1.6728443e-05   2.1354050e-05  -6.3225219e-05  -4.5994351e-05   4.1266563e-07   9.6320422e-05  -5.4504565e-04   1.1290228e-04  -2.5045706e-04   1.5827928e-04   6.1163002e-05   8.0240443e-06  -2.2667222e-05  -6.0279115e-05  -6.0258237e-05  -1.0047626e-05  -1.6378970e-05  -2.6012977e-04  -1.1355701e-04  -1.7185708e-05  -4.6502635e-05   1.2767706e-05   2.2771563e-05  -1.5687724e-04  -5.8424110e-05  -2.4475486e-04  -6.6819543e-05  -1.4537192e-04   2.1974056e-05  -9.9018769e-05   9.0227673e-05  -1.7393388e-05  -2.1410679e-05  -1.1624849e-04  -1.2455479e-04  -7.1740513e-05  -8.6784865e-05   7.1625822e-05   1.0765781e-04   8.3143554e-05   2.2145885e-05   5.5004955e-05  -4.0135506e-06  -9.2328919e-06  -5.6097892e-05   1.9719366e-04   8.4608306e-05
   7.0161543e-05  -3.9714655e-06   7.3924741e-05   3.1351621e-05   1.1334313e-05  -5.4708526e-05  -4.3483960e-05  -2.0484988e-05   1.2979763e-04  -5.3919898e-04   1.3526964e-04  -2.5183178e-04   1.5224404e-04   5.3968593e-05   1.5269165e-05  -2.8318605e-05  -5.6623889e-05  -6.6350251e-05  -2.0830677e-05  -2.9623405e-05  -2.7187419e-04  -1.2491012e-04  -8.2655470e-07  -6.2815736e-05   1.8770790e-05   1.4126703e-05  -1.6679996e-04  -3.7135247e-05  -2.5447676e-04  -6.6225322e-05  -1.3833164e-04   2.0543028e-05  -1.0710012e-04   8.6450949e-05  -2.4235527e-05  -1.0996526e-05  -1.1074120e-04  -1.2392004e-04  -7.9740938e-05  -9.7036012e-05   7.6463679e-05   8.7687986e-05   9.9040779e-05   2.1542094e-06  -1.3840754e-06  -2.0349169e-05  -3.1052412e-05  -2.7194224e-06   1.3274969e-04   8.2371007e-05
   5.4276141e-05  -8.6888776e-06   5.7735910e-05   1.0498179e-05   1.5260690e-05  -6.1570623e-05  -4.8768685e-05  -3.0899525e-06   9.0867310e-05  -5.5484247e-04   1.2498425e-04  -2.7272006e-04   1.4147935e-04   4.2355216e-05   6.5293675e-06  -2.3021163e-05  -5.0858944e-05  -5.8079288e-05  -4.6284302e-05  -1.3174082e-05  -2.9117722e-04  -1.6505178e-04  -1.2909030e-05  -5.8163441e-05  -1.2868651e-06  -1.9229383e-05  -1.4926147e-04  -3.5940655e-05  -2.3064860e-04  -6.1808394e-05  -1.4150864e-04   1.4579646e-05  -1.0629027e-04   6.1638944e-05  -3.0535200e-05  -3.1852673e-05  -1.1958469e-04  -1.3438021e-04  -8.1992781e-05  -1.2431863e-04   2.4428940e-05   6.0708964e-05   4.7267302e-05  -1.0938938e-06   3.4821056e-05  -4.7244750e-05  -4.9710987e-05  -8.6501481e-05   1.7053066e-04   6.6092565e-05
   4.4395834e-05  -2.7716125e-05   6.8164270e-05   2.3234241e-05   2.0803842e-05  -5.4962096e-05  -3.8656301e-05  -2.4481578e-06   1.2003043e-04  -5.4628152e-04   1.1949750e-04  -2.5167791e-04   1.4189229e-04   4.1960571e-05   1.2652094e-05  -3.6089557e-05  -6.2046798e-05  -6.7347464e-05  -3.5617035e-05  -2.8744786e-05  -2.7525189e-04  -1.0070165e-04  -5.4156708e-06  -4.6256708e-05   2.7236014e-05   1.5978047e-05  -1.6251895e-04  -4.4943397e-05  -2.5475794e-04  -7.4273063e-05  -1.3123066e-04   1.9826501e-05  -8.7147200e-05   7.4644777e-05  -2.6614940e-05  -1.3786253e-05  -1.0454548e-04  -1.1434551e-04  -7.6496348e-05  -9.6260686e-05   3.9221628e-05   4.9854607e-05   4.2426589e-05   3.8045796e-06   6.6469415e-06  -1.6774788e-05  -3.0306683e-05  -1.2085043e-04   1.7136295e-04   7.1227551e-05
   3.6609235e-05  -3.2149546e-05   6.3792468e-05   3.6246362e-05   1.0445439e-05  -6.2556486e-05  -4.4334556e-05  -1.5354208e-05   1.2404006e-04  -5.5897312e-04   1.2265128e-04  -2.5398604e-04   1.3400349e-04   3.1161439e-05   1.5901522e-05  -3.3846278e-05  -5.7364570e-05  -7.0507958e-05  -5.7278830e-05  -2.4361287e-05  -2.6170653e-04  -1.1044684e-04  -1.5315507e-05  -2.1017267e-05   1.5362305e-06  -6.0835559e-06  -1.4729892e-04  -5.0931336e-05  -2.3273350e-04  -7.0617942e-05  -1.3895649e-04   1.6694034e-05  -7.9603917e-05   5.9622103e-05  -3.1847052e-05  -1.2082397e-05  -1.1872872e-04  -1.2360967e-04  -8.6481647e-05  -1.2275085e-04   2.6605896e-05   5.7609337e-05   3.2240445e-05  -1.4948398e-05   2.1379863e-05  -4.1188632e-05  -3.0145729e-05  -1.1759963e-04   1.5977300e-04   3.6807145e-05
   6.4142337e-06  -6.0839495e-05   4.6836933e-05   1.2059917e-05   1.4941459e-05  -6.4403765e-05  -5.3213978e-05  -4.3700479e-06   8.2890067e-05  -5.7834003e-04   1.0546672e-04  -2.6483234e-04   1.2753095e-04   3.1167292e-05   1.5823514e-05  -2.7103177e-05  -5.4104195e-05  -5.7971087e-05  -6.5244931e-05  -3.4860866e-05  -2.7698753e-04  -1.4021968e-04  -1.2480849e-05  -3.9899551e-05  -8.1917005e-06  -3.0488734e-05  -1.3489062e-04  -4.7902995e-05  -2.3834086e-04  -7.3619798e-05  -1.4403106e-04   2.0760215e-06  -1.3331859e-04   2.4418330e-05  -4.7904115e-05  -3.4195480e-05  -1.1979866e-04  -1.2136877e-04  -7.8144149e-05  -1.0674295e-04   1.6327231e-05   1.1581372e-04   7.0812048e-06   2.9741263e-06   2.9370409e-05  -5.0652572e-05  -4.3493852e-05  -1.3116625e-04   1.4594957e-04   1.2073458e-05
   2.2341574e-05  -3.2712949e-05   6.5562795e-05   4.9777042e-05   1.0839411e-05  -5.9722144e-05  -4.9424460e-05  -9.8687769e-06   1.3147510e-04  -5.6542963e-04   1.2217801e-04  -2.3658422e-04   1.3226988e-04   3.2882926e-05   2.9485913e-05  -4.1513478e-05  -6.2874336e-05  -6.2831525e-05  -3.5081310e-05  -1.7539691e-05  -2.5823808e-04  -7.5855947e-05  -6.3578741e-06  -3.0768402e-05   1.6218202e-05   1.2103927e-05  -1.4365742e-04  -5.9960479e-05  -2.7895774e-04  -8.5230669e-05  -1.2592960e-04   6.8736758e-06  -1.0580193e-04   5.5812328e-05  -2.8358621e-05  -1.5469908e-05  -1.2599710e-04  -1.1872494e-04  -9.0819209e-05  -1.2309858e-04   1.5564528e-05   2.7830079e-05   2.0141857e-05   5.3149506e-06  -1.5353105e-05  -6.0825270e-05  -4.4239281e-05  -9.2320734e-05   1.3210712e-04  -1.4147952e-05
   5.0900626e-06  -4.5391615e-05   5.4010347e-05   3.2668075e-05   8.8787810e-06  -6.1760606e-05  -5.2621584e-05  -5.9157884e-07   9.6581040e-05  -5.7285576e-04   1.1289446e-04  -2.5098323e-04   1.2540750e-04   2.3839233e-05   2.4367586e-05  -3.9723669e-05  -5.8755562e-05  -6.0433769e-05  -6.9498441e-05  -4.3326083e-05  -2.8135223e-04  -1.0974305e-04  -7.0393844e-06  -4.8703747e-05   8.8262022e-06  -1.6361599e-05  -1.2523214e-04  -5.7880748e-05  -2.4441714e-04  -7.9251819e-05  -1.2067282e-04   9.6177000e-06  -9.9194040e-05   3.5039491e-05  -4.0665189e-05  -2.5580461e-05  -1.1849303e-04  -1.1931471e-04  -8.8097608e-05  -1.2432947e-04  -9.0723603e-07   2.2345905e-05  -5.0885159e-05  -1.3095483e-05  -2.1455713e-05  -4.7635003e-05  -5.9210284e-05  -1.1624669e-04   9.4380644e-05  -1.6963981e-05
  -1.7145925e-05  -7.5697812e-05   4.5304485e-05   1.3622966e-05   1.2600120e-05  -6.3676147e-05  -4.9811832e-05  -2.2635093e-06   9.8146294e-05  -5.6708837e-04   9.5725896e-05  -2.4457631e-04   1.2092588e-04   1.9022393e-05   1.9015322e-05  -4.6768295e-05  -7.2572402e-05  -6.9013418e-05  -2.7147347e-05  -1.2198105e-05  -2.4611468e-04  -7.5040625e-05  -5.5773744e-06  -3.0310252e-05   3.8007220e-05   1.7438537e-05  -1.5019914e-04  -6.7068991e-05  -2.4949884e-04  -8.4689200e-05  -1.1859369e-04   5.8215546e-06  -7.1325761e-05   5.0476920e-05  -3.5105943e-05  -3.0292078e-05  -1.1999012e-04  -1.1657643e-04  -8.4168962e-05  -9.4193085e-05   6.5685349e-06   3.0820738e-05  -2.6533246e-07   1.9872668e-06   3.6811682e-06  -5.4557881e-05  -5.8608803e-05  -1.1386839e-04   8.1756341e-05   1.8959288e-05
   3.4007207e-06  -6.3553423e-05   5.2573541e-05   3.5386875e-05   5.8113355e-06  -5.8122630e-05  -5.1855768e-05  -1.6217928e-05   1.0628335e-04  -5.6551083e-04   9.7718650e-05  -2.4833425e-04   1.1439169e-04   1.5342766e-05   2.0433541e-05  -4.6777746e-05  -6.7532754e-05  -6.4994580e-05  -5.8384470e-05  -2.5183914e-05  -2.4455492e-04  -1.0046345e-04  -6.1067844e-06  -2.7621520e-05   3.8406750e-05   1.1113926e-05  -1.5536945e-04  -4.9846803e-05  -2.6033778e-04  -8.4129249e-05  -1.1931667e-04   9.3978579e-06  -7.5331205e-05   3.5048648e-05  -3.8710201e-05  -3.5366695e-05  -1.2790901e-04  -1.1386893e-04  -9.5067022e-05  -1.1105290e-04   4.4828885e-06   5.6697650e-06  -2.7512278e-05  -1.5752300e-07  -5.3507774e-05  -3.2181611e-05  -8.4576764e-05  -9.9283752e-05   8.7618530e-05   1.4509867e-05
  -1.9627541e-05  -6.6543515e-05   3.8276154e-05   5.6501476e-06   5.5855076e-06  -5.6319426e-05  -6.7609821e-05  -1.8878789e-05   5.2587915e-05  -5.8030849e-04   7.8022640e-05  -2.6911337e-04   1.0034298e-04  -1.3361048e-06   1.7618197e-05  -4.5476543e-05  -6.3992557e-05  -6.1452709e-05  -8.2532861e-05  -4.9794653e-05  -2.8897793e-04  -1.5252279e-04  -9.6113436e-06  -3.0409663e-05  -8.0185691e-06  -3.1190582e-05  -1.3528271e-04  -6.4238346e-05  -2.3174343e-04  -6.9789574e-05  -1.1831032e-04   1.2497906e-05  -1.0607807e-04   1.9446226e-05  -2.8480425e-05  -5.2139250e-05  -1.2663392e-04  -1.1846217e-04  -8.9558358e-05  -1.2375547e-04  -3.8473850e-06   1.1075761e-05  -2.0103900e-05  -8.4389158e-06  -2.2984974e-05  -5.0290939e-05  -7.9940772e-05  -8.0845864e-05   1.0315275e-04   6.7249807e-06
   5.5369737e-06  -6.6252462e-05   5.3413260e-05   3.4915218e-05   4.1290095e-06  -6.1628423e-05  -6.0624996e-05  -2.7045508e-05   7.8567275e-05  -5.6280679e-04   8.2358012e-05  -2.4155017e-04   1.0082057e-04   4.0910736e-06   1.8290581e-05  -6.2130552e-05  -8.1101876e-05  -7.4900287e-05  -3.5998313e-05  -4.2276861e-05  -2.7712982e-04  -8.0344136e-05   7.9259671e-06  -4.4065448e-05   9.8339870e-06   1.8570659e-05  -1.4824435e-04  -6.4194348e-05  -2.6505298e-04  -8.3616920e-05  -1.1389556e-04   3.1183968e-06  -7.3708798e-05   5.1032523e-05  -3.2563199e-05  -3.3655218e-05  -1.1852773e-04  -1.0532314e-04  -8.3189989e-05  -1.0479382e-04  -1.1477504e-05   2.0439778e-05  -6.3647203e-06   7.5461089e-06  -5.4372522e-05  -6.1478946e-05  -9.4745708e-05  -1.1402437e-04   6.4034379e-05  -1.9180600e-06
  -1.0193641e-05  -3.1224568e-05   3.9169565e-05   2.2395985e-05   6.5722753e-07  -7.6827295e-05  -7.6267759e-05  -3.1793887e-05   7.3100171e-05  -5.6973496e-04   7.2391857e-05  -2.5687562e-04   9.3727962e-05  -1.7842586e-06   1.4260761e-05  -5.3705018e-05  -7.2424773e-05  -6.3241278e-05  -7.9849517e-05  -5.7878504e-05  -2.6253267e-04  -1.0867033e-04  -2.3513460e-06  -4.9161583e-05  -1.9839663e-05  -2.8847230e-06  -1.3460063e-04  -6.8898669e-05  -2.4397885e-04  -8.2478844e-05  -1.1219741e-04  -7.2279440e-06  -1.1810070e-04   1.8242090e-05  -3.7928956e-05  -4.4134991e-05  -1.2766881e-04  -1.0975835e-04  -8.8847482e-05  -1.1177429e-04  -2.8004972e-05  -2.8522270e-06  -3.7311336e-05  -1.0000093e-05  -2.2732291e-05  -6.7199253e-05  -1.2739249e-04  -1.8161321e-04   4.3783079e-05  -7.4565440e-07
  -3.0933934e-05  -8.3032697e-05   1.5220159e-05  -1.5656078e-05   1.5094523e-07  -8.8606488e-05  -8.4718748e-05  -1.9817626e-05   3.6530357e-05  -5.8624998e-04   5.6102373e-05  -2.7145215e-04   9.0022055e-05  -6.0497055e-06   5.6703384e-06  -5.2044048e-05  -6.3670959e-05  -6.6891356e-05  -1.1945707e-04  -9.9100951e-05  -2.7033273e-04  -1.2476739e-04  -2.6073418e-05  -7.2050381e-05  -2.8283730e-05  -3.2761742e-05  -1.3446083e-04  -7.5352385e-05  -2.3809177e-04  -8.9521265e-05  -1.2295794e-04  -5.7790276e-06  -1.1807913e-04  -6.1670971e-06  -4.6144076e-05  -6.1280523e-05  -1.2853609e-04  -1.0425518e-04  -9.0305490e-05  -1.1726208e-04  -4.1700521e-05  -2.8265917e-05  -7.4474585e-05  -1.5667356e-05  -1.0459858e-04  -8.1411352e-05  -9.1314760e-05  -1.7458311e-04   2.9223149e-05  -5.1783099e-05
  -3.8765207e-05  -8.6595501e-05   2.8635883e-05  -6.8733084e-06   8.8386687e-06  -7.0433161e-05  -7.3642368e-05  -2.5594745e-05   4.7731453e-05  -5.6849839e-04   5.2808329e-05  -2.4752092e-04   8.3247600e-05  -2.1730571e-05  -1.8926070e-06  -6.5750624e-05  -7.4282594e-05  -7.0049573e-05  -7.9913618e-05  -7.8877936e-05  -2.4086153e-04  -8.1301361e-05  -1.4149549e-05  -3.4537909e-05   3.2989661e-05   1.7549552e-05  -1.4145144e-04  -8.0229394e-05  -2.4525926e-04  -9.0977934e-05  -1.0843339e-04  -9.8132823e-06  -5.9818110e-05   1.4401427e-05  -4.8596390e-05  -5.3193064e-05  -1.1756034e-04  -9.6297772e-05  -1.0121554e-04  -1.1448441e-04  -2.1647556e-05  -3.8285907e-05  -2.5873131e-05  -2.7375611e-06  -6.3139749e-05  -5.2039264e-05  -1.0354855e-04  -1.8067380e-04   3.2794236e-05  -3.2020293e-05
  -2.7215057e-05  -7.4953241e-05   2.3495480e-05   4.2809975e-06  -3.4608995e-06  -7.6177741e-05  -7.8884004e-05  -4.0346353e-05   4.1597305e-05  -5.6335138e-04   6.8701433e-05  -2.6214932e-04   7.1121176e-05  -3.6795554e-05   2.8869945e-06  -6.0113911e-05  -7.3756157e-05  -7.4598611e-05  -9.5200667e-05  -1.0370820e-04  -2.5436591e-04  -1.1178874e-04  -1.7803286e-05  -5.9110480e-05   1.3921494e-05  -1.0540402e-05  -1.3521338e-04  -7.0188238e-05  -2.2818195e-04  -8.5167136e-05  -1.1360408e-04  -1.2719260e-05  -7.5796750e-05   1.5358446e-05  -5.3451695e-05  -5.3983385e-05  -1.2593715e-04  -1.0482295e-04  -9.8847275e-05  -1.1665629e-04  -2.6688542e-05  -2.6477863e-05  -2.4486275e-05  -8.8075321e-06  -1.1166956e-04  -7.7765515e-05  -1.1591178e-04  -1.1279545e-04   3.6789272e-05  -1.8302600e-05
  -5.6986984e-05  -6.2233470e-05   6.6510265e-06  -3.0190744e-05  -5.3550721e-06  -7.6552838e-05  -8.9106419e-05  -3.7817001e-05  -3.0614716e-05  -5.7183206e-04   4.3441451e-05  -2.8354561e-04   5.3482538e-05  -5.4792043e-05  -2.0794709e-05  -5.7719433e-05  -7.1237417e-05  -7.1180511e-05  -1.3168855e-04  -7.0813767e-05  -2.6095120e-04  -1.6383648e-04  -1.9448642e-05  -7.8629113e-05  -3.8424096e-05  -4.5403318e-05  -1.4843780e-04  -6.4970613e-05  -2.3081926e-04  -7.4181196e-05  -1.0647124e-04  -2.4142828e-05  -1.6794109e-04  -1.3007119e-05  -5.3797285e-05  -8.4184918e-05  -1.1632345e-04  -1.1022449e-04  -9.7595868e-05  -1.0510202e-04  -3.6604124e-05  -5.4009899e-05  -5.5928260e-05  -2.0320187e-05  -1.2542969e-04  -7.3470284e-05  -1.3539092e-04  -1.3370682e-04   3.9655068e-05  -3.4307952e-05
  -8.7198416e-05  -1.2276000e-04  -1.8198916e-05  -6.6832232e-05  -6.1617193e-06  -9.0769870e-05  -9.2530827e-05  -3.5340636e-05  -3.7741775e-05  -5.5300869e-04   1.4930518e-05  -2.7394178e-04   4.5796878e-05  -5.9049293e-05  -3.2170825e-05  -6.4551379e-05  -9.4972362e-05  -8.4140745e-05  -1.0421907e-04  -9.1744427e-05  -2.1769422e-04  -1.1754415e-04  -2.5347505e-05  -7.4985939e-05  -1.5097228e-05  -1.1403313e-05  -1.3414249e-04  -7.8557787e-05  -2.4560292e-04  -8.4834828e-05  -1.2354906e-04  -1.9534969e-05  -1.3611987e-04   8.3322893e-06  -5.0579827e-05  -5.7175352e-05  -1.2434191e-04  -1.1067328e-04  -9.7395285e-05  -8.4092608e-05  -1.8670187e-05  -3.5722973e-05  -4.0911847e-05  -1.2029454e-05  -1.2094979e-04  -8.6783781e-05  -1.3466959e-04  -1.4952732e-04   4.1107902e-05  -4.5461973e-05
  -5.8302474e-05  -7.7708763e-05  -3.6079648e-06  -1.9793348e-05  -1.4652661e-05  -1.0431743e-04  -8.7625449e-05  -4.0425268e-05   7.2772937e-06  -5.3567975e-04   4.7367095e-05  -2.5776873e-04   4.5804907e-05  -4.5766134e-05  -2.7430438e-05  -7.1617957e-05  -8.6438260e-05  -9.3663322e-05  -1.0337327e-04  -8.0124461e-05  -2.3482426e-04  -8.6062952e-05  -3.1485604e-05  -4.6109293e-05  -1.3207768e-05  -1.5169298e-05  -1.5942872e-04  -9.3950497e-05  -3.0404882e-04  -9.8421944e-05  -1.4357897e-04  -1.0058101e-05  -1.1535503e-04   1.3223116e-05  -6.4446089e-05  -5.9289589e-05  -1.4763897e-04  -1.3279277e-04  -1.1250639e-04  -1.1929026e-04  -3.4018893e-05  -5.3827076e-05  -6.6544300e-05  -1.5274032e-05  -9.2117349e-05  -1.0858947e-04  -1.0935162e-04  -1.7567555e-04   2.7433478e-05  -5.9116712e-05
  -7.3655188e-05  -7.6304408e-05  -1.8920342e-05  -4.9856517e-05  -1.9968347e-05  -1.2376529e-04  -1.0174195e-04  -2.5760524e-05  -5.5466458e-06  -5.4426456e-04   4.3837463e-05  -2.5835648e-04   4.4342469e-05  -4.7186237e-05  -4.3084321e-05  -6.5241831e-05  -7.0019378e-05  -1.0109098e-04  -1.2064992e-04  -6.8472036e-05  -2.5373499e-04  -1.1576812e-04  -3.4040680e-05  -5.5015684e-05  -2.4604837e-05  -5.5885928e-05  -1.6011942e-04  -9.1107780e-05  -2.7875707e-04  -1.0580135e-04  -1.3709371e-04  -1.2596151e-05  -1.1156552e-04  -2.7309552e-05  -6.7781126e-05  -7.5654207e-05  -1.4291839e-04  -1.2551609e-04  -1.1571835e-04  -1.3950044e-04  -6.6094559e-05  -3.7274509e-05  -8.1304133e-05  -1.8030871e-05  -9.4772608e-05  -1.0187182e-04  -1.2302626e-04  -1.4523095e-04   6.9994771e-06  -6.5416731e-05
  -6.9957161e-05  -9.6829135e-05   1.2883251e-06  -2.4515508e-05  -9.3487588e-06  -8.9669687e-05  -9.5489930e-05  -4.0818213e-05   1.1041428e-05  -5.3337729e-04   2.3759992e-05  -2.3713490e-04   3.6160342e-05  -5.8138136e-05  -2.9256917e-05  -8.2888218e-05  -9.3556650e-05  -1.0662380e-04  -9.7262222e-05  -1.0227181e-04  -2.3095094e-04  -8.4464242e-05  -3.0891184e-05  -5.6903431e-05   2.6057537e-06  -6.0262855e-06  -1.7666446e-04  -8.1944963e-05  -2.8614720e-04  -9.9041841e-05  -1.3479951e-04  -2.7649521e-05  -1.0572164e-04   1.1999288e-06  -6.1566374e-05  -5.5170301e-05  -1.2229824e-04  -1.1593885e-04  -1.1369944e-04  -1.0726544e-04  -2.0807984e-05  -6.6776229e-05  -4.8530364e-05  -1.7914271e-06  -8.4284300e-05  -9.6665855e-05  -1.0002050e-04  -1.3767573e-04   4.7931288e-05  -3.1275864e-05
  -6.9940332e-05  -3.8762682e-05  -1.1125810e-05  -2.2763958e-05  -1.9540053e-05  -1.1695687e-04  -1.0624852e-04  -3.9008373e-05   3.6734746e-06  -5.2460417e-04   4.0554543e-05  -2.3471289e-04   3.3081949e-05  -5.4418229e-05  -3.4495115e-05  -7.8278899e-05  -8.2653693e-05  -1.0877780e-04  -1.0843755e-04  -8.6043066e-05  -2.2932554e-04  -1.0544830e-04  -3.7785190e-05  -2.7572416e-05   7.6397973e-06  -2.3143642e-05  -1.7560579e-04  -7.4985110e-05  -2.6163593e-04  -1.0025896e-04  -1.3230993e-04  -1.5844998e-05  -1.6449598e-04   5.3713075e-06  -6.5018568e-05  -7.9191181e-05  -1.3255443e-04  -1.2423117e-04  -1.2123907e-04  -1.2467074e-04  -5.4837521e-05  -4.0566796e-05  -5.7978239e-05  -2.1857453e-05  -1.1367392e-04  -9.2936782e-05  -1.1617517e-04  -1.7125161e-04   4.3115808e-05  -8.3782732e-05
  -9.3469935e-05  -9.2170907e-05  -2.9591971e-05  -5.2311210e-05  -2.0404264e-05  -1.2287822e-04  -1.0403749e-04  -3.5003042e-05  -2.7908385e-05  -5.3402892e-04   3.1245570e-05  -2.4639932e-04   2.3782806e-05  -6.5894244e-05  -4.5438312e-05  -7.0273301e-05  -8.1166203e-05  -1.0209123e-04  -1.5034036e-04  -1.0410659e-04  -2.3492583e-04  -1.2736465e-04  -5.2088457e-05  -5.8540489e-05  -2.5439404e-05  -3.8139300e-05  -1.5926512e-04  -1.1718063e-04  -2.9376539e-04  -1.0564987e-04  -1.3837269e-04  -1.9415473e-05  -1.2113334e-04  -1.1619322e-05  -7.4125579e-05  -5.9320082e-05  -1.3381576e-04  -1.2408651e-04  -1.1565373e-04  -1.1667347e-04  -2.0409081e-05  -8.8855277e-06  -5.1203944e-05  -4.7170697e-06  -8.2485181e-05  -9.5539988e-05  -9.9080011e-05  -1.2385432e-04   3.7546308e-06  -6.6001630e-05
  -6.4660562e-05  -7.3473180e-05  -2.8113059e-06  -4.8201741e-06  -2.3977378e-05  -1.1271429e-04  -9.5911979e-05  -4.7628331e-05   3.2778982e-05  -5.0861668e-04   4.2860505e-05  -2.2062515e-04   2.5284626e-05  -6.3942411e-05  -3.3392400e-05  -8.2933999e-05  -8.6201355e-05  -1.0342437e-04  -9.0237052e-05  -7.7546822e-05  -2.3807434e-04  -9.5109121e-05  -2.8357943e-05  -6.5599430e-05  -1.4701213e-06  -2.0829568e-05  -1.7271657e-04  -9.6839321e-05  -2.8942013e-04  -9.8193508e-05  -1.3585560e-04  -2.9996289e-05  -1.2540705e-04   6.8401664e-06  -5.7108697e-05  -7.2854171e-05  -1.4629954e-04  -1.1625187e-04  -1.2149253e-04  -1.1696258e-04  -2.6717729e-05  -5.3674758e-05  -6.8295980e-05  -1.2276471e-05  -1.2712115e-04  -9.5447453e-05  -1.2371248e-04  -2.2061096e-04   7.0015412e-06  -5.9389611e-05
  -8.2384897e-05  -6.6139801e-05  -1.7109543e-05  -3.2891272e-05  -2.4602190e-05  -1.2133647e-04  -1.1607388e-04  -4.8213584e-05  -6.5223608e-06  -5.1234645e-04   3.3588734e-05  -2.2541090e-04   1.8473245e-05  -6.8711532e-05  -3.5107267e-05  -7.8645513e-05  -8.2893210e-05  -1.0608816e-04  -1.2361191e-04  -8.3292041e-05  -2.5598906e-04  -1.1633008e-04  -5.7702953e-05  -6.2953404e-05  -4.0420069e-05  -4.7704685e-05  -1.6006766e-04  -1.0061706e-04  -2.7565978e-04  -1.0260455e-04  -1.3277466e-04  -3.1159940e-05  -1.3269810e-04  -1.2559877e-05  -6.8348287e-05  -6.6023087e-05  -1.4522529e-04  -1.3486364e-04  -1.3082029e-04  -1.4126860e-04  -5.0704937e-05  -4.8265236e-05  -6.1961327e-05  -2.7870738e-05  -1.0053674e-04  -1.3694202e-04  -1.2464002e-04  -1.6071311e-04  -3.7069181e-05  -7.5761578e-05
  -7.9803482e-05  -9.6449490e-05  -3.1393481e-06  -2.8539807e-05  -2.1062178e-05  -1.1603278e-04  -1.0126340e-04  -4.4992790e-05   2.2532595e-05  -4.9922301e-04   2.2948869e-05  -2.0059136e-04   2.0060406e-05  -5.9987808e-05  -3.5206660e-05  -8.4367617e-05  -9.4677613e-05  -1.1745271e-04  -9.2050650e-05  -9.6626201e-05  -2.1190225e-04  -8.1069462e-05  -4.4580291e-05  -7.1588896e-05  -1.2427689e-05  -2.4392361e-06  -1.8336055e-04  -9.2798211e-05  -2.6428112e-04  -9.9078170e-05  -1.3459256e-04  -3.0670984e-05  -7.9359175e-05   1.6641849e-05  -6.4905827e-05  -6.7728783e-05  -1.3056496e-04  -1.0960481e-04  -1.2068344e-04  -1.1648900e-04  -1.8461387e-05  -6.9140464e-05  -5.9980510e-05  -1.3789801e-05  -1.4360901e-04  -1.0351972e-04  -1.4210478e-04  -1.9885787e-04   2.3315666e-05  -3.8961178e-05
  -6.6977947e-05  -3.5991823e-05  -3.3646688e-06  -2.1279086e-05  -2.8891385e-05  -1.1413990e-04  -1.0769002e-04  -5.9601476e-05   9.9550389e-06  -4.9202924e-04   3.5384495e-05  -2.0043667e-04   1.6759604e-05  -7.3863339e-05  -3.5897905e-05  -8.4883512e-05  -8.6871965e-05  -1.0672661e-04  -1.0094187e-04  -8.2905281e-05  -2.4899543e-04  -8.7749715e-05  -3.2432410e-05  -5.3300279e-05  -9.1634047e-06  -2.5657309e-05  -1.6109996e-04  -9.9866993e-05  -2.8332073e-04  -9.5185409e-05  -1.3288650e-04  -3.9789546e-05  -1.3682638e-04   1.9595382e-06  -6.3789172e-05  -7.2233495e-05  -1.3502005e-04  -1.2932590e-04  -1.2933533e-04  -1.3488143e-04  -1.6265700e-05  -1.0794920e-04  -5.1434439e-05  -1.1103564e-05  -1.7983133e-04  -1.0283483e-04  -1.5870748e-04  -1.7657127e-04  -1.2946058e-05  -7.8302473e-05
  -7.9644960e-05  -9.2083785e-05  -1.5011068e-05  -4.5815792e-05  -2.5193845e-05  -1.2808041e-04  -1.2255833e-04  -5.4179698e-05  -2.7827204e-05  -4.9639668e-04   3.2829663e-05  -2.1234299e-04   1.2399543e-05  -7.1078561e-05  -3.1873325e-05  -6.9509588e-05  -7.5490338e-05  -8.9514760e-05  -1.2553681e-04  -7.2482406e-05  -2.6299333e-04  -1.3056348e-04  -6.0651557e-05  -4.7275837e-05  -3.7862963e-05  -5.9598944e-05  -1.5810785e-04  -9.9770929e-05  -2.6136302e-04  -9.1814189e-05  -1.4044451e-04  -3.5783032e-05  -1.5932127e-04  -1.7760802e-05  -7.5372867e-05  -8.6346088e-05  -1.4820446e-04  -1.2968561e-04  -1.4418630e-04  -1.4225217e-04  -2.9291805e-05  -7.3927091e-05  -7.4318043e-05  -2.2077593e-05  -1.4959696e-04  -9.9059602e-05  -1.3577600e-04  -1.9580583e-04  -2.7870390e-05  -7.8959187e-05
  -5.0836676e-05  -6.7037588e-05   5.7276998e-06  -1.1166235e-05  -2.7002881e-05  -1.2185462e-04  -1.1312623e-04  -6.0732258e-05   3.6894155e-05  -4.6717172e-04   6.0451795e-05  -1.7421541e-04   2.6627851e-05  -6.3761865e-05  -3.1629042e-05  -7.6926139e-05  -7.7396609e-05  -9.7563774e-05  -1.0144436e-04  -6.0195274e-05  -2.3695792e-04  -6.1808736e-05  -4.5291050e-05  -4.1061488e-05  -3.5629680e-05  -1.6175740e-05  -1.8682369e-04  -8.7526016e-05  -2.9847317e-04  -1.0106684e-04  -1.4110995e-04  -2.8209284e-05  -1.5280144e-04   8.4328885e-06  -8.5749198e-05  -7.9125108e-05  -1.5706230e-04  -1.2661304e-04  -1.3892415e-04  -1.5214122e-04  -4.3989545e-05  -1.0277078e-04  -7.5309195e-05  -2.5409763e-05  -1.5333433e-04  -1.0863200e-04  -1.4649826e-04  -2.1196387e-04  -1.1869532e-05  -8.8057866e-05
  -5.8966401e-05  -4.8055794e-05  -3.8743369e-06  -2.6108284e-05  -2.9514376e-05  -1.3558009e-04  -1.2625808e-04  -5.5558350e-05   3.0579984e-05  -4.6538888e-04   5.4974462e-05  -1.7985365e-04   3.3231758e-05  -6.0626622e-05  -3.6313904e-05  -6.0919949e-05  -6.5135690e-05  -9.5251868e-05  -1.2783112e-04  -4.9725746e-05  -2.1850155e-04  -7.2943258e-05  -6.3380932e-05  -3.8835205e-05  -4.7544803e-05  -5.0676139e-05  -1.4762799e-04  -1.0268317e-04  -2.9866281e-04  -1.0940097e-04  -1.4029747e-04  -3.7575544e-05  -1.1542233e-04  -1.4718046e-05  -8.3953593e-05  -8.1538215e-05  -1.7036294e-04  -1.3747657e-04  -1.4402492e-04  -1.7319134e-04  -7.8453573e-05  -8.9513800e-05  -1.2029783e-04  -3.3884546e-05  -1.5081525e-04  -1.1548772e-04  -1.4410869e-04  -1.9640813e-04  -1.9233303e-05  -1.6223996e-04
  -8.1923507e-05  -1.0717989e-04  -2.4219864e-05  -6.2048755e-05  -2.2578120e-05  -1.3391607e-04  -1.2237513e-04  -5.2975767e-05  -3.4184606e-05  -4.7228744e-04   3.5460103e-05  -1.9173845e-04   2.7509064e-05  -6.4208856e-05  -4.9852431e-05  -5.0098311e-05  -5.5069271e-05  -8.4924475e-05  -1.4794868e-04  -3.5458681e-05  -2.4131102e-04  -1.0823140e-04  -7.0458416e-05  -3.8633269e-05  -9.7784461e-05  -7.1951297e-05  -1.5034691e-04  -1.2777111e-04  -2.6512626e-04  -1.1504025e-04  -1.4106932e-04  -4.2838426e-05  -1.5590094e-04  -4.4658907e-05  -9.2859016e-05  -9.7011711e-05  -1.5474965e-04  -1.3161672e-04  -1.4639234e-04  -1.5910224e-04  -6.5803280e-05  -1.1393135e-04  -1.0873542e-04  -1.9433623e-05  -1.6401656e-04  -1.0907654e-04  -1.7645264e-04  -2.1567071e-04  -1.1746840e-05  -1.2038217e-04
  -5.6902758e-05  -7.9915750e-05  -5.0217550e-06  -2.2412656e-05  -2.7242599e-05  -1.3477053e-04  -1.1892166e-04  -5.5894201e-05   1.8345256e-05  -4.4361019e-04   5.3837099e-05  -1.6607606e-04   3.6229703e-05  -5.3673160e-05  -3.6450921e-05  -6.1543462e-05  -6.2226893e-05  -9.3800591e-05  -1.1312120e-04  -5.8460038e-05  -1.9134290e-04  -4.5407243e-05  -6.0908602e-05  -4.1058593e-05  -3.3537279e-05  -2.6264763e-05  -1.5803428e-04  -1.2280658e-04  -2.8509393e-04  -1.2428974e-04  -1.4593590e-04  -3.9963215e-05  -9.1033849e-05  -1.4930440e-05  -9.4517942e-05  -8.1217819e-05  -1.6988152e-04  -1.5510924e-04  -1.5597334e-04  -1.7690309e-04  -6.7493864e-05  -7.0302391e-05  -1.2605688e-04  -2.6559668e-05  -1.7174718e-04  -1.3150054e-04  -1.5317669e-04  -2.2472565e-04  -5.5263874e-05  -1.1195273e-04
  -7.6048753e-05  -8.5451298e-05  -1.8534314e-05  -3.6489415e-05  -3.0386505e-05  -1.3627774e-04  -1.2041965e-04  -5.9717040e-05   1.5436184e-05  -4.5155958e-04   4.9157108e-05  -1.6890127e-04   3.1176456e-05  -6.1030187e-05  -3.8313548e-05  -5.1734758e-05  -5.1201703e-05  -9.3609051e-05  -1.2704603e-04  -5.3590597e-05  -2.1261042e-04  -7.3173112e-05  -5.5576122e-05  -1.2774698e-05  -5.6217094e-05  -5.1595704e-05  -1.5987128e-04  -1.2798843e-04  -2.8333618e-04  -1.2338391e-04  -1.4117590e-04  -3.3128868e-05  -1.2500610e-04  -2.8448005e-05  -8.6746782e-05  -9.3602852e-05  -1.7441546e-04  -1.4839643e-04  -1.5086916e-04  -1.9178138e-04  -8.2126862e-05  -1.2158066e-04  -1.3521669e-04  -3.5475008e-05  -1.2962971e-04  -1.2090176e-04  -1.7102604e-04  -2.5366963e-04  -1.1144511e-05  -8.6386885e-05
  -1.0607346e-04  -8.6435481e-05  -3.8093614e-05  -6.4909698e-05  -3.0506517e-05  -1.4366976e-04  -1.3177402e-04  -5.2091502e-05  -2.3632314e-05  -4.5671922e-04   2.7204427e-05  -1.7697875e-04   2.9026469e-05  -6.4006963e-05  -4.3936092e-05  -5.5837088e-05  -6.1880150e-05  -9.8089084e-05  -1.3875793e-04  -6.1534840e-05  -2.1340887e-04  -6.8055924e-05  -8.2068691e-05  -7.6701006e-05  -6.0063336e-05  -5.7460464e-05  -1.4761173e-04  -1.4790348e-04  -2.8115627e-04  -1.2365227e-04  -1.4867997e-04  -5.0776616e-05  -1.4394344e-04  -3.1004249e-05  -1.0231567e-04  -7.6549237e-05  -1.7260943e-04  -1.3041394e-04  -1.4997326e-04  -1.6172313e-04  -5.5210108e-05  -1.1948751e-04  -1.0108901e-04  -2.3800774e-05  -1.0440748e-04  -9.7589167e-05  -1.7857025e-04  -1.7260869e-04   1.6579515e-05  -1.3701309e-04
  -7.9517064e-05  -7.7756726e-05  -1.9505069e-05  -2.5431867e-05  -3.4689288e-05  -1.4015849e-04  -1.2304270e-04  -6.6335670e-05  -4.2375409e-06  -4.3453445e-04   4.1038722e-05  -1.5505632e-04   2.9354107e-05  -6.6359789e-05  -3.8633880e-05  -6.4879830e-05  -6.5941873e-05  -9.3067109e-05  -9.2356626e-05  -5.3343967e-05  -2.1136225e-04  -2.7588505e-05  -5.6297726e-05  -7.7688390e-05  -3.8693466e-05  -2.3080736e-05  -1.6153372e-04  -1.3785542e-04  -2.9623220e-04  -1.2610306e-04  -1.3818323e-04  -5.0078866e-05  -1.1632268e-04  -2.8006170e-05  -9.9509052e-05  -8.7860710e-05  -1.7333846e-04  -1.4802450e-04  -1.5319545e-04  -1.8293380e-04  -9.1368813e-05  -1.4102836e-04  -1.3032058e-04  -3.1258332e-05  -1.3645235e-04  -1.1258223e-04  -1.5522302e-04  -2.2357168e-04  -1.9582407e-05  -1.1291692e-04
  -9.5321266e-05  -8.9155983e-05  -3.8009079e-05  -4.3849050e-05  -4.3566193e-05  -1.4698990e-04  -1.2679493e-04  -6.5483669e-05  -7.9748907e-06  -4.3775662e-04   4.5495890e-05  -1.5918963e-04   3.1189193e-05  -5.5726068e-05  -4.2526070e-05  -6.0012862e-05  -5.9907878e-05  -8.5112297e-05  -1.2432414e-04  -7.4803407e-05  -2.3298663e-04  -6.8804773e-05  -6.7724832e-05  -7.5664895e-05  -5.8539485e-05  -4.9744500e-05  -1.5164709e-04  -1.2795067e-04  -2.8236397e-04  -1.2609856e-04  -1.4021248e-04  -4.2842250e-05  -1.1448580e-04  -3.5401019e-05  -8.9961875e-05  -9.7700882e-05  -1.7807864e-04  -1.4644572e-04  -1.6006139e-04  -1.7718867e-04  -8.4682069e-05  -1.2782369e-04  -1.1219296e-04  -5.2196727e-05  -1.4083138e-04  -1.3120004e-04  -1.6734183e-04  -2.1658147e-04  -7.6776305e-05  -1.3611042e-04
  -1.1040924e-04  -9.1650727e-05  -3.6186106e-05  -4.7981543e-05  -3.5900561e-05  -1.4395917e-04  -1.2635766e-04  -5.9428330e-05  -9.7668108e-06  -4.2306690e-04   3.1564901e-05  -1.4708495e-04   3.1398107e-05  -6.0391612e-05  -3.7841455e-05  -6.5524262e-05  -7.0764654e-05  -9.8658551e-05  -9.5046533e-05  -4.3794756e-05  -1.7139735e-04  -8.7036142e-06  -5.1349674e-05  -1.8927207e-05  -2.3610708e-05  -2.0542680e-06  -1.6669626e-04  -1.4568638e-04  -3.3066375e-04  -1.3431009e-04  -1.4775965e-04  -4.4159195e-05  -1.0937752e-04  -2.1235974e-05  -9.7528682e-05  -9.4772142e-05  -1.7386067e-04  -1.3585792e-04  -1.5230861e-04  -1.7642278e-04  -7.8137542e-05  -1.1991530e-04  -1.0328879e-04  -1.5786289e-05  -1.1780013e-04  -1.1252001e-04  -1.8004267e-04  -2.3350815e-04  -1.9331676e-05  -1.1867686e-04
  -9.3406728e-05  -8.3223698e-05  -4.0536859e-05  -4.1120820e-05  -4.3602700e-05  -1.5251532e-04  -1.2890472e-04  -6.9202368e-05   1.5634676e-05  -4.2115836e-04   3.6988502e-05  -1.4619302e-04   3.3255583e-05  -6.1277344e-05  -3.5425590e-05  -6.4600848e-05  -6.8001391e-05  -9.6162636e-05  -1.0115019e-04  -3.7797414e-05  -2.0278485e-04  -1.0450930e-05  -5.7219582e-05  -5.1324369e-05  -5.2616710e-05  -2.4412282e-05  -1.6331492e-04  -1.4606462e-04  -3.0051201e-04  -1.3829400e-04  -1.5133170e-04  -5.0886974e-05  -1.0506657e-04  -4.2748823e-05  -1.0660381e-04  -1.0732922e-04  -1.8279078e-04  -1.4476977e-04  -1.6250895e-04  -1.8785518e-04  -1.0757277e-04  -1.4931592e-04  -1.3844667e-04  -2.8363438e-05  -1.0735254e-04  -1.2851084e-04  -2.1124711e-04  -2.2807700e-04  -1.9746845e-05  -1.5150849e-04
  -1.1938435e-04  -1.1260469e-04  -5.5316399e-05  -6.7739471e-05  -4.2119562e-05  -1.4822379e-04  -1.4160865e-04  -6.9846661e-05  -8.0903643e-05  -4.3174229e-04   2.8460665e-06  -1.7000391e-04   2.2569995e-05  -7.8510435e-05  -4.9342383e-05  -6.3472376e-05  -6.0271930e-05  -9.6574317e-05  -1.5394474e-04  -6.4877197e-05  -1.9850215e-04  -7.2574432e-05  -5.3577311e-05  -7.1447997e-05  -6.8380432e-05  -5.7251098e-05  -1.5059905e-04  -1.4079531e-04  -2.6777570e-04  -1.3520988e-04  -1.3084557e-04  -4.7482343e-05  -1.1442713e-04  -6.5839893e-05  -9.7372256e-05  -1.2379519e-04  -1.8290302e-04  -1.4901586e-04  -1.6607811e-04  -1.9564202e-04  -9.5525567e-05  -1.4108008e-04  -1.2925854e-04  -4.4931858e-05  -1.0010996e-04  -1.3466217e-04  -1.9952322e-04  -2.0707729e-04  -2.2949549e-05  -1.3001116e-04
  -1.0604690e-04  -1.0058931e-04  -4.1198138e-05  -4.0080111e-05  -4.3751788e-05  -1.3644302e-04  -1.3683144e-04  -8.1514852e-05  -3.6393856e-05  -4.0740389e-04  -4.7916897e-06  -1.5454524e-04   1.6393764e-05  -8.4904059e-05  -4.5111206e-05  -8.5091946e-05  -7.9617384e-05  -1.0258864e-04  -9.1500508e-05  -7.0116577e-05  -1.4136134e-04  -1.2628861e-05  -5.1772524e-05  -3.0667019e-05  -2.0344540e-05  -7.8324529e-06  -1.6874289e-04  -1.3885068e-04  -2.9937230e-04  -1.2390233e-04  -1.3013952e-04  -5.1899020e-05  -6.8948910e-05  -4.1250445e-05  -9.3636168e-05  -1.1658602e-04  -1.6472196e-04  -1.2796975e-04  -1.5725219e-04  -1.4835829e-04  -7.3085816e-05  -1.5443833e-04  -8.4483014e-05  -2.8500332e-05  -1.2850726e-04  -8.8960500e-05  -2.1422294e-04  -1.9546486e-04  -5.3903470e-05  -1.2795100e-04
  -1.1163609e-04  -7.5398777e-05  -5.2713025e-05  -4.7205223e-05  -5.2297175e-05  -1.4745432e-04  -1.4001431e-04  -8.6336135e-05  -6.5960128e-05  -4.0379868e-04  -1.0718516e-05  -1.6383546e-04   9.5746655e-06  -9.3209514e-05  -4.6545567e-05  -8.1468148e-05  -8.3570674e-05  -1.0385989e-04  -1.1704978e-04  -8.6530817e-05  -1.8026822e-04  -4.9302882e-05  -5.3502052e-05  -4.2673702e-05  -4.6536181e-05  -2.8902257e-05  -1.5304715e-04  -1.3103864e-04  -3.1374706e-04  -1.3001608e-04  -1.3605443e-04  -6.2799438e-05  -1.1655885e-04  -4.8860726e-05  -9.2788599e-05  -1.1663106e-04  -1.8352669e-04  -1.2546599e-04  -1.6455386e-04  -1.6102917e-04  -7.6476856e-05  -1.5496254e-04  -1.0970661e-04  -3.4039022e-05  -1.3093579e-04  -1.1025490e-04  -2.1764557e-04  -2.1060315e-04  -3.3247518e-06  -1.2706281e-04
  -1.4290946e-04  -1.1488012e-04  -7.4436815e-05  -8.5568201e-05  -5.3380132e-05  -1.5146923e-04  -1.5057148e-04  -9.2003742e-05  -1.0492455e-04  -4.1077161e-04  -2.7832928e-05  -1.7896856e-04  -7.0706510e-06  -1.0863349e-04  -6.1910505e-05  -7.9312544e-05  -8.2039020e-05  -1.0003174e-04  -1.6278937e-04  -5.9001988e-05  -2.0912511e-04  -9.4268820e-05  -6.6489440e-05  -8.6223030e-05  -5.0524002e-05  -6.1187071e-05  -1.5923884e-04  -1.2289331e-04  -2.5703010e-04  -1.1348644e-04  -1.3497077e-04  -5.7029905e-05  -1.5217354e-04  -6.1366962e-05  -9.4381423e-05  -1.2709372e-04  -1.8793126e-04  -1.4394539e-04  -1.6657439e-04  -1.7279378e-04  -8.9021523e-05  -1.4014167e-04  -1.0076981e-04  -5.3988304e-05  -1.3565426e-04  -1.1792449e-04  -2.1523230e-04  -2.7021920e-04  -8.0231359e-05  -1.0061009e-04
  -1.7105909e-04  -1.6305409e-04  -9.4203111e-05  -1.1654018e-04  -5.4562643e-05  -1.6218492e-04  -1.5316041e-04  -8.8327019e-05  -1.3529451e-04  -4.1181990e-04  -4.4710476e-05  -1.7443768e-04  -1.8758903e-05  -1.0848598e-04  -7.8129175e-05  -7.9683297e-05  -9.9805184e-05  -1.0837369e-04  -1.4168100e-04  -1.1123995e-04  -1.8558047e-04  -6.6739536e-05  -6.5591819e-05  -2.7291033e-05  -4.8199854e-05  -2.3223231e-05  -1.6368441e-04  -1.3726654e-04  -2.5831113e-04  -1.2156207e-04  -1.3930078e-04  -6.9376350e-05  -1.6317835e-04  -4.4902630e-05  -1.0263928e-04  -1.2020603e-04  -1.6430058e-04  -1.3305501e-04  -1.5575017e-04  -1.3985515e-04  -5.9804519e-05  -1.2343566e-04  -8.4646934e-05  -3.3858109e-05  -1.4699087e-04  -8.5389089e-05  -2.2244005e-04  -1.9348721e-04  -9.4148956e-05  -1.0343022e-04
  -1.2195281e-04  -9.9766359e-05  -6.2412633e-05  -5.7689860e-05  -5.6777819e-05  -1.5610077e-04  -1.3714352e-04  -1.0331745e-04  -5.1881470e-05  -3.8148547e-04  -4.3050418e-06  -1.6069814e-04  -1.1801997e-05  -1.0412958e-04  -5.5865850e-05  -8.5455496e-05  -9.2477865e-05  -1.1914160e-04  -1.3298047e-04  -1.1103451e-04  -1.7706149e-04  -6.7442801e-05  -4.4711411e-05  -5.7932892e-05  -4.2663280e-05  -2.4180077e-05  -1.6223821e-04  -1.2011841e-04  -2.8240550e-04  -1.1255976e-04  -1.3538726e-04  -6.2932217e-05  -1.4956501e-04  -2.7632943e-05  -9.7857519e-05  -1.1733481e-04  -1.6867541e-04  -1.3353179e-04  -1.6031403e-04  -1.3308114e-04  -6.0853396e-05  -1.2226110e-04  -6.9234797e-05  -5.0232862e-05  -1.4399408e-04  -1.0927510e-04  -2.0826356e-04  -1.8921132e-04  -8.4115418e-05  -1.6976903e-04
  -1.4837443e-04  -9.7474149e-05  -7.6856937e-05  -8.3056264e-05  -5.9667349e-05  -1.5112087e-04  -1.4951354e-04  -1.0044825e-04  -9.5466399e-05  -3.7991800e-04  -1.2266702e-05  -1.6710581e-04  -2.9429370e-05  -1.2078047e-04  -6.4510445e-05  -8.7303873e-05  -8.9868612e-05  -1.0866836e-04  -1.4638566e-04  -9.0442474e-05  -2.0003512e-04  -1.0405684e-04  -5.1813782e-05  -4.8821283e-05  -6.5718668e-05  -5.6376666e-05  -1.6466404e-04  -1.3160294e-04  -2.6116896e-04  -1.0725232e-04  -1.2124702e-04  -6.8239809e-05  -1.3644990e-04  -5.8231100e-05  -1.0551445e-04  -1.1917843e-04  -1.7908961e-04  -1.3840279e-04  -1.6136021e-04  -1.5072820e-04  -7.1083050e-05  -9.9248180e-05  -8.2660197e-05  -4.2549240e-05  -1.5224778e-04  -8.8173278e-05  -2.1646102e-04  -1.3159323e-04  -7.7733763e-05  -1.1697318e-04
  -1.7467904e-04  -1.4815966e-04  -9.2374226e-05  -1.2020636e-04  -5.9975901e-05  -1.5701825e-04  -1.5531144e-04  -9.3667288e-05  -1.2602822e-04  -3.8841431e-04  -2.2744103e-05  -1.8438303e-04  -4.2452724e-05  -1.4361549e-04  -7.9864898e-05  -9.1238202e-05  -9.3689552e-05  -1.0211690e-04  -1.8564043e-04  -1.1511429e-04  -2.0309292e-04  -1.4803158e-04  -7.7647295e-05  -7.2333743e-05  -1.0031880e-04  -7.9834077e-05  -1.6161992e-04  -1.4164191e-04  -2.6336627e-04  -9.6165917e-05  -1.3197807e-04  -8.6923908e-05  -1.6378330e-04  -8.2032209e-05  -1.0561803e-04  -1.3206019e-04  -1.6864565e-04  -1.3672373e-04  -1.6177338e-04  -1.2195206e-04  -3.8573409e-05  -1.0585300e-04  -4.8028298e-05  -4.4497927e-05  -1.0365460e-04  -9.0080619e-05  -1.9939757e-04  -1.4948848e-04  -5.5846242e-05  -1.0736565e-04
  -1.4279506e-04  -1.1200079e-04  -6.7342415e-05  -6.6707376e-05  -6.5115993e-05  -1.5028795e-04  -1.4611814e-04  -1.0334251e-04  -8.3261570e-05  -3.5649864e-04  -1.0584733e-05  -1.5713178e-04  -4.7642869e-05  -1.3996268e-04  -6.6717868e-05  -1.0466253e-04  -1.0758927e-04  -1.1922754e-04  -1.3509835e-04  -1.2394472e-04  -1.6188511e-04  -8.5552754e-05  -6.5743225e-05  -8.0890764e-05  -5.7727153e-05  -3.7729700e-05  -1.7331945e-04  -1.2446793e-04  -2.4505152e-04  -1.0534384e-04  -1.2293491e-04  -7.2616494e-05  -1.2318135e-04  -4.7387872e-05  -9.4422365e-05  -1.3682740e-04  -1.7592368e-04  -1.3776605e-04  -1.5987632e-04  -1.2438589e-04  -4.5101253e-05  -8.5912048e-05  -5.9505786e-05  -4.5927882e-05  -1.3817762e-04  -1.0949970e-04  -2.0690585e-04  -1.5648620e-04  -3.4681892e-05  -1.3676216e-04
  -1.6632052e-04  -1.0447887e-04  -8.2157581e-05  -8.7405890e-05  -6.8997295e-05  -1.5665279e-04  -1.5698186e-04  -1.1127414e-04  -8.0813792e-05  -3.6459119e-04  -1.8356686e-05  -1.5786018e-04  -5.5706470e-05  -1.5309030e-04  -7.0268594e-05  -1.1206191e-04  -1.0997263e-04  -1.1729002e-04  -1.6166801e-04  -1.1614620e-04  -2.0883583e-04  -1.0338007e-04  -6.0111299e-05  -9.6520998e-05  -1.0239238e-04  -5.0568786e-05  -1.7112287e-04  -1.2491384e-04  -2.6805096e-04  -1.0246614e-04  -1.2102239e-04  -7.4861382e-05  -1.5891591e-04  -7.1320377e-05  -1.0137000e-04  -1.4188568e-04  -1.6446148e-04  -1.2924033e-04  -1.6903674e-04  -1.4231584e-04  -5.2472329e-05  -1.0233889e-04  -5.0436145e-05  -6.0426257e-05  -1.9979649e-04  -1.2979898e-04  -2.0424223e-04  -1.6588595e-04  -7.6489618e-05  -1.4289191e-04
  -1.9191355e-04  -1.3673295e-04  -1.0372255e-04  -1.2362257e-04  -6.9316142e-05  -1.5862627e-04  -1.6541766e-04  -1.0628834e-04  -1.0873402e-04  -3.6541239e-04  -3.1269316e-05  -1.6583285e-04  -6.7643414e-05  -1.6105738e-04  -8.1764265e-05  -1.0484337e-04  -1.2172845e-04  -1.2621537e-04  -1.8482082e-04  -1.0842022e-04  -1.5524433e-04  -1.0604344e-04  -7.5977849e-05  -6.1918443e-05  -8.8532419e-05  -5.4410844e-05  -1.7798510e-04  -1.4296107e-04  -2.7699792e-04  -1.0141278e-04  -1.2848970e-04  -8.6392931e-05  -1.3888702e-04  -6.1691906e-05  -1.0566467e-04  -1.2784572e-04  -1.6743445e-04  -1.3159681e-04  -1.7033301e-04  -1.3601074e-04  -2.6683427e-05  -3.7018206e-05  -4.0111259e-05  -3.7991544e-05  -1.1699647e-04  -9.5113865e-05  -2.1209472e-04  -1.3679783e-04  -1.6316109e-05  -1.1280619e-04
  -1.5833415e-04  -1.3105411e-04  -7.8849327e-05  -7.4106887e-05  -6.8537222e-05  -1.5413183e-04  -1.5483194e-04  -1.0891168e-04  -8.5567954e-05  -3.4649132e-04  -1.3068159e-05  -1.3720257e-04  -7.0720256e-05  -1.6046400e-04  -7.6049080e-05  -1.1743295e-04  -1.2147333e-04  -1.2768070e-04  -1.4389995e-04  -1.3381660e-04  -1.7536402e-04  -8.4923013e-05  -5.8427155e-05  -8.6063657e-05  -8.3021812e-05  -4.6723639e-05  -1.7800038e-04  -1.2646978e-04  -2.6202158e-04  -9.6921474e-05  -1.1984666e-04  -8.8145229e-05  -1.2888598e-04  -5.9039401e-05  -9.3931871e-05  -1.4270737e-04  -1.6196752e-04  -1.3095679e-04  -1.7078723e-04  -1.1926331e-04  -3.6208654e-05  -9.2677474e-05  -4.4600925e-05  -4.6674166e-05  -1.9288043e-04  -1.0396522e-04  -1.9037773e-04  -1.7562145e-04  -1.2639709e-04  -1.1900159e-04
  -1.7305122e-04  -1.1374868e-04  -9.2807873e-05  -9.6314252e-05  -7.4469943e-05  -1.5789316e-04  -1.5775605e-04  -1.1417516e-04  -1.1040512e-04  -3.4358885e-04  -1.3980337e-05  -1.4478716e-04  -8.0663827e-05  -1.6426004e-04  -7.6238750e-05  -1.1472450e-04  -1.1914931e-04  -1.2601269e-04  -1.6166861e-04  -1.1729438e-04  -1.8279503e-04  -1.1414885e-04  -7.4702388e-05  -1.1417325e-04  -8.9564186e-05  -7.2305615e-05  -1.7619405e-04  -1.2021331e-04  -2.6573549e-04  -9.2185626e-05  -1.1664270e-04  -8.4562045e-05  -1.7527927e-04  -7.4987664e-05  -1.0227084e-04  -1.3769671e-04  -1.6455325e-04  -1.3380374e-04  -1.7542348e-04  -1.3818947e-04  -4.8185171e-05  -6.5992135e-05  -7.3998701e-05  -5.5059649e-05  -1.8564456e-04  -1.1426409e-04  -1.7947353e-04  -1.2842454e-04  -1.2716207e-04  -1.3540991e-04
  -1.6489589e-04  -1.2186916e-04  -8.1662969e-05  -8.7472137e-05  -6.4315223e-05  -1.5653076e-04  -1.5911706e-04  -1.0968567e-04  -7.2657007e-05  -3.2717577e-04  -1.6273347e-05  -1.1839405e-04  -8.0603037e-05  -1.7145346e-04  -8.4919069e-05  -1.2707616e-04  -1.3140438e-04  -1.3634574e-04  -1.2040957e-04  -1.3722255e-04  -1.4145138e-04  -7.0698930e-05  -6.5171131e-05  -9.3905583e-05  -8.7314147e-05  -3.8532427e-05  -1.9521589e-04  -1.4086821e-04  -2.6729493e-04  -9.4510055e-05  -1.1323892e-04  -9.9711491e-05  -1.1985513e-04  -5.7301197e-05  -1.0113884e-04  -1.2116200e-04  -1.7240434e-04  -1.2619456e-04  -1.7599520e-04  -1.1866345e-04  -1.9242290e-05  -1.0155453e-04  -3.5374604e-05  -4.5573390e-05  -1.6605969e-04  -1.0656694e-04  -1.9409560e-04  -2.0252292e-04  -3.6656649e-05  -1.0724313e-04
  -1.6334589e-04  -1.1695826e-04  -8.2171944e-05  -8.4504289e-05  -7.0308583e-05  -1.5911394e-04  -1.6078593e-04  -1.1330241e-04  -7.7967190e-05  -3.1844730e-04  -9.6624608e-06  -1.1794367e-04  -8.6849795e-05  -1.6529123e-04  -8.1794286e-05  -1.1992474e-04  -1.2569311e-04  -1.3390959e-04  -1.5238130e-04  -1.1106648e-04  -1.3122798e-04  -8.0010810e-05  -7.8102275e-05  -7.6530603e-05  -8.6858279e-05  -6.4862215e-05  -1.8660842e-04  -1.3235011e-04  -2.7982940e-04  -9.4770206e-05  -1.1504717e-04  -9.1461967e-05  -1.5605488e-04  -6.2258106e-05  -1.0762822e-04  -1.3415901e-04  -1.7211308e-04  -1.3893520e-04  -1.7872358e-04  -1.3571611e-04  -3.9538572e-05  -9.4596151e-05  -6.5466214e-05  -6.0874205e-05  -1.8702241e-04  -1.0761722e-04  -1.9017600e-04  -1.5988587e-04  -1.2447342e-04  -1.3972167e-04
  -1.8140727e-04  -1.5154110e-04  -9.6993717e-05  -1.1684294e-04  -6.7822206e-05  -1.5919479e-04  -1.6966577e-04  -1.1135505e-04  -9.7743825e-05  -3.2231733e-04  -1.1531923e-05  -1.3168847e-04  -9.3877621e-05  -1.7678038e-04  -9.3289105e-05  -1.1027681e-04  -1.0805808e-04  -1.2534944e-04  -1.8122351e-04  -1.1044979e-04  -1.5910958e-04  -1.2172532e-04  -8.9047477e-05  -6.0758215e-05  -1.1979362e-04  -9.2699469e-05  -1.8213753e-04  -1.3267357e-04  -2.7579232e-04  -8.7712011e-05  -1.2463373e-04  -9.1594971e-05  -1.6757462e-04  -9.0035595e-05  -1.1405685e-04  -1.4952850e-04  -1.7360621e-04  -1.4119073e-04  -1.7957017e-04  -1.3517019e-04  -2.4917448e-05  -8.4486754e-05  -2.6188047e-05  -5.7123434e-05  -1.6662752e-04  -1.1584275e-04  -2.0347361e-04  -1.7182871e-04  -5.9562255e-05  -1.3667250e-04
  -1.4710991e-04  -1.1196110e-04  -7.1076465e-05  -7.7118901e-05  -7.1183684e-05  -1.5755824e-04  -1.6209665e-04  -1.1306997e-04  -6.7790083e-05  -2.9763929e-04  -6.0347434e-06  -9.9028781e-05  -9.3871851e-05  -1.6580170e-04  -8.0376230e-05  -1.2334905e-04  -1.2390529e-04  -1.3844464e-04  -1.3852381e-04  -1.0659745e-04  -1.4403959e-04  -6.2436142e-05  -8.0931110e-05  -7.7634373e-05  -9.9433812e-05  -3.9066126e-05  -1.8244049e-04  -1.2809479e-04  -2.6992080e-04  -9.6038515e-05  -1.1767846e-04  -9.6923046e-05  -1.4239977e-04  -6.5099361e-05  -1.0687844e-04  -1.3194047e-04  -1.7328205e-04  -1.3643551e-04  -1.8147650e-04  -1.2766533e-04  -2.1817812e-05  -1.0220590e-04  -3.0283123e-05  -4.5797042e-05  -2.0159183e-04  -7.7050361e-05  -2.1481102e-04  -1.7501814e-04  -1.1059757e-04  -8.3880033e-05
  -1.5273236e-04  -1.1956447e-04  -8.0558988e-05  -9.4292547e-05  -7.4364681e-05  -1.5753802e-04  -1.7184895e-04  -1.2124035e-04  -8.9739871e-05  -2.9965953e-04  -7.6731158e-06  -1.0566391e-04  -9.1990521e-05  -1.6785202e-04  -8.4891602e-05  -1.1226972e-04  -1.1487839e-04  -1.3380073e-04  -1.4815733e-04  -1.2745350e-04  -1.5411330e-04  -9.9321027e-05  -8.4693340e-05  -7.6605131e-05  -1.4012000e-04  -6.3811800e-05  -1.7642583e-04  -1.2457186e-04  -2.8133570e-04  -8.2147977e-05  -1.0319981e-04  -8.9403948e-05  -1.3118926e-04  -7.1893264e-05  -1.0022012e-04  -1.4042690e-04  -1.6507870e-04  -1.3681570e-04  -1.8052818e-04  -1.4432099e-04  -2.0826707e-05  -9.8748926e-05  -5.3638556e-05  -5.3069929e-05  -2.0245295e-04  -1.0898576e-04  -2.0544750e-04  -1.2550982e-04  -1.2909895e-04  -8.2913255e-05
  -1.7331399e-04  -1.2434075e-04  -9.8676450e-05  -1.3016741e-04  -6.7640896e-05  -1.5862213e-04  -1.7056128e-04  -1.1362087e-04  -1.2296705e-04  -3.0100689e-04  -2.7582802e-05  -1.1275338e-04  -1.0218336e-04  -1.6707975e-04  -9.1754358e-05  -1.0280286e-04  -1.0979294e-04  -1.1461381e-04  -1.8138146e-04  -9.2958689e-05  -1.9569240e-04  -1.2445163e-04  -9.4401272e-05  -9.1779577e-05  -1.3586006e-04  -7.6739074e-05  -1.8407265e-04  -1.3166609e-04  -2.4139899e-04  -8.0394355e-05  -1.1184865e-04  -1.0516880e-04  -1.6981970e-04  -8.1347272e-05  -1.0457193e-04  -1.3306370e-04  -1.6958597e-04  -1.3479036e-04  -1.7796860e-04  -1.1721763e-04   2.5972411e-06  -1.0605009e-04  -9.9430899e-06  -4.7917467e-05  -2.3638825e-04  -7.6802120e-05  -2.0815825e-04  -9.9793899e-05  -8.1154220e-05  -1.3002142e-04
  -1.3527644e-04  -9.4100862e-05  -6.9751382e-05  -8.2253529e-05  -6.8016707e-05  -1.4830596e-04  -1.6698531e-04  -1.2261796e-04  -8.0870646e-05  -2.7387359e-04  -4.8889324e-06  -8.5969274e-05  -9.3038521e-05  -1.7088561e-04  -7.5516684e-05  -1.0725023e-04  -1.1520577e-04  -1.2478705e-04  -1.2781531e-04  -1.0422086e-04  -1.0489417e-04  -7.3783616e-05  -8.3196966e-05  -6.7769623e-05  -9.6399759e-05  -4.6867659e-05  -1.9550021e-04  -1.2936530e-04  -2.7145908e-04  -8.4070816e-05  -1.0669776e-04  -9.5526790e-05  -1.4974907e-04  -6.8808906e-05  -1.0392749e-04  -1.2689069e-04  -1.7846127e-04  -1.4551960e-04  -1.8122725e-04  -1.3991032e-04  -1.2556376e-05  -9.4473653e-05  -4.5773704e-05  -4.3648251e-05  -2.2417236e-04  -9.1430244e-05  -2.0236554e-04  -1.9855904e-04  -1.6068603e-04  -1.4792845e-04
  -1.4108942e-04  -1.2151044e-04  -7.7878693e-05  -1.0239582e-04  -6.7348323e-05  -1.5412002e-04  -1.7360690e-04  -1.2084934e-04  -1.0635952e-04  -2.6905554e-04  -4.0565037e-06  -8.8580709e-05  -8.9246081e-05  -1.5290719e-04  -8.0867161e-05  -9.4951451e-05  -1.0298956e-04  -1.2096142e-04  -1.4994034e-04  -5.6647776e-05  -1.3266379e-04  -9.6576776e-05  -8.8206805e-05  -5.9523063e-05  -1.3648605e-04  -8.8039487e-05  -1.7736437e-04  -1.3343601e-04  -2.5978123e-04  -8.8836918e-05  -9.6209951e-05  -8.4957370e-05  -1.4954837e-04  -7.9390673e-05  -1.1643473e-04  -1.4620337e-04  -1.8495122e-04  -1.5646864e-04  -1.8672354e-04  -1.5628125e-04  -3.5944759e-05  -9.8789671e-05  -5.4712196e-05  -7.2125396e-05  -2.2352226e-04  -1.3748344e-04  -1.8438115e-04  -1.2699916e-04  -1.7989776e-04  -1.5643318e-04
  -1.6085575e-04  -1.4715454e-04  -1.0159911e-04  -1.3597925e-04  -5.9890848e-05  -1.6363434e-04  -1.7288810e-04  -1.0335419e-04  -1.2477694e-04  -2.6895027e-04  -1.4621696e-05  -9.6061543e-05  -8.7950888e-05  -1.4600539e-04  -9.2562506e-05  -8.3676568e-05  -9.0632027e-05  -1.0394071e-04  -1.8818748e-04  -1.0344625e-04  -1.2827944e-04  -1.2535597e-04  -9.4749499e-05  -8.4800697e-05  -1.5031642e-04  -1.2284121e-04  -1.5765977e-04  -1.3471767e-04  -2.5189412e-04  -8.7275228e-05  -1.0304582e-04  -8.5203028e-05  -1.9491794e-04  -1.0363673e-04  -1.1844712e-04  -1.5118455e-04  -1.8071519e-04  -1.6793753e-04  -1.9634992e-04  -1.5691390e-04  -4.0872434e-05  -5.9403945e-05  -6.9879788e-05  -6.0135004e-05  -1.9212531e-04  -8.6128217e-05  -2.0255805e-04  -1.3129190e-04  -1.1248248e-04  -1.2208390e-04
  -1.2887498e-04  -1.1231362e-04  -7.1219816e-05  -8.6577857e-05  -6.2808642e-05  -1.5190009e-04  -1.6421695e-04  -1.0926327e-04  -7.4636468e-05  -2.4642254e-04  -4.1849421e-06  -7.3623778e-05  -8.0101716e-05  -1.4642767e-04  -8.6642023e-05  -9.5310330e-05  -1.0449161e-04  -1.1084486e-04  -1.1113724e-04  -9.6265168e-05  -9.9693330e-05  -4.9842471e-05  -8.5515399e-05  -5.0532228e-05  -1.0697481e-04  -5.7071014e-05  -1.6942629e-04  -1.4929839e-04  -2.4772558e-04  -9.8997829e-05  -1.0469914e-04  -8.7462635e-05  -1.3336120e-04  -6.9592323e-05  -1.1349970e-04  -1.3878784e-04  -1.8196972e-04  -1.4687408e-04  -1.9192589e-04  -1.5132554e-04  -3.8683604e-05  -7.8604084e-05  -7.8208039e-05  -5.7206558e-05  -2.1864922e-04  -1.1454666e-04  -1.7385048e-04  -1.9208953e-04  -5.9015070e-05  -1.6730507e-04
  -1.5005584e-04  -1.1564070e-04  -8.0176382e-05  -9.5394753e-05  -6.3640313e-05  -1.5470755e-04  -1.6101979e-04  -1.1008164e-04  -6.6218832e-05  -2.4954070e-04  -3.3938047e-06  -7.7281191e-05  -8.0209436e-05  -1.5173289e-04  -8.0323473e-05  -8.0650840e-05  -9.5500283e-05  -1.1732427e-04  -1.2418530e-04  -4.9159924e-05  -8.0132493e-05  -7.2625226e-05  -8.7534128e-05  -6.6117893e-05  -1.1217526e-04  -7.9001635e-05  -1.6412970e-04  -1.4661363e-04  -2.6439509e-04  -9.9399789e-05  -9.6313372e-05  -7.5941563e-05  -1.1718719e-04  -9.1523420e-05  -1.2166835e-04  -1.2820336e-04  -1.9335980e-04  -1.5860179e-04  -1.9016191e-04  -1.6662487e-04  -6.2728468e-05  -9.8337034e-05  -7.9870762e-05  -6.3751395e-05  -1.8491925e-04  -1.3462485e-04  -1.7310085e-04  -1.2914350e-04  -5.9009475e-05  -1.3573498e-04
  -1.6878107e-04  -1.4664380e-04  -1.0095484e-04  -1.2806570e-04  -6.0170249e-05  -1.6274094e-04  -1.6447998e-04  -1.0747865e-04  -1.3052873e-04  -2.5183964e-04  -2.0454358e-05  -9.2995935e-05  -8.4046187e-05  -1.5633192e-04  -8.7696506e-05  -7.5662290e-05  -8.3147643e-05  -9.7195065e-05  -1.5700901e-04  -1.0940956e-04  -1.3721653e-04  -1.0440812e-04  -1.0076663e-04  -3.9304567e-05  -1.3029489e-04  -1.2448736e-04  -1.5874162e-04  -1.6163506e-04  -2.4757249e-04  -9.1916358e-05  -9.9014716e-05  -8.0866630e-05  -1.6268484e-04  -9.8961515e-05  -1.2166438e-04  -1.5853254e-04  -1.9450285e-04  -1.6240768e-04  -2.0131888e-04  -1.6414849e-04  -6.9700916e-05  -6.7274028e-05  -1.0062110e-04  -6.3503881e-05  -1.4454460e-04  -1.2024215e-04  -1.7295062e-04  -1.3677357e-04  -6.5571869e-05  -1.8611475e-04
  -1.4353356e-04  -1.1140489e-04  -7.6473145e-05  -8.4810585e-05  -6.3531334e-05  -1.4749834e-04  -1.4629884e-04  -1.1064256e-04  -9.0399772e-05  -2.3732951e-04  -2.5688238e-05  -6.6342815e-05  -7.7470824e-05  -1.4212925e-04  -7.8036283e-05  -9.3144925e-05  -9.9236473e-05  -1.0807024e-04  -1.1612253e-04  -6.3627900e-05  -1.0233365e-04  -3.7610829e-05  -8.1726008e-05  -3.8955764e-05  -8.4456915e-05  -5.2487580e-05  -1.6964911e-04  -1.4055564e-04  -2.6130831e-04  -1.0129542e-04  -9.2396876e-05  -8.2511004e-05  -1.1904736e-04  -7.2267139e-05  -1.1750516e-04  -1.2613111e-04  -1.8967543e-04  -1.4425644e-04  -1.8462002e-04  -1.4574510e-04  -4.0078699e-05  -8.5841144e-05  -4.2548530e-05  -5.9450271e-05  -1.7775223e-04  -1.1284173e-04  -1.8679265e-04  -1.1246574e-04  -7.8505429e-05  -9.5692063e-05
  -1.5747253e-04  -1.4054177e-04  -8.7922403e-05  -9.1200687e-05  -7.0149756e-05  -1.5634877e-04  -1.5421156e-04  -1.0718150e-04  -1.0036381e-04  -2.4091516e-04  -2.3609487e-05  -6.7386136e-05  -7.7833560e-05  -1.4597844e-04  -7.5173455e-05  -8.1425460e-05  -8.9851928e-05  -1.0216665e-04  -1.2021899e-04  -6.8968242e-05  -1.0953048e-04  -6.4347252e-05  -8.1186321e-05  -7.9478865e-05  -9.5614028e-05  -6.4232059e-05  -1.7204697e-04  -1.4796089e-04  -2.6988017e-04  -9.3597228e-05  -8.9318142e-05  -9.1823029e-05  -1.3883316e-04  -7.6391421e-05  -1.1381644e-04  -1.2887006e-04  -1.7235280e-04  -1.4042214e-04  -1.9154281e-04  -1.2966667e-04  -5.0957420e-05  -1.1432797e-04  -7.4474054e-05  -5.9326430e-05  -1.2986147e-04  -1.0663729e-04  -1.8009316e-04  -1.6126582e-04  -3.7379927e-05  -1.2952101e-04
  -1.7521823e-04  -1.3333402e-04  -1.0819655e-04  -1.2307223e-04  -6.5910928e-05  -1.5728886e-04  -1.5845154e-04  -1.0436527e-04  -1.2248677e-04  -2.5258728e-04  -3.8661812e-05  -8.2791536e-05  -8.1894126e-05  -1.4195144e-04  -8.2063299e-05  -7.6623444e-05  -9.4645249e-05  -9.2759794e-05  -1.3343969e-04  -8.5791464e-05  -1.0411306e-04  -6.1718310e-05  -8.4589337e-05  -4.8215807e-05  -8.6897373e-05  -5.7081215e-05  -1.6556952e-04  -1.5254684e-04  -2.3230417e-04  -9.5313357e-05  -9.0126799e-05  -8.0878272e-05  -9.7714110e-05  -7.5670476e-05  -1.1744061e-04  -1.3053135e-04  -1.7487239e-04  -1.3073621e-04  -1.9377051e-04  -1.2920941e-04  -4.2223317e-05  -4.8819176e-05  -6.4197055e-05  -5.0379113e-05  -9.1297494e-05  -8.7871369e-05  -1.6813063e-04  -1.3688435e-04  -3.2615535e-05  -1.2376861e-04
  -1.4265493e-04  -8.4000618e-05  -8.0507227e-05  -7.8813653e-05  -7.4599629e-05  -1.4909318e-04  -1.4458923e-04  -1.0895341e-04  -9.0387039e-05  -2.3588800e-04  -2.5956431e-05  -7.1577888e-05  -7.1427079e-05  -1.3684067e-04  -6.5971770e-05  -8.3848143e-05  -9.1130612e-05  -9.3815150e-05  -1.2899989e-04  -7.2228206e-05  -9.5631091e-05  -3.7428912e-05  -7.4371739e-05  -6.2153100e-05  -7.6594421e-05  -5.0709867e-05  -1.6627560e-04  -1.3561211e-04  -2.5231580e-04  -9.7819495e-05  -8.5136438e-05  -7.8500605e-05  -1.1594770e-04  -6.3043313e-05  -1.0576437e-04  -1.3483707e-04  -1.7925900e-04  -1.3914258e-04  -1.8926010e-04  -1.3066166e-04  -5.3029744e-05  -1.0632698e-04  -5.0160528e-05  -5.5060009e-05  -7.4958109e-05  -7.8548801e-05  -1.8091282e-04  -8.3998995e-05   5.0164363e-06  -1.3931174e-04
  -1.6263207e-04  -1.1828930e-04  -9.3292685e-05  -9.7271542e-05  -7.4654345e-05  -1.5551140e-04  -1.4866504e-04  -1.1242760e-04  -1.2277447e-04  -2.3456843e-04  -3.7474194e-05  -8.0322199e-05  -7.3319723e-05  -1.4039123e-04  -6.3527230e-05  -6.6005217e-05  -7.8111392e-05  -8.7038854e-05  -1.2984645e-04  -1.0735609e-04  -1.5376239e-04  -6.9581911e-05  -8.0404498e-05  -6.5086213e-05  -1.0348245e-04  -8.4506617e-05  -1.6057903e-04  -1.3575359e-04  -2.5559720e-04  -9.1579241e-05  -8.2870043e-05  -8.0178019e-05  -1.4056372e-04  -8.1762206e-05  -1.0533078e-04  -1.4630151e-04  -1.8733252e-04  -1.4672363e-04  -1.9700459e-04  -1.6065007e-04  -6.4497341e-05  -8.5679603e-05  -6.0932238e-05  -6.2794723e-05  -9.7676639e-05  -1.1438935e-04  -1.7408794e-04  -1.2318642e-04   1.1387986e-05  -1.5317442e-04
  -1.5910155e-04  -1.4675206e-04  -8.2410515e-05  -9.2106733e-05  -6.7072899e-05  -1.4496381e-04  -1.3899832e-04  -1.0821620e-04  -7.9037636e-05  -2.1738958e-04  -3.7653102e-05  -6.4559965e-05  -6.5314998e-05  -1.3219875e-04  -6.6316650e-05  -7.9413221e-05  -8.9373920e-05  -9.1759823e-05  -7.9666905e-05  -6.5915061e-05  -6.6060195e-05  -1.9785291e-05  -7.0699796e-05  -6.4886714e-05  -6.7485635e-05  -3.2938435e-05  -1.7539208e-04  -1.5485573e-04  -2.2576925e-04  -1.0044761e-04  -9.3387120e-05  -7.0550625e-05  -1.1286155e-04  -4.5617457e-05  -1.0506293e-04  -1.3705225e-04  -1.9081774e-04  -1.4597778e-04  -1.8999676e-04  -1.3138886e-04  -4.2427531e-05  -9.5856594e-05  -6.4125910e-05  -4.1532759e-05  -8.1073173e-05  -8.1156919e-05  -1.5803106e-04  -1.1388450e-04  -3.6445239e-05  -1.2390844e-04
  -1.4786354e-04  -8.6503140e-05  -8.3886625e-05  -8.6014828e-05  -7.6194527e-05  -1.5443520e-04  -1.5213156e-04  -1.1770586e-04  -9.9366123e-05  -2.1450300e-04  -3.1660162e-05  -7.1999544e-05  -6.2010848e-05  -1.2287554e-04  -6.4870786e-05  -6.7941139e-05  -7.8221099e-05  -9.4226089e-05  -1.2304826e-04  -5.4308253e-05  -9.0727939e-05  -2.0610074e-05  -7.3822608e-05  -8.4117681e-05  -1.1221074e-04  -3.9296563e-05  -1.5475755e-04  -1.3068391e-04  -2.6157670e-04  -9.8257340e-05  -9.6885880e-05  -8.4596286e-05  -1.4620178e-04  -6.6338565e-05  -1.0574143e-04  -1.2288489e-04  -1.9632353e-04  -1.3783039e-04  -1.9053620e-04  -1.6616112e-04  -6.7428926e-05  -1.1039747e-04  -9.4594936e-05  -4.9920069e-05  -7.9985228e-05  -8.8251923e-05  -1.6535833e-04  -1.3065487e-04  -4.0281589e-06  -1.2356631e-04
  -1.6370039e-04  -1.2881361e-04  -9.6323864e-05  -1.1658816e-04  -7.2519040e-05  -1.6180181e-04  -1.4939526e-04  -1.0897528e-04  -1.2038360e-04  -2.1701111e-04  -4.0384977e-05  -8.7376451e-05  -6.0470717e-05  -1.3281465e-04  -6.7848770e-05  -5.5047967e-05  -6.2351370e-05  -8.3319806e-05  -1.3970275e-04  -4.6797599e-05  -7.8358564e-05  -6.7967070e-05  -8.9875175e-05  -4.4389712e-05  -1.2619929e-04  -8.1121689e-05  -1.3979805e-04  -1.3040153e-04  -2.0966951e-04  -9.1130372e-05  -9.5789059e-05  -6.5267886e-05  -1.2341228e-04  -8.8443609e-05  -1.0660148e-04  -1.5680927e-04  -1.9646576e-04  -1.4149625e-04  -1.9930847e-04  -1.6533727e-04  -7.1258379e-05  -1.0109999e-04  -8.9665598e-05  -5.6767854e-05  -4.9691138e-05  -9.6730677e-05  -1.4660473e-04  -1.7282621e-04  -1.7439581e-05  -1.4134998e-04
  -1.5262487e-04  -1.3207408e-04  -7.9388024e-05  -9.9430858e-05  -6.9769783e-05  -1.5507190e-04  -1.4519910e-04  -1.1058115e-04  -9.3624076e-05  -2.0582523e-04  -3.7759626e-05  -6.4148029e-05  -5.5064818e-05  -1.2667298e-04  -6.9618021e-05  -6.9497102e-05  -7.7633784e-05  -8.3429557e-05  -1.0177175e-04  -8.5144668e-05  -6.9274538e-05  -1.3257682e-05  -6.7638517e-05  -1.9760369e-05  -7.0150323e-05  -3.4023073e-05  -1.6349000e-04  -1.5052089e-04  -2.5147761e-04  -9.5324940e-05  -9.4732510e-05  -7.3476898e-05  -1.2594905e-04  -5.4666692e-05  -1.0534648e-04  -1.5060796e-04  -1.8891583e-04  -1.2795151e-04  -1.7608600e-04  -1.5472090e-04  -4.2874191e-05  -1.2829641e-04  -4.2599971e-05  -4.8572110e-05  -9.7919226e-05  -5.4848471e-05  -1.6458158e-04  -1.1810671e-04   2.5065183e-05  -6.6414643e-05
  -1.3815012e-04  -1.0478278e-04  -8.2348553e-05  -9.1671718e-05  -7.7500430e-05  -1.5559127e-04  -1.4729374e-04  -1.1459613e-04  -9.6127827e-05  -2.0264418e-04  -2.7363329e-05  -7.1743169e-05  -5.0777169e-05  -1.2716178e-04  -7.2867631e-05  -5.8755551e-05  -6.7148692e-05  -7.8765988e-05  -1.1112614e-04  -8.4551815e-05  -6.2871877e-05  -3.5657857e-05  -5.4590586e-05  -3.9242059e-05  -9.6656324e-05  -4.6230081e-05  -1.5240465e-04  -1.4665815e-04  -2.4275573e-04  -9.6663483e-05  -8.9435831e-05  -8.1641898e-05  -1.3218180e-04  -6.3851709e-05  -1.0085583e-04  -1.3230350e-04  -1.9573160e-04  -1.3505983e-04  -1.8537449e-04  -1.5464029e-04  -5.5213481e-05  -1.1850743e-04  -6.9225483e-05  -4.5385208e-05  -4.8314192e-05  -8.8010500e-05  -1.7725045e-04  -1.0171074e-04  -6.5089866e-05  -7.6402306e-05
  -1.5447136e-04  -1.2200173e-04  -9.6152857e-05  -1.2197156e-04  -7.3321135e-05  -1.5265320e-04  -1.5272132e-04  -1.1696894e-04  -1.1629050e-04  -2.0467353e-04  -3.7214038e-05  -9.8930454e-05  -5.6073342e-05  -1.3377398e-04  -7.1308539e-05  -4.9962884e-05  -5.5352826e-05  -6.4762673e-05  -1.4601386e-04  -7.9952028e-05  -1.0994976e-04  -9.4296862e-05  -6.5298183e-05  -6.4143416e-05  -1.1228111e-04  -8.4928157e-05  -1.4689441e-04  -1.2031884e-04  -1.9282053e-04  -8.9677866e-05  -7.4568808e-05  -6.8307767e-05  -1.1577654e-04  -8.9235225e-05  -1.0866868e-04  -1.5068581e-04  -1.9539951e-04  -1.1798629e-04  -1.8874586e-04  -1.6130257e-04  -7.2599127e-05  -1.3586444e-04  -7.9503872e-05  -5.4445321e-05  -5.9027567e-05  -9.1591835e-05  -1.6518983e-04  -1.3088125e-04  -3.1276581e-05  -7.5676689e-05
  -1.7302176e-04  -1.5709683e-04  -1.1497004e-04  -1.4910054e-04  -7.1351729e-05  -1.5696402e-04  -1.5223390e-04  -1.0887664e-04  -1.4907039e-04  -1.9850956e-04  -5.0525912e-05  -1.1595055e-04  -6.5258260e-05  -1.4538526e-04  -9.3041912e-05  -4.5903464e-05  -7.0229442e-05  -7.0054506e-05  -1.3777029e-04  -9.2129943e-05  -5.4885048e-05  -6.4133783e-05  -6.3457373e-05  -6.3980617e-05  -1.0124364e-04  -6.1661536e-05  -1.4428403e-04  -1.3890823e-04  -2.3297602e-04  -9.0445159e-05  -8.6689761e-05  -8.0500256e-05  -1.2811401e-04  -6.4017979e-05  -1.1440233e-04  -1.3249369e-04  -1.8840191e-04  -1.2680196e-04  -1.8583199e-04  -1.5133905e-04  -2.9334506e-05  -9.7462762e-05  -6.1142142e-05  -4.5344404e-05  -5.9687780e-05  -7.0031143e-05  -1.4710512e-04  -1.1138940e-04   1.8978577e-05  -1.3475381e-04
  -1.3889265e-04  -1.0790095e-04  -8.2818930e-05  -9.1450434e-05  -7.9311736e-05  -1.4780211e-04  -1.3851195e-04  -1.1634545e-04  -8.3174011e-05  -1.8265085e-04  -2.7853526e-05  -1.0523405e-04  -6.3815030e-05  -1.4394698e-04  -7.3471558e-05  -6.5923712e-05  -7.6007600e-05  -7.0893650e-05  -1.2648261e-04  -8.0504040e-05  -8.8426808e-05  -5.0611983e-05  -6.2138701e-05  -8.8896995e-05  -6.5337052e-05  -5.2611984e-05  -1.4778247e-04  -1.3254378e-04  -2.1955065e-04  -8.9001478e-05  -8.4137544e-05  -8.0277037e-05  -1.1027727e-04  -7.0777824e-05  -1.0750556e-04  -1.4461619e-04  -1.9366591e-04  -1.3619612e-04  -1.7991930e-04  -1.3321337e-04  -5.5704677e-05  -1.2610156e-04  -3.5425357e-05  -5.8844715e-05  -1.0181953e-04  -8.9172274e-05  -1.6848212e-04  -1.3477053e-04  -4.1075014e-05  -1.0762820e-04
  -1.5831128e-04  -9.7588556e-05  -9.3497853e-05  -1.1134978e-04  -8.4607200e-05  -1.5251209e-04  -1.4640190e-04  -1.2226508e-04  -1.0864403e-04  -1.9107448e-04  -3.2378004e-05  -1.1641502e-04  -6.4472995e-05  -1.4650707e-04  -7.4361640e-05  -6.1854967e-05  -6.7456298e-05  -7.5026139e-05  -1.4949814e-04  -6.5290566e-05  -9.5155490e-05  -7.6340300e-05  -5.1536019e-05  -6.6817098e-05  -1.1091346e-04  -7.9755380e-05  -1.6142605e-04  -1.2651268e-04  -2.2314891e-04  -8.2278071e-05  -8.1130886e-05  -8.7979621e-05  -1.0013352e-04  -8.4959473e-05  -1.0739057e-04  -1.5283778e-04  -1.9554367e-04  -1.4634020e-04  -1.7873109e-04  -1.5203725e-04  -6.5501896e-05  -1.0269617e-04  -5.5641136e-05  -6.5781736e-05  -7.3130184e-05  -1.0057029e-04  -1.6190029e-04  -7.7630852e-05  -9.4217343e-05  -1.1704434e-04
  -1.7346005e-04  -1.3539846e-04  -1.1589396e-04  -1.4318169e-04  -7.6753975e-05  -1.5700831e-04  -1.5404097e-04  -1.1329643e-04  -1.2868819e-04  -1.8791656e-04  -4.7286259e-05  -1.0425434e-04  -6.2363120e-05  -1.4417146e-04  -7.9274694e-05  -6.7625318e-05  -8.9397821e-05  -8.6701119e-05  -1.1299057e-04  -5.7909267e-05  -5.5696099e-05  -3.5413996e-05  -7.0317459e-05  -6.9218004e-05  -8.9747577e-05  -4.8385209e-05  -1.4815005e-04  -1.3395306e-04  -2.1947378e-04  -8.7637425e-05  -7.2050840e-05  -9.3597853e-05  -1.3704412e-04  -7.3208386e-05  -1.0686820e-04  -1.4684870e-04  -1.7790608e-04  -1.1474132e-04  -1.8382818e-04  -1.3055484e-04  -4.6962999e-05  -1.0439777e-04  -3.3142340e-05  -5.6426423e-05  -9.3448340e-05  -8.4645937e-05  -1.5446973e-04  -9.2857190e-05  -7.3844589e-05  -9.7710792e-05
  -1.5196952e-04  -9.7550110e-05  -9.4214935e-05  -9.8813478e-05  -8.5210886e-05  -1.5597705e-04  -1.3768199e-04  -1.2380604e-04  -9.1536618e-05  -1.8466805e-04  -2.9140883e-05  -9.2554023e-05  -6.5757522e-05  -1.4193487e-04  -6.5055268e-05  -8.2307735e-05  -8.1906473e-05  -8.0418111e-05  -1.3628643e-04  -8.7110486e-05  -8.2915263e-05  -3.4508907e-05  -6.6003282e-05  -6.0084476e-05  -7.4553442e-05  -4.7699647e-05  -1.5595210e-04  -1.2714406e-04  -2.0344459e-04  -9.0180831e-05  -8.8284527e-05  -8.7200962e-05  -1.0757792e-04  -7.5807897e-05  -1.0131596e-04  -1.0880233e-04  -1.8537373e-04  -1.3241079e-04  -1.7660837e-04  -1.4080832e-04  -5.5651944e-05  -1.4002428e-04  -4.2117110e-05  -6.1343977e-05  -1.0357553e-04  -7.7404111e-05  -1.4820918e-04  -8.9785986e-05  -8.3384541e-05  -8.6841639e-05
  -1.6333006e-04  -1.0211339e-04  -1.0972493e-04  -1.1576075e-04  -8.5125743e-05  -1.5844841e-04  -1.5409951e-04  -1.0559149e-04  -1.1062928e-04  -1.9183183e-04  -3.6204179e-05  -1.0342629e-04  -6.8700232e-05  -1.4307164e-04  -6.7229572e-05  -6.9968337e-05  -7.2106224e-05  -7.9889629e-05  -1.3489374e-04  -8.6070584e-05  -9.8676530e-05  -6.6457891e-05  -7.0843504e-05  -4.4849730e-05  -1.0958183e-04  -7.4622592e-05  -1.4719741e-04  -1.1747681e-04  -2.0694541e-04  -8.3052226e-05  -8.3918370e-05  -9.0377835e-05  -1.1292299e-04  -9.0042486e-05  -9.9105710e-05  -1.5241516e-04  -1.9567036e-04  -1.2808685e-04  -1.8365885e-04  -1.3790140e-04  -7.1426672e-05  -1.2899250e-04  -2.3123550e-05  -4.5266377e-05  -9.0904505e-05  -8.6885557e-05  -1.5543852e-04  -8.5077692e-05  -9.9661585e-05  -1.2065945e-04
  -1.3744520e-04  -9.5244533e-05  -8.8963396e-05  -9.0269437e-05  -8.3542858e-05  -1.4708546e-04  -1.4349214e-04  -1.2623734e-04  -7.7260069e-05  -1.7132910e-04  -3.1235337e-05  -8.3037266e-05  -5.9052312e-05  -1.2932482e-04  -6.1310173e-05  -8.4816871e-05  -8.1290280e-05  -9.2057679e-05  -1.1127527e-04  -6.2285420e-05  -6.8540263e-05  -7.7531404e-06  -6.4926819e-05  -2.6233749e-05  -7.7984769e-05  -2.2257371e-05  -1.5816804e-04  -1.1842337e-04  -2.3211526e-04  -8.8819783e-05  -7.8585064e-05  -8.5120133e-05  -1.0031508e-04  -5.4978056e-05  -1.0367938e-04  -1.3721437e-04  -1.9420063e-04  -1.2208516e-04  -1.7186064e-04  -1.3596303e-04  -6.8420253e-05  -1.3910384e-04  -1.8871528e-05  -4.7168560e-05  -1.3545554e-04  -8.0432939e-05  -1.5387866e-04  -8.2771730e-05  -5.5286426e-05  -1.0791724e-04
  -1.4863748e-04  -8.7744309e-05  -9.9814664e-05  -1.0110172e-04  -8.7548287e-05  -1.6058730e-04  -1.4979302e-04  -1.3485774e-04  -8.2784652e-05  -1.7222179e-04  -2.9909563e-05  -9.5019590e-05  -6.0689854e-05  -1.3619785e-04  -6.1262086e-05  -8.0328762e-05  -8.0396923e-05  -8.6698761e-05  -1.1753154e-04  -1.0018375e-04  -3.9784536e-05  -2.2646069e-05  -6.4650187e-05  -9.1485461e-05  -1.0161477e-04  -5.4309261e-05  -1.5695002e-04  -1.2438007e-04  -2.0034413e-04  -8.6472719e-05  -7.9699734e-05  -6.9984402e-05  -1.3402678e-04  -5.6316545e-05  -1.0197690e-04  -1.4055074e-04  -1.9368567e-04  -1.2443606e-04  -1.7402174e-04  -1.4374887e-04  -7.4028525e-05  -1.2405039e-04  -3.4955185e-05  -6.0346661e-05  -1.4073701e-04  -7.4027681e-05  -1.5231778e-04  -1.1838706e-04  -4.1642437e-05  -1.3428183e-04
  -1.6874181e-04  -9.3506758e-05  -1.1836299e-04  -1.3052064e-04  -8.6676155e-05  -1.5856874e-04  -1.5395120e-04  -1.2121131e-04  -1.2662521e-04  -1.8079384e-04  -4.2918949e-05  -1.0047370e-04  -6.4392741e-05  -1.4250759e-04  -6.8930633e-05  -7.6803932e-05  -8.4186358e-05  -8.0766440e-05  -1.3682606e-04  -5.1577772e-05  -7.1523034e-05  -2.9411201e-05  -6.3130785e-05  -8.1303675e-05  -7.5385564e-05  -3.7099246e-05  -1.4517954e-04  -1.2357431e-04  -2.0801241e-04  -9.0467875e-05  -7.5057069e-05  -7.9785124e-05  -1.4337557e-04  -6.4934749e-05  -1.0335685e-04  -1.2287943e-04  -1.9113068e-04  -1.0945668e-04  -1.7475638e-04  -1.2201618e-04  -4.5651097e-05  -1.6456706e-04  -3.4094479e-05  -4.6679372e-05  -1.9386751e-04  -9.4031842e-05  -1.6261126e-04  -7.1745613e-05  -1.0404825e-04  -1.0680826e-04
  -1.4153498e-04  -7.8582510e-05  -9.2581278e-05  -9.1824921e-05  -9.1078451e-05  -1.4917743e-04  -1.5124893e-04  -1.4168092e-04  -8.5802720e-05  -1.5890413e-04  -2.3114111e-05  -8.2891071e-05  -6.1123043e-05  -1.3747417e-04  -5.7142512e-05  -8.8064866e-05  -8.2875100e-05  -9.6301359e-05  -9.8758021e-05  -7.6160497e-05  -2.6358694e-05  -1.3375845e-05  -6.3773230e-05  -9.2973249e-05  -8.3137515e-05  -1.4559972e-05  -1.5137461e-04  -1.2142867e-04  -2.1116194e-04  -8.6124070e-05  -6.9945723e-05  -7.5586118e-05  -9.5479671e-05  -5.6477118e-05  -9.6070762e-05  -1.2146549e-04  -1.8907501e-04  -1.0071856e-04  -1.7226436e-04  -1.2707913e-04  -5.5194170e-05  -1.5960068e-04  -4.7514644e-05  -4.6313227e-05  -1.8938347e-04  -8.2920778e-05  -1.6573984e-04  -1.0305508e-04  -1.2617197e-04  -8.2618069e-05
  -1.5335705e-04  -9.0721463e-05  -1.0112133e-04  -1.1568915e-04  -9.0350302e-05  -1.5540035e-04  -1.6226861e-04  -1.3785601e-04  -1.1388158e-04  -1.6519174e-04  -3.2225897e-05  -9.1229362e-05  -6.5915963e-05  -1.4178298e-04  -5.9738919e-05  -7.9931335e-05  -7.5388140e-05  -7.7272714e-05  -1.3306513e-04  -9.7374170e-05  -6.6573491e-05  -5.0424766e-05  -6.9757167e-05  -8.8239925e-05  -8.6425418e-05  -4.6672587e-05  -1.4695156e-04  -1.1676597e-04  -1.8140009e-04  -7.5489210e-05  -6.3390449e-05  -8.7372908e-05  -1.2861648e-04  -5.7675978e-05  -1.0034991e-04  -1.3494477e-04  -1.9593263e-04  -1.0048827e-04  -1.6417433e-04  -1.3614703e-04  -6.1496918e-05  -1.9227841e-04  -2.0509751e-05  -5.7405534e-05  -1.9148945e-04  -6.5144268e-05  -1.4594363e-04  -1.1126467e-04  -1.2894286e-04  -1.1470480e-04
  -1.7959643e-04  -1.4578794e-04  -1.2364822e-04  -1.4033190e-04  -9.3072056e-05  -1.5765690e-04  -1.6927437e-04  -1.3089052e-04  -1.3842163e-04  -1.5956216e-04  -5.2755538e-05  -8.7807566e-05  -6.5010288e-05  -1.3675311e-04  -5.9795420e-05  -8.8218272e-05  -9.1648624e-05  -8.4487874e-05  -1.2075106e-04  -7.1661198e-05  -4.7781530e-05  -2.6067655e-05  -5.9363574e-05  -5.4801967e-05  -5.7891928e-05  -6.2792610e-06  -1.5137161e-04  -1.1637429e-04  -2.0626305e-04  -7.6338743e-05  -5.5981462e-05  -8.3546787e-05  -1.2385765e-04  -4.5116973e-05  -8.5846055e-05  -1.4413433e-04  -1.9048623e-04  -8.7670283e-05  -1.5981660e-04  -1.0460302e-04  -3.6571855e-05  -1.9891415e-04  -6.0296788e-06  -4.1703457e-05  -2.1751628e-04  -7.9452599e-05  -1.8023803e-04  -9.7117954e-05  -1.3912976e-04  -7.2875533e-05
  -1.4732138e-04  -7.7345634e-05  -9.7615368e-05  -9.8274824e-05  -9.8713004e-05  -1.5664936e-04  -1.6273625e-04  -1.3991415e-04  -1.0167833e-04  -1.3840890e-04  -2.7882914e-05  -7.6823198e-05  -6.0375896e-05  -1.4419563e-04  -5.8557231e-05  -9.2151786e-05  -8.8957284e-05  -8.8962755e-05  -9.7288415e-05  -7.5867865e-05  -3.8647264e-05  -1.8424123e-05  -4.2675507e-05  -7.2287847e-05  -6.1899889e-05  -1.4584597e-05  -1.4883536e-04  -1.0451490e-04  -1.8526131e-04  -7.6128665e-05  -5.5958684e-05  -8.7496308e-05  -9.0259506e-05  -5.2006537e-05  -9.5864081e-05  -1.2801449e-04  -1.9284373e-04  -9.6440315e-05  -1.7145647e-04  -1.1739987e-04  -4.0014591e-05  -1.8541554e-04  -2.0804846e-05  -5.8756934e-05  -2.5155782e-04  -7.3774718e-05  -1.7681661e-04  -1.6262129e-04  -1.6398363e-04  -8.4907486e-05
  -1.6509612e-04  -9.3392875e-05  -1.1174166e-04  -1.1852023e-04  -9.6441152e-05  -1.6534665e-04  -1.7209612e-04  -1.2830124e-04  -9.2401497e-05  -1.4036048e-04  -2.7847693e-05  -8.7279230e-05  -6.0120416e-05  -1.3487376e-04  -5.9279919e-05  -8.0750244e-05  -7.6170945e-05  -8.3288971e-05  -1.2591465e-04  -3.9969076e-05  -3.9142153e-05  -4.6389454e-05  -6.5571927e-05  -6.0698654e-05  -1.0543785e-04  -5.0330898e-05  -1.4819209e-04  -1.1054128e-04  -1.5593479e-04  -8.1319180e-05  -4.6428002e-05  -7.4265925e-05  -9.3442548e-05  -7.4049560e-05  -9.7812081e-05  -1.2902712e-04  -2.0212765e-04  -1.1254361e-04  -1.7844629e-04  -1.2670053e-04  -6.3370360e-05  -1.5401914e-04  -6.4425869e-05  -6.0984796e-05  -2.3421923e-04  -8.1518236e-05  -1.6083186e-04  -8.7633845e-05  -1.0876486e-04  -9.6454285e-05
  -1.8594151e-04  -1.2250232e-04  -1.2777722e-04  -1.4260865e-04  -9.6842035e-05  -1.7231653e-04  -1.7262147e-04  -1.1715328e-04  -1.4115292e-04  -1.4782285e-04  -3.5591671e-05  -9.5544245e-05  -6.2324274e-05  -1.3405968e-04  -7.0788665e-05  -8.0516460e-05  -6.8982125e-05  -8.4624517e-05  -1.6261813e-04  -6.3828003e-05  -8.7410335e-05  -7.1358591e-05  -7.3864183e-05  -5.5353998e-05  -1.1104493e-04  -7.4908254e-05  -1.2982712e-04  -1.1437207e-04  -1.9243444e-04  -8.2068662e-05  -6.3065345e-05  -7.3009629e-05  -1.3653834e-04  -8.2244551e-05  -1.0451180e-04  -1.4003199e-04  -2.0664399e-04  -1.1522476e-04  -1.7380941e-04  -1.6096805e-04  -6.4433145e-05  -1.8862667e-04  -5.9607130e-05  -6.4637577e-05  -2.3013697e-04  -7.9421930e-05  -1.4275800e-04  -1.0391475e-04  -1.1090688e-04  -1.0253051e-04
  -1.6305306e-04  -8.1658873e-05  -1.0633675e-04  -1.0337117e-04  -9.0800269e-05  -1.6023565e-04  -1.6129522e-04  -1.1602368e-04  -9.7302145e-05  -1.2345694e-04  -2.3578479e-05  -6.7527733e-05  -5.6600264e-05  -1.3273598e-04  -6.5351429e-05  -9.3312752e-05  -8.5325286e-05  -1.0014478e-04  -9.9186829e-05  -9.4112453e-05  -1.7121401e-05   1.0387319e-05  -4.6635116e-05  -7.9633384e-05  -8.5645093e-05  -2.0836191e-05  -1.4265312e-04  -1.1492682e-04  -1.7222560e-04  -8.7180080e-05  -6.1316248e-05  -7.6583652e-05  -8.7948836e-05  -6.0384329e-05  -1.0190794e-04  -1.2362708e-04  -2.0983041e-04  -1.0554078e-04  -1.6849335e-04  -1.1668826e-04  -6.6400025e-05  -1.8809075e-04  -1.1664488e-05  -5.1633077e-05  -2.0659286e-04  -6.1455874e-05  -1.5609982e-04  -8.0915925e-05  -1.1522283e-04  -1.2907384e-04
  -1.7428306e-04  -7.3227762e-05  -1.1489284e-04  -1.0462194e-04  -1.0279592e-04  -1.6555309e-04  -1.6799221e-04  -1.3033132e-04  -1.0951367e-04  -1.1910545e-04  -2.0361244e-05  -6.8820140e-05  -6.0007111e-05  -1.3996594e-04  -6.5762906e-05  -9.6553471e-05  -7.5283504e-05  -9.1124071e-05  -1.1540837e-04  -7.9620571e-05   1.1291404e-05  -1.0898048e-05  -4.4451670e-05  -9.1325826e-05  -8.8949149e-05  -2.3456878e-05  -1.4802380e-04  -1.2799543e-04  -1.8593046e-04  -8.4054183e-05  -5.2663945e-05  -7.4170137e-05  -7.4444521e-05  -5.2886455e-05  -1.0131983e-04  -1.3343336e-04  -2.0460454e-04  -1.0044355e-04  -1.7237660e-04  -1.2473491e-04  -6.7395820e-05  -1.5597172e-04  -4.2451811e-05  -6.3773135e-05  -2.0141344e-04  -6.5562112e-05  -1.6584288e-04  -8.5678214e-05  -1.8717586e-04  -8.8673070e-05
  -1.9830323e-04  -1.0145492e-04  -1.3389743e-04  -1.2828391e-04  -1.0161952e-04  -1.7014025e-04  -1.7063435e-04  -1.0705893e-04  -1.0749752e-04  -1.3085295e-04  -2.9293449e-05  -7.5411008e-05  -6.4993445e-05  -1.3797526e-04  -6.9929789e-05  -9.2135815e-05  -7.7371697e-05  -9.5599607e-05  -1.4443237e-04  -7.8769466e-05  -3.7614507e-05  -3.1978198e-05  -5.8610451e-05  -5.8802467e-05  -1.1935786e-04  -5.7952184e-05  -1.3799273e-04  -1.1772135e-04  -1.7033884e-04  -8.5507163e-05  -4.8423339e-05  -7.7545505e-05  -8.4332765e-05  -8.3477011e-05  -1.0671878e-04  -1.3749686e-04  -2.0629348e-04  -1.0643397e-04  -1.6597244e-04  -1.3400127e-04  -6.3290441e-05  -1.7771726e-04  -4.4515164e-05  -4.7921367e-05  -1.9588812e-04  -5.9234691e-05  -1.5371507e-04  -1.2459035e-04  -1.5953845e-04  -1.0386088e-04
  -1.7164467e-04  -7.2569215e-05  -1.1526600e-04  -9.7453012e-05  -1.0151220e-04  -1.6309530e-04  -1.5803130e-04  -1.2451786e-04  -1.1025843e-04  -1.1299734e-04  -2.5038062e-05  -5.8138899e-05  -6.3869484e-05  -1.4304134e-04  -5.9074264e-05  -1.0416183e-04  -8.7116743e-05  -1.0456084e-04  -9.0073692e-05  -6.3363572e-05   1.5043071e-05   8.9531859e-06  -4.1315081e-05  -4.1117513e-05  -6.2070787e-05  -8.1615536e-07  -1.4004570e-04  -1.2794376e-04  -1.6627496e-04  -7.8285419e-05  -4.4250897e-05  -7.4771102e-05  -4.7586149e-05  -4.9702569e-05  -1.0078501e-04  -1.1559499e-04  -1.9912208e-04  -8.6762288e-05  -1.5930469e-04  -1.1078497e-04  -5.0187322e-05  -1.8142856e-04  -1.8244125e-05  -3.8002760e-05  -2.0064885e-04  -5.6142897e-05  -1.4831925e-04  -8.9649133e-05  -1.1260825e-04  -1.2151496e-04
  -1.8300353e-04  -7.7173485e-05  -1.2483454e-04  -1.0277433e-04  -1.0531285e-04  -1.5522381e-04  -1.6599450e-04  -1.2907165e-04  -1.1317872e-04  -1.1121068e-04  -2.3527182e-05  -6.1691208e-05  -6.9992122e-05  -1.4201544e-04  -5.3849832e-05  -9.9300647e-05  -8.5141459e-05  -1.0319251e-04  -9.8836746e-05  -7.4034622e-05  -8.4750400e-06  -2.3204546e-05  -5.1071471e-05  -5.6181503e-05  -6.8506757e-05  -1.5707987e-05  -1.4460013e-04  -9.2887247e-05  -1.4260686e-04  -6.8004796e-05  -3.6153502e-05  -6.7934219e-05  -5.9520939e-05  -5.2693809e-05  -9.2234914e-05  -1.1594818e-04  -1.9619083e-04  -7.5053773e-05  -1.5470212e-04  -9.4957868e-05  -5.0759940e-05  -1.3338770e-04  -1.1672490e-05  -5.0109898e-05  -2.2866738e-04  -6.0955244e-05  -1.5026494e-04  -6.7339279e-05  -1.4253055e-04  -9.0308102e-05
  -2.0385663e-04  -8.7481851e-05  -1.4095670e-04  -1.3465725e-04  -1.0604000e-04  -1.5869246e-04  -1.6518413e-04  -1.2856672e-04  -1.4689661e-04  -1.1158116e-04  -3.6651905e-05  -7.5352931e-05  -8.0889331e-05  -1.5080457e-04  -5.8931659e-05  -9.5475465e-05  -8.5472151e-05  -9.8621829e-05  -1.4775056e-04  -7.5224612e-05  -7.5094882e-05  -6.4164393e-05  -5.0393905e-05  -5.1086266e-05  -9.5658594e-05  -4.8007427e-05  -1.3188216e-04  -1.1671708e-04  -1.2868602e-04  -5.8494537e-05  -4.3614909e-05  -8.1787068e-05  -1.1047094e-04  -7.3193398e-05  -1.0076385e-04  -1.2642695e-04  -1.8133635e-04  -6.9391732e-05  -1.5215398e-04  -9.6193871e-05  -1.0515768e-05  -1.2382978e-04  -6.5550366e-06  -3.1222382e-05  -2.1377980e-04  -2.4997440e-05  -1.2850462e-04  -5.1338709e-05  -1.1456164e-04  -5.4254982e-05
  -1.7852672e-04  -6.1081417e-05  -1.1594190e-04  -9.2535738e-05  -1.0415808e-04  -1.4740412e-04  -1.5504677e-04  -1.2697338e-04  -8.7421031e-05  -8.6594475e-05  -2.3470029e-05  -5.2196214e-05  -7.8061632e-05  -1.3048216e-04  -4.9308910e-05  -1.1080031e-04  -9.7578799e-05  -1.1299086e-04  -9.3586226e-05  -3.6921134e-05   1.8839551e-06  -5.8906598e-06  -2.7021011e-05  -4.0800158e-05  -5.6618046e-05   7.9898718e-06  -1.3728376e-04  -9.1149646e-05  -1.3987120e-04  -6.5077118e-05  -4.3105247e-05  -7.6469849e-05  -6.1756116e-05  -3.9958315e-05  -8.6775763e-05  -1.0436831e-04  -1.9285601e-04  -6.8768437e-05  -1.5664310e-04  -7.3093550e-05  -1.5203767e-05  -1.2922265e-04  -6.3641537e-06  -4.1183113e-05  -2.2063089e-04  -3.0338986e-05  -1.4128641e-04  -5.4328942e-05  -9.5676267e-05  -7.2744719e-05
  -1.8730614e-04  -6.0370530e-05  -1.2574992e-04  -1.0366122e-04  -1.1151619e-04  -1.5438009e-04  -1.6823344e-04  -1.1597636e-04  -1.0373546e-04  -8.5322776e-05  -1.9129686e-05  -6.2092578e-05  -8.2441999e-05  -1.3868717e-04  -6.1949839e-05  -1.0009967e-04  -8.9031870e-05  -1.1082116e-04  -1.1655203e-04  -9.1570750e-05  -2.7070488e-05  -2.4628811e-05  -4.9921135e-05  -4.8649774e-05  -8.4625586e-05  -2.4275765e-05  -1.1960612e-04  -9.3708280e-05  -1.3193603e-04  -6.3301668e-05  -4.4617886e-05  -8.1710517e-05  -6.6580375e-05  -4.8245671e-05  -9.5549585e-05  -1.2787239e-04  -1.8217666e-04  -7.8612953e-05  -1.5797807e-04  -1.1124212e-04  -3.8506565e-05  -6.3460713e-05  -1.8366749e-05  -5.3034095e-05  -2.0266869e-04  -5.5026707e-05  -1.3440497e-04  -6.8623180e-05  -1.2148718e-04  -8.3190251e-05
  -2.0304265e-04  -8.0594255e-05  -1.4279665e-04  -1.3673675e-04  -1.0257735e-04  -1.5685117e-04  -1.7012614e-04  -1.1555615e-04  -1.3161454e-04  -9.3195005e-05  -3.1730535e-05  -7.2004725e-05  -8.4690539e-05  -1.4386031e-04  -6.7272202e-05  -1.0042787e-04  -8.0012898e-05  -9.7840464e-05  -1.3231831e-04  -6.7604364e-05  -4.8378468e-05  -5.8600843e-05  -5.5887820e-05  -6.1744962e-05  -1.0738924e-04  -5.9307120e-05  -1.2241451e-04  -7.8958365e-05  -1.2404523e-04  -6.1397906e-05  -4.3281416e-05  -7.3255156e-05  -1.0370242e-04  -7.7089273e-05  -9.9441982e-05  -1.3300992e-04  -1.9741879e-04  -8.3511710e-05  -1.5893510e-04  -9.8133118e-05  -3.3456086e-05  -7.4757176e-05  -3.2651074e-05  -6.7132853e-05  -1.9381814e-04  -6.8337176e-05  -1.1848476e-04  -7.2098686e-05  -1.2096847e-04  -1.0664187e-04
  -1.9250931e-04  -1.1933983e-04  -1.2170353e-04  -1.1562427e-04  -1.0181750e-04  -1.4382177e-04  -1.6357926e-04  -1.0670473e-04  -7.2062940e-05  -7.5540971e-05  -3.2236556e-05  -4.9063918e-05  -8.1635793e-05  -1.3482747e-04  -6.1734281e-05  -1.0722024e-04  -9.5991927e-05  -1.1509630e-04  -8.4130232e-05  -3.2076547e-05   4.1562424e-05  -2.0139587e-06  -4.5435743e-05  -4.4778906e-05  -6.5012588e-05  -2.9604835e-06  -1.2375583e-04  -9.1937494e-05  -1.5547556e-04  -6.9448215e-05  -5.5246026e-05  -7.5193821e-05  -7.5940166e-05  -3.9004015e-05  -9.0449903e-05  -1.0479568e-04  -1.7778395e-04  -7.0824717e-05  -1.4830989e-04  -7.9149198e-05  -1.1551588e-05  -5.0357532e-05  -1.6427746e-05  -4.4759687e-05  -1.6758819e-04  -4.1557400e-05  -8.1963335e-05  -4.4362107e-05  -9.6965101e-05  -7.4409545e-05
  -1.7563823e-04  -8.8614353e-05  -1.2206221e-04  -9.8630713e-05  -1.0724986e-04  -1.5012475e-04  -1.5724347e-04  -1.2148684e-04  -7.7199191e-05  -6.6813947e-05  -1.8764113e-05  -4.7861457e-05  -8.3395294e-05  -1.4570134e-04  -6.3786727e-05  -1.0434036e-04  -8.7766064e-05  -1.1581415e-04  -9.7365693e-05  -5.1142018e-05  -3.0609193e-05  -1.5022929e-05  -3.9973089e-05  -5.3914999e-05  -8.3416722e-05  -1.4522057e-05  -1.3487559e-04  -9.5050222e-05  -1.4923721e-04  -6.4286331e-05  -5.0921495e-05  -7.8611622e-05  -4.7652935e-05  -4.7174075e-05  -9.3230177e-05  -1.2163992e-04  -1.8151703e-04  -8.3803396e-05  -1.5466363e-04  -9.4472714e-05  -1.4700895e-05  -5.2550062e-05  -2.4254847e-05  -4.5649038e-05  -1.7967878e-04  -7.0606278e-05  -9.1656562e-05  -7.1435170e-05  -1.1287600e-04  -6.2874169e-05
  -1.8666382e-04  -7.8798097e-05  -1.3062304e-04  -1.2591523e-04  -9.7725489e-05  -1.4389415e-04  -1.6457608e-04  -1.1445446e-04  -1.0512913e-04  -7.1880364e-05  -2.4723206e-05  -7.0087466e-05  -9.0607071e-05  -1.4624899e-04  -6.8562564e-05  -9.0332680e-05  -7.6534925e-05  -1.0649987e-04  -1.2388270e-04  -7.8823912e-05  -4.3913100e-05  -6.3182488e-05  -6.0641487e-05  -6.7724737e-05  -1.0026932e-04  -5.2120678e-05  -1.1792239e-04  -9.4567826e-05  -1.0408573e-04  -5.7753226e-05  -5.1144991e-05  -8.0114842e-05  -7.6444681e-05  -6.6578519e-05  -1.0130372e-04  -1.2736923e-04  -1.7799910e-04  -7.8392804e-05  -1.5651417e-04  -1.0801165e-04  -3.2189786e-05  -7.4261967e-05  -3.4503144e-05  -6.4102962e-05  -1.3343293e-04  -6.5771099e-05  -8.8516143e-05  -5.7687066e-05  -6.9252877e-05  -6.8511559e-05
  -1.9371194e-04  -1.2329350e-04  -1.4476902e-04  -1.5574598e-04  -9.6845259e-05  -1.3654136e-04  -1.5812031e-04  -1.1044613e-04  -1.2791963e-04  -7.6315046e-05  -4.2333511e-05  -8.0090271e-05  -1.0505654e-04  -1.5426609e-04  -8.2636543e-05  -8.5769367e-05  -7.2615272e-05  -9.5545154e-05  -1.4577660e-04  -1.1331652e-04  -5.9518236e-05  -1.0274824e-04  -7.0960887e-05  -6.8410700e-05  -1.0737177e-04  -8.9072484e-05  -1.1323346e-04  -9.9581936e-05  -1.0679864e-04  -5.4072523e-05  -5.4854259e-05  -8.2527396e-05  -1.2250534e-04  -9.6008182e-05  -1.1172185e-04  -1.3318629e-04  -1.5864597e-04  -7.3545736e-05  -1.4771897e-04  -8.6498090e-05  -1.7524964e-05  -7.1601316e-06  -4.9457512e-06  -3.5947869e-05  -1.2684190e-04  -3.3948614e-05  -8.9272326e-05  -3.7810943e-05  -8.0675331e-05  -9.4231618e-05
  -1.5236346e-04  -6.9978320e-05  -1.1002122e-04  -1.0108895e-04  -9.6862517e-05  -1.2295654e-04  -1.4650116e-04  -9.4907773e-05  -6.2922816e-05  -5.2224055e-05  -3.6008794e-05  -5.0619932e-05  -9.9155157e-05  -1.5156443e-04  -7.8837213e-05  -1.0079152e-04  -8.3799168e-05  -1.0707234e-04  -8.8847883e-05  -8.3589097e-05   4.8664656e-06  -3.4897759e-05  -6.1083774e-05  -4.3959692e-05  -8.1857601e-05  -4.0132891e-05  -1.0713279e-04  -7.9620433e-05  -1.2553882e-04  -6.5203370e-05  -5.4795266e-05  -7.9536083e-05  -6.1619256e-05  -4.4400145e-05  -9.4257332e-05  -9.5488154e-05  -1.5312506e-04  -6.9070789e-05  -1.3597697e-04  -7.3678784e-05  -2.0263420e-05   4.5066922e-06   1.3491077e-05  -4.3161701e-05  -8.9397014e-05  -5.9152855e-05  -8.9842426e-05  -2.2233628e-05  -7.8943391e-05  -8.1354636e-05
  -1.5138403e-04  -8.5261083e-05  -1.1855672e-04  -1.1379113e-04  -9.8078322e-05  -1.3233801e-04  -1.4360157e-04  -1.1043088e-04  -8.1857383e-05  -4.7074649e-05  -3.3236582e-05  -5.5850858e-05  -1.0052540e-04  -1.4484118e-04  -8.2666600e-05  -9.3169590e-05  -8.3113162e-05  -1.0710667e-04  -1.0172385e-04  -8.8542802e-05  -4.8360689e-06  -5.8435795e-05  -5.5518554e-05  -5.9663747e-05  -1.1144227e-04  -4.5566227e-05  -1.0368414e-04  -9.0511538e-05  -1.2067771e-04  -5.8079560e-05  -5.3962514e-05  -8.3960280e-05  -8.1294245e-05  -5.6190176e-05  -9.5875759e-05  -1.0362660e-04  -1.6423559e-04  -7.9245910e-05  -1.4387521e-04  -7.6962242e-05  -3.8492988e-05   2.0269668e-05  -3.2816286e-05  -4.6693465e-05  -9.9480727e-05  -7.4487434e-05  -8.1306374e-05  -4.8174417e-05  -1.1545128e-04  -7.7598328e-05
  -1.6873996e-04  -1.0809287e-04  -1.3605683e-04  -1.4698970e-04  -9.0852220e-05  -1.3265658e-04  -1.4990354e-04  -9.0517198e-05  -1.0228530e-04  -5.4685253e-05  -4.5897556e-05  -5.7726847e-05  -1.0588604e-04  -1.4946044e-04  -8.9074005e-05  -8.3020022e-05  -7.5624710e-05  -9.6376090e-05  -1.2128843e-04  -7.2722672e-05  -8.8888492e-06  -7.9475947e-05  -7.2575735e-05  -4.9078742e-05  -1.2449812e-04  -9.1742171e-05  -1.0624134e-04  -8.6277476e-05  -9.6362186e-05  -6.2122213e-05  -6.6540422e-05  -6.8210225e-05  -8.7458291e-05  -8.3887629e-05  -1.0414666e-04  -1.1983243e-04  -1.8683086e-04  -8.8711946e-05  -1.5941654e-04  -9.5856471e-05  -4.0111019e-05  -2.6056146e-05  -6.6556691e-05  -4.8587717e-05  -8.6520158e-05  -5.7187903e-05  -4.3626223e-05  -6.5969696e-05  -5.9739938e-05  -1.2240119e-04
  -1.3699979e-04  -5.3631265e-05  -1.0645934e-04  -1.1014970e-04  -8.3434817e-05  -1.1303654e-04  -1.3027151e-04  -9.2990929e-05  -6.7664841e-05  -3.9678009e-05  -3.8964681e-05  -3.4720066e-05  -1.0228586e-04  -1.4058493e-04  -8.5751286e-05  -9.7524033e-05  -7.9369202e-05  -1.0289008e-04  -7.9980484e-05  -6.9270907e-05   7.3805023e-07  -1.9819272e-05  -6.6569664e-05  -3.1885156e-05  -8.3598112e-05  -3.9642320e-05  -1.0414776e-04  -8.8647306e-05  -1.1242783e-04  -6.4953754e-05  -5.5516044e-05  -8.7292203e-05  -6.0878294e-05  -4.0939776e-05  -8.8437751e-05  -9.7400982e-05  -1.5491742e-04  -6.3731037e-05  -1.4074675e-04  -7.0937916e-05  -2.4001271e-05   1.6482054e-05  -2.2483489e-05  -3.8677659e-05  -6.3285144e-05  -6.5837274e-05  -6.8319248e-05  -7.1410883e-05  -8.6645377e-05  -1.3553104e-04
  -1.3819488e-04  -8.7125358e-05  -1.1359919e-04  -1.1262150e-04  -8.8342160e-05  -1.1400853e-04  -1.3260580e-04  -9.2439906e-05  -4.2405474e-05  -3.7876714e-05  -3.4867757e-05  -3.8076127e-05  -1.0138807e-04  -1.4817237e-04  -8.1669918e-05  -8.6580876e-05  -7.2985269e-05  -1.0142078e-04  -8.4933556e-05  -2.1597465e-05  -4.0914085e-05  -3.6916765e-05  -7.1879920e-05  -2.3654149e-05  -1.0973092e-04  -5.1682902e-05  -1.0437774e-04  -1.0353066e-04  -1.1818593e-04  -6.6087523e-05  -4.9844955e-05  -7.0708440e-05  -7.0489732e-05  -5.8888203e-05  -8.9294044e-05  -1.0022296e-04  -1.6489413e-04  -7.7008859e-05  -1.3588078e-04  -8.3960287e-05  -4.3715067e-05   1.7657101e-05  -3.3285633e-05  -5.2747280e-05  -3.0846921e-05  -6.8219175e-05  -6.3903564e-05  -4.7514226e-05  -8.8438421e-05  -9.0024783e-05
  -1.4577937e-04  -8.3695173e-05  -1.2837916e-04  -1.4128019e-04  -8.4392595e-05  -1.2012995e-04  -1.3368404e-04  -8.6084467e-05  -8.3789775e-05  -4.0037939e-05  -4.1535317e-05  -4.3099481e-05  -1.0620400e-04  -1.3925265e-04  -9.0218971e-05  -7.1192189e-05  -6.1159633e-05  -9.0563190e-05  -1.0731829e-04  -5.3188640e-05  -2.3013203e-05  -7.6566095e-05  -8.5704050e-05  -3.2495449e-05  -1.0984625e-04  -8.6277338e-05  -9.1953123e-05  -9.5429423e-05  -1.0797126e-04  -5.8413094e-05  -5.5867393e-05  -8.4397238e-05  -1.2182616e-04  -8.9342589e-05  -1.0190292e-04  -1.0601122e-04  -1.5220272e-04  -6.7694251e-05  -1.3755503e-04  -7.9555306e-05  -2.5102216e-05   1.5472764e-06  -1.9416391e-05  -3.6220114e-05  -2.9693538e-05  -3.0634325e-05  -6.4799635e-05  -5.3746709e-05  -2.5169802e-05  -1.0156503e-04
  -1.1043926e-04  -5.6110279e-05  -1.0001723e-04  -1.0003998e-04  -8.1088212e-05  -9.9877208e-05  -1.1567920e-04  -8.1840211e-05  -5.6582314e-05  -1.8494149e-05  -3.4672998e-05  -1.5796904e-05  -9.6025869e-05  -1.3453598e-04  -8.1821738e-05  -7.9015867e-05  -6.9819849e-05  -9.9470453e-05  -9.2497525e-05  -3.1377895e-05   1.4074521e-05  -1.3123036e-05  -7.0650174e-05  -3.1522355e-05  -1.0370073e-04  -3.7226993e-05  -8.8340988e-05  -1.0579536e-04  -1.1754700e-04  -6.2253443e-05  -4.7926176e-05  -7.3161202e-05  -6.0316423e-05  -5.8806301e-05  -9.2833507e-05  -9.3916839e-05  -1.5595958e-04  -7.1873750e-05  -1.3282819e-04  -7.4824588e-05  -2.5252210e-05   4.7857438e-06  -4.1696570e-05  -3.4729306e-05   8.6308355e-06  -6.4295127e-05  -6.8808331e-05  -6.7931876e-05  -2.9461096e-05  -7.9040794e-05
  -1.1603869e-04  -6.7571840e-05  -1.0720905e-04  -1.1307120e-04  -8.2677165e-05  -1.0782878e-04  -1.2667206e-04  -7.6423639e-05  -6.5996523e-05  -1.4794270e-05  -3.9415339e-05  -2.7158565e-05  -9.3834715e-05  -1.3485238e-04  -7.6268181e-05  -6.7002540e-05  -5.5823104e-05  -8.5766835e-05  -8.2534461e-05  -6.2044041e-05  -1.8332099e-05  -4.4979526e-05  -6.5231077e-05  -4.0641720e-05  -1.1219918e-04  -6.7526620e-05  -1.0960936e-04  -8.0146652e-05  -8.6726686e-05  -5.9816699e-05  -3.6279533e-05  -6.8114219e-05  -6.6822598e-05  -6.7201523e-05  -8.7729233e-05  -8.5300060e-05  -1.4089966e-04  -6.4614083e-05  -1.3662409e-04  -7.2982140e-05  -4.2657422e-05   2.2389344e-05  -6.2292864e-05  -3.6210651e-05  -1.2624499e-05  -3.7457216e-05  -6.0022969e-05  -7.1432332e-05  -1.0317320e-04  -9.4043891e-05
  -1.3619347e-04  -8.3276820e-05  -1.2694170e-04  -1.4966854e-04  -7.2953466e-05  -1.0303325e-04  -1.2615994e-04  -7.9779609e-05  -1.0127687e-04  -1.6360940e-05  -5.1031300e-05  -3.2674528e-05  -9.5626565e-05  -1.2810749e-04  -8.2980987e-05  -5.5479493e-05  -4.8275095e-05  -7.0390321e-05  -1.1081022e-04  -2.0817699e-05  -3.4584973e-05  -6.9022797e-05  -8.5249856e-05  -2.8904691e-05  -1.2381829e-04  -7.8441582e-05  -7.7062330e-05  -9.3513620e-05  -8.9082481e-05  -5.2541243e-05  -3.9362076e-05  -6.2527935e-05  -8.2069535e-05  -7.3306837e-05  -1.0077617e-04  -1.0334926e-04  -1.5425694e-04  -4.9765284e-05  -1.2257665e-04  -6.9983071e-05  -7.7999330e-06   6.3650890e-07  -2.9128772e-05  -1.6817312e-05  -2.1833928e-05  -2.1895517e-05  -4.5214540e-05  -6.3793406e-05  -5.1687162e-05  -6.9168593e-05
  -9.4841213e-05  -3.7028050e-05  -9.1652553e-05  -9.3791154e-05  -7.1853901e-05  -9.4358242e-05  -1.1073580e-04  -7.9729572e-05  -2.6671354e-05   1.4164926e-05  -3.4863722e-05  -1.9273411e-06  -8.8498782e-05  -1.3200067e-04  -7.2734438e-05  -6.2262472e-05  -5.4765827e-05  -6.7348607e-05  -4.6795903e-05   1.3227082e-05  -2.7983731e-05  -1.1969052e-05  -6.3093328e-05  -4.1010280e-05  -9.3816372e-05  -3.7804930e-05  -9.3301496e-05  -7.7727884e-05  -6.3863263e-05  -5.6697194e-05  -3.5051537e-05  -5.9274087e-05  -7.9929538e-05  -4.0535822e-05  -8.4569692e-05  -8.2174789e-05  -1.4310876e-04  -5.0410446e-05  -1.2201374e-04  -7.4031610e-05  -1.8805340e-05   3.7034170e-05  -4.3317101e-05  -3.0436748e-05   4.5783872e-06  -4.0068604e-05  -3.8659076e-05  -3.1961677e-05  -8.2389277e-05  -4.3077544e-05
  -1.0317282e-04  -6.4227315e-05  -9.6219170e-05  -1.0754884e-04  -7.1422524e-05  -8.8815745e-05  -1.1677714e-04  -7.5689655e-05  -5.2709383e-05   1.0203862e-05  -3.6709651e-05  -1.1719069e-05  -8.5370455e-05  -1.2302119e-04  -6.9052883e-05  -4.8756636e-05  -3.7325604e-05  -6.5767119e-05  -5.6823443e-05  -2.5233545e-05  -5.1638330e-05  -4.5799668e-05  -6.3630308e-05  -1.4238076e-05  -1.0662670e-04  -6.2052910e-05  -7.5196745e-05  -7.6685355e-05  -7.4121337e-05  -4.4509849e-05  -2.3823477e-05  -5.5000826e-05  -6.1017989e-05  -4.4914093e-05  -7.9878839e-05  -9.1431968e-05  -1.3959249e-04  -6.2044535e-05  -1.1600734e-04  -5.5724999e-05  -4.4789202e-05   5.2537343e-06  -5.3910888e-05  -4.0494160e-05  -8.6817818e-06  -3.5434801e-05  -5.3506694e-05  -7.0296228e-05  -6.5098102e-05  -7.2363109e-05
  -1.2295850e-04  -1.0024221e-04  -1.1466201e-04  -1.3489004e-04  -6.4541317e-05  -9.1773516e-05  -1.0972990e-04  -7.2114388e-05  -1.0024730e-04   1.0360972e-05  -4.8312344e-05  -1.9878949e-05  -8.0730373e-05  -1.1778712e-04  -7.2543386e-05  -3.2158096e-05  -3.1002204e-05  -5.6072793e-05  -8.0006015e-05  -1.7644841e-05  -1.0406588e-05  -5.2642172e-05  -7.4364696e-05   6.6026778e-06  -7.2249633e-05  -7.2177376e-05  -7.7273522e-05  -8.5159467e-05  -5.8520676e-05  -4.9760351e-05  -3.3044984e-05  -5.8829108e-05  -7.9941485e-05  -4.7079895e-05  -7.8866811e-05  -7.1743132e-05  -1.3198196e-04  -4.5322362e-05  -1.1191109e-04  -4.7160534e-05  -1.8046522e-06   2.1164306e-05  -8.9003679e-06  -2.8597216e-05  -1.3001886e-05  -1.6051670e-05  -3.3958218e-05  -4.4867516e-05  -5.4984885e-05  -6.4854255e-05
  -8.4403058e-05  -3.3236272e-05  -7.8716017e-05  -8.8794652e-05  -7.1132716e-05  -8.8608766e-05  -1.0919844e-04  -8.2254322e-05  -2.9681241e-05   3.9844817e-05  -3.2406719e-05   9.5647047e-06  -7.1195696e-05  -1.1690328e-04  -6.4469095e-05  -3.2796070e-05  -3.2477757e-05  -5.4569351e-05  -2.8120856e-05  -9.9309282e-06   1.2600825e-05  -1.4184931e-05  -5.2747575e-05  -1.1795654e-05  -6.7326204e-05  -3.5875539e-05  -7.6311837e-05  -7.9179859e-05  -6.5183398e-05  -4.6542475e-05  -2.3601935e-05  -5.3399835e-05  -2.1708451e-05  -2.7770240e-05  -7.5165641e-05  -6.4677239e-05  -1.2821167e-04  -4.7242582e-05  -1.0532489e-04  -5.6402769e-05  -1.8983148e-05  -1.1886380e-05  -5.2426123e-05  -3.4227400e-05  -3.3021119e-05  -3.4550438e-05  -4.2405813e-05  -7.3684263e-05  -7.2076036e-05  -4.6792822e-05
  -9.0538590e-05  -6.4933251e-05  -8.5989333e-05  -1.0262050e-04  -6.8812711e-05  -8.8025408e-05  -1.0658222e-04  -7.6972115e-05  -5.0471979e-05   4.6253037e-05  -2.7920438e-05   1.2088071e-06  -6.3436441e-05  -1.0410409e-04  -6.3324536e-05  -2.6504727e-05  -1.8019278e-05  -4.7853020e-05  -4.8503152e-05  -2.8409169e-05  -2.8158500e-05  -3.3455890e-05  -6.2912994e-05  -6.9347593e-06  -8.0735226e-05  -6.3809777e-05  -5.7151548e-05  -6.4953878e-05  -6.0647406e-05  -4.3808443e-05  -1.5357371e-05  -4.0636180e-05  -4.9846898e-05  -3.4126122e-05  -7.5061638e-05  -8.7915498e-05  -1.2648216e-04  -5.1908384e-05  -1.0864489e-04  -6.7054563e-05  -4.5094686e-05  -1.4385674e-05  -3.7482234e-05  -4.1675430e-05  -4.2753738e-05  -1.9458150e-05  -1.2973213e-05  -4.3175594e-05  -5.5623750e-05  -5.4143256e-05
  -1.1557818e-04  -6.7754721e-05  -1.0452686e-04  -1.3238138e-04  -5.7078934e-05  -9.2087801e-05  -1.0729268e-04  -6.2565850e-05  -8.3315186e-05   4.5053293e-05  -4.2447566e-05  -2.5162819e-06  -6.2334140e-05  -1.0940794e-04  -6.7488298e-05  -1.2077821e-05  -1.7784136e-05  -3.9961637e-05  -4.6114310e-05  -1.9069152e-05   6.2249487e-06  -3.2097887e-05  -5.9938422e-05   1.6199358e-05  -7.3862044e-05  -4.9049318e-05  -5.7839447e-05  -7.7546792e-05  -1.9566975e-05  -4.2552867e-05  -1.9224412e-05  -4.3861804e-05  -5.2297164e-05  -3.3643471e-05  -6.4165928e-05  -5.7207082e-05  -1.1223105e-04  -3.1429601e-05  -9.1678245e-05  -4.0700903e-05  -9.5099595e-06   2.4094323e-05  -6.1582145e-06  -3.0686111e-05  -4.5914632e-05  -3.3479730e-05  -3.6411504e-05   3.8958119e-06   1.2318909e-05  -5.9177110e-05
  -7.4490395e-05  -2.9172448e-05  -7.4946416e-05  -8.7837048e-05  -6.3534513e-05  -8.2071092e-05  -9.5387659e-05  -6.9925576e-05  -3.1154093e-05   6.6370223e-05  -2.9129566e-05   1.6076972e-05  -5.6874713e-05  -1.0667291e-04  -5.4146236e-05  -1.9415706e-05  -1.1881891e-05  -3.8827107e-05  -2.4208635e-05   1.8589310e-06   7.0675128e-06  -1.8699699e-05  -4.1992651e-05  -3.5158064e-05  -7.2932751e-05  -2.8360697e-05  -6.0626797e-05  -5.7650006e-05  -3.7796293e-05  -3.7533580e-05  -9.2148184e-06  -5.3144191e-05  -2.0131403e-05  -2.2017504e-05  -5.5646648e-05  -5.4124750e-05  -1.1225939e-04  -3.8192426e-05  -8.5034269e-05  -3.5859208e-05  -2.6297477e-05  -1.3535058e-05   3.1370037e-06  -2.6519705e-05  -5.5285127e-05  -1.3480624e-05  -4.8657374e-05  -3.9676521e-05  -8.0869613e-05  -2.5666752e-05
  -9.2215610e-05  -5.1299943e-05  -8.3212406e-05  -1.0115799e-04  -6.5047483e-05  -7.8647667e-05  -9.2279333e-05  -7.4033262e-05  -4.4852390e-05   6.4490632e-05  -3.4846205e-05   8.5035190e-06  -5.2911269e-05  -9.6096366e-05  -5.2142208e-05  -1.1406109e-05  -2.2778565e-06  -3.0992043e-05  -4.5133820e-05   5.3574845e-06   1.2803391e-05  -5.0448984e-05  -4.7980866e-05   1.8739904e-05  -8.4105450e-05  -4.1381918e-05  -3.6417830e-05  -5.3232670e-05   6.5756972e-06  -2.4762006e-05   1.4847283e-06  -4.0756946e-05  -6.4424239e-05  -3.2504948e-05  -6.1853672e-05  -8.6895547e-05  -9.9788282e-05  -1.4495353e-05  -7.9205878e-05  -3.9427581e-05  -3.6962421e-05   1.4958754e-05  -7.1797595e-06  -3.2394932e-05  -1.1149020e-04  -6.5436566e-06  -2.2973178e-05   4.8132574e-06  -5.6284603e-05  -3.6369518e-05
  -1.0186410e-04  -6.3860134e-05  -9.1671456e-05  -1.1657442e-04  -6.1683750e-05  -7.6407472e-05  -9.3980030e-05  -5.8590344e-05  -5.8324058e-05   7.3908988e-05  -4.9771617e-05   2.6204298e-05  -4.7995592e-05  -9.5338350e-05  -4.3797358e-05  -1.7805360e-05  -1.4003296e-05  -1.9667425e-05  -2.8860199e-05  -2.6973968e-05   3.7546924e-05  -1.4607781e-06  -3.2098222e-05  -3.1897278e-05  -5.3767617e-05   5.9338578e-07  -5.5603719e-05  -6.1627929e-05  -1.8306477e-05  -3.2925029e-05  -1.1137859e-06  -4.6545349e-05  -6.0092694e-05  -1.3034512e-05  -4.6152116e-05  -5.9863873e-05  -9.2259143e-05  -1.7357479e-05  -6.6906789e-05  -3.3306063e-05  -4.5131919e-06  -1.9786539e-05   2.0262711e-05  -2.0741079e-05  -6.6889668e-05  -1.1977761e-05  -2.3426130e-05   8.8285751e-06  -2.5521667e-05   9.4459938e-06
  -8.3749204e-05  -3.9426795e-05  -7.4985001e-05  -8.3797670e-05  -6.4774911e-05  -7.2229137e-05  -8.1380698e-05  -6.9571011e-05  -4.7843001e-05   7.8699006e-05  -3.3723511e-05   2.6531952e-05  -4.8615977e-05  -8.3383791e-05  -4.0047024e-05  -1.2408605e-05  -2.7465862e-06  -1.7327322e-05  -2.9158251e-05   9.1040883e-06   4.0517170e-05  -1.3504758e-05  -3.7700866e-05   1.1628457e-05  -5.1355186e-05  -1.7462451e-05  -3.8851889e-05  -4.5849250e-05  -1.4367086e-05  -2.2176160e-05   1.0455731e-05  -3.5281580e-05  -3.0101168e-05  -8.6638183e-06  -4.0247080e-05  -5.9134727e-05  -9.4624193e-05  -1.6514527e-05  -6.2399202e-05  -3.8138056e-05  -1.3524255e-05  -5.6654211e-05   6.7018350e-06  -3.6033431e-05  -1.0372520e-04   4.5522061e-06  -1.7761929e-05   1.6406646e-05  -2.2475588e-05   1.4311194e-05
  -9.6871365e-05  -4.3718093e-05  -8.5048290e-05  -9.8688528e-05  -6.4139407e-05  -7.0295304e-05  -7.9982419e-05  -6.4074033e-05  -7.8660225e-05   7.5358228e-05  -3.4102261e-05   1.4469040e-05  -4.7547161e-05  -8.5266169e-05  -3.6146619e-05  -1.6142431e-07   1.4691929e-05  -1.0251127e-06  -5.6098947e-05  -2.2043334e-05   8.7561521e-06  -4.3589080e-05  -4.4661840e-05  -5.2123974e-05  -7.2185525e-05  -5.0653245e-05  -2.9160990e-05  -4.0239760e-05   2.0975840e-05  -1.4549943e-05   6.7539822e-06  -3.0431625e-05  -3.0752286e-05  -3.3620519e-05  -4.4751076e-05  -5.9916056e-05  -9.3014016e-05  -2.1671198e-05  -5.9685903e-05  -4.3597061e-05  -9.4758807e-06   6.1615210e-06   3.1461772e-05  -3.3847762e-05  -9.7634140e-05   1.1725553e-05   6.7186784e-06   6.1322906e-05  -5.6843255e-05  -9.4812558e-06
  -7.0678398e-05  -2.3968723e-06  -6.4453779e-05  -6.2868836e-05  -6.4506108e-05  -6.1205297e-05  -6.9392838e-05  -7.3312389e-05  -8.8004917e-06   9.6087177e-05  -1.6934522e-05   3.8554350e-05  -3.6091507e-05  -7.5016760e-05  -2.7696578e-05  -6.6208754e-06   4.5540996e-06  -1.1227787e-05  -1.9454768e-05   1.9941239e-05   4.4396140e-05   1.5848394e-05  -2.6497895e-05   1.6473539e-05  -5.7851732e-05  -1.0547717e-06  -3.5838111e-05  -3.0269151e-05   2.7232776e-05  -1.8386956e-05  -1.6886928e-06  -2.3860628e-05  -1.7712988e-05   1.1409860e-07  -3.6379839e-05  -4.8031910e-05  -8.1918093e-05  -7.5634803e-06  -4.6440960e-05  -3.3629745e-05  -6.9852026e-06  -2.6403520e-06   2.4960500e-05  -3.2599863e-05  -1.1919141e-04   2.6718793e-05  -1.0360764e-05   2.3087687e-05  -5.7805180e-05  -9.7583707e-06
  -7.7544260e-05  -3.2129232e-05  -6.7582252e-05  -6.9943708e-05  -6.5699998e-05  -6.4396132e-05  -7.7346202e-05  -6.5490050e-05  -4.2201067e-05   9.6780059e-05  -1.4208299e-05   3.4060631e-05  -3.3509361e-05  -6.7536770e-05  -2.6530843e-05   2.4698736e-06   1.5604634e-05   1.1927388e-06  -2.2132384e-05  -1.8470853e-05   3.2279138e-05  -3.8281673e-06  -2.7363625e-05  -8.0764848e-06  -6.7783767e-05  -2.4777879e-05  -2.4047969e-05  -4.2641685e-05   2.0497195e-05  -1.0860415e-05   9.5484156e-06  -1.9833926e-05  -3.1369833e-05  -1.2459703e-05  -3.4491939e-05  -4.9904382e-05  -8.2254010e-05  -1.4477604e-05  -4.0710038e-05  -2.1770666e-05  -7.4120567e-06  -3.1454030e-05   1.6709448e-05  -3.3111060e-05  -1.1234157e-04  -2.7812437e-06   2.6257740e-06   1.3087246e-05  -3.2040767e-05  -2.0128258e-05
  -1.0177206e-04  -5.8622343e-05  -8.4373904e-05  -9.7869131e-05  -5.9110796e-05  -7.0935319e-05  -7.9763995e-05  -4.7515954e-05  -6.2959196e-05   8.6580891e-05  -1.8437348e-05   2.3457938e-05  -3.1751013e-05  -5.7069727e-05  -3.4321445e-05   1.0457125e-05   2.9487728e-05   9.2718510e-06  -6.4206346e-05  -1.8055380e-06  -1.5205878e-05  -2.7266464e-05  -4.9691098e-05  -3.7552025e-05  -7.8052595e-05  -5.2019474e-05  -1.4247182e-05  -3.7849892e-05   3.7286107e-05  -1.2520968e-05  -8.4465228e-07  -2.9764595e-05  -6.4025939e-05  -3.0899093e-05  -4.3080225e-05  -3.7381811e-05  -6.3228610e-05  -6.6792377e-06  -4.4884895e-05  -3.3138873e-05  -8.7604349e-06  -9.3961889e-06   5.0548875e-05  -1.8106251e-05  -9.5586998e-05   3.3708719e-05  -6.4600977e-06   1.0310080e-05  -4.9716804e-05   6.3224616e-07
  -6.6962755e-05   1.9127588e-06  -5.9091763e-05  -5.3075546e-05  -5.8958638e-05  -5.6554847e-05  -5.5408127e-05  -6.7602887e-05  -1.3146091e-05   1.1293360e-04  -7.3801752e-06   5.0151993e-05  -1.9399160e-05  -4.9603012e-05  -2.4544392e-05  -3.5061162e-06   2.3016693e-05  -3.9463939e-06  -1.3497542e-05   2.5206215e-05   8.2110026e-05   3.1303629e-05  -2.1961467e-05   3.8869434e-06  -3.4823381e-05   1.4944139e-06  -2.0945568e-05  -3.7748101e-05   2.0321426e-05  -1.0544207e-05   4.0442933e-06  -2.9236357e-05  -1.1951158e-05   3.1497432e-06  -3.2517597e-05  -3.6655623e-05  -8.4717365e-05  -3.3874915e-06  -4.8134847e-05  -2.6710795e-05  -1.9738505e-05  -4.8510938e-05   2.3183116e-05  -2.9839979e-05  -1.0728074e-04   2.6760251e-06   1.6938384e-05   7.2131138e-06  -8.0086182e-05  -1.4607052e-05
  -8.0847385e-05  -3.2229149e-05  -6.6346583e-05  -6.7741879e-05  -5.7556910e-05  -6.2729225e-05  -6.3270592e-05  -6.8521163e-05  -4.8755228e-05   1.0636704e-04  -4.8874263e-06   4.2074207e-05  -1.3582348e-05  -3.7213955e-05  -2.5090661e-05   1.1037054e-05   3.2795204e-05   2.2075621e-06  -3.7327260e-05   1.1499618e-05   5.8839563e-05   1.2626535e-05  -3.1927157e-05  -9.7343063e-06  -6.0823862e-05  -2.2312719e-05  -6.2537492e-07  -3.6683105e-05   3.3671186e-05  -1.3013030e-05   1.7030285e-05  -1.9461770e-05   7.4378931e-06  -1.3759411e-05  -3.3936329e-05  -3.6037996e-05  -8.2347091e-05  -1.0805258e-05  -3.9685070e-05  -3.6550355e-05  -3.2992528e-05  -1.8651499e-05   2.1875499e-05  -4.3680866e-05  -1.5383825e-04   1.9102687e-07  -1.9676612e-05   4.9424649e-05  -6.2589177e-05   8.1616554e-06
  -1.0208082e-04  -4.6013643e-05  -8.4629079e-05  -9.5498974e-05  -5.6125529e-05  -6.6544737e-05  -7.0281196e-05  -3.3973771e-05  -5.6449480e-05   1.0016342e-04  -1.4530947e-05   2.6580166e-05  -1.7059328e-05  -3.8503509e-05  -2.6531477e-05   2.2471948e-05   4.2411484e-05   2.2759315e-05  -6.6181798e-05   2.5612400e-05   2.8984619e-05  -1.9269541e-05  -4.0448544e-05  -2.2299753e-05  -8.3806684e-05  -5.9405756e-05   2.8061113e-05  -3.3553493e-05   6.5246866e-05  -6.9258167e-06   2.0726697e-05  -2.2291164e-05  -4.9124290e-05  -1.9161853e-05  -3.8298731e-05  -5.5334946e-05  -6.4754000e-05  -1.2468235e-05  -4.1642757e-05  -4.1883060e-05  -3.8008402e-05  -1.6428316e-05  -7.5301773e-06  -4.1197905e-05  -1.1284184e-04   1.1908507e-05   9.9267527e-06   2.5743577e-05  -5.3299784e-05   5.9740660e-06
  -1.2018201e-04  -8.8042674e-05  -1.0322881e-04  -1.2728192e-04  -4.8891270e-05  -6.2157618e-05  -6.6100292e-05  -3.3482316e-05  -9.1833150e-05   9.8433491e-05  -2.0892425e-05   1.2516588e-05  -2.8174956e-05  -3.5124121e-05  -4.0043618e-05   2.7878225e-05   4.8133996e-05   2.5205327e-05  -7.5241522e-05  -2.7957371e-05  -9.2319333e-06  -5.4924316e-05  -3.9312250e-05  -1.6702761e-05  -1.0041645e-04  -8.2070081e-05   2.1995320e-05  -2.4167046e-05   3.5849916e-05  -5.1215088e-06   1.4422137e-05  -1.3177155e-05  -7.8746561e-05  -5.2025094e-05  -4.7755966e-05  -6.4187341e-05  -6.0011531e-05  -1.1652911e-05  -3.4233846e-05  -2.7524549e-05  -1.4828281e-05   2.8529679e-05   4.2803695e-05  -1.9617521e-05  -7.6579636e-05   3.7169404e-05   2.7618580e-05   9.0299211e-05  -1.2902100e-05   2.3856021e-06
  -8.0546044e-05  -2.5014340e-05  -6.1653423e-05  -6.1823412e-05  -5.4369226e-05  -4.4267086e-05  -3.9743481e-05  -3.7918344e-05  -3.1648920e-05   1.2455299e-04  -7.7440409e-06   4.3576871e-05  -2.9732715e-05  -3.2038184e-05  -2.9213965e-05   6.3249377e-06   2.5481424e-05   7.6491406e-06  -2.8041790e-05   1.2980417e-05   6.9756083e-05   1.7686938e-05  -1.0975473e-05   4.5713632e-06  -3.0536961e-05  -1.0728500e-05   1.6338356e-05  -1.6564234e-05   6.2099054e-05  -9.0274107e-06   2.0000276e-05  -1.2157689e-05   4.0562431e-06   7.3140745e-07  -3.3758748e-05  -2.0648456e-05  -4.4180415e-05  -9.8260398e-07  -2.9914880e-05  -6.0291777e-06  -1.9079678e-05  -2.6923082e-05   6.5102700e-05  -1.3712000e-05  -4.9829374e-05   1.0272178e-05   2.1069003e-05   8.8962952e-05  -1.0538984e-05  -1.8150686e-05
  -8.6975895e-05  -9.4410107e-06  -6.5465138e-05  -6.5505868e-05  -5.5368717e-05  -3.8838938e-05  -4.1290285e-05  -3.7038670e-05  -2.3851306e-05   1.2278177e-04   4.8823144e-06   3.2666816e-05  -3.7041675e-05  -3.9001425e-05  -2.2267997e-05   1.2759390e-05   2.3981263e-05   1.2098544e-05  -3.1014446e-05   1.5244430e-05   8.2237188e-05  -4.2419319e-06  -2.1737142e-05   5.4331213e-06  -3.9956161e-05  -3.5710422e-05   1.6082722e-05  -7.5603075e-06   6.9840105e-05   2.5271479e-06   2.3008461e-05  -3.7732495e-06   6.5348040e-06   3.2714347e-06  -2.9995928e-05  -3.0444984e-05  -4.6881512e-05   8.0953823e-06  -2.5194226e-05  -1.1079803e-05  -1.2930409e-05   3.1477539e-05   4.1722436e-05  -2.3060351e-05  -4.2443582e-05   2.1141036e-06   2.3779494e-05   5.7645037e-05  -4.1398900e-05   4.0285272e-06
  -1.0004520e-04  -4.7776764e-05  -8.1574428e-05  -9.7237396e-05  -4.8531805e-05  -4.4439315e-05  -3.6894267e-05  -2.5997295e-05  -5.8213813e-05   1.1610294e-04  -7.0810524e-06   2.2805527e-05  -4.3722470e-05  -4.6773635e-05  -3.5217199e-05   1.3239956e-05   2.9828127e-05   8.9880568e-06  -3.2588410e-05  -2.0370790e-05   1.2933708e-05  -3.0858482e-05  -3.0669598e-05  -4.0367891e-07  -4.6450292e-05  -6.0599326e-05   2.5911271e-05  -9.1672264e-06   1.0206403e-04   6.5309237e-06   2.2382117e-05  -5.0779813e-06  -3.4994020e-05  -2.3421333e-05  -3.0210656e-05  -3.9431066e-05  -3.1089683e-05   2.6755242e-06  -2.4300925e-05   5.3365502e-06   3.9161132e-06   4.0239956e-05   3.0274932e-05  -1.2449790e-05  -5.2751569e-05   1.0347826e-05   1.8776900e-05   8.5215543e-05  -1.4025129e-06  -3.9001902e-06
  -6.8954287e-05  -1.7103135e-05  -5.7264333e-05  -5.1295698e-05  -5.0481802e-05  -3.5485114e-05  -2.0764626e-05  -3.4869692e-05  -9.1916099e-06   1.3411442e-04   7.7373397e-06   4.9202925e-05  -3.7990500e-05  -3.2353699e-05  -2.8684950e-05  -3.0632577e-06   1.5512327e-05   3.5225430e-06   1.4708925e-06   2.5994615e-05   5.4663073e-05   2.0539876e-05  -8.1464304e-06  -8.1634525e-06  -3.2000069e-05  -6.2761533e-06   1.3807720e-05  -8.8350516e-06   5.6139652e-05  -4.7108542e-06   1.9022742e-05  -1.4547775e-05   1.7457478e-05   6.6306993e-06  -1.8789453e-05  -2.1142061e-05  -4.2061023e-05   1.4734589e-05  -1.3306606e-05  -2.4315971e-06  -2.3858809e-06   6.6158616e-05   3.6048063e-05  -1.1167169e-05  -1.7853899e-05   7.9135471e-06   5.4475193e-05   8.4850253e-05  -1.4994737e-05   1.4790952e-06
  -7.6566095e-05  -2.0172500e-05  -6.1185972e-05  -6.0220289e-05  -5.1564744e-05  -3.7093079e-05  -2.8189783e-05  -2.7213999e-05  -1.8318909e-05   1.3230708e-04   1.3872141e-05   3.9124392e-05  -3.8659538e-05  -3.1784792e-05  -2.0216487e-05  -4.1857338e-06   1.9951805e-05   3.4553257e-06  -1.1831469e-05   1.8804727e-06   2.8190234e-05   1.0091647e-05  -1.9424851e-05   8.1664530e-06  -3.7469028e-05  -2.1748234e-05   3.3566645e-05   3.4033542e-06   7.9242418e-05   8.0472746e-06   2.4383642e-05  -1.9954947e-05   1.6941105e-05   1.8014892e-06  -1.0113132e-05  -1.7349128e-05  -3.6367586e-05   1.1316335e-05  -2.5301651e-05   4.0730961e-06  -1.7800761e-05   6.0706054e-05   4.8190013e-05  -1.8169165e-05  -4.2325159e-05   1.2305452e-05   2.5201143e-05   2.1931099e-05  -1.7278846e-05   9.8625242e-06
  -1.0346343e-04  -3.2934455e-05  -7.8178949e-05  -9.1248621e-05  -4.8578440e-05  -3.2742148e-05  -2.1160364e-05  -1.4626538e-05  -4.5807046e-05   1.2284047e-04   1.7412154e-06   3.6317349e-05  -5.1636620e-05  -3.4481687e-05  -2.8436752e-05   9.0724434e-08   1.1183090e-05   1.3933310e-06  -2.1510426e-05   1.5558640e-05   7.0321345e-05   9.9093377e-06  -2.2206859e-05   2.6681504e-05  -3.1792439e-05  -1.3096459e-05   3.1859792e-05  -6.8023273e-06   7.6415396e-05   3.9525739e-06   1.7331284e-05  -9.7839102e-06  -5.1624656e-06   9.0335388e-06  -1.8411918e-05  -7.0633128e-06  -2.5842228e-05   2.0581452e-05  -2.1736927e-05   3.6853871e-05   8.9355490e-06   7.6674296e-05   6.1006314e-05   1.6579181e-06   3.6604026e-06   6.1206752e-05   6.0601833e-05   9.3554452e-05   2.7116841e-06   3.6814040e-06
  -6.0747974e-05   1.7257246e-06  -4.9734252e-05  -3.7869107e-05  -4.8216600e-05  -2.9179899e-05  -4.7375011e-06  -2.0693125e-05   1.0154532e-05   1.4130662e-04   2.1701086e-05   5.9002341e-05  -5.4314340e-05  -2.9042256e-05  -1.5509977e-05  -4.9090645e-06   1.2383475e-05   6.1214683e-07   8.0729178e-06   3.1982761e-06   8.9263609e-05   1.8437588e-05  -1.0318405e-05   2.0466650e-05  -3.5285113e-05  -1.0215022e-06   2.3375129e-05  -2.3676024e-07   9.6099116e-05   1.1697367e-05   2.6477546e-05  -1.3978395e-05   2.3767852e-05   1.9622168e-05  -1.0152692e-05  -4.4229168e-06  -1.9934596e-05   2.9615481e-05  -1.6190657e-05   2.0724967e-05   1.6989983e-05   5.3515032e-06   5.4510434e-05  -1.0990232e-06   6.9881294e-06   1.4979610e-05   6.1957377e-05   1.0546709e-04  -1.2220406e-07   1.7071416e-05
  -6.9910551e-05  -2.1520606e-05  -5.5251367e-05  -5.3717202e-05  -4.1947587e-05  -1.8844021e-05  -1.2890026e-05  -2.2797069e-05  -1.9607457e-06   1.4147953e-04   1.8112698e-05   4.9743132e-05  -5.7257141e-05  -3.1210850e-05  -1.9437073e-05   2.2423703e-06   2.2021783e-05  -1.2681556e-06  -3.3606505e-06  -1.5737571e-05   5.4756769e-05  -7.3546239e-06  -8.1838089e-06  -1.6796846e-05  -5.0035786e-05  -3.4461544e-05   3.4100736e-05   9.2975697e-06   9.3751827e-05   1.5662778e-05   3.0929579e-05  -5.8831965e-06   7.2095640e-06   1.0616531e-05  -3.4791115e-06  -2.0790965e-05  -1.3156313e-05   2.7532360e-05  -1.9550494e-05   3.3485358e-05  -2.4786011e-06   2.5873462e-05   4.2072592e-05  -1.5385442e-05  -3.0579915e-05   2.2198670e-05   4.8555001e-05   9.5553092e-05  -5.1138541e-06   4.6064157e-05
  -7.9295474e-05  -2.9344972e-05  -6.0950169e-05  -6.9217065e-05  -3.7286303e-05  -1.2697291e-05  -1.1004264e-05  -7.8025505e-06  -1.6708018e-05   1.5155293e-04   3.1249562e-07   6.9637084e-05  -5.8076443e-05  -4.1141317e-05  -2.6239075e-05  -1.0314966e-05   3.7767725e-07   3.0856672e-06   3.4059092e-05   4.4781350e-06   6.2284205e-05   2.6555381e-05  -2.4666228e-06   5.3971424e-05  -4.1921021e-06   1.4548647e-05   2.4157791e-05   1.2940340e-05   1.0935663e-04   1.8837949e-05   3.8647806e-05  -2.1249387e-05   1.1489369e-05   2.6155596e-05   7.3630008e-06  -1.3102830e-05   3.6629817e-07   4.6641519e-05  -1.4596673e-06   6.1170671e-05   2.3855207e-05   2.0334464e-05   8.0298392e-05  -5.5848272e-06   1.4851728e-05   4.7407804e-05   2.4311355e-05   1.1507817e-04  -2.6951520e-06   6.0902672e-05
  -3.8206570e-05   1.9632364e-05  -3.8275568e-05  -2.9201125e-05  -4.1506664e-05  -8.2728338e-06  -4.1864619e-06  -2.0198995e-05  -6.6467564e-06   1.6428118e-04   1.1947545e-05   7.2883806e-05  -6.3185886e-05  -4.1153602e-05  -9.5960077e-06  -9.8976707e-06   3.4365387e-06   2.3953712e-06   1.9354733e-05   5.4989137e-05   7.1623857e-05   1.8141562e-05  -4.3415926e-06  -2.0668360e-05  -4.3361564e-05   1.2112690e-05   1.6986121e-05   1.1018654e-05   9.6818076e-05   2.4383085e-05   3.2202912e-05  -1.4822345e-05   2.0281050e-05   3.1630254e-05   2.2471593e-07   1.7151275e-05  -1.3503125e-05   3.7490972e-05  -6.9142147e-06   5.3831762e-05   2.3521690e-05   1.9838426e-05   8.0318205e-05  -7.9417905e-06  -2.4736577e-05   4.8093050e-05   1.5160223e-05   1.0438075e-04   4.7108431e-05   3.3909651e-05
  -5.0472750e-05   4.1105991e-06  -4.3131109e-05  -4.5855289e-05  -3.9664181e-05  -8.8260704e-06  -1.2235558e-05  -2.4639903e-05  -2.5783815e-05   1.5968509e-04   2.9962875e-06   5.4967215e-05  -7.0191629e-05  -5.3366857e-05  -2.1192707e-05   4.6933897e-06   1.2614064e-05   1.1438033e-05   3.2510832e-06   1.3493281e-05   4.0210864e-05  -3.2026590e-05  -5.8667551e-06  -1.3067862e-05  -5.8990834e-05  -2.9336879e-05   1.9266623e-05   2.0707148e-05   1.1882983e-04   3.2530341e-05   3.9720566e-05  -4.4743051e-06   3.3781263e-05   6.4451669e-06   1.4856128e-06  -1.1435184e-05  -5.4840648e-06   3.8517359e-05  -9.7928723e-06   4.5703015e-05   3.5006874e-06   2.4958843e-05   3.7756799e-05  -1.8705108e-05  -1.3945302e-05   4.9488757e-05   2.3577963e-05   8.9332694e-05   2.7328180e-05   4.3150339e-05
  -2.3431890e-05   1.2068448e-05  -2.5187481e-05  -2.6549229e-05  -3.0069446e-05   1.5309429e-06   3.3899353e-06  -1.9562407e-05   1.8673110e-05   1.7785687e-04  -2.9330827e-06   7.9209822e-05  -6.7919747e-05  -4.2063701e-05  -2.2414390e-05  -4.4371159e-06  -2.0097018e-06   2.0150472e-05   4.3688837e-05   1.8087941e-05   7.9654157e-05   1.6869053e-05  -1.5973257e-05  -6.4431165e-06  -3.0768875e-05   1.0460692e-05   9.2628998e-06   5.6204244e-06   9.2017035e-05   3.0874624e-05   3.4743643e-05  -2.2916869e-05   3.1095435e-05   2.6815358e-05   2.3608288e-06   1.5025884e-05   2.0756622e-06   4.5103963e-05  -2.2372676e-06   6.3405612e-05   3.7043425e-05  -2.4019664e-07   5.4373799e-05  -9.5978567e-06   3.8020478e-06   4.4436107e-05   1.6712000e-05   5.2000876e-05   4.0188446e-05   1.4168007e-05
  -1.5784244e-05   1.5426793e-05  -2.1827504e-05  -1.9370547e-05  -3.4721816e-05  -5.9059007e-06  -3.0618476e-06  -1.6840993e-05  -8.7830304e-06   1.7700005e-04  -1.1464980e-06   7.4743810e-05  -6.2602347e-05  -3.9992989e-05  -2.3110151e-05   1.1916032e-06   5.8211072e-06   1.4175925e-05   3.0836087e-05   2.8801034e-05   6.1147090e-05   7.8010225e-06  -5.9469016e-06  -6.4311907e-06  -3.0528343e-05  -5.0241283e-06   2.0375895e-05   2.3709670e-05   1.1011368e-04   3.4584937e-05   4.6409619e-05  -1.1282666e-05   1.0416456e-05   1.6862610e-05   1.0962217e-05   1.3170169e-06   2.7932556e-06   4.4910328e-05   1.3456483e-05   4.1227690e-05   3.2376473e-05   3.5164803e-06   4.4928820e-05  -1.1307466e-05   1.4365027e-05   4.3763979e-05   7.1659935e-07   6.8911351e-05  -1.2872170e-05   5.7709967e-05
  -2.6772223e-05   1.2344439e-05  -3.2136377e-05  -4.0889900e-05  -2.7915776e-05   1.1409684e-06   9.6691417e-07  -3.4019909e-06  -3.1622298e-05   1.7234700e-04  -1.1461148e-05   6.1672348e-05  -6.3088810e-05  -3.9693634e-05  -1.1728399e-05   1.5331476e-05   1.9593932e-05   3.1084142e-05   4.0545588e-06   1.6375341e-05   3.5758392e-05  -3.0838699e-05  -8.7695107e-06  -3.8218030e-05  -3.4870922e-05  -2.5540203e-05   4.7163387e-05   3.0705571e-05   1.1689901e-04   3.7730671e-05   4.7848647e-05  -1.2941501e-05  -1.5808411e-05  -2.2122294e-06   6.8687027e-06  -1.8864819e-05   1.2561562e-05   4.0458697e-05   1.3806096e-05   4.6638183e-05   9.4555094e-07   2.7296012e-06   3.9231651e-05  -1.2579673e-05   1.3040564e-05   3.2034306e-05   2.8369868e-05   6.2984851e-05   3.1437619e-05   2.4638946e-05
  -4.1422751e-05  -1.5516540e-05  -4.7560014e-05  -6.3083462e-05  -2.2638676e-05   5.9364975e-06   1.2786959e-06  -7.2598664e-06  -4.2921718e-05   1.8474061e-04  -3.5383804e-05   7.3210351e-05  -6.6695102e-05  -4.3458458e-05  -2.7209491e-05   7.6379565e-06   1.8784741e-06   1.7660655e-05   3.9958264e-05   2.0514981e-05   5.3162141e-05  -5.7087359e-06  -7.5269609e-06  -5.9469694e-06  -1.6619484e-05   1.5813426e-05   4.3353615e-05   2.7203232e-05   1.1972214e-04   3.9934766e-05   4.9885162e-05  -1.7824103e-05   1.9253448e-05   1.5995096e-05   8.4302692e-06  -8.1197277e-06   2.3816208e-05   4.5421119e-05   2.2205057e-05   7.2827759e-05   4.7968089e-05   7.0499345e-06   6.8930785e-05  -1.1976314e-06  -7.9717083e-06   5.3945394e-05   9.7377870e-06   5.2302301e-05   5.9012997e-05   6.5569904e-05
   1.3230837e-06   4.4899018e-05  -1.6920394e-05  -9.5961832e-06  -2.8674069e-05   8.3455907e-06   8.4385065e-06  -1.7878618e-05  -2.6291737e-05   1.9195366e-04  -1.6744778e-05   8.2214567e-05  -6.2314037e-05  -3.3925116e-05  -8.4181029e-06   1.3155930e-05   7.3331753e-06   1.4640967e-05   4.7683425e-05   3.9211554e-05   7.1837741e-05   1.2049571e-06   3.9850256e-06   9.3508770e-06  -2.0703410e-05  -6.3608474e-07   3.3478762e-05   2.4015952e-05   1.3085558e-04   4.6321409e-05   3.8406979e-05  -1.1787177e-05   3.8346461e-05   1.3695958e-05   1.6635977e-05   1.8873916e-05   2.4206292e-05   4.7048907e-05   3.0946143e-05   6.0528168e-05   3.1078511e-05  -1.9655222e-06   2.3605342e-05  -8.6926630e-06   5.5305259e-06   3.7450329e-05   2.1226691e-05   5.2034811e-05  -7.4307859e-06   5.7098572e-05
