  -1.0720344e-03  -4.6901774e-04  -5.6198315e-04  -1.0332393e-03  -5.3681387e-04  -8.4952865e-04  -1.0681081e-03  -8.8716723e-04  -2.8513899e-04   8.0308766e-04  -7.0905889e-04   2.2480912e-04  -1.2224468e-03  -1.3832146e-03  -1.3077132e-03  -1.2526611e-03  -1.3772311e-03  -1.0869832e-03  -7.0463785e-04  -6.4076029e-04  -1.6171340e-04  -4.7563575e-04  -9.9935487e-04   1.0875483e-04  -1.3088004e-03  -6.9513236e-04  -1.0417838e-03  -1.1638171e-03  -1.3449801e-03  -5.3384254e-04  -1.1790341e-03  -1.4516963e-03  -7.6094799e-04  -7.9874776e-04  -1.1187535e-03  -4.8199305e-04  -6.1013695e-04  -1.1692013e-03  -4.7164515e-04  -1.1104232e-03  -1.1227368e-04  -4.7293172e-04  -4.5108693e-04  -6.0598459e-04  -3.1084660e-04  -7.8480970e-04   4.0544073e-05  -4.7469023e-04  -2.1014096e-04  -9.3882327e-04
  -3.3505418e-04   2.4424589e-04   3.1073581e-04  -2.3505026e-04   5.6540121e-05  -3.1143712e-04  -4.7137769e-04  -5.2032422e-04   1.1585944e-04   1.2252291e-03  -3.8803558e-04   6.0622283e-04  -9.3256566e-04  -9.9678873e-04  -1.0371279e-03  -1.0082682e-03  -1.1229090e-03  -9.2582230e-04  -3.5298854e-04  -4.1126352e-04   3.4846096e-05  -1.8722691e-04  -7.5470883e-04   2.8626449e-04  -1.0230542e-03  -3.5663226e-04  -8.9125056e-04  -9.8515907e-04  -1.1939115e-03  -3.0840703e-04  -1.0244863e-03  -1.3073322e-03  -6.0094625e-04  -5.9642422e-04  -9.9734031e-04  -3.8169214e-04  -4.9144425e-04  -1.0344059e-03  -3.6340416e-04  -1.0227058e-03  -1.6249536e-04  -4.5391082e-04  -4.1534338e-04  -5.9752760e-04  -2.1716120e-04  -7.1689766e-04   3.2539709e-05  -4.3303339e-04  -3.2085943e-04  -9.1301952e-04
  -5.8765669e-04   2.3506183e-05   1.2860426e-05  -4.8740115e-04  -1.4084211e-04  -4.6376805e-04  -6.5325340e-04  -5.9739663e-04  -2.6869924e-05   1.0199531e-03  -4.9644976e-04   4.3530579e-04  -9.9813833e-04  -1.0854802e-03  -1.0865357e-03  -1.0220218e-03  -1.1578482e-03  -9.2366635e-04  -5.5406697e-04  -4.8838771e-04  -1.5963519e-04  -3.9409398e-04  -9.0538996e-04   1.5895687e-04  -1.2091007e-03  -5.7690137e-04  -9.2758710e-04  -1.0866068e-03  -1.2010819e-03  -4.3695577e-04  -1.1203783e-03  -1.3665424e-03  -8.9028256e-04  -8.5815659e-04  -1.1666610e-03  -7.0044305e-04  -7.0587872e-04  -1.1606638e-03  -6.5110589e-04  -1.3358458e-03  -6.6948106e-04  -6.8345061e-04  -7.1739737e-04  -9.2837308e-04  -4.9367751e-04  -9.6323207e-04  -1.9489722e-04  -7.3194463e-04  -6.9168821e-04  -1.1209829e-03
  -1.2155579e-03  -6.2454637e-04  -6.9084042e-04  -1.1386829e-03  -5.9255725e-04  -8.7470759e-04  -1.0990073e-03  -8.8936486e-04  -4.2570769e-04   6.7434675e-04  -7.5620954e-04   1.3004751e-04  -1.2247406e-03  -1.3814799e-03  -1.2765201e-03  -1.1935376e-03  -1.3341026e-03  -1.0382704e-03  -8.2816550e-04  -6.9474883e-04  -3.6921431e-04  -6.3249463e-04  -1.0629643e-03   4.0418217e-05  -1.3543988e-03  -7.9742906e-04  -1.0351518e-03  -1.1716648e-03  -1.2593173e-03  -5.7066604e-04  -1.1325495e-03  -1.3926089e-03  -8.2564080e-04  -8.1982906e-04  -1.1288843e-03  -5.3966721e-04  -6.4347836e-04  -1.1029638e-03  -4.6184473e-04  -1.0744247e-03  -5.2598069e-05  -4.3715711e-04  -3.8355141e-04  -5.5345922e-04  -1.8770061e-04  -6.8821583e-04  -2.0477037e-05  -3.4536587e-04  -2.0549593e-04  -8.0181373e-04
  -3.7857227e-04   1.8750962e-04   2.9179844e-04  -2.0700297e-04   7.2188537e-05  -2.5367650e-04  -4.1268315e-04  -5.2110874e-04   5.2760457e-05   1.2124304e-03  -3.8843611e-04   6.0499663e-04  -8.9818565e-04  -9.5304981e-04  -9.8104170e-04  -9.5578999e-04  -1.0667687e-03  -8.5093739e-04  -3.2917291e-04  -3.6117781e-04   3.5936533e-05  -2.0623248e-04  -7.2274246e-04   3.0607672e-04  -9.4791380e-04  -2.8202659e-04  -8.3083496e-04  -9.1154419e-04  -1.0283435e-03  -2.5711666e-04  -9.4518537e-04  -1.1879080e-03  -4.9356377e-04  -5.1115418e-04  -9.4128796e-04  -3.1948570e-04  -4.3974130e-04  -9.0408139e-04  -2.6687991e-04  -8.8225759e-04   7.4151553e-06  -3.4724770e-04  -2.6036619e-04  -4.7234952e-04  -1.5964321e-04  -5.6963612e-04   2.7087777e-05  -3.3573489e-04  -2.5817013e-04  -7.4398227e-04
  -5.5981427e-04   6.4532600e-05   5.4213710e-05  -3.9955275e-04  -8.7584907e-05  -3.8530843e-04  -5.7060044e-04  -5.5848534e-04  -5.0503233e-05   1.0331674e-03  -4.6611635e-04   4.5002683e-04  -9.4971393e-04  -1.0205838e-03  -1.0139704e-03  -9.4406342e-04  -1.0926707e-03  -8.3655701e-04  -4.6404268e-04  -4.7731571e-04  -1.3882428e-04  -3.9112027e-04  -8.8358851e-04   1.8064598e-04  -1.0835422e-03  -4.9844914e-04  -8.7764638e-04  -1.0012743e-03  -1.0969604e-03  -3.8399285e-04  -1.0275500e-03  -1.2305729e-03  -7.8559015e-04  -7.6172804e-04  -1.0826439e-03  -6.2012300e-04  -6.3910498e-04  -1.0261763e-03  -5.4469076e-04  -1.2399039e-03  -5.1187933e-04  -5.7505956e-04  -5.9901923e-04  -8.3351211e-04  -3.3238428e-04  -7.8175968e-04  -1.4120898e-04  -6.3153903e-04  -5.7295017e-04  -9.7901886e-04
  -1.1626214e-03  -5.9354864e-04  -6.3690677e-04  -1.0505997e-03  -5.4078910e-04  -8.1029482e-04  -1.0249738e-03  -8.3636679e-04  -3.5953542e-04   6.9863629e-04  -7.0772623e-04   1.3202532e-04  -1.1716285e-03  -1.3132625e-03  -1.2030264e-03  -1.1128880e-03  -1.2641639e-03  -9.5504720e-04  -8.1820169e-04  -7.2456192e-04  -4.5455780e-04  -7.3107070e-04  -1.1321750e-03  -7.5210781e-05  -1.4735986e-03  -9.2548836e-04  -1.0383280e-03  -1.2435125e-03  -1.2868496e-03  -6.5063807e-04  -1.2251004e-03  -1.4172086e-03  -1.2508527e-03  -1.1820664e-03  -1.3789450e-03  -1.0552271e-03  -9.9430629e-04  -1.2920528e-03  -9.4740844e-04  -1.6938915e-03  -1.1570262e-03  -8.3536468e-04  -1.0950841e-03  -1.2528981e-03  -6.8595435e-04  -1.1691590e-03  -3.6428194e-04  -9.5751561e-04  -8.4026303e-04  -1.1898464e-03
  -1.4537963e-03  -8.1884861e-04  -7.1852742e-04  -1.1348831e-03  -5.3210568e-04  -7.7091763e-04  -9.6333341e-04  -8.8646985e-04  -1.4797169e-04   1.0387455e-03  -5.9076061e-04   4.1292291e-04  -1.0735424e-03  -1.2102193e-03  -1.1720369e-03  -1.0964315e-03  -1.1986274e-03  -9.4742328e-04  -4.7871785e-04  -5.4059055e-04  -6.7946232e-05  -3.8900485e-04  -8.6388586e-04   2.2072460e-04  -1.0902728e-03  -4.6115738e-04  -9.3973865e-04  -1.0370183e-03  -1.1372389e-03  -4.1080834e-04  -1.0363904e-03  -1.2320675e-03  -6.5716199e-04  -6.4577133e-04  -1.0903751e-03  -4.7952184e-04  -5.7799264e-04  -1.0232279e-03  -4.0835352e-04  -1.0543923e-03  -1.4192761e-04  -3.7697781e-04  -4.7237336e-04  -6.3300278e-04  -2.2285542e-04  -6.6979456e-04  -4.3872846e-05  -5.4948335e-04  -3.2895166e-04  -8.7933376e-04
  -7.0724252e-04  -8.0916448e-05  -6.3479689e-05  -4.9255422e-04  -1.7146693e-04  -4.6801349e-04  -6.0777180e-04  -6.4213149e-04   8.0342970e-06   1.0511444e-03  -4.7614708e-04   4.4460411e-04  -9.8983571e-04  -1.0643873e-03  -1.0698845e-03  -9.8672602e-04  -1.1126574e-03  -8.7621988e-04  -4.4130356e-04  -4.9127493e-04  -5.2281695e-05  -3.7940318e-04  -8.7889069e-04   2.0028361e-04  -1.0856481e-03  -5.0019368e-04  -9.0699107e-04  -1.0592659e-03  -1.1186600e-03  -4.1045979e-04  -1.0214222e-03  -1.2114302e-03  -7.6023309e-04  -7.2066137e-04  -1.1239119e-03  -5.9524307e-04  -6.4787804e-04  -1.0561392e-03  -5.2998238e-04  -1.1984028e-03  -4.2332927e-04  -4.7778056e-04  -6.8013655e-04  -8.0562173e-04  -3.0757600e-04  -7.8343629e-04  -1.0464946e-04  -7.2467647e-04  -5.2109215e-04  -1.0108339e-03
  -1.0782952e-03  -4.8545428e-04  -5.3186202e-04  -9.0946082e-04  -4.8543056e-04  -7.5862469e-04  -9.2156272e-04  -8.0494292e-04  -1.9666256e-04   7.5363612e-04  -6.3474657e-04   1.7269506e-04  -1.1520783e-03  -1.2700172e-03  -1.2094968e-03  -1.0733800e-03  -1.2316225e-03  -9.5285545e-04  -7.3913974e-04  -7.3959766e-04  -3.8085497e-04  -6.7652314e-04  -1.1362665e-03  -4.8823716e-05  -1.4562967e-03  -8.6471805e-04  -1.0385759e-03  -1.2337250e-03  -1.2883507e-03  -6.4751157e-04  -1.2017534e-03  -1.3637075e-03  -1.1494816e-03  -1.1056921e-03  -1.3733556e-03  -1.0068677e-03  -9.6501323e-04  -1.2800974e-03  -9.2318171e-04  -1.6526452e-03  -1.0385533e-03  -7.7377126e-04  -1.1145609e-03  -1.2106446e-03  -5.8109977e-04  -1.1059872e-03  -3.4054587e-04  -1.0759280e-03  -8.8711764e-04  -1.2521715e-03
  -1.6516447e-03  -1.0546381e-03  -1.1851036e-03  -1.5530206e-03  -9.2146982e-04  -1.1902857e-03  -1.3861960e-03  -1.0981850e-03  -5.2093348e-04   5.2973587e-04  -8.8125526e-04  -3.2238608e-05  -1.3319262e-03  -1.5531178e-03  -1.4021192e-03  -1.2384867e-03  -1.3769282e-03  -1.0764810e-03  -8.0775894e-04  -8.5032522e-04  -2.7788559e-04  -6.9445401e-04  -1.1548562e-03  -2.3595116e-05  -1.3842414e-03  -8.3530671e-04  -1.0721288e-03  -1.2678038e-03  -1.3532831e-03  -6.7148183e-04  -1.1740520e-03  -1.3513116e-03  -9.5215789e-04  -9.3649427e-04  -1.2817089e-03  -7.2835933e-04  -8.0229086e-04  -1.1901096e-03  -6.5578037e-04  -1.2970250e-03  -3.5533734e-04  -5.1390438e-04  -7.4957288e-04  -8.2595588e-04  -3.0338531e-04  -8.5188891e-04  -1.3780968e-04  -7.4811862e-04  -4.3655257e-04  -9.4032160e-04
  -9.1224542e-04  -2.3287529e-04  -3.0651368e-04  -6.9526595e-04  -3.7289949e-04  -6.5968622e-04  -7.7846216e-04  -7.8767439e-04  -6.3273328e-05   9.0251525e-04  -5.7279336e-04   3.1634516e-04  -1.1361144e-03  -1.2449510e-03  -1.2114741e-03  -1.0942596e-03  -1.2171118e-03  -9.8696956e-04  -5.9450796e-04  -6.8687112e-04  -1.1963311e-04  -5.0021469e-04  -1.0166444e-03   1.2098229e-04  -1.2347286e-03  -6.4711535e-04  -1.0193633e-03  -1.1734635e-03  -1.2547164e-03  -5.3316599e-04  -1.1253803e-03  -1.2763054e-03  -8.6570601e-04  -8.7328127e-04  -1.2509089e-03  -7.3156494e-04  -7.7966187e-04  -1.1532542e-03  -6.5247371e-04  -1.3295257e-03  -5.1229744e-04  -5.5340282e-04  -8.1898336e-04  -9.2106481e-04  -4.1138800e-04  -8.7945047e-04  -2.0651065e-04  -8.6329924e-04  -5.5509194e-04  -1.0454919e-03
  -1.1584389e-03  -5.2250741e-04  -6.0929672e-04  -9.6908159e-04  -5.6365645e-04  -8.4709242e-04  -9.8649040e-04  -8.9051895e-04  -2.3518705e-04   7.2076858e-04  -6.6937879e-04   1.5419339e-04  -1.2339345e-03  -1.3627997e-03  -1.2870912e-03  -1.1721789e-03  -1.2897493e-03  -1.0424330e-03  -7.7745359e-04  -7.9811108e-04  -3.8561603e-04  -7.0019840e-04  -1.2051124e-03  -9.2397000e-05  -1.5207186e-03  -9.2173874e-04  -1.1290470e-03  -1.3048131e-03  -1.3822218e-03  -7.0852379e-04  -1.2411154e-03  -1.4075111e-03  -1.2290674e-03  -1.1854860e-03  -1.4604457e-03  -1.1036138e-03  -1.0510364e-03  -1.3395707e-03  -1.0065093e-03  -1.7153581e-03  -1.0901076e-03  -8.0093514e-04  -1.2232225e-03  -1.3047960e-03  -6.7984074e-04  -1.1808922e-03  -3.8884109e-04  -1.1926306e-03  -9.7157928e-04  -1.3083528e-03
  -1.7260625e-03  -1.0946462e-03  -1.2058308e-03  -1.5769370e-03  -9.3078485e-04  -1.1713130e-03  -1.3541492e-03  -1.1228079e-03  -3.4370951e-04   8.0154714e-04  -7.5443921e-04   2.1035416e-04  -1.2735956e-03  -1.4603657e-03  -1.3753846e-03  -1.2386078e-03  -1.3280434e-03  -1.0967378e-03  -6.2730903e-04  -6.8462943e-04  -1.3997109e-04  -5.4511882e-04  -1.0807061e-03   6.2845778e-05  -1.2946237e-03  -6.9350220e-04  -1.1059147e-03  -1.2234965e-03  -1.3232183e-03  -5.9291784e-04  -1.1568908e-03  -1.3140755e-03  -8.3637529e-04  -8.8178902e-04  -1.2952009e-03  -7.1645243e-04  -8.0418738e-04  -1.1663347e-03  -6.4832158e-04  -1.2709872e-03  -3.8064990e-04  -5.0221541e-04  -8.1994454e-04  -8.6311711e-04  -3.6050877e-04  -8.6788117e-04  -1.7226904e-04  -8.2934491e-04  -4.8593411e-04  -9.6582668e-04
  -9.8751171e-04  -2.8105784e-04  -4.2812937e-04  -7.8722014e-04  -4.5610726e-04  -7.4576755e-04  -8.5604272e-04  -8.4104581e-04  -7.7673329e-05   9.0389943e-04  -5.7152519e-04   3.2175088e-04  -1.1788139e-03  -1.2988561e-03  -1.2546389e-03  -1.1341701e-03  -1.2349199e-03  -1.0299422e-03  -5.6817039e-04  -6.4147660e-04  -1.0473384e-04  -4.9240544e-04  -1.0768359e-03   3.8921436e-05  -1.2935027e-03  -7.1579177e-04  -1.0940913e-03  -1.2183880e-03  -1.3101962e-03  -5.8187713e-04  -1.1454158e-03  -1.2968607e-03  -9.3602680e-04  -9.6547045e-04  -1.3218974e-03  -8.1160129e-04  -8.6253148e-04  -1.1922730e-03  -7.4992387e-04  -1.3978563e-03  -6.3127233e-04  -6.2142214e-04  -9.4816217e-04  -1.0293609e-03  -4.8301331e-04  -9.7429252e-04  -2.5637267e-04  -9.5681474e-04  -6.2854646e-04  -1.0285736e-03
  -1.2964490e-03  -5.8914674e-04  -8.0300955e-04  -1.1441922e-03  -7.1615772e-04  -9.7573135e-04  -1.1237259e-03  -9.9266262e-04  -3.4798402e-04   6.5081479e-04  -7.0952764e-04   9.5588075e-05  -1.3248853e-03  -1.4936215e-03  -1.3718839e-03  -1.2638370e-03  -1.3514134e-03  -1.0996682e-03  -8.4175490e-04  -8.4057276e-04  -4.2385963e-04  -7.8040489e-04  -1.2878387e-03  -1.7890599e-04  -1.6059328e-03  -1.0655356e-03  -1.2293742e-03  -1.3783308e-03  -1.4844327e-03  -8.0161222e-04  -1.3094306e-03  -1.4321712e-03  -1.4070671e-03  -1.3492912e-03  -1.5577931e-03  -1.2286531e-03  -1.1632944e-03  -1.4125318e-03  -1.1349209e-03  -1.8342062e-03  -1.2143702e-03  -8.0849719e-04  -1.3209134e-03  -1.3825063e-03  -7.0730626e-04  -1.2710897e-03  -3.2689027e-04  -1.0620614e-03  -6.4063835e-04  -1.0516414e-03
  -1.1770126e-03  -4.6049803e-04  -4.8140800e-04  -8.4972859e-04  -4.8542736e-04  -7.4233906e-04  -8.7277254e-04  -9.0289750e-04  -3.4347522e-05   1.0249162e-03  -5.4351578e-04   4.1361793e-04  -1.1895581e-03  -1.3203046e-03  -1.2789380e-03  -1.1900703e-03  -1.2496001e-03  -1.0637719e-03  -4.8324643e-04  -5.5891089e-04  -3.1666033e-05  -4.0886801e-04  -1.0147569e-03   1.1266780e-04  -1.2420755e-03  -6.2856404e-04  -1.1184696e-03  -1.1966616e-03  -1.2891123e-03  -5.3975207e-04  -1.1070037e-03  -1.2324750e-03  -8.2303694e-04  -8.5953932e-04  -1.2710566e-03  -6.8397349e-04  -7.8920327e-04  -1.1233407e-03  -6.5434951e-04  -1.2528294e-03  -4.3326305e-04  -5.0483277e-04  -8.7982963e-04  -9.3491137e-04  -4.5448964e-04  -9.2164904e-04  -1.8738130e-04  -8.4386626e-04  -4.9950636e-04  -8.8000920e-04
  -9.1797177e-04  -2.5994738e-04  -3.8283787e-04  -7.6266885e-04  -4.5159255e-04  -7.4546505e-04  -8.5105438e-04  -8.2859362e-04  -1.1271642e-05   9.6662040e-04  -5.0689297e-04   3.6561585e-04  -1.1757629e-03  -1.3066094e-03  -1.2589071e-03  -1.1602202e-03  -1.2422017e-03  -1.0436911e-03  -5.4520305e-04  -6.2157027e-04  -1.2954930e-04  -4.5396600e-04  -1.0846275e-03   1.3820625e-05  -1.3355712e-03  -7.6607830e-04  -1.1125656e-03  -1.2557912e-03  -1.3611749e-03  -6.3358329e-04  -1.1597738e-03  -1.2571304e-03  -9.7655453e-04  -1.0338025e-03  -1.3718088e-03  -9.1414631e-04  -9.4921642e-04  -1.2029107e-03  -8.6051342e-04  -1.5041338e-03  -8.0669858e-04  -6.3513906e-04  -1.1120482e-03  -1.1744319e-03  -6.1465241e-04  -1.0896554e-03  -2.6987772e-04  -1.0442485e-03  -6.4440724e-04  -1.0816037e-03
  -1.3651076e-03  -7.7380316e-04  -9.5716777e-04  -1.3019631e-03  -8.3970651e-04  -1.0899641e-03  -1.2606040e-03  -1.0554050e-03  -3.1238326e-04   6.4654788e-04  -7.0148159e-04   7.8424520e-05  -1.3656430e-03  -1.5616982e-03  -1.4364318e-03  -1.2906197e-03  -1.3887768e-03  -1.1396524e-03  -8.3482580e-04  -8.8197703e-04  -4.6192121e-04  -7.9617905e-04  -1.3992648e-03  -1.9082271e-04  -1.6779195e-03  -1.2061368e-03  -1.2908443e-03  -1.4713528e-03  -1.5595958e-03  -8.8754063e-04  -1.3308215e-03  -1.4192576e-03  -1.3310335e-03  -1.4187142e-03  -1.5742767e-03  -1.1959823e-03  -1.1913130e-03  -1.3768879e-03  -1.0851781e-03  -1.6945357e-03  -6.5247650e-04  -5.9086026e-04  -1.0177742e-03  -1.0513715e-03  -3.9411624e-04  -1.0232989e-03  -1.0838586e-04  -8.1222900e-04  -3.7233860e-04  -8.4497419e-04
  -7.4140413e-04  -6.3612977e-05  -1.9560546e-04  -5.8993039e-04  -3.4488499e-04  -6.4596673e-04  -7.3630718e-04  -7.7853049e-04   1.1423008e-04   1.1496689e-03  -4.0162980e-04   5.2547548e-04  -1.1025562e-03  -1.2277829e-03  -1.2250607e-03  -1.1172459e-03  -1.1663047e-03  -1.0099413e-03  -3.6118116e-04  -4.7076822e-04   1.0682473e-04  -2.9039869e-04  -9.8825304e-04   1.4944404e-04  -1.1839396e-03  -5.9409841e-04  -1.0849081e-03  -1.1685329e-03  -1.3019831e-03  -5.4531934e-04  -1.0586069e-03  -1.1563600e-03  -7.5255864e-04  -8.4901479e-04  -1.2642997e-03  -6.7843165e-04  -8.0996193e-04  -1.0857587e-03  -6.6010619e-04  -1.2368244e-03  -4.6020903e-04  -5.0761504e-04  -8.5394183e-04  -8.7531109e-04  -3.2915318e-04  -8.3592581e-04  -9.5902949e-05  -7.6776824e-04  -2.9837328e-04  -7.6754612e-04
  -7.6634798e-04  -1.6245936e-04  -3.0059568e-04  -6.7559694e-04  -4.1553698e-04  -7.0211897e-04  -8.1025966e-04  -7.8287756e-04   5.6767502e-05   1.0212591e-03  -4.3128931e-04   4.2654035e-04  -1.1243733e-03  -1.2543498e-03  -1.2311542e-03  -1.1123185e-03  -1.1793021e-03  -1.0089815e-03  -4.7116211e-04  -5.1244145e-04  -6.2108200e-05  -4.0411783e-04  -1.0817654e-03   8.3005158e-05  -1.3281063e-03  -7.5442478e-04  -1.1094884e-03  -1.2436165e-03  -1.3127967e-03  -6.4107828e-04  -1.1074874e-03  -1.1787398e-03  -9.7790046e-04  -1.0312379e-03  -1.3630455e-03  -8.8856654e-04  -9.5788192e-04  -1.1663382e-03  -8.6496060e-04  -1.4805509e-03  -8.8964414e-04  -6.4389419e-04  -1.1181931e-03  -1.1474311e-03  -5.9302361e-04  -1.0165545e-03  -2.2095030e-04  -9.8636653e-04  -5.9100322e-04  -9.5523469e-04
  -1.3093422e-03  -6.7564700e-04  -9.4865012e-04  -1.3015687e-03  -8.3836488e-04  -1.0856430e-03  -1.2606004e-03  -1.0364924e-03  -3.2385494e-04   6.9548277e-04  -6.5908249e-04   1.3483864e-04  -1.3363980e-03  -1.5538601e-03  -1.4048450e-03  -1.2778332e-03  -1.3467192e-03  -1.1074955e-03  -8.2381314e-04  -7.8979298e-04  -4.5536165e-04  -7.1942509e-04  -1.3336121e-03  -1.0421132e-04  -1.6368828e-03  -1.1385693e-03  -1.2588940e-03  -1.4207502e-03  -1.4687678e-03  -8.6243410e-04  -1.2230794e-03  -1.2787541e-03  -1.1338770e-03  -1.2368191e-03  -1.4555174e-03  -9.5557538e-04  -1.0596961e-03  -1.2044817e-03  -9.0462930e-04  -1.4108302e-03  -4.8960175e-04  -5.0266448e-04  -8.2658359e-04  -8.9462323e-04  -3.6068243e-04  -8.6831022e-04  -3.6648809e-05  -6.9719856e-04  -2.4193594e-04  -6.6176546e-04
  -5.9925736e-04   2.6170164e-05  -8.2215935e-05  -4.7210229e-04  -2.7601488e-04  -5.6099572e-04  -6.5666408e-04  -7.2480773e-04   1.4759337e-04   1.2219888e-03  -3.1347395e-04   5.9515261e-04  -1.0316101e-03  -1.1680597e-03  -1.1726277e-03  -1.0629091e-03  -1.0981478e-03  -9.5615839e-04  -2.9716341e-04  -3.8321357e-04   9.5482625e-05  -2.2890219e-04  -9.2070189e-04   2.4047296e-04  -1.1504287e-03  -5.5758684e-04  -1.0369803e-03  -1.1524727e-03  -1.2231617e-03  -5.3539092e-04  -9.8690006e-04  -1.0165791e-03  -6.9376401e-04  -7.6971855e-04  -1.2034050e-03  -6.3455343e-04  -7.8857492e-04  -9.9464750e-04  -6.3645653e-04  -1.1663148e-03  -4.5655872e-04  -4.6009431e-04  -7.5806596e-04  -8.0616568e-04  -3.1842763e-04  -7.6064863e-04   1.0125840e-05  -6.5151165e-04  -2.5080150e-04  -6.2944513e-04
  -6.7854638e-04  -1.1805555e-04  -2.4240937e-04  -6.1239384e-04  -3.8169269e-04  -6.5757445e-04  -7.7249203e-04  -7.2548824e-04   7.6305500e-05   1.0569555e-03  -3.6408112e-04   4.6010938e-04  -1.0686843e-03  -1.2044039e-03  -1.1920073e-03  -1.0529690e-03  -1.1174738e-03  -9.5357758e-04  -4.2609664e-04  -4.6279229e-04  -3.4758472e-05  -3.7458455e-04  -1.0127109e-03   1.2026343e-04  -1.2921758e-03  -7.4962014e-04  -1.0742896e-03  -1.2110404e-03  -1.2964199e-03  -6.3805818e-04  -1.0388873e-03  -1.0565784e-03  -8.9320482e-04  -9.8291191e-04  -1.3115176e-03  -8.8431785e-04  -9.2873484e-04  -1.1155284e-03  -8.6415262e-04  -1.4166823e-03  -9.0780831e-04  -6.2913250e-04  -1.0346121e-03  -1.0988493e-03  -6.1747653e-04  -9.6593390e-04  -2.1637285e-04  -8.7451574e-04  -5.5465614e-04  -8.4742979e-04
  -1.2453604e-03  -6.9687667e-04  -8.8809110e-04  -1.2406474e-03  -7.9718401e-04  -1.0283005e-03  -1.2213914e-03  -9.9247484e-04  -3.1662389e-04   7.2060560e-04  -6.1480969e-04   1.5863116e-04  -1.2901569e-03  -1.4998330e-03  -1.3767770e-03  -1.2248862e-03  -1.2845775e-03  -1.0674305e-03  -7.4709061e-04  -7.5588992e-04  -4.0258578e-04  -7.1936619e-04  -1.3011150e-03  -1.7467044e-04  -1.5862014e-03  -1.1220587e-03  -1.2289587e-03  -1.3968294e-03  -1.4431250e-03  -8.6869532e-04  -1.2087465e-03  -1.2211397e-03  -1.2969916e-03  -1.3167369e-03  -1.4909955e-03  -1.1150449e-03  -1.1461320e-03  -1.2338740e-03  -1.0407243e-03  -1.5269893e-03  -6.7281176e-04  -5.3132116e-04  -8.8272977e-04  -9.7402767e-04  -4.4278146e-04  -8.5293333e-04  -5.7333018e-05  -6.5268751e-04  -2.3905453e-04  -5.5452262e-04
  -6.2900368e-04  -3.9445054e-05  -1.1742752e-04  -4.9515435e-04  -3.0683092e-04  -5.7420850e-04  -6.6600560e-04  -7.4378250e-04   7.5237214e-05   1.1608523e-03  -3.2760273e-04   5.4681097e-04  -1.0358706e-03  -1.1612003e-03  -1.1743817e-03  -1.0493735e-03  -1.0771541e-03  -9.3465770e-04  -2.7801271e-04  -3.5521737e-04   7.3687015e-06  -2.6100894e-04  -9.2341966e-04   2.0574563e-04  -1.0940029e-03  -5.6524825e-04  -1.0479587e-03  -1.1161221e-03  -1.2151939e-03  -5.4287701e-04  -9.5042586e-04  -9.4343495e-04  -6.7724183e-04  -7.6439953e-04  -1.1827077e-03  -6.2836544e-04  -7.8469067e-04  -9.6146046e-04  -6.2356156e-04  -1.0880826e-03  -4.6408179e-04  -4.7211951e-04  -6.9503562e-04  -7.8562216e-04  -3.6001985e-04  -7.2932715e-04  -3.2514461e-05  -5.6610932e-04  -2.5424745e-04  -5.5061129e-04
  -6.9110969e-04  -1.7707651e-04  -2.2302406e-04  -5.8949355e-04  -3.8916868e-04  -6.2558433e-04  -7.6061458e-04  -7.4411527e-04  -2.5288644e-05   1.0118856e-03  -3.7460134e-04   4.1898421e-04  -1.0645315e-03  -1.2062815e-03  -1.1739575e-03  -1.0580800e-03  -1.0987534e-03  -9.1907755e-04  -4.1291729e-04  -4.7021054e-04  -1.1478696e-04  -4.0244305e-04  -1.0045111e-03   8.5292995e-05  -1.2414472e-03  -7.1310147e-04  -1.0551997e-03  -1.1592441e-03  -1.2140224e-03  -6.1927323e-04  -1.0031826e-03  -9.7226549e-04  -8.7634561e-04  -9.2434959e-04  -1.2691882e-03  -8.4032380e-04  -9.1251766e-04  -1.0412959e-03  -8.2095660e-04  -1.3262632e-03  -8.6854678e-04  -6.2572252e-04  -9.1049727e-04  -1.0431292e-03  -5.5918546e-04  -8.5767853e-04  -1.9087009e-04  -7.4607378e-04  -5.1615085e-04  -7.3120440e-04
  -1.2392574e-03  -7.5719389e-04  -8.4183423e-04  -1.1896326e-03  -7.9161988e-04  -1.0079738e-03  -1.1696373e-03  -1.0028461e-03  -3.8658371e-04   6.8336265e-04  -6.1652635e-04   1.2625236e-04  -1.2771823e-03  -1.4806974e-03  -1.3431892e-03  -1.2120034e-03  -1.2697708e-03  -1.0341208e-03  -7.3600427e-04  -6.8835949e-04  -4.3550800e-04  -7.2607817e-04  -1.2752302e-03  -9.3222428e-05  -1.5031087e-03  -1.0591568e-03  -1.1995214e-03  -1.3383573e-03  -1.3435977e-03  -8.1997941e-04  -1.1275436e-03  -1.0746255e-03  -1.0747445e-03  -1.1480156e-03  -1.3387953e-03  -9.0083358e-04  -1.0144905e-03  -1.0851790e-03  -8.3624356e-04  -1.2533927e-03  -4.5959785e-04  -4.6016296e-04  -6.4306916e-04  -8.0763845e-04  -4.5980921e-04  -6.9332251e-04  -5.0187056e-05  -5.0782081e-04  -1.5275483e-04  -4.0340764e-04
  -5.8580405e-04  -3.6057569e-05  -4.1250012e-05  -4.0172145e-04  -2.6832076e-04  -5.0707563e-04  -5.9964875e-04  -7.1170728e-04   6.4649998e-06   1.1359601e-03  -3.1065819e-04   5.3269969e-04  -1.0075709e-03  -1.1254130e-03  -1.1178037e-03  -1.0242851e-03  -1.0431715e-03  -8.7042415e-04  -2.8218064e-04  -3.3648589e-04   1.0485742e-05  -2.9615004e-04  -8.7987212e-04   1.9851892e-04  -1.0403980e-03  -4.9918477e-04  -9.9762913e-04  -1.0382045e-03  -1.0857822e-03  -4.9835356e-04  -8.9847477e-04  -8.2134380e-04  -6.0933921e-04  -6.6918397e-04  -1.0960556e-03  -5.6191452e-04  -7.2614365e-04  -8.5249543e-04  -5.2814599e-04  -9.2495518e-04  -3.4813109e-04  -3.9977633e-04  -5.2030495e-04  -6.9586665e-04  -3.7623878e-04  -5.8417261e-04  -8.4657277e-06  -3.6164728e-04  -1.4657291e-04  -3.0867974e-04
  -6.8098243e-04  -1.7024965e-04  -1.8151257e-04  -5.3670607e-04  -3.7421353e-04  -6.0274336e-04  -7.0114736e-04  -7.2775065e-04  -1.1837553e-04   9.7373058e-04  -3.8375135e-04   4.0125300e-04  -1.0435339e-03  -1.1775494e-03  -1.1250909e-03  -1.0175459e-03  -1.0728837e-03  -8.6296501e-04  -4.1668379e-04  -4.6277657e-04  -1.9965354e-04  -4.4547796e-04  -9.7646198e-04   9.6810058e-05  -1.1635072e-03  -6.5414829e-04  -1.0309769e-03  -1.0853183e-03  -1.1159402e-03  -5.8520609e-04  -9.4502856e-04  -8.5852382e-04  -8.3450298e-04  -8.3240349e-04  -1.1810417e-03  -7.7008898e-04  -8.7327173e-04  -9.4704883e-04  -7.4262096e-04  -1.1883682e-03  -7.8010408e-04  -5.8786495e-04  -7.7545160e-04  -9.7073469e-04  -5.8102520e-04  -7.7685574e-04  -1.9354110e-04  -5.9419015e-04  -4.7290977e-04  -5.5632071e-04
  -1.2412849e-03  -7.5088517e-04  -8.2344550e-04  -1.1492629e-03  -7.6659047e-04  -9.6560927e-04  -1.1025985e-03  -9.6975005e-04  -3.5449833e-04   9.2330348e-04  -5.2725867e-04   3.2496770e-04  -1.0947814e-03  -1.3114162e-03  -1.2205985e-03  -1.0729971e-03  -1.1226593e-03  -8.8731688e-04  -2.8926972e-04  -3.9104340e-04  -2.6165704e-05  -3.4109838e-04  -8.5975858e-04   2.3480649e-04  -9.7199745e-04  -4.7508409e-04  -9.5776521e-04  -9.7941281e-04  -1.0363726e-03  -5.0616788e-04  -8.3448185e-04  -7.0944329e-04  -5.1367830e-04  -5.4169225e-04  -9.9855580e-04  -4.3597928e-04  -6.6575874e-04  -7.4293546e-04  -4.2404071e-04  -7.5740006e-04  -1.5599224e-04  -2.2656703e-04  -3.4160563e-04  -5.3608877e-04  -2.6249004e-04  -4.0970658e-04   6.1645056e-05  -2.0960436e-04   2.9334442e-06  -9.0822417e-05
  -4.1654840e-04   2.2503871e-05   1.0470503e-04  -2.5108887e-04  -1.8361583e-04  -4.3157215e-04  -4.7601177e-04  -5.8586139e-04   2.6581481e-06   1.1267136e-03  -2.3445566e-04   5.3296296e-04  -8.7674730e-04  -9.7763585e-04  -9.6980226e-04  -8.6808426e-04  -9.2789257e-04  -7.2532310e-04  -1.8449652e-04  -2.9803207e-04   4.4723998e-05  -2.4602827e-04  -7.8544783e-04   2.6581102e-04  -8.6221582e-04  -3.9108106e-04  -8.6636824e-04  -9.0871600e-04  -9.2033413e-04  -4.2183197e-04  -7.4582984e-04  -6.1199692e-04  -5.4955308e-04  -5.0677982e-04  -9.4417750e-04  -4.1996449e-04  -6.4018421e-04  -6.7216088e-04  -4.4102603e-04  -7.9067337e-04  -2.9033131e-04  -2.9558773e-04  -3.8133399e-04  -6.0223858e-04  -3.0312286e-04  -4.1749401e-04   1.7177887e-05  -2.5262052e-04  -7.8850491e-05  -1.9911976e-04
  -6.9307600e-04  -2.5706113e-04  -2.1560917e-04  -5.4599601e-04  -3.8296878e-04  -6.0853962e-04  -6.8528281e-04  -6.7570090e-04  -1.4798249e-04   8.9782075e-04  -3.5887814e-04   3.3029416e-04  -9.6346624e-04  -1.0843577e-03  -1.0539716e-03  -9.0048375e-04  -9.9057727e-04  -7.4934750e-04  -4.0628208e-04  -4.4549027e-04  -1.9224883e-04  -4.9242965e-04  -9.5901696e-04   9.3086259e-05  -1.1122409e-03  -6.7321880e-04  -9.3742227e-04  -1.0245325e-03  -1.0264319e-03  -6.0089974e-04  -8.7377091e-04  -7.2363729e-04  -8.5083669e-04  -8.3533989e-04  -1.1199618e-03  -7.8266772e-04  -8.9932577e-04  -8.6057611e-04  -7.5240101e-04  -1.1723967e-03  -8.5106608e-04  -4.6527249e-04  -7.2999555e-04  -9.4548974e-04  -5.7878590e-04  -6.9809816e-04  -6.3607826e-05  -5.3500355e-04  -1.8698513e-04  -3.1038641e-04
  -8.4548659e-04  -3.7547963e-04  -1.5154875e-04  -4.7493298e-04  -2.7095887e-04  -4.9275445e-04  -5.3025113e-04  -6.3548784e-04   7.2037918e-05   1.2044660e-03  -2.1503845e-04   5.9120898e-04  -7.9840457e-04  -9.1632368e-04  -9.2707720e-04  -7.9701218e-04  -8.4594876e-04  -6.6294131e-04  -4.1241707e-05  -1.7317900e-04   7.7451754e-05  -1.7454059e-04  -6.6223386e-04   3.4613718e-04  -7.5472926e-04  -2.3793055e-04  -7.4670376e-04  -7.8476995e-04  -7.5928116e-04  -3.5436166e-04  -6.1347516e-04  -4.4192909e-04  -2.9650729e-04  -2.8600576e-04  -7.9015188e-04  -1.9969229e-04  -4.9670867e-04  -4.8388998e-04  -2.2329696e-04  -5.1035965e-04  -6.4245546e-06  -9.4308773e-05  -1.4046526e-04  -3.4334417e-04  -1.2917085e-04  -1.7394403e-04   2.2645277e-04  -4.6884150e-05   2.2948885e-04   1.6825717e-04
  -2.3153047e-04   1.5862175e-04   3.2093815e-04  -3.4004897e-05  -8.9641608e-06  -2.8279307e-04  -2.7344338e-04  -3.9131133e-04   1.7230219e-04   1.1833626e-03  -1.0245037e-04   6.0112134e-04  -6.7007920e-04  -7.4684928e-04  -7.8706868e-04  -6.2424317e-04  -7.1679597e-04  -5.4120302e-04  -5.3291533e-05  -1.2342096e-04   7.7404758e-05  -1.6567153e-04  -6.4473401e-04   3.7088239e-04  -6.9149485e-04  -2.4609562e-04  -6.9584610e-04  -7.1760442e-04  -7.0528768e-04  -3.2591639e-04  -5.6575605e-04  -3.7472212e-04  -3.8982090e-04  -3.3268391e-04  -7.6813856e-04  -2.8082708e-04  -5.6041422e-04  -4.5683538e-04  -3.0400333e-04  -5.8230635e-04  -2.1612813e-04  -1.6440143e-04  -1.9393695e-04  -4.1860907e-04  -2.0955861e-04  -1.9643058e-04   1.6729113e-04  -8.3874678e-05   6.5842287e-05   1.0248582e-04
  -5.7644490e-04  -1.6516172e-04  -1.2725613e-04  -4.3341506e-04  -2.9569716e-04  -5.2201754e-04  -5.7627162e-04  -5.4489949e-04  -1.0712857e-04   8.7738247e-04  -2.8664776e-04   3.4654778e-04  -8.1033004e-04  -9.1579068e-04  -8.8498869e-04  -7.0402032e-04  -8.1994641e-04  -5.8376644e-04  -3.7009810e-04  -3.4268168e-04  -2.4062367e-04  -4.6583207e-04  -8.7577198e-04   1.5335399e-04  -9.6738676e-04  -5.5173464e-04  -7.9460943e-04  -8.9584384e-04  -8.3352259e-04  -5.1791803e-04  -7.1460614e-04  -4.9606158e-04  -7.1386306e-04  -6.7391258e-04  -9.7328296e-04  -6.3192757e-04  -7.7757577e-04  -6.4122438e-04  -5.9806253e-04  -9.4352884e-04  -5.7391822e-04  -3.1483924e-04  -4.4412646e-04  -6.2946364e-04  -2.8796785e-04  -3.0407339e-04   1.7128656e-04  -7.2095128e-05   2.7715121e-04   2.6181410e-04
  -2.3645487e-04   1.7249103e-04   3.8844426e-04   5.3745985e-05   8.3066036e-05  -1.6818296e-04  -1.5513191e-04  -3.5107136e-04   1.8288573e-04   1.2581922e-03  -3.6232064e-05   6.8256294e-04  -5.7219731e-04  -6.1995938e-04  -6.7074085e-04  -5.2265334e-04  -5.9818395e-04  -4.2543668e-04   7.7674915e-05  -4.1094430e-05   2.2163949e-04  -4.4921730e-05  -4.6878058e-04   4.8905879e-04  -4.4450015e-04  -2.2249042e-05  -5.5138394e-04  -5.2540726e-04  -4.8547139e-04  -1.7947459e-04  -3.7508865e-04  -1.5250895e-04  -4.3708009e-05  -4.7654958e-05  -5.3426274e-04   2.9377468e-05  -3.3895514e-04  -2.0590304e-04  -2.4651490e-05  -2.0109260e-04   1.9856928e-04   4.3455933e-05   1.3728080e-04  -7.3562929e-05   4.9547230e-06   1.2665114e-04   3.9835446e-04   2.8427455e-04   4.2355841e-04   5.4374809e-04
   4.0246770e-05   3.4247857e-04   5.4899720e-04   2.3278742e-04   1.8102292e-04  -7.0832037e-05  -3.2867389e-05  -2.0879172e-04   2.2034522e-04   1.1984576e-03   2.2006465e-05   6.5150391e-04  -4.7983887e-04  -5.0222239e-04  -5.5206835e-04  -3.8318697e-04  -5.0410844e-04  -3.2170420e-04   4.8051428e-05   1.3584031e-05   1.6525055e-04  -9.9649456e-05  -4.9374724e-04   4.8109412e-04  -4.6351939e-04  -6.1338906e-05  -4.8945821e-04  -4.9581635e-04  -4.4153663e-04  -1.9142323e-04  -3.5245129e-04  -9.6094474e-05  -1.7806186e-04  -1.3543027e-04  -5.4631179e-04  -7.3903204e-05  -4.0538824e-04  -1.9731739e-04  -1.2193283e-04  -3.4935481e-04  -3.5581295e-05  -1.4318419e-05   5.6540634e-06  -2.2468448e-04  -1.1309731e-04   9.0592970e-05   2.9213255e-04   1.1204366e-04   2.2226908e-04   3.3898617e-04
  -4.2218962e-04  -1.3998587e-04  -1.1865442e-05  -2.7832988e-04  -1.8250980e-04  -3.9623020e-04  -3.8707239e-04  -4.0259285e-04  -7.8303274e-05   8.5565372e-04  -1.9387840e-04   3.5186665e-04  -6.4429938e-04  -7.2488451e-04  -6.8402471e-04  -4.7729985e-04  -6.3141430e-04  -3.8059530e-04  -2.5499176e-04  -2.2268642e-04  -1.7291419e-04  -4.2110495e-04  -7.6413521e-04   2.0537312e-04  -7.5226260e-04  -4.1984065e-04  -5.9770362e-04  -6.7836250e-04  -5.6703208e-04  -4.1344221e-04  -5.2854070e-04  -2.5673842e-04  -5.9071451e-04  -4.8851699e-04  -7.7959412e-04  -4.3627166e-04  -6.6130306e-04  -4.0876720e-04  -4.5078172e-04  -7.2143244e-04  -5.3539895e-04  -2.9299749e-04  -3.2637207e-04  -6.0491607e-04  -4.5029187e-04  -1.8839508e-04   9.8617515e-05  -1.8712753e-04  -6.0512757e-05   1.4117768e-04
  -7.2012283e-04  -4.1502804e-04  -1.1117611e-04  -3.7570973e-04  -1.6661445e-04  -3.5534168e-04  -3.1227974e-04  -4.3206141e-04   6.5859887e-05   1.1523106e-03  -7.9915866e-05   5.8534992e-04  -5.3105032e-04  -5.8692682e-04  -5.9055607e-04  -4.1217843e-04  -5.1604590e-04  -3.2643124e-04   6.1995583e-05   4.2909469e-05   1.6209803e-04  -1.1404313e-04  -4.5192312e-04   5.0252164e-04  -3.5888946e-04   1.5247835e-05  -4.4152848e-04  -4.0879814e-04  -3.4336909e-04  -1.5613670e-04  -2.7994192e-04   1.0816877e-05  -3.0115954e-05   3.8927257e-05  -4.3110020e-04   1.2084448e-04  -2.7517538e-04  -5.1236671e-05   5.4197022e-05  -2.6985721e-05   3.1896197e-04   2.5130568e-05   2.3876256e-04   2.5079082e-05   3.4644247e-05   3.4071563e-04   3.7474517e-04   2.8475604e-04   4.5241258e-04   5.9271121e-04
   3.6824669e-05   3.0998816e-04   5.3977838e-04   2.6863691e-04   2.1149576e-04  -3.0601968e-05   5.7826968e-05  -1.6328125e-04   1.5777859e-04   1.1482475e-03   3.6514888e-05   6.1191269e-04  -3.9934265e-04  -3.9284391e-04  -4.1815982e-04  -2.3596939e-04  -3.8174802e-04  -1.7000572e-04   5.2842279e-05   1.3551657e-05   1.7154234e-04  -9.8858043e-05  -4.1496428e-04   5.0368003e-04  -3.3078043e-04   2.8223119e-05  -3.4534273e-04  -3.2649035e-04  -2.1302204e-04  -9.9470773e-05  -2.3771875e-04   6.5144472e-05  -7.8514997e-05   7.1892132e-06  -3.8942034e-04   7.4552350e-05  -2.7677743e-04  -1.2940910e-05   3.1647225e-05  -9.7303891e-05   1.5058694e-04   4.2495835e-06   1.8419136e-04  -7.4467243e-05  -3.3170847e-05   2.8513817e-04   3.0666756e-04   1.7784040e-04   3.2395011e-04   5.3099904e-04
  -2.9496325e-04  -5.6414272e-05   1.1810697e-04  -1.0913606e-04  -6.5748631e-05  -2.9270886e-04  -2.1733480e-04  -2.8711269e-04  -5.5302367e-05   8.4179261e-04  -1.4242914e-04   3.5489557e-04  -5.5265671e-04  -5.7583954e-04  -5.2776880e-04  -3.0791434e-04  -4.8827703e-04  -2.3042894e-04  -2.5716584e-04  -2.0912359e-04  -1.4589632e-04  -3.9477632e-04  -6.5707986e-04   2.8158890e-04  -5.9397315e-04  -2.8064940e-04  -4.6909842e-04  -4.6916708e-04  -3.4105874e-04  -3.0288164e-04  -3.9121191e-04  -7.9950383e-05  -4.4020670e-04  -3.4224309e-04  -5.9586501e-04  -2.7451335e-04  -5.3792994e-04  -2.1473499e-04  -2.8998274e-04  -4.7486700e-04  -3.4983046e-04  -2.4622277e-04  -2.2059256e-04  -4.4617150e-04  -3.6921003e-04  -4.6563582e-05   1.0281173e-04  -1.5261181e-04  -1.0805071e-04   1.7086099e-04
  -8.5572415e-04  -5.9749943e-04  -4.9865420e-04  -7.1487058e-04  -4.6717096e-04  -6.6857418e-04  -6.3327176e-04  -5.6097994e-04  -3.0828445e-04   6.9471938e-04  -3.5423148e-04   1.9252702e-04  -6.8046048e-04  -7.8490668e-04  -6.8312697e-04  -4.3053570e-04  -5.9868471e-04  -3.1263498e-04  -1.8738864e-04  -2.0303421e-04   8.2026036e-06  -3.3009597e-04  -5.9534283e-04   3.6853296e-04  -4.5816158e-04  -1.5174107e-04  -4.1938797e-04  -4.3798145e-04  -3.1086148e-04  -2.5097106e-04  -2.9795733e-04   1.6544165e-05  -1.1104030e-04  -5.6808338e-05  -4.2432806e-04   1.0807398e-04  -3.3530424e-04  -1.4221213e-05   3.9196202e-05  -7.1569149e-05   2.6635281e-04   2.8850131e-05   1.4148213e-04  -9.8980290e-06  -9.6648662e-05   2.4752843e-04   3.7303535e-04   1.8518954e-04   4.1824771e-04   5.6870241e-04
  -7.3181814e-06   2.7103425e-04   4.5265208e-04   2.2434138e-04   1.5567048e-04  -1.2271501e-04   4.9527713e-05  -1.4392333e-04   1.7290881e-04   1.0184547e-03  -3.0178358e-06   5.0176098e-04  -4.1896407e-04  -3.7676809e-04  -3.9593730e-04  -1.5575031e-04  -3.4052960e-04  -1.5769154e-04  -1.9515001e-05   1.4685269e-05   8.7341563e-05  -1.6911612e-04  -4.6911114e-04   4.6161981e-04  -3.1466843e-04  -1.3655052e-05  -2.8790283e-04  -2.7134593e-04  -1.9182924e-04  -1.1527560e-04  -2.0166667e-04   1.1137885e-04  -9.7465192e-05  -2.4160101e-05  -3.4139608e-04   1.2330327e-04  -2.7504479e-04   6.3268992e-05   3.4957418e-05  -7.5864547e-05   1.6904267e-04  -1.9834872e-05   4.3448770e-05  -7.2606206e-05  -5.3678956e-05   2.0869711e-04   3.1654973e-04   1.2316029e-04   3.1253684e-04   4.1903646e-04
  -2.8336604e-04  -2.9783293e-06   1.6312700e-04  -2.7513233e-05  -2.4675022e-05  -2.8623489e-04  -1.1455165e-04  -2.1103819e-04   4.8026312e-05   8.1037515e-04  -1.1245443e-04   3.3081300e-04  -5.0795084e-04  -4.7318151e-04  -4.4345335e-04  -1.8641379e-04  -3.9271690e-04  -1.6454910e-04  -2.3128152e-04  -1.8904245e-04  -1.5151690e-04  -3.7626710e-04  -6.4498832e-04   3.1405862e-04  -5.1541510e-04  -2.4660971e-04  -3.4366656e-04  -3.9939929e-04  -2.8801797e-04  -2.7373829e-04  -3.4028597e-04  -2.2356147e-05  -4.2242542e-04  -3.1014223e-04  -5.4295850e-04  -2.0647205e-04  -5.0727150e-04  -1.2514427e-04  -2.4390318e-04  -4.5101051e-04  -3.2018684e-04  -1.8388848e-04  -3.1916820e-04  -4.3280845e-04  -4.1472368e-04  -4.2020398e-05   1.8504767e-04  -2.1463096e-04  -7.3815951e-05   1.7179227e-04
  -8.0973707e-04  -5.3994340e-04  -3.9831840e-04  -5.8845786e-04  -3.6934949e-04  -6.0141494e-04  -4.6214325e-04  -4.3655233e-04  -5.1593644e-05   8.4177987e-04  -2.0150219e-04   3.5001812e-04  -5.3050643e-04  -5.5089616e-04  -5.1638810e-04  -2.1670295e-04  -3.9069646e-04  -2.0743095e-04  -8.1590952e-05  -4.7161149e-05   4.5015091e-05  -2.3125364e-04  -4.6291525e-04   4.4154804e-04  -2.3664253e-04  -2.4166930e-06  -2.6740207e-04  -2.3483842e-04  -2.0073671e-04  -1.2898412e-04  -2.0238546e-04   1.3455791e-04  -4.3127508e-05   1.1057406e-05  -3.1139716e-04   1.7427369e-04  -2.4204975e-04   1.3058896e-04   1.2487882e-04   5.2619649e-05   3.1834171e-04   8.4686042e-05   8.1972605e-05   3.0189180e-05  -3.4277087e-05   3.3056762e-04   4.4933843e-04   2.2688908e-04   4.9621385e-04   5.1849091e-04
   9.0521871e-06   1.7525262e-04   4.6229185e-04   2.7259655e-04   1.8764564e-04  -1.0017255e-04   1.3794852e-04  -4.4926575e-05   2.9018286e-04   9.8518364e-04   5.2081690e-05   4.9911143e-04  -3.5249171e-04  -2.5616356e-04  -2.9721085e-04  -3.6800618e-06  -2.0481733e-04  -7.7082463e-05   5.6151989e-06   2.8864002e-05   1.1025524e-04  -1.5777808e-04  -4.1137991e-04   4.9156934e-04  -2.2139814e-04   2.7893071e-05  -1.8611063e-04  -1.5940350e-04  -9.4959018e-05  -5.8224276e-05  -1.6227827e-04   1.7058433e-04  -5.2305968e-05  -1.0344060e-05  -2.8093805e-04   1.5049955e-04  -2.4656451e-04   1.4692740e-04   8.3861036e-05  -1.8403633e-05   1.1914658e-04   2.0995523e-05  -2.7713251e-05  -1.1262068e-04  -9.8822042e-05   1.8803922e-04   3.5263688e-04   2.9999059e-05   2.8840714e-04   3.8871047e-04
  -3.1450752e-04  -8.1040009e-05   9.8367687e-05  -5.6521792e-05  -4.9465114e-05  -3.0029367e-04  -9.0614914e-05  -1.5666446e-04   1.0635581e-04   7.3904614e-04  -8.5311753e-05   2.8130991e-04  -4.9371744e-04  -4.0846004e-04  -3.8976673e-04  -8.6619046e-05  -2.9343538e-04  -1.4488467e-04  -2.4343020e-04  -2.2070370e-04  -1.4761699e-04  -3.9552979e-04  -6.2046753e-04   2.2040166e-04  -4.8907526e-04  -2.7373360e-04  -2.9870580e-04  -3.2111962e-04  -2.7069935e-04  -2.5564691e-04  -3.1186503e-04   1.3038368e-05  -4.5086379e-04  -3.7483178e-04  -5.0931121e-04  -2.3808985e-04  -5.1381235e-04  -7.2622228e-05  -2.6147379e-04  -4.3833657e-04  -3.7024968e-04  -1.8421785e-04  -3.7454258e-04  -4.6219566e-04  -3.2182792e-04  -2.8142573e-05   3.1250188e-04  -1.2878876e-04   3.1884719e-04   3.8015394e-04
  -1.5650339e-04   1.0579059e-04   4.2557257e-04   2.2441684e-04   2.1490571e-04  -7.6667275e-05   1.7279827e-04  -2.6789417e-05   3.2485637e-04   1.0337484e-03   9.1250047e-05   5.4664875e-04  -3.2643994e-04  -2.0393364e-04  -2.5187447e-04   5.1652369e-05  -1.1572363e-04  -6.3367137e-05   8.3410421e-05   6.3938533e-05   1.6703176e-04  -6.8098168e-05  -3.0755228e-04   5.3295388e-04  -9.7469296e-05   1.3240424e-04  -1.0254343e-04  -3.6207835e-05   1.1784100e-05   3.8150807e-05  -7.0423441e-05   2.5876187e-04   3.9209019e-05   1.0492411e-04  -1.4255299e-04   3.5022665e-04  -1.0059599e-04   3.0318717e-04   2.5222922e-04   2.1459564e-04   3.3064024e-04   1.8823775e-04   7.4378411e-05   4.8600563e-05  -1.4640565e-05   3.3126076e-04   4.4741554e-04   1.0783350e-04   4.0244908e-04   5.8906164e-04
   4.8002956e-05   1.9828859e-04   5.0672353e-04   3.2352723e-04   2.4039745e-04  -4.7452104e-05   2.2214265e-04   7.2131385e-05   3.3531155e-04   9.7197975e-04   1.2405908e-04   5.0993927e-04  -3.0628237e-04  -1.6725549e-04  -1.9496934e-04   1.0514806e-04  -7.1291652e-05  -1.7163124e-05  -2.3289020e-05   3.2145144e-05   8.0386009e-05  -1.3111578e-04  -3.6520802e-04   4.3087293e-04  -1.5973502e-04   3.9830567e-05  -1.2154735e-04  -3.4984529e-05  -1.1068337e-05   1.1208249e-06  -1.1463365e-04   2.2198119e-04  -9.1152833e-05  -8.2595965e-05  -2.1697623e-04   1.2614403e-04  -2.2088776e-04   2.3063930e-04   9.1548056e-05   5.1624593e-06   3.3449942e-05   2.5778802e-06  -1.3585224e-04  -1.8418957e-04  -2.0836973e-04   1.9125403e-04   3.0341360e-04  -8.9908870e-05   2.4354218e-04   3.8340388e-04
  -4.4913212e-04  -2.0559656e-04  -1.0756507e-04  -2.1978145e-04  -1.6973386e-04  -3.7358821e-04  -1.7695510e-04  -1.7825417e-04  -7.5668509e-06   6.2491139e-04  -1.0158549e-04   2.1854513e-04  -5.3165545e-04  -4.6272195e-04  -3.6284499e-04  -7.1057650e-05  -2.4395548e-04  -1.6277628e-04  -3.5553687e-04  -2.6876191e-04  -2.5162761e-04  -4.5632839e-04  -6.1200588e-04   1.7884602e-04  -4.6671755e-04  -3.3052120e-04  -2.9612725e-04  -2.4522003e-04  -1.9760797e-04  -2.3947094e-04  -3.1860624e-04   5.1547672e-06  -5.1438750e-04  -4.7394924e-04  -4.7132699e-04  -2.8151207e-04  -5.2311952e-04  -2.0112504e-05  -2.7221770e-04  -4.0705412e-04  -3.3317957e-04  -1.3763960e-04  -3.4527201e-04  -3.8592573e-04  -2.7621732e-04  -1.6031843e-05   2.8884324e-04  -7.3933377e-05   3.7335511e-04   5.2141736e-04
  -3.7808764e-05   1.1657851e-04   4.6171257e-04   2.9159832e-04   2.3752179e-04  -3.0999981e-05   2.2780446e-04   6.4364531e-06   3.2831632e-04   1.0317700e-03   1.4968317e-04   5.6818145e-04  -3.0015977e-04  -1.8243177e-04  -1.6864453e-04   8.5027947e-05  -3.0016765e-05  -4.4097662e-05   7.9866215e-05   1.1519976e-04   2.4727263e-04  -9.2594928e-06  -2.0934131e-04   5.2449666e-04   4.2136377e-05   1.6079964e-04  -4.6236786e-05   1.3201515e-04   1.1387783e-04   1.1505275e-04  -2.9216202e-05   3.1086782e-04   9.9883844e-05   1.0141957e-04  -6.1289691e-05   3.8060424e-04  -4.7451169e-05   3.8130351e-04   3.0562739e-04   2.9831857e-04   3.2153114e-04   2.0670894e-04   4.8654696e-05   3.6394984e-05  -3.5020956e-05   2.9260750e-04   4.2434334e-04   1.3485743e-04   4.8116024e-04   6.1832007e-04
   1.4519387e-04   3.1134943e-04   5.1291479e-04   3.6482944e-04   2.6003219e-04  -2.3132017e-05   2.6306091e-04   1.0891672e-04   4.0633045e-04   9.6269487e-04   2.0357005e-04   5.3414528e-04  -2.7151100e-04  -1.3826939e-04  -1.2522940e-04   1.4979631e-04   1.0362507e-05  -9.0557278e-06  -1.0488722e-06   7.9134297e-05   1.4270653e-04  -7.2581599e-05  -2.7499156e-04   4.1322762e-04  -7.0209833e-05   4.7938072e-05  -7.7784964e-05   8.8086847e-05   7.7629877e-05   4.6827634e-05  -7.1017646e-05   2.6875865e-04  -9.4862422e-05  -6.3220701e-05  -1.2998036e-04   1.7200914e-04  -1.6437896e-04   2.9259975e-04   1.2720587e-04   6.7316279e-05   2.3324506e-05   6.0389852e-05  -1.6881664e-04  -1.8639461e-04  -2.0725116e-04   1.3849352e-04   2.6694065e-04  -1.3551692e-04   2.3465797e-04   3.7725159e-04
  -3.8278667e-04  -1.4354051e-04  -1.1633847e-04  -2.1287518e-04  -1.7667322e-04  -3.7536258e-04  -1.6016664e-04  -1.5144802e-04   1.2922884e-04   6.3584372e-04  -3.3496924e-06   2.4327511e-04  -4.6629625e-04  -4.1738304e-04  -2.9274035e-04  -3.0665746e-05  -1.7102425e-04  -1.3899388e-04  -3.1661204e-04  -2.1243209e-04  -2.0257970e-04  -3.7515833e-04  -5.5014016e-04   2.4355756e-04  -4.3186801e-04  -3.1896646e-04  -2.2209169e-04  -1.4443327e-04  -1.2574688e-04  -2.0742732e-04  -2.7780866e-04   3.9861356e-05  -4.8460840e-04  -4.7360649e-04  -4.0925076e-04  -2.3032103e-04  -4.7946934e-04   1.4835875e-05  -2.4743972e-04  -4.1100648e-04  -5.5933039e-04  -2.0705978e-04  -6.1707711e-04  -6.0173305e-04  -4.8702708e-04  -2.2231578e-04   7.3898300e-05  -4.3837033e-04  -6.9140791e-05   2.5132336e-05
  -9.7628048e-04  -7.4608071e-04  -7.7200460e-04  -8.7648578e-04  -6.1513355e-04  -8.2116702e-04  -6.2752963e-04  -4.6047397e-04  -1.1205854e-04   4.7671897e-04  -2.4799429e-04   8.1682680e-05  -6.2480150e-04  -6.8021443e-04  -5.0957868e-04  -1.9959632e-04  -3.1229493e-04  -2.6526302e-04  -2.5089135e-04  -1.8982030e-04   3.0469803e-06  -3.1593954e-04  -4.8348118e-04   3.4603363e-04  -2.5226598e-04  -1.9855640e-04  -2.1263026e-04  -8.3091247e-05  -1.4620234e-04  -1.7021253e-04  -2.0334127e-04   1.0892198e-04  -1.7399387e-04  -1.5855726e-04  -2.3057971e-04   1.5502814e-04  -2.4947323e-04   1.8843320e-04   1.1192980e-04   5.5523378e-05   1.5637821e-04   5.2629097e-05  -2.0684382e-04  -1.0989515e-04  -1.0361139e-04   7.9529884e-05   4.0705473e-04  -1.0710948e-04   4.9669767e-04   4.4059000e-04
   6.9173293e-05   2.6001767e-04   3.8822641e-04   2.4161585e-04   1.2380671e-04  -1.4152804e-04   1.6939371e-04  -9.8813307e-06   4.5346585e-04   9.0725929e-04   2.0574023e-04   4.9146946e-04  -3.2312548e-04  -2.1831406e-04  -1.7287412e-04   5.4544267e-05  -2.4986242e-05  -1.0168095e-04   1.3021699e-05   4.8301277e-05   1.2089955e-04  -5.6927100e-05  -2.8339404e-04   4.2611395e-04  -7.8229466e-05  -2.3378760e-05  -7.2701470e-05   9.3843657e-05  -2.1738593e-05   5.4294048e-07  -1.0865107e-04   1.9200628e-04  -5.3905544e-05  -8.8775545e-05  -1.5193145e-04   1.6140625e-04  -1.7426324e-04   2.4096879e-04   1.2929281e-04   4.6848148e-05   2.3857017e-05   3.8551567e-05  -2.2451348e-04  -1.9368067e-04  -1.7623062e-04   5.0729695e-06   3.3434882e-04  -1.2544081e-04   3.3409338e-04   3.4258788e-04
  -2.0822190e-04   7.5446711e-05   6.0327358e-05  -6.1140592e-05  -9.8392462e-05  -3.1565779e-04  -5.3851480e-05  -1.0259124e-04   3.1999470e-04   6.9381233e-04   9.9991346e-05   3.0456859e-04  -4.1803112e-04  -3.4188980e-04  -2.5258257e-04  -2.5918000e-05  -1.0234909e-04  -1.6326027e-04  -2.2755637e-04  -1.2929908e-04  -6.8599285e-05  -2.5659343e-04  -4.4372393e-04   2.3838870e-04  -3.2651599e-04  -2.9619472e-04  -1.7949626e-04  -4.6638124e-05  -1.7340627e-04  -1.7425766e-04  -2.6509789e-04   4.8594058e-05  -3.5809772e-04  -4.0187224e-04  -3.6122804e-04  -1.8372740e-04  -4.3595582e-04  -1.2305355e-06  -2.1722674e-04  -3.7021091e-04  -5.6241034e-04  -2.4831510e-04  -5.8914226e-04  -5.8734120e-04  -4.5347164e-04  -2.7706436e-04   1.0755801e-04  -4.2492771e-04  -3.6233127e-05   1.0485796e-04
  -7.9921971e-04  -5.2132993e-04  -5.9685932e-04  -7.2728290e-04  -5.3538108e-04  -7.3860714e-04  -5.4184237e-04  -4.0556554e-04   9.9446088e-06   3.6772303e-04  -1.5031184e-04   1.1583458e-05  -6.5350306e-04  -6.7104399e-04  -4.5684920e-04  -2.4660327e-04  -3.1108275e-04  -3.1914120e-04  -5.6912587e-04  -4.1667497e-04  -3.5174511e-04  -6.0010131e-04  -7.3110126e-04   1.0028954e-05  -7.0136430e-04  -7.1740197e-04  -3.6818389e-04  -2.7731509e-04  -4.0450660e-04  -4.3510451e-04  -4.5996957e-04  -1.6516713e-04  -7.8361947e-04  -7.7862799e-04  -6.0518429e-04  -4.8304824e-04  -6.9121481e-04  -2.0253869e-04  -4.6506253e-04  -5.7173410e-04  -3.5681803e-04  -2.8031290e-04  -5.2003283e-04  -4.6291569e-04  -4.2187740e-04  -2.4038478e-04   2.0927176e-04  -2.7634035e-04   3.4103286e-04   2.4020504e-04
  -1.8436254e-04   9.9572331e-05   1.3709656e-04  -2.2028667e-05  -6.5116037e-05  -2.9156310e-04  -1.7373939e-05  -1.6727729e-04   3.3985614e-04   7.8826363e-04   1.0567946e-04   3.8164546e-04  -4.1946978e-04  -3.4192210e-04  -2.5906882e-04  -1.1538317e-04  -1.1158896e-04  -2.2442894e-04  -1.3094707e-04  -8.5104475e-05   4.0650077e-05  -1.3390250e-04  -3.5588079e-04   3.3683321e-04  -2.0939609e-04  -1.4337440e-04  -1.7618116e-04   4.7068668e-05  -1.1756828e-04  -8.3493193e-05  -2.3400749e-04   6.4739681e-05  -1.8108528e-04  -2.3257379e-04  -2.5574878e-04   4.1883228e-05  -3.0358694e-04   6.6322056e-05  -2.8006491e-05  -7.7160941e-05  -1.0753158e-04  -1.6540561e-04  -3.1578698e-04  -2.7665307e-04  -2.9999448e-04  -1.4593572e-04   2.1044494e-04  -2.2484269e-04   2.7583755e-04   2.8914085e-04
  -2.5927220e-04   1.3027299e-05   2.3602241e-05  -1.3373799e-04  -1.5916998e-04  -3.7790864e-04  -1.0973369e-04  -2.1377536e-04   2.2296762e-04   6.5168086e-04   6.3977801e-05   2.7420939e-04  -4.6914394e-04  -4.2626241e-04  -2.7842657e-04  -1.5792240e-04  -1.6410298e-04  -2.5971729e-04  -2.8035036e-04  -1.9144408e-04  -7.1345465e-05  -2.6215916e-04  -4.4045364e-04   2.0842571e-04  -3.5030753e-04  -2.9932847e-04  -2.4554183e-04  -2.3899185e-05  -1.7020419e-04  -1.7555636e-04  -3.0562165e-04  -1.7145199e-05  -3.0014088e-04  -3.9826971e-04  -3.5488239e-04  -1.8198867e-04  -4.3513149e-04  -5.6539106e-05  -2.3135349e-04  -3.2433632e-04  -4.9604359e-04  -3.9477556e-04  -5.5195368e-04  -5.6172174e-04  -5.5872893e-04  -3.8019635e-04   3.7643604e-05  -4.5143897e-04   3.9373368e-05   1.3052064e-04
  -8.1823335e-04  -4.8260519e-04  -6.0425448e-04  -7.4282731e-04  -5.8109011e-04  -7.5488363e-04  -5.6691392e-04  -4.9451651e-04  -1.0645270e-04   3.4191128e-04  -1.7246972e-04  -2.2101745e-05  -6.8338093e-04  -7.2894699e-04  -4.7132018e-04  -3.5420456e-04  -3.5821795e-04  -3.8731634e-04  -5.8918766e-04  -4.4471485e-04  -3.6589828e-04  -5.7362136e-04  -7.1207632e-04   7.8993571e-06  -6.4443378e-04  -6.7211373e-04  -4.0095372e-04  -2.4697010e-04  -4.0607146e-04  -4.0863344e-04  -4.6102659e-04  -1.8382382e-04  -5.8933505e-04  -6.6846935e-04  -4.9563812e-04  -3.4799095e-04  -5.8852328e-04  -1.5445000e-04  -3.1645436e-04  -3.4792535e-04  -2.0331729e-04  -2.9311280e-04  -3.8689232e-04  -3.6441718e-04  -3.6660521e-04  -2.5327163e-04   1.9274255e-04  -2.4455419e-04   3.2280778e-04   3.0842950e-04
  -1.7796329e-04   1.3454698e-04   1.5200231e-04  -3.5065608e-05  -9.1383925e-05  -3.2706719e-04  -3.5660756e-05  -1.9531860e-04   3.3695501e-04   7.4810482e-04   1.1289299e-04   3.5385060e-04  -4.1463904e-04  -3.8755932e-04  -2.2682182e-04  -1.7107255e-04  -1.3260149e-04  -2.7069441e-04  -1.7941643e-04  -9.0689231e-05   3.7448091e-05  -1.6286194e-04  -3.4720066e-04   2.7565958e-04  -2.3280214e-04  -1.9688658e-04  -2.3021003e-04   6.3631029e-05  -2.0882575e-04  -1.1720051e-04  -2.6550726e-04   3.4590888e-05  -1.8386722e-04  -2.3505617e-04  -2.5336738e-04  -7.9171932e-06  -3.1465196e-04   1.9986077e-05  -6.4424363e-05  -9.7339340e-05  -1.3633080e-04  -2.2947601e-04  -2.6502917e-04  -2.8729325e-04  -2.9702130e-04  -2.3545942e-04   2.3110665e-04  -2.2781563e-04   2.9269009e-04   2.8734843e-04
  -3.1525642e-04  -1.3102883e-05  -2.1032116e-05  -1.9652123e-04  -2.2119765e-04  -4.3709035e-04  -1.7848467e-04  -2.4749557e-04   2.3748697e-04   6.0413399e-04   6.0598060e-05   2.2809638e-04  -4.4309843e-04  -4.4661091e-04  -2.6629108e-04  -1.9393170e-04  -1.7400930e-04  -2.8908209e-04  -2.6974591e-04  -2.1345080e-04  -1.3344374e-04  -2.7796769e-04  -4.5152471e-04   1.8141519e-04  -3.5193836e-04  -3.4800856e-04  -2.5808639e-04   3.3202182e-06  -2.4824406e-04  -2.1453663e-04  -3.3330737e-04  -3.6247471e-05  -3.7961375e-04  -4.1188084e-04  -3.6231440e-04  -2.5034684e-04  -4.8501283e-04  -1.2597395e-04  -2.9788798e-04  -4.2036542e-04  -5.9582957e-04  -4.0127378e-04  -5.8004324e-04  -6.0555513e-04  -5.1443378e-04  -4.7046773e-04   1.0745338e-04  -4.7008428e-04   3.6084704e-05   6.0342143e-05
  -8.5597311e-04  -5.3897349e-04  -6.2049291e-04  -7.8696321e-04  -5.9960497e-04  -7.9841557e-04  -5.9844175e-04  -4.9537566e-04   2.6232095e-05   4.5874636e-04  -1.2990579e-04   9.4901967e-05  -5.3577649e-04  -6.1710126e-04  -3.9621574e-04  -2.8445077e-04  -2.5277570e-04  -3.4860941e-04  -2.4753102e-04  -1.6142594e-04   1.2324952e-05  -2.2981693e-04  -3.6298507e-04   2.8700399e-04  -2.2423427e-04  -2.2465612e-04  -2.0062257e-04   7.8746700e-05  -2.4586261e-04  -1.5986376e-04  -2.3715747e-04   4.5454297e-05  -8.4006861e-05  -1.4233793e-04  -1.9084397e-04   7.5829448e-05  -2.8490898e-04   6.1472485e-05   2.2529071e-05   2.2555732e-05  -1.4037247e-05  -1.7782892e-04  -1.7525506e-04  -1.5527302e-04  -1.7854611e-04  -1.8854371e-04   3.7639501e-04  -1.5870691e-04   5.5171450e-04   4.5040512e-04
   3.8264938e-05   2.8990634e-04   3.3895951e-04   1.1431483e-04   3.2369837e-05  -2.2976707e-04   5.8528902e-05  -7.4512456e-05   4.4950517e-04   7.6992204e-04   2.3071007e-04   3.9070396e-04  -2.4097270e-04  -2.1284880e-04  -1.0826408e-04  -2.2075952e-05   1.1774645e-06  -1.8266661e-04  -4.7154928e-05   1.4763524e-06   8.7960878e-05  -5.6440775e-05  -2.0954998e-04   3.9734202e-04  -6.3835396e-05  -8.2235994e-05  -8.2107450e-05   2.0124690e-04  -1.1047026e-04  -5.0856674e-05  -1.4709297e-04   1.6130612e-04  -6.4504675e-05  -5.5969864e-05  -1.0739745e-04   1.2627298e-04  -2.4313986e-04   1.1881043e-04   1.8167299e-05  -4.8870684e-06  -1.2568309e-04  -1.9084527e-04  -2.0137383e-04  -2.0299286e-04  -2.0958731e-04  -1.4223282e-04   3.6405187e-04  -1.2699410e-04   4.1463418e-04   3.7754740e-04
  -2.1963708e-04   4.3595493e-05   5.6121364e-05  -1.4344242e-04  -1.3927498e-04  -3.7407738e-04  -1.2512144e-04  -1.1699938e-04   3.4156346e-04   5.8654882e-04   1.2889552e-04   2.3909510e-04  -2.8533745e-04  -2.9003908e-04  -1.5687887e-04  -5.3367214e-05  -3.2724267e-05  -1.9284265e-04  -2.2049820e-04  -1.1835004e-04  -1.0685114e-04  -2.4727013e-04  -3.6362757e-04   2.7929782e-04  -2.7571645e-04  -3.2374641e-04  -1.6561813e-04   8.5246931e-05  -2.0713365e-04  -2.1374034e-04  -2.4911269e-04   5.2682029e-05  -3.7072515e-04  -3.4663297e-04  -2.8496361e-04  -2.1105701e-04  -4.6971781e-04  -7.6526652e-05  -2.9844485e-04  -3.8019239e-04  -6.3230807e-04  -3.7467462e-04  -5.0383806e-04  -5.2090111e-04  -4.3670801e-04  -4.0838448e-04   2.0866224e-04  -2.9013827e-04   2.5624884e-04   2.7464403e-04
  -4.0977605e-04  -1.1670157e-04   7.1705297e-05  -1.2310369e-04  -2.2132052e-05  -2.5301243e-04  -4.2543293e-06  -7.0087066e-05   5.4342108e-04   8.5391238e-04   2.6826194e-04   4.7073254e-04  -1.0362446e-04  -9.6471529e-05  -2.0316600e-05   7.0270275e-05   1.1951632e-04  -8.8264431e-05   9.8370532e-05   1.0650630e-04   2.6650637e-04   7.7007418e-05  -4.5262113e-05   5.2103621e-04   1.0085782e-04   9.3052848e-05   1.6937045e-05   3.8451140e-04   2.7181288e-05   6.0222872e-05   1.3384929e-05   3.1280203e-04   2.0620758e-04   1.9143344e-04   9.4034520e-05   3.4399008e-04  -6.0531893e-05   3.1221041e-04   2.4315144e-04   3.1301388e-04   1.9557864e-04  -1.5265066e-05   1.0380255e-04   1.1052786e-04   1.0284793e-04   9.3895338e-05   5.5676547e-04   1.3980542e-04   7.9822604e-04   6.5565703e-04
   2.7484944e-04   4.5599783e-04   6.1359088e-04   3.7416816e-04   2.9667839e-04   1.9140745e-05   2.7573548e-04   2.0126134e-04   6.1146985e-04   8.6794357e-04   3.9651588e-04   5.1886524e-04   6.5135871e-05   1.0081600e-04   1.6023233e-04   2.5913166e-04   2.8622343e-04   5.5670545e-05   1.3905621e-04   1.9657766e-04   2.2261686e-04   1.1546985e-04  -1.5421190e-06   5.4512551e-04   1.7404748e-04   1.2401221e-04   1.2705728e-04   4.5813958e-04   1.3158731e-04   1.0574835e-04   7.1464579e-05   4.0154849e-04   1.6672439e-04   1.7026189e-04   1.3054461e-04   2.7808870e-04  -7.4876007e-05   3.2214430e-04   2.0596255e-04   2.4121595e-04   2.9992165e-05  -1.0293233e-04   4.7524780e-05   4.2062642e-05   2.5727294e-07   8.4945379e-05   4.5969762e-04   1.3598852e-04   7.3239947e-04   5.9083506e-04
  -6.4120679e-05   1.2704910e-04   2.0225465e-04   9.1116963e-06   3.2891188e-05  -1.9540849e-04   1.4186588e-05   6.2487634e-05   3.7900521e-04   5.8698119e-04   2.2436408e-04   2.7006870e-04  -5.5997963e-05  -5.5088483e-05   6.0601200e-05   1.8161992e-04   1.8585069e-04   2.1880256e-05  -1.0449081e-04   2.8462826e-05  -9.5001647e-05  -1.6924638e-04  -2.1393782e-04   3.4241495e-04  -8.3663923e-05  -1.5604607e-04   2.7452112e-05   2.9211224e-04   4.5102792e-05  -8.9306115e-05  -6.5107444e-05   2.5674931e-04  -1.9838147e-04  -1.4694527e-04  -6.9674104e-05  -7.6351505e-05  -3.0664096e-04   1.2756391e-04  -9.9429169e-05  -1.4627058e-04  -4.2820108e-04  -3.0017507e-04  -2.2335374e-04  -2.9056653e-04  -2.6650025e-04  -1.1457174e-04   3.1857347e-04  -1.2338659e-04   2.9543575e-04   3.6235724e-04
  -5.2778260e-04  -3.5694119e-04  -1.9423121e-04  -3.9084442e-04  -1.4143556e-04  -3.1645189e-04  -1.3048365e-04  -7.1648501e-05   4.3750607e-04   7.8156026e-04   2.5417242e-04   4.2357267e-04   3.4696670e-05   2.7461470e-05   1.2270722e-04   2.2990261e-04   2.7626613e-04   7.5367563e-05   1.4439659e-04   1.9881476e-04   2.6791822e-04   1.1531292e-04   1.0302039e-04   5.5232021e-04   3.1327567e-04   2.5603149e-04   2.0299215e-04   5.9796299e-04   2.4358927e-04   1.7473940e-04   1.7963775e-04   5.1722320e-04   3.4964879e-04   3.8638516e-04   3.0320571e-04   4.8545672e-04   7.8900826e-05   5.3023029e-04   4.4304261e-04   5.6072179e-04   4.4355911e-04   5.6056961e-05   3.7483088e-04   3.9932510e-04   2.7301584e-04   3.9154306e-04   6.1695272e-04   3.7519142e-04   9.8593370e-04   9.1282092e-04
   5.2343600e-04   6.4986933e-04   8.4121997e-04   6.1930256e-04   5.2124209e-04   2.3524711e-04   4.9574656e-04   4.0177073e-04   7.0029258e-04   8.9740101e-04   5.0917396e-04   5.6564977e-04   2.9711245e-04   3.6710224e-04   3.8612625e-04   5.0335511e-04   5.1732408e-04   2.8280303e-04   2.9097518e-04   4.0966077e-04   3.4534468e-04   2.3377486e-04   2.1899177e-04   6.6843757e-04   4.5998470e-04   3.8078523e-04   3.6335023e-04   7.2899018e-04   4.3872939e-04   2.8613608e-04   2.8847036e-04   6.3402421e-04   3.8791509e-04   4.6629464e-04   3.9727363e-04   5.3541182e-04   1.4507373e-04   6.1063265e-04   4.7405620e-04   5.9174851e-04   3.1605130e-04   5.8459234e-05   3.3489327e-04   3.3970468e-04   2.0851739e-04   3.7133062e-04   5.8897573e-04   3.1442128e-04   8.8743021e-04   8.6486881e-04
   2.4901732e-04   3.3788229e-04   5.1363476e-04   3.3975282e-04   3.1889090e-04   6.2799583e-05   2.8972581e-04   3.4438312e-04   4.9259007e-04   6.3505076e-04   3.5930620e-04   3.4165257e-04   2.0929141e-04   2.4971206e-04   3.2068716e-04   4.7578357e-04   4.5663890e-04   2.7653549e-04   6.2385792e-05   2.0037372e-04   3.0201698e-05  -2.3783896e-05   1.7095566e-05   4.5195656e-04   2.1028002e-04   9.5524578e-05   2.8140692e-04   5.6336855e-04   3.4171939e-04   1.0167287e-04   1.6720982e-04   5.1495928e-04   3.0794967e-05   1.5033568e-04   2.0197943e-04   2.0837586e-04  -9.4695664e-05   4.3227148e-04   1.6898452e-04   1.9760584e-04  -1.1681486e-04  -1.1886704e-04   3.2134350e-05   7.2975934e-07   1.1722409e-05   1.3676869e-04   3.6209277e-04   4.7295456e-05   5.3601473e-04   5.6381122e-04
  -3.2509162e-04  -2.3663840e-04  -1.2525960e-04  -2.6684933e-04  -9.2857081e-05  -2.9895702e-04  -1.2761919e-04   4.4620530e-05   1.5736651e-04   3.2064502e-04   9.6770324e-05   5.2940068e-05  -1.1357129e-05  -4.5534871e-05   1.2963969e-04   2.9239271e-04   2.7743500e-04   1.5634067e-04  -2.7657711e-04  -2.9294793e-05  -2.6469777e-04  -3.4455990e-04  -2.4017278e-04   2.1450904e-04  -8.6382162e-05  -2.6395082e-04   1.0349147e-04   3.7072974e-04   1.4952257e-04  -1.3038571e-04  -3.1263127e-05   3.1807882e-04  -3.7490885e-04  -2.2075749e-04  -5.7737139e-05  -2.0634303e-04  -3.8029300e-04   1.6242280e-04  -1.7294452e-04  -2.4398668e-04  -6.1035651e-04  -3.9563875e-04  -3.2528286e-04  -3.5986103e-04  -2.5163882e-04  -1.2719464e-04   2.9188214e-04  -6.4415326e-05   5.5283745e-04   4.9075548e-04
  -1.4623856e-04   2.2301398e-05   3.0611389e-04   1.7767081e-04   2.6072384e-04   3.3960572e-05   2.6576791e-04   2.0345832e-04   4.8574229e-04   7.2202494e-04   3.2655371e-04   3.9302613e-04   1.9030541e-04   2.5429344e-04   3.0275786e-04   4.2732537e-04   4.6104845e-04   2.5365455e-04   1.4101663e-04   2.0283226e-04   1.5415759e-04   9.3117342e-05   1.7699883e-04   5.4624770e-04   4.6281092e-04   3.0614249e-04   3.3364960e-04   7.2374847e-04   4.2279804e-04   2.4252408e-04   2.5524865e-04   6.3517742e-04   3.7525204e-04   4.3898105e-04   3.9338216e-04   5.2645092e-04   1.3216306e-04   6.1229890e-04   4.9634563e-04   5.9036346e-04   3.8970279e-04   2.7701874e-06   2.9523266e-04   3.5250286e-04   1.2421698e-04   3.6601597e-04   4.7565109e-04   2.5504571e-04   8.2910591e-04   7.6605397e-04
   3.1833106e-04   3.6067909e-04   6.6796434e-04   5.1048596e-04   4.6206472e-04   1.7858247e-04   4.7002724e-04   3.9505138e-04   5.8170425e-04   7.0144894e-04   4.0791847e-04   3.9129998e-04   2.8757140e-04   4.0118207e-04   4.1633286e-04   5.6707585e-04   5.6992768e-04   3.6777279e-04   1.7521842e-04   2.1978619e-04   6.7654364e-05   8.2074002e-05   1.8487485e-04   5.4601696e-04   4.3863177e-04   2.9283558e-04   3.8876451e-04   7.5887563e-04   4.3880986e-04   2.5348988e-04   2.5919569e-04   6.4081681e-04   3.0288057e-04   3.7105102e-04   3.6920083e-04   4.2288209e-04   9.0622903e-05   5.9652620e-04   4.0750887e-04   4.5167902e-04   1.9710574e-04  -5.2247589e-05   1.5703018e-04   2.0469568e-04   8.6693501e-05   2.8388461e-04   4.0934430e-04   1.2077323e-04   6.6913007e-04   5.9386413e-04
  -1.1276760e-04   6.6330558e-06   1.6532170e-04   7.0804599e-05   1.2754271e-04  -9.6948294e-05   1.3152683e-04   2.3493309e-04   3.3936207e-04   3.9888243e-04   2.0506722e-04   1.3670856e-04   1.2319995e-04   1.7898934e-04   2.7909895e-04   4.5279704e-04   4.3712324e-04   2.9284891e-04  -1.2531895e-04   9.5991190e-06  -1.5672433e-04  -2.0604450e-04  -6.8308269e-05   3.2846720e-04   1.4251200e-04  -3.0524778e-05   2.4264742e-04   5.6402321e-04   3.3028339e-04   4.0460836e-05   8.8244313e-05   4.7265607e-04  -1.2991606e-04   1.7007298e-05   1.3936381e-04   5.7267302e-05  -1.9393790e-04   3.6290757e-04   8.1882034e-05   4.9844595e-05  -2.4774589e-04  -3.1183052e-04  -1.9988806e-04  -1.4758017e-04  -1.9912039e-04   1.7246703e-05   2.1811055e-04  -1.6184234e-04   2.5422670e-04   2.8856521e-04
  -5.3575088e-04  -3.9622374e-04  -1.3426969e-04  -2.3769613e-04   1.5500214e-05  -1.8401803e-04   5.5449302e-05   1.2967628e-04   3.7520393e-04   5.7842874e-04   2.2828061e-04   2.8726127e-04   1.7992799e-04   2.4689347e-04   3.0076099e-04   4.7424342e-04   4.9325940e-04   3.1052119e-04   6.5024629e-05   1.4129693e-04   1.0763433e-04   1.8160965e-05   1.7842467e-04   5.6345569e-04   4.7392439e-04   2.9630319e-04   3.5794359e-04   7.7218283e-04   4.8395863e-04   2.5592605e-04   2.6082253e-04   6.4307544e-04   3.3355597e-04   4.3509383e-04   4.1548582e-04   5.3549872e-04   1.5193265e-04   6.5144856e-04   5.4219330e-04   6.3744676e-04   4.7061010e-04   2.6897721e-06   2.7185143e-04   3.6845182e-04   1.7253589e-04   3.5085840e-04   3.9738085e-04   1.6197276e-04   6.6925545e-04   6.3858688e-04
   1.7582807e-04   2.9398597e-04   5.3549645e-04   4.2858158e-04   4.0570955e-04   1.4360125e-04   4.2985973e-04   3.8443151e-04   4.8662673e-04   5.9754134e-04   3.4837733e-04   3.3125532e-04   2.7586648e-04   3.9233352e-04   4.1295387e-04   5.9701432e-04   5.9429137e-04   3.9909460e-04   7.8197940e-05   2.3468786e-04   1.0653101e-04   3.0070609e-05   1.9030948e-04   5.1532313e-04   4.6156463e-04   3.1231774e-04   3.9272089e-04   8.1436383e-04   5.2817434e-04   2.8875281e-04   2.6852352e-04   6.5371831e-04   3.1513523e-04   3.7779086e-04   4.1601935e-04   4.3376940e-04   1.1640022e-04   6.3662301e-04   4.6259869e-04   5.2669225e-04   2.8473916e-04  -7.1920520e-05   1.3367891e-04   2.3417610e-04   1.7668409e-06   2.8452245e-04   2.9681053e-04   1.8631525e-05   5.0325715e-04   5.6030467e-04
  -1.6619774e-04  -6.0127568e-05   1.2611173e-04   6.3249754e-05   1.2282902e-04  -8.3138875e-05   1.3245056e-04   2.2491121e-04   2.2859278e-04   3.2225359e-04   1.7950867e-04   8.4626998e-05   9.3052346e-05   1.6638046e-04   2.8634607e-04   4.4824820e-04   4.6159985e-04   3.0425991e-04  -2.1728432e-04  -2.3836266e-05  -2.0464869e-04  -2.5204537e-04  -4.0367020e-05   2.8284884e-04   1.7375905e-04  -1.0043816e-05   2.5558856e-04   6.2630809e-04   3.5812944e-04   8.3949359e-05   8.3611114e-05   4.6817376e-04  -5.8745285e-05   2.0188170e-05   1.6800710e-04   8.2216444e-05  -1.3900442e-04   4.0623356e-04   1.1960051e-04   1.2267572e-04  -1.7996537e-04  -3.5969491e-04  -2.3812772e-04  -1.5808344e-04  -2.8039998e-04  -3.2727599e-05   7.0955961e-05  -2.2462990e-04   1.2501875e-04   2.4705485e-04
  -5.5858761e-04  -3.7614742e-04  -1.0996631e-04  -1.8594100e-04   4.4648550e-05  -1.2417749e-04   9.7621691e-05   1.1289364e-04   2.7010695e-04   5.3806970e-04   2.1935976e-04   2.5629860e-04   1.5863839e-04   2.2184018e-04   2.9610764e-04   4.6090619e-04   5.0901342e-04   3.0731474e-04   4.4321085e-05   1.6872791e-04   7.1524359e-05  -4.3239488e-06   1.9664638e-04   5.0440180e-04   4.8065060e-04   3.2328369e-04   3.5900233e-04   8.4669248e-04   5.2168895e-04   3.1268003e-04   2.5160596e-04   6.1984884e-04   3.5194610e-04   4.4896567e-04   4.5009336e-04   5.6639715e-04   1.9129373e-04   6.9495128e-04   5.9506641e-04   6.8707991e-04   5.5081223e-04   2.1199219e-05   2.2260414e-04   3.5015983e-04   8.2996623e-05   3.2094409e-04   2.8522898e-04   1.1353233e-04   6.0882326e-04   5.3909817e-04
   1.4686870e-04   2.8959324e-04   5.0103577e-04   4.1178879e-04   3.8998551e-04   1.6387638e-04   4.1639592e-04   3.5162776e-04   4.4117079e-04   5.7318038e-04   3.4288302e-04   2.9768288e-04   2.4094059e-04   3.4387247e-04   3.8831410e-04   5.5125600e-04   5.9264281e-04   3.8529921e-04   3.7848964e-05   1.9423144e-04   9.6137832e-05   1.2920382e-05   2.1795784e-04   4.7173878e-04   4.6054809e-04   3.1210773e-04   3.7961741e-04   8.5643161e-04   5.5751443e-04   3.3543163e-04   2.4247123e-04   6.1976543e-04   3.4550912e-04   3.4816173e-04   4.2852320e-04   4.6964796e-04   1.4816254e-04   6.4183120e-04   5.0837669e-04   5.8114051e-04   3.5847700e-04  -7.7242985e-05   1.0276389e-04   2.0342685e-04  -1.0847261e-04   2.3017054e-04   1.7959723e-04   1.9132283e-05   3.8523355e-04   4.6375062e-04
  -2.0951041e-04  -2.6971311e-05   7.2593364e-05   3.1746498e-05   8.9429959e-05  -8.0173646e-05   1.1960353e-04   1.5743877e-04   1.8408644e-04   3.2094875e-04   1.8272288e-04   7.0494105e-05   5.7178517e-05   9.0938389e-05   2.5124647e-04   3.9092911e-04   4.3281261e-04   2.6699397e-04  -2.3873340e-04  -5.3947366e-05  -1.8065063e-04  -2.5765362e-04  -3.6288555e-05   2.6935589e-04   2.0216833e-04   3.3133656e-06   2.2960857e-04   6.7711418e-04   4.0187468e-04   1.2566266e-04   6.2342093e-05   4.2099986e-04  -1.1318841e-04  -4.9009655e-06   1.9390379e-04   9.0807662e-05  -1.0462293e-04   4.0597620e-04   1.7222122e-04   1.7101377e-04  -9.7858006e-05  -2.8943107e-04  -2.2746810e-04  -1.8620155e-04  -3.7312307e-04  -7.2553390e-05  -5.1859326e-05  -3.0351299e-04   7.0909824e-05   1.9291461e-04
  -5.1361677e-04  -2.7757228e-04  -7.6004282e-05  -1.2766678e-04   7.7043813e-05  -5.9055841e-05   1.2677223e-04   9.1253605e-05   2.9018370e-04   5.7920039e-04   2.4910722e-04   2.6965811e-04   1.4845042e-04   1.8119346e-04   2.9049936e-04   4.0607882e-04   4.9319572e-04   2.9591299e-04   2.4336072e-05   1.8971058e-04   1.3981671e-04   2.6438867e-05   2.3301157e-04   4.6181853e-04   5.4022181e-04   3.4380704e-04   3.5647600e-04   8.8541646e-04   5.4089271e-04   3.7326303e-04   2.5530392e-04   5.9658353e-04   4.0176720e-04   4.4579947e-04   4.9118215e-04   5.9607538e-04   2.6670814e-04   6.8070006e-04   6.7148177e-04   8.1123254e-04   6.7434827e-04   1.0233415e-04   2.9145650e-04   3.6166547e-04  -6.0294504e-05   2.5788142e-04   2.3666940e-04   1.0096502e-04   5.5734417e-04   6.6335505e-04
   2.3425577e-04   3.8524930e-04   5.3833291e-04   4.6947546e-04   4.2033006e-04   2.3094130e-04   4.3905183e-04   3.2770727e-04   4.1163436e-04   6.3479372e-04   3.9340157e-04   3.4027552e-04   2.3854783e-04   3.0320679e-04   3.8344663e-04   4.9339747e-04   5.7520415e-04   3.7708713e-04   5.5048044e-05   2.5558798e-04   1.1738362e-04   5.2707033e-05   2.6463513e-04   4.5515414e-04   5.3276948e-04   3.2492925e-04   3.6919178e-04   9.1838738e-04   5.9968402e-04   3.9823764e-04   2.3985814e-04   6.0187263e-04   3.2399615e-04   3.6100161e-04   4.7973442e-04   4.9865019e-04   1.9975714e-04   6.4406393e-04   5.6482106e-04   6.5634213e-04   4.7516570e-04   1.7141943e-05   1.6076272e-04   2.0415605e-04  -1.4632368e-04   1.3852450e-04   1.4194814e-04  -4.7710306e-05   3.8246383e-04   4.7718099e-04
  -1.1554416e-04   1.4532066e-04   9.3322255e-05   7.0436654e-05   1.0838683e-04  -2.1686810e-05   1.3807043e-04   1.4327101e-04   1.9375522e-04   3.7777307e-04   2.4071550e-04   1.0157317e-04   6.1175691e-05   4.8255490e-05   2.3985730e-04   3.2456324e-04   4.0657408e-04   2.5825942e-04  -2.2182273e-04  -1.3893135e-05  -6.9396832e-05  -2.1091464e-04   2.4834722e-05   2.3830896e-04   2.2533003e-04   1.6255432e-05   2.1961886e-04   6.8837905e-04   4.1747067e-04   1.5259285e-04   5.7843521e-05   4.1034271e-04   2.4422686e-06  -1.8060542e-05   2.2134693e-04   1.2224400e-04  -8.9788271e-05   3.7311556e-04   1.9986155e-04   1.7775073e-04  -2.4514951e-05  -1.5123148e-04  -2.2205384e-04  -2.0182814e-04  -4.2273675e-04  -1.8559664e-04  -6.9991213e-05  -3.5166877e-04  -6.4415384e-05   1.1858565e-04
  -6.7994336e-04  -4.7663116e-04  -5.3858507e-04  -5.6251039e-04  -3.1824730e-04  -4.1153366e-04  -3.1534504e-04  -1.7226594e-04  -2.9070465e-05   3.1649988e-04   3.4130066e-05   3.5706089e-05  -5.5964338e-05  -1.6024799e-04   7.6293676e-05   1.8583474e-04   2.8664028e-04   1.5084581e-04  -1.2903570e-04   6.0084734e-05   7.0340269e-05  -1.0076315e-04   1.2312886e-04   3.7460373e-04   3.8855517e-04   1.7444885e-04   2.3295271e-04   7.6441019e-04   4.5304597e-04   2.6573311e-04   1.4558104e-04   4.8368829e-04   3.0236007e-04   3.2285563e-04   4.1560215e-04   4.8245801e-04   1.7865641e-04   5.4341246e-04   5.7667645e-04   6.6364463e-04   6.3835829e-04   1.5045870e-04   1.5697791e-04   2.7665892e-04  -5.1243442e-05   9.3776776e-05   2.3231708e-04   7.2681185e-05   5.7597418e-04   5.5862591e-04
   3.7133106e-04   5.7571416e-04   5.9236126e-04   5.3372304e-04   4.2788990e-04   2.4671128e-04   4.4589199e-04   2.9972574e-04   4.8054027e-04   6.6833518e-04   4.4715728e-04   3.7063510e-04   2.1243778e-04   2.2710981e-04   3.3943207e-04   3.9041002e-04   5.1319163e-04   2.9557722e-04   5.5417157e-05   2.3492659e-04   2.1983837e-04   1.1002661e-04   2.8092760e-04   4.4212810e-04   5.5953715e-04   3.2779085e-04   3.4404136e-04   8.9514552e-04   5.4205587e-04   3.9881794e-04   2.1369495e-04   5.5322249e-04   3.1672302e-04   4.0230429e-04   4.8943737e-04   5.2922993e-04   2.3067846e-04   5.8152899e-04   6.0041033e-04   6.5277849e-04   5.6139892e-04   1.4362046e-04   1.7399322e-04   2.0882580e-04  -7.5283700e-05   7.8141231e-05   1.9848353e-04  -1.8872426e-05   4.7601864e-04   4.4531812e-04
   8.6762120e-05   3.3462138e-04   2.6626315e-04   2.4573726e-04   2.0960982e-04   8.1825361e-05   2.2972487e-04   1.7372175e-04   3.5033331e-04   4.8289075e-04   3.3998856e-04   2.1257377e-04   1.0788952e-04   9.8287761e-05   2.6727666e-04   2.9771618e-04   4.1626635e-04   2.3006834e-04  -1.3084497e-04   5.7076133e-05  -2.4082890e-05  -8.4749838e-05   1.0546127e-04   2.6132443e-04   2.8553908e-04   7.5013922e-05   2.3039059e-04   7.1249041e-04   4.2034572e-04   2.0915025e-04   7.3923213e-05   3.8962872e-04   4.9967879e-05   8.0417580e-05   2.6734028e-04   1.8938475e-04  -3.9120314e-05   3.4080492e-04   2.5599086e-04   2.3354472e-04   6.7834284e-05  -4.8505721e-05  -1.6160781e-04  -1.6981087e-04  -3.5348092e-04  -1.8652748e-04   3.5292000e-05  -2.5645076e-04   1.9173234e-04   1.5561808e-04
  -5.0984556e-04  -2.7122360e-04  -3.8035307e-04  -3.9322485e-04  -2.2205082e-04  -3.1209810e-04  -2.2325736e-04  -1.2227401e-04   5.3709915e-05   1.8671683e-04   1.0041516e-04  -5.1970317e-05  -1.2587772e-04  -2.2589637e-04   6.1142098e-05   8.2495848e-05   2.0385282e-04   7.7978788e-05  -4.3271680e-04  -2.3847717e-04  -2.4208092e-04  -4.1572374e-04  -1.6271388e-04   2.3403896e-05  -4.5920540e-05  -3.2407444e-04   2.3966004e-05   4.6581693e-04   1.3863396e-04  -5.1667299e-05  -1.5255854e-04   1.6348073e-04  -3.6859981e-04  -3.1473607e-04  -2.3466051e-05  -2.3520630e-04  -3.3869571e-04   3.7784761e-05  -1.1648347e-04  -2.0523358e-04  -2.6638666e-04  -2.1471811e-04  -3.6641283e-04  -3.7101380e-04  -3.8870246e-04  -3.9669644e-04   2.5801779e-05  -2.3816634e-04   3.6593949e-04   3.1448875e-04
  -8.3362371e-05   2.2527647e-04   2.5229651e-04   2.1259136e-04   2.2271818e-04   7.3554053e-05   2.3692921e-04   6.8939276e-05   3.8374341e-04   6.1486621e-04   3.4707147e-04   3.2226118e-04   8.7650864e-05   5.6974666e-05   2.1167297e-04   1.7670992e-04   3.5969782e-04   1.4146163e-04   5.2147021e-05   1.9451459e-04   2.2292293e-04   7.9948899e-05   2.3348848e-04   4.0208414e-04   4.5671291e-04   2.3776155e-04   2.2406604e-04   7.8142236e-04   3.7895568e-04   3.2139497e-04   1.1057211e-04   4.2323925e-04   3.3364372e-04   3.4884259e-04   4.0740549e-04   4.4274805e-04   1.6978498e-04   3.9557478e-04   5.4415874e-04   5.5116898e-04   5.0647761e-04   1.7013024e-04   1.1485178e-04   1.7753830e-04  -4.8863785e-05  -6.6432010e-05   2.0295838e-04  -9.5945586e-07   5.7475647e-04   4.7156290e-04
   2.1536418e-04   4.8433221e-04   4.5995417e-04   4.0728855e-04   3.3435156e-04   1.7251167e-04   3.3556248e-04   1.8863018e-04   4.9439777e-04   6.0116837e-04   4.2307758e-04   3.3011290e-04   1.3972569e-04   1.1557702e-04   2.6745434e-04   2.3497695e-04   3.8828506e-04   1.7766205e-04   1.9411835e-05   1.5229873e-04   1.9474684e-04   6.0670605e-05   1.7804213e-04   3.7144686e-04   4.0380549e-04   1.7365284e-04   2.2069988e-04   7.2586193e-04   3.2950708e-04   2.6905566e-04   8.3822284e-05   3.6813499e-04   2.4757898e-04   2.2195405e-04   3.2567070e-04   3.0145593e-04   6.3126681e-05   3.0393567e-04   3.5488419e-04   3.5606121e-04   2.5634884e-04   2.9395180e-05   1.7648854e-06  -2.8335880e-05  -2.5022277e-04  -1.4123388e-04   7.7261851e-05  -1.1312209e-04   3.6940555e-04   3.0011602e-04
  -2.7812886e-04   3.1411237e-05  -9.2817172e-05  -1.1103971e-04  -5.6812529e-05  -1.5400210e-04  -5.3504144e-05  -5.0099530e-05   1.9157321e-04   2.9858120e-04   2.0529940e-04   5.1856405e-05  -6.1464438e-05  -1.5443881e-04   1.0105337e-04   5.8782094e-05   2.1234229e-04   5.8623329e-05  -2.6886776e-04  -1.2199766e-04  -1.5736208e-04  -2.4332112e-04  -8.2236089e-05   1.4942179e-04   3.1893163e-05  -1.9820950e-04   5.2307045e-05   4.9801136e-04   1.6323860e-04   1.7222939e-05  -1.0285355e-04   1.8322088e-04  -1.4779752e-04  -1.6396451e-04   6.3008454e-05  -9.3928436e-05  -2.4170456e-04   2.4519755e-05  -1.4213158e-05  -1.0161849e-04  -2.6765862e-04  -1.7231956e-04  -3.1932537e-04  -4.1137740e-04  -4.9635390e-04  -4.6237023e-04  -7.8537843e-05  -4.3614098e-04   8.5858475e-05   3.1927596e-06
  -8.5125305e-04  -5.1241508e-04  -7.2189426e-04  -7.3854451e-04  -4.8302888e-04  -5.5375317e-04  -5.1448157e-04  -3.5719617e-04  -1.2845109e-04   7.7922768e-06  -5.6613386e-05  -2.3154827e-04  -3.1153744e-04  -4.7932277e-04  -1.2628410e-04  -1.7852630e-04  -1.6371609e-05  -1.0339846e-04  -4.4640689e-04  -2.7203409e-04  -2.1214537e-04  -3.7147105e-04  -1.7893493e-04   1.2880990e-04  -8.5375686e-06  -2.8332730e-04  -4.1718329e-05   3.9796735e-04   5.0129220e-05  -5.4411692e-05  -1.2500328e-04   1.2554809e-04  -6.6061971e-06   1.7999408e-05   1.2992824e-04   1.5143478e-04  -9.1058871e-05   8.7859640e-05   2.6370271e-04   2.6901602e-04   3.7695421e-04   3.5355937e-05   3.9733717e-05   3.6309604e-05  -1.1062433e-04  -2.1448100e-04   1.2418602e-04  -8.5575535e-05   5.8662303e-04   3.4052477e-04
   4.8417391e-05   3.5286706e-04   3.2743497e-04   2.7355293e-04   2.1385266e-04   7.3841744e-05   2.1099388e-04   5.6772642e-06   4.0589343e-04   5.1071297e-04   3.1892952e-04   2.2972094e-04   1.0056686e-05  -6.0702434e-05   1.4425162e-04   1.7233751e-05   2.2445479e-04   2.7766964e-05  -5.0102226e-05   4.1594569e-05   1.2373911e-04  -4.9887503e-06   9.2432470e-05   3.2503688e-04   2.8372277e-04   6.4491906e-05   9.9940051e-05   6.0453266e-04   1.7819768e-04   1.7998071e-04  -7.3883275e-06   2.3908279e-04   1.5551221e-04   1.9059326e-04   2.5258242e-04   2.7673761e-04   9.3274484e-06   1.4669061e-04   3.3257954e-04   3.2289189e-04   3.3348246e-04   7.1844253e-05   9.0074260e-05   1.6452652e-05  -1.5347080e-04  -2.1254776e-04   1.4197271e-04  -8.3594772e-05   4.1756302e-04   3.1219728e-04
  -1.6566893e-04   1.5116863e-04   7.5201642e-05   4.5328889e-05   2.2385168e-05  -8.5589680e-05   2.1630140e-05  -6.4418775e-05   2.8403581e-04   3.5017598e-04   2.3067558e-04   8.3299063e-05  -7.1187824e-05  -1.5300055e-04   7.8293138e-05  -4.2250955e-05   1.4120979e-04  -4.8870629e-06  -2.1387878e-04  -9.7537973e-05  -4.8011087e-05  -1.7763978e-04  -6.5196982e-05   1.2010209e-04   8.5797234e-05  -1.5096576e-04   9.6170697e-06   4.5544244e-04   1.3178001e-04   2.0210782e-05  -1.2294548e-04   1.3990943e-04  -1.4640807e-04  -7.8108620e-05   7.3317671e-05  -3.9898892e-05  -2.1889096e-04  -4.6808829e-05   1.5444639e-05  -6.9283175e-05  -1.7548913e-04  -1.2333567e-04  -2.1795936e-04  -3.3708740e-04  -3.6276865e-04  -4.7208479e-04  -1.1088074e-06  -3.3973984e-04   1.6827066e-04   6.3654014e-05
  -7.5417082e-04  -3.7433428e-04  -5.5789092e-04  -5.8685621e-04  -3.9600322e-04  -4.6240693e-04  -4.2277155e-04  -3.4363425e-04  -4.6842855e-05   5.0966886e-05  -1.3818258e-05  -1.8901237e-04  -2.9718055e-04  -4.6693007e-04  -1.2204247e-04  -2.4353342e-04  -6.2676700e-05  -1.4475234e-04  -5.1709992e-04  -4.0382775e-04  -3.7563258e-04  -4.8315522e-04  -3.2016970e-04  -5.2514344e-05  -2.7330976e-04  -5.2892754e-04  -1.8908268e-04   2.1131677e-04  -1.3755819e-04  -2.3620971e-04  -3.3594586e-04  -5.7374138e-05  -5.6146411e-04  -4.7496011e-04  -2.1022851e-04  -4.5991884e-04  -5.2263669e-04  -3.2744932e-04  -3.5470937e-04  -4.9146812e-04  -3.7724481e-04  -2.1592878e-04  -3.8201548e-04  -4.8491202e-04  -4.3224660e-04  -5.9930451e-04   3.2887820e-05  -2.9978924e-04   3.9556168e-04   1.4650777e-04
  -3.3439189e-04   1.6281469e-05   2.0894766e-05  -4.5795303e-05  -1.0417731e-05  -1.2402576e-04  -1.5433010e-05  -1.8109463e-04   2.9313052e-04   4.0858315e-04   1.9510693e-04   1.2105372e-04  -1.0075936e-04  -2.1703872e-04   5.9954828e-06  -1.6285091e-04   6.4895314e-05  -9.3713134e-05  -1.1938538e-04  -5.1343639e-05  -5.7577115e-08  -9.1184054e-05  -3.5877416e-05   2.2360063e-04   9.2538612e-05  -6.6639026e-05  -2.7355414e-05   4.2732173e-04  -4.9798664e-06   4.1071766e-05  -1.3136253e-04   1.2122952e-04   2.3181716e-05   5.3637461e-05   8.4843850e-05   7.3351162e-05  -1.6877583e-04  -7.2299939e-05   1.2728843e-04   4.6889272e-05   1.3908106e-04   3.4992216e-05  -5.0012986e-05  -1.4183369e-04  -2.1341605e-04  -3.8129196e-04   1.1870720e-04  -2.2281316e-04   4.9668585e-04   2.0695099e-04
  -2.8977316e-04   6.4682899e-05   2.2894177e-05  -5.1238414e-05  -4.4334429e-05  -1.4726579e-04  -5.8907655e-05  -1.4741588e-04   2.9433396e-04   3.2152954e-04   1.7713255e-04   5.2138937e-05  -1.2012364e-04  -2.3264489e-04   1.3942641e-05  -1.6114939e-04   3.8776474e-05  -1.0407401e-04  -2.4138139e-04  -9.4190043e-05  -7.6160395e-05  -1.8537964e-04  -1.1070354e-04   1.1703942e-04  -2.0870377e-05  -2.0417453e-04  -9.0850750e-05   3.3334715e-04  -3.4995646e-05  -4.8214471e-05  -1.9568259e-04   7.6129611e-05  -1.6049690e-04  -1.0752055e-04  -1.7070955e-05  -9.2854018e-05  -2.9230554e-04  -1.6693129e-04  -5.3003263e-05  -1.4020357e-04  -1.6712221e-04  -9.6305681e-05  -2.3710432e-04  -3.5315906e-04  -4.3861233e-04  -4.6567208e-04  -2.3020313e-05  -3.3492869e-04   2.0719958e-04   5.9516900e-05
  -8.0005964e-04  -3.8704943e-04  -5.6435168e-04  -6.0950103e-04  -4.3693793e-04  -4.8842636e-04  -4.7182842e-04  -4.0820538e-04  -2.5066978e-05   1.5622432e-05  -4.6667057e-05  -2.1480741e-04  -3.2511709e-04  -5.3142320e-04  -1.7515209e-04  -3.4123854e-04  -1.3759613e-04  -2.1129788e-04  -5.5021106e-04  -3.9194751e-04  -3.5365351e-04  -5.0946214e-04  -3.6872437e-04  -1.3560278e-04  -3.6191332e-04  -5.6335528e-04  -2.4698285e-04   1.0382471e-04  -1.9433237e-04  -2.8675635e-04  -3.7217382e-04  -1.1398651e-04  -5.7525054e-04  -4.9161230e-04  -2.5056693e-04  -4.1495761e-04  -5.3881743e-04  -3.6540141e-04  -3.0281668e-04  -3.6674846e-04  -6.4052801e-05  -9.7755219e-05  -1.4516473e-04  -2.6745343e-04  -3.0247489e-04  -4.3160419e-04   9.3914881e-05  -1.4050475e-04   3.9485723e-04   2.2386666e-04
  -2.5208673e-04   1.2489024e-04   8.9574649e-05   1.3096526e-06  -2.7411381e-06  -9.8018194e-05  -2.2919188e-05  -1.9152778e-04   3.1631364e-04   4.1450743e-04   2.0346610e-04   1.1983290e-04  -8.2715233e-05  -2.1863911e-04   1.0279414e-05  -1.9891936e-04   2.5986439e-05  -1.1601806e-04  -1.1256050e-04  -5.3039090e-05  -3.5713219e-05  -8.2320097e-05  -2.0404161e-05   2.1786545e-04   7.2186900e-05  -9.0859685e-05  -8.3998981e-05   3.6285794e-04  -4.2328738e-06   1.6279651e-05  -1.3895337e-04   9.0063339e-05   9.2723658e-06   4.1227602e-05   4.8449445e-05   4.9153488e-05  -1.8157221e-04  -1.1220788e-04   8.4194086e-05   4.6101159e-05   1.7157382e-04   3.0723550e-05   4.8210331e-05  -9.8419514e-05  -1.4532509e-04  -2.9846278e-04   1.4203518e-04  -1.3350599e-04   4.7750495e-04   2.6115100e-04
  -3.1212016e-04   5.6053752e-05  -1.2758585e-05  -1.0765778e-04  -8.5250205e-05  -1.6103833e-04  -1.1862590e-04  -2.1156913e-04   2.4907498e-04   2.9756664e-04   1.6342840e-04   1.5206124e-05  -1.1396400e-04  -2.6853272e-04  -8.8806119e-06  -2.0086592e-04  -4.6238824e-06  -1.1031502e-04  -2.3741856e-04  -1.9136748e-04  -8.1557118e-05  -2.2148952e-04  -1.4605415e-04   5.0996976e-05  -5.7203786e-05  -2.4484677e-04  -1.1757105e-04   2.8331365e-04  -6.7296533e-05  -8.8672969e-05  -2.0274293e-04   3.6448546e-05  -2.2752701e-04  -1.5047898e-04  -6.7629720e-05  -1.5080966e-04  -3.4174541e-04  -2.1646374e-04  -1.1174066e-04  -2.2294284e-04  -2.2899479e-04  -1.4034673e-04  -1.6406400e-04  -3.7265013e-04  -4.1557322e-04  -4.3687451e-04  -2.0719090e-05  -2.9557251e-04   1.7991390e-04   8.2262166e-05
  -8.8082778e-04  -4.8554552e-04  -6.6268101e-04  -7.3477178e-04  -5.1657791e-04  -5.3550722e-04  -5.7734933e-04  -4.7425603e-04  -7.5317650e-05  -1.4327998e-05  -7.9476478e-05  -2.7322746e-04  -3.2903196e-04  -5.7784613e-04  -1.8984643e-04  -3.7881348e-04  -1.8922510e-04  -2.1367231e-04  -5.4604036e-04  -3.8658155e-04  -3.5960157e-04  -4.7190287e-04  -3.3819609e-04  -6.1679646e-05  -3.0156711e-04  -5.1500130e-04  -2.5041052e-04   1.0855780e-04  -1.8142640e-04  -2.6516514e-04  -2.5270888e-04  -2.9914392e-05  -2.7870538e-04  -1.9473706e-04  -8.7478671e-05  -6.8623667e-05  -3.3303420e-04  -1.8426879e-04   1.3569052e-05  -2.7160388e-05   2.5611633e-04   1.1323315e-04   1.0557329e-04  -4.7908670e-05  -1.4101321e-04  -2.4249831e-04   1.6582652e-04  -2.0660838e-05   5.9965480e-04   3.6056989e-04
  -1.0162087e-04   2.5376980e-04   2.2756508e-04   1.0941035e-04   8.1202365e-05   1.0377541e-05   4.9249364e-05  -1.3008146e-04   4.1842504e-04   4.9311842e-04   2.6735221e-04   1.8041706e-04   9.6496615e-06  -1.6283483e-04   7.7311211e-05  -1.5963890e-04   6.4616877e-05  -4.1647603e-05  -8.6813830e-05  -4.1158186e-05   9.5802490e-05  -4.4717843e-05   6.5384420e-06   1.9270767e-04   1.0593046e-04  -2.7139224e-05  -6.2697713e-05   3.6320667e-04   5.9640617e-05   3.1972249e-05  -8.8169647e-05   1.5445502e-04  -1.4148840e-05   7.9309873e-05   9.1352493e-05   7.5899952e-05  -1.5326210e-04  -4.1039140e-05   1.5226079e-04   1.2395575e-04   2.5390420e-04   1.5171705e-04   1.7750420e-04  -1.2635089e-05  -9.8689969e-05  -1.7999492e-04   1.9933279e-04   3.2526073e-05   4.3812877e-04   3.9170432e-04
  -2.5322763e-04   5.2948337e-05  -6.2009099e-06  -1.0680496e-04  -8.7213491e-05  -1.2053827e-04  -1.2703828e-04  -1.7257138e-04   2.7672312e-04   3.3487525e-04   1.7941641e-04   4.0060248e-05  -4.1575837e-05  -2.4863973e-04   4.4323704e-05  -1.6725322e-04   1.8238670e-05  -5.0561121e-05  -2.4091212e-04  -9.5733245e-05  -1.0031393e-04  -1.9463261e-04  -1.3725550e-04   6.4292748e-05  -6.6454217e-05  -2.1931644e-04  -1.1738195e-04   2.5849446e-04  -2.8217491e-05  -1.0099092e-04  -1.5111572e-04   7.6094773e-05  -2.2644288e-04  -1.7006298e-04  -7.1093615e-05  -1.9656841e-04  -3.8456148e-04  -1.7920742e-04  -1.3824398e-04  -2.3952547e-04  -2.4429412e-04  -9.3948525e-05  -1.6448184e-04  -3.7266724e-04  -3.7767779e-04  -3.9510831e-04  -3.5117864e-05  -2.2307440e-04   1.6814667e-04   7.2010771e-05
  -8.3957956e-04  -5.2461424e-04  -6.9006887e-04  -7.9408113e-04  -5.2371738e-04  -5.1968649e-04  -6.0204061e-04  -4.6365042e-04  -1.0616708e-04   2.1270855e-05  -7.6492994e-05  -2.5443215e-04  -2.7335621e-04  -5.5972888e-04  -1.6678622e-04  -3.4463423e-04  -1.6802760e-04  -1.6332492e-04  -5.8443291e-04  -4.1601979e-04  -3.6165744e-04  -5.2236154e-04  -4.1205788e-04  -1.2772469e-04  -3.6014436e-04  -5.8896240e-04  -2.5458174e-04   5.3174834e-05  -2.0481001e-04  -3.1863264e-04  -2.5894339e-04  -4.8461949e-05  -3.4243145e-04  -3.1279420e-04  -1.5530021e-04  -1.7092052e-04  -4.1179580e-04  -1.7580150e-04  -4.4885819e-05  -5.4591397e-05   2.6862195e-04   1.0818645e-04   1.3378095e-04  -3.3969129e-05  -1.2471862e-04  -1.7205661e-04   1.4560048e-04   7.9547695e-05   5.6988740e-04   3.7407555e-04
  -3.1978183e-05   2.6980630e-04   2.4938391e-04   1.2710136e-04   1.0813844e-04   5.7568315e-05   5.9420694e-05  -1.1519920e-04   4.2014921e-04   5.9375679e-04   2.9559791e-04   2.4765346e-04   8.5888823e-05  -1.2127742e-04   1.2650718e-04  -9.7945434e-05   1.0841655e-04   2.9457182e-05  -1.2056508e-06   1.7820259e-05   1.7166279e-04   1.8853207e-05   3.7875649e-05   2.3003051e-04   1.5889191e-04   6.1785729e-05  -2.5321620e-05   3.9664016e-04   9.9639517e-05   6.5354980e-05  -1.4681117e-05   2.1203166e-04   1.0583577e-04   1.3735631e-04   1.1145302e-04   1.3025748e-04  -1.3494866e-04   3.7055925e-05   2.0430112e-04   1.9140642e-04   3.5759466e-04   1.8718652e-04   2.8286618e-04   4.5230874e-05  -3.4895205e-05  -5.3570664e-05   2.1891405e-04   1.0003477e-04   5.7611300e-04   3.5270141e-04
  -9.0560250e-05   2.0688328e-04   1.0141724e-04  -1.4307615e-06   9.6217618e-06  -3.5707868e-05  -6.1536353e-05  -1.1671603e-04   3.8038948e-04   4.7540321e-04   2.4613776e-04   1.2613916e-04   6.6613356e-05  -1.5216187e-04   1.2233712e-04  -6.6546767e-05   7.8486504e-05   5.3213880e-05  -1.2051872e-04  -5.4286917e-05  -3.5307491e-07  -1.1286685e-04  -9.4593670e-05   1.5803843e-04  -2.4281853e-06  -1.1590980e-04  -5.8573529e-05   2.9121272e-04   7.2413270e-05  -6.3481661e-05  -8.1009770e-05   1.5890709e-04  -1.8026975e-04  -8.2281964e-05  -2.9548337e-05  -1.2503321e-04  -3.2447817e-04  -1.0732959e-04  -6.8355657e-05  -1.8372486e-04  -1.4490577e-04  -1.7362245e-05  -7.3517287e-05  -2.9647228e-04  -2.6119387e-04  -3.0088503e-04   5.5298489e-05  -2.0592887e-04   1.3219830e-04   1.9737898e-05
  -6.8060402e-04  -4.0630210e-04  -5.7749089e-04  -6.7214831e-04  -4.1907807e-04  -4.4042719e-04  -5.1752554e-04  -3.6434628e-04   2.2165108e-05   1.7018849e-04   7.7815557e-06  -1.3983664e-04  -1.5495290e-04  -4.4633306e-04  -9.4055547e-05  -2.2812508e-04  -9.2225644e-05  -6.3106498e-05  -4.5844627e-04  -3.0164418e-04  -3.2785471e-04  -4.6515648e-04  -3.6816660e-04  -1.1183829e-04  -3.5173658e-04  -5.3549156e-04  -2.1731715e-04   5.2690139e-05  -1.1466418e-04  -3.3016436e-04  -2.8105898e-04  -4.4595221e-05  -6.1338127e-04  -5.1098911e-04  -3.2846560e-04  -5.8382476e-04  -6.4258196e-04  -3.5478830e-04  -4.7595269e-04  -6.8564242e-04  -6.9252250e-04  -2.6888505e-04  -4.6044146e-04  -6.7328446e-04  -4.3275405e-04  -5.7847571e-04   1.1291214e-05  -2.9711513e-04   1.6997303e-04   6.6093571e-06
  -4.7924134e-04  -1.2770457e-04  -1.2021304e-04  -2.1271475e-04  -8.5555934e-05  -1.2952404e-04  -1.4750534e-04  -2.0466853e-04   3.7028326e-04   5.9512572e-04   2.2447597e-04   2.1885686e-04   3.7349040e-05  -1.8648902e-04   4.5710280e-05  -1.0980289e-04   5.4865301e-05  -9.7836084e-07  -1.7002247e-05  -2.2803602e-05   8.0300961e-05  -2.3421688e-05  -2.4759996e-05   2.1550525e-04   1.2191532e-04   6.0300963e-06  -2.3628301e-05   3.3416352e-04   1.0864010e-04   7.2690113e-06  -3.7222148e-05   1.7897021e-04   4.0205927e-05   1.0533760e-04   4.3173692e-05   7.7332021e-05  -1.8385262e-04  -7.3911615e-06   1.6009333e-04   8.0680024e-05   2.4555027e-04   9.8648808e-05   1.3456109e-04  -3.6286663e-05  -6.2439103e-05  -1.1761238e-04   1.6911220e-04  -1.9417055e-05   3.9793376e-04   2.0799517e-04
  -9.8678691e-05   1.8527340e-04   1.2361781e-04   3.4332929e-06   6.3985630e-05  -1.3684651e-05  -8.7836161e-06  -6.8558104e-05   3.7783920e-04   5.7681237e-04   2.6307165e-04   2.1592645e-04   8.4344945e-05  -1.0459671e-04   1.0142641e-04  -2.4057994e-05   9.9898411e-05   7.6054646e-05  -1.1557621e-04   4.2336133e-06   3.8433966e-05  -7.2353811e-05  -7.2663279e-05   2.0153358e-04   3.3737713e-05  -6.1624334e-05  -2.3261442e-05   2.9960208e-04   8.4383159e-05  -1.6504591e-05  -5.9962997e-05   1.4937375e-04  -1.0006077e-04  -1.4009555e-05  -1.2781708e-05  -7.7125442e-05  -2.6687639e-04  -3.5349163e-05   5.6893759e-06  -1.0301726e-04  -2.2085007e-05  -2.5784977e-05  -5.6148067e-05  -2.4610682e-04  -2.5938079e-04  -2.3438637e-04   7.2129063e-05  -1.8575817e-04   2.0072928e-04   2.4160412e-05
  -5.3172547e-04  -2.3066296e-04  -4.2046898e-04  -5.0651655e-04  -3.0469830e-04  -3.4147184e-04  -3.8579368e-04  -2.7779274e-04   1.1335078e-04   2.9028556e-04   6.1970291e-05  -5.2097486e-05  -1.1142479e-04  -3.4716330e-04  -5.7500984e-05  -1.4498418e-04  -5.8214311e-05  -1.8272243e-05  -3.9341795e-04  -2.5630032e-04  -2.7016582e-04  -3.9513028e-04  -3.5431510e-04  -3.4804725e-05  -2.8132086e-04  -4.3949109e-04  -1.4042413e-04   7.1038121e-05  -8.7633933e-05  -2.6674487e-04  -2.4160366e-04  -8.9380665e-06  -5.3289597e-04  -4.1920427e-04  -2.9857454e-04  -4.8693872e-04  -5.9303583e-04  -2.9100821e-04  -4.0043963e-04  -6.1232515e-04  -6.0553889e-04  -2.5615882e-04  -4.3979252e-04  -6.6990877e-04  -5.0948438e-04  -5.8057054e-04  -5.9163140e-05  -4.6265143e-04   4.7157548e-05  -1.6506194e-04
  -5.8800029e-04  -2.9329699e-04  -2.3121458e-04  -3.2857509e-04  -1.1770050e-04  -1.8813851e-04  -1.8313184e-04  -2.1023244e-04   3.7568979e-04   6.0682255e-04   1.9319418e-04   2.1681821e-04   1.9120389e-05  -1.6941609e-04   1.7644332e-05  -8.4921063e-05   3.7768885e-05   9.4238267e-06  -9.5119583e-05  -1.4533752e-04   6.6221262e-05  -7.6404904e-05  -7.3059171e-05   2.5358744e-04   6.5919499e-05  -3.3137141e-05  -3.1691499e-05   2.5786317e-04   9.5343872e-05  -1.3440118e-05  -5.6356883e-05   1.4184287e-04  -5.6241479e-05   5.4789853e-05  -2.2709073e-05   4.4896275e-05  -2.2208069e-04   1.2404696e-05   1.1075053e-04  -3.3559168e-06   1.5611621e-04  -1.5247669e-05   2.9227211e-05  -1.5034988e-04  -2.1373482e-04  -2.2998199e-04   8.7618486e-05  -1.4613991e-04   2.0868462e-04   3.6533590e-06
  -2.0598920e-04   5.1428051e-05   1.0510182e-05  -1.2040601e-04  -7.0988767e-06  -9.6057673e-05  -1.0035369e-04  -1.0265362e-04   2.7832601e-04   5.4413493e-04   1.9374346e-04   1.9849588e-04   2.0294465e-05  -1.5538446e-04   4.0401381e-05  -3.0651965e-05   4.7013920e-05   5.3123029e-05  -1.8832590e-04  -1.6174449e-04  -4.8668498e-05  -1.3986503e-04  -1.4399225e-04   1.7461568e-04   9.9641238e-06  -1.0642017e-04  -4.3528697e-05   2.3355419e-04   8.6689513e-05  -3.6147601e-05  -1.0724464e-04   9.0451998e-05  -1.9502614e-04  -9.5768140e-05  -7.6089585e-05  -9.5790914e-05  -3.0146088e-04  -5.4301592e-05  -2.2974325e-05  -1.4271266e-04  -6.9703645e-05  -1.3164831e-04  -1.4008432e-04  -3.0549132e-04  -3.3154344e-04  -3.1391895e-04  -3.0411935e-05  -2.1988420e-04   1.6847624e-06  -9.2634720e-05
  -6.3518528e-04  -3.9413810e-04  -4.9051235e-04  -5.8467762e-04  -3.3537933e-04  -3.9004037e-04  -4.4454422e-04  -2.9135827e-04  -1.5912625e-05   2.6860961e-04  -8.5627726e-06  -6.6674700e-05  -1.8473854e-04  -4.0550044e-04  -1.1213362e-04  -1.7979083e-04  -1.1507310e-04  -6.2272855e-05  -5.0646352e-04  -4.1617599e-04  -3.0659320e-04  -4.7051389e-04  -4.0304841e-04  -1.3390822e-04  -3.0695496e-04  -4.5513746e-04  -1.9784480e-04   4.0075793e-05  -1.0869790e-04  -2.5942468e-04  -2.8362122e-04  -8.9220244e-05  -5.6652812e-04  -4.8109441e-04  -3.1926285e-04  -4.8362752e-04  -5.7752192e-04  -2.8049067e-04  -3.6846305e-04  -5.6924857e-04  -3.7303005e-04  -2.4809333e-04  -3.1779546e-04  -4.9870560e-04  -4.1447135e-04  -4.5945312e-04  -8.0562750e-05  -2.3940536e-04   4.5091139e-05  -6.4706028e-06
  -2.9163717e-04  -4.5053312e-06   2.7238702e-05  -9.8858749e-05   3.0530475e-05  -5.7041299e-05  -5.7292858e-05  -1.3490744e-04   2.5280836e-04   6.2769890e-04   1.7818389e-04   2.5918952e-04  -1.8871195e-05  -1.8007960e-04   2.2770806e-05  -8.5807216e-05   1.9795925e-05   2.0937088e-05  -1.3454414e-04  -1.3906075e-04   4.9549522e-05  -8.4431122e-05  -7.3442898e-05   2.4465646e-04   8.9644265e-05   2.8271712e-05  -3.4469453e-05   2.9021379e-04   1.2122238e-04   6.9658599e-05  -8.0402147e-05   1.1896741e-04  -3.1120537e-05   5.2616317e-05   1.5714890e-05   6.9430564e-05  -1.6082318e-04   5.1689916e-05   1.7836914e-04   8.7006440e-05   2.7387543e-04  -5.4886990e-05   9.4693598e-05  -1.0929142e-04  -2.4748780e-04  -1.6447218e-04  -5.1914772e-06  -1.0990570e-04   8.9152716e-05   6.7210072e-05
  -1.9113331e-04   7.3375792e-05   3.6431149e-05  -9.3418923e-05   2.6267477e-05  -5.6297038e-05  -6.4422449e-05  -8.9868394e-05   1.7422538e-04   5.4740615e-04   1.6799942e-04   1.9880301e-04  -4.2285283e-05  -2.0071903e-04   2.9320096e-05  -5.9379901e-05  -4.0094719e-06   3.5591900e-05  -2.5104245e-04  -2.0310342e-04  -5.0603077e-05  -1.9250020e-04  -1.6797231e-04   1.6141716e-04   2.0838431e-06  -8.5590174e-05  -5.6948003e-05   2.6095484e-04   1.0250100e-04   7.4330428e-06  -1.3625645e-04   6.5974309e-05  -2.3786489e-04  -1.0586124e-04  -7.4111413e-05  -9.4624047e-05  -2.7855390e-04  -1.6719424e-06   1.8437513e-05  -9.1211885e-05  -2.9186553e-05  -1.6555110e-04  -1.1889026e-04  -3.2483324e-04  -4.2677030e-04  -3.0983257e-04  -1.6811281e-04  -3.0272719e-04  -1.9024506e-04  -1.1556642e-04
  -6.9221796e-04  -3.9377096e-04  -5.5449491e-04  -6.3501764e-04  -3.6063322e-04  -4.0817249e-04  -4.8269387e-04  -3.3646109e-04  -1.2154685e-04   2.4172394e-04  -5.2649233e-05  -8.4533916e-05  -2.6633652e-04  -4.7269912e-04  -1.4902647e-04  -2.2295871e-04  -1.8099335e-04  -7.6089513e-05  -5.5679906e-04  -4.4334569e-04  -3.0210058e-04  -4.9089990e-04  -4.0816309e-04   8.9981368e-06  -2.6290791e-04  -3.8657599e-04  -1.8097478e-04   8.5421350e-05  -2.0099154e-05  -1.7951733e-04  -2.2286794e-04  -4.2347878e-05  -2.9775276e-04  -1.9747978e-04  -1.1647865e-04  -3.5274428e-05  -2.9444435e-04   4.2423444e-06   9.9832141e-05   4.7727066e-05   3.9369342e-04  -3.9804348e-05   9.6816198e-05  -3.3690580e-05  -2.5482211e-04  -1.8303677e-04  -3.2715994e-05  -2.7397857e-06   1.1054127e-04   1.4095315e-04
   7.4728755e-06   2.8602110e-04   2.7355633e-04   1.3748236e-04   2.0634053e-04   8.9697845e-05   8.9879999e-05  -2.2075715e-06   2.5905977e-04   6.9440226e-04   2.5594069e-04   3.3115424e-04   2.0571513e-05  -9.1586386e-05   9.0185058e-05  -1.8682204e-06   5.2881067e-05   7.2032824e-05  -1.2733268e-04  -8.5298161e-05   1.0281464e-04  -4.5083114e-05  -2.8697455e-05   2.3600105e-04   1.3357410e-04   1.0216287e-04   6.6053071e-06   3.7879025e-04   2.1106291e-04   1.4521112e-04  -4.3347005e-05   1.4378627e-04  -1.6530987e-05   1.0515375e-04   8.5791406e-05   1.6600294e-04  -6.5314074e-05   1.7305625e-04   2.8945075e-04   2.1208836e-04   4.0032086e-04   4.4776157e-06   1.8194632e-04  -5.6641252e-06  -2.3954165e-04  -1.0829383e-04  -5.7535701e-05  -4.9102633e-05   5.7435118e-05   8.7385131e-05
  -1.6829438e-04   9.8830293e-05   3.8276838e-05  -6.6991051e-05   4.4569082e-05  -4.6850248e-05  -7.5418699e-05  -5.2149364e-05   1.3667699e-04   5.2003737e-04   1.6573396e-04   1.7903076e-04  -5.8049278e-05  -1.9700742e-04   2.7334507e-05  -4.2357417e-05  -3.4855320e-06   5.0721781e-05  -3.0743604e-04  -2.3850185e-04  -4.1604002e-05  -2.0391401e-04  -1.6862036e-04   1.0539593e-04   1.3888825e-05  -7.7999670e-05  -5.5251363e-05   2.6120068e-04   1.7274842e-04   3.4070690e-05  -1.3664260e-04   6.1302795e-05  -2.1285581e-04  -1.3493346e-04  -4.8878981e-05  -1.0190286e-04  -2.4594655e-04   3.4120392e-05   2.4084300e-05  -1.1395636e-04  -6.6342283e-05  -2.5278467e-04  -1.5958458e-04  -3.5326392e-04  -4.8728520e-04  -3.9098354e-04  -2.1153873e-04  -2.9355902e-04  -2.3803501e-04  -2.1285753e-04
  -7.5983873e-04  -4.5744571e-04  -6.3533086e-04  -7.2109100e-04  -3.9239999e-04  -4.6859970e-04  -5.4210977e-04  -3.4326885e-04  -1.6258340e-04   1.9714575e-04  -7.5668504e-05  -1.1316459e-04  -2.9944384e-04  -4.9555418e-04  -1.7056717e-04  -2.2747295e-04  -2.0330066e-04  -8.8226167e-05  -5.6280755e-04  -4.3423279e-04  -3.0421413e-04  -4.5928732e-04  -3.9896026e-04   6.1927683e-05  -2.3237006e-04  -3.5624727e-04  -1.7065102e-04   8.9398287e-05  -4.2563834e-06  -1.4948197e-04  -2.0188880e-04  -3.6106558e-05  -2.5425598e-04  -1.3103234e-04  -7.5654483e-05   1.4673990e-05  -2.1801998e-04   4.7322952e-05   1.7931838e-04   1.0976969e-04   4.0855640e-04  -5.5328575e-05   1.0727613e-04  -2.4476172e-05  -1.3690385e-04  -2.1202650e-04  -7.8873327e-06  -1.6123655e-05   1.7786489e-04   3.7512138e-05
   7.2752016e-05   3.3351730e-04   3.4159306e-04   2.1319724e-04   2.7634270e-04   1.1002098e-04   1.3599011e-04   6.4942898e-05   3.7733078e-04   7.2588102e-04   3.1391569e-04   3.6802902e-04   5.7910271e-05  -5.0754767e-05   1.0388813e-04   3.8684288e-05   8.1037964e-05   8.5954016e-05  -5.1827625e-05   1.0225993e-05   1.9024085e-04   3.7404607e-05   3.6807676e-06   3.4823825e-04   1.9049182e-04   1.5969065e-04   5.6660003e-05   3.5120660e-04   2.1631253e-04   1.7531567e-04  -2.2857257e-05   1.5575034e-04   8.2323219e-05   1.7824078e-04   1.1973933e-04   2.4096691e-04  -2.2013590e-05   2.1109277e-04   3.1499186e-04   2.3582236e-04   3.7484014e-04   1.9514689e-05   1.2551028e-04   6.2756512e-06  -1.3247214e-04  -1.6959847e-04   4.3453911e-05  -6.5003929e-05   1.5322062e-04  -1.5187156e-05
  -6.5368993e-05   1.5763885e-04   1.3829619e-04   3.2396820e-05   1.3468773e-04  -1.6241658e-05  -3.0732131e-06   4.1963147e-05   3.2888679e-04   5.5006298e-04   2.5235143e-04   2.3742511e-04   7.3375491e-06  -1.0778009e-04   4.8599974e-05   5.1069946e-05   5.2218078e-05   8.2846724e-05  -1.6289293e-04  -5.0400882e-05   2.0242482e-05  -9.4310373e-05  -1.4472332e-04   2.7955102e-04   2.2893675e-05  -3.2059928e-05  -1.5359583e-05   2.3288232e-04   1.2567882e-04   3.4509751e-05  -1.1475496e-04   6.2414249e-05  -1.4134060e-04  -6.9600574e-05  -5.3274456e-05  -4.4942513e-05  -2.1913361e-04   4.0083443e-05   3.0774838e-05  -1.4994826e-04  -1.2606694e-04  -1.8512993e-04  -2.1354049e-04  -3.6809192e-04  -4.0090273e-04  -4.3245370e-04  -1.2685198e-04  -3.3137607e-04  -2.0233818e-04  -3.1778883e-04
  -6.7380979e-04  -4.0609771e-04  -5.3594762e-04  -6.1810191e-04  -3.1023327e-04  -4.3357295e-04  -4.8005398e-04  -2.2203724e-04   1.7752514e-05   2.2353904e-04  -1.1706218e-06  -4.9592341e-05  -2.2839480e-04  -4.1584426e-04  -1.6142108e-04  -1.2763370e-04  -1.2622659e-04  -4.8220816e-05  -4.9947825e-04  -3.0321945e-04  -2.7982090e-04  -4.2177059e-04  -4.1774704e-04   4.5155393e-06  -3.3126748e-04  -4.5628977e-04  -1.5236177e-04  -7.1873287e-06  -8.5903121e-05  -2.3769384e-04  -3.1845493e-04  -1.3257252e-04  -5.4431066e-04  -4.7731123e-04  -3.4089308e-04  -4.7636745e-04  -5.4725877e-04  -2.4721361e-04  -3.4887230e-04  -5.9459312e-04  -2.8332419e-04  -2.7058503e-04  -3.3901774e-04  -4.4908654e-04  -3.5087063e-04  -5.3635199e-04  -2.7196988e-05  -2.6017576e-04   1.2293892e-04  -1.5666999e-04
  -1.4386766e-04   1.2622794e-04   1.6335634e-04   5.3172051e-05   1.6206568e-04  -1.3561849e-05   2.1520988e-05   5.1149850e-06   3.9984763e-04   6.4705691e-04   2.6866060e-04   3.3440898e-04  -4.3816885e-06  -1.0999696e-04   6.8790332e-06   1.5869346e-05   6.0902588e-05   2.5374911e-05  -1.8363218e-05   3.4229950e-05   2.2231665e-04   6.7829264e-05  -2.4236759e-05   4.0675350e-04   1.6648647e-04   1.4391963e-04   4.1715124e-05   2.8230273e-04   1.5495648e-04   1.2688774e-04  -6.3189938e-05   1.0247686e-04   1.1222937e-04   1.7624348e-04   4.0826919e-05   1.8895963e-04  -4.9617007e-05   1.0998574e-04   2.4603744e-04   1.1584984e-04   2.8613012e-04  -2.3569957e-05   4.8239504e-05  -5.1654904e-05  -9.7636388e-05  -2.3524128e-04   3.4769608e-05  -1.1390902e-04   2.4372985e-04  -6.8545472e-05
  -4.6588651e-05   2.2590827e-04   1.9621316e-04   9.7641379e-05   1.7998471e-04  -2.0438982e-05   3.2148830e-05   6.6337074e-05   3.9036904e-04   5.6133652e-04   2.8166117e-04   2.8212252e-04  -4.5974652e-06  -8.4689673e-05   1.6021853e-05   5.6591503e-05   8.4563944e-05   5.5535587e-05  -1.0511206e-04   1.2323116e-05   7.6256139e-05  -4.6353452e-06  -1.1713173e-04   2.9893959e-04   5.0365790e-05   1.2894202e-05  -8.3277737e-06   2.0225206e-04   6.7388006e-05   3.5233734e-05  -1.0979141e-04   4.7781072e-05  -5.6490579e-05   1.2192278e-05  -6.0116581e-05   5.2407254e-06  -1.7756854e-04  -4.0648360e-06   4.2766267e-05  -1.1744870e-04  -9.6810545e-05  -1.4800408e-04  -1.9633776e-04  -3.1269144e-04  -3.2173641e-04  -4.0866548e-04  -3.3816559e-05  -3.1426753e-04  -1.4021455e-05  -2.6702872e-04
  -5.9164147e-04  -2.8327372e-04  -4.2584696e-04  -4.9085141e-04  -2.4465154e-04  -3.8406166e-04  -3.9836168e-04  -1.8679062e-04   9.7748947e-05   2.2898200e-04   5.0810308e-05  -1.5318914e-05  -2.2252362e-04  -3.6779165e-04  -1.7915374e-04  -1.0016224e-04  -8.3315048e-05  -7.1519316e-05  -4.0784042e-04  -2.9546476e-04  -2.1262665e-04  -3.3008176e-04  -3.8954688e-04   1.1142074e-04  -3.0106210e-04  -3.8293455e-04  -1.5395039e-04  -4.2960986e-05  -1.0538234e-04  -2.3376853e-04  -2.9464572e-04  -1.6505909e-04  -4.8211360e-04  -3.8370045e-04  -3.5051460e-04  -4.2177504e-04  -5.2150729e-04  -2.6490100e-04  -3.5720348e-04  -6.1562227e-04  -6.9635682e-04  -4.4927967e-04  -6.1169971e-04  -7.0795050e-04  -5.8592006e-04  -7.8439759e-04  -3.0457217e-04  -6.3418632e-04  -4.4179085e-04  -6.0438324e-04
  -1.1978784e-03  -9.3460607e-04  -1.0769037e-03  -1.1479398e-03  -6.6513929e-04  -7.7024690e-04  -8.3389715e-04  -4.9248518e-04  -1.0928464e-04   2.2405638e-04  -1.2705164e-04  -4.4653119e-05  -3.2989614e-04  -5.5791880e-04  -3.4070018e-04  -2.3301602e-04  -1.7684129e-04  -1.4692439e-04  -3.1629537e-04  -2.1339330e-04  -4.4712422e-05  -1.7984964e-04  -2.8081361e-04   2.5631554e-04  -1.1736196e-04  -1.3637262e-04  -1.4615367e-04   1.5478805e-05  -5.2478044e-05  -9.6463089e-05  -2.1752735e-04  -1.1781869e-04  -8.1563208e-05  -1.6348953e-05  -1.5158889e-04  -2.5983240e-06  -2.0920843e-04  -1.0216297e-04   7.3041170e-05  -2.5793133e-05   1.4037573e-04  -1.7557277e-04  -1.1370001e-04  -1.4432766e-04  -2.2478723e-04  -3.9374293e-04  -8.6698361e-05  -1.9171981e-04   1.0717683e-04  -1.8513047e-04
  -2.6992094e-04   1.6875480e-05  -1.9250594e-05  -9.4149102e-05   1.3932193e-06  -1.5100659e-04  -1.2147905e-04  -1.1162233e-04   2.0406758e-04   4.3620612e-04   1.5544202e-04   1.7708090e-04  -1.8362340e-04  -2.7477520e-04  -1.5363826e-04  -1.0739130e-04  -3.5104251e-05  -6.6538443e-05  -1.9483604e-04  -9.7700591e-05   2.2114504e-05  -6.8111847e-05  -2.0818430e-04   3.2784056e-04  -7.7943128e-05  -4.4403543e-05  -1.0610931e-04   9.4632313e-05  -1.0409096e-05  -1.1546493e-05  -1.8793403e-04  -7.7938865e-05  -9.3243703e-05   9.0801150e-06  -1.4528079e-04   4.3082750e-06  -1.9265276e-04  -1.1432934e-04   4.0223807e-05  -7.4828793e-05  -1.1969584e-05  -1.9669811e-04  -1.6885943e-04  -2.4060310e-04  -3.1576600e-04  -4.3495258e-04  -1.4418688e-04  -2.9417619e-04  -3.4331839e-05  -2.1857409e-04
  -5.8346154e-04  -2.2503146e-04  -3.4965825e-04  -4.1120732e-04  -2.3046040e-04  -3.5486405e-04  -3.6025693e-04  -2.5516719e-04  -3.3401771e-05   2.0229632e-04   2.6768344e-06  -2.7581211e-05  -3.5693767e-04  -4.7564704e-04  -2.6961844e-04  -2.2639148e-04  -1.5558937e-04  -1.4195120e-04  -4.2778859e-04  -2.4363087e-04  -2.2779928e-04  -3.3706482e-04  -4.1732704e-04   9.5038165e-05  -3.4725177e-04  -3.4533360e-04  -2.5181522e-04  -7.1957271e-05  -1.2088312e-04  -2.0085322e-04  -3.3834626e-04  -2.2922817e-04  -4.0427144e-04  -3.3923195e-04  -3.6226941e-04  -3.8342518e-04  -4.5656465e-04  -3.3582654e-04  -3.1359980e-04  -4.9253623e-04  -5.3436472e-04  -4.3201519e-04  -5.2141119e-04  -6.3150498e-04  -6.1528105e-04  -7.4015238e-04  -3.4232007e-04  -5.8714772e-04  -3.4114512e-04  -5.0285720e-04
  -1.1794625e-03  -8.4931735e-04  -1.0018174e-03  -1.0617998e-03  -6.7105738e-04  -7.8499282e-04  -8.2924357e-04  -5.5399869e-04  -3.1548721e-04  -4.0425610e-05  -2.6290343e-04  -2.6602848e-04  -5.6000124e-04  -7.9232705e-04  -4.7563139e-04  -4.1824495e-04  -3.5058398e-04  -2.7701061e-04  -5.3327222e-04  -3.6177260e-04  -2.0435796e-04  -3.7164986e-04  -4.8836897e-04   1.2381430e-04  -3.7859776e-04  -3.6020007e-04  -2.9342153e-04  -1.3585971e-04  -2.7179878e-04  -2.4683427e-04  -3.4793929e-04  -2.5688187e-04  -2.4538694e-04  -1.6482174e-04  -2.9012209e-04  -1.3151299e-04  -3.2590117e-04  -2.8093249e-04  -5.1812283e-05  -1.8961083e-04   1.1574535e-05  -2.1044571e-04  -2.3935812e-04  -2.8888066e-04  -3.4320305e-04  -5.5923080e-04  -1.3046565e-04  -3.2186467e-04   9.5379312e-07  -2.5949706e-04
  -4.3697940e-04  -5.9692240e-05  -1.3443449e-04  -2.1659907e-04  -1.2097725e-04  -2.9215810e-04  -2.4294520e-04  -2.1886583e-04   1.8132791e-04   3.0496408e-04   5.0645431e-05   6.3657099e-05  -3.4853624e-04  -4.4161704e-04  -2.9805012e-04  -2.4952012e-04  -1.6563106e-04  -1.8043151e-04  -2.9073114e-04  -1.8519914e-04  -1.0207658e-04  -1.5961011e-04  -3.6363504e-04   2.2332503e-04  -2.4933385e-04  -1.9990656e-04  -2.1611349e-04  -8.7799366e-05  -2.0466358e-04  -1.4337739e-04  -3.1248422e-04  -2.2885326e-04  -1.5578023e-04  -1.1244799e-04  -2.9692025e-04  -1.5697698e-04  -3.0930821e-04  -2.8836611e-04  -1.0912856e-04  -2.7607704e-04  -1.8464804e-04  -2.7390468e-04  -3.5256872e-04  -3.7351024e-04  -3.9113429e-04  -6.0661690e-04  -1.6545899e-04  -4.3919121e-04  -7.8456040e-05  -3.7532620e-04
  -7.1911531e-04  -3.6680370e-04  -4.1570180e-04  -4.8228621e-04  -3.0201327e-04  -4.8346521e-04  -4.3229017e-04  -3.1633908e-04   7.0507842e-05   1.3416079e-04  -4.7702993e-05  -8.1243648e-05  -4.5187990e-04  -5.6479231e-04  -3.9356563e-04  -3.0749134e-04  -2.4602556e-04  -2.3454800e-04  -4.4242255e-04  -3.5242672e-04  -2.4389170e-04  -3.3347818e-04  -5.5600837e-04   1.0145470e-04  -5.0660840e-04  -4.6959525e-04  -3.1015713e-04  -2.6130123e-04  -3.2261421e-04  -3.3375295e-04  -4.2188563e-04  -3.3001721e-04  -4.3700225e-04  -4.0233287e-04  -4.9777387e-04  -4.9027376e-04  -5.6850701e-04  -4.9452187e-04  -4.5865224e-04  -7.0606329e-04  -7.3852576e-04  -4.8286151e-04  -7.5590261e-04  -7.5808162e-04  -6.4583105e-04  -9.0560777e-04  -3.0127008e-04  -7.8380108e-04  -4.4029244e-04  -6.4326019e-04
  -1.2485187e-03  -9.0433721e-04  -9.2967576e-04  -1.0292701e-03  -6.0986978e-04  -7.7305752e-04  -7.4676343e-04  -5.0844403e-04   6.5930602e-05   2.1708633e-04  -1.1249943e-04  -2.1828311e-05  -4.6074518e-04  -6.0695480e-04  -4.7723384e-04  -3.3862001e-04  -2.5469239e-04  -2.6877545e-04  -2.4184867e-04  -2.1455824e-04  -9.5137577e-05  -1.5847689e-04  -4.1330277e-04   2.4620761e-04  -3.1407634e-04  -2.1334125e-04  -2.7453169e-04  -1.4984116e-04  -3.2061225e-04  -1.9077472e-04  -3.4005655e-04  -2.5373435e-04  -7.1267488e-05  -6.0680304e-05  -3.2484773e-04  -9.5664858e-05  -3.0314532e-04  -3.2712720e-04  -8.6440457e-05  -2.6969443e-04  -8.7091765e-05  -1.7676079e-04  -3.6542470e-04  -2.3476072e-04  -2.6784305e-04  -5.6789792e-04  -9.2286784e-05  -3.8495936e-04   1.6948237e-05  -3.5559831e-04
  -5.0006621e-04  -8.0563332e-05  -1.2920178e-04  -2.1772628e-04  -1.0760436e-04  -3.3195547e-04  -2.5070287e-04  -1.9850301e-04   2.3449003e-04   2.9449567e-04   5.0459686e-05   8.5233791e-05  -3.6823860e-04  -4.0707111e-04  -3.5532404e-04  -2.2934584e-04  -1.4873665e-04  -2.0916009e-04  -1.9584445e-04  -1.4249909e-04  -5.5746812e-05  -1.0330739e-04  -4.0230865e-04   2.6316874e-04  -3.1729299e-04  -2.0880174e-04  -2.5015409e-04  -1.5692570e-04  -2.6831665e-04  -1.7005147e-04  -3.1946332e-04  -2.3453611e-04  -1.4229570e-04  -1.0361332e-04  -3.4233436e-04  -1.5256935e-04  -3.3712017e-04  -3.5579535e-04  -1.6008787e-04  -3.7251791e-04  -3.2107974e-04  -2.6701504e-04  -4.9798383e-04  -3.6479760e-04  -2.9990703e-04  -6.1268901e-04  -8.9952773e-05  -5.3436880e-04  -8.1481950e-05  -4.6907764e-04
  -7.5833377e-04  -3.7557611e-04  -4.1622896e-04  -4.9852615e-04  -3.1173756e-04  -5.3773646e-04  -4.7309979e-04  -2.9452832e-04   1.7838209e-04   7.7697005e-05  -5.2807820e-05  -1.0478326e-04  -4.9134536e-04  -5.6282914e-04  -4.5414112e-04  -2.9798137e-04  -2.3424278e-04  -2.6535697e-04  -4.2576113e-04  -3.2376830e-04  -3.0315842e-04  -3.3010673e-04  -6.3835282e-04   7.9179452e-05  -5.8924448e-04  -5.3581188e-04  -3.6144711e-04  -3.5028896e-04  -4.2933010e-04  -3.8162933e-04  -4.4672351e-04  -3.7662376e-04  -4.7280916e-04  -4.2763553e-04  -5.8090518e-04  -5.1999610e-04  -6.0586596e-04  -5.3960143e-04  -4.6635931e-04  -7.1802153e-04  -4.1039533e-04  -3.3275489e-04  -6.0209940e-04  -3.6564103e-04  -2.5092592e-04  -6.2639650e-04   3.1044357e-05  -4.7856421e-04   1.0567834e-04  -3.2460474e-04
  -2.7314108e-04   3.1712007e-05   1.7220633e-04   2.3582841e-05   8.9940600e-05  -2.0203850e-04  -7.7484270e-05  -5.1350136e-05   6.0257869e-04   4.1382934e-04   2.1891785e-04   2.0219696e-04  -2.6280529e-04  -2.6757544e-04  -3.0385799e-04  -1.1636518e-04  -3.2809035e-05  -1.4936448e-04   2.1274733e-05   3.0150088e-05   1.0593385e-04   7.5674630e-05  -3.0799137e-04   3.9150930e-04  -1.9270011e-04  -6.0567738e-05  -1.5108532e-04  -1.0200696e-04  -2.2916900e-04  -8.5808992e-05  -2.0308857e-04  -1.4108908e-04  -4.9031773e-06   7.2319875e-05  -2.5719040e-04   6.2901813e-06  -2.2005040e-04  -2.5580710e-04  -2.1965923e-05  -2.5954857e-04  -1.8667466e-04  -1.8371276e-04  -4.4038834e-04  -1.2944826e-04   3.5655747e-05  -4.1795662e-04   1.1900742e-04  -4.5835521e-04   2.7051815e-04  -3.1434116e-04
  -2.5440034e-04   7.3074341e-05   1.3747916e-04  -1.0971783e-05   5.7007222e-05  -2.2360269e-04  -1.2249599e-04  -1.0642614e-05   6.0391496e-04   2.7257632e-04   2.1405135e-04   1.2342044e-04  -2.7139019e-04  -2.7166886e-04  -2.9759688e-04  -7.9920683e-05  -1.0272262e-05  -1.4506379e-04  -1.0263709e-04  -3.4722968e-06  -3.3241042e-06  -2.7017406e-05  -4.0764548e-04   2.9123935e-04  -3.3349142e-04  -2.2286651e-04  -1.7630759e-04  -1.8965451e-04  -2.2521969e-04  -1.8048914e-04  -2.3532305e-04  -1.9169622e-04  -1.3490843e-04  -9.4973882e-05  -3.5889330e-04  -2.1233277e-04  -3.4234158e-04  -3.4781528e-04  -2.1846153e-04  -4.7637647e-04  -5.3060160e-04  -3.9355806e-04  -6.3483586e-04  -3.5852802e-04  -1.4300863e-04  -5.4029154e-04  -2.6892663e-05  -5.9967110e-04  -3.0441674e-05  -5.1940908e-04
  -7.8528241e-04  -4.2739848e-04  -4.6387906e-04  -5.6621269e-04  -3.4196439e-04  -5.6466716e-04  -5.2388775e-04  -2.5804338e-04   2.5865089e-04  -4.1395750e-05  -3.8799513e-05  -1.3974440e-04  -4.6431707e-04  -5.2936398e-04  -4.6756363e-04  -2.1463218e-04  -1.5414525e-04  -2.3217757e-04  -2.2930748e-04  -1.5479125e-04  -7.6051729e-05  -1.4006859e-04  -4.6000455e-04   2.9756324e-04  -3.7719423e-04  -2.5172142e-04  -2.2197311e-04  -2.0378406e-04  -2.4389256e-04  -2.1367335e-04  -1.9509038e-04  -1.5999137e-04   6.8253712e-06   4.5096716e-05  -2.4635787e-04   4.9320541e-05  -1.8528022e-04  -2.0958405e-04   4.3637290e-05  -1.4117379e-04   2.4381050e-06  -1.7037256e-04  -3.0981260e-04   7.4776697e-05   1.6922712e-04  -2.5200157e-04   2.0411678e-04  -3.0863564e-04   4.2979652e-04  -9.5777774e-05
   8.8514586e-05   3.5421675e-04   4.9405667e-04   3.3612837e-04   3.1942670e-04   1.1196961e-05   1.1645805e-04   1.5294222e-04   8.0692343e-04   4.0683788e-04   3.6473290e-04   2.6424133e-04  -1.2036783e-04  -9.0705551e-05  -1.6542755e-04   4.7963764e-05   1.3348124e-04  -3.0975767e-05   1.3921461e-04   2.7522939e-04   1.0889781e-04   1.9330415e-04  -2.0878320e-04   4.6778991e-04  -8.2501123e-05   6.9331974e-05  -3.1170523e-05  -5.1357380e-05  -6.8790330e-05   3.8920593e-06  -3.7986083e-05  -1.4505574e-05   2.0623328e-04   2.0602475e-04  -1.3030232e-04   1.3799520e-04  -7.4119918e-05  -1.0160331e-04   1.3645439e-04  -3.4495773e-05  -2.0369383e-05  -1.1033865e-04  -2.0887941e-04   9.9474557e-05   1.8424142e-04  -1.3975053e-04   2.1399133e-04  -1.8763036e-04   4.3113527e-04  -1.2985044e-04
  -9.4894960e-05   1.6465668e-04   2.4283573e-04   1.1032632e-04   1.5737882e-04  -9.7705080e-05  -3.6401492e-05   8.6463944e-05   6.3847285e-04   2.0081007e-04   2.5119772e-04   1.1149250e-04  -1.7875386e-04  -1.6825393e-04  -2.1325286e-04   3.8880593e-05   1.0266814e-04  -4.1982999e-05  -3.5448415e-05   1.1440943e-04   2.2343607e-05   2.2393362e-05  -3.6554929e-04   2.9004356e-04  -2.6934396e-04  -1.5014962e-04  -8.8923160e-05  -1.5442022e-04  -1.4188934e-04  -1.3487496e-04  -1.3546113e-04  -8.9564797e-05  -9.0611204e-05  -5.2558065e-05  -2.7734204e-04  -1.4101593e-04  -2.8474323e-04  -2.5197008e-04  -1.4479614e-04  -3.8498524e-04  -4.8166310e-04  -3.2414976e-04  -5.1910209e-04  -2.2876126e-04   6.3359262e-06  -3.5793291e-04   8.1792905e-06  -4.6357617e-04   1.1462333e-04  -3.9689758e-04
  -6.4762350e-04  -3.5273324e-04  -3.8855997e-04  -4.9584109e-04  -2.6312447e-04  -4.8559587e-04  -4.6519836e-04  -1.8537175e-04   2.8536445e-04  -1.1386364e-04  -7.0974643e-06  -1.7404213e-04  -3.9043452e-04  -4.6202939e-04  -3.8872490e-04  -1.2884522e-04  -7.1902941e-05  -1.3695812e-04  -3.2190623e-04  -1.7748725e-04  -2.9248654e-04  -2.6124867e-04  -5.9781893e-04   1.5430078e-04  -5.0336210e-04  -4.4313949e-04  -2.1003796e-04  -3.1273172e-04  -2.6044811e-04  -3.1628643e-04  -1.9007214e-04  -1.7935560e-04  -1.6581407e-04  -1.2923937e-04  -3.1602956e-04  -4.0688756e-05  -2.8402155e-04  -1.9426363e-04  -1.9097090e-05  -1.7315628e-04  -3.7250397e-06  -1.0364007e-04  -2.6993547e-04   1.0647743e-04   2.7026722e-04  -1.1134345e-04   2.2756112e-04  -1.7387694e-04   5.2495539e-04  -9.9045945e-05
   1.9366843e-04   4.0306160e-04   5.5773294e-04   4.1104050e-04   3.9687465e-04   1.0534877e-04   2.0014870e-04   1.9893574e-04   8.4811711e-04   3.7998427e-04   3.9886477e-04   2.7732892e-04  -2.9554858e-05   1.9571664e-06  -9.8974058e-05   1.3706465e-04   2.2189750e-04   5.6624194e-05   2.1260834e-04   3.6892481e-04   1.7260229e-04   2.5796340e-04  -1.3496891e-04   4.5007060e-04   2.2794789e-05   1.5407972e-04   2.5352783e-05   3.5164434e-05   1.5088666e-05   5.7253310e-05   4.0675022e-05   6.1255545e-05   2.6241364e-04   2.8631967e-04  -6.4209918e-05   2.4543822e-04  -6.9175130e-06   2.6101026e-05   2.3132861e-04   6.5616383e-05   8.2133287e-05  -1.8211926e-05  -1.3781678e-04   2.4586800e-04   3.9062399e-04   2.5426678e-05   2.9866124e-04  -1.2740611e-04   5.3800724e-04  -7.3586169e-05
   1.5761329e-04   3.6083575e-04   4.5318136e-04   3.1440731e-04   3.1364080e-04   5.9161379e-05   1.1910774e-04   2.0321691e-04   7.4690540e-04   2.1054788e-04   3.3480255e-04   1.4445944e-04  -5.7731722e-05  -2.2986307e-05  -1.2091680e-04   1.5512791e-04   2.1461630e-04   7.8074052e-05   8.8086672e-05   1.8346163e-04   9.2996568e-05   1.1829411e-04  -2.4176374e-04   3.8497703e-04  -1.4182919e-04   5.7554394e-06   7.9219044e-06  -2.4912779e-05   1.6275828e-05  -3.5420533e-05  -1.5525995e-05  -4.1516769e-06   5.3794702e-05   9.6632437e-05  -1.9289956e-04  -5.4061352e-06  -1.6383189e-04  -8.7369299e-05   7.4528125e-06  -2.3748179e-04  -3.4192184e-04  -1.7310602e-04  -3.5693258e-04  -5.7992234e-05   1.9046295e-04  -1.5680495e-04   9.1509144e-05  -3.2774464e-04   1.9101134e-04  -2.7925349e-04
  -4.3373890e-04  -2.1556573e-04  -1.9274111e-04  -2.9899270e-04  -1.0674505e-04  -3.0504121e-04  -3.0616115e-04  -6.3586551e-05   4.0827354e-04  -1.3368764e-04   6.0055350e-05  -1.5681746e-04  -2.7475608e-04  -3.1694749e-04  -2.7836545e-04  -4.4148615e-06   4.1734220e-05  -4.2024458e-05  -2.2797003e-04  -5.8005651e-05  -2.4758099e-04  -2.1159892e-04  -5.2462902e-04   1.5781418e-04  -4.4254842e-04  -3.6725466e-04  -1.3981615e-04  -2.4082916e-04  -1.7031968e-04  -2.6883802e-04  -1.9884213e-04  -1.7663695e-04  -3.9810262e-04  -2.7816463e-04  -4.4341126e-04  -3.9663739e-04  -4.6119312e-04  -3.2375261e-04  -3.5745581e-04  -6.6119403e-04  -8.3457050e-04  -4.6253201e-04  -7.3567382e-04  -4.5621413e-04  -1.4149594e-04  -4.8401605e-04  -1.2801863e-04  -6.0045044e-04  -1.6285351e-04  -5.4358342e-04
  -1.0107599e-03  -7.8445987e-04  -8.3396852e-04  -9.2493673e-04  -5.5603078e-04  -7.1821408e-04  -7.5376866e-04  -4.0049679e-04   4.5673933e-05  -3.8244802e-04  -2.2462990e-04  -4.1656414e-04  -4.8782647e-04  -6.2287593e-04  -5.0612947e-04  -2.1123920e-04  -1.5305965e-04  -1.6379537e-04  -2.7995757e-04  -1.1775963e-04  -2.0456835e-04  -2.2585390e-04  -5.3444243e-04   1.5376166e-04  -4.1828243e-04  -2.9019013e-04  -1.8617888e-04  -2.4671323e-04  -1.7740454e-04  -2.5994526e-04  -1.7879171e-04  -1.9551135e-04  -1.1098490e-04  -2.4688494e-05  -3.1373964e-04  -4.5541234e-05  -2.2498406e-04  -1.8262558e-04   1.5449128e-05  -1.9069605e-04  -8.9567315e-05  -1.5891298e-04  -3.1315102e-04   3.8061542e-05   2.5907668e-04  -1.6257653e-04   7.8283621e-05  -3.0028523e-04   3.0774946e-04  -2.3565452e-04
  -1.5963034e-05   2.0607760e-04   3.1201084e-04   1.9881832e-04   1.9776935e-04  -3.8033104e-05   5.3281135e-05   3.9489540e-05   6.1184104e-04   9.8706601e-05   2.0164743e-04   2.6263298e-05  -1.9568810e-04  -1.9067524e-04  -2.1542078e-04   1.2346492e-05   9.9408600e-05  -1.9439583e-05   5.2130068e-05   7.2604846e-05  -1.3026370e-06   5.6408433e-05  -3.0461393e-04   3.4849613e-04  -1.7869980e-04   5.5956893e-06  -4.1751064e-05  -7.7153025e-05  -4.3384742e-05  -3.7611684e-05  -7.2718198e-05  -7.1935603e-05   6.4259264e-05   1.2285463e-04  -2.0427800e-04   5.3084208e-05  -9.9929755e-05  -7.8211495e-05   1.0912878e-04  -1.1352642e-04  -1.1141503e-04  -1.9149156e-04  -2.9238960e-04   3.0190944e-05   2.5812341e-04  -1.5083543e-04   8.2346174e-05  -3.2101435e-04   2.5795505e-04  -2.8214697e-04
  -2.3449297e-04   3.6108679e-05   7.7665485e-05  -2.1827447e-05   3.6925463e-05  -1.6201478e-04  -1.1523571e-04  -4.6762558e-05   4.8150439e-04  -8.5605134e-05   9.3236209e-05  -1.3458576e-04  -2.8613856e-04  -2.7653584e-04  -2.8196195e-04  -2.3620798e-05   4.2801934e-05  -3.5264351e-05  -1.3170349e-04  -3.0948988e-05  -1.1947743e-04  -1.2266387e-04  -4.5607533e-04   1.4331774e-04  -3.6544542e-04  -2.1463806e-04  -1.3212858e-04  -1.9163715e-04  -8.6369910e-05  -1.7768523e-04  -1.9049190e-04  -1.9197307e-04  -2.5323546e-04  -1.5532594e-04  -3.9354761e-04  -2.4891613e-04  -3.4105996e-04  -2.4322441e-04  -2.0300776e-04  -4.9192674e-04  -5.7509245e-04  -3.8735822e-04  -6.2906335e-04  -3.2225877e-04   4.8404843e-05  -3.6103078e-04  -1.0231154e-04  -5.6276220e-04  -9.5060830e-05  -5.6853099e-04
  -7.9445227e-04  -5.2568212e-04  -5.2754488e-04  -6.0611498e-04  -3.6480714e-04  -5.3622090e-04  -5.2615971e-04  -2.9381053e-04   1.4503091e-04  -3.8081291e-04  -1.5839479e-04  -4.0026795e-04  -5.0313881e-04  -5.7025132e-04  -4.6792661e-04  -2.0647550e-04  -1.4894629e-04  -1.8075707e-04  -4.0824895e-04  -2.4856490e-04  -4.4242232e-04  -4.1787646e-04  -7.1292400e-04  -5.2315820e-05  -6.2768342e-04  -5.4057461e-04  -2.5778636e-04  -3.8389149e-04  -2.8945159e-04  -3.6932013e-04  -3.1048831e-04  -3.2136450e-04  -3.9672514e-04  -3.2798783e-04  -4.6033104e-04  -2.6185851e-04  -3.9101890e-04  -2.5613382e-04  -1.4832603e-04  -3.8209857e-04  -1.4737230e-04  -2.2824605e-04  -4.1255084e-04  -7.3744384e-05   1.9976922e-04  -2.8701761e-04   2.3450491e-05  -3.8728234e-04   2.1028408e-04  -3.7439249e-04
  -1.5327492e-04   9.8464436e-05   2.1763043e-04   1.2063687e-04   1.4389999e-04  -9.7991411e-05   3.9938122e-06  -2.5087540e-05   5.5526145e-04   3.3184748e-05   1.3295392e-04  -3.4197648e-05  -2.7040028e-04  -2.5300065e-04  -2.7134173e-04  -4.5500125e-05   4.2867588e-05  -5.3521198e-05  -3.0626550e-05   2.0331412e-05  -5.4604818e-05  -2.6327773e-05  -3.7937521e-04   2.6019441e-04  -2.4562102e-04  -5.1902192e-05  -1.2877524e-04  -1.2257860e-04  -1.0610294e-04  -7.0837785e-05  -1.5256023e-04  -1.8130736e-04  -6.9088761e-05   1.6599250e-05  -2.7881472e-04  -2.1276795e-05  -1.7240498e-04  -1.2291670e-04   3.2003223e-05  -1.8233956e-04  -1.3134439e-04  -1.4339274e-04  -3.7387246e-04  -4.2740892e-05   2.3339035e-04  -2.3783933e-04   2.7196245e-05  -3.7581037e-04   1.4872207e-04  -4.0943365e-04
