   7.7031487e-05   7.5908283e-05   6.2025523e-05   4.5730718e-05   6.2683386e-05   6.9169539e-05   8.6211752e-05   8.5437779e-05   1.2788668e-05  -4.8510850e-04  -3.5660880e-05  -5.5507192e-04  -7.4008226e-06   5.4903085e-05  -4.8295406e-05   9.7062031e-05   6.4420223e-05   5.5627923e-05  -4.0884879e-05   8.5932879e-05  -2.4049639e-04  -1.1934122e-04   6.8648798e-05   2.0726109e-05   4.1181233e-05   6.4458429e-05   1.1788762e-04   5.0360770e-05   9.9849676e-05   5.4886586e-06   7.9420359e-05   3.8230282e-05   7.7096134e-05   3.2114280e-05   5.5376899e-05   1.8494458e-04   1.3938357e-04   8.3373438e-05   4.8683629e-05   9.2312373e-05   4.1944957e-05  -7.2514325e-05   2.3575501e-05   6.8654546e-05   1.0954058e-04   8.6191561e-05   6.3675550e-05   2.6617701e-05   9.6220530e-05   7.9080914e-05
   1.1608704e-04   1.1373517e-04   8.8391571e-05   1.0019680e-04   6.7300258e-05   8.0576807e-05   1.0556512e-04   8.8497050e-05   8.1110193e-05  -4.6008104e-04   5.5915107e-06  -5.2817713e-04   2.0219530e-05   6.9293084e-05  -3.7691363e-05   9.3255228e-05   6.7336288e-05   5.8072837e-05   1.7115059e-05   1.1669709e-04  -2.1647518e-04  -7.6389020e-05   9.1509341e-05   3.1257150e-05   7.0732829e-05   1.0355926e-04   1.0290980e-04   4.3567430e-05   9.0003217e-05   5.1536999e-06   8.1230173e-05   3.7993366e-05   1.2514472e-04   4.8729773e-05   7.0207199e-05   1.8554667e-04   1.1622359e-04   8.2055471e-05   4.7556983e-05   9.7415439e-05   4.1338397e-05  -5.4983691e-05   1.3346556e-05   6.3610642e-05   8.7861561e-05   8.2895793e-05   2.8601584e-05   3.3970275e-05   2.4614417e-05   2.5677653e-05
   1.0532647e-04   9.8691533e-05   8.1156679e-05   7.7555378e-05   6.3574393e-05   8.0894140e-05   1.0359547e-04   8.8063440e-05   4.8598562e-05  -4.7113778e-04  -1.4226163e-05  -5.4963317e-04   1.8518564e-05   7.1164097e-05  -3.4789839e-05   1.0906733e-04   7.5473392e-05   7.7973826e-05   8.7732615e-06   7.8726473e-05  -2.2847863e-04  -1.1401410e-04   7.7150573e-05   4.5215678e-05   4.0743776e-05   7.1369053e-05   1.1870513e-04   5.1206265e-05   1.1283225e-04   4.2233150e-06   8.0241967e-05   5.0347804e-05   5.8151028e-05   3.3978718e-05   5.7580615e-05   1.6739368e-04   1.2009502e-04   8.1211598e-05   4.6451769e-05   6.5126078e-05   9.8675564e-06  -5.6831759e-05   2.8196657e-05   5.4597615e-05   6.5391476e-05   8.3948922e-05   4.0960775e-05   3.0993764e-05   6.5786422e-05   4.0189308e-05
   8.3166276e-05   8.6365195e-05   6.3380787e-05   4.5058288e-05   6.9827227e-05   8.7265078e-05   9.7188349e-05   9.9511206e-05   5.9754126e-05  -4.6657948e-04  -3.1412190e-05  -5.4138288e-04   3.4711164e-05   6.9151880e-05  -3.2357686e-05   1.1337075e-04   6.7943627e-05   8.0379235e-05   2.8346883e-05   1.0873924e-04  -1.5462107e-04  -5.4295928e-05   9.8074219e-05   4.1936186e-05   7.7680423e-05   1.2972851e-04   1.1154309e-04   5.9722137e-05   1.2631246e-04   7.5799380e-06   8.5856336e-05   5.1902309e-05   1.0838900e-04   6.8896596e-05   6.7112363e-05   1.7633442e-04   1.3236278e-04   8.6344327e-05   5.9034901e-05   9.5599440e-05   3.7434318e-05  -5.8444100e-05   6.6203153e-05   7.4742406e-05   9.9255492e-05   1.1703144e-04   9.7584898e-06   7.0204071e-05   5.9702459e-05   6.0397990e-05
   1.1423331e-04   1.2216601e-04   8.5745261e-05   9.7578486e-05   6.6116481e-05   9.7749857e-05   1.1125812e-04   8.8543995e-05   7.5927790e-05  -4.5876825e-04   4.9369069e-06  -5.3583807e-04   4.3161035e-05   8.0435704e-05  -2.1064696e-05   1.1328306e-04   7.4172480e-05   8.0007660e-05   3.1174179e-05   1.0547737e-04  -1.9186942e-04  -6.9184767e-05   1.0099785e-04   3.5132682e-05   5.7962548e-05   1.2134083e-04   1.1452036e-04   6.6904526e-05   9.4362498e-05   5.6657600e-06   8.4148429e-05   4.8894515e-05   4.2500295e-05   6.3763400e-05   7.0075039e-05   1.6290259e-04   1.0798794e-04   9.6488293e-05   5.5209977e-05   7.5249132e-05   3.2057909e-05  -4.5704801e-05   3.7013608e-05   5.3027456e-05   8.8694047e-05   9.4005001e-05   4.3689015e-05   9.1476068e-05   5.4484408e-05   7.1345043e-05
   1.0389680e-04   9.9854122e-05   7.5189979e-05   7.7593038e-05   6.9099471e-05   9.8702760e-05   1.0794016e-04   8.7103042e-05   4.8120666e-05  -4.7038321e-04  -1.4052420e-05  -5.5166823e-04   4.7044232e-05   8.8237757e-05  -1.6457567e-05   1.2416608e-04   8.7258501e-05   8.8553170e-05   1.1540892e-05   1.2392554e-04  -2.2575937e-04  -9.8338089e-05   8.2885424e-05   2.6630814e-05   5.9886261e-05   9.3874645e-05   1.2939888e-04   5.2239244e-05   1.1487136e-04   8.7770050e-06   8.7445056e-05   5.4813696e-05   5.6819830e-05   4.3515629e-05   6.6403212e-05   1.6952190e-04   1.1153246e-04   8.8925917e-05   5.7954705e-05   5.9415132e-05   1.4596335e-05  -5.3214717e-05   4.6511603e-05   4.1828276e-05   1.0389237e-04   9.9484263e-05   4.4927721e-05   8.1250575e-05   1.9879566e-05   5.7796682e-05
   1.1141651e-04   1.2547398e-04   9.1428912e-05   1.0903810e-04   7.2217212e-05   1.0431823e-04   1.2518157e-04   7.8920864e-05   9.9462319e-05  -4.4604202e-04   1.1802980e-05  -5.1684387e-04   6.7394554e-05   9.0695721e-05  -5.4326401e-06   1.1576004e-04   8.0647180e-05   7.8669531e-05   6.7363748e-05   8.9110115e-05  -1.8702913e-04  -3.0645097e-05   1.1329106e-04   2.1799344e-05   9.2370232e-05   1.5075717e-04   1.1647058e-04   6.8366280e-05   1.0779718e-04   5.8343981e-06   9.3244365e-05   6.7049565e-05   1.0080804e-04   8.3000086e-05   6.5812339e-05   1.8148936e-04   1.1498219e-04   9.9101708e-05   7.2015464e-05   7.4267344e-05   5.1448973e-05  -3.6331359e-05   7.7699995e-05   6.2800631e-05   9.5222822e-05   1.0214528e-04   6.6599729e-05   6.1489751e-05   7.5720694e-05   7.4924210e-05
   1.1943068e-04   1.2885776e-04   8.5362510e-05   1.1505744e-04   6.6527573e-05   1.0570003e-04   1.2058319e-04   8.3085906e-05   7.1077018e-05  -4.4703519e-04   1.2749843e-05  -5.2435166e-04   7.3796175e-05   1.0221895e-04  -2.9938608e-06   1.2564796e-04   8.6308653e-05   8.1758495e-05   4.4319735e-05   8.8185581e-05  -1.8322228e-04  -5.0277133e-05   9.9512588e-05   3.1521402e-05   8.0578917e-05   1.1938672e-04   1.2242759e-04   7.7861718e-05   1.1584138e-04   1.1886924e-05   8.7062152e-05   4.6044137e-05   7.4513497e-05   7.1131501e-05   6.9153735e-05   1.6920383e-04   1.1293626e-04   9.6731164e-05   7.0280570e-05   6.4586333e-05   2.5994415e-05  -2.8502998e-05   4.9352810e-05   5.2476767e-05   8.6516069e-05   1.1225109e-04   4.2049400e-05   9.4367839e-05   7.5917167e-05   4.0546944e-05
   9.7372169e-05   9.9105149e-05   6.5753629e-05   8.4372812e-05   6.7079527e-05   1.0398864e-04   1.1963180e-04   8.8326007e-05   5.7387999e-05  -4.6421564e-04  -4.9989485e-06  -5.4471893e-04   6.7214671e-05   9.7707365e-05  -2.9670916e-06   1.3419558e-04   8.9160189e-05   9.9195604e-05   2.4901401e-05   1.1208337e-04  -2.0922930e-04  -8.6635460e-05   8.7527551e-05   3.5785157e-05   5.6914239e-05   1.0142705e-04   1.3977692e-04   6.5333705e-05   1.4417282e-04   1.2408830e-05   7.6466815e-05   5.4933789e-05   6.2510881e-05   6.2235362e-05   7.0486523e-05   1.8883903e-04   1.1306062e-04   9.4668256e-05   8.2323961e-05   8.6654101e-05   4.3461590e-05   6.0575844e-06   5.9524282e-05   7.1822949e-05   1.1019481e-04   1.3085526e-04   6.8919493e-05   7.1981514e-05   5.0780098e-05   4.6776247e-05
   1.3045552e-04   1.3838291e-04   8.7943408e-05   1.3163668e-04   7.0563387e-05   1.1468057e-04   1.3476913e-04   7.8631063e-05   1.1047770e-04  -4.3650615e-04   3.1410007e-05  -5.1357353e-04   9.1795991e-05   1.0634954e-04   5.4841566e-06   1.2483902e-04   8.2087405e-05   8.9275163e-05   6.8638663e-05   9.6983909e-05  -1.6972251e-04  -3.0420022e-05   1.1071174e-04   3.7437727e-05   1.1270967e-04   1.4707845e-04   1.2299839e-04   7.3293042e-05   9.6856362e-05   7.5849466e-06   8.6986656e-05   6.4747357e-05   1.0672695e-04   8.0383761e-05   7.1087125e-05   1.7434692e-04   9.5891148e-05   9.1159818e-05   8.6489083e-05   5.9292219e-05   4.4491007e-05  -2.2097020e-05   7.4606985e-05   6.4423170e-05   6.8002999e-05   1.0852451e-04   5.6804212e-05   7.3935902e-05   5.4274937e-05   3.3368386e-05
   1.2018683e-04   1.2122099e-04   7.8518708e-05   1.1152046e-04   6.3764477e-05   1.1564128e-04   1.3044412e-04   8.9411449e-05   9.8867706e-05  -4.4577033e-04   2.3634551e-05  -5.3154136e-04   8.9996509e-05   1.0805148e-04   8.8139132e-06   1.3205536e-04   8.1169623e-05   8.8620036e-05   2.9902965e-05   1.0151700e-04  -2.1200118e-04  -6.2405183e-05   1.0102434e-04   2.4000419e-05   9.6188327e-05   1.2851159e-04   1.3205795e-04   6.7862144e-05   1.2023237e-04   1.1539800e-05   8.7781460e-05   5.9841339e-05   6.9314781e-05   7.1028648e-05   7.7593984e-05   1.6924996e-04   1.0462901e-04   8.4092891e-05   7.4559117e-05   6.4346881e-05   2.3593762e-05  -1.3096010e-06   6.1697181e-05   4.8146561e-05   1.0698570e-04   1.0605003e-04   7.1041075e-05   7.7855693e-05   5.6513065e-05   2.9608533e-05
   9.0963978e-05   9.4517978e-05   5.7302404e-05   7.6549455e-05   6.8753834e-05   1.1418942e-04   1.1971693e-04   8.9847978e-05   7.5756223e-05  -4.4272075e-04  -1.9037027e-06  -5.2127632e-04   9.1318594e-05   1.1249432e-04   9.8981591e-06   1.2629232e-04   6.2553532e-05   8.7103959e-05   6.7853522e-05   1.2907898e-04  -1.6039558e-04  -1.0071859e-05   1.3674283e-04   5.5907924e-05   1.1447781e-04   1.5415315e-04   1.3597375e-04   7.1309645e-05   1.1149504e-04   1.4272115e-05   9.0139307e-05   5.4056491e-05   9.8708333e-05   8.6587417e-05   7.8967343e-05   1.9326560e-04   1.0279728e-04   8.8034409e-05   9.5275689e-05   7.9631449e-05   5.0403218e-05   1.3893867e-06   9.2725946e-05   7.1917886e-05   6.9798036e-05   1.2961907e-04   6.7575253e-05   1.5722419e-04   7.6679346e-05   6.8545094e-05
   1.2317169e-04   1.0081260e-04   7.6613862e-05   1.2316597e-04   6.6332977e-05   1.2141485e-04   1.3057592e-04   8.3406791e-05   1.2800809e-04  -4.2806700e-04   4.1424024e-05  -5.1755575e-04   1.0156845e-04   1.1147463e-04   2.4598261e-05   1.1834894e-04   6.6174638e-05   8.2331702e-05   5.3608794e-05   1.0355117e-04  -1.9003289e-04  -1.4565078e-05   1.0928520e-04   4.1338684e-05   9.7183263e-05   1.5846200e-04   1.2903019e-04   6.9215144e-05   9.2736482e-05   1.4879814e-05   9.4699644e-05   4.1474716e-05   7.8223653e-05   8.5371248e-05   7.1889917e-05   1.8237463e-04   9.8147932e-05   9.5028030e-05   8.3611943e-05   6.8133333e-05   2.3713033e-05   1.8659945e-05   6.4556734e-05   6.3579260e-05   7.8716519e-05   1.2642062e-04   8.1587925e-05   5.2120417e-05   4.7554684e-05   3.8908300e-05
   1.0361114e-04   9.5948140e-05   6.4639586e-05   9.6827884e-05   6.1985214e-05   1.1041300e-04   1.1352552e-04   8.1451530e-05   8.4759457e-05  -4.3855826e-04   2.1003854e-05  -5.3263293e-04   8.7550812e-05   1.0199524e-04   1.9432840e-05   1.2240795e-04   6.8347174e-05   8.5304375e-05   2.7617527e-05   1.1320596e-04  -1.9466868e-04  -6.2887601e-05   1.0356047e-04   5.3355743e-06   9.2520408e-05   1.1491678e-04   1.1322250e-04   9.0414032e-05   1.1910821e-04   2.0046677e-05   7.9078338e-05   5.1627274e-05   6.0008671e-05   6.9923735e-05   7.7866687e-05   1.4101520e-04   9.9836136e-05   8.2991377e-05   8.3386920e-05   6.8692454e-05   4.4807707e-06  -2.2120077e-05   5.9237940e-05   3.9549883e-05   8.1286962e-05   1.0965907e-04   7.3008159e-05   8.1841637e-05   6.5980450e-05   5.1783518e-05
   7.7934026e-05   7.2222283e-05   4.1676682e-05   5.8249017e-05   6.5164808e-05   9.3225812e-05   1.0990029e-04   7.7061341e-05   6.4898981e-05  -4.5723343e-04  -5.0239687e-06  -5.4805417e-04   7.2255258e-05   9.4141134e-05  -2.0472751e-06   1.1335894e-04   7.3283103e-05   7.7426812e-05   8.9370642e-06   7.8435514e-05  -2.5103637e-04  -9.3311544e-05   9.8671699e-05   4.3216904e-05   8.1583523e-05   8.3496787e-05   1.2585468e-04   6.7845576e-05   1.1233586e-04   2.3462244e-05   7.3695643e-05   4.1908141e-05   5.5629298e-06   4.3817588e-05   7.4304386e-05   1.5563195e-04   1.0507467e-04   9.1707778e-05   8.6882967e-05   8.7581902e-05   4.2536998e-05   3.0231713e-06   8.0738748e-05   7.2240393e-05   9.6813645e-05   1.2181688e-04   9.0354057e-05   8.4281877e-05   7.3435549e-05   8.3628795e-05
   1.1497329e-04   1.3647390e-04   7.1159127e-05   1.2798299e-04   6.7259047e-05   1.1713915e-04   1.3998542e-04   8.3573330e-05   1.5435710e-04  -4.1390854e-04   4.5382465e-05  -5.0959020e-04   9.4455165e-05   1.0559755e-04   2.2723465e-05   9.6654723e-05   5.9116734e-05   7.2012677e-05   5.3834017e-05   9.1610505e-05  -1.4894299e-04  -1.3239176e-05   1.3643001e-04   2.0786962e-05   1.1591404e-04   1.5791657e-04   1.1052834e-04   7.8684774e-05   8.6108063e-05   2.0447751e-05   8.2285733e-05   5.6190765e-05   1.3819763e-04   9.4976152e-05   7.4149946e-05   1.7453374e-04   1.1182360e-04   9.7672397e-05   9.3884773e-05   8.9242465e-05   5.5000626e-05   4.3208775e-07   7.4667099e-05   6.7776105e-05   9.4339957e-05   1.1731363e-04   9.0473848e-05   9.2598239e-05   9.3370800e-05   9.0320966e-05
   1.0153790e-04   1.2266554e-04   6.2546380e-05   1.0694726e-04   6.4808002e-05   1.0370133e-04   1.2204505e-04   7.7061370e-05   1.2195580e-04  -4.2557716e-04   3.8876613e-05  -5.2499003e-04   8.4782499e-05   1.0290821e-04   2.3800054e-05   9.2830393e-05   5.6452322e-05   7.3939198e-05   4.2504103e-05   7.3409035e-05  -1.8709825e-04  -3.6104855e-05   1.2029372e-04   2.9339895e-05   1.0382300e-04   1.3318604e-04   1.2205241e-04   8.1199287e-05   9.8422657e-05   2.5098825e-05   7.7038727e-05   4.3803560e-05   1.0841275e-04   7.2087518e-05   7.0559690e-05   1.7469283e-04   1.0236633e-04   9.5332281e-05   8.5083404e-05   9.0847614e-05   2.1691527e-05   4.2646984e-06   6.6252607e-05   5.6544308e-05   6.7819819e-05   1.0165148e-04   9.1492730e-05   1.0543631e-04   7.6665965e-05   7.1069735e-05
   7.6817123e-05   7.7654549e-05   3.8409831e-05   6.3006955e-05   6.0694685e-05   9.6846823e-05   1.0433713e-04   7.5215430e-05   8.7461747e-05  -4.3869700e-04   1.2638728e-05  -5.4024084e-04   6.9290320e-05   8.3150408e-05   1.2686564e-05   8.6584805e-05   5.5884306e-05   7.0487433e-05   1.6441274e-05   1.0067093e-04  -2.0362253e-04  -9.2341616e-05   1.1265468e-04   2.4350504e-05   9.4026189e-05   8.1540813e-05   1.1840949e-04   7.2668707e-05   1.1058571e-04   2.9363533e-05   7.4206910e-05   4.0079587e-05   4.1713763e-05   4.4310982e-05   7.6875272e-05   1.2333249e-04   1.0119502e-04   8.7067368e-05   7.5752185e-05   8.3539417e-05   2.3552223e-06   9.4237475e-06   5.3830070e-05   2.9638564e-05   7.4128213e-05   1.0081034e-04   9.4283459e-05   1.3984571e-04   4.9209491e-05   5.6949859e-05
   7.1577502e-05   7.8037847e-05   4.6505007e-05   7.5685566e-05   6.7085370e-05   1.1111694e-04   1.2034934e-04   8.1940787e-05   1.2733848e-04  -4.0927832e-04   2.2403199e-05  -5.1000621e-04   8.0184822e-05   8.3552964e-05   9.0573685e-06   6.9506590e-05   4.5168134e-05   4.5997316e-05   5.0384784e-05   8.2385239e-05  -1.3206671e-04  -2.1240778e-05   1.4177577e-04   5.2231098e-06   1.2912799e-04   1.4633265e-04   1.0917767e-04   7.8832236e-05   6.6163266e-05   2.6729991e-05   8.3587802e-05   4.4824148e-05   1.2765503e-04   9.5626863e-05   7.6342258e-05   1.8103888e-04   1.0245795e-04   1.0181119e-04   9.5062540e-05   1.1520617e-04   6.2004481e-05   4.1173076e-05   9.4319978e-05   6.4762287e-05   7.7237622e-05   1.3062592e-04   9.8884797e-05   1.2719033e-04   7.2842646e-05   6.0401002e-05
   9.8654120e-05   1.1855269e-04   5.4395328e-05   1.0957283e-04   6.1222534e-05   1.1672833e-04   1.2199976e-04   7.5293290e-05   1.1968362e-04  -4.0561191e-04   4.7642341e-05  -5.1676796e-04   7.6318269e-05   6.8973844e-05   2.1627033e-05   6.2693456e-05   4.3226428e-05   4.6240239e-05   4.7348523e-05   6.4693384e-05  -1.6118759e-04  -4.2992844e-05   1.2451712e-04   2.4032665e-06   9.8283002e-05   1.2398504e-04   1.0198545e-04   7.4661140e-05   1.0082118e-04   2.7232601e-05   7.5741656e-05   4.4092179e-05   8.2111961e-05   7.6337936e-05   6.9473732e-05   1.6359318e-04   1.0974526e-04   9.2345355e-05   8.0398066e-05   1.0705271e-04   5.0800965e-05   5.5032979e-05   8.7526249e-05   4.3339056e-05   1.0161570e-04   8.8898756e-05   9.2827868e-05   1.1433489e-04   8.0837613e-05   4.6087916e-05
   7.5494543e-05   8.5303021e-05   3.7759961e-05   7.1307644e-05   5.5008208e-05   1.0418372e-04   1.0897119e-04   6.9559283e-05   1.1903943e-04  -4.1733676e-04   2.7867934e-05  -5.3920725e-04   6.1262916e-05   6.9460446e-05   3.7147893e-06   5.9530310e-05   4.8846807e-05   4.1675568e-05   2.1994700e-05   5.6954850e-05  -1.7997334e-04  -9.0270158e-05   1.1397096e-04  -3.0607025e-06   9.4990319e-05   7.5912074e-05   1.0681024e-04   7.3919036e-05   9.0916568e-05   2.9202676e-05   6.5283763e-05   3.5164379e-05   5.9232694e-05   3.4727302e-05   6.3702500e-05   1.3862690e-04   9.8856050e-05   8.9149326e-05   7.2722985e-05   8.6881308e-05   2.1966296e-05   8.9927562e-05   6.5034932e-05   3.0484354e-05   8.4647756e-05   9.4910763e-05   1.1218402e-04   1.2204078e-04   8.5286207e-05   7.1349394e-05
   5.4675609e-05   4.4231638e-05   2.8753091e-05   4.9658534e-05   6.0194267e-05   1.0368069e-04   1.0939960e-04   7.9239922e-05   1.0827092e-04  -3.9888627e-04   2.1184062e-05  -5.0947175e-04   6.7394874e-05   6.9913454e-05   2.7258664e-06   4.6552923e-05   3.7767921e-05   3.4700774e-05   6.9426940e-05   8.1094018e-05  -1.5081916e-04  -2.1471053e-05   1.2602082e-04   1.3616447e-05   9.9486984e-05   1.3282777e-04   8.1888575e-05   8.5759311e-05   7.8860649e-05   2.2881099e-05   8.0650403e-05   4.0008643e-05   1.0776745e-04   7.5864496e-05   6.8023714e-05   1.5931930e-04   1.0904702e-04   9.2494702e-05   9.0456866e-05   1.1187039e-04   6.1320789e-05   1.0343975e-04   9.5130134e-05   6.7353474e-05   1.8438317e-04   9.0701942e-05   1.2912744e-04   9.8367309e-05   1.2018099e-04   6.5602078e-05
   9.0090769e-05   1.2317658e-04   5.0179566e-05   1.0317420e-04   6.1000646e-05   1.1022410e-04   1.2055396e-04   7.4980977e-05   1.4694834e-04  -3.8664319e-04   5.4692518e-05  -5.0917146e-04   6.7715489e-05   6.1264313e-05   1.0485120e-05   4.3224623e-05   3.9388662e-05   2.7114182e-05   6.7230365e-05   7.6512086e-05  -1.7222461e-04  -4.0117164e-05   1.3038231e-04  -5.4793877e-06   9.8231656e-05   1.0628145e-04   8.7712819e-05   8.5572865e-05   6.6146218e-05   2.2533945e-05   7.2258321e-05   3.5981826e-05   1.3538153e-04   6.3845182e-05   6.9996931e-05   1.6003918e-04   9.9963960e-05   8.6336418e-05   6.7184847e-05   1.0427285e-04   4.1631240e-05   9.3555806e-05   5.8409638e-05   4.8255446e-05   1.6323550e-04   7.4427953e-05   1.2884513e-04   6.5349144e-05   1.0804143e-04   6.3961539e-05
   6.8859648e-05   1.2545256e-04   3.7692280e-05   7.5852775e-05   6.0156020e-05   1.0066931e-04   1.0686584e-04   7.2190182e-05   1.2053347e-04  -3.9572414e-04   4.2291031e-05  -5.1667821e-04   5.6552337e-05   5.8745060e-05  -2.5051397e-06   4.3322139e-05   4.6514953e-05   2.4939180e-05   1.2421456e-05   7.9284822e-05  -1.8866113e-04  -8.1910206e-05   1.0621484e-04   3.5166075e-05   7.4916941e-05   5.7992282e-05   8.5808802e-05   6.8559406e-05   8.8795969e-05   2.4739849e-05   6.4203276e-05   3.9249520e-05   7.4999662e-05   2.7514296e-05   5.9251568e-05   1.3850738e-04   9.8692013e-05   8.2673527e-05   7.0597111e-05   8.8484550e-05   2.5873969e-05   8.5439962e-05   4.0259354e-05   3.2457145e-05   1.5826944e-04   9.2662412e-05   1.2161311e-04   1.3146187e-04   1.4272489e-04   6.4911590e-05
   8.5516454e-05   1.4040133e-04   5.9824335e-05   1.1328045e-04   6.8485147e-05   1.1376481e-04   1.2492627e-04   8.1416845e-05   1.8726701e-04  -3.7070614e-04   5.9720100e-05  -4.8249145e-04   6.7456051e-05   6.3407308e-05   5.5355740e-06   3.2284435e-05   4.0115588e-05   1.5560761e-05   9.4523930e-05   8.7341286e-05  -1.3705145e-04  -1.6829945e-05   1.2770886e-04   2.4017676e-05   1.0471525e-04   1.1375093e-04   7.8425088e-05   8.4960528e-05   6.3301901e-05   2.1890201e-05   7.4784781e-05   4.5880064e-05   1.3342840e-04   6.1770530e-05   5.9698541e-05   1.8338743e-04   9.7218326e-05   8.8865789e-05   7.3184383e-05   1.1080425e-04   5.6913177e-05   1.0589977e-04   8.5060361e-05   6.6937828e-05   1.5405017e-04   8.5494306e-05   1.1741789e-04   1.5164532e-04   1.5340555e-04   7.3942436e-05
   9.5378578e-05   1.2836533e-04   5.7176429e-05   1.1603269e-04   6.1704239e-05   1.1113165e-04   1.2486165e-04   8.0418373e-05   1.6080613e-04  -3.6984513e-04   6.0722177e-05  -4.9050478e-04   5.7270339e-05   6.4756627e-05   1.8613817e-06   3.3559703e-05   4.5675009e-05   1.9072750e-05   5.9046142e-05   7.6962206e-05  -1.7653631e-04  -4.8009108e-05   1.0508948e-04   1.0397778e-05   1.0656774e-04   9.9901546e-05   7.3984709e-05   7.5117430e-05   3.6221587e-05   2.1134772e-05   7.7746459e-05   4.2249754e-05   7.7589793e-05   4.7251371e-05   6.3376501e-05   1.6786500e-04   1.0622336e-04   8.2761690e-05   6.5847918e-05   9.6864191e-05   4.6744564e-05   8.5188760e-05   7.3266245e-05   5.3311098e-05   1.7070054e-04   9.5896386e-05   1.1383994e-04   1.3529084e-04   1.2829684e-04   8.2924736e-05
   7.6903358e-05   1.0100153e-04   4.5882629e-05   7.5591204e-05   6.5605149e-05   1.0824774e-04   1.1291996e-04   7.5145377e-05   1.2074797e-04  -3.7961826e-04   3.5684097e-05  -5.1613816e-04   4.2238313e-05   5.6618250e-05  -1.0713278e-05   4.0281055e-05   5.0056668e-05   9.7766742e-06   2.7981905e-05   4.8165140e-05  -1.9767712e-04  -8.8445609e-05   9.5621603e-05  -1.5925581e-06   6.1870225e-05   4.3317585e-05   7.9528625e-05   7.7116470e-05   7.6391560e-05   2.9540906e-05   6.6050830e-05   4.0693285e-05   7.6291857e-05   1.6357346e-05   5.7144389e-05   1.5863382e-04   8.9668072e-05   9.4301206e-05   6.5930006e-05   1.1921394e-04   7.2358998e-05   7.3407478e-05   9.7357894e-05   7.6949444e-05   2.1344848e-04   8.8241068e-05   1.1396030e-04   1.1558316e-04   1.5881179e-04   9.7895776e-05
   1.1765116e-04   1.2782590e-04   7.6871584e-05   1.3586215e-04   6.6379936e-05   1.2205724e-04   1.4189591e-04   7.5506628e-05   1.9019202e-04  -3.5288007e-04   6.2130530e-05  -4.7378469e-04   5.6089437e-05   5.8713875e-05   2.9956386e-06   2.8020415e-05   4.4520039e-05   1.0724967e-05   6.8530819e-05   5.4045584e-05  -1.3720163e-04  -3.2974589e-05   1.1890871e-04   9.2221253e-06   1.0627228e-04   9.4616560e-05   6.7044581e-05   8.1628605e-05   6.3300460e-05   2.3347249e-05   7.8843819e-05   3.7638438e-05   7.4537660e-05   5.9026883e-05   5.8328114e-05   1.4720210e-04   9.5826093e-05   8.9558089e-05   7.1868446e-05   1.1071280e-04   7.7383454e-05   4.9889426e-05   8.7134627e-05   8.2579667e-05   1.8358398e-04   7.8956808e-05   1.0263830e-04   1.4261085e-04   1.2159131e-04   9.9684810e-05
   1.0322958e-04   1.3428910e-04   7.2043505e-05   1.1215045e-04   6.7595603e-05   1.1590096e-04   1.2426946e-04   7.0803675e-05   1.3929060e-04  -3.5732720e-04   3.9266935e-05  -4.8547061e-04   4.4507487e-05   5.8707377e-05   8.7501496e-07   3.7326994e-05   5.7031812e-05   1.0726741e-05   6.6623339e-05   6.7052206e-05  -1.3964203e-04  -6.5666267e-05   1.0312504e-04   2.0345484e-05   9.2602822e-05   6.9837421e-05   7.3985546e-05   7.5278236e-05   6.7742454e-05   2.7593904e-05   8.4832856e-05   4.7014895e-05   1.1750073e-04   3.6511097e-05   5.9940146e-05   1.4758311e-04   1.0305895e-04   8.6122236e-05   6.2593070e-05   1.0293612e-04   4.8587528e-05   6.3495725e-05   6.8657355e-05   4.0044524e-05   1.7161647e-04   7.3616226e-05   9.8492870e-05   1.1452255e-04   6.9775764e-05   8.8279943e-05
   8.4213469e-05   7.2830153e-05   5.8868914e-05   6.4547450e-05   7.4593227e-05   1.0873863e-04   1.0846359e-04   8.5652879e-05   8.5201362e-05  -3.6959848e-04   6.5229337e-06  -4.9885246e-04   3.8219732e-05   6.2120780e-05  -8.8233037e-06   5.0350180e-05   5.1000188e-05   2.6310216e-05   4.0811236e-05   8.0700382e-05  -1.4447930e-04  -5.3319502e-05   9.3539013e-05   4.8600690e-05   8.0806662e-05   8.2067294e-05   8.3195504e-05   7.4728072e-05   7.2023089e-05   2.5746840e-05   8.3332670e-05   4.5518009e-05   1.0089633e-04   6.5688662e-05   6.6308960e-05   1.7937920e-04   1.1414356e-04   1.0120107e-04   7.6751421e-05   1.1657691e-04   7.9903461e-05   5.2686573e-05   9.3600444e-05   9.4927993e-05   1.7656504e-04   6.8751848e-05   9.5923773e-05   1.6783457e-04   1.0386088e-04   8.5910615e-05
   1.3765927e-04   1.6012599e-04   9.4083160e-05   1.3611268e-04   7.8247824e-05   1.1621461e-04   1.3881392e-04   8.0518970e-05   1.5488746e-04  -3.3513573e-04   4.5821522e-05  -4.6762684e-04   4.7404836e-05   6.8194044e-05   3.0710437e-06   4.8161462e-05   5.9615657e-05   1.6539576e-05   6.4845139e-05   1.1638373e-04  -1.4816695e-04  -3.2387539e-05   9.6878575e-05   1.3416229e-05   7.7610996e-05   9.3036368e-05   6.7171430e-05   7.0193615e-05   7.6799770e-05   2.8138384e-05   9.1644448e-05   5.0403618e-05   9.1351198e-05   5.1973064e-05   6.6808498e-05   1.6909160e-04   9.6530603e-05   8.9948495e-05   7.7631594e-05   9.7073091e-05   5.2204243e-05   2.5605923e-05   5.0376890e-05   7.0021684e-05   1.0592837e-04   6.8345325e-05   9.8224693e-05   1.0057163e-04   1.2049481e-04   6.8199886e-05
   1.2383453e-04   1.1717663e-04   8.7110428e-05   1.0627854e-04   7.6649943e-05   1.1941401e-04   1.2776874e-04   8.0697420e-05   1.1212806e-04  -3.3855528e-04   2.6893718e-05  -4.7697886e-04   4.5185679e-05   7.1856673e-05  -3.2477297e-07   6.4893771e-05   6.8454901e-05   4.9171820e-05   5.4381708e-05   1.0316839e-04  -1.7141170e-04  -7.1809198e-05   1.0622638e-04   6.5603040e-06   7.5615571e-05   5.8538924e-05   7.6919234e-05   8.3563100e-05   8.7128181e-05   3.2520638e-05   9.5973606e-05   5.7304453e-05   1.2107279e-04   3.1520653e-05   7.3248368e-05   1.5166288e-04   1.0131579e-04   9.4246599e-05   7.7606288e-05   8.9369358e-05   1.7493159e-05  -1.8334872e-06   2.8981076e-05   5.0681865e-05   1.2519040e-04   7.3244344e-05   1.0742478e-04   1.5876080e-04   7.2079136e-05   6.4823034e-05
   9.5085052e-05   8.9708134e-05   7.0455942e-05   6.0653267e-05   8.3020335e-05   1.0793949e-04   1.1558989e-04   9.6332202e-05   8.3825122e-05  -3.4649714e-04  -5.0579229e-06  -4.9036118e-04   3.3574393e-05   7.3577132e-05  -2.3818591e-06   7.7886769e-05   7.6623714e-05   5.8996811e-05   1.6380587e-05   7.2784773e-05  -1.5721831e-04  -7.5209980e-05   8.5689695e-05   2.7978986e-05   7.5525051e-05   4.5875000e-05   9.7663586e-05   7.6252792e-05   7.8050260e-05   3.8553746e-05   8.1247534e-05   5.5081116e-05   4.7344238e-05   4.7992238e-05   7.0124428e-05   1.6980898e-04   1.1469755e-04   1.0281903e-04   8.2768813e-05   1.2642211e-04   7.3143390e-05   1.9397592e-05   9.1939182e-05   7.7719415e-05   1.7804133e-04   6.6609260e-05   9.8100209e-05   1.4558046e-04   8.5923428e-05   1.1044965e-04
   1.4337950e-04   1.3396020e-04   1.0553435e-04   1.3357450e-04   8.6688131e-05   1.2732513e-04   1.4151656e-04   9.1453592e-05   1.2424785e-04  -3.0858684e-04   4.1096013e-05  -4.5118853e-04   4.9719209e-05   8.2580147e-05   5.9777526e-06   7.7275901e-05   7.2756651e-05   4.1195246e-05   9.1752459e-05   9.7098353e-05  -1.3831882e-04  -2.6140415e-05   1.0086584e-04   4.0252035e-05   9.9958634e-05   1.0377461e-04   8.9581277e-05   9.2336442e-05   6.6572051e-05   3.2452313e-05   9.0869566e-05   5.3373766e-05   1.2046461e-04   6.4597371e-05   6.3725260e-05   1.7246905e-04   1.1969123e-04   1.0173552e-04   8.3522151e-05   1.1796835e-04   3.7715690e-05   1.3280230e-05   2.9681833e-05   8.0488047e-05   9.5945725e-05   8.5960564e-05   9.2391303e-05   1.2302509e-04   8.9916022e-05   8.2156170e-05
   1.2824249e-04   1.3309644e-04   9.6156196e-05   1.0456322e-04   8.3593906e-05   1.2305699e-04   1.3172270e-04   8.7694978e-05   1.0085904e-04  -3.1406881e-04   2.7033373e-05  -4.6234639e-04   3.9673232e-05   8.5434236e-05   8.4951926e-06   9.2759954e-05   8.0464131e-05   6.8086672e-05   4.7051148e-05   9.3744457e-05  -1.5414105e-04  -6.2945350e-05   9.5440228e-05   3.9602703e-05   6.9711248e-05   5.9209091e-05   9.1869799e-05   8.1671031e-05   8.2729282e-05   3.6272657e-05   9.0541907e-05   5.9101978e-05   7.2860559e-05   4.4535504e-05   7.5292082e-05   1.5071298e-04   1.0686930e-04   1.0473777e-04   8.1685663e-05   9.4484181e-05   2.0403530e-05  -2.6756338e-06   3.0453079e-05   5.2702588e-05   1.2107501e-04   7.4743082e-05   1.3752743e-04   1.1495049e-04   4.2651445e-05   5.5402172e-05
   1.0126660e-04   6.2373532e-05   7.6727927e-05   6.1306360e-05   8.6587104e-05   1.1016744e-04   1.1213950e-04   1.0338780e-04   6.3019317e-05  -3.2229660e-04  -1.9687329e-06  -4.7658462e-04   3.5866102e-05   8.9871122e-05  -1.5460394e-06   1.0262291e-04   8.4178137e-05   7.6226133e-05   4.4189783e-06   8.6609827e-05  -2.0112000e-04  -9.2749542e-05   7.8980316e-05   4.6795256e-05   5.2487947e-05   3.6342131e-05   1.0685000e-04   8.2772174e-05   1.1759204e-04   4.2765863e-05   8.3465493e-05   5.4293516e-05   9.6675816e-05   2.4686591e-05   7.2487914e-05   1.7029450e-04   1.1620326e-04   1.1060020e-04   9.6442338e-05   1.0905310e-04   4.7495578e-05   4.1038023e-05   4.9869326e-05   7.7508892e-05   1.0917854e-04   8.7758577e-05   1.3181582e-04   8.6597131e-05   7.5815035e-05   7.9282989e-05
   1.3563767e-04   1.2398424e-04   1.0649543e-04   1.2595362e-04   9.0420603e-05   1.3051613e-04   1.4262871e-04   9.8315642e-05   1.1010722e-04  -2.9405628e-04   4.1635274e-05  -4.3501286e-04   4.5023091e-05   9.2025373e-05   8.8846336e-06   1.0147052e-04   7.9058314e-05   6.2383922e-05   5.8811085e-05   1.2526440e-04  -1.3991479e-04  -3.2725547e-05   9.8981000e-05   4.6805810e-05   1.1318377e-04   9.6355521e-05   8.4895502e-05   8.0735772e-05   1.3596712e-04   3.3148382e-05   8.4211431e-05   5.4073127e-05   6.9182504e-05   5.6689983e-05   7.4415140e-05   1.8371572e-04   1.0984993e-04   1.0347667e-04   9.7288757e-05   1.0468142e-04   3.0384213e-05   3.1583862e-05   1.4723898e-05   7.2564028e-05   1.0633645e-04   8.6977365e-05   1.1497701e-04   6.1031245e-05   5.0307626e-05   6.3024039e-05
   1.1928643e-04   1.0554102e-04   9.4920666e-05   1.0384796e-04   8.6747641e-05   1.2578389e-04   1.3831258e-04   1.0152401e-04   9.1352347e-05  -3.0366878e-04   1.9720472e-05  -4.4820743e-04   4.5971756e-05   1.0099207e-04   8.0380732e-06   1.0842852e-04   8.5233318e-05   7.2025585e-05   3.9222385e-05   9.7780772e-05  -1.4979808e-04  -5.1678606e-05   8.7598666e-05   4.9447615e-05   9.1125279e-05   7.0714792e-05   1.1643103e-04   8.1557278e-05   1.0871395e-04   3.9159542e-05   8.6516506e-05   6.5089982e-05   1.1850327e-04   4.7975020e-05   7.6057280e-05   1.6632499e-04   1.0797993e-04   1.0181344e-04   8.8997556e-05   9.4589595e-05   9.6204913e-06   9.6716394e-06   1.2281796e-05   5.2144416e-05   9.9048775e-05   8.3814659e-05   1.2324535e-04   9.2717688e-05   2.8375011e-05   5.7501988e-05
   9.0945119e-05   7.1619121e-05   7.1677605e-05   6.1067978e-05   9.3653427e-05   1.1487117e-04   1.2693336e-04   1.2029657e-04   6.4784668e-05  -3.1584021e-04  -1.0102418e-05  -4.6206178e-04   3.7269656e-05   1.0153971e-04   5.3047270e-06   1.1985848e-04   8.5174077e-05   7.7178302e-05   1.1477040e-05   1.1245617e-04  -1.8805166e-04  -5.5617347e-05   7.8520206e-05   2.1175481e-05   8.7935186e-05   7.2390372e-05   9.3659692e-05   8.0476289e-05   1.1491118e-04   4.0017618e-05   8.6716376e-05   6.0243150e-05   8.7946690e-05   6.0769878e-05   7.6263386e-05   1.7879307e-04   1.2731412e-04   1.0757444e-04   1.0670674e-04   1.3058224e-04   3.4102715e-05   2.9951776e-05   4.3722252e-05   7.9695797e-05   1.0495671e-04   8.2840954e-05   1.5585618e-04   6.3502201e-05   6.8644018e-05   5.5301723e-05
   1.2701751e-04   1.3023763e-04   1.0476730e-04   1.2817935e-04   8.8162182e-05   1.2819709e-04   1.5175206e-04   1.0684959e-04   1.0235239e-04  -2.8778572e-04   3.1022220e-05  -4.2928357e-04   5.1574512e-05   1.0448516e-04   1.8705454e-05   1.0988490e-04   8.3141844e-05   7.0299437e-05   5.3473173e-05   1.3061310e-04  -1.4600148e-04  -3.0654017e-05   1.0177527e-04   3.9714534e-05   1.0145648e-04   9.3620358e-05   9.5361240e-05   8.2146085e-05   9.3445786e-05   3.8182628e-05   9.8973767e-05   7.0701833e-05   1.6363352e-04   6.3876505e-05   7.7256198e-05   1.9371766e-04   1.1617420e-04   1.0921294e-04   9.8374214e-05   1.1103608e-04   2.6379155e-05   1.2680372e-05   3.1034335e-05   5.6536333e-05   1.1109930e-04   7.7523502e-05   1.3579466e-04   8.0074176e-05   2.7147530e-06   4.0994881e-05
   1.1370813e-04   1.0803372e-04   8.7520275e-05   1.0178992e-04   8.7288412e-05   1.2680040e-04   1.4220380e-04   1.0378366e-04   7.7321769e-05  -2.9414447e-04   8.7591479e-06  -4.4322698e-04   4.7191210e-05   1.1399638e-04   1.4900113e-05   1.1506741e-04   8.8666005e-05   7.7323464e-05   5.4924978e-05   7.3852396e-05  -1.8210404e-04  -5.6385554e-05   9.2149712e-05   4.4139844e-05   6.8306894e-05   6.4927888e-05   1.1807660e-04   1.0121170e-04   1.2596315e-04   4.5153778e-05   9.9504730e-05   8.3758488e-05   1.2679644e-04   6.3180800e-05   8.3250627e-05   1.6365122e-04   1.0852959e-04   9.1313501e-05   1.0445848e-04   1.0977398e-04   8.1923044e-06   6.8599666e-06   2.2160568e-05   4.5282679e-05   4.5773028e-05   8.7491098e-05   1.2460689e-04   1.2374413e-04   8.9190244e-06   6.0020455e-05
   1.0700401e-04   8.6870437e-05   9.4214840e-05   1.0585691e-04   9.1167298e-05   1.3350791e-04   1.4686969e-04   1.0696398e-04   1.0373202e-04  -2.7651811e-04   9.3184017e-06  -4.1299185e-04   5.5895671e-05   1.0452874e-04   2.0361951e-05   1.1105576e-04   8.2691011e-05   8.1656544e-05   8.3915344e-05   1.3021601e-04  -1.5055898e-04  -3.3938752e-06   1.0855094e-04   4.8500089e-05   1.3095139e-04   1.2650176e-04   1.0426291e-04   8.9068933e-05   1.1930821e-04   4.5965029e-05   1.0158844e-04   8.0256352e-05   1.5025679e-04   1.0498281e-04   8.6291155e-05   1.8972513e-04   1.2830619e-04   1.0619305e-04   1.1587517e-04   1.3323908e-04   3.0983334e-05  -2.5686546e-05   3.1474308e-05   8.2874190e-05   5.3680869e-05   7.2377661e-05   1.1967230e-04   1.2517911e-04   8.0275713e-05   2.7258971e-05
   1.2216734e-04   1.1278929e-04   9.7596960e-05   1.2307771e-04   8.5182517e-05   1.3094797e-04   1.5065396e-04   1.0788107e-04   1.0566573e-04  -2.8101640e-04   1.2667745e-05  -4.2540251e-04   4.9227929e-05   1.0735412e-04   2.5274336e-05   1.1275671e-04   8.9440262e-05   8.0989033e-05   5.3212731e-05   1.0789881e-04  -1.0755816e-04  -2.2988723e-05   1.1308064e-04   1.5893302e-05   1.0626594e-04   8.9214591e-05   1.0483918e-04   9.7686047e-05   1.0330488e-04   4.8251022e-05   1.0144793e-04   7.4114650e-05   1.3950493e-04   8.4080384e-05   8.7063338e-05   1.6654933e-04   1.3719530e-04   1.1129707e-04   1.1522181e-04   1.2417742e-04   1.7967232e-05   2.5815498e-06   2.4778925e-05   7.0529684e-05   7.2817907e-05   9.5063966e-05   1.1250075e-04   8.3594401e-05   9.8783430e-06   4.6207646e-05
   9.9977136e-05   9.1902730e-05   8.0486265e-05   8.9410758e-05   8.5488799e-05   1.2846316e-04   1.3914087e-04   1.1284122e-04   5.9133341e-05  -2.9437343e-04  -1.6347798e-05  -4.4719665e-04   3.7047332e-05   1.1806755e-04   1.8531186e-05   1.2124471e-04   9.5178002e-05   8.8381006e-05   2.2574726e-05   1.2702162e-04  -1.7917732e-04  -6.9402864e-05   9.2032467e-05   2.5634581e-05   7.4556039e-05   5.3950815e-05   1.1787337e-04   1.1462473e-04   1.2868298e-04   5.5127693e-05   8.8995213e-05   6.0339549e-05   1.3496150e-04   5.4964559e-05   8.2989121e-05   1.6426330e-04   1.3345889e-04   1.1570888e-04   1.1386277e-04   1.1774927e-04   3.6852362e-05  -9.3283534e-06   6.0138147e-05   8.9711008e-05   9.4355877e-05   1.0235969e-04   8.6747728e-05   1.3154639e-04   4.7998856e-05   3.7025908e-05
   1.3474096e-04   1.3358486e-04   1.0303127e-04   1.4039059e-04   8.9325767e-05   1.3528555e-04   1.6277134e-04   1.0277413e-04   1.1824509e-04  -2.6449439e-04   1.4762671e-05  -4.1551763e-04   5.2269854e-05   1.1513969e-04   2.4896683e-05   1.1059899e-04   8.4102518e-05   8.2238890e-05   6.1850864e-05   1.0500768e-04  -1.0490719e-04   9.0106573e-07   1.0672077e-04   4.1971314e-05   9.6459575e-05   1.1507419e-04   1.0142725e-04   1.1625538e-04   9.9431141e-05   5.1044080e-05   9.6302261e-05   7.5381809e-05   1.8403011e-04   1.0213595e-04   8.9604851e-05   1.8041230e-04   1.3222087e-04   1.1472710e-04   1.1245633e-04   1.2496779e-04   3.8195940e-05  -1.0902188e-05   6.0479528e-05   6.9358728e-05   8.8766108e-05   9.1033551e-05   9.7122029e-05   1.1577539e-04   2.1495736e-05   2.4911416e-05
   1.2400851e-04   1.2770742e-04   9.6027754e-05   1.2155007e-04   8.7420638e-05   1.3021757e-04   1.5177652e-04   1.0600690e-04   8.5631320e-05  -2.7087869e-04   1.3114635e-06  -4.2741589e-04   4.7469151e-05   1.0874429e-04   2.6744849e-05   1.1370031e-04   8.5183041e-05   7.7781871e-05   5.9203117e-05   9.5839256e-05  -1.4381208e-04  -3.7049031e-05   1.0651023e-04   3.2795033e-05   1.1021370e-04   7.6386867e-05   1.0035763e-04   1.1271171e-04   1.1118088e-04   5.1537831e-05   1.0018988e-04   6.7694316e-05   1.4404079e-04   8.9907895e-05   9.5850031e-05   1.6404118e-04   1.2005407e-04   1.0928499e-04   1.1197628e-04   1.1433880e-04  -3.1230130e-07  -1.6807950e-05   2.6017431e-05   5.7424721e-05   4.8937436e-05   8.0135855e-05   1.2831832e-04   1.0008406e-04  -6.5315588e-05   4.5324115e-05
   9.4356918e-05   9.8255165e-05   7.4258343e-05   7.4538220e-05   8.0787897e-05   1.2719963e-04   1.3902763e-04   1.1296418e-04   6.9080823e-05  -2.7954575e-04  -2.9041865e-05  -4.2745515e-04   4.2791617e-05   1.1977452e-04   2.4013096e-05   1.1538390e-04   7.8959340e-05   9.1126531e-05   3.3310382e-05   9.9496909e-05  -1.4486381e-04  -8.3770192e-06   9.3311450e-05   3.0558367e-05   1.2079172e-04   9.2599090e-05   1.1207475e-04   9.9576617e-05   1.1695712e-04   4.9013641e-05   9.1044880e-05   6.9289512e-05   1.5328413e-04   9.7617645e-05   9.0177957e-05   1.9073267e-04   1.3760656e-04   1.1588252e-04   1.2742756e-04   1.4830939e-04   3.2327123e-05  -3.5492078e-05   4.4526063e-05   9.3948780e-05   9.1040543e-05   9.4581723e-05   1.3044085e-04   7.4411175e-05  -3.3711556e-05   4.8785852e-05
   1.3523726e-04   1.2021081e-04   1.0701391e-04   1.3558015e-04   8.6796281e-05   1.3758308e-04   1.5456263e-04   1.0314879e-04   1.0503199e-04  -2.5281668e-04   1.9360365e-05  -4.1009576e-04   5.6137513e-05   1.2320367e-04   2.4870273e-05   9.7217875e-05   8.1567377e-05   8.7476816e-05   4.9015383e-05   1.1936022e-04  -8.8136112e-05   6.5636141e-07   1.1040255e-04   5.5923847e-06   1.3655011e-04   1.1630083e-04   1.0237878e-04   1.0722258e-04   1.0129315e-04   5.3553922e-05   8.5375112e-05   7.0072805e-05   1.5028934e-04   9.8922290e-05   9.6254582e-05   1.7465494e-04   1.1906864e-04   1.1216968e-04   1.2282620e-04   1.2233361e-04   2.6710646e-05  -4.6206002e-05   3.2377498e-05   6.5386936e-05   2.9376153e-05   7.5783973e-05   1.2530318e-04   4.7566718e-05  -1.3902119e-05   6.4813183e-05
   1.1805306e-04   1.1985309e-04   9.3537084e-05   1.1089106e-04   8.3950406e-05   1.2895641e-04   1.4526217e-04   1.0899524e-04   1.0221462e-04  -2.6178584e-04   7.1048144e-06  -4.1716103e-04   4.9387007e-05   1.3250639e-04   2.9858329e-05   9.4448173e-05   8.4550746e-05   9.0248126e-05   1.9931504e-05   9.3570357e-05  -1.4238803e-04  -4.2767217e-05   9.4504328e-05   1.4800670e-05   1.0620769e-04   6.5001004e-05   1.1216966e-04   1.0569710e-04   1.2374786e-04   6.1019611e-05   8.0103819e-05   7.2784387e-05   1.2076977e-04   8.1851707e-05   9.0591966e-05   1.5558462e-04   1.2059812e-04   1.0377552e-04   1.1594681e-04   1.0563250e-04  -1.0327355e-05   1.4828987e-06   8.6791324e-06   5.2543739e-05   6.8980160e-05   6.1396320e-05   1.3793573e-04   5.7885114e-05  -6.1424753e-06   9.2466025e-06
   9.4121518e-05   7.1375063e-05   7.1547751e-05   7.2391544e-05   8.3852297e-05   1.2179816e-04   1.4143063e-04   1.0602637e-04   6.4498694e-05  -2.5195730e-04  -1.3576487e-05  -3.9972266e-04   5.3369356e-05   1.2356407e-04   1.7870067e-05   9.4074676e-05   7.1968490e-05   8.4948260e-05   6.4842243e-05   9.7612334e-05  -9.5798678e-05   8.5016154e-06   1.0381065e-04   3.2721106e-05   1.1083317e-04   1.2314659e-04   1.1342749e-04   1.1054673e-04   1.1246880e-04   5.4441534e-05   7.9426318e-05   6.3337335e-05   1.4534077e-04   1.0276450e-04   8.6870532e-05   1.7207168e-04   1.2465157e-04   1.1088112e-04   1.2149895e-04   1.2899752e-04   1.7715078e-05  -3.1129946e-06   3.0956809e-05   7.0218732e-05   1.1164674e-04   8.5565582e-05   1.3149466e-04   8.1020793e-05   3.7705249e-05   5.0470844e-05
   1.4049647e-04   1.0469988e-04   1.0386942e-04   1.3143837e-04   8.3158782e-05   1.3465303e-04   1.5467608e-04   1.1403837e-04   1.3298106e-04  -2.3426460e-04   2.9520153e-05  -3.9367331e-04   5.7804104e-05   1.3342712e-04   2.3546399e-05   7.8400371e-05   7.4955882e-05   7.4702206e-05   4.5411984e-05   1.2767408e-04  -1.7036828e-04  -1.0269878e-06   9.8444667e-05   2.5613861e-05   1.1667316e-04   1.0305932e-04   9.4627132e-05   1.1423765e-04   9.2945549e-05   5.4167704e-05   8.5682688e-05   7.0540184e-05   1.2783511e-04   9.0810841e-05   8.9894915e-05   1.7039459e-04   1.1760135e-04   1.1275501e-04   1.2881335e-04   1.1527928e-04   1.3000910e-05  -2.0797688e-05   1.4285290e-05   6.8707282e-05   8.6122032e-05   7.2188617e-05   1.3449960e-04   3.7560196e-05   2.7316939e-05  -1.9339643e-07
   1.2267980e-04   1.3632797e-04   9.1198359e-05   1.0947977e-04   8.1580991e-05   1.2354508e-04   1.5014563e-04   1.1127516e-04   1.0206075e-04  -2.4647068e-04   1.7214978e-05  -4.0442505e-04   4.3841370e-05   1.2318515e-04   2.0916734e-05   8.0131060e-05   7.8532146e-05   7.1976945e-05   2.4350962e-05   1.0941627e-04  -1.3733334e-04  -4.4208537e-05   9.5525618e-05   2.4674015e-05   7.2435105e-05   5.4697677e-05   1.1640272e-04   9.7759847e-05   1.3817730e-04   6.4344298e-05   7.6205448e-05   6.2292769e-05   1.1143472e-04   7.6155869e-05   9.4755203e-05   1.6113065e-04   1.2141957e-04   9.0453861e-05   1.1859393e-04   9.7088610e-05  -3.2683809e-07  -1.2154413e-05   5.3051149e-06   4.8287264e-05   1.0801251e-04   5.7018759e-05   1.4155068e-04   7.3438467e-05  -2.1910113e-05  -1.7647699e-05
   9.5922711e-05   7.7186567e-05   6.9467460e-05   7.2736955e-05   8.3342456e-05   1.2672499e-04   1.4214386e-04   1.1895841e-04   1.0595481e-04  -2.4129673e-04  -5.9761319e-06  -3.9366688e-04   4.1695730e-05   1.2275927e-04   8.1590124e-06   7.0912669e-05   6.0362501e-05   6.2078521e-05   4.7560545e-05   8.0012331e-05  -1.2667128e-04  -3.1213556e-06   9.9353187e-05   3.0460196e-05   1.0350169e-04   1.1176849e-04   1.0722852e-04   9.7563650e-05   1.2436249e-04   5.7578483e-05   7.7669458e-05   6.4123989e-05   1.2054198e-04   9.1089976e-05   9.1349029e-05   1.8838649e-04   1.2677307e-04   1.1140621e-04   1.3071367e-04   1.2241528e-04   3.0565498e-05  -1.3059323e-06  -3.2530880e-07   8.1186532e-05   1.1643716e-04   5.5537206e-05   1.5617617e-04   8.5406144e-05  -8.7000956e-07   2.8368699e-05
   1.3957205e-04   1.0838036e-04   9.9759491e-05   1.3420096e-04   8.5353640e-05   1.3322834e-04   1.5827667e-04   1.0796702e-04   1.5013025e-04  -2.1907203e-04   4.0296334e-05  -3.8043089e-04   4.5986719e-05   1.1982759e-04   1.5930977e-05   5.9891332e-05   6.1722094e-05   6.6087086e-05   5.1285766e-05   1.1884983e-04  -8.3390129e-05   3.4596519e-06   1.0320715e-04   1.0247923e-05   1.1387476e-04   9.6434102e-05   9.8392287e-05   1.0717084e-04   1.0741709e-04   6.1103739e-05   7.5149175e-05   5.8843383e-05   1.4324101e-04   8.9416608e-05   9.2600654e-05   1.5874756e-04   1.3134976e-04   1.0359859e-04   1.2913643e-04   1.1893954e-04   4.2813435e-06  -2.8913959e-05   1.6987171e-05   5.7362682e-05   1.2913955e-04   4.4010525e-05   1.1730469e-04   8.2035702e-05  -4.5806969e-06  -2.4940241e-06
   1.1859430e-04   9.6399657e-05   8.9414461e-05   1.1479746e-04   8.1274811e-05   1.2690517e-04   1.5335887e-04   1.1269264e-04   9.5107025e-05  -2.2934658e-04   2.1627129e-05  -3.8984366e-04   3.3097051e-05   1.1870160e-04   1.9659763e-05   6.2921536e-05   6.7772438e-05   6.0173788e-05   2.2634198e-05   8.9989720e-05  -1.2737261e-04  -4.8146976e-05   9.2720446e-05   5.9571285e-05   9.6010081e-05   6.3445666e-05   1.1577293e-04   1.0547204e-04   9.5936710e-05   6.0686485e-05   6.8981914e-05   5.7694135e-05   1.0637972e-04   6.2215062e-05   9.2995666e-05   1.4951760e-04   1.1933503e-04   8.8582739e-05   1.2103431e-04   1.1177520e-04  -6.0022235e-06   9.5968899e-06  -2.1387381e-05   3.9794581e-05   1.3751416e-04   4.5637164e-05   1.5896959e-04   7.1475151e-05  -8.7058015e-06  -6.4539208e-06
   1.0174829e-04   7.8161647e-05   7.7522811e-05   9.7002659e-05   8.3419625e-05   1.3421907e-04   1.4844914e-04   1.1559955e-04   1.1981573e-04  -2.1847837e-04   1.7868095e-05  -3.6362538e-04   3.7862137e-05   1.2044745e-04   8.4579333e-06   4.9040751e-05   5.1865693e-05   4.8678896e-05   6.2369501e-05   1.0090492e-04  -7.6934324e-05   2.1879170e-05   9.8568074e-05   5.4290060e-05   1.2760183e-04   1.1934329e-04   1.0240278e-04   9.3964583e-05   1.1585814e-04   6.1446102e-05   8.1852719e-05   5.9827446e-05   1.6312370e-04   1.0159062e-04   9.1895461e-05   1.7605297e-04   1.2865709e-04   1.1035008e-04   1.3639177e-04   1.3402132e-04   2.0181700e-05   1.0697103e-05   3.3059191e-06   7.2716095e-05   1.0501748e-04   6.0097824e-05   1.2536955e-04   9.0487316e-05   2.2749539e-06   7.4124587e-06
   1.3579444e-04   1.0840037e-04   9.8270873e-05   1.4125615e-04   8.1840590e-05   1.3837821e-04   1.5750989e-04   1.1000947e-04   1.4392036e-04  -2.1206113e-04   4.3770324e-05  -3.6606539e-04   3.4872435e-05   1.0903987e-04   2.5633573e-05   4.3440381e-05   5.4623295e-05   4.4369015e-05   7.0035108e-05   1.0493468e-04  -7.6286742e-05   4.4300887e-06   9.8231234e-05   1.5030989e-05   9.0259062e-05   1.0095289e-04   9.1665221e-05   1.0576810e-04   8.8212852e-05   6.1869883e-05   6.8867223e-05   6.2719766e-05   9.4597592e-05   9.3459523e-05   9.3165101e-05   1.7122898e-04   1.3349335e-04   1.0121160e-04   1.3727322e-04   1.2529199e-04   1.2585659e-05   1.1707409e-05  -3.4518766e-06   6.4425309e-05   8.2402337e-05   5.5676137e-05   1.3974331e-04   1.3167711e-05   5.2507462e-06   1.9312649e-05
   1.1731537e-04   1.0216163e-04   8.7440050e-05   1.1336357e-04   8.2511440e-05   1.3359988e-04   1.4606857e-04   1.2249872e-04   1.2134833e-04  -2.1787417e-04   2.8326951e-05  -3.7936497e-04   1.9747260e-05   1.0811359e-04   1.8415980e-05   5.0011709e-05   6.2087092e-05   4.1207841e-05   4.0668772e-05   7.5995296e-05  -1.1727952e-04  -3.0219728e-05   8.2177576e-05   2.7584005e-05   9.9075041e-05   6.4043197e-05   9.1374677e-05   1.1272410e-04   1.3164658e-04   6.9163878e-05   7.5578835e-05   5.3446478e-05   9.6282987e-05   6.7313013e-05   9.5576237e-05   1.4597562e-04   1.3350257e-04   9.1227921e-05   1.3232388e-04   1.1488430e-04  -2.3708722e-06  -4.6129553e-06  -9.7280035e-06   6.0134480e-05   1.2955723e-04   7.3576681e-05   1.5950040e-04   9.8463155e-05  -1.5609625e-05   1.4104857e-05
   1.4691833e-04   1.2807034e-04   1.0909956e-04   1.5318317e-04   8.6980515e-05   1.4509696e-04   1.6948555e-04   1.1759683e-04   1.5684428e-04  -1.9936849e-04   4.9187242e-05  -3.5297152e-04   2.4534620e-05   1.0792351e-04   2.1510106e-05   3.1275846e-05   4.2580497e-05   2.8767961e-05   7.2033799e-05   5.9658763e-05  -8.6034241e-05   3.2049666e-05   9.9713987e-05   3.2121487e-05   1.1217715e-04   1.0476975e-04   8.2402985e-05   9.0831178e-05   8.5254302e-05   6.0574694e-05   7.6841949e-05   5.2535426e-05   1.5838236e-04   1.0077832e-04   9.1402588e-05   1.6104769e-04   1.3195084e-04   1.0894264e-04   1.2827279e-04   1.2124816e-04   2.0151785e-05   8.8854749e-06   5.9321997e-06   7.9293350e-05   7.3992363e-05   4.3000131e-05   1.3635820e-04   7.0267299e-05  -3.2118369e-05  -1.4101320e-05
   1.4317606e-04   1.1612590e-04   1.0249909e-04   1.4405964e-04   8.2228005e-05   1.3790287e-04   1.5853901e-04   1.1333112e-04   1.2722556e-04  -2.0096076e-04   4.3760509e-05  -3.6050176e-04   1.6389686e-05   1.0362879e-04   1.7830913e-05   3.7162576e-05   4.8357473e-05   3.3155520e-05   4.8211299e-05   1.0344391e-04  -1.1759963e-04   3.1788747e-06   9.7292752e-05   4.6776036e-05   9.7750606e-05   8.6526779e-05   9.4256247e-05   1.1057167e-04   1.1729801e-04   6.4846223e-05   7.5269229e-05   5.7276058e-05   1.2401445e-04   7.8346740e-05   8.6970140e-05   1.6662313e-04   1.3433403e-04   9.5706047e-05   1.2597415e-04   1.2772511e-04  -1.3644570e-05  -1.4226360e-05  -1.0464685e-05   6.9350899e-05   7.7288940e-05   1.9193571e-05   1.5169241e-04   5.0162795e-05  -5.0148017e-05   1.6571841e-05
   1.1529262e-04   9.0077541e-05   8.7204855e-05   1.0163610e-04   8.9464913e-05   1.2954559e-04   1.4092487e-04   1.1956644e-04   1.2172580e-04  -2.1568217e-04   1.2961164e-05  -3.7902454e-04   5.2622686e-06   1.0124425e-04   1.7213384e-05   4.3950658e-05   4.8612073e-05   2.6077541e-05   1.7085506e-05   1.0340144e-04  -1.5820249e-04  -3.1353160e-05   7.5158321e-05   3.2317297e-05   6.9409725e-05   3.9094091e-05   9.5238363e-05   1.1548838e-04   1.0226654e-04   6.4876222e-05   6.0853352e-05   4.8319296e-05   8.1059610e-05   4.5189736e-05   8.4197309e-05   1.5037422e-04   1.4576767e-04   9.7724704e-05   1.3227214e-04   1.2852083e-04   1.5507570e-05  -6.0682346e-06  -1.1934122e-06   8.2893683e-05   5.9452359e-05   7.6752243e-05   1.5457494e-04   1.3589616e-04   7.6640172e-06  -1.4111052e-05
   1.4760763e-04   1.5306559e-04   1.1500259e-04   1.5685298e-04   9.1212911e-05   1.3814923e-04   1.6724077e-04   1.0882115e-04   1.4310516e-04  -1.8873511e-04   4.7428312e-05  -3.4000733e-04   1.5560736e-05   1.0233831e-04   2.6148395e-05   3.2537271e-05   3.9398590e-05   2.3861377e-05   7.9980164e-05   9.0845933e-05  -8.7975146e-05   2.8114491e-05   1.0307875e-04   3.9012175e-05   1.2200944e-04   9.7354074e-05   8.1619241e-05   1.1097728e-04   9.3680159e-05   6.5086992e-05   6.8240399e-05   4.2893684e-05   1.2075833e-04   8.8838584e-05   8.8901586e-05   1.6563879e-04   1.5191031e-04   1.1089569e-04   1.3674689e-04   1.3730655e-04   2.9266124e-05  -1.1939056e-05   3.1500904e-06   7.0116563e-05   7.5235046e-05   4.3568107e-05   1.1971177e-04   2.9413095e-05  -4.4734330e-05   1.9191553e-05
   1.3494045e-04   1.3602666e-04   1.1097009e-04   1.4126529e-04   8.4553278e-05   1.4051038e-04   1.6212404e-04   1.0848067e-04   1.3919211e-04  -1.9520408e-04   4.1782430e-05  -3.5505593e-04   7.6119054e-06   9.7255426e-05   1.7307531e-05   3.4109835e-05   4.1536994e-05   2.1853226e-05   6.4891341e-05   4.6777215e-05  -1.2490465e-04  -9.9546351e-06   9.3220304e-05   5.0989187e-05   9.5392112e-05   7.1848561e-05   8.2913248e-05   1.0849069e-04   1.4630363e-04   6.8478585e-05   7.1858500e-05   4.1015155e-05   1.1244464e-04   6.1939805e-05   9.4753668e-05   1.6005267e-04   1.4774011e-04   9.7439995e-05   1.2990470e-04   1.2554445e-04  -6.6565772e-06  -6.2440056e-05  -2.0265725e-05   6.7758105e-05   2.4190840e-05   4.0290095e-05   1.2479995e-04   8.2343737e-05  -5.3303287e-05   2.7902795e-06
   1.1443505e-04   1.0925237e-04   9.1595684e-05   1.0560044e-04   8.7875706e-05   1.3035386e-04   1.4150920e-04   1.1956994e-04   1.0424664e-04  -2.0573752e-04   1.1733558e-05  -3.6933640e-04  -1.4601284e-06   9.5133692e-05   1.3278527e-05   4.2691008e-05   3.6598252e-05   2.2683254e-05  -2.3651687e-06   5.3018361e-05  -1.1756277e-04  -4.1852963e-05   8.1254628e-05   5.2652780e-05   8.1529426e-05   4.6721809e-05   1.0284165e-04   1.2213273e-04   1.1816267e-04   7.3049159e-05   5.6629629e-05   3.5419096e-05   7.7341858e-05   4.9787966e-05   8.4228908e-05   1.4322103e-04   1.4957019e-04   9.4703995e-05   1.3205090e-04   1.0710601e-04   1.4738929e-05  -3.4555884e-05   6.6826592e-06   6.7156929e-05   6.5392516e-05   5.7485813e-05   1.3384245e-04   9.9860008e-05  -2.2642085e-05   5.6287413e-06
   1.5027465e-04   1.4378209e-04   1.1694553e-04   1.5829640e-04   9.3320537e-05   1.4912611e-04   1.7144703e-04   1.1038458e-04   1.5005749e-04  -1.7325160e-04   5.2724190e-05  -3.4064226e-04   1.0984249e-05   9.9488338e-05   8.3986188e-06   3.4873872e-05   3.0828272e-05   1.5833715e-05   7.8566613e-05   9.1951799e-05  -1.0050794e-04   2.4762170e-05   1.0293946e-04   3.2189713e-05   1.1262903e-04   1.0804555e-04   6.8900961e-05   1.1382058e-04   1.0204330e-04   6.5346809e-05   7.0935646e-05   5.0161521e-05   1.0340371e-04   8.6591303e-05   8.9247718e-05   1.7246950e-04   1.5753716e-04   1.1006793e-04   1.4329189e-04   1.3714694e-04   2.6987325e-05  -5.6419540e-05   2.2694067e-05   7.0708578e-05   5.6980156e-05   5.0098690e-05   1.3571551e-04   8.9154899e-05  -2.7441396e-07   2.0771669e-05
   1.3792697e-04   1.4430123e-04   1.1378116e-04   1.4951594e-04   8.8161760e-05   1.4112442e-04   1.5983605e-04   1.0506371e-04   1.3185291e-04  -1.7814524e-04   4.4808417e-05  -3.4386470e-04   7.1865547e-06   9.2303751e-05   1.5786663e-05   3.1483742e-05   3.1639804e-05   1.8930075e-05   4.5728888e-05   4.9140199e-05  -1.1866015e-04  -5.8628152e-06   7.8960620e-05   4.4894023e-05   1.0102876e-04   8.6410888e-05   7.8181838e-05   1.0725191e-04   1.1269461e-04   7.3562129e-05   6.5004817e-05   4.7273494e-05   6.4035194e-05   6.6523709e-05   9.4901734e-05   1.6521939e-04   1.3489672e-04   9.9226330e-05   1.3781466e-04   1.3141520e-04   2.0525335e-05  -2.0831010e-05  -1.8005887e-05   7.2257208e-05   3.4428604e-06   3.2687218e-05   1.2072569e-04   1.1027373e-04  -3.7851751e-05  -1.8578855e-06
   1.1572318e-04   9.0211746e-05   9.8067998e-05   1.0820803e-04   8.9134279e-05   1.4305129e-04   1.5088990e-04   1.1444825e-04   1.0750004e-04  -1.8075183e-04   2.4016770e-05  -3.6692541e-04  -4.9502642e-06   8.8193141e-05   9.0315289e-06   3.6181711e-05   3.4882396e-05   2.3621169e-05   1.9486190e-05   6.3934145e-05  -1.2327945e-04  -5.7167061e-05   7.8641628e-05   4.8118021e-05   7.9074038e-05   2.9131292e-05   8.6393229e-05   1.0786320e-04   1.2373435e-04   7.2581119e-05   6.1954961e-05   4.2852043e-05   7.7235520e-05   3.8730326e-05   8.6686807e-05   1.3291356e-04   1.6008820e-04   9.4041614e-05   1.2681753e-04   1.3436819e-04  -1.1208781e-05  -1.0094771e-05  -7.9009169e-06   4.4305652e-05   5.0582152e-05   2.1535110e-05   1.2856256e-04   7.6646073e-05  -7.2836352e-05  -1.8025079e-05
   9.6235184e-05   9.5829848e-05   9.2844588e-05   9.1839451e-05   9.6850272e-05   1.4243594e-04   1.5100946e-04   1.2297080e-04   1.2607599e-04  -1.6020253e-04   1.6271651e-05  -3.3872863e-04   2.3569555e-07   8.6295418e-05  -5.2717955e-06   2.6830201e-05   1.6466125e-05   7.8311632e-06   6.6143875e-05   8.7294604e-05  -5.6910278e-05   9.8684841e-06   1.0536094e-04   2.7343111e-05   1.2357521e-04   9.8449163e-05   6.9408605e-05   1.0588436e-04   1.0961328e-04   7.0529553e-05   6.3128195e-05   3.6387355e-05   1.3092074e-04   8.3897045e-05   8.4543768e-05   1.7467383e-04   1.5992815e-04   1.0789964e-04   1.3889871e-04   1.5743198e-04   2.4667375e-05   4.0110799e-06   4.4045188e-05   6.4406711e-05   5.4677737e-05   4.3966400e-05   1.4590740e-04   7.5300348e-05  -3.6269657e-07  -1.0044450e-05
   1.3897633e-04   1.5955218e-04   1.1478611e-04   1.5350587e-04   9.4000148e-05   1.4711707e-04   1.6563012e-04   1.2380545e-04   1.4561278e-04  -1.5190372e-04   4.9171475e-05  -3.3353834e-04   3.0683068e-06   8.2430830e-05   1.3674557e-05   1.8124016e-05   2.0314630e-05   2.9684072e-06   8.0299855e-05   6.8980211e-05  -7.9840735e-05   6.4399965e-06   9.9704761e-05   4.7789188e-05   1.1709749e-04   8.2844825e-05   7.0182869e-05   1.1044859e-04   1.1152283e-04   7.0937611e-05   6.6519649e-05   3.9736336e-05   1.4473288e-04   6.4961867e-05   8.6242173e-05   1.5899765e-04   1.6004301e-04   1.0631706e-04   1.4742221e-04   1.5233793e-04   2.6946074e-05  -7.5125513e-06   2.2638036e-05   6.6308916e-05   2.8371860e-05   1.5259062e-05   1.2190978e-04   1.3036000e-04  -7.0521011e-05  -2.1960272e-05
   1.1355325e-04   1.1644905e-04   1.0617199e-04   1.2493042e-04   8.9953181e-05   1.4291945e-04   1.5091681e-04   1.2167872e-04   1.1746564e-04  -1.6393985e-04   3.2025702e-05  -3.4783146e-04  -5.6049239e-06   8.0264159e-05   7.3245196e-06   2.0459580e-05   2.5338744e-05   3.8779167e-06   1.3033739e-05   8.4658881e-05  -1.0474725e-04  -4.1999006e-05   8.9673900e-05   5.1393938e-05   8.5283005e-05   4.9514299e-05   8.7521257e-05   1.2249457e-04   1.0761049e-04   7.4322736e-05   5.5897184e-05   3.7262413e-05   9.2833165e-05   4.7415426e-05   8.1683029e-05   1.4655704e-04   1.5790499e-04   9.1514696e-05   1.4549124e-04   1.3176937e-04  -1.6311934e-06   5.2526098e-06   3.6370198e-05   4.9758662e-05   4.8543949e-05   5.9434337e-06   1.4412482e-04   1.5552432e-04  -7.0349539e-05  -4.0620916e-06
   9.1836664e-05   9.2509821e-05   9.0453053e-05   9.4924515e-05   9.2583359e-05   1.4317314e-04   1.4642785e-04   1.2763731e-04   1.1845137e-04  -1.5716012e-04   1.0294111e-05  -3.3123425e-04  -8.9455831e-08   8.1938160e-05   9.0367774e-07   1.6615217e-05   1.4703653e-05   7.5380226e-06   8.5240907e-05   7.4804389e-05  -9.0288813e-05   1.9223429e-05   9.7078962e-05   4.3953143e-05   1.2409082e-04   9.8731645e-05   7.7506811e-05   1.0171124e-04   1.0479926e-04   7.3142161e-05   6.7045519e-05   4.0093619e-05   1.3265701e-04   8.0645681e-05   8.9260277e-05   1.8551915e-04   1.6401891e-04   1.1130817e-04   1.5285234e-04   1.7156266e-04   3.4689736e-05   2.4421419e-05   5.2693253e-05   8.9785630e-05   5.9587317e-05   3.9861941e-05   1.2676921e-04   1.5112359e-04  -2.5853178e-05  -5.6509443e-06
   1.3233919e-04   1.4684613e-04   1.1612916e-04   1.5597776e-04   9.4543175e-05   1.5373451e-04   1.6442061e-04   1.2069177e-04   1.6058392e-04  -1.4402192e-04   4.7484111e-05  -3.2069834e-04  -5.1075762e-07   8.2351391e-05   1.1612825e-05   1.1191558e-05   2.3315410e-05   4.9145874e-06   6.5396118e-05   7.1870702e-05  -6.7168665e-05   1.7291854e-05   9.5304269e-05   7.7787343e-05   1.1237237e-04   1.0036922e-04   6.6779598e-05   1.0788307e-04   1.2571286e-04   7.9040357e-05   6.5258311e-05   3.9228758e-05   1.2422125e-04   7.5132470e-05   8.7542343e-05   1.6994003e-04   1.6903281e-04   9.8745055e-05   1.4429919e-04   1.5730603e-04   2.5337018e-05  -7.1161166e-06   2.4205599e-05   7.7076314e-05   4.4779474e-05   4.1460302e-05   1.3183664e-04   1.3363629e-04  -2.4598255e-06   2.0048032e-05
   1.1547469e-04   1.3299867e-04   1.0366229e-04   1.3325218e-04   9.1952708e-05   1.5109018e-04   1.5623293e-04   1.1537139e-04   1.1212810e-04  -1.4918517e-04   3.3615364e-05  -3.3857775e-04  -4.5794513e-06   9.2014656e-05   1.3083310e-05   1.9705527e-05   3.1342563e-05   1.4830995e-05   5.3570209e-05   6.7830348e-05  -9.8015276e-05  -2.4732470e-05   8.1295497e-05   4.7065958e-05   9.5380346e-05   5.4576984e-05   7.4534386e-05   1.1945399e-04   1.0391075e-04   7.7491801e-05   6.5192020e-05   3.8745817e-05   1.0124850e-04   5.2892923e-05   8.6094864e-05   1.4089874e-04   1.5878851e-04   1.0387937e-04   1.4270452e-04   1.5058868e-04   7.7565146e-06  -8.4982634e-09   4.7724163e-05   5.0413499e-05   7.3186762e-05   2.4091714e-05   1.3318732e-04   1.3001666e-04   9.6995218e-06   1.6548600e-05
   1.1628565e-04   1.1436097e-04   1.1746947e-04   1.5117777e-04   9.6824231e-05   1.6500417e-04   1.6748697e-04   1.2301706e-04   1.6662241e-04  -1.2122213e-04   4.0648676e-05  -2.9883822e-04   5.5720570e-06   8.9879795e-05   1.6042313e-05   1.0091220e-05   2.6662634e-05   3.6386211e-06   9.9878242e-05   9.9818426e-05  -5.9428923e-05   3.0968036e-05   1.0673123e-04   7.6482967e-05   1.2492674e-04   1.1204810e-04   6.6793305e-05   1.0813177e-04   1.1895689e-04   7.7574252e-05   6.5084161e-05   3.8249629e-05   1.3920119e-04   9.4249357e-05   1.0103480e-04   1.7522692e-04   1.7198631e-04   1.0932984e-04   1.4963326e-04   1.7084138e-04   4.1850202e-05   2.1354845e-05   4.5306970e-05   8.1654362e-05   9.9301971e-05   6.5253073e-05   1.3607627e-04   1.2674251e-04  -5.8940614e-06   1.9527932e-05
   1.2873746e-04   1.5073556e-04   1.1959461e-04   1.6401334e-04   9.0717382e-05   1.5991197e-04   1.6260192e-04   1.1262889e-04   1.5197700e-04  -1.2332501e-04   4.7998536e-05  -3.0919546e-04   5.1850420e-06   9.1269030e-05   1.5813905e-05   1.3092559e-05   3.4206805e-05   8.8921806e-06   9.3568044e-05   6.4188913e-05  -6.2504092e-05   1.1134332e-05   9.7689823e-05   8.1711871e-05   1.2619722e-04   9.6814634e-05   6.4157022e-05   1.1174440e-04   1.2817113e-04   8.0052567e-05   6.6553432e-05   2.7650594e-05   1.5141297e-04   8.3872255e-05   1.0290431e-04   1.8342595e-04   1.6181779e-04   1.0496360e-04   1.3785268e-04   1.7210962e-04   2.5905962e-05  -4.7291846e-06   4.0595645e-05   7.3750904e-05   1.1331817e-04   5.1730469e-05   1.4877054e-04   1.2652832e-04  -3.4211935e-05  -1.6187589e-05
   1.1386311e-04   1.4575740e-04   1.0450103e-04   1.3126514e-04   9.3534836e-05   1.5563425e-04   1.4749570e-04   1.1871807e-04   1.3855979e-04  -1.3200307e-04   2.2369562e-05  -3.2811592e-04  -3.6813190e-06   9.3041475e-05   1.9676534e-05   2.6402146e-05   4.7781603e-05   1.8377010e-05   6.5251967e-05   7.0017530e-05  -8.5135129e-05  -3.1865831e-05   8.1378355e-05   6.6597247e-05   9.4914576e-05   4.9342332e-05   7.7372541e-05   1.1688221e-04   1.3321172e-04   8.2034472e-05   6.7193607e-05   4.4412351e-05   1.4571109e-04   5.1684612e-05   9.4796182e-05   1.4716209e-04   1.7554547e-04   1.0208733e-04   1.4410555e-04   1.5177735e-04   1.8627037e-05   2.1425090e-05   3.1499298e-05   6.0758939e-05   1.2509133e-04   4.7226189e-05   1.4946594e-04   1.8337094e-04   1.2863986e-05  -1.0108379e-05
   1.4520163e-04   1.5784767e-04   1.3400915e-04   1.7477095e-04   1.0104536e-04   1.7265251e-04   1.6710722e-04   1.2786633e-04   1.8925755e-04  -1.0634066e-04   4.9832724e-05  -2.8248018e-04   9.7870980e-06   9.8883036e-05   2.1969121e-05   1.3272564e-05   4.4572167e-05   1.2277233e-05   1.2511737e-04   6.5986424e-05  -2.8170081e-05   5.1102623e-05   1.1240786e-04   1.2175326e-05   1.3833857e-04   1.1284532e-04   7.1559567e-05   1.2965282e-04   1.1442603e-04   8.1645339e-05   7.3715426e-05   4.8553498e-05   1.7035182e-04   9.2062488e-05   9.6486656e-05   2.0101765e-04   1.7222291e-04   1.1270496e-04   1.5036156e-04   1.8037359e-04   4.7482303e-05  -4.0508980e-06   6.6175016e-05   8.7276567e-05   9.0542097e-05   5.8183396e-05   1.2647094e-04   1.6046841e-04  -3.4556921e-05   1.3021351e-05
   1.4585287e-04   1.8064489e-04   1.2833433e-04   1.7270044e-04   9.6275617e-05   1.6381344e-04   1.6475112e-04   1.1552137e-04   1.4156949e-04  -9.8738950e-05   4.9979233e-05  -2.9215764e-04   1.0597510e-05   1.0407138e-04   3.0164916e-05   2.6016010e-05   5.1999676e-05   1.4896848e-05   9.1617731e-05   9.9418707e-05  -6.4644191e-05   2.2446860e-05   1.0239509e-04   6.1246661e-05   1.3367509e-04   8.6003711e-05   7.1102935e-05   1.2721833e-04   1.1436091e-04   8.5669039e-05   8.6695291e-05   5.0400868e-05   1.2016320e-04   9.0138419e-05   9.4785115e-05   1.5997849e-04   1.6975375e-04   1.1177543e-04   1.5602125e-04   1.7278112e-04   2.3742599e-05   1.5809332e-05   6.6082845e-05   7.0762093e-05   8.8637178e-05   4.7941896e-05   1.3337522e-04   1.1526764e-04  -2.8199300e-05  -1.3133912e-05
   1.1786803e-04   1.3005406e-04   1.1492504e-04   1.3520039e-04   9.5593554e-05   1.6327389e-04   1.5530296e-04   1.3161456e-04   1.3038624e-04  -1.1085077e-04   2.2013965e-05  -3.0618021e-04   4.5090478e-06   1.0281549e-04   3.2057909e-05   3.4336983e-05   6.8032336e-05   2.3468063e-05   6.1854058e-05   1.1453329e-04  -9.4424940e-05  -1.3248413e-05   9.0445676e-05   2.3459703e-05   9.1563292e-05   5.9006295e-05   9.0131485e-05   1.1911996e-04   1.5576869e-04   8.7053173e-05   7.3089635e-05   5.0995553e-05   1.0979312e-04   6.3484040e-05   1.0106946e-04   1.5416235e-04   1.7088246e-04   9.8816061e-05   1.5128776e-04   1.4977313e-04   4.0700983e-05   1.6723898e-05   5.1059928e-05   8.4461542e-05   9.3646042e-05   8.6670487e-05   1.3510152e-04   1.2368485e-04   1.4009558e-05  -1.2360638e-05
   1.5779393e-04   1.6501766e-04   1.4111164e-04   1.8470072e-04   1.0748427e-04   1.7255194e-04   1.7565252e-04   1.2782676e-04   1.5586152e-04  -7.8449120e-05   5.8359496e-05  -2.6255098e-04   1.7873963e-05   1.0651541e-04   2.6775164e-05   3.0257394e-05   5.9102567e-05   3.1427538e-05   1.2082145e-04   1.1182379e-04  -4.8841746e-05   5.7122186e-05   1.0270242e-04   6.1205828e-05   1.3722118e-04   1.1139602e-04   8.4360938e-05   1.2956419e-04   1.1661775e-04   8.7276763e-05   8.0459664e-05   4.7747104e-05   1.6018392e-04   1.0141425e-04   1.0529350e-04   1.8488035e-04   1.7421909e-04   1.0539685e-04   1.5778909e-04   1.9123081e-04   3.8489365e-05   1.1242263e-06   5.4527256e-05   9.0431044e-05   7.0622365e-05   6.4260421e-05   1.3100021e-04   1.2536842e-04  -1.1492376e-05  -1.9133789e-05
   1.5267504e-04   1.8359373e-04   1.3156433e-04   1.7174748e-04   9.7691489e-05   1.7234105e-04   1.5952927e-04   1.2346116e-04   1.4585853e-04  -7.3182724e-05   5.2116753e-05  -2.7530498e-04   1.2881575e-05   1.0550967e-04   3.1700078e-05   3.7527905e-05   6.6093759e-05   2.0499416e-05   1.2773077e-04   1.5240107e-04  -1.8096345e-05   2.5248701e-05   1.0177471e-04   6.6072440e-05   1.3846793e-04   9.4695410e-05   8.1548285e-05   1.3942458e-04   1.2907795e-04   8.7952350e-05   7.9197809e-05   4.4846918e-05   1.3668553e-04   9.1453185e-05   1.0347907e-04   1.7240146e-04   1.8084850e-04   1.1805641e-04   1.5467255e-04   1.6972283e-04   1.4875617e-05   3.5475323e-06   5.5835801e-05   7.5295124e-05   1.1489804e-04   3.3024102e-05   1.3297948e-04   1.1932318e-04   3.4683737e-05   1.0539394e-05
   1.2201932e-04   1.4078312e-04   1.2203994e-04   1.2918533e-04   1.0077804e-04   1.7396304e-04   1.4891053e-04   1.2301306e-04   1.0597449e-04  -8.4849249e-05   2.6063744e-05  -2.9835300e-04  -1.0368707e-06   1.0554476e-04   2.6372723e-05   4.3174041e-05   6.9603033e-05   3.5412715e-05   8.1716222e-05   1.0105600e-04  -7.3988733e-05  -3.6468409e-05   8.4316416e-05   6.5691827e-05   9.0408357e-05   3.7608006e-05   1.0326382e-04   1.2547064e-04   1.7140030e-04   9.4607574e-05   9.1952970e-05   3.9750739e-05   1.1252259e-04   6.8485271e-05   1.1717873e-04   1.3966438e-04   1.8654215e-04   1.1740783e-04   1.6379141e-04   1.7264363e-04   1.7333366e-05  -6.5052823e-06   5.2112529e-05   8.8290166e-05   1.0368508e-04   3.0190156e-05   1.2223418e-04   1.8233243e-04  -3.0228355e-05   3.2656757e-05
   1.4194242e-04   1.6813213e-04   1.5263782e-04   1.6598951e-04   1.0234033e-04   1.8276685e-04   1.7178635e-04   1.1356791e-04   1.4351337e-04  -5.6122499e-05   4.4957171e-05  -2.6803921e-04   1.9445649e-06   8.3574043e-05   3.0891970e-05   2.3359629e-05   4.6142053e-05   2.7354039e-05   1.4014424e-04   9.6648102e-05  -7.2184234e-06   2.7823857e-05   1.0073963e-04   6.2723135e-05   1.3793759e-04   1.1797941e-04   6.4309061e-05   1.4613356e-04   1.5270185e-04   9.9723205e-05   9.6548501e-05   4.2831809e-05   1.3507287e-04   1.0605450e-04   1.1785188e-04   1.8993769e-04   1.9782328e-04   1.4217959e-04   1.6934065e-04   2.0625150e-04   3.2382995e-05   3.3387284e-06   8.3821833e-05   1.1520292e-04   1.4619513e-04   5.2142426e-05   1.4082014e-04   1.4775894e-04   1.2207448e-05   5.0860774e-05
   1.3364627e-04   1.6701968e-04   1.4056987e-04   1.6312231e-04   9.0516944e-05   1.7606001e-04   1.6984115e-04   9.7214070e-05   1.5196438e-04  -5.6319081e-05   5.0380302e-05  -2.6832562e-04  -2.8470913e-06   9.0130983e-05   3.1593256e-05   3.0771494e-05   4.9085804e-05   3.0006093e-05   1.0510355e-04   8.8583838e-05  -1.1710565e-06   5.4371503e-06   9.7105229e-05   4.9159251e-05   1.1696175e-04   8.9202811e-05   7.9110236e-05   1.3548319e-04   1.4924655e-04   9.9309946e-05   9.1457776e-05   4.0911193e-05   1.3174447e-04   9.0255104e-05   1.2248024e-04   1.7581219e-04   1.8275420e-04   1.3254315e-04   1.6790845e-04   1.9979362e-04   3.5580004e-05   4.8038914e-06   5.5918023e-05   1.0006401e-04   1.4176048e-04   7.3964213e-05   1.7074161e-04   1.1131804e-04  -9.7931015e-06   4.1462936e-05
   1.0675811e-04   1.2622516e-04   1.1975871e-04   1.2484608e-04   9.0940535e-05   1.6772680e-04   1.4580530e-04   1.1626820e-04   1.0517819e-04  -6.6501001e-05   3.1338655e-05  -2.7386012e-04  -4.5855923e-06   8.9774592e-05   3.1122101e-05   3.7133374e-05   5.7756501e-05   4.0904517e-05   8.6893844e-05   1.0848346e-04  -3.8507940e-05  -1.6138296e-05   8.1990671e-05   4.0351370e-05   1.1714524e-04   4.2030333e-05   8.8138462e-05   1.4607509e-04   1.5629531e-04   1.0328839e-04   9.1903836e-05   3.6851863e-05   1.4792035e-04   7.2881136e-05   1.2134651e-04   1.6429857e-04   1.9218214e-04   1.2547716e-04   1.7528213e-04   1.8272416e-04   5.6555509e-06   9.9439712e-06   5.2559812e-05   8.7211491e-05   1.4276820e-04   5.5576136e-05   1.7219814e-04   1.1615939e-04   9.2298696e-06   3.9187049e-05
   1.1909289e-04   1.1950969e-04   1.3193503e-04   1.5164218e-04   9.4556497e-05   1.7289279e-04   1.6553985e-04   1.2760064e-04   1.3532733e-04  -4.4373461e-05   4.4742774e-05  -2.3213455e-04   1.3305360e-05   9.4429044e-05   3.2963748e-05   2.7978167e-05   4.7361718e-05   3.3109813e-05   1.2776010e-04   1.0577194e-04  -2.4872837e-05   4.7102672e-05   1.0182895e-04   6.1456580e-05   1.6765257e-04   1.0407176e-04   6.8022389e-05   1.4071086e-04   1.4588195e-04   1.0292505e-04   8.1497477e-05   4.4842309e-05   1.5278434e-04   1.0229080e-04   1.1530393e-04   1.9189384e-04   2.0565833e-04   1.4108239e-04   1.8635328e-04   2.0064776e-04   4.5614568e-05   2.6388121e-05   6.9412730e-05   1.2055161e-04   1.4149908e-04   8.3248910e-05   1.5423924e-04   1.2821821e-04  -1.2368847e-05   5.0014620e-05
   1.2448170e-04   1.3886583e-04   1.2989208e-04   1.6505938e-04   8.9042820e-05   1.6417859e-04   1.6596368e-04   1.2391595e-04   1.5192566e-04  -4.1388575e-05   5.3927532e-05  -2.3254610e-04   1.0543230e-05   1.0576466e-04   4.1523912e-05   3.0548024e-05   5.2286374e-05   2.6576998e-05   1.1790749e-04   1.0272949e-04  -3.5168698e-05   3.9274233e-05   9.5604490e-05   5.9625141e-05   1.3744688e-04   8.6583656e-05   7.0063004e-05   1.2988821e-04   1.4366113e-04   1.0378603e-04   8.5269967e-05   4.7115082e-05   1.4041060e-04   1.0648664e-04   1.2061212e-04   1.8264192e-04   1.9570734e-04   1.2275405e-04   1.6928895e-04   1.8591688e-04   3.8887320e-05   1.1046413e-05   6.4085478e-05   1.0063728e-04   1.2391257e-04   8.0802143e-05   1.6733745e-04   9.1556743e-05   2.2784745e-08   6.2445186e-05
   1.0866347e-04   1.3935921e-04   1.1152149e-04   1.3007528e-04   8.8973560e-05   1.5973058e-04   1.5387980e-04   1.2058154e-04   1.2575691e-04  -5.0641258e-05   3.2582924e-05  -2.4207489e-04   3.5347941e-06   1.0334697e-04   3.0715240e-05   3.2195589e-05   6.0078735e-05   2.4504556e-05   1.0132798e-04   1.0747297e-04  -3.5074994e-05  -1.1720714e-07   7.9366320e-05   6.6086839e-05   1.0776500e-04   5.2807667e-05   7.8886347e-05   1.4413496e-04   1.5341809e-04   1.0215122e-04   8.3200161e-05   4.5352353e-05   9.1359710e-05   7.7914134e-05   1.2173150e-04   1.6807958e-04   2.0344090e-04   1.2945254e-04   1.6863870e-04   1.9007259e-04   1.7647990e-05   4.8234393e-05   3.2657674e-05   9.1448266e-05   1.4275908e-04   6.3347346e-05   1.4638925e-04   1.5858295e-04   1.7789293e-05   2.0447515e-05
   1.3324292e-04   1.6638878e-04   1.4009129e-04   1.7868877e-04   9.3797993e-05   1.7360831e-04   1.6647931e-04   1.2744096e-04   1.6813673e-04  -1.9254334e-05   5.2819945e-05  -2.0981565e-04   1.4509053e-05   1.0048678e-04   3.9510480e-05   1.3892782e-05   5.6080065e-05   2.2258782e-05   1.0839434e-04   1.0624152e-04   9.7703960e-06   6.1875893e-05   1.1228788e-04   6.0085069e-05   1.3713853e-04   1.0471361e-04   6.9175840e-05   1.2267120e-04   1.4743072e-04   9.4478892e-05   9.7001066e-05   5.0981391e-05   1.1314008e-04   1.0865374e-04   1.2134225e-04   1.8712100e-04   1.8769615e-04   1.2032458e-04   1.8791210e-04   2.0287737e-04   3.4512315e-05   4.0813433e-05   6.3401319e-05   1.1741029e-04   1.5832046e-04   6.1234117e-05   1.8503913e-04   1.6285670e-04   1.6831369e-05   8.0558821e-05
   1.2700206e-04   1.6875216e-04   1.3304138e-04   1.6847250e-04   8.8761510e-05   1.7331757e-04   1.5947886e-04   1.2554073e-04   1.5348234e-04  -1.4950447e-05   5.3725937e-05  -2.1926280e-04   6.1825403e-06   9.1389651e-05   2.9238090e-05   2.5498608e-05   5.4281314e-05   2.2854658e-05   1.0855555e-04   9.4899740e-05   2.5283311e-05   2.5617790e-05   9.7331205e-05   8.2128812e-05   1.2429271e-04   8.6685584e-05   7.6423974e-05   1.3614107e-04   1.4092086e-04   9.9422665e-05   8.2949839e-05   5.7558191e-05   1.3650690e-04   9.9095021e-05   1.1409390e-04   1.9740040e-04   1.9538295e-04   1.2902467e-04   1.7523926e-04   1.8283678e-04   2.3288656e-05   2.1460490e-05   3.1282601e-05   9.3961906e-05   1.4056750e-04   6.6441775e-05   1.6799395e-04   8.7624358e-05   2.3224871e-05   2.9623534e-05
   9.8450400e-05   1.3353964e-04   1.1805939e-04   1.2713438e-04   8.9434492e-05   1.7054821e-04   1.5121781e-04   1.3062950e-04   1.3657854e-04  -2.1900347e-05   2.9515581e-05  -2.3978925e-04  -3.7549248e-06   9.0305213e-05   2.2756181e-05   2.3982509e-05   5.5402968e-05   1.9997844e-05   7.1628841e-05   1.2594895e-04  -2.1957476e-05  -4.2734678e-06   7.2590046e-05   6.0971361e-05   1.2113954e-04   6.1174564e-05   8.4458043e-05   1.3603520e-04   1.6068594e-04   9.7395503e-05   7.8520556e-05   4.4920449e-05   1.2080643e-04   9.2443988e-05   1.1089219e-04   1.7846287e-04   2.0337602e-04   1.2902268e-04   1.8403624e-04   1.9843229e-04   5.3939199e-05   4.2222593e-05   4.8847873e-05   1.0494045e-04   1.4858747e-04   7.0728056e-05   1.8212172e-04   9.9093952e-05   3.9962746e-05   6.7136170e-05
   1.3885496e-04   1.6341585e-04   1.4431978e-04   1.8267402e-04   9.2612143e-05   1.7474296e-04   1.7373599e-04   1.2185147e-04   1.7408354e-04   5.0223762e-06   5.8417856e-05  -2.0979992e-04   5.9876547e-06   9.4677023e-05   3.0234987e-05   1.4081877e-05   4.8615122e-05   2.1693395e-05   1.0118908e-04   1.2470760e-04   2.4723406e-06   4.1673768e-05   1.0297199e-04   5.5071250e-05   1.4595193e-04   9.5193755e-05   7.5373944e-05   1.3858028e-04   1.4056907e-04   9.3418836e-05   8.3085026e-05   4.5994326e-05   1.4984759e-04   1.0176633e-04   1.1107608e-04   1.9771158e-04   1.9201616e-04   1.3102993e-04   1.8029066e-04   2.0141147e-04   2.9128274e-05   6.6522814e-05   3.0404937e-05   1.0353977e-04   1.3959949e-04   7.5938893e-05   1.5650349e-04   9.7577344e-05   1.8258423e-05   3.2851967e-05
   1.2787359e-04   1.3805029e-04   1.3584136e-04   1.6077601e-04   8.4943560e-05   1.6633104e-04   1.7198759e-04   1.2370505e-04   1.4453976e-04  -7.0226167e-07   4.1892505e-05  -2.1905577e-04   1.7826391e-06   1.0058466e-04   2.9675466e-05   1.9476405e-05   5.5632958e-05   2.8231347e-05   7.9071615e-05   9.2198381e-05  -1.9800249e-05   1.7340877e-05   7.9795667e-05   6.7329747e-05   9.9358484e-05   6.5262509e-05   7.8349352e-05   1.4891654e-04   1.4366738e-04   9.8811019e-05   7.9919060e-05   5.7537058e-05   9.4791387e-05   8.2571001e-05   1.1206846e-04   1.6427386e-04   1.9686233e-04   1.1653632e-04   1.6939342e-04   1.9095484e-04   2.2918681e-05   1.6325270e-05   4.1989995e-05   8.8703317e-05   1.4384380e-04   3.7362868e-05   1.7595645e-04   1.2865760e-04  -2.2533663e-07   4.8806155e-06
   1.0058388e-04   1.4131052e-04   1.1491497e-04   1.1645150e-04   8.7378772e-05   1.6272170e-04   1.5789589e-04   1.2749346e-04   1.1337925e-04  -5.8959540e-06   9.8636310e-06  -2.1604645e-04  -6.5192935e-06   9.3260824e-05   1.7592285e-05   1.7754372e-05   4.4927896e-05   1.7781416e-05   9.6516895e-05   7.6631317e-05   7.7059021e-06   4.3606720e-05   7.9504971e-05   9.4867304e-05   1.3214370e-04   9.8773489e-05   7.1834824e-05   1.4669237e-04   1.5539999e-04   9.3088951e-05   7.5577584e-05   4.6492078e-05   1.1381743e-04   9.3261973e-05   1.1478896e-04   1.9778909e-04   2.0354871e-04   1.2780160e-04   1.9088632e-04   2.1558118e-04   3.9472554e-05   5.1767161e-05   5.2202649e-05   1.1825203e-04   1.7072965e-04   7.6922654e-05   1.8090324e-04   1.4914040e-04  -2.3374500e-06   4.0733397e-05
   1.4300823e-04   1.5800651e-04   1.4787998e-04   1.8100459e-04   9.1751434e-05   1.7023770e-04   1.7320196e-04   1.2928888e-04   1.8288835e-04   1.5943999e-05   5.4678585e-05  -1.9555891e-04   1.6572837e-06   9.1590460e-05   3.0601179e-05   9.7937846e-06   4.9113874e-05   1.5123276e-05   9.4340554e-05   8.2402577e-05  -2.7858865e-05   4.8084759e-05   7.9535748e-05   8.1566694e-05   1.3866497e-04   1.0494943e-04   6.5502034e-05   1.2940579e-04   1.4216220e-04   9.6828044e-05   7.9449135e-05   4.5699351e-05   1.4439867e-04   9.7244600e-05   1.1511293e-04   2.0045352e-04   1.9098989e-04   1.2857217e-04   1.8273501e-04   1.8289102e-04   3.2397311e-05   1.1612555e-05   4.3573451e-05   1.1162164e-04   1.4583161e-04   4.3324319e-05   1.8134901e-04   1.2499205e-04  -1.9396284e-05   5.5654575e-05
   1.2653221e-04   1.3530294e-04   1.4060068e-04   1.5379534e-04   9.1573136e-05   1.6567348e-04   1.6511005e-04   1.2362206e-04   1.4143978e-04   1.1300148e-05   3.6397792e-05  -2.0494733e-04  -5.0798799e-06   9.1631176e-05   2.5040114e-05   9.1346546e-06   4.9852861e-05   1.4430032e-05   7.2029979e-05   5.3217707e-05  -3.4901328e-05   8.7645276e-06   7.3964671e-05   6.7874578e-05   1.0449968e-04   5.9490238e-05   7.1076662e-05   1.4068339e-04   1.4789127e-04   9.9901576e-05   7.5277072e-05   3.6715654e-05   1.0724985e-04   8.0558610e-05   1.1441751e-04   1.6409840e-04   2.0195838e-04   1.2098029e-04   1.7297486e-04   1.7573756e-04   1.5748310e-05   3.5115758e-05  -3.0544202e-06   8.4769134e-05   1.3625014e-04   4.2438733e-05   1.9042313e-04   1.1572507e-04  -9.4929619e-06   4.1863193e-05
   1.0466204e-04   9.0253547e-05   1.2001962e-04   1.1338521e-04   9.2332724e-05   1.6202260e-04   1.5554517e-04   1.3274365e-04   8.5354455e-05   5.2709820e-06   8.4919238e-06  -2.1701913e-04  -1.6846858e-05   9.5294141e-05   1.5381474e-05   1.8044568e-05   5.2054191e-05   1.4746224e-05   3.9001636e-05   7.3513576e-05  -3.4091358e-05  -6.0159705e-06   5.0859700e-05   8.4314219e-05   1.2237532e-04   4.9837843e-05   7.3095951e-05   1.2985796e-04   1.5685694e-04   9.9841331e-05   6.3217267e-05   3.1099386e-05   6.9770082e-05   7.2698545e-05   1.0663907e-04   1.9180734e-04   2.1521708e-04   1.4526879e-04   1.9012410e-04   1.9986142e-04   4.5082641e-05   3.9622701e-05   5.3975993e-05   1.1488849e-04   1.8399420e-04   7.0563510e-05   1.6993360e-04   1.5664122e-04  -1.8008908e-06   4.9272614e-05
   1.5498184e-04   1.9220807e-04   1.5410122e-04   1.8151208e-04   9.5581541e-05   1.7530611e-04   1.8652542e-04   1.2509777e-04   1.7211259e-04   3.5650879e-05   5.0794610e-05  -1.7951513e-04  -3.4473774e-06   8.6445005e-05   2.5724592e-05  -2.9858845e-06   4.6123070e-05   1.5729838e-05   1.0813106e-04   1.0547797e-04   2.0137464e-05   5.0531184e-05   9.1487556e-05   8.9632413e-05   1.1665426e-04   9.6751806e-05   5.5527013e-05   1.5044624e-04   1.6008598e-04   1.0205894e-04   7.6622709e-05   2.8539031e-05   1.3259884e-04   9.1697904e-05   1.1126656e-04   2.0448207e-04   2.0906296e-04   1.3357284e-04   1.8854903e-04   1.9031449e-04   2.4118182e-05   2.8479326e-05   2.8723474e-05   1.1100618e-04   1.2065480e-04   5.7177389e-05   1.8031972e-04   1.5588071e-04   3.9369927e-05   7.3246876e-05
   1.3883002e-04   1.7512232e-04   1.4527777e-04   1.5889565e-04   9.0181406e-05   1.6712154e-04   1.6573690e-04   1.2193934e-04   1.4673440e-04   3.4662196e-05   3.8951453e-05  -1.8807572e-04  -1.5757625e-05   8.7149383e-05   1.7854703e-05   1.1367179e-06   4.8760696e-05   1.6181551e-05   6.4890097e-05   1.0762442e-04  -2.1093034e-05   1.5056828e-05   8.1342230e-05   7.6568220e-05   1.0433081e-04   6.1187464e-05   5.5185064e-05   1.4030062e-04   1.5208656e-04   1.0127835e-04   7.4698059e-05   2.2026799e-05   1.0746351e-04   7.4875534e-05   1.1996438e-04   1.7014696e-04   2.1183446e-04   1.2472662e-04   1.7687395e-04   1.7543479e-04  -1.3263590e-07   1.2444428e-05   9.4087582e-06   9.2093185e-05   1.9303501e-04   5.1142215e-05   1.6876374e-04   1.5858012e-04  -2.3968181e-05   3.9746763e-05
   1.1167855e-04   1.1635353e-04   1.2692381e-04   1.1712554e-04   9.0238063e-05   1.6237682e-04   1.4959514e-04   1.4011907e-04   9.6366202e-05   2.1773749e-05   1.2578877e-05  -1.9814607e-04  -2.1725466e-05   8.6528620e-05   1.1463402e-05   7.1238510e-06   4.9046703e-05   1.1555257e-05   4.6403758e-05   7.4721247e-05  -5.1997205e-05  -2.5930527e-05   6.4127409e-05   5.6126253e-05   6.7629975e-05   2.6550651e-05   8.4637453e-05   1.3949591e-04   1.5994617e-04   1.0759438e-04   7.4246294e-05   2.9708513e-05   8.2053491e-05   5.5174933e-05   1.1989319e-04   1.3758754e-04   2.0764972e-04   1.1569669e-04   1.7352388e-04   1.8797397e-04  -1.0012753e-05   1.8008794e-05   3.2292588e-05   8.3027640e-05   1.9821074e-04   5.9483707e-05   1.6637862e-04   1.5579051e-04  -2.6759417e-05   3.2958516e-05
   1.4555102e-04   1.4252226e-04   1.5489549e-04   1.6705145e-04   1.0148371e-04   1.7751724e-04   1.8346209e-04   1.3074218e-04   1.6632883e-04   5.1948595e-05   4.1227460e-05  -1.5926427e-04  -1.2490500e-05   8.7183267e-05   1.7807584e-05  -8.4369949e-06   3.3123240e-05   6.9375424e-06   8.8681714e-05   8.8109962e-05  -7.5063399e-06   5.8603535e-05   9.1604641e-05   7.0077651e-05   1.3279309e-04   9.7819546e-05   5.9872025e-05   1.4050498e-04   1.3884567e-04   1.0233575e-04   7.4029806e-05   2.9084835e-05   1.4670652e-04   8.9010835e-05   1.1694118e-04   1.9120633e-04   2.0457199e-04   1.3640299e-04   1.9213758e-04   2.0548324e-04   3.9500555e-05   3.7151960e-05   3.8654369e-05   1.1863225e-04   1.6092887e-04   7.5718155e-05   2.0379593e-04   1.2253506e-04   5.5744431e-06   6.6811030e-05
   1.4014990e-04   1.5096090e-04   1.5069150e-04   1.6865481e-04   9.3458795e-05   1.6989764e-04   1.7814463e-04   1.2939506e-04   1.6663010e-04   5.4602708e-05   4.8290454e-05  -1.6590129e-04  -1.5973632e-05   9.7506294e-05   2.1067724e-05  -3.7552734e-06   4.0520910e-05  -2.1989085e-06   7.4009004e-05   9.9697179e-05   1.7628212e-05   3.6250538e-05   8.3018087e-05   7.7630750e-05   1.0692562e-04   7.3412630e-05   7.2240233e-05   1.4754504e-04   1.5078919e-04   1.0352011e-04   6.7400651e-05   3.8090377e-05   1.0380308e-04   7.1779548e-05   1.1392716e-04   1.7662015e-04   2.0729647e-04   1.1863518e-04   1.7870910e-04   1.8924552e-04   8.9145224e-06   1.6126323e-05  -3.7546836e-06   9.0364396e-05   1.2877971e-04   6.6707260e-05   1.8210888e-04   1.2516808e-04   4.6493322e-05   8.0046202e-06
   1.2243856e-04   1.3269178e-04   1.3284519e-04   1.2889162e-04   9.6549651e-05   1.6500980e-04   1.5701058e-04   1.4779047e-04   1.3414409e-04   4.5699842e-05   2.6575890e-05  -1.7640101e-04  -2.4187382e-05   9.6739750e-05   1.6005806e-05   1.9477031e-06   4.3980057e-05  -8.0308649e-07   5.2849442e-05   6.6404587e-05  -3.0087496e-05  -1.1649227e-06   6.6759902e-05   9.3403614e-05   9.6615302e-05   2.2704939e-05   7.6296121e-05   1.2817042e-04   1.5382409e-04   1.0498675e-04   6.9009955e-05   3.3362965e-05   1.2523450e-04   4.6238034e-05   1.1530083e-04   1.7481626e-04   2.0456349e-04   1.1364563e-04   1.7512596e-04   1.9249530e-04  -5.5311957e-06   3.4969311e-05  -2.4593685e-06   9.0068526e-05   1.3469066e-04   5.3509011e-05   2.0074142e-04   1.4229547e-04   4.8907532e-05   2.9943873e-05
   1.3117070e-04   1.5138728e-04   1.5307991e-04   1.6189176e-04   1.0449456e-04   1.7707808e-04   1.8005789e-04   1.4362656e-04   1.5232447e-04   6.6078770e-05   3.4246015e-05  -1.4240538e-04  -1.9046665e-05   8.9457288e-05   1.7622910e-05  -1.1810810e-05   3.0370031e-05  -3.9541274e-06   1.0677910e-04   9.4880852e-05  -1.3953691e-05   6.1522660e-05   8.7331573e-05   7.2753457e-05   1.2858775e-04   8.4903688e-05   5.2884567e-05   1.3653914e-04   1.4733590e-04   1.0745717e-04   6.6735935e-05   3.6295070e-05   1.2581452e-04   7.8445104e-05   1.1780849e-04   2.0190903e-04   2.2014769e-04   1.3149722e-04   1.8429685e-04   2.2249739e-04   2.4735291e-05   4.0390783e-05   3.2508753e-05   1.1016482e-04   1.5036670e-04   7.2134913e-05   1.9678735e-04   1.4289774e-04   2.5852500e-05   5.2826683e-05
   1.4332216e-04   1.6784052e-04   1.5136246e-04   1.7027366e-04   9.7720964e-05   1.7642444e-04   1.8607984e-04   1.4082121e-04   1.5070866e-04   6.3784020e-05   4.3351432e-05  -1.4779868e-04  -2.3819865e-05   9.4070638e-05   1.9191453e-05  -1.1756726e-05   2.9724146e-05  -1.2283966e-05   9.4313102e-05   7.5234922e-05   1.7519014e-05   3.6420424e-05   7.9713507e-05   7.7420555e-05   1.1661024e-04   7.2203664e-05   5.8249196e-05   1.4625257e-04   1.5824585e-04   1.0751392e-04   7.3390525e-05   3.5060577e-05   1.2082804e-04   8.3227365e-05   1.2102602e-04   1.8071134e-04   2.2468847e-04   1.2607737e-04   1.7647193e-04   2.1149637e-04   3.6642755e-06   1.4084839e-05   4.7093799e-05   1.0959647e-04   9.7175580e-05   6.5468550e-05   1.8940085e-04   1.5133299e-04   1.4742868e-05   3.4052067e-05
   1.2694464e-04   1.3549863e-04   1.3551777e-04   1.3048932e-04   9.9740384e-05   1.6872132e-04   1.6465996e-04   1.4443829e-04   1.0254494e-04   5.7331734e-05   1.6174808e-05  -1.6395812e-04  -3.5568813e-05   8.6807238e-05   1.3840507e-05   2.9564974e-06   3.1323092e-05  -5.1150573e-06   6.4556916e-05   6.7552704e-05  -8.8269853e-06   1.7562623e-06   6.5491135e-05   6.6527580e-05   1.0347855e-04   1.5590331e-05   7.1519105e-05   1.3822326e-04   1.6730656e-04   1.0690028e-04   6.5912667e-05   3.3652497e-05   6.0439652e-05   4.8847567e-05   1.1171464e-04   1.6091987e-04   2.2343094e-04   1.2211537e-04   1.8155968e-04   2.0268022e-04   3.2706703e-05  -8.4321655e-06   2.6128431e-05   1.1338608e-04   1.8351495e-04   7.1101815e-05   1.9618723e-04   1.6464386e-04   1.3103297e-05   5.3778735e-05
   1.5700079e-04   1.5278427e-04   1.6293822e-04   1.8601447e-04   1.0816410e-04   1.7913876e-04   1.9709519e-04   1.4488552e-04   1.3332443e-04   8.6177126e-05   4.6819870e-05  -1.2610271e-04  -2.3825238e-05   9.1709728e-05   2.5274048e-05  -1.1543356e-05   2.5038476e-05  -7.8753756e-06   1.0684035e-04   5.0543516e-05   1.9688374e-05   6.7354456e-05   8.0031597e-05   9.1861060e-05   1.3204879e-04   9.8984383e-05   6.2284453e-05   1.3987305e-04   1.3626352e-04   1.0781774e-04   8.4430067e-05   2.8288085e-05   1.2278552e-04   9.1803129e-05   1.2204886e-04   1.8844196e-04   2.2167411e-04   1.3836830e-04   1.8943248e-04   2.2328678e-04   2.4034167e-05  -2.4896328e-06   2.3434342e-05   1.2517844e-04   1.1192198e-04   7.8355486e-05   1.8695083e-04   1.9676714e-04   1.0230483e-05   3.6465204e-05
   1.4846845e-04   1.5921090e-04   1.5586430e-04   1.7176139e-04   1.0153102e-04   1.7219823e-04   1.8380021e-04   1.3728575e-04   1.1274054e-04   8.5347070e-05   3.5086883e-05  -1.3338999e-04  -2.2477003e-05   8.9864065e-05   2.2979017e-05  -5.1396305e-06   2.8379622e-05  -9.1759330e-06   9.1633367e-05   7.5042175e-05   8.2727020e-06   3.2565553e-05   7.7166784e-05   8.4742009e-05   1.1295722e-04   6.4953383e-05   7.3556956e-05   1.4997036e-04   1.5184640e-04   1.0762539e-04   6.5803688e-05   3.3583208e-05   1.4701915e-04   7.5929813e-05   1.2675350e-04   1.8314255e-04   2.2856654e-04   1.2530691e-04   1.8738226e-04   2.0630256e-04   1.0496876e-06  -1.7448698e-05   3.9334256e-05   1.0362527e-04   1.1649072e-04   6.8708490e-05   1.8465775e-04   9.5851072e-05   2.4559192e-06   3.7673504e-05
   1.2879758e-04   1.0866882e-04   1.3908814e-04   1.2775404e-04   1.0317064e-04   1.6692113e-04   1.6975598e-04   1.3899434e-04   9.0933427e-05   7.6707373e-05   5.7120451e-06  -1.4718880e-04  -3.3316428e-05   9.4282994e-05   2.5121733e-05   1.0023674e-05   3.4839701e-05   2.4904300e-06   5.1000850e-05   1.0277294e-04  -1.2280153e-05   4.9226128e-06   5.6943321e-05   9.2580398e-05   8.8284993e-05   3.3430329e-05   6.2653395e-05   1.3062355e-04   1.5896928e-04   1.1051890e-04   6.6107103e-05   3.7696231e-05   5.1642099e-05   6.0398688e-05   1.1874543e-04   1.8277735e-04   2.2714309e-04   1.3126885e-04   1.8768826e-04   2.2348296e-04   3.7568941e-05   9.0914864e-06   3.8220584e-05   1.2380582e-04   1.1212833e-04   8.9859022e-05   1.9827456e-04   1.6769093e-04   3.9566885e-06   4.3515767e-05
   1.7232128e-04   1.9445756e-04   1.7183834e-04   1.9202783e-04   1.0561811e-04   1.7971586e-04   1.9245985e-04   1.4562070e-04   1.4155183e-04   1.0785729e-04   4.7829875e-05  -1.1136617e-04  -1.6632672e-05   9.7048498e-05   2.8146918e-05  -3.7699840e-06   2.9071050e-05   1.1349799e-06   1.0797883e-04   9.5680931e-05   3.6502232e-05   5.9617068e-05   7.9141319e-05   7.5093674e-05   1.2360411e-04   7.3906034e-05   5.8171034e-05   1.3728793e-04   1.3912874e-04   1.0686173e-04   7.3671821e-05   3.4427110e-05   1.3008752e-04   9.0483918e-05   1.2096051e-04   1.9542831e-04   2.2270344e-04   1.2782234e-04   1.8703833e-04   2.2546155e-04   2.8011376e-05  -1.1372704e-05   5.0782899e-05   1.2298675e-04   9.1281392e-05   6.1995168e-05   1.7242989e-04   1.4368356e-04   1.3384906e-05   8.5504980e-05
   1.5544165e-04   1.3455226e-04   1.6614117e-04   1.6865622e-04   1.0538791e-04   1.7712759e-04   1.8555320e-04   1.3826128e-04   1.1721834e-04   1.0714222e-04   3.2653454e-05  -1.2000464e-04  -1.6289676e-05   1.1029691e-04   3.0608411e-05   9.0294034e-06   3.7412417e-05   1.0690877e-05   7.1841467e-05   8.8280627e-05  -1.5882724e-05   3.5398149e-05   7.2341965e-05   6.9616210e-05   1.0700172e-04   3.7839010e-05   6.4665051e-05   1.3825548e-04   1.4329006e-04   1.1038141e-04   6.7959394e-05   3.7923637e-05   1.1410480e-04   7.0822585e-05   1.2723502e-04   1.7422320e-04   2.2073986e-04   1.2577286e-04   1.7666430e-04   1.9724070e-04  -6.9247340e-06  -2.7540413e-05  -5.1041056e-06   1.0313259e-04   6.8596717e-05   5.1686231e-05   1.8124431e-04   1.2126057e-04   1.4829026e-05   1.6088836e-05
   1.3251562e-04   1.2880114e-04   1.4505384e-04   1.2917236e-04   1.0621308e-04   1.6643007e-04   1.7135304e-04   1.5713696e-04   8.7109234e-05   9.8951263e-05   5.7682842e-06  -1.2619319e-04  -2.4007821e-05   1.1046537e-04   2.7365548e-05   2.2457329e-05   3.8022961e-05   1.1828670e-05   6.6881090e-05   1.1211127e-04   1.7255559e-05   3.1525884e-05   5.4410288e-05   6.7030458e-05   1.2949279e-04   5.4924454e-05   8.0033860e-05   1.3640740e-04   1.6901037e-04   1.1324005e-04   6.4604028e-05   4.5553839e-05   1.2546314e-04   7.5354503e-05   1.2697896e-04   2.1050763e-04   2.3083510e-04   1.4016934e-04   1.8728255e-04   2.1992197e-04   2.3809149e-05  -1.3906149e-05   5.9011552e-05   1.2238660e-04   1.1536203e-04   6.7169472e-05   1.8530100e-04   1.8274083e-04   1.2606510e-05   4.0948780e-05
   1.7223676e-04   1.8424296e-04   1.8068544e-04   1.9218815e-04   1.1139742e-04   1.7938510e-04   1.9345406e-04   1.4968273e-04   1.6224354e-04   1.3251185e-04   4.7546364e-05  -9.0252455e-05  -7.2110338e-06   1.1900019e-04   2.6609294e-05   5.5292285e-06   3.8310958e-05   1.5620359e-06   1.1259365e-04   9.5351330e-05   3.7178896e-05   7.0738301e-05   8.1346036e-05   9.1454815e-05   1.1859712e-04   7.8860241e-05   7.5013559e-05   1.3342980e-04   1.5384350e-04   1.0197267e-04   7.0477654e-05   4.3006894e-05   1.4074710e-04   9.1881775e-05   1.3380274e-04   1.8959300e-04   2.2394328e-04   1.3820383e-04   1.9158452e-04   2.0342218e-04   1.2688124e-05  -2.8092794e-05   9.7872889e-06   1.1577098e-04   7.4105163e-05   4.5351542e-05   1.7260092e-04   1.1217990e-04   3.3351618e-05   3.4283708e-05
   1.6270787e-04   1.7625821e-04   1.7045821e-04   1.7065057e-04   1.1149469e-04   1.7616509e-04   1.9262407e-04   1.4343002e-04   1.2346389e-04   1.3331513e-04   3.8234222e-05  -9.6626623e-05  -9.7001512e-06   1.1969058e-04   3.2799893e-05   2.1177306e-05   4.5268291e-05   1.9584104e-05   6.4666434e-05   1.1856591e-04   1.9722400e-05   3.8067690e-05   7.6340664e-05   1.0039570e-04   1.1686867e-04   3.9493774e-05   8.1113176e-05   1.2766806e-04   1.6484848e-04   1.0666365e-04   6.8706329e-05   3.9367318e-05   8.8312037e-05   8.4993393e-05   1.2815461e-04   1.6719493e-04   2.3552311e-04   1.2828659e-04   1.9116365e-04   2.1179579e-04  -4.8963075e-06  -2.8969456e-05   3.3616456e-05   1.2067087e-04   8.4129257e-05   5.7269830e-05   1.7996626e-04   9.3136950e-05   1.3611996e-05   5.4477456e-05
   1.3677003e-04   1.2024763e-04   1.4987066e-04   1.2998407e-04   1.1276080e-04   1.7613008e-04   1.7088509e-04   1.6348768e-04   9.0444155e-05   1.2212775e-04   1.1907484e-05  -1.1120785e-04  -1.1507679e-05   1.1433888e-04   2.0139432e-05   3.4108903e-05   4.4640950e-05   2.2811973e-05   5.8625974e-05   8.5215805e-05  -4.1167226e-07   2.6974451e-05   5.9936181e-05   6.9010144e-05   1.2289915e-04   5.1560161e-05   7.7688783e-05   1.2719810e-04   1.6388769e-04   1.0443681e-04   6.9593232e-05   3.3240343e-05   9.0857444e-05   7.4093216e-05   1.2408716e-04   1.7916919e-04   2.4055045e-04   1.3977088e-04   2.0631410e-04   2.1043961e-04   2.0596048e-05  -1.0319753e-05   3.6367815e-05   1.3111021e-04   1.2017340e-04   6.2953550e-05   1.6497028e-04   1.0652085e-04   2.3821289e-05   4.2807053e-05
   1.7298191e-04   1.8523162e-04   1.8047498e-04   1.9325415e-04   1.1487228e-04   1.8903037e-04   1.9093438e-04   1.5039516e-04   1.2443210e-04   1.4844499e-04   5.0170325e-05  -7.9487560e-05  -3.1338086e-06   1.1376081e-04   3.9147122e-05   1.7596227e-05   3.8370665e-05   2.7120192e-05   1.1969926e-04   1.1102770e-04   1.7568407e-05   6.1707433e-05   8.1024191e-05   8.4676263e-05   1.2138415e-04   9.1398681e-05   7.8294994e-05   1.3677569e-04   1.7077201e-04   1.0703571e-04   6.5717271e-05   3.6161586e-05   1.1596915e-04   8.6175554e-05   1.3077486e-04   1.8832061e-04   2.3888303e-04   1.2948459e-04   1.9359666e-04   2.1701938e-04   1.5751617e-05  -2.2809872e-05   3.1174073e-05   1.1817949e-04   9.8882381e-05   3.7531270e-05   1.7608788e-04   1.6286845e-04   5.4032500e-07   3.9699265e-05
   1.5798862e-04   1.3816824e-04   1.7018463e-04   1.7128591e-04   1.1063604e-04   1.8214635e-04   1.8860413e-04   1.4916342e-04   1.1412022e-04   1.4377474e-04   3.6469155e-05  -9.0109890e-05  -3.7502500e-06   1.1571067e-04   3.7346766e-05   3.5872134e-05   4.5703102e-05   2.3487071e-05   8.4485277e-05   1.1773438e-04   1.1365449e-05   3.3892851e-05   8.7184198e-05   9.7564116e-05   1.2422520e-04   5.5925877e-05   8.5998057e-05   1.3939325e-04   1.7948737e-04   1.1211246e-04   7.3125753e-05   2.8480406e-05   8.7974266e-05   7.9880789e-05   1.3681161e-04   1.8837029e-04   2.3653307e-04   1.2794333e-04   1.9245296e-04   2.1091846e-04  -4.8749412e-06  -2.6190532e-05   2.9378720e-05   1.1071774e-04   1.0212385e-04   3.8914946e-05   1.7754264e-04   1.0873175e-04  -4.6451125e-05   3.3960107e-05
   1.3592211e-04   1.2767492e-04   1.4968688e-04   1.2979441e-04   1.1403742e-04   1.8016035e-04   1.8305119e-04   1.5811574e-04   8.5087413e-05   1.3241223e-04   8.0434957e-06  -1.0194164e-04  -9.1534230e-06   1.1707594e-04   3.6986963e-05   5.1189076e-05   5.1047093e-05   3.2596214e-05   5.8126439e-05   1.1352388e-04  -9.8815062e-06   2.1402573e-06   7.2367962e-05   7.6970704e-05   9.9865756e-05   3.1978983e-05   9.9200202e-05   1.3833478e-04   1.9802709e-04   1.1577974e-04   6.3097912e-05   3.9027662e-05   1.0138495e-04   5.5625555e-05   1.3494930e-04   1.7565054e-04   2.4796996e-04   1.2714755e-04   2.0265150e-04   2.0775424e-04   2.2660062e-05   4.3142747e-05   5.1027189e-05   1.2099513e-04   1.5051564e-04   9.9809549e-05   1.9659546e-04   1.6655377e-04   2.4785320e-05   2.8245126e-05
   1.6787773e-04   1.6311611e-04   1.7709436e-04   1.9196942e-04   1.1670545e-04   1.9136655e-04   1.9668888e-04   1.5281262e-04   1.2788374e-04   1.6225944e-04   4.4566885e-05  -6.6789573e-05  -1.1487502e-06   1.2272620e-04   3.4688852e-05   3.2571592e-05   4.3148848e-05   2.0070907e-05   1.1346133e-04   7.1834307e-05   2.8465713e-05   7.0780559e-05   9.7815180e-05   1.3402881e-04   1.3304295e-04   9.9700635e-05   8.7550630e-05   1.2653075e-04   1.8096463e-04   1.1070819e-04   7.0339047e-05   3.5108740e-05   1.3236533e-04   9.3122188e-05   1.3179641e-04   1.9173900e-04   2.4404726e-04   1.2359237e-04   2.0337259e-04   2.2246782e-04   2.4177156e-05   5.2177493e-05   5.7973830e-05   1.2913733e-04   1.7103078e-04   6.1418468e-05   1.9133020e-04   1.3797064e-04   6.1191153e-05   6.2439249e-05
   1.5579918e-04   1.4608794e-04   1.6722674e-04   1.7854954e-04   1.0892393e-04   1.8812568e-04   1.9314956e-04   1.4702174e-04   1.1436418e-04   1.5848140e-04   2.8856630e-05  -7.7765631e-05  -3.4187203e-06   1.2364665e-04   3.6719332e-05   4.3124473e-05   4.5660156e-05   3.4467976e-05   8.8005625e-05   7.9203703e-05   4.0946965e-05   3.8292976e-05   8.8294073e-05   1.0411050e-04   1.1564142e-04   6.9906775e-05   8.0777361e-05   1.5234617e-04   1.7893815e-04   1.1102422e-04   7.3367301e-05   4.0546343e-05   1.3512482e-04   8.1741920e-05   1.3994973e-04   1.8039519e-04   2.2856625e-04   1.3434322e-04   1.9690795e-04   2.1760911e-04  -2.7423102e-06   3.9824645e-05   2.7545339e-05   1.1745106e-04   1.5192403e-04   7.1021590e-05   1.9070444e-04   1.7112763e-04   4.1263887e-05   4.7490463e-05
   1.3678757e-04   1.1757450e-04   1.4582333e-04   1.3791420e-04   1.1170310e-04   1.8031681e-04   1.8072921e-04   1.5578252e-04   8.5522071e-05   1.4937339e-04   3.4667748e-06  -9.1951915e-05  -8.6714444e-06   1.2026158e-04   3.3779892e-05   5.2703934e-05   5.3749918e-05   4.4047269e-05   7.4202471e-05   8.1347418e-05  -1.7176138e-05  -1.6532529e-07   7.0970600e-05   1.2598239e-04   1.0143628e-04   3.6212696e-05   8.9763569e-05   1.5365718e-04   2.0187206e-04   1.1399414e-04   7.2003539e-05   3.3782282e-05   9.4594790e-05   6.8265785e-05   1.3261364e-04   1.8179747e-04   2.3859934e-04   1.3889183e-04   2.0333832e-04   2.2680509e-04   4.7525715e-05   6.2947685e-05   6.5850945e-05   1.3443879e-04   1.7272723e-04   9.4528281e-05   1.8674601e-04   1.7195626e-04   9.1519887e-06   5.6768866e-05
   1.6908409e-04   1.8533081e-04   1.7424846e-04   1.9636132e-04   1.1300440e-04   1.9195225e-04   1.9943064e-04   1.5388442e-04   1.4829599e-04   1.7947008e-04   4.3605429e-05  -5.4801745e-05   5.6305184e-06   1.2168469e-04   4.2544925e-05   3.9110892e-05   4.3435866e-05   3.4092845e-05   9.0454290e-05   1.1506343e-04   2.7747701e-05   6.0149992e-05   1.0413943e-04   9.6639858e-05   1.1837334e-04   9.0316447e-05   7.9809615e-05   1.5815730e-04   1.7635876e-04   1.1034201e-04   7.5009542e-05   4.0650059e-05   1.3017995e-04   9.9221797e-05   1.3985358e-04   1.9391235e-04   2.5219753e-04   1.4357260e-04   2.0387866e-04   2.3336432e-04   3.0130510e-05   4.8477181e-05   9.3194663e-05   1.3187477e-04   1.2659839e-04   7.5067983e-05   1.7032439e-04   1.6185766e-04   6.1700332e-05   5.7824567e-05
   1.5742474e-04   1.3396580e-04   1.6598047e-04   1.7913889e-04   1.0933481e-04   1.8585025e-04   1.9405100e-04   1.5409842e-04   1.2554252e-04   1.7128323e-04   2.7526421e-05  -7.5703952e-05  -2.3463056e-06   1.1049085e-04   3.8753966e-05   5.0951774e-05   4.6321529e-05   3.3648234e-05   8.5148386e-05   1.0001631e-04   1.8480596e-05   3.0843759e-05   8.9044966e-05   9.4427196e-05   1.2101528e-04   7.4292395e-05   8.6691114e-05   1.5220165e-04   1.8137305e-04   1.0845832e-04   7.0929607e-05   3.3171720e-05   1.1746389e-04   9.1083362e-05   1.4168664e-04   1.8306718e-04   2.4107785e-04   1.2235975e-04   1.9913494e-04   2.2324704e-04   2.3472950e-05   6.2427855e-05   6.6429857e-05   9.8197976e-05   1.7410278e-04   5.6431985e-05   1.9835796e-04   1.4277267e-04   2.5048654e-05   2.1927910e-05
   1.3439517e-04   1.0497488e-04   1.4145048e-04   1.3620500e-04   1.0930734e-04   1.8162707e-04   1.8145308e-04   1.5481721e-04   9.3065399e-05   1.6513199e-04  -1.7389267e-06  -8.7133107e-05  -7.0446940e-06   1.2813570e-04   3.1795309e-05   5.6159530e-05   4.8810507e-05   4.5277069e-05   6.4786625e-05   8.4600993e-05  -5.5046935e-06  -9.2236428e-07   6.8359521e-05   1.0437416e-04   1.1069268e-04   2.9618790e-05   8.4175816e-05   1.4648751e-04   1.7484656e-04   1.1159207e-04   7.1871720e-05   3.3418997e-05   1.1608331e-04   5.6260935e-05   1.3362870e-04   1.8329457e-04   2.3947858e-04   1.3302227e-04   1.9808525e-04   2.2270581e-04   4.4910244e-05   8.3104875e-05   6.6455548e-05   1.2410185e-04   1.9132446e-04   7.7459954e-05   1.9815240e-04   1.7361730e-04   5.7178437e-05   6.2980806e-05
   1.6824677e-04   1.4627766e-04   1.7159509e-04   1.9718593e-04   1.1023502e-04   1.8847230e-04   1.9706476e-04   1.5062615e-04   1.6758860e-04   1.9296411e-04   3.5941703e-05  -5.0800289e-05   5.5948237e-07   1.1135748e-04   3.3201290e-05   3.7378551e-05   4.3434287e-05   3.3662633e-05   1.0931898e-04   1.0551309e-04   5.2716427e-06   7.1940951e-05   1.0030112e-04   1.1608993e-04   1.2030148e-04   9.1215261e-05   8.4780295e-05   1.5213843e-04   1.7769338e-04   1.1024214e-04   7.4232164e-05   3.9806859e-05   1.0444631e-04   1.0859687e-04   1.3238228e-04   1.9046890e-04   2.4317227e-04   1.2232027e-04   1.9857028e-04   2.3708558e-04   3.8728045e-05   1.0612463e-04   7.6253047e-05   1.2844002e-04   1.9399849e-04   8.8102308e-05   2.1098026e-04   1.9239889e-04   8.3983025e-05   3.6729936e-05
   1.6457941e-04   1.5710125e-04   1.6154250e-04   1.8173883e-04   1.0663660e-04   1.9280538e-04   1.8771394e-04   1.5111940e-04   1.5937655e-04   1.9944878e-04   3.3184511e-05  -5.3765216e-05   3.6083773e-06   1.1598582e-04   3.3496570e-05   4.7746504e-05   4.9390226e-05   5.3003921e-05   8.4281215e-05   8.8548863e-05   8.8913161e-08   5.2482985e-05   8.3464009e-05   1.3135892e-04   1.3514185e-04   5.8736670e-05   9.2109090e-05   1.3633705e-04   1.7732137e-04   1.0452096e-04   6.7438974e-05   3.6993228e-05   1.0850094e-04   9.1692033e-05   1.3948797e-04   1.7591139e-04   2.4425998e-04   1.3008538e-04   1.8831063e-04   2.2347961e-04   2.1196618e-05   1.0764904e-04   3.9690116e-05   1.0583855e-04   1.9930428e-04   6.6593791e-05   1.9438722e-04   1.8044113e-04   7.1656381e-05   8.0502741e-06
   1.4467901e-04   1.0226780e-04   1.4163514e-04   1.4167905e-04   1.0472703e-04   1.8432693e-04   1.7808315e-04   1.5039601e-04   1.2026256e-04   1.8888775e-04   7.4849518e-06  -7.1787792e-05  -6.3742659e-06   1.1673963e-04   2.8602230e-05   5.3017833e-05   5.4075193e-05   4.0273364e-05   5.6508230e-05   9.4071125e-05  -2.7621118e-05   1.0161881e-05   5.7167847e-05   1.1311003e-04   1.0921009e-04   2.7250482e-05   9.3931674e-05   1.5236154e-04   2.0619335e-04   1.0941126e-04   6.7024055e-05   3.2081753e-05   1.0137733e-04   6.1401523e-05   1.3712054e-04   1.5129989e-04   2.4046340e-04   1.3125651e-04   1.9315003e-04   2.0911540e-04   1.6393686e-05   1.2957066e-04   3.1528496e-05   1.0727996e-04   2.1383428e-04   8.2650135e-05   2.2591090e-04   1.1900447e-04   8.7233755e-05   3.5146546e-05
   1.7652035e-04   1.5508088e-04   1.6913829e-04   1.9442545e-04   1.0860759e-04   1.9718753e-04   1.9880343e-04   1.4951205e-04   1.6368218e-04   2.1368841e-04   4.0114825e-05  -3.5380453e-05   5.6784529e-06   1.0648709e-04   3.6196121e-05   3.6092493e-05   4.7145681e-05   3.3804590e-05   1.1126123e-04   9.7422671e-05   5.4869932e-05   7.9270365e-05   8.2584527e-05   1.2646141e-04   1.5543454e-04   9.3040107e-05   8.0613718e-05   1.4150560e-04   1.5154436e-04   1.0451938e-04   7.3345713e-05   2.8770752e-05   1.3286942e-04   1.1047265e-04   1.4136173e-04   2.0658047e-04   2.4728678e-04   1.3531327e-04   1.9807539e-04   2.4688465e-04   3.7307353e-05   1.0983511e-04   6.0868537e-05   1.2265182e-04   1.8334808e-04   7.0290946e-05   2.1290488e-04   1.6760263e-04   9.4515832e-05   3.1697047e-05
   1.6765781e-04   1.4256955e-04   1.6527479e-04   1.8554069e-04   1.0230638e-04   1.9450522e-04   1.8794627e-04   1.4541733e-04   1.5591364e-04   2.1759790e-04   3.9464147e-05  -3.7488153e-05   4.1533940e-06   1.0710487e-04   2.8801045e-05   3.6809171e-05   4.8662852e-05   2.7952010e-05   7.3845258e-05   1.0110465e-04   6.1482096e-05   5.5137862e-05   7.8910292e-05   1.3511520e-04   1.2197426e-04   7.3909177e-05   8.7722430e-05   1.4928349e-04   1.7439853e-04   1.0841859e-04   6.7045294e-05   2.3672852e-05   1.2584554e-04   7.9911777e-05   1.3371093e-04   1.9317871e-04   2.4564358e-04   1.2592140e-04   1.9770565e-04   2.1965912e-04   2.0268621e-05   1.3069191e-04   6.9012727e-05   1.0727522e-04   1.7109403e-04   6.1053084e-05   2.2379856e-04   1.8680235e-04   4.2059532e-05   4.3628486e-05
   1.5303388e-04   1.5462952e-04   1.4630635e-04   1.4147078e-04   1.0284303e-04   1.8280586e-04   1.7430200e-04   1.5216322e-04   1.1263214e-04   2.0790602e-04   1.4796346e-05  -5.8341619e-05  -3.4019292e-06   9.7835604e-05   2.9814069e-05   4.4429835e-05   5.3104166e-05   4.1704272e-05   6.9521549e-05   1.0834837e-04   9.2723021e-06   9.9717890e-06   6.9578491e-05   1.0287983e-04   1.0474047e-04   3.3469343e-05   9.3082148e-05   1.4424986e-04   1.9114741e-04   1.1141801e-04   6.5333174e-05   3.8487200e-05   7.5317264e-05   5.9054008e-05   1.3931452e-04   1.4442677e-04   2.4256628e-04   1.2012605e-04   1.9550433e-04   2.0948285e-04   6.1801957e-06   1.5473858e-04   5.3526190e-05   9.3869683e-05   1.8671397e-04   5.6652541e-05   1.8892557e-04   1.8555140e-04   5.7592275e-05   5.4972974e-05
   1.6351033e-04   9.7516051e-05   1.6065293e-04   1.5964358e-04   1.1010945e-04   1.9711262e-04   1.7986822e-04   1.5522359e-04   1.6291587e-04   2.2963996e-04   2.6420765e-05  -3.0751838e-05   5.7620332e-06   1.0626212e-04   2.5860720e-05   2.8788822e-05   3.4048106e-05   1.8312347e-05   9.9656965e-05   7.6854500e-05   5.7897811e-05   6.2470266e-05   9.4581439e-05   1.2298062e-04   1.2780147e-04   9.6963515e-05   7.7081291e-05   1.5655244e-04   1.8864314e-04   1.0812373e-04   7.0813185e-05   3.0984767e-05   1.6057174e-04   9.2547089e-05   1.3198676e-04   1.8828368e-04   2.4640406e-04   1.4085851e-04   1.9211795e-04   2.4179113e-04   5.4467677e-05   1.6646067e-04   9.2917682e-05   1.2985291e-04   2.0921066e-04   6.4007974e-05   1.9466149e-04   1.6037747e-04   4.7064954e-05   4.4713732e-05
   1.7780639e-04   1.5542950e-04   1.6393687e-04   1.7741541e-04   1.0252435e-04   1.9394446e-04   1.8754332e-04   1.4099196e-04   1.6762961e-04   2.3523891e-04   3.9333216e-05  -3.1445743e-05   2.2255051e-06   1.0151871e-04   2.3042745e-05   2.7992786e-05   3.6612520e-05   2.7133981e-05   7.9358375e-05   7.9891019e-05   2.9676608e-05   5.5831817e-05   7.8181882e-05   1.1702427e-04   1.2362810e-04   7.2870622e-05   8.9337860e-05   1.3715637e-04   1.8288975e-04   1.0688671e-04   6.2445892e-05   3.0996667e-05   1.1313034e-04   8.3361061e-05   1.3720301e-04   1.9041046e-04   2.3342318e-04   1.3457525e-04   2.0069125e-04   2.2805227e-04   3.8247726e-05   1.3454539e-04   8.9988032e-05   1.1493860e-04   1.9244057e-04   6.0602197e-05   2.2826255e-04   1.7842678e-04   7.2475763e-05   4.1518157e-05
   1.6122231e-04   9.1317008e-05   1.4970271e-04   1.4268573e-04   1.0881572e-04   1.9065745e-04   1.8053340e-04   1.4282677e-04   1.3026976e-04   2.2558334e-04   1.6397553e-05  -5.2295763e-05  -5.5086784e-06   9.2964867e-05   2.1660211e-05   3.2309770e-05   3.7166763e-05   3.0952426e-05   8.1641308e-05   6.9732989e-05   1.8639552e-05   1.3183936e-05   6.2744148e-05   8.7218956e-05   9.5900577e-05   4.0310551e-05   8.2854742e-05   1.5376305e-04   1.9109825e-04   1.1025349e-04   7.0796596e-05   2.7669581e-05   8.9736604e-05   5.3805285e-05   1.3414987e-04   1.5356785e-04   2.4762450e-04   1.1557751e-04   1.8236680e-04   2.0598168e-04   2.7718797e-05   1.1967705e-04   8.8087821e-05   1.0381085e-04   1.5781749e-04   5.7778212e-05   2.0637251e-04   1.6506501e-04   8.1376405e-05   1.3414317e-05
   1.5684102e-04   1.0615812e-04   1.5643271e-04   1.5325242e-04   1.1422893e-04   1.9178719e-04   1.8279289e-04   1.4744635e-04   1.7403773e-04   2.5079079e-04   2.3868972e-05  -2.2357581e-05   1.3683299e-06   9.1905626e-05   2.2518710e-05   2.0793863e-05   2.5798756e-05   2.4764717e-05   1.0647444e-04   1.2665194e-04   5.9126774e-05   6.1870014e-05   7.6237811e-05   1.0688786e-04   1.3233577e-04   9.7168246e-05   7.0463728e-05   1.4049812e-04   1.7676990e-04   1.1005443e-04   6.5830005e-05   2.7098935e-05   1.1277435e-04   9.1363479e-05   1.2630352e-04   1.9321920e-04   2.3927666e-04   1.4171624e-04   1.9579512e-04   2.2087015e-04   6.3342079e-05   1.5181222e-04   9.9525256e-05   1.2647086e-04   1.9917807e-04   8.2807674e-05   1.9069553e-04   1.4450125e-04   7.8282486e-05   5.5065168e-05
   1.8360425e-04   1.7929528e-04   1.6371625e-04   1.7140131e-04   1.0901543e-04   1.8860439e-04   1.8279614e-04   1.4383071e-04   1.8022420e-04   2.5226033e-04   3.6638376e-05  -2.0203643e-05  -1.0137439e-06   9.5438147e-05   2.6076168e-05   2.0242291e-05   2.5159055e-05   2.0299862e-05   9.6215750e-05   1.1107144e-04   4.8732927e-05   5.7211797e-05   7.3753014e-05   1.0582345e-04   1.1647109e-04   7.7484947e-05   7.2304043e-05   1.4842607e-04   1.6452438e-04   1.0906415e-04   6.2865838e-05   2.3735578e-05   1.2167793e-04   7.9878700e-05   1.3301264e-04   1.7824401e-04   2.3474332e-04   1.2750426e-04   1.7731515e-04   2.2026304e-04   5.2491170e-05   1.2585116e-04   1.0388205e-04   1.1307753e-04   2.0872743e-04   7.7728953e-05   2.1028887e-04   2.0061726e-04   5.6695066e-05   3.3127104e-05
   1.5877058e-04   1.3915208e-04   1.4843950e-04   1.3731632e-04   1.0574158e-04   1.8290119e-04   1.7017582e-04   1.4295871e-04   1.5400954e-04   2.4391878e-04   1.5858237e-05  -3.7975107e-05  -1.0015914e-05   9.1814225e-05   1.3011109e-05   2.3088300e-05   2.7696384e-05   2.3423387e-05   6.6956374e-05   7.4678479e-05   2.7624897e-06   1.8943714e-05   6.6434499e-05   9.5885596e-05   1.1268787e-04   3.8817700e-05   8.8062887e-05   1.5599959e-04   1.7697643e-04   1.1234602e-04   6.6633365e-05   3.1291129e-05   1.1007200e-04   4.9285423e-05   1.3523402e-04   1.7085575e-04   2.2685544e-04   1.2245262e-04   1.8786958e-04   2.1541103e-04   4.0109848e-05   1.4699434e-04   8.5185340e-05   1.0012007e-04   2.1586045e-04   7.7514735e-05   1.9425410e-04   1.8872746e-04   8.8665241e-05   3.7802667e-05
   1.8391444e-04   1.5350849e-04   1.7414647e-04   1.7907874e-04   1.1257165e-04   1.8930242e-04   1.8187115e-04   1.4143060e-04   1.7537366e-04   2.7172771e-04   3.3110613e-05  -3.6571300e-06   1.7699955e-06   9.3490758e-05   2.7962040e-05   1.0749069e-05   1.6602044e-05   6.5749946e-06   1.2285871e-04   1.1412990e-04   6.0492952e-05   7.9175152e-05   8.9036475e-05   9.4469360e-05   1.4420068e-04   9.8188764e-05   8.4030355e-05   1.5438108e-04   1.5750958e-04   1.0790001e-04   6.3863896e-05   2.2670345e-05   1.4557064e-04   8.3344654e-05   1.2768734e-04   1.8365509e-04   2.4100965e-04   1.3096146e-04   1.9211210e-04   2.3044711e-04   6.5577246e-05   1.3665899e-04   9.6643453e-05   1.2755004e-04   1.9833326e-04   8.4739986e-05   1.8631729e-04   1.6230566e-04   7.1958260e-05   7.3004485e-05
   1.8401316e-04   1.4248307e-04   1.6700108e-04   1.7253977e-04   1.0775287e-04   1.8234459e-04   1.8688658e-04   1.3246373e-04   1.3625095e-04   2.7285155e-04   3.4861627e-05  -3.7319478e-06  -5.8600458e-06   9.8247139e-05   2.6549420e-05   1.4405029e-05   2.4003317e-05   2.5449039e-05   8.3239349e-05   1.0708572e-04   2.9240378e-05   5.9916008e-05   8.1671824e-05   9.6786280e-05   1.3259662e-04   6.9528702e-05   9.7319069e-05   1.4795973e-04   1.6527066e-04   1.0805012e-04   7.1882387e-05   3.1898180e-05   1.2877665e-04   7.4512165e-05   1.2465466e-04   1.7112713e-04   2.3558653e-04   1.3682191e-04   1.8544681e-04   2.2490541e-04   5.6642482e-05   1.1404405e-04   9.8400858e-05   1.0783386e-04   1.7089158e-04   5.7090918e-05   1.9316500e-04   1.9457826e-04   6.7179448e-05   4.5908608e-05
   1.5883500e-04   9.8407276e-05   1.5088395e-04   1.3587337e-04   1.0659105e-04   1.7494045e-04   1.6439384e-04   1.4036970e-04   9.8341712e-05   2.6084427e-04   8.1221542e-06  -2.6276444e-05  -1.1029912e-05   1.0037313e-04   2.8948323e-05   2.8982242e-05   2.4315428e-05   2.7961802e-05   5.2914260e-05   1.0419459e-04   2.9797031e-05   4.5324246e-05   6.1534280e-05   9.9986959e-05   1.2515568e-04   5.8991507e-05   8.8270070e-05   1.3950300e-04   1.5398375e-04   1.0671483e-04   6.0620667e-05   4.1321611e-05   1.1662296e-04   6.7260109e-05   1.2771261e-04   1.7510112e-04   2.3384654e-04   1.3756468e-04   1.9401364e-04   2.4263904e-04   6.7891342e-05   1.0063844e-04   9.7554868e-05   1.2924569e-04   1.7456379e-04   8.1966362e-05   1.9150865e-04   1.6465988e-04   7.0326285e-05   7.1568895e-05
   1.8874444e-04   1.6385109e-04   1.7612118e-04   1.8390040e-04   1.1001036e-04   1.7848329e-04   1.8208260e-04   1.3079366e-04   1.4267254e-04   2.8720411e-04   4.0175844e-05   5.7096445e-06  -2.6612943e-06   9.0801157e-05   3.4711342e-05   1.5700834e-05   1.7433291e-05   1.0611631e-05   8.0813661e-05   9.2032053e-05   5.4061686e-05   7.6701450e-05   8.8113382e-05   7.9578575e-05   1.2892979e-04   8.4747131e-05   6.9466863e-05   1.5255614e-04   1.6337777e-04   1.0262251e-04   7.5056771e-05   2.6293948e-05   1.1663259e-04   9.6496762e-05   1.2797069e-04   1.7025956e-04   2.3523202e-04   1.3294903e-04   1.7566477e-04   2.3185108e-04   6.2562562e-05   6.8631205e-05   9.4185780e-05   1.1159389e-04   1.7467637e-04   7.1009621e-05   1.6068743e-04   1.7670851e-04   4.7673268e-05   4.7584082e-05
   1.7369611e-04   1.3535166e-04   1.6718774e-04   1.6240923e-04   1.0576784e-04   1.7671696e-04   1.7225889e-04   1.2981688e-04   1.0759515e-04   2.8278792e-04   2.5543543e-05  -6.4440082e-06  -5.9358140e-06   9.3105897e-05   2.6524564e-05   2.0854230e-05   1.9101699e-05   2.4053672e-05   9.2339069e-05   9.2282433e-05   4.8161764e-05   5.6842655e-05   7.6986580e-05   1.0367058e-04   1.2693045e-04   5.2406449e-05   8.4200023e-05   1.3253585e-04   1.7588405e-04   1.0985260e-04   7.3127878e-05   2.4080957e-05   1.0460021e-04   6.8408670e-05   1.2923074e-04   1.5974809e-04   2.2038761e-04   1.2191509e-04   1.7724822e-04   2.1232727e-04   4.1950087e-05   7.2669645e-05   9.6596821e-05   9.1875263e-05   1.8001543e-04   7.0788446e-05   1.7195851e-04   1.9996245e-04   4.6485438e-05   7.0425107e-05
   1.4154901e-04   1.0186119e-04   1.4557103e-04   1.2450060e-04   1.0519895e-04   1.6892340e-04   1.6199550e-04   1.2160932e-04   5.9567050e-05   2.8075840e-04  -4.3775594e-06  -6.4531755e-06  -1.0648387e-05   9.0478126e-05   1.9639163e-05   2.2910141e-05   1.4949416e-05   2.4842819e-05   8.7817425e-05   9.9041477e-05   6.5154723e-05   8.3304185e-05   7.5148404e-05   1.2039724e-04   1.2444654e-04   8.6692060e-05   8.1934675e-05   1.4227194e-04   1.5644496e-04   1.0265574e-04   6.3948632e-05   2.6590731e-05   1.2178303e-04   8.6740045e-05   1.2746305e-04   1.7892866e-04   2.3520114e-04   1.3781164e-04   1.9652391e-04   2.3795247e-04   7.3548908e-05   2.5993641e-05   9.4545248e-05   1.2678384e-04   1.9529993e-04   9.5646392e-05   1.5860597e-04   2.0630725e-04  -2.7905875e-07   5.6518871e-05
   1.8242492e-04   1.6593728e-04   1.7855548e-04   1.7941622e-04   1.0314541e-04   1.6844575e-04   1.7654330e-04   1.1568605e-04   1.0550833e-04   3.0398829e-04   3.4814853e-05   2.0327963e-05  -3.7329837e-06   7.7836703e-05   2.7560112e-05   1.5793123e-05   1.7699836e-05   1.8193559e-05   1.0727749e-04   7.9044738e-05   4.2018473e-05   8.9989488e-05   7.3747724e-05   8.4486950e-05   1.1342250e-04   8.5532287e-05   7.1287483e-05   1.4598624e-04   1.6437119e-04   1.0178101e-04   6.2651801e-05   2.9662480e-05   1.1023725e-04   9.2531060e-05   1.2642646e-04   1.5602981e-04   2.2216594e-04   1.2873634e-04   1.7252634e-04   2.2468435e-04   6.0075075e-05   1.3616315e-05   6.9119036e-05   1.1448361e-04   1.1613830e-04   8.0000726e-05   1.3574051e-04   1.0925543e-04  -8.4897556e-06   4.4733100e-05
   1.5802495e-04   1.4365526e-04   1.6089718e-04   1.5553337e-04   1.0313850e-04   1.6326270e-04   1.5887459e-04   1.1843759e-04   7.4942174e-05   2.9852457e-04   1.9062585e-05   7.9972242e-06  -8.8577726e-06   8.8410663e-05   3.3319939e-05   2.6426140e-05   2.2535760e-05   2.5857040e-05   9.0812246e-05   1.0800151e-04   3.5704183e-05   6.4214546e-05   7.4628559e-05   6.9488393e-05   1.0703198e-04   5.2927986e-05   8.2588376e-05   1.3621525e-04   1.7000863e-04   1.0721374e-04   5.6860044e-05   1.6013457e-05   1.0131174e-04   7.1943621e-05   1.2126309e-04   1.4780073e-04   2.3517337e-04   1.1685993e-04   1.7834948e-04   2.0977654e-04   2.3806049e-05   1.5619265e-05   6.5500652e-05   1.0942129e-04   1.1299158e-04   7.2644914e-05   1.4402586e-04   1.0644805e-04   3.8943403e-05   3.9225717e-05
   1.2852046e-04   1.1832292e-04   1.4552091e-04   1.2100412e-04   1.0438901e-04   1.5524861e-04   1.5040814e-04   1.2734457e-04   4.8234051e-05   2.9206485e-04  -1.0759481e-05  -3.0177291e-06  -1.7782431e-05   9.3441369e-05   2.2528828e-05   2.8723189e-05   2.2420329e-05   2.5501031e-05   5.5259337e-05   1.0785968e-04   4.5627439e-05   6.0229628e-05   5.9227252e-05   6.8060974e-05   1.0849260e-04   5.1182207e-05   7.1876559e-05   1.3651990e-04   1.4684114e-04   1.0290512e-04   5.9271366e-05   1.6578813e-05   6.6298388e-05   7.6310731e-05   1.2569738e-04   1.6274350e-04   2.3612927e-04   1.3802915e-04   1.9168314e-04   2.3115636e-04   6.0741884e-05   2.3818184e-05   8.4663399e-05   1.2771468e-04   1.5320390e-04   6.9982838e-05   1.7567027e-04   1.9078649e-04   6.5474138e-05   4.7236746e-05
   1.6229140e-04   1.5481035e-04   1.7186702e-04   1.8146468e-04   1.0145277e-04   1.6644729e-04   1.7178558e-04   1.1336243e-04   1.1315089e-04   3.2918228e-04   4.3918273e-05   3.7880080e-05   5.7071484e-06   8.9603142e-05   3.5972098e-05   2.0805130e-05   1.9811485e-05   2.1992049e-05   1.1152227e-04   7.3536379e-05   7.8514029e-05   1.0321988e-04   8.0178412e-05   9.4228686e-05   1.3468337e-04   9.9965320e-05   7.6982455e-05   1.3461955e-04   1.5496570e-04   1.0127571e-04   6.3384934e-05   2.5702673e-05   1.2496894e-04   8.8765679e-05   1.3004817e-04   1.7112025e-04   2.1118010e-04   1.3180041e-04   1.8870372e-04   1.9102581e-04   6.5715387e-05   2.5612977e-05   7.1467344e-05   1.2272724e-04   1.4773954e-04   7.3376672e-05   1.3971174e-04   1.0524575e-04   4.3247397e-05   4.2971347e-05
   1.4548119e-04   1.2618360e-04   1.6189173e-04   1.6189682e-04   9.9191886e-05   1.5056352e-04   1.6083164e-04   1.1642557e-04   9.7140204e-05   3.3031419e-04   3.4585104e-05   2.9245812e-05  -3.9742608e-06   9.5376141e-05   3.4100198e-05   3.2017262e-05   3.1228130e-05   2.6717107e-05   7.6705277e-05   1.0747826e-04   9.9989069e-05   7.3391668e-05   7.7426645e-05   7.9754660e-05   1.1752000e-04   8.7294648e-05   7.3883297e-05   1.3583753e-04   1.5587560e-04   1.0118635e-04   5.8245598e-05   3.2268570e-05   1.1508843e-04   8.2921055e-05   1.3078297e-04   1.5024586e-04   2.1619353e-04   1.1301730e-04   1.7595428e-04   1.9406171e-04   3.1770029e-05  -9.7367792e-06   4.9732454e-05   1.0894992e-04   1.4241967e-04   9.4160037e-05   1.3614268e-04   6.1380350e-05  -1.8811486e-06   1.5495139e-05
   1.1165326e-04   6.1256040e-05   1.3915981e-04   1.2191401e-04   9.7085423e-05   1.4755322e-04   1.4536087e-04   1.2962840e-04   4.9122660e-05   3.2688121e-04   1.2623891e-05   1.8198536e-05  -5.2507271e-06   8.4192063e-05   3.3039738e-05   3.5722453e-05   3.0834446e-05   2.9246692e-05   4.7419060e-05   9.3325951e-05   2.1764576e-05   3.7656231e-05   6.6170098e-05   8.6295004e-05   9.8267104e-05   3.5197638e-05   9.0193840e-05   1.1911706e-04   1.7178335e-04   1.0186435e-04   6.0687948e-05   3.6233803e-05   8.0090089e-05   5.7189671e-05   1.2442943e-04   1.3057924e-04   2.2240826e-04   1.0618071e-04   1.6850955e-04   1.7721392e-04   2.7611086e-05   4.3176815e-06   5.6646208e-05   8.6122149e-05   1.2117901e-04   8.4218300e-05   1.3310858e-04   1.2732983e-04   3.4082164e-05   1.7418455e-05
   1.4136884e-04   1.4120105e-04   1.6659667e-04   1.7234679e-04   1.0259743e-04   1.5526102e-04   1.6823270e-04   1.1435402e-04   9.7270655e-05   3.5993633e-04   4.8844915e-05   4.7738922e-05   3.8606386e-06   8.8181063e-05   3.7118520e-05   2.5053552e-05   2.7992015e-05   2.4999101e-05   1.1089252e-04   1.1440179e-04   6.5880711e-05   1.1158412e-04   7.6848468e-05   1.2314203e-04   1.2666492e-04   1.0002853e-04   7.5273158e-05   1.3146138e-04   1.3825081e-04   9.2271199e-05   6.0633487e-05   2.7811646e-05   1.6510054e-04   8.8371708e-05   1.2621371e-04   1.6247350e-04   2.1763999e-04   1.1146038e-04   1.6456595e-04   1.8772004e-04   5.0551636e-05   2.9713752e-05   4.4518107e-05   1.1229298e-04   1.3496855e-04   8.7995824e-05   1.3410821e-04   8.5191539e-05   3.7172111e-05   1.9488727e-05
