   7.3065537e-05   3.5696565e-05   1.2277190e-04   2.7231850e-05   3.3972454e-05  -2.0479811e-05   8.0073107e-05   1.2398741e-04   8.2775259e-05  -6.3104409e-04   2.5493649e-04  -2.4949122e-04  -9.8086035e-05  -2.1403910e-05  -1.1379509e-04  -1.4822189e-05  -5.8440481e-05  -1.7931564e-04  -1.6278232e-04   3.2577998e-05  -2.8470971e-04  -2.4353722e-04  -5.2244006e-05   1.2517750e-04   7.7371642e-06   4.4719895e-05  -3.3701799e-05   1.9797817e-05  -5.9950369e-05   6.0648667e-06  -1.5545850e-04  -2.9024448e-05   4.0767896e-05   3.5147219e-05  -5.3755299e-05   9.3797462e-05  -4.7230437e-06  -1.0566902e-04   4.4761306e-05  -3.7200200e-05   3.4111883e-05   9.8505399e-05   1.4247974e-04  -7.9976489e-06   7.6140390e-07  -3.6877344e-05   1.5798360e-04   2.5463253e-04   2.4424202e-04   1.6068701e-04
   9.5650736e-05   9.6135969e-05   1.4539673e-04   5.5151235e-05   3.0935378e-05  -1.1286845e-05   7.4534932e-05   1.2478053e-04   1.4390457e-04  -6.4346980e-04   2.6666946e-04  -2.2586148e-04  -9.7086478e-05  -7.7074737e-06  -9.9161378e-05  -2.2563308e-05  -6.1595361e-05  -1.8702915e-04  -1.4581034e-04   4.6330324e-06  -2.5923055e-04  -2.2063103e-04  -4.4454730e-05   1.5729570e-04  -1.4731635e-06   5.9594262e-05  -3.7809383e-05   3.1223724e-05  -2.9600569e-05   1.1250194e-05  -1.5607955e-04  -3.3457021e-05   5.8817623e-05   5.0062386e-05  -5.0020572e-05   1.1324589e-04  -8.7757405e-07  -9.1091286e-05   4.1507981e-05  -4.1816402e-05   3.1673484e-05   1.1497203e-04   1.2523054e-04   3.2220328e-06  -4.0376479e-05  -8.5156404e-05   1.3356617e-04   2.8109644e-04   2.2936077e-04   1.7493026e-04
   9.2165377e-05   9.0016918e-05   1.3265220e-04   4.8735455e-05   2.8664856e-05  -1.7469458e-05   7.6937489e-05   1.2629066e-04   1.3980873e-04  -6.7030726e-04   2.7060480e-04  -2.3122873e-04  -9.5746778e-05  -4.2020898e-07  -9.5778545e-05  -2.2732802e-05  -5.8517675e-05  -1.8193833e-04  -1.7204344e-04   8.8048228e-06  -2.7666887e-04  -2.2916580e-04  -5.8491791e-05   1.7351293e-04  -9.6603799e-06   3.0842435e-05  -3.1556468e-05   2.1654232e-05  -2.1931304e-05   9.1155371e-06  -1.5068895e-04  -1.5658379e-05   4.9749800e-05   3.3212822e-05  -4.3902397e-05   9.2099755e-05   1.7266243e-06  -1.0020607e-04   3.3268141e-05  -5.9944148e-05   3.1696633e-05   1.0265633e-04   1.0021510e-04  -1.3756189e-05   1.0137190e-05  -6.9308553e-05   1.3982247e-04   2.2092299e-04   2.1428503e-04   1.5893823e-04
   7.9176301e-05   7.3934621e-05   1.3001332e-04   4.4422333e-05   3.5414210e-05  -1.5145909e-05   7.2073301e-05   1.3829496e-04   1.4680962e-04  -6.8010413e-04   2.5599007e-04  -2.1766221e-04  -9.7763557e-05   6.3532971e-06  -9.8842385e-05  -3.1042411e-05  -6.9036701e-05  -2.0075880e-04  -1.5627132e-04   3.2637578e-05  -2.9161549e-04  -1.9594391e-04  -5.9207468e-05   1.6296782e-04   7.9357897e-06   6.4756721e-05  -3.6741294e-05   2.7464454e-05  -5.0867016e-05   7.6634378e-06  -1.6274011e-04  -2.9117766e-05   9.3029375e-05   4.7573663e-05  -4.3562362e-05   1.0889821e-04  -2.0914963e-06  -9.3078030e-05   3.3111071e-05  -4.6532419e-05   3.5731970e-05   1.2636294e-04   1.2620498e-04   6.2545732e-06   1.8327254e-06  -5.4173055e-05   1.6982217e-04   2.6348681e-04   2.6083700e-04   1.8534898e-04
   1.0261415e-04   1.0850168e-04   1.4591844e-04   6.2715153e-05   3.1985051e-05  -1.2612689e-05   6.8233210e-05   1.3729188e-04   1.4280157e-04  -6.9336401e-04   2.5864085e-04  -2.1982746e-04  -1.0107213e-04   1.5942981e-06  -9.2980685e-05  -2.0593177e-05  -6.0347971e-05  -1.9009756e-04  -1.4899099e-04   3.9847451e-05  -3.0685030e-04  -1.9830174e-04  -6.4524553e-05   1.9508514e-04   9.7406228e-06   5.5566441e-05  -3.6263420e-05   3.2323740e-05  -2.3001894e-05   1.0139796e-05  -1.5895670e-04  -2.4728171e-05   5.7169724e-05   5.4294480e-05  -3.9683146e-05   1.0970610e-04  -1.2499595e-06  -9.5583200e-05   3.5289009e-05  -5.3029045e-05   1.5454847e-05   1.2437598e-04   1.0182462e-04  -1.2559616e-06  -3.0452038e-05  -6.3127874e-05   1.4529096e-04   2.5923309e-04   2.3508923e-04   1.5150028e-04
   1.0241222e-04   1.0788691e-04   1.3884790e-04   5.2620100e-05   3.9275074e-05  -1.3947408e-05   7.2231589e-05   1.3529924e-04   1.2333899e-04  -7.1199989e-04   2.5503823e-04  -2.3446951e-04  -1.0201867e-04   4.7208491e-06  -9.8829609e-05  -2.6729565e-06  -4.8195921e-05  -1.8249650e-04  -1.7633752e-04  -1.0611777e-05  -3.0315746e-04  -2.2132332e-04  -5.1164501e-05   2.0313461e-04  -4.4702160e-06   3.2553220e-05  -3.5441866e-05   3.1910513e-05  -2.1173724e-05   2.0645022e-05  -1.5993479e-04  -2.5243104e-05   5.9161364e-05   3.7945021e-05  -4.8234837e-05   1.1869185e-04   7.1548866e-06  -8.5745647e-05   3.8603834e-05  -3.3757020e-05   4.4704535e-05   1.2728492e-04   1.1993968e-04   9.9923154e-06  -4.0609752e-06  -5.3510954e-05   1.4360294e-04   2.3921649e-04   1.5692129e-04   2.1527756e-04
   1.2105009e-04   1.2240127e-04   1.6571704e-04   7.7990720e-05   4.2971973e-05   2.3996276e-06   7.9649981e-05   1.4705572e-04   1.5305533e-04  -7.0792041e-04   2.5211542e-04  -2.1919922e-04  -1.0115614e-04  -4.2943911e-06  -7.9723024e-05  -1.4471427e-05  -6.4481043e-05  -1.8252173e-04  -1.3275242e-04   2.3383060e-05  -3.0580763e-04  -2.0641446e-04  -4.9670904e-05   1.7564408e-04   3.0572144e-05   7.1975308e-05  -5.1755913e-05   4.4800840e-05  -2.4700767e-05   1.8712277e-05  -1.4466885e-04  -1.6091688e-05   2.9127508e-05   5.6961624e-05  -3.7269718e-05   1.2702064e-04   8.2361548e-06  -7.9146870e-05   3.5395267e-05  -2.7976603e-05   5.2099316e-05   8.9849513e-05   1.2395556e-04   1.0946490e-05  -3.6813747e-06  -3.8366481e-05   1.2746023e-04   2.5151848e-04   2.4374768e-04   1.7406023e-04
   1.2915868e-04   1.4310276e-04   1.6677399e-04   7.2095740e-05   4.4330242e-05   7.9279289e-06   6.8245477e-05   1.3664585e-04   1.1306188e-04  -7.2411925e-04   2.4427619e-04  -2.3696492e-04  -1.0391994e-04   2.6921543e-06  -8.3817642e-05  -4.7200547e-06  -5.0727238e-05  -1.7349493e-04  -1.4407217e-04   3.5191384e-05  -3.3725161e-04  -2.4796330e-04  -3.7765567e-05   1.5023847e-04   9.3198323e-06   6.6519206e-05  -3.5699246e-05   4.4532677e-05  -1.1705373e-05   2.2114358e-05  -1.4801792e-04  -2.6491598e-05   6.1350504e-05   4.8923419e-05  -3.4613287e-05   1.3656834e-04   1.4122441e-05  -6.8463865e-05   2.7973862e-05  -3.3255135e-05   4.5812663e-05   6.7936649e-05   1.1848193e-04   4.4530757e-06  -2.3004777e-05  -4.6598489e-05   1.4703773e-04   2.1554499e-04   1.9676221e-04   1.8969271e-04
   1.1867108e-04   1.2804710e-04   1.5751875e-04   5.8079324e-05   5.6680674e-05   1.0447620e-05   7.8390935e-05   1.4259684e-04   8.1605838e-05  -7.3389331e-04   2.2323302e-04  -2.4199045e-04  -1.0298019e-04  -4.8149832e-06  -9.0401154e-05   1.0690889e-06  -5.8694524e-05  -1.7340640e-04  -1.3547720e-04   2.2719421e-05  -2.9082489e-04  -2.5081937e-04  -4.3259646e-05   1.4608049e-04   2.8574315e-05   7.1357761e-05  -3.6656736e-05   4.6094225e-05  -6.9489247e-06   2.7560976e-05  -1.4260202e-04  -2.8591638e-05   2.8895192e-05   6.1186023e-05  -3.3312419e-05   1.3017167e-04   2.0961375e-05  -6.0325641e-05   3.5826026e-05  -2.1881848e-05   6.9189286e-05   5.5015513e-05   1.5450316e-04   2.0400754e-05  -3.0545718e-05  -1.3529476e-05   1.2276268e-04   2.7081362e-04   2.0871758e-04   2.1134775e-04
   1.5856777e-04   1.1886527e-04   1.9006922e-04   8.3411433e-05   5.6543759e-05   2.1457156e-05   7.8906814e-05   1.2103681e-04   9.9901510e-05  -7.3358102e-04   2.2464886e-04  -2.2982775e-04  -9.1818685e-05   4.7927451e-06  -7.2689843e-05  -3.6934339e-06  -4.6474408e-05  -1.8612295e-04  -1.2188571e-04   3.7160986e-05  -2.7354906e-04  -2.4240608e-04  -2.5211539e-05   1.4492008e-04   1.6796951e-06   8.1288999e-05  -2.7789969e-05   5.3883836e-05  -1.6991914e-06   3.0341245e-05  -1.2965675e-04  -2.0173698e-05   1.1506375e-05   5.4209675e-05  -2.6597292e-05   1.4484703e-04   2.5367914e-05  -6.5878878e-05   4.2077412e-05  -3.7678892e-06   5.7815520e-05   2.0326102e-05   1.3930994e-04   2.1434036e-05  -2.9201945e-05  -2.3321774e-05   1.2290974e-04   2.3051549e-04   1.7250350e-04   2.2860673e-04
   1.5020388e-04   1.0900882e-04   1.8334320e-04   7.0905131e-05   6.1195533e-05   3.3541994e-05   7.1769209e-05   1.2911316e-04   4.3945583e-05  -7.5279782e-04   1.8777960e-04  -2.3899382e-04  -8.9415269e-05   1.0565899e-05  -7.2132963e-05   8.2725128e-06  -3.3155215e-05  -1.5456889e-04  -1.4328770e-04   2.8526027e-05  -2.8171029e-04  -2.5456457e-04  -4.2856253e-05   1.3591562e-04   2.5563106e-06   7.4355979e-05  -2.2747201e-05   3.8673395e-05   3.5851714e-05   4.5777462e-05  -1.1384366e-04  -1.6012331e-05   6.2809663e-06   4.9403468e-05  -1.9498957e-05   1.3809974e-04   2.3162476e-05  -5.2587391e-05   4.9397913e-05  -7.9977672e-06   5.8443671e-05   3.8731032e-05   1.6111898e-04   3.1845277e-05   1.1235617e-05  -1.5516959e-07   1.3062045e-04   2.7555987e-04   2.0723899e-04   2.3796091e-04
   1.4516310e-04   9.9232006e-05   1.6365848e-04   5.8451897e-05   7.3144918e-05   3.7731403e-05   8.3277962e-05   1.3943977e-04   4.9838826e-07  -7.6929305e-04   1.5867836e-04  -2.4966718e-04  -8.1883314e-05   1.0868876e-05  -6.4824933e-05   1.6981730e-05  -2.1159938e-05  -1.4079409e-04  -1.5196635e-04   4.0731102e-05  -2.8830301e-04  -2.5958943e-04  -3.1399930e-05   1.3028807e-04  -2.0282871e-05   5.7721427e-05  -2.2085730e-07   5.3170141e-05   4.7349327e-05   5.2978525e-05  -1.1229047e-04  -6.4809860e-06   3.0756986e-05   4.3510227e-05  -2.3278466e-05   1.3363631e-04   4.2760581e-05  -4.6827245e-05   6.6953529e-05  -7.1229992e-06   7.1674287e-05   6.6109198e-05   1.6384035e-04   8.1811168e-06   6.3374109e-06  -3.0014025e-05   1.3129645e-04   2.1991163e-04   1.8899281e-04   2.1295945e-04
   1.2449408e-04   8.5898064e-05   1.4181576e-04   4.7950529e-05   7.7954894e-05   2.8456940e-05   9.2336231e-05   1.5520306e-04   2.4860165e-05  -7.8390428e-04   1.6087059e-04  -2.5240160e-04  -7.6568940e-05   2.8255085e-05  -7.2972762e-05   3.3815584e-05  -9.0747035e-06  -1.3206105e-04  -1.8996091e-04  -1.2054157e-06  -3.3065720e-04  -2.5441419e-04  -4.7161018e-05   1.1612657e-04  -3.4408047e-05   3.0933727e-05   1.4709562e-05   4.1703515e-05   5.0735525e-05   5.4878343e-05  -1.2634443e-04   2.4743323e-07   6.3770873e-05   2.7295855e-05  -2.4614816e-05   1.2829584e-04   3.5783291e-05  -6.0886312e-05   5.7395962e-05   4.6898463e-06   7.2122493e-05   9.1436537e-05   1.4682824e-04   2.8707014e-05   8.0020018e-06   1.4579160e-06   1.4880202e-04   2.3778915e-04   1.7487194e-04   1.5008266e-04
   1.6035853e-04   1.2079182e-04   1.8646760e-04   9.2100483e-05   7.2156494e-05   3.8543996e-05   9.7846787e-05   1.4917081e-04   8.9414883e-05  -7.7057962e-04   1.8128315e-04  -2.2268058e-04  -6.8434885e-05   4.7857167e-05  -5.6993416e-05   2.3844887e-05  -1.8870607e-05  -1.3950854e-04  -1.1553081e-04   8.7307235e-06  -2.6559582e-04  -1.9254744e-04  -2.2415501e-05   1.1380768e-04   1.5090154e-05   8.0877187e-05  -7.6010901e-06   5.7021753e-05   6.0694191e-07   4.0409712e-05  -1.1360714e-04   5.2498967e-07   7.6871875e-05   7.0435890e-05  -1.6565691e-05   1.3702713e-04   3.1185540e-05  -5.7940502e-05   6.7127708e-05   4.3685150e-06   5.7809466e-05   9.6317883e-05   1.3574018e-04   2.2665999e-05   3.0956580e-05  -1.8196864e-05   1.7462521e-04   2.0250396e-04   2.0618211e-04   1.7595361e-04
   1.5548749e-04   1.6365867e-04   1.7990117e-04   8.9861380e-05   7.3290052e-05   3.9571387e-05   1.0318180e-04   1.6167876e-04   9.5419819e-05  -7.8586850e-04   1.8859489e-04  -2.3538830e-04  -6.2652718e-05   5.8534784e-05  -5.2826988e-05   3.4510671e-05  -3.6400531e-06  -1.2873748e-04  -1.4037603e-04   4.2042659e-05  -2.7349262e-04  -1.9963492e-04  -2.4964407e-05   1.6265469e-04   2.5640225e-05   7.3933086e-05   4.5319334e-06   5.0846731e-05   1.3147162e-05   4.9778428e-05  -1.1124038e-04   8.1236494e-06   3.4223183e-05   5.9411464e-05  -1.4261629e-05   1.5236886e-04   3.9426130e-05  -6.0216200e-05   7.5100419e-05  -2.7798537e-06   6.4244319e-05   5.0593499e-05   1.1636050e-04   1.4759932e-05  -4.0617560e-05  -1.9962812e-05   1.6072192e-04   2.5962631e-04   1.7419779e-04   1.3156752e-04
   1.4528116e-04   1.4881790e-04   1.6429217e-04   7.6971381e-05   7.9236888e-05   4.6316414e-05   1.1181094e-04   1.6993938e-04   8.7754393e-05  -8.0560037e-04   1.7815881e-04  -2.4683270e-04  -5.7777288e-05   7.4795033e-05  -5.4694494e-05   5.2258216e-05   2.5326181e-06  -1.2086930e-04  -1.5586070e-04   5.3627213e-05  -2.7168560e-04  -2.2620254e-04  -2.6870926e-05   1.3576270e-04   2.8806298e-06   5.4474174e-05   1.4971780e-05   6.6396868e-05   4.9391547e-05   5.7056961e-05  -1.0600994e-04   1.7233069e-05   5.1647672e-05   5.3382282e-05  -8.3230425e-06   1.7116065e-04   4.7528993e-05  -5.3266722e-05   7.8507386e-05   2.3792747e-06   6.1710140e-05   3.7808175e-05   1.2949973e-04   8.1273647e-06  -1.7011753e-05   1.5998352e-05   1.4459487e-04   2.4706786e-04   1.5484616e-04   1.8832850e-04
   1.3394339e-04   1.0620576e-04   1.4695743e-04   6.2802530e-05   8.8477980e-05   5.7350455e-05   1.1709330e-04   1.7483522e-04   5.7846908e-05  -8.0428924e-04   1.5988274e-04  -2.4028498e-04  -5.9214821e-05   6.1331644e-05  -5.0511295e-05   4.2924679e-05  -1.2267149e-05  -1.2703449e-04  -1.2682840e-04   2.6855658e-05  -2.7935527e-04  -2.1621995e-04  -1.2025935e-05   1.3604941e-04   5.8806076e-05   9.6382631e-05   2.2977745e-05   5.0973424e-05   4.9375067e-05   5.2068415e-05  -9.6421929e-05   1.1319577e-05   6.0278046e-05   7.0879803e-05  -2.9512225e-06   1.4740988e-04   5.5761258e-05  -3.3857541e-05   8.5410495e-05   3.5237073e-05   7.2973678e-05   3.5343768e-05   1.4491037e-04   2.9786639e-05  -2.4846988e-06   1.2008614e-05   1.5287755e-04   2.2135310e-04   2.1578766e-04   1.6993811e-04
   1.5947135e-04   1.4859733e-04   1.7766387e-04   9.5632866e-05   8.1703292e-05   6.4377244e-05   1.1980985e-04   1.5768537e-04   8.5262996e-05  -8.0905214e-04   1.6824523e-04  -2.3060912e-04  -5.8001162e-05   5.4396347e-05  -4.0708564e-05   4.2573552e-05  -1.0911535e-05  -1.1433232e-04  -1.2435848e-04   3.9137067e-05  -2.7560684e-04  -1.9702308e-04  -4.1014409e-06   1.4016144e-04   1.3811432e-05   8.3301544e-05   1.5308166e-05   6.7907917e-05   4.5260385e-05   5.7973528e-05  -9.7923927e-05   2.8676006e-05   1.0069821e-04   8.1683611e-05   4.0263567e-06   1.6239674e-04   5.7523412e-05  -1.9516114e-05   9.3992188e-05   3.8297392e-05   7.6910983e-05   6.7525914e-05   1.3769369e-04   2.9599996e-05   1.5185598e-05   2.0511328e-05   1.8737838e-04   2.6092058e-04   1.6239712e-04   1.5616676e-04
   1.5015365e-04   1.2291313e-04   1.6969841e-04   8.6832275e-05   8.7789937e-05   6.8524918e-05   1.2879129e-04   1.6146197e-04   4.3185148e-05  -8.3016785e-04   1.5659811e-04  -2.4303430e-04  -5.4920969e-05   6.8700174e-05  -3.5200868e-05   5.0590905e-05  -5.3689087e-07  -1.1278164e-04  -1.3144562e-04   8.1047492e-06  -2.7540766e-04  -2.2436182e-04   1.7247265e-06   1.6399277e-04   1.5339619e-05   7.3269133e-05   2.1600217e-05   7.6240540e-05   7.0326394e-05   6.5333166e-05  -9.2000490e-05   3.5104531e-05   8.1622689e-05   7.3158408e-05   5.5944206e-06   1.6760833e-04   7.5898570e-05  -2.4294981e-05   1.0357392e-04   5.0432445e-05   6.3396270e-05   6.5668770e-05   1.4561728e-04   2.9860943e-05  -3.3289787e-05  -3.4513009e-06   1.6126489e-04   2.5588140e-04   2.1485037e-04   1.8071500e-04
   1.6717527e-04   1.4123760e-04   1.8697081e-04   9.7106044e-05   9.3694660e-05   6.9044276e-05   1.2965583e-04   1.6602359e-04   5.5156415e-05  -8.2533702e-04   1.5182400e-04  -2.2341848e-04  -4.9326187e-05   7.7092147e-05  -2.9837232e-05   5.2957173e-05  -9.7938600e-06  -1.1086453e-04  -1.2083316e-04  -4.1728390e-06  -2.6193302e-04  -1.9171718e-04   4.9249852e-06   1.4778195e-04   4.8558170e-05   9.5548385e-05   7.0823899e-06   6.8731511e-05   6.6389483e-05   5.7249654e-05  -8.4547202e-05   2.8489174e-05   1.0333476e-04   8.9603345e-05   1.4700344e-05   1.7752079e-04   7.2448180e-05  -1.9288367e-05   1.0973851e-04   5.4895725e-05   8.3342878e-05   4.8294816e-05   1.3498517e-04   4.2935390e-05  -5.2189062e-08   1.9096628e-05   1.7202445e-04   2.2115906e-04   1.2262557e-04   1.6417116e-04
   1.6623830e-04   1.4367128e-04   1.8396878e-04   1.0562875e-04   9.2061608e-05   6.6592715e-05   1.2988057e-04   1.7461769e-04   7.7076496e-05  -8.2416990e-04   1.6351485e-04  -2.2466922e-04  -4.4494995e-05   8.0608159e-05  -2.6784959e-05   6.1748724e-05   4.8036295e-06  -9.5423711e-05  -1.2679592e-04   1.0112252e-05  -2.5675035e-04  -2.0211865e-04  -1.0073351e-05   1.7831013e-04   4.8534752e-05   9.1390015e-05   3.0354768e-05   7.8030884e-05   2.5156261e-05   5.9404298e-05  -8.9518908e-05   3.9832859e-05   1.0614224e-04   9.0793284e-05   2.1089932e-05   1.7853313e-04   7.0001828e-05  -2.1140862e-05   1.0650251e-04   6.2725849e-05   6.6899556e-05   3.8115504e-05   1.3589008e-04   3.2165040e-05  -4.4418571e-06   9.4162169e-06   1.6632133e-04   2.2985641e-04   1.5877161e-04   1.6343719e-04
   1.5918576e-04   1.2240805e-04   1.6543543e-04   9.0454603e-05   9.4995325e-05   7.2473216e-05   1.3626939e-04   1.7302790e-04   5.1518142e-05  -8.4536988e-04   1.5847059e-04  -2.4506365e-04  -4.0982330e-05   9.4829142e-05  -1.7919243e-05   7.4904259e-05   9.9047247e-06  -7.8884732e-05  -1.4791453e-04   9.1459009e-07  -2.7300644e-04  -2.2174850e-04  -3.4578841e-07   1.7720646e-04   2.5603471e-05   7.9101112e-05   4.1407351e-05   9.2996910e-05   9.3948140e-05   6.8360634e-05  -8.8100656e-05   4.6659919e-05   9.2937771e-05   8.7352470e-05   1.8303806e-05   1.8378682e-04   7.2485032e-05  -9.3156532e-06   1.1585262e-04   4.2763560e-05   8.6100561e-05   4.4898687e-05   1.4871785e-04   3.5671415e-05  -3.9302882e-05   9.8490436e-06   1.7815869e-04   2.0736134e-04   1.5406852e-04   1.7784862e-04
   1.8542161e-04   1.6483266e-04   2.0018840e-04   1.1799904e-04   9.8236786e-05   7.2527429e-05   1.4008014e-04   1.7832576e-04   8.8084555e-05  -8.2940987e-04   1.7218996e-04  -2.2018141e-04  -3.2037919e-05   9.5556810e-05  -1.7758739e-05   7.3166419e-05   8.3550640e-06  -8.2300081e-05  -9.9434190e-05   1.6709384e-05  -2.7708450e-04  -1.9167653e-04   9.7125467e-06   1.7841696e-04   7.3214884e-05   1.0698727e-04   3.3061799e-05   8.5303080e-05   4.4631797e-05   6.8245812e-05  -8.6775886e-05   3.0543681e-05   8.6765751e-05   1.1553933e-04   2.0587770e-05   1.8186388e-04   6.9705849e-05  -1.0017509e-05   1.1220373e-04   5.6288183e-05   7.5771663e-05   2.2090417e-05   1.6003491e-04   4.3716016e-05  -7.0877970e-05   2.4947454e-05   1.6425020e-04   2.2748351e-04   1.0616612e-04   1.5374545e-04
   1.8209228e-04   1.5275850e-04   2.0048361e-04   1.1004260e-04   1.0025996e-04   7.5408876e-05   1.3487856e-04   1.7430511e-04   8.0670659e-05  -8.4291847e-04   1.7012174e-04  -2.3170246e-04  -2.8215227e-05   1.1142967e-04  -8.2324932e-06   8.8744746e-05   2.0432830e-05  -7.4424075e-05  -1.4406726e-04   3.9054121e-05  -3.1966218e-04  -2.2317054e-04   3.8203112e-08   1.6444502e-04   3.9389157e-05   8.4680512e-05   4.7017700e-05   9.1851965e-05   6.6014996e-05   7.5213829e-05  -7.4054595e-05   4.3714823e-05   8.9363435e-05   1.0006903e-04   3.2007465e-05   1.7485139e-04   7.8646233e-05  -1.0795656e-05   1.1815897e-04   6.1676976e-05   6.7319328e-05  -6.7918077e-06   1.7376461e-04   3.0067100e-05  -2.5449635e-05  -6.8635168e-06   1.5245921e-04   2.0889768e-04   1.8767684e-04   1.4950988e-04
   1.7070836e-04   1.0596740e-04   1.8039877e-04   9.2704977e-05   1.0696426e-04   7.6195363e-05   1.3990929e-04   1.8386378e-04   3.5832334e-05  -8.5282617e-04   1.4833662e-04  -2.3648608e-04  -2.2430948e-05   1.0932494e-04  -2.2321354e-05   9.5226475e-05   2.6520251e-05  -6.3500651e-05  -1.4343805e-04   1.0918356e-05  -2.6048662e-04  -2.3362438e-04  -2.4185788e-06   1.6014178e-04   4.0153918e-05   7.6816454e-05   5.5219563e-05   9.0630230e-05   8.7253196e-05   8.6101791e-05  -7.6972101e-05   3.4401517e-05   7.1107315e-05   8.1022859e-05   2.1280064e-05   1.6027167e-04   9.4041177e-05   1.3292273e-06   1.2261677e-04   6.6198852e-05   7.9103447e-05   3.0021271e-05   1.4609590e-04   5.4009197e-05  -4.0568797e-05   1.8563560e-05   1.0716555e-04   1.6758428e-04   1.2543096e-04   1.6071346e-04
   1.9672327e-04   1.3869249e-04   2.1061616e-04   1.1612594e-04   1.0633834e-04   7.7460929e-05   1.3850765e-04   1.7334691e-04   6.4766209e-05  -8.3877047e-04   1.5304162e-04  -2.1214060e-04  -2.0162412e-05   1.1880883e-04  -1.3385640e-05   8.3452287e-05   1.5004489e-05  -6.5906861e-05  -1.2417385e-04   3.6382196e-05  -2.5371657e-04  -1.9990987e-04   9.4989973e-06   1.9038195e-04   5.2964988e-05   1.1931811e-04   4.2329953e-05   9.6920019e-05   8.5574786e-05   6.8450194e-05  -7.5961369e-05   2.7555041e-05   1.1965074e-04   9.9537974e-05   2.9975468e-05   1.7184367e-04   9.5208874e-05   8.2232691e-06   1.1837036e-04   8.2281047e-05   8.1706683e-05  -3.1181495e-05   2.0038785e-04   4.6367095e-05  -5.4330383e-05   5.6000817e-07   1.0528995e-04   1.9598907e-04   8.8060471e-05   1.3873537e-04
   1.9561258e-04   1.2398430e-04   2.1017836e-04   1.0826318e-04   1.0666778e-04   8.1993618e-05   1.3853057e-04   1.8188522e-04   4.7121546e-05  -8.4614469e-04   1.4587519e-04  -2.1433472e-04  -1.7006379e-05   1.3109352e-04  -7.5327935e-06   8.8797206e-05   2.2036551e-05  -6.0523191e-05  -1.2295507e-04   4.6056270e-05  -2.6157976e-04  -2.2923543e-04   1.0499043e-05   1.5674243e-04   4.9719234e-05   8.8385190e-05   5.8122663e-05   1.0728215e-04   8.3400999e-05   7.7946286e-05  -6.6275694e-05   3.3750504e-05   9.1297225e-05   1.0871875e-04   3.5959089e-05   1.6211721e-04   9.0148671e-05   1.5260652e-05   1.2883471e-04   8.4742656e-05   7.6605589e-05  -2.5663525e-07   1.9229959e-04   4.1547180e-05  -9.5487267e-05   1.3045073e-05   1.3200213e-04   2.2553169e-04   1.0322431e-04   1.2954231e-04
   1.8072735e-04   9.0473608e-05   1.9378652e-04   9.5332114e-05   1.1353353e-04   8.6713320e-05   1.3795687e-04   1.9142526e-04   1.7647804e-05  -8.5012254e-04   1.3903012e-04  -2.2794605e-04  -1.5099711e-05   1.1474456e-04  -1.6987500e-05   9.5936462e-05   2.8491542e-05  -5.4326523e-05  -1.3610769e-04   2.9940107e-05  -3.0406509e-04  -2.5975588e-04   1.5128083e-05   1.3536258e-04   2.8405359e-05   8.3258725e-05   6.4995394e-05   9.4757408e-05   1.2324980e-04   9.3906885e-05  -5.6063291e-05   4.2695847e-05   7.6765129e-05   8.8558270e-05   4.2303498e-05   1.6781781e-04   1.0102934e-04   2.7438495e-05   1.3209766e-04   9.1873691e-05   8.4941814e-05  -3.4193949e-05   1.8750287e-04   4.7532634e-05  -9.3221985e-05   1.5975211e-05   1.3370211e-04   2.0414696e-04   1.3793765e-04   1.6775256e-04
   1.6431062e-04   7.5013239e-05   1.7527644e-04   7.6478667e-05   1.1951193e-04   9.9186720e-05   1.5336848e-04   1.9506615e-04  -1.9365380e-05  -8.5375423e-04   1.2534428e-04  -2.3750169e-04  -2.5820767e-05   1.0793071e-04  -2.3965080e-05   1.0261026e-04   1.7305318e-05  -3.9694169e-05  -1.6208533e-04   1.6364467e-05  -2.7916513e-04  -2.6944251e-04   5.2940263e-06   1.4835555e-04   4.0254050e-05   8.5065447e-05   7.8227516e-05   9.6151736e-05   1.3099106e-04   8.7598281e-05  -6.6507215e-05   3.6100068e-05   7.1209477e-05   8.1345694e-05   3.8178772e-05   1.5158199e-04   1.2670911e-04   2.9790610e-05   1.4302730e-04   1.0176076e-04   9.9407705e-05  -1.5517398e-05   1.8077444e-04   4.6671223e-05  -7.8165016e-05  -3.6716432e-05   1.2207359e-04   2.3373496e-04   1.0180420e-04   1.7836354e-04
   1.9435618e-04   1.3043264e-04   2.1894250e-04   1.1223234e-04   1.1402127e-04   1.0268058e-04   1.5534040e-04   1.8992396e-04   2.2565184e-05  -8.3839631e-04   1.3629845e-04  -2.1710781e-04  -2.4887247e-05   1.1110117e-04  -8.5774718e-06   7.7652134e-05   1.1454624e-05  -5.2932723e-05  -1.1890798e-04   3.7468973e-05  -2.3283750e-04  -2.4077290e-04   2.8536719e-05   1.5872662e-04   5.4449036e-05   1.0396368e-04   6.6123219e-05   1.0548232e-04   1.5206778e-04   9.2014590e-05  -5.7317258e-05   3.4367127e-05   9.7994554e-05   1.0347399e-04   4.1494357e-05   1.8067578e-04   1.1750182e-04   2.8367880e-05   1.3925508e-04   1.2238490e-04   1.0676342e-04  -2.2608006e-06   1.7790173e-04   3.0527615e-05  -6.6926703e-05  -1.8596304e-05   1.3555783e-04   2.3064605e-04   1.1800868e-04   1.5742994e-04
   1.8699319e-04   1.2911565e-04   2.0853765e-04   1.0945337e-04   1.1496124e-04   9.9945049e-05   1.5046589e-04   1.9611292e-04   2.5468471e-05  -8.4459654e-04   1.3716370e-04  -2.2068352e-04  -1.9250931e-05   1.2541613e-04  -1.3992448e-05   8.3572450e-05   1.1826994e-05  -4.8100472e-05  -1.3877913e-04   4.7205278e-05  -2.4372026e-04  -2.5931717e-04   2.2445996e-05   1.7455016e-04   6.2783525e-05   8.8876324e-05   7.5009368e-05   1.0989424e-04   1.3736439e-04   9.3639152e-05  -5.3931999e-05   4.2501091e-05   9.9875258e-05   9.3311886e-05   4.1007348e-05   1.8041694e-04   1.2894420e-04   1.6108479e-05   1.5061270e-04   1.1492049e-04   8.0619546e-05   1.3270121e-05   1.6799271e-04   3.9008202e-05  -1.0316263e-04  -2.4692772e-05   1.0705807e-04   2.2908190e-04   1.2611299e-04   1.6464198e-04
   1.7260957e-04   1.2643146e-04   1.8616887e-04   9.3333212e-05   1.1922333e-04   9.7880067e-05   1.5875077e-04   1.9788134e-04  -5.1768125e-06  -8.5247611e-04   1.2735128e-04  -2.2930434e-04  -2.4565679e-05   1.1922797e-04  -1.9041705e-05   8.8414075e-05   1.3624255e-05  -4.6668541e-05  -1.5536150e-04   2.2327509e-05  -2.6352881e-04  -2.7417453e-04   1.6889679e-05   1.5784746e-04   2.3438917e-05   7.1226903e-05   8.2301493e-05   9.8953991e-05   1.2836175e-04   9.9387675e-05  -5.8092330e-05   3.1816307e-05   6.2160805e-05   7.0692135e-05   4.1490846e-05   1.6161308e-04   1.3189936e-04   2.4872017e-05   1.4789238e-04   1.1701941e-04   1.0215415e-04   3.1858264e-05   1.7792206e-04   4.3578468e-05  -5.5503991e-05   1.1885201e-05   1.2765963e-04   1.9215295e-04   1.5453163e-04   1.3088970e-04
   1.9334117e-04   1.4448893e-04   2.1400616e-04   1.1372479e-04   1.1640186e-04   1.0386958e-04   1.5748171e-04   1.9247935e-04   2.9753153e-05  -8.4374694e-04   1.2799981e-04  -2.0547296e-04  -2.7631464e-05   1.0986056e-04  -1.1034021e-05   7.2916890e-05   5.7881812e-06  -5.4188840e-05  -1.0372107e-04   2.2363762e-05  -2.5242608e-04  -2.4707749e-04   2.9796993e-05   1.3644235e-04   4.9166487e-05   1.1045884e-04   7.7406236e-05   1.0821651e-04   1.2983476e-04   9.1814196e-05  -5.1929805e-05   4.0819366e-05   1.1235660e-04   9.6147269e-05   5.2109612e-05   1.8299191e-04   1.2669376e-04   3.2807777e-05   1.4293563e-04   1.2092637e-04   1.0440340e-04   7.5812941e-06   1.9057623e-04   5.2630992e-05  -8.6864544e-05   4.3477021e-06   1.2775564e-04   2.5481600e-04   1.5080028e-04   1.7294801e-04
   1.8583161e-04   1.2392446e-04   2.0219263e-04   1.1078823e-04   1.1582425e-04   1.0148119e-04   1.6212602e-04   1.9395242e-04   3.0669875e-05  -8.4975583e-04   1.2541223e-04  -2.1510094e-04  -2.4805697e-05   1.2350825e-04  -1.4271136e-05   7.2726856e-05   3.2297744e-06  -5.6854595e-05  -1.2530066e-04   2.0897951e-06  -2.4186909e-04  -2.4193131e-04   2.8936454e-05   1.7536918e-04   7.0690687e-05   9.7382006e-05   8.6049731e-05   1.0309727e-04   1.2746376e-04   9.0309819e-05  -3.9870767e-05   3.3120632e-05   1.2145965e-04   8.4173036e-05   5.4666030e-05   1.7507713e-04   1.2503090e-04   2.4958053e-05   1.4633052e-04   1.3202391e-04   8.9263769e-05   1.1511514e-05   1.9495976e-04   4.3290263e-05  -4.7576959e-05   6.3857519e-06   1.4818800e-04   2.4138007e-04   1.6146521e-04   1.4688683e-04
   1.6760624e-04   1.0919613e-04   1.8199894e-04   1.0002827e-04   1.2278072e-04   1.0916312e-04   1.6660421e-04   1.9836250e-04  -2.6809592e-05  -8.6091465e-04   1.0176586e-04  -2.1002037e-04  -3.3127919e-05   1.1988380e-04  -1.3744578e-05   7.6282136e-05  -2.9726552e-06  -5.2255025e-05  -1.3187646e-04   2.5498890e-05  -2.6765961e-04  -2.4968604e-04   2.7171813e-05   1.5509134e-04   4.4664179e-05   9.5750613e-05   7.8564226e-05   1.1312307e-04   1.3986671e-04   9.4118528e-05  -4.1409934e-05   3.2230873e-05   1.0711911e-04   8.6635431e-05   5.1811003e-05   1.9571143e-04   1.4328230e-04   4.9859504e-05   1.4711719e-04   1.4327472e-04   1.0870986e-04   4.1779240e-05   2.2539287e-04   6.0405549e-05  -4.6839996e-05   5.4828001e-06   1.2801240e-04   2.6988238e-04   1.4400066e-04   1.7260286e-04
   1.9338985e-04   1.2354121e-04   2.1480060e-04   1.2404785e-04   1.1398596e-04   1.0810111e-04   1.6305056e-04   1.9186022e-04   9.2229538e-06  -8.4963860e-04   1.1353641e-04  -2.0398562e-04  -3.5281842e-05   1.2430223e-04  -5.3103190e-06   6.5400433e-05  -3.2811163e-06  -5.9329184e-05  -1.0445340e-04   1.0773712e-05  -2.6103391e-04  -2.4815093e-04   3.3884895e-05   1.5166566e-04   4.8333688e-05   1.1032038e-04   7.4155090e-05   1.2011380e-04   1.3120513e-04   9.9297569e-05  -3.8020975e-05   3.8125367e-05   1.0820099e-04   8.7771776e-05   5.3096399e-05   1.9961386e-04   1.4287642e-04   4.4281031e-05   1.4935553e-04   1.4398906e-04   1.0305343e-04   2.8766669e-06   2.1122335e-04   6.0564802e-05  -6.4244028e-05   2.3630317e-05   1.2664008e-04   2.2341531e-04   1.7232825e-04   1.7707470e-04
   1.8203548e-04   1.3628845e-04   2.0407097e-04   1.1511464e-04   1.1954648e-04   1.1772049e-04   1.6492138e-04   1.9659352e-04  -4.1139068e-05  -8.5155806e-04   1.0262457e-04  -2.1020271e-04  -3.6633141e-05   1.0988557e-04  -7.6546612e-06   7.2924980e-05   4.8989086e-06  -5.2187923e-05  -1.2742210e-04  -1.7012786e-05  -2.9596803e-04  -2.7253834e-04   4.0840736e-05   1.5567787e-04   5.9668389e-05   8.9327688e-05   8.3875435e-05   1.2157831e-04   1.4645167e-04   1.0064620e-04  -2.7516740e-05   3.6818205e-05   1.1160703e-04   8.2025887e-05   5.9678005e-05   1.6639434e-04   1.5136322e-04   5.6906996e-05   1.5256203e-04   1.4434184e-04   1.1560891e-04   2.9953757e-05   2.3159418e-04   6.2533632e-05  -4.4691453e-05   3.8945476e-05   1.0871123e-04   2.3287837e-04   1.5380385e-04   1.7305504e-04
   1.9213960e-04   1.0239815e-04   2.2298614e-04   1.2529449e-04   1.2107919e-04   1.2479274e-04   1.6711575e-04   1.9107247e-04  -3.2395943e-05  -8.4289268e-04   9.1807742e-05  -1.9054895e-04  -4.2577511e-05   1.1039902e-04  -2.4714857e-06   5.6874702e-05  -1.1524724e-05  -6.1865620e-05  -9.9935431e-05   2.4688772e-05  -2.5038823e-04  -2.5842566e-04   4.4086508e-05   1.4604589e-04   6.5453336e-05   1.0230080e-04   7.6076642e-05   1.0152926e-04   1.2576494e-04   9.7769174e-05  -2.4789601e-05   3.2048742e-05   1.3504729e-04   7.9263264e-05   5.8196852e-05   1.7194469e-04   1.4885374e-04   6.0767630e-05   1.5499133e-04   1.6471179e-04   1.2401196e-04   2.8166319e-06   2.4490018e-04   6.4758417e-05  -3.9877337e-05   4.3146603e-05   1.2375062e-04   2.4024019e-04   1.7947353e-04   1.7709196e-04
   1.8952628e-04   1.2517773e-04   2.2104751e-04   1.2940668e-04   1.1652911e-04   1.3008391e-04   1.6969729e-04   1.7350938e-04  -5.7148576e-05  -8.4677438e-04   8.2942504e-05  -1.9463888e-04  -4.6440709e-05   9.8150696e-05  -6.7360284e-06   6.1874191e-05  -1.5455835e-05  -5.3600070e-05  -1.1515556e-04   1.3994047e-05  -2.6314252e-04  -2.7193362e-04   3.5027479e-05   1.2077122e-04   3.8360726e-05   1.0511623e-04   8.6205764e-05   1.2821327e-04   1.8041309e-04   1.0276605e-04  -1.6839080e-05   3.9574268e-05   1.2588323e-04   7.9826699e-05   5.8129146e-05   1.6810485e-04   1.5946696e-04   6.3128631e-05   1.5247817e-04   1.6227794e-04   1.0387942e-04   1.8084760e-05   2.3502736e-04   6.5196546e-05  -1.9284249e-05   4.8606234e-05   1.0397841e-04   2.1355973e-04   1.8114971e-04   1.7808506e-04
   1.7923609e-04   1.3758760e-04   2.0724135e-04   1.1731723e-04   1.2159537e-04   1.2318837e-04   1.6030828e-04   1.9253930e-04  -7.6716562e-05  -8.4871659e-04   7.2799739e-05  -2.0357798e-04  -4.5719706e-05   1.0655348e-04  -7.8648109e-06   7.1686809e-05  -5.2991313e-06  -4.2035015e-05  -1.1932625e-04  -5.2302755e-07  -2.4650962e-04  -2.8484766e-04   3.7243193e-05   1.2893065e-04   4.8471225e-05   9.0965776e-05   9.2600960e-05   1.2513585e-04   1.6392740e-04   1.0993201e-04  -1.9264940e-05   2.9224286e-05   1.2577789e-04   7.1562565e-05   6.8238005e-05   1.7815939e-04   1.5920214e-04   5.9512982e-05   1.5096321e-04   1.4779024e-04   1.2211043e-04   3.3353615e-05   2.2772385e-04   4.7582249e-05  -6.2650346e-05   2.2465279e-05   1.3761505e-04   2.1082829e-04   1.3752414e-04   1.6273974e-04
   2.0210787e-04   1.2170289e-04   2.3242088e-04   1.3571646e-04   1.2240327e-04   1.2855294e-04   1.6323922e-04   1.7799380e-04  -3.7881600e-05  -8.3648937e-04   8.2606413e-05  -1.7818596e-04  -3.9519360e-05   1.2138973e-04   4.7599724e-06   6.5390916e-05  -1.4757105e-05  -5.4849359e-05  -1.1148637e-04   1.7146518e-06  -2.4366484e-04  -2.3355149e-04   2.9088778e-05   1.1744561e-04   8.5032327e-05   1.0446802e-04   8.3482366e-05   1.1033864e-04   1.2814670e-04   9.4577757e-05  -2.7416196e-05   2.5433248e-05   1.2923111e-04   7.2451745e-05   5.5972647e-05   1.6753188e-04   1.5066967e-04   5.5496559e-05   1.5030905e-04   1.4137439e-04   1.1694916e-04   3.0439407e-05   2.2946151e-04   5.8281974e-05  -9.8042721e-05   3.3052052e-05   1.2848816e-04   2.0961859e-04   1.8253995e-04   1.5107506e-04
   1.9683616e-04   1.1569836e-04   2.2708830e-04   1.3358018e-04   1.2333988e-04   1.2901651e-04   1.6288902e-04   1.8021544e-04  -5.1297309e-05  -8.3749089e-04   8.6642627e-05  -1.7751929e-04  -3.5525045e-05   1.2144941e-04  -2.2108090e-06   6.0870414e-05  -1.1899272e-05  -5.4827327e-05  -1.2887154e-04   3.2915552e-05  -2.2031044e-04  -2.5006116e-04   4.7961210e-05   1.2072991e-04   5.5682951e-05   1.0194233e-04   8.8823879e-05   1.2292847e-04   1.4934492e-04   1.0365029e-04  -2.2394595e-05   3.0403951e-05   8.7994158e-05   8.0518956e-05   5.9532140e-05   1.6639273e-04   1.4809525e-04   6.0116541e-05   1.4306886e-04   1.5666004e-04   1.0858315e-04  -3.6100351e-05   2.0400654e-04   4.6350982e-05  -9.7997385e-05   2.4498177e-05   1.0335680e-04   2.5483180e-04   1.7702232e-04   1.7174162e-04
   1.8665717e-04   1.2170310e-04   2.1216059e-04   1.1956524e-04   1.2448168e-04   1.2630128e-04   1.6698166e-04   1.8390697e-04  -6.6315879e-05  -8.4400509e-04   7.7913719e-05  -1.8910712e-04  -3.4579367e-05   1.2612899e-04  -4.9588120e-06   8.0377191e-05  -1.7654240e-06  -4.2477135e-05  -1.4412530e-04   5.6782901e-06  -2.5799093e-04  -2.7597442e-04   2.0803178e-05   9.7631579e-05   3.0994222e-05   8.7196182e-05   8.4342879e-05   1.2577983e-04   1.4613323e-04   1.0568402e-04  -2.7114278e-05   2.7271313e-05   1.2437454e-04   6.4761145e-05   6.0178398e-05   1.6248533e-04   1.4916772e-04   6.2780360e-05   1.5419172e-04   1.5766577e-04   1.0893208e-04   3.0170957e-05   2.0629351e-04   4.5478060e-05  -7.7299919e-05   6.0304355e-06   1.2603863e-04   2.2935437e-04   1.2294810e-04   1.8670838e-04
   1.7163315e-04   7.8514560e-05   1.9491075e-04   1.0874395e-04   1.2788973e-04   1.2936322e-04   1.7301046e-04   1.9815131e-04  -7.7138386e-05  -8.4393990e-04   7.3160998e-05  -1.9833096e-04  -3.8174268e-05   1.1774799e-04  -1.1379710e-05   8.1905884e-05   6.1716473e-06  -3.3251414e-05  -1.6026788e-04  -2.4066559e-05  -2.7610571e-04  -2.9755128e-04   4.0591527e-05   1.5087976e-04   1.3477884e-05   6.5451015e-05   1.0432093e-04   1.2929089e-04   1.6946996e-04   1.1453680e-04  -1.9113131e-05   3.9321578e-05   8.2222075e-05   5.1926178e-05   6.1036830e-05   1.8040517e-04   1.5721169e-04   3.8674039e-05   1.5575247e-04   1.4570661e-04   1.1761105e-04   5.1929757e-05   1.9732903e-04   5.1709929e-05  -4.5783399e-05   1.5506777e-05   1.3418039e-04   2.6741243e-04   1.1080945e-04   1.6019972e-04
   1.6452845e-04   9.0675370e-05   2.0952785e-04   1.0861718e-04   1.3396962e-04   1.4074374e-04   1.8157267e-04   2.0608689e-04  -3.5502264e-05  -8.2412828e-04   6.9192269e-05  -1.7470156e-04  -3.9636936e-05   1.1017039e-04   1.9684212e-06   7.0168782e-05  -1.3704293e-05  -4.6976369e-05  -1.1730503e-04   2.6399965e-05  -2.3937869e-04  -2.6861747e-04   4.7298327e-05   1.5196059e-04   5.3586005e-05   1.1398004e-04   9.6557749e-05   1.1837042e-04   1.3588015e-04   1.0802547e-04  -2.2229067e-05   2.0965359e-05   1.2540250e-04   8.1631151e-05   6.8198213e-05   1.7560822e-04   1.6404464e-04   5.3189804e-05   1.5877586e-04   1.6624210e-04   1.3386403e-04   4.3253724e-05   2.2686779e-04   5.3006599e-05  -8.4689462e-05   2.6410871e-05   1.3963887e-04   2.2805862e-04   1.4524860e-04   1.3585265e-04
   1.8844559e-04   1.3380068e-04   2.2368434e-04   1.3846542e-04   1.2205008e-04   1.4207762e-04   1.7731906e-04   1.8058329e-04  -3.6342633e-05  -8.2241738e-04   8.2147191e-05  -1.6979584e-04  -4.1762596e-05   1.1645836e-04   1.1258750e-06   6.8089277e-05  -1.5197848e-05  -4.5100049e-05  -1.0336618e-04  -3.4582476e-06  -2.5370278e-04  -2.6746272e-04   5.5213004e-05   1.3850676e-04   7.6072261e-05   9.1735354e-05   9.2200069e-05   1.3364336e-04   1.2794587e-04   1.0888651e-04  -1.8673118e-05   2.0663805e-05   1.3062201e-04   7.7315824e-05   6.8548543e-05   1.7116137e-04   1.6788700e-04   6.3891581e-05   1.6527092e-04   1.5932259e-04   1.1742107e-04   6.7184170e-05   2.0844385e-04   5.6438359e-05  -2.4169827e-05   5.7693242e-06   1.4196442e-04   2.1724765e-04   1.4144334e-04   1.6110372e-04
   1.7752497e-04   8.5956475e-05   2.1057736e-04   1.2603559e-04   1.2450057e-04   1.3793205e-04   1.8039520e-04   1.9660848e-04  -4.9463113e-05  -8.2799623e-04   7.4875541e-05  -1.7898918e-04  -4.5409502e-05   1.1937603e-04  -5.7359339e-06   7.4928452e-05  -6.3329935e-06  -3.4947880e-05  -1.2909608e-04  -1.3504695e-05  -2.3871852e-04  -2.8074248e-04   6.4412234e-05   1.3133856e-04   6.4268344e-05   7.7060293e-05   9.0512978e-05   1.4552345e-04   1.3947845e-04   1.0478006e-04  -2.0996666e-05   3.9158229e-05   1.2068162e-04   6.8194655e-05   6.2476807e-05   1.8741620e-04   1.6713791e-04   5.7813108e-05   1.6763064e-04   1.6773501e-04   1.1231683e-04   5.6290202e-05   2.1639893e-04   5.2957515e-05  -4.8009417e-05   2.4315086e-05   1.2303834e-04   2.8955654e-04   1.3945441e-04   1.6084943e-04
   1.6430351e-04   9.5171534e-05   1.9367586e-04   1.1180893e-04   1.3023321e-04   1.4067916e-04   1.8093034e-04   1.9014985e-04  -7.4382195e-05  -8.2942157e-04   6.1558203e-05  -1.7724962e-04  -4.6475132e-05   1.1458705e-04  -1.2943782e-05   7.7022174e-05  -1.7750754e-05  -3.3739205e-05  -1.3728805e-04  -1.4351266e-05  -2.6118101e-04  -2.7765412e-04   3.7446353e-05   1.7337114e-04   8.0434053e-05   1.0465457e-04   9.5949152e-05   1.2951254e-04   1.5310534e-04   1.0526245e-04  -1.0997502e-05   2.1189735e-05   1.0653504e-04   7.6782191e-05   6.7977307e-05   1.7181727e-04   1.8210504e-04   6.9422691e-05   1.6449255e-04   1.7300084e-04   1.2812795e-04   3.1718489e-05   2.1143205e-04   6.4978260e-05   1.9603933e-05   8.6237787e-06   1.4521743e-04   2.4623837e-04   2.0031343e-04   1.6184554e-04
   1.8734598e-04   1.3075091e-04   2.2381246e-04   1.4050578e-04   1.2240271e-04   1.5226194e-04   1.8396798e-04   1.9143014e-04  -6.5496599e-05  -8.1557553e-04   6.4284373e-05  -1.5633872e-04  -4.7494519e-05   1.1467315e-04  -5.4589846e-06   6.5939443e-05  -2.0075369e-05  -4.2393734e-05  -1.1665857e-04  -1.3182947e-05  -2.3967955e-04  -2.5839618e-04   4.2348656e-05   1.2687226e-04   7.0406582e-05   1.1334919e-04   9.3802963e-05   1.2525335e-04   1.6810354e-04   1.0730375e-04  -1.1714018e-05   3.1335159e-05   1.7713592e-04   7.7896766e-05   6.2028412e-05   1.8020919e-04   1.7078679e-04   8.2745348e-05   1.5962160e-04   1.9351843e-04   1.1638235e-04   2.5963025e-05   2.1821923e-04   5.8552523e-05  -1.3657489e-05   2.6885949e-05   1.1906319e-04   2.5925314e-04   1.5854521e-04   1.5672675e-04
   1.7887616e-04   1.4610917e-04   2.1022621e-04   1.3398204e-04   1.2477655e-04   1.4515915e-04   1.8070015e-04   1.8210534e-04  -6.3301188e-05  -8.1786455e-04   6.1426705e-05  -1.6228689e-04  -5.1464172e-05   1.1320167e-04   2.9419293e-06   7.3218602e-05  -1.6838252e-05  -4.0364182e-05  -1.2609574e-04  -1.5382926e-05  -2.0606942e-04  -2.8395228e-04   6.0899551e-05   1.6173003e-04   6.2036808e-05   1.0250456e-04   9.8500735e-05   1.3745301e-04   1.8218037e-04   1.1400739e-04  -8.0780495e-07   3.5322966e-05   1.3832892e-04   6.4615168e-05   6.9808848e-05   2.1057991e-04   1.8802869e-04   7.9915211e-05   1.7409440e-04   1.9660480e-04   1.1566658e-04   7.8914447e-05   2.6087431e-04   6.8671143e-05  -3.9361355e-05  -4.6047235e-06   1.4939395e-04   2.4181682e-04   1.5079121e-04   1.4930700e-04
   1.6729823e-04   1.0302359e-04   2.0539832e-04   1.2198526e-04   1.3012711e-04   1.5415320e-04   1.8603056e-04   1.8494971e-04  -8.0542864e-05  -8.0975564e-04   4.5959696e-05  -1.4650304e-04  -5.4883978e-05   1.1934980e-04  -6.7752103e-06   5.9346912e-05  -3.5969388e-05  -4.3829019e-05  -1.0156687e-04  -2.7843640e-05  -2.1767516e-04  -2.7369373e-04   6.0514842e-05   1.1831993e-04   9.0100111e-05   1.1757862e-04   8.9905618e-05   1.4414515e-04   1.7513374e-04   1.1144747e-04  -4.2739889e-06   2.8352853e-05   1.5532122e-04   9.7671305e-05   7.8507735e-05   1.9107017e-04   1.7932584e-04   8.3559411e-05   1.7165918e-04   1.9557346e-04   1.2959659e-04   5.0257389e-05   2.8865034e-04   7.2964955e-05  -1.1167862e-05   2.6581396e-05   1.2254060e-04   2.4822776e-04   1.7588514e-04   1.9015468e-04
   1.9069033e-04   1.2649025e-04   2.2433513e-04   1.4536679e-04   1.2028616e-04   1.5873986e-04   1.8577007e-04   1.8697514e-04  -5.8441139e-05  -8.0506626e-04   5.5092278e-05  -1.4517957e-04  -5.1636602e-05   1.1386725e-04   6.3713233e-06   6.9779810e-05  -3.0955936e-05  -4.3188676e-05  -1.0529732e-04   1.8303048e-05  -2.3291778e-04  -2.7287248e-04   5.2003816e-05   1.2761612e-04   1.0216605e-04   1.2467602e-04   9.1520713e-05   1.4812243e-04   1.5501732e-04   1.0903043e-04   6.0721081e-06   3.2507589e-05   1.0166554e-04   8.7847264e-05   7.4415868e-05   1.8493639e-04   1.8973659e-04   7.5111930e-05   1.6420608e-04   1.8352541e-04   1.4476215e-04   4.0948631e-05   2.5345333e-04   6.9633199e-05  -2.7526314e-05   4.0382143e-05   1.2462591e-04   2.5429699e-04   1.2899924e-04   1.8859231e-04
   1.8700905e-04   1.1433032e-04   2.1533415e-04   1.3752266e-04   1.2937562e-04   1.6384448e-04   1.8830088e-04   1.8942442e-04  -8.9002926e-05  -8.0628053e-04   5.2201955e-05  -1.5035037e-04  -5.1612154e-05   1.1746020e-04   5.6348267e-06   7.6169774e-05  -1.7968978e-05  -3.3008906e-05  -1.0825956e-04  -3.7851628e-06  -2.4784615e-04  -2.8745807e-04   5.2592000e-05   1.6335290e-04   5.9353508e-05   1.0078987e-04   1.0088566e-04   1.3791713e-04   1.6013511e-04   1.1364482e-04  -4.3767432e-06   4.6104076e-05   1.5294254e-04   8.0795842e-05   7.3863179e-05   1.8614242e-04   1.8401536e-04   8.6780092e-05   1.6932331e-04   1.9854144e-04   1.3011855e-04   5.6936216e-05   2.5870497e-04   5.7003839e-05  -6.3410080e-05   1.7325228e-05   1.4955280e-04   2.7682233e-04   1.1572525e-04   1.9358587e-04
   2.1334467e-04   1.4004669e-04   2.4172121e-04   1.5331990e-04   1.3139730e-04   1.5758192e-04   1.8831975e-04   1.8735336e-04  -6.4730921e-05  -7.9213060e-04   5.7345409e-05  -1.3373555e-04  -4.9213890e-05   1.2266598e-04   1.5577898e-05   6.5640743e-05  -3.3027733e-05  -3.6768939e-05  -7.5696807e-05   1.2501776e-05  -2.2617118e-04  -2.5756378e-04   5.2497249e-05   1.4021853e-04   1.0102357e-04   1.2114848e-04   7.9868412e-05   1.5430406e-04   1.3829008e-04   1.0427288e-04  -2.8386144e-06   3.4292196e-05   1.1566764e-04   9.6903248e-05   8.2456841e-05   1.9622248e-04   1.7888875e-04   7.1855953e-05   1.6417682e-04   1.9377725e-04   1.4482909e-04   4.8096237e-05   2.3068093e-04   5.9958715e-05  -3.3611719e-05   1.1752724e-05   1.2661493e-04   2.2442179e-04   1.2979218e-04   1.2912411e-04
   2.1209847e-04   1.3085018e-04   2.3591085e-04   1.5018307e-04   1.2406037e-04   1.5562447e-04   1.7647573e-04   1.8049176e-04  -6.5483960e-05  -7.8768743e-04   6.3268846e-05  -1.4139265e-04  -4.2069296e-05   1.2775691e-04   2.6088846e-05   8.0683458e-05  -1.6958136e-05  -2.4064317e-05  -1.0333339e-04   8.5098409e-06  -2.4512643e-04  -2.6220075e-04   5.5886714e-05   1.2708883e-04   5.6186120e-05   1.0983091e-04   9.7654636e-05   1.4242467e-04   1.5094152e-04   1.0304601e-04   4.2865067e-06   4.4567940e-05   1.5757627e-04   9.1350870e-05   8.2238024e-05   1.8557503e-04   1.6947163e-04   7.8210302e-05   1.6093276e-04   1.8875924e-04   1.3682629e-04   7.1214499e-06   2.3149616e-04   6.2071711e-05  -4.5020926e-05   2.0882935e-05   1.3030220e-04   2.1341472e-04   1.2964530e-04   1.5031335e-04
   2.1066122e-04   1.4214226e-04   2.1917534e-04   1.3870775e-04   1.3696615e-04   1.6230143e-04   1.8546487e-04   1.9028052e-04  -7.4496274e-05  -7.9564360e-04   5.7448575e-05  -1.4505201e-04  -3.6571626e-05   1.3677824e-04   1.5604410e-05   9.7215016e-05  -1.3742964e-06  -1.5184400e-05  -1.1127189e-04   3.0800279e-06  -2.2922900e-04  -2.7342633e-04   4.7724938e-05   1.2069930e-04   8.4795385e-05   1.0903481e-04   1.1210205e-04   1.4427249e-04   1.7770600e-04   1.0477804e-04   9.5853613e-07   3.0775434e-05   1.2607517e-04   7.9199926e-05   7.8025165e-05   1.8159836e-04   1.7955278e-04   7.9422316e-05   1.5847015e-04   1.9945166e-04   1.3462073e-04   1.1500615e-05   2.5288181e-04   7.4472802e-05  -6.3554478e-05   2.7180577e-06   9.9914228e-05   2.6267150e-04   2.0475380e-04   1.7035990e-04
   2.3506906e-04   1.2256230e-04   2.5299328e-04   1.5878434e-04   1.2943332e-04   1.7087821e-04   1.7641220e-04   1.8535268e-04  -4.7166428e-05  -7.7910675e-04   6.2297338e-05  -1.1467499e-04  -2.7177517e-05   1.3399102e-04   2.8721717e-05   8.5016174e-05  -8.3110299e-06  -2.0586675e-05  -8.2319340e-05   1.2634773e-05  -2.0755226e-04  -2.5245044e-04   5.1050003e-05   1.2568061e-04   8.8440924e-05   1.2198676e-04   1.1243742e-04   1.2929170e-04   1.5708912e-04   1.0482489e-04   7.2125131e-06   3.5644982e-05   1.4526617e-04   9.3252464e-05   8.7885710e-05   1.9851154e-04   1.7132347e-04   8.2142171e-05   1.7590921e-04   2.0687919e-04   1.3767081e-04  -3.5289901e-05   2.3939181e-04   5.5946985e-05  -1.0206800e-04   2.0958074e-05   1.1185676e-04   2.5435950e-04   9.2027549e-05   1.4352988e-04
   2.3175527e-04   1.2399293e-04   2.4410205e-04   1.4911132e-04   1.3260830e-04   1.7860453e-04   1.7841521e-04   1.8030818e-04  -9.7697746e-05  -7.8157731e-04   5.0295930e-05  -1.3107856e-04  -1.6356538e-05   1.4737327e-04   2.5116076e-05   9.2133763e-05   4.2251645e-06  -9.3431136e-06  -9.8254655e-05  -1.0435364e-05  -2.1600407e-04  -2.6978078e-04   6.7370798e-05   1.2979661e-04   6.5666383e-05   1.1773442e-04   9.6177573e-05   1.4069492e-04   1.6836297e-04   1.1132417e-04   1.7787812e-05   2.7554925e-05   1.0298027e-04   9.5828516e-05   8.8329922e-05   1.8800530e-04   1.7942376e-04   9.7042262e-05   1.7704208e-04   2.0577751e-04   1.2457467e-04  -1.1807124e-05   2.7378995e-04   7.3393647e-05  -4.3831187e-05   1.4804654e-05   9.7598982e-05   2.6516273e-04   1.0931890e-04   1.7487888e-04
   2.2070268e-04   1.1974334e-04   2.2743376e-04   1.3528290e-04   1.4417720e-04   1.7996783e-04   1.7764742e-04   1.9002194e-04  -1.1528096e-04  -7.8981993e-04   2.9554747e-05  -1.2962222e-04  -1.0836558e-05   1.5147135e-04   1.9648707e-05   1.0252078e-04   1.2460450e-05   3.4342298e-07  -1.1252525e-04   1.7621020e-05  -2.5747166e-04  -2.8844347e-04   6.6348424e-05   1.4816133e-04   6.1420295e-05   1.0897839e-04   1.2403679e-04   1.5268494e-04   2.1640846e-04   1.1799399e-04   2.5914551e-05   4.5045912e-05   9.9803910e-05   8.3532948e-05   8.9220222e-05   1.8094470e-04   1.7898687e-04   1.0205597e-04   1.8764251e-04   2.0288378e-04   1.3913799e-04  -3.3549779e-05   2.7756050e-04   6.5847213e-05  -5.9355643e-06   2.8468194e-05   1.0124784e-04   2.8435231e-04   1.3303832e-04   1.7422260e-04
   2.1035751e-04   9.3535571e-05   2.1120386e-04   1.1973177e-04   1.5004343e-04   1.8265152e-04   1.9313258e-04   1.9873069e-04  -1.1548514e-04  -7.7624654e-04   1.7758714e-05  -1.1557292e-04  -9.6434287e-06   1.5257193e-04   2.8675271e-05   9.7578777e-05   9.1528435e-08   5.7789734e-06  -7.7857410e-05  -1.6733071e-05  -2.1950401e-04  -2.5663621e-04   7.5794582e-05   7.3438816e-05   1.0558004e-04   1.4287088e-04   1.0888416e-04   1.4387608e-04   1.7935332e-04   1.1383608e-04   3.0214545e-05   3.5246503e-05   1.2066542e-04   8.9671419e-05   8.9198889e-05   1.7584987e-04   1.7600798e-04   9.8639102e-05   1.7587193e-04   2.0435294e-04   1.4640515e-04   3.3335577e-06   2.7400241e-04   6.3005311e-05   8.6355931e-06   3.6553189e-05   1.0171085e-04   3.1596507e-04   1.3505893e-04   1.5864866e-04
   2.3544890e-04   1.1920284e-04   2.4773576e-04   1.5492951e-04   1.3967483e-04   1.9199682e-04   1.8083848e-04   1.9170101e-04  -8.0473328e-05  -7.6527538e-04   4.6125726e-05  -1.0611016e-04   3.3198869e-06   1.5466963e-04   4.1269504e-05   9.7220589e-05   1.4605528e-05   1.3407054e-06  -6.5961678e-05   2.4325540e-05  -2.0052910e-04  -2.4396971e-04   8.0858365e-05   1.2157382e-04   9.5702053e-05   1.4291088e-04   1.2959824e-04   1.3895356e-04   1.7135740e-04   1.1257742e-04   2.8303812e-05   3.6642752e-05   1.1437949e-04   8.9741297e-05   9.2912291e-05   1.6320692e-04   1.7383297e-04   9.8155273e-05   1.8161059e-04   1.9651202e-04   1.3740377e-04   2.1306792e-05   2.8554475e-04   6.3820240e-05  -9.2562914e-06   2.2968887e-05   1.2496562e-04   2.3938766e-04   1.5457148e-04   1.6004064e-04
   2.3494818e-04   1.0271800e-04   2.3784628e-04   1.4547515e-04   1.4189436e-04   1.9126738e-04   1.8500871e-04   1.9529811e-04  -8.0868180e-05  -7.6380052e-04   5.2087555e-05  -1.3157555e-04   1.0419446e-05   1.6423014e-04   3.0397085e-05   1.0448401e-04   2.4191830e-05   2.4048335e-05  -7.4476353e-05   1.8764852e-06  -1.9864956e-04  -2.7877421e-04   7.8264246e-05   9.4531380e-05   6.1961735e-05   1.1076039e-04   1.3507139e-04   1.5611753e-04   1.9699409e-04   1.1947969e-04   4.0040039e-05   4.0992520e-05   9.4072711e-05   7.8040517e-05   9.4071707e-05   1.7735288e-04   1.8210722e-04   8.9290283e-05   1.8213190e-04   1.9945216e-04   1.3394433e-04  -1.4225434e-05   2.6237700e-04   5.4132179e-05   3.2429376e-05  -1.6967668e-05   1.1167704e-04   2.0798818e-04   1.3470624e-04   1.4616194e-04
   2.1296805e-04   9.9919962e-05   2.2144032e-04   1.3877625e-04   1.4974226e-04   1.9357189e-04   1.8978343e-04   1.9352979e-04  -8.7752655e-05  -7.6063781e-04   4.5320514e-05  -1.4210881e-04   1.3761462e-05   1.6408438e-04   2.3099978e-05   1.1340428e-04   3.0911229e-05   2.0493902e-05  -9.5657691e-05  -1.1236013e-05  -2.1244015e-04  -2.9366926e-04   8.8345892e-05   1.0713846e-04   7.7394885e-05   8.4657331e-05   1.3376391e-04   1.4292299e-04   2.0921724e-04   1.2231689e-04   3.2092088e-05   4.4726603e-05   1.0902258e-04   6.7910296e-05   9.1191949e-05   1.7029268e-04   1.8540591e-04   7.9736397e-05   1.8535636e-04   1.9679003e-04   1.4854856e-04   1.9551599e-05   2.3748701e-04   5.2973621e-05   2.0939437e-05   2.1978447e-05   1.2999315e-04   2.6657560e-04   1.9133715e-04   1.6343989e-04
   2.4617053e-04   1.2173487e-04   2.4648421e-04   1.6396673e-04   1.4414747e-04   2.0340276e-04   1.9576700e-04   1.9286084e-04  -6.5745968e-05  -7.4115745e-04   5.8882964e-05  -1.2390759e-04   1.1664417e-05   1.5966600e-04   3.8826769e-05   9.2445960e-05   1.4733117e-05   2.0217727e-05  -4.5264984e-05   1.0150914e-05  -1.6497751e-04  -2.5990419e-04   9.4776682e-05   1.0174874e-04   1.1166274e-04   1.2440626e-04   1.2311051e-04   1.6352299e-04   1.8634672e-04   1.1857765e-04   3.6232792e-05   4.0723535e-05   1.5002713e-04   9.0728550e-05   9.7288270e-05   1.7691364e-04   1.7073892e-04   8.0352991e-05   1.7060213e-04   2.1135130e-04   1.3836975e-04   4.3006294e-05   2.5259206e-04   4.5987803e-05   2.9208284e-05   2.6322208e-05   9.3384180e-05   2.2753581e-04   1.5509019e-04   1.2971432e-04
   2.3651175e-04   1.3397461e-04   2.3985466e-04   1.6527921e-04   1.4073902e-04   2.0059256e-04   1.9441171e-04   1.9492381e-04  -4.4947479e-05  -7.3892111e-04   5.7097295e-05  -1.2341156e-04   1.9112900e-05   1.5924952e-04   4.1537056e-05   9.6502474e-05   2.0076590e-05   1.5416088e-05  -6.5885375e-05   1.5105247e-05  -1.9851570e-04  -2.5935765e-04   9.2651877e-05   1.0487987e-04   7.0267408e-05   1.1415731e-04   1.2010442e-04   1.6021894e-04   2.0024751e-04   1.1325231e-04   3.8739181e-05   4.3592321e-05   1.2573469e-04   8.5192100e-05   8.5333792e-05   1.9440145e-04   1.7078919e-04   8.4169900e-05   1.7043555e-04   2.0536098e-04   1.4024858e-04   2.8001199e-05   2.4621811e-04   5.4195942e-05   3.4483928e-05   2.0062815e-05   1.0190643e-04   2.7552643e-04   2.0909788e-04   1.4210200e-04
   2.1982614e-04   8.6014858e-05   2.1943636e-04   1.5185639e-04   1.4659189e-04   1.9486941e-04   1.9803103e-04   1.9166722e-04  -6.6198707e-05  -7.4448419e-04   5.0338193e-05  -1.2794716e-04   2.3289796e-05   1.7091274e-04   4.1407100e-05   9.3407587e-05   2.4321467e-05   1.5748292e-05  -7.1869101e-05   4.7365438e-07  -1.7744511e-04  -2.6613122e-04   8.4602034e-05   1.0737277e-04   7.8480647e-05   9.0830930e-05   1.3146533e-04   1.5112128e-04   1.8390281e-04   1.0879031e-04   3.3635006e-05   4.9554452e-05   1.3550001e-04   8.1036807e-05   8.8375877e-05   1.7999171e-04   1.7481102e-04   7.5082527e-05   1.6682914e-04   2.0170555e-04   1.3145384e-04   5.8728296e-05   2.1646207e-04   4.2907486e-05   6.4199710e-05   5.3501724e-05   1.3181778e-04   2.3986862e-04   1.8281443e-04   8.3192455e-05
   2.2441524e-04   1.0626906e-04   2.3400705e-04   1.5487024e-04   1.5294898e-04   1.9530680e-04   1.9754366e-04   2.0609559e-04  -3.9039718e-05  -7.3739066e-04   4.9721421e-05  -1.0390893e-04   2.6598485e-05   1.7795704e-04   4.4537272e-05   8.2361315e-05   1.4140244e-05   1.0870771e-05  -3.5224133e-05   1.0302207e-06  -1.5777659e-04  -2.2306698e-04   8.8076886e-05   1.3746037e-04   1.2717204e-04   1.1698484e-04   1.2120291e-04   1.4453013e-04   1.5507518e-04   1.0243229e-04   3.6149628e-05   5.4246477e-05   1.4278629e-04   9.0680129e-05   9.0013193e-05   1.7274676e-04   1.6360775e-04   8.8686676e-05   1.6129999e-04   1.9055427e-04   1.5600886e-04   1.0582412e-04   2.4551703e-04   5.4558925e-05   5.6593122e-05   2.8184842e-05   1.1348176e-04   2.5544531e-04   1.9588764e-04   1.2573326e-04
   2.2421562e-04   1.3433478e-04   2.3089183e-04   1.7271233e-04   1.4112837e-04   1.9612489e-04   2.0112340e-04   1.9269419e-04  -4.2255917e-05  -7.3308905e-04   5.6573754e-05  -9.9642646e-05   3.0881321e-05   1.8085602e-04   4.6803376e-05   8.6241074e-05   2.2163113e-05   1.4106529e-05  -4.8063463e-05   2.3951488e-06  -1.6206781e-04  -2.2044453e-04   8.7021050e-05   1.2063869e-04   1.1421678e-04   1.1499576e-04   1.2205616e-04   1.5636173e-04   1.9120469e-04   1.0304337e-04   4.3813980e-05   4.4571843e-05   1.4336131e-04   8.9888352e-05   9.2372291e-05   1.8216542e-04   1.6918751e-04   7.0628892e-05   1.6441863e-04   2.0151143e-04   1.4488678e-04   8.4643863e-05   2.3449291e-04   5.0612984e-05   1.1314329e-04   6.3909290e-05   1.2234514e-04   2.2884276e-04   1.8810545e-04   1.5934221e-04
   2.1530107e-04   1.0284305e-04   2.1618385e-04   1.6177422e-04   1.4559460e-04   1.9536840e-04   2.0372547e-04   2.0084332e-04  -3.9143506e-05  -7.3392683e-04   5.5334564e-05  -1.0599998e-04   2.7996242e-05   1.8283195e-04   4.7183785e-05   9.6154501e-05   2.7316066e-05   1.3011548e-05  -7.6273296e-05   1.8865665e-05  -2.3397610e-04  -2.4294553e-04   7.9513025e-05   1.0657648e-04   8.4210958e-05   1.0164944e-04   1.4312399e-04   1.6480187e-04   2.0037961e-04   1.0592178e-04   3.5215460e-05   6.1440944e-05   1.3934098e-04   8.3123727e-05   9.0703026e-05   1.6662027e-04   1.6712338e-04   7.1250040e-05   1.6572568e-04   1.8162720e-04   1.5082059e-04   8.9712572e-05   2.4444566e-04   5.1934923e-05   1.0791852e-04   5.5311732e-05   1.3504046e-04   2.8344212e-04   2.3053293e-04   1.4155245e-04
   2.3201494e-04   1.0988729e-04   2.4203575e-04   1.7946959e-04   1.4505017e-04   2.0627753e-04   2.1173390e-04   2.0376999e-04  -1.4348391e-05  -7.2142662e-04   5.8506084e-05  -8.7466331e-05   2.8543815e-05   1.8927139e-04   4.9268303e-05   8.6318782e-05   1.8108016e-05   1.1437660e-05  -3.8817350e-05   4.2753596e-05  -1.8738964e-04  -2.0652733e-04   8.7526721e-05   1.3022234e-04   1.2640352e-04   1.1653980e-04   1.2328706e-04   1.5338983e-04   1.6607593e-04   9.5231699e-05   4.3187243e-05   4.6860878e-05   1.6770423e-04   9.7891934e-05   8.3409679e-05   1.6420329e-04   1.5937880e-04   8.5745778e-05   1.6064545e-04   2.0282227e-04   1.6326949e-04   1.1530674e-04   2.4954541e-04   5.4454536e-05   1.1171767e-04   6.3553765e-05   1.1966369e-04   2.3127937e-04   1.6892458e-04   1.1996273e-04
   2.3071138e-04   1.2707915e-04   2.3361373e-04   1.7923466e-04   1.4275638e-04   2.0707054e-04   2.0882851e-04   1.9731339e-04  -3.0197456e-05  -7.1615074e-04   6.2663974e-05  -8.6308755e-05   2.9783225e-05   1.8848514e-04   4.9882921e-05   8.7594759e-05   2.3422372e-05   9.1230640e-06  -4.5278597e-05   3.8434307e-05  -1.9008380e-04  -2.2774124e-04   8.2672275e-05   1.2711060e-04   8.6149703e-05   1.0304810e-04   1.3056652e-04   1.5953089e-04   1.8917468e-04   1.0059735e-04   4.5086570e-05   5.7000274e-05   1.5634521e-04   9.0229172e-05   8.9915717e-05   1.6346313e-04   1.5947896e-04   7.5710239e-05   1.5192795e-04   1.9108638e-04   1.6631714e-04   1.4959939e-04   2.7208278e-04   5.8400117e-05   1.6771450e-04   5.2271167e-05   1.4357748e-04   2.5335039e-04   1.8079697e-04   1.6393201e-04
   2.1670781e-04   1.0068600e-04   2.1853660e-04   1.6584899e-04   1.4670147e-04   1.9946454e-04   2.1328648e-04   1.9466688e-04  -3.9914230e-05  -7.2225963e-04   5.0736584e-05  -9.7321856e-05   2.7946007e-05   1.7892827e-04   3.2900072e-05   1.0151013e-04   2.8166438e-05   1.3524897e-05  -9.2540846e-05   4.6344951e-05  -2.0009086e-04  -2.3859060e-04   8.9564826e-05   1.4252882e-04   7.8976947e-05   8.2510560e-05   1.2838366e-04   1.6745551e-04   1.8673288e-04   1.0522520e-04   4.4224122e-05   4.5814817e-05   1.2604690e-04   7.9751691e-05   9.1596274e-05   1.5575615e-04   1.5223217e-04   7.9989935e-05   1.6018756e-04   2.0007999e-04   1.4287098e-04   1.5867077e-04   2.2986573e-04   4.9764454e-05   1.6150904e-04   4.8026999e-05   1.4730738e-04   2.6801220e-04   1.8336991e-04   1.1710414e-04
   2.3841443e-04   1.2313816e-04   2.4524299e-04   1.8344856e-04   1.4869342e-04   2.1232489e-04   2.1164228e-04   2.0174039e-04   1.1670527e-06  -6.9949182e-04   6.0665767e-05  -7.0549395e-05   2.9119414e-05   1.9005731e-04   4.9144375e-05   8.6264139e-05   1.6145297e-05   8.9762825e-06  -3.8898237e-05   1.1665636e-05  -1.6214164e-04  -2.0267823e-04   7.6231910e-05   1.5057011e-04   1.2869688e-04   1.0172398e-04   1.2324828e-04   1.5574456e-04   1.8150372e-04   9.5464588e-05   4.5571662e-05   5.3203185e-05   1.4637182e-04   9.4311385e-05   7.8404206e-05   1.7486303e-04   1.5905355e-04   8.3049359e-05   1.3991307e-04   1.8914668e-04   1.6126801e-04   1.3235296e-04   2.2368882e-04   5.5030305e-05   1.8285938e-04   4.1416384e-05   1.2878943e-04   1.8206656e-04   1.9321790e-04   1.4424216e-04
   2.4492294e-04   1.3947205e-04   2.4263073e-04   1.8490119e-04   1.4237454e-04   2.0598498e-04   2.0834550e-04   1.8090644e-04   7.5744870e-06  -6.9804239e-04   7.0257476e-05  -7.0805065e-05   3.1247746e-05   1.8645839e-04   4.0700987e-05   9.1759895e-05   1.9484334e-05   1.8249657e-05  -3.3417793e-05   2.0038213e-05  -1.3091569e-04  -2.1518716e-04   9.2698698e-05   1.4174476e-04   1.0856777e-04   1.1001148e-04   1.2067485e-04   1.4735029e-04   1.6135076e-04   9.4934054e-05   4.0565370e-05   3.9569622e-05   1.2474599e-04   7.6407974e-05   8.1804959e-05   1.7540784e-04   1.5790656e-04   7.5612654e-05   1.5144597e-04   1.8426342e-04   1.5498935e-04   1.0229030e-04   2.4634798e-04   5.5690500e-05   2.0469760e-04   5.1304622e-05   1.2740842e-04   2.1576644e-04   2.1594296e-04   1.6161161e-04
   2.3272727e-04   1.0584607e-04   2.3049008e-04   1.6846787e-04   1.4992782e-04   2.1185538e-04   2.1094119e-04   1.9774311e-04  -2.6057534e-05  -6.9814280e-04   5.3608463e-05  -7.8927078e-05   2.6191852e-05   1.7945118e-04   3.2933680e-05   9.7824246e-05   3.0464462e-05   7.5888424e-06  -6.2053412e-05  -8.5739894e-06  -2.1047515e-04  -2.4165254e-04   7.4703137e-05   1.3649417e-04   6.7430170e-05   8.3307124e-05   1.4294275e-04   1.5213652e-04   2.0977634e-04   1.0606775e-04   4.4879354e-05   4.7523135e-05   1.1052433e-04   6.5700267e-05   9.1590438e-05   1.6624041e-04   1.6655328e-04   8.9197092e-05   1.4334975e-04   2.0042807e-04   1.7535529e-04   1.7994357e-04   2.5324500e-04   7.0038237e-05   2.3071108e-04   5.6853329e-05   1.4260557e-04   2.2968660e-04   1.5800228e-04   1.5949858e-04
   2.2496999e-04   1.0762051e-04   2.1618846e-04   1.5250563e-04   1.5417236e-04   2.1620643e-04   2.2104873e-04   1.9509856e-04  -5.7715381e-05  -6.9568265e-04   3.0327346e-05  -7.5474702e-05   1.5667827e-05   1.7173305e-04   2.4957253e-05   1.0553165e-04   1.3953082e-05   7.8191197e-06  -7.8489051e-05  -8.7501558e-06  -1.8678585e-04  -2.4401666e-04   7.9250385e-05   1.1259469e-04   1.0361976e-04   1.1857153e-04   1.2233254e-04   1.5158465e-04   2.0260857e-04   1.0555481e-04   5.0362651e-05   5.0070386e-05   1.1597315e-04   7.4345669e-05   8.8538422e-05   1.5825758e-04   1.6761685e-04   1.1425889e-04   1.5844752e-04   2.0803134e-04   1.8053524e-04   2.0377569e-04   2.7151103e-04   6.3760126e-05   2.2496357e-04   6.1499733e-05   1.2496223e-04   2.6407809e-04   2.1358470e-04   1.9182189e-04
   2.5997593e-04   1.3005965e-04   2.5838154e-04   1.8666602e-04   1.4788932e-04   2.2803003e-04   2.1865977e-04   2.0236499e-04  -1.9412893e-05  -6.7123410e-04   5.2164367e-05  -5.6697667e-05   1.7575669e-05   1.7610582e-04   3.8687896e-05   8.9571688e-05   1.3474481e-05   8.7650051e-06  -3.8076221e-05   2.2978729e-05  -1.8358097e-04  -2.3218637e-04   9.2825860e-05   9.1930633e-05   1.0687202e-04   1.0425365e-04   1.1622885e-04   1.6610112e-04   1.8177694e-04   1.0212619e-04   4.4709373e-05   5.5764944e-05   1.4855932e-04   7.2274059e-05   9.2052884e-05   1.6951878e-04   1.6814892e-04   1.1023653e-04   1.5039594e-04   2.0817795e-04   1.8945990e-04   2.2719473e-04   2.8729299e-04   7.2273782e-05   1.8828370e-04   6.3197440e-05   1.3721707e-04   2.4119556e-04   2.2440839e-04   1.7524174e-04
   2.5322972e-04   1.3406841e-04   2.4909247e-04   1.7560144e-04   1.5008243e-04   2.3334153e-04   2.1880890e-04   1.9619995e-04  -2.8107699e-05  -6.7184062e-04   4.3069707e-05  -5.6868914e-05   1.9339501e-05   1.5653741e-04   3.7356374e-05   9.2959446e-05   1.8319592e-05   1.5154555e-05  -4.3783341e-05   1.9226891e-05  -1.7832755e-04  -2.4689466e-04   9.4263065e-05   1.2332575e-04   1.0456453e-04   9.3066759e-05   1.1438725e-04   1.7379773e-04   2.0216363e-04   1.1045686e-04   5.1391871e-05   4.5053439e-05   1.6844095e-04   7.4388823e-05   9.5134179e-05   1.6441879e-04   1.7044938e-04   8.8443827e-05   1.4055791e-04   2.0843073e-04   1.7600440e-04   2.6074043e-04   2.7993822e-04   5.9859773e-05   2.0849107e-04   4.6624671e-05   1.5397447e-04   2.5573472e-04   2.2474451e-04   1.4000207e-04
   2.4793789e-04   1.2969368e-04   2.3272849e-04   1.6078055e-04   1.6658123e-04   2.3427515e-04   2.2926931e-04   2.0195849e-04  -3.3441818e-05  -6.6083588e-04   4.4194814e-05  -8.2098552e-05   1.4876058e-05   1.6018373e-04   2.5852714e-05   1.0217581e-04   2.3292589e-05   1.0922106e-05  -6.6777597e-05  -5.3679889e-07  -1.7407569e-04  -2.6378129e-04   9.8661141e-05   1.2810924e-04   8.0087164e-05   6.8904541e-05   1.2383424e-04   1.6430755e-04   1.7700811e-04   1.0702378e-04   5.3706841e-05   4.8775299e-05   1.0383193e-04   6.2575309e-05   8.7387409e-05   1.6603545e-04   1.6934062e-04   8.9613677e-05   1.5278342e-04   2.0144161e-04   1.7019975e-04   2.4503170e-04   2.6568468e-04   3.5020988e-05   2.4604893e-04   8.3033425e-05   1.8758768e-04   2.9076351e-04   2.2023264e-04   1.5366331e-04
   2.6883045e-04   8.6278633e-05   2.6528310e-04   1.7720215e-04   1.6089287e-04   2.4168662e-04   2.3181722e-04   2.0421948e-04   5.9112913e-06  -6.3792261e-04   5.4801367e-05  -5.2648476e-05   1.4443363e-05   1.6653725e-04   2.8681661e-05   8.8193301e-05   9.2990022e-06   7.2891362e-06  -2.9923871e-05  -7.7607201e-06  -1.6269120e-04  -2.2397922e-04   1.0437598e-04   1.2793603e-04   1.1263214e-04   9.1388960e-05   1.3348249e-04   1.6894807e-04   1.6831781e-04   1.0292846e-04   4.5199595e-05   5.1672687e-05   1.1759590e-04   8.0935737e-05   9.2694478e-05   1.7157046e-04   1.7028402e-04   1.0131198e-04   1.4545905e-04   2.0514800e-04   1.6955481e-04   2.6213145e-04   2.8068348e-04   4.4604283e-05   2.2053193e-04   7.2442934e-05   1.7805793e-04   2.5278330e-04   2.0238700e-04   1.5497717e-04
   2.7576016e-04   1.4141704e-04   2.6029506e-04   1.8427681e-04   1.5526432e-04   2.3615216e-04   2.2300932e-04   1.9205830e-04   1.8414243e-05  -6.3506997e-04   5.8508092e-05  -5.5557710e-05   1.7754401e-05   1.6299618e-04   3.1148349e-05   9.1317903e-05   1.0884930e-05   8.1074886e-06  -3.4812761e-05   1.9154566e-05  -1.5735354e-04  -2.3390380e-04   9.0680369e-05   9.7644290e-05   6.9447349e-05   9.1709713e-05   1.1735198e-04   1.5793247e-04   1.8220965e-04   1.0238622e-04   4.6611312e-05   4.8284910e-05   1.5933518e-04   6.9900401e-05   7.8957135e-05   1.7502852e-04   1.6874533e-04   8.8862027e-05   1.4235162e-04   2.0891354e-04   1.7301668e-04   2.6158497e-04   2.7465887e-04   6.0624021e-05   2.5353383e-04   7.8701982e-05   1.5238991e-04   2.8442903e-04   1.9848331e-04   1.7420783e-04
   2.6041659e-04   1.4255781e-04   2.4633794e-04   1.6870984e-04   1.5628773e-04   2.4112413e-04   2.3339709e-04   1.9164436e-04  -2.4406436e-05  -6.3655851e-04   4.4150664e-05  -5.0236358e-05   1.5791265e-05   1.5902452e-04   2.6511087e-05   9.6846910e-05   1.5049051e-05   7.9538768e-06  -5.0188090e-05   1.5341970e-05  -1.7400867e-04  -2.5186205e-04   8.8337649e-05   1.2567223e-04   9.1943177e-05   8.8202964e-05   1.1270513e-04   1.5413045e-04   1.6715949e-04   1.0849744e-04   5.2273565e-05   5.0936473e-05   1.4994001e-04   7.6368247e-05   9.0706577e-05   1.5779951e-04   1.7236055e-04   9.0303147e-05   1.4517900e-04   1.9793693e-04   1.6944819e-04   2.6553252e-04   2.8391072e-04   6.2849678e-05   2.5232445e-04   5.0986735e-05   1.5985347e-04   2.5215829e-04   2.5679776e-04   1.5085308e-04
   2.6422020e-04   1.0378222e-04   2.5255064e-04   1.6849341e-04   1.6429760e-04   2.4694184e-04   2.3906278e-04   1.8963452e-04   7.6624838e-06  -6.2749005e-04   3.5912228e-05  -3.5432426e-05   1.3774439e-05   1.6423895e-04   2.6771213e-05   8.5917105e-05   2.1780870e-06   5.5464889e-06  -3.8559469e-05   1.5448077e-05  -1.5800368e-04  -2.2281468e-04   1.0126231e-04   1.0808002e-04   1.0297038e-04   1.1891781e-04   1.1733989e-04   1.6680495e-04   1.7585054e-04   1.0154636e-04   5.1989824e-05   4.9803308e-05   1.8330468e-04   8.4560685e-05   8.5738218e-05   1.6442075e-04   1.6250691e-04   9.5042960e-05   1.4713641e-04   2.2023069e-04   1.9645297e-04   2.7485433e-04   2.9873301e-04   6.7843284e-05   2.1007718e-04   5.5128454e-05   1.6990089e-04   2.7849324e-04   2.0704191e-04   1.6675549e-04
   2.8036954e-04   1.4765568e-04   2.6084314e-04   1.8166905e-04   1.5325667e-04   2.4923219e-04   2.3531371e-04   2.0036967e-04   1.4438342e-05  -6.2222907e-04   5.0529012e-05  -2.5801708e-05   1.3675877e-05   1.6867364e-04   4.4882840e-05   8.3980725e-05   6.9954785e-06   1.2447822e-05  -2.7845877e-05   3.2113712e-05  -1.6004586e-04  -2.2157659e-04   1.0694964e-04   1.1490592e-04   9.8643592e-05   1.0504532e-04   1.1977043e-04   1.6177347e-04   1.6922630e-04   1.0500380e-04   6.0067570e-05   4.6220208e-05   1.4586827e-04   8.8461864e-05   9.3066425e-05   1.8142836e-04   1.7409697e-04   1.0832994e-04   1.5043349e-04   2.2537520e-04   1.8182702e-04   2.5923710e-04   3.2095623e-04   6.6547669e-05   2.3167531e-04   7.1438932e-05   1.4344999e-04   3.2028032e-04   2.1129154e-04   1.7313722e-04
   2.6848502e-04   1.3343869e-04   2.5250184e-04   1.7634491e-04   1.6117848e-04   2.4873289e-04   2.4541243e-04   1.9609733e-04  -1.7102331e-05  -6.2432245e-04   4.0988041e-05  -3.4482371e-05   1.4711589e-05   1.6515570e-04   4.8164195e-05   9.6274423e-05   1.6005541e-05   1.3763603e-05  -5.8166679e-05   3.2191969e-05  -1.9318268e-04  -2.4527189e-04   9.5038624e-05   9.4349365e-05   1.0409009e-04   9.3212788e-05   1.2936958e-04   1.8943544e-04   1.9405724e-04   1.1485021e-04   6.1625731e-05   5.0697796e-05   1.6262576e-04   7.6566779e-05   1.0094371e-04   1.6028149e-04   1.8618349e-04   1.1770493e-04   1.5686885e-04   2.3512520e-04   1.8137679e-04   2.6960258e-04   3.0708048e-04   6.1002429e-05   2.2501977e-04   9.2171824e-05   1.5743540e-04   2.9150728e-04   2.0971167e-04   1.5831155e-04
   2.9776286e-04   1.4296814e-04   2.7618240e-04   1.9078259e-04   1.5979436e-04   2.5925404e-04   2.4167780e-04   1.9623671e-04   1.3306515e-05  -6.0945994e-04   4.3717631e-05  -1.3593469e-05   1.5304066e-05   1.5395638e-04   5.5483801e-05   8.7325556e-05   5.6585059e-06   1.8462672e-05  -1.0747566e-05   1.9661937e-05  -1.5627315e-04  -2.1164530e-04   1.1905484e-04   1.2563000e-04   1.2145417e-04   1.1499511e-04   1.1079924e-04   1.7729984e-04   1.8002762e-04   1.0919547e-04   6.5188979e-05   5.3086707e-05   1.8689610e-04   9.6603508e-05   1.0031969e-04   1.8689128e-04   1.8218927e-04   1.1686624e-04   1.5998568e-04   2.2073307e-04   1.9738746e-04   2.7949773e-04   2.8461948e-04   6.9063346e-05   2.2229958e-04   7.3974450e-05   1.6802410e-04   2.7549508e-04   1.8806368e-04   1.7770154e-04
   2.9393073e-04   1.5057084e-04   2.7188749e-04   1.8978291e-04   1.6196209e-04   2.5577933e-04   2.4140519e-04   1.8619212e-04   6.0203511e-06  -6.0316030e-04   4.4522269e-05  -1.5720747e-05   1.6406124e-05   1.7176206e-04   5.5105334e-05   9.8868535e-05   1.1832562e-05   1.8799539e-05  -2.9053850e-05   2.7525708e-05  -1.5045312e-04  -2.2206723e-04   1.1045367e-04   1.2368980e-04   1.1368006e-04   1.0652305e-04   1.1559772e-04   1.7885887e-04   1.7831854e-04   1.1239662e-04   6.1312989e-05   5.2509404e-05   1.6838072e-04   9.4405361e-05   1.0434151e-04   1.7406465e-04   1.7711718e-04   1.2251260e-04   1.6732574e-04   2.2262512e-04   1.9226261e-04   2.4134170e-04   2.8508366e-04   6.7844805e-05   2.2489503e-04   8.5987806e-05   1.4811060e-04   2.4074654e-04   2.0401002e-04   1.5128363e-04
   2.8818243e-04   1.2512400e-04   2.5284529e-04   1.7661069e-04   1.6619614e-04   2.5684270e-04   2.4947801e-04   1.9365420e-04  -3.0595253e-05  -6.0346886e-04   3.2745938e-05  -2.5257788e-05   1.9818768e-05   1.7286270e-04   4.9821989e-05   1.0762162e-04   1.6504298e-05   3.0133700e-05  -6.4446693e-05   1.5785456e-05  -1.7998613e-04  -2.3385011e-04   9.0831018e-05   1.0203975e-04   9.2255759e-05   1.0915119e-04   1.2485759e-04   1.7712275e-04   2.2218301e-04   1.1802389e-04   6.2059829e-05   5.6140962e-05   1.5316332e-04   7.1756047e-05   9.6980868e-05   1.6707914e-04   1.7207851e-04   1.2053628e-04   1.6731913e-04   2.4166907e-04   1.9454455e-04   2.6762328e-04   2.9957815e-04   6.3433465e-05   1.8188271e-04   8.3596948e-05   1.4924641e-04   3.1879666e-04   2.3076094e-04   1.5419489e-04
   3.1243562e-04   1.6723017e-04   2.8397088e-04   1.9902125e-04   1.6386980e-04   2.6276204e-04   2.4809138e-04   1.7576123e-04  -2.5122810e-05  -5.8263639e-04   3.2591117e-05  -2.9496941e-06   2.0169813e-05   1.7204386e-04   6.1945670e-05   9.5135554e-05   1.0124489e-05   3.0128605e-05  -1.2684052e-05   7.7596160e-06  -1.5868135e-04  -2.0997641e-04   1.0859640e-04   1.0652882e-04   1.1182947e-04   1.3240257e-04   1.1125120e-04   1.7745217e-04   1.6875892e-04   1.0446275e-04   7.2655304e-05   6.2536339e-05   1.5944290e-04   9.1499562e-05   1.0423745e-04   1.6375467e-04   1.8277738e-04   1.2107921e-04   1.6717051e-04   2.4152863e-04   1.8102014e-04   2.2619785e-04   3.0118643e-04   6.7667228e-05   1.8694409e-04   8.1482067e-05   1.3119180e-04   2.5228050e-04   1.7119841e-04   1.5645374e-04
   3.1348987e-04   1.3304428e-04   2.7724350e-04   1.9195570e-04   1.6589383e-04   2.6115761e-04   2.4338254e-04   1.8451773e-04  -3.8495833e-05  -5.7990826e-04   2.6124357e-05  -3.5519765e-06   2.5943349e-05   1.7585827e-04   6.0189061e-05   1.0807515e-04   1.3207200e-05   3.3918757e-05  -3.8564809e-05   2.2181262e-05  -1.4561666e-04  -2.2774251e-04   1.1065028e-04   1.0153012e-04   1.1529743e-04   1.1312334e-04   1.1723515e-04   1.7595543e-04   2.0400275e-04   1.1588696e-04   7.5615164e-05   6.1097526e-05   1.2778216e-04   7.6522825e-05   1.1202798e-04   1.7096537e-04   1.8405897e-04   1.1810855e-04   1.8162292e-04   2.2051339e-04   1.8373106e-04   2.3001735e-04   3.1770024e-04   6.9728128e-05   1.7383699e-04   7.5831886e-05   1.2148156e-04   2.4562207e-04   1.5462629e-04   1.5427616e-04
   3.0005042e-04   1.2035438e-04   2.5852286e-04   1.7741192e-04   1.6986157e-04   2.6274050e-04   2.4888411e-04   1.8021927e-04  -6.1488558e-05  -5.8267906e-04   1.0074143e-05  -1.6093611e-05   3.2555181e-05   1.8193299e-04   5.5113374e-05   1.1341539e-04   1.9893196e-05   4.3853710e-05  -4.3073098e-05   2.0746262e-05  -1.2904062e-04  -2.4069606e-04   1.1955713e-04   7.0844049e-05   1.0182542e-04   1.0024195e-04   1.2949528e-04   1.7192295e-04   2.0795560e-04   1.2055961e-04   7.8704608e-05   5.2861036e-05   1.3556753e-04   7.2677394e-05   1.0639280e-04   1.7348604e-04   1.8653338e-04   1.3093352e-04   1.7922327e-04   2.4516310e-04   2.0133513e-04   2.3062719e-04   3.2294929e-04   6.9014903e-05   2.1704168e-04   1.1015673e-04   1.3128400e-04   2.2725148e-04   1.4393551e-04   1.9270922e-04
   3.1862760e-04   1.5876694e-04   2.8152764e-04   1.9851404e-04   1.6147696e-04   2.6642863e-04   2.4083264e-04   1.7358449e-04  -3.4782010e-05  -5.6150509e-04   2.3913815e-05   6.6306870e-06   3.7278391e-05   1.8760473e-04   7.2900439e-05   9.9810961e-05   1.1972183e-05   4.0030365e-05  -8.3785826e-06   9.2151504e-06  -1.1497577e-04  -1.9710974e-04   1.3430569e-04   1.0256305e-04   1.3489780e-04   1.3208462e-04   1.1774737e-04   1.6187488e-04   1.9892016e-04   1.0661619e-04   8.1691163e-05   4.0997649e-05   1.3083436e-04   9.6647243e-05   1.0993714e-04   1.5655697e-04   1.6130306e-04   1.2157539e-04   1.6601823e-04   2.2319028e-04   2.0233414e-04   1.8687960e-04   3.1412527e-04   5.8662270e-05   1.4018976e-04   4.7825528e-05   1.2464423e-04   2.2844906e-04   1.6685735e-04   1.6292634e-04
   3.1573014e-04   1.4769020e-04   2.7260935e-04   1.9635966e-04   1.6030815e-04   2.5136388e-04   2.4518670e-04   1.8359257e-04  -1.8037221e-05  -5.6663109e-04   2.8788143e-05   7.6821143e-06   4.9842361e-05   1.9827194e-04   8.0328296e-05   1.1058922e-04   1.7961316e-05   4.1592222e-05  -1.3035381e-05   2.7929533e-05  -1.2147552e-04  -1.9723647e-04   1.0712563e-04   1.1064169e-04   1.2120909e-04   1.2580748e-04   1.1422481e-04   1.6695075e-04   2.0981635e-04   1.0922398e-04   8.3037688e-05   5.8067355e-05   1.1808983e-04   7.7095494e-05   1.0821922e-04   1.5651769e-04   1.6379927e-04   1.1830094e-04   1.7359064e-04   2.3406922e-04   1.5956783e-04   1.4711689e-04   3.0634878e-04   6.4115062e-05   1.4337417e-04   4.6027872e-05   1.2073689e-04   2.6683882e-04   8.8497429e-05   1.6284820e-04
   3.0553809e-04   1.5937717e-04   2.5747038e-04   1.8021195e-04   1.6089379e-04   2.5444644e-04   2.4531936e-04   1.8095567e-04  -6.7090528e-05  -5.6734704e-04   1.7114859e-05  -1.0719009e-06   5.7720747e-05   2.1027909e-04   8.0378952e-05   1.2272877e-04   2.8951416e-05   4.6910976e-05  -4.2590895e-05   1.2585235e-05  -1.2776045e-04  -2.0945520e-04   1.1360397e-04   8.0784834e-05   8.8073903e-05   1.0772345e-04   1.2212344e-04   1.6486645e-04   2.1474037e-04   1.1252019e-04   8.3909996e-05   5.2996573e-05   1.2777308e-04   7.8043835e-05   1.1863742e-04   1.5462996e-04   1.5960813e-04   1.1958485e-04   1.7472851e-04   2.2209638e-04   1.6779205e-04   1.8717114e-04   2.9869835e-04   5.3176867e-05   1.3625924e-04   8.7562461e-05   1.1504919e-04   2.6718903e-04   1.5963023e-04   1.3335067e-04
   2.8603349e-04   1.0983782e-04   2.3491826e-04   1.6980662e-04   1.6699484e-04   2.4972233e-04   2.4056440e-04   1.9879499e-04  -6.6247427e-05  -5.7002163e-04   1.6780310e-05  -9.3253329e-06   6.2942221e-05   2.0660898e-04   7.3374991e-05   1.2111583e-04   3.0448087e-05   6.4854423e-05  -6.1100218e-05   3.3374056e-07  -1.6133100e-04  -2.1455484e-04   1.1098716e-04   9.9099896e-05   8.6440305e-05   9.7496617e-05   1.4211806e-04   1.7500279e-04   2.0090629e-04   1.1621134e-04   8.1049082e-05   6.1870407e-05   1.0922441e-04   7.2034913e-05   1.0218557e-04   1.6005180e-04   1.7554560e-04   1.2137218e-04   1.7880459e-04   1.9964973e-04   1.6294529e-04   1.9163743e-04   2.6913642e-04   5.3430271e-05   2.1880468e-04   9.1840171e-05   1.5354734e-04   2.3136156e-04   1.6233505e-04   1.6769471e-04
   3.1437291e-04   1.5767167e-04   2.6895670e-04   1.9783720e-04   1.6324109e-04   2.5566205e-04   2.5089050e-04   1.8591832e-04  -2.5972864e-05  -5.4621883e-04   2.4075463e-05   1.9714458e-05   6.3301290e-05   2.1172363e-04   8.4506246e-05   1.0804755e-04   2.2645991e-05   4.7072517e-05  -1.6097802e-05   2.8727582e-05  -1.4524319e-04  -1.7807900e-04   1.1881098e-04   7.9394442e-05   1.3977256e-04   1.3337670e-04   1.2422915e-04   1.8002611e-04   1.7974977e-04   1.0577533e-04   8.5630600e-05   5.8164736e-05   1.4011498e-04   8.6370273e-05   1.1060860e-04   1.5515024e-04   1.6024370e-04   1.1900238e-04   1.7291776e-04   2.2384479e-04   1.7602232e-04   1.4471100e-04   3.0590611e-04   5.9871127e-05   1.8180521e-04   7.9843536e-05   1.1157591e-04   2.2270667e-04   1.2471863e-04   1.7071527e-04
   3.0586109e-04   1.4529396e-04   2.6282505e-04   1.9561652e-04   1.5520236e-04   2.4834904e-04   2.5151175e-04   1.8343859e-04  -3.7411137e-05  -5.3660944e-04   3.1905787e-05   2.1290401e-05   6.8829191e-05   2.0576129e-04   8.3050072e-05   1.0528566e-04   2.5320553e-05   5.4849839e-05  -1.9854915e-05   4.3575037e-05  -1.4610236e-04  -1.8790177e-04   1.3414293e-04   8.7227112e-05   1.3197641e-04   1.2167257e-04   1.2294519e-04   1.5569309e-04   2.0192462e-04   1.0081894e-04   8.9392226e-05   6.2235944e-05   1.6803415e-04   8.6275533e-05   1.0747153e-04   1.6136117e-04   1.5688570e-04   1.1500754e-04   1.6640399e-04   2.1437151e-04   1.5973905e-04   1.7651447e-04   2.9670799e-04   5.2654999e-05   1.3161130e-04   9.4182047e-05   1.1987611e-04   2.6062047e-04   1.4489042e-04   1.7172738e-04
   2.9625028e-04   1.2424380e-04   2.4499706e-04   1.8251773e-04   1.5672638e-04   2.4958406e-04   2.4328090e-04   1.8377902e-04  -6.1805666e-05  -5.3582829e-04   2.2839915e-05   7.6524120e-06   7.0888658e-05   2.0276508e-04   7.5480166e-05   1.1139320e-04   2.8429466e-05   5.4380998e-05  -3.0016152e-05   1.2882917e-05  -1.1942445e-04  -2.0010379e-04   1.2050906e-04   9.6090582e-05   1.1184581e-04   1.0706584e-04   1.2906548e-04   1.6787497e-04   1.8226457e-04   1.1145358e-04   8.1480808e-05   5.5345339e-05   1.2430646e-04   7.9339043e-05   1.0702014e-04   1.5207268e-04   1.6533864e-04   1.1615604e-04   1.6934839e-04   2.1531554e-04   1.6714304e-04   1.6749716e-04   2.9021085e-04   4.9806215e-05   1.5115665e-04   5.8333670e-05   1.3351985e-04   2.8001756e-04   2.0412364e-04   1.3408856e-04
   2.7239003e-04   1.1180813e-04   2.2939019e-04   1.6906453e-04   1.6040345e-04   2.4803789e-04   2.5757280e-04   1.7802621e-04  -5.3074244e-05  -5.2371353e-04   4.2464862e-06   5.0622652e-06   6.6900757e-05   1.8776050e-04   6.2641215e-05   1.0979086e-04   1.0105646e-05   5.9392991e-05  -2.2984306e-05   7.6009910e-06  -8.0214428e-05  -1.8459080e-04   1.3580499e-04   1.2371056e-04   1.5429796e-04   1.2370895e-04   1.2573384e-04   1.8629071e-04   1.9462801e-04   1.0330426e-04   8.6894870e-05   6.6565524e-05   1.4361927e-04   7.9549143e-05   1.0458483e-04   1.4495882e-04   1.6263584e-04   1.1839499e-04   1.7430307e-04   2.3672983e-04   1.7987848e-04   1.7270639e-04   2.9402444e-04   5.5197561e-05   1.4363808e-04   7.9731573e-05   1.2757127e-04   2.7062630e-04   2.0551716e-04   1.7465014e-04
   3.0634773e-04   1.5953192e-04   2.6072888e-04   2.0053469e-04   1.5299204e-04   2.5832868e-04   2.4819150e-04   1.7236875e-04  -3.2275453e-05  -5.0981384e-04   3.4369983e-05   1.5405920e-05   6.9114074e-05   1.9071573e-04   8.0735204e-05   9.6209747e-05   1.0591332e-05   4.9598901e-05  -9.3443659e-06   3.5080313e-05  -9.0318412e-05  -1.7303588e-04   1.3816952e-04   9.2588707e-05   1.3074197e-04   1.2824111e-04   1.3012921e-04   1.6711015e-04   1.8028669e-04   9.9693767e-05   8.6045955e-05   5.7413617e-05   1.5006129e-04   9.1221264e-05   1.0337029e-04   1.3586081e-04   1.4311417e-04   1.0577942e-04   1.6595598e-04   2.3519498e-04   1.5799321e-04   1.7701967e-04   2.9188147e-04   5.2305855e-05   1.0585723e-04   8.0586258e-05   1.2212216e-04   2.8011811e-04   2.1174880e-04   1.2876860e-04
   2.9246067e-04   1.4776437e-04   2.4484683e-04   1.9106292e-04   1.5136049e-04   2.4917972e-04   2.4642370e-04   1.6885638e-04  -3.6449965e-05  -5.1172968e-04   2.9939383e-05   1.0048888e-05   7.0676149e-05   1.9755113e-04   7.8038895e-05   9.2128714e-05   1.7526003e-05   4.4752822e-05  -8.6755290e-06   1.1340258e-05  -8.0141042e-05  -1.8809625e-04   1.3068553e-04   1.1909557e-04   1.1617343e-04   9.8553690e-05   1.1029492e-04   1.6514790e-04   1.6921081e-04   9.5107367e-05   8.9702145e-05   6.2147432e-05   1.3071616e-04   8.1993872e-05   1.0295540e-04   1.5422548e-04   1.4885867e-04   1.0923814e-04   1.5730357e-04   2.3350552e-04   1.6254936e-04   1.9242553e-04   2.7601825e-04   6.7932328e-05   1.4036093e-04   8.3459818e-05   1.0295155e-04   2.5025188e-04   1.5086572e-04   1.8353589e-04
   2.7835916e-04   1.1510411e-04   2.2545674e-04   1.7493279e-04   1.5619041e-04   2.4393262e-04   2.5437374e-04   1.7252124e-04  -6.3597668e-05  -5.1632168e-04   1.5753152e-05   1.0880008e-06   5.7590878e-05   1.7612171e-04   7.0534858e-05   9.0634945e-05   1.6358070e-05   4.3706907e-05  -4.6905276e-05   2.1925659e-06  -1.4336800e-04  -2.0558077e-04   1.3919846e-04   1.1638846e-04   1.0106842e-04   9.1251706e-05   1.2537623e-04   1.5481295e-04   1.8529984e-04   1.0610531e-04   9.0854599e-05   4.6739056e-05   1.2116754e-04   6.6423745e-05   9.3957788e-05   1.4969302e-04   1.6409965e-04   1.1196861e-04   1.7318210e-04   2.2698411e-04   1.6676699e-04   2.1432401e-04   2.7610254e-04   6.8727633e-05   1.6695147e-04   6.6341185e-05   9.9912126e-05   2.7907957e-04   1.9077600e-04   1.3557075e-04
   2.9461132e-04   1.4436025e-04   2.4907786e-04   1.9679169e-04   1.4620084e-04   2.5453840e-04   2.5094260e-04   1.6538679e-04  -4.2534928e-05  -4.9321749e-04   2.6959116e-05   2.5210869e-05   5.6744801e-05   1.7899578e-04   8.2909952e-05   7.9010744e-05   8.6203618e-06   3.0999287e-05  -6.1358751e-06   1.9485371e-05  -7.5878845e-05  -1.7225162e-04   1.3767532e-04   9.9478566e-05   1.5392668e-04   1.1295610e-04   1.2211374e-04   1.6283533e-04   1.5867713e-04   1.0770922e-04   9.5243333e-05   5.5871300e-05   1.6666869e-04   9.5882810e-05   1.0371434e-04   1.5213829e-04   1.5496759e-04   1.1837277e-04   1.6062317e-04   2.4823885e-04   1.7331186e-04   1.9786356e-04   2.9378454e-04   6.8973437e-05   1.2565020e-04   8.5458414e-05   1.1730006e-04   2.5444216e-04   1.9481902e-04   1.7060728e-04
   2.8311845e-04   1.6270761e-04   2.3914961e-04   1.9043002e-04   1.4509217e-04   2.4504954e-04   2.4402639e-04   1.5903532e-04  -4.3956756e-05  -4.9016130e-04   2.6258484e-05   2.5330975e-05   5.5696815e-05   1.8427108e-04   8.3432824e-05   7.9849196e-05   8.3977566e-06   3.9580518e-05  -1.5437607e-05  -1.2104993e-05  -1.0351196e-04  -1.9244189e-04   1.4139645e-04   1.0969197e-04   1.3320088e-04   1.0950774e-04   9.8874392e-05   1.7764881e-04   1.7049741e-04   1.0509135e-04   9.8655742e-05   5.7994006e-05   1.9276624e-04   8.0408601e-05   1.0191095e-04   1.3942906e-04   1.5568525e-04   1.2138313e-04   1.6605250e-04   2.3002023e-04   1.6984456e-04   1.8308712e-04   2.6951975e-04   6.1821884e-05   1.2474047e-04   4.7126825e-05   9.8908022e-05   2.3621073e-04   1.6936843e-04   1.9014483e-04
   2.6491345e-04   1.3586183e-04   2.2045262e-04   1.7196768e-04   1.4702369e-04   2.4021004e-04   2.4839325e-04   1.6579812e-04  -8.0232669e-05  -4.8912794e-04   9.6512640e-06   3.1312611e-05   4.7982965e-05   1.7037980e-04   7.4893411e-05   7.7535107e-05  -1.1049554e-05   2.5137504e-05  -2.4354296e-05   3.3667904e-05  -8.3651481e-05  -1.7026433e-04   1.3690918e-04   8.9016779e-05   1.5031613e-04   1.2079168e-04   1.1523179e-04   1.6787283e-04   1.8715287e-04   9.9594712e-05   8.7170738e-05   5.9238821e-05   1.6869888e-04   9.6198004e-05   9.8725999e-05   1.4672622e-04   1.5448265e-04   1.2457208e-04   1.5743167e-04   2.3366525e-04   1.5623476e-04   1.8205744e-04   2.9017558e-04   6.4294887e-05   1.7111393e-04   9.8885692e-05   9.5163363e-05   2.7790392e-04   1.5256868e-04   1.4743590e-04
   2.8529458e-04   1.5181863e-04   2.4515030e-04   1.9759704e-04   1.3879816e-04   2.3446795e-04   2.3473185e-04   1.5502515e-04  -2.1653685e-05  -4.6558701e-04   3.8884784e-05   4.5224213e-05   5.6318757e-05   1.8642751e-04   9.0339876e-05   7.0197253e-05  -1.1804381e-06   3.2900247e-05  -1.6378825e-05   2.0340192e-05  -1.0431081e-04  -1.5305274e-04   1.3852963e-04   1.0780070e-04   1.5264608e-04   1.2062237e-04   1.0922092e-04   1.6080659e-04   1.2481377e-04   9.0330970e-05   8.7634711e-05   5.8410362e-05   1.6037433e-04   9.1112008e-05   9.7672761e-05   1.5091598e-04   1.4288524e-04   1.0150274e-04   1.5267383e-04   2.3737132e-04   1.5641384e-04   2.0533640e-04   2.7236278e-04   6.3298146e-05   1.4781137e-04   2.3707744e-05   1.2372856e-04   1.6378057e-04   1.6755750e-04   1.4659595e-04
   2.7865174e-04   1.2495418e-04   2.3252092e-04   1.8759804e-04   1.4453275e-04   2.3149360e-04   2.3169823e-04   1.5370094e-04  -2.4404588e-05  -4.6766570e-04   4.0756124e-05   4.5350735e-05   5.3385778e-05   1.8441628e-04   8.0293110e-05   7.4587333e-05   2.7926337e-06   3.3749395e-05  -3.1460811e-05  -2.3935572e-05  -7.9898426e-05  -1.6671557e-04   1.3144543e-04   1.0158229e-04   1.2046278e-04   9.9816527e-05   1.0893202e-04   1.5659709e-04   1.5702519e-04   9.6490599e-05   8.5527230e-05   6.3176289e-05   1.7768038e-04   7.7349796e-05   9.6610827e-05   1.4566153e-04   1.4299250e-04   9.8014534e-05   1.4818164e-04   2.2666279e-04   1.4320838e-04   1.5231117e-04   2.6100985e-04   5.3091666e-05   1.0297490e-04   4.6036716e-05   1.0807968e-04   2.4103177e-04   1.4430372e-04   1.3558609e-04
   2.6439779e-04   1.1190321e-04   2.2216022e-04   1.6894407e-04   1.4652184e-04   2.2674706e-04   2.3737516e-04   1.6349484e-04  -2.5209190e-05  -4.5683238e-04   2.5521713e-05   5.3262844e-05   5.4814587e-05   1.8406185e-04   6.9570408e-05   7.5861310e-05  -6.3088128e-06   2.1171827e-05  -4.9574169e-06   1.9439060e-05  -5.7289370e-05  -1.4824100e-04   1.3290548e-04   1.4327545e-04   1.3642930e-04   1.1045322e-04   9.9976467e-05   1.5663574e-04   1.6925811e-04   9.5574986e-05   8.9313282e-05   4.8070422e-05   1.4277638e-04   9.2042326e-05   8.4974476e-05   1.6282582e-04   1.3255526e-04   1.0678096e-04   1.4726121e-04   2.3380821e-04   1.7475309e-04   1.3606169e-04   2.7996625e-04   5.2491356e-05   1.2139286e-04   2.8120023e-05   8.0424004e-05   2.4577015e-04   1.6103298e-04   1.8194479e-04
   2.8633999e-04   1.7768843e-04   2.4919814e-04   1.9155481e-04   1.3708955e-04   2.3666698e-04   2.3350230e-04   1.5218201e-04  -3.9798855e-05  -4.4155365e-04   4.1547151e-05   6.5172753e-05   4.8298647e-05   1.8080577e-04   8.0207130e-05   6.6655353e-05  -5.5871906e-06   1.8732415e-05  -1.7382705e-05   3.3137560e-05  -8.4038096e-05  -1.5385971e-04   1.3859317e-04   1.1790756e-04   1.3875385e-04   1.1907211e-04   9.5717187e-05   1.5623090e-04   1.3816205e-04   9.2868286e-05   9.2215647e-05   4.9827948e-05   1.5755417e-04   7.9926402e-05   8.8466906e-05   1.6929940e-04   1.4505671e-04   1.1651452e-04   1.4392909e-04   2.3127528e-04   1.6068936e-04   1.6041427e-04   2.8610180e-04   6.1067083e-05   7.7157325e-05   3.6534555e-05   8.6982654e-05   2.0904682e-04   1.0812288e-04   1.5881748e-04
   2.8590037e-04   1.5404681e-04   2.4240857e-04   1.7795278e-04   1.3583746e-04   2.3317615e-04   2.2564763e-04   1.5124644e-04  -6.9795118e-05  -4.4358720e-04   2.9755629e-05   6.6552318e-05   5.4601045e-05   1.7850849e-04   7.6597476e-05   7.0489878e-05   7.9132514e-07   1.7520051e-05  -2.7673364e-05   6.6645953e-06  -9.3658309e-05  -1.7001227e-04   1.3395974e-04   9.4212715e-05   1.3017334e-04   1.0089523e-04   9.3931296e-05   1.5855531e-04   1.7628136e-04   1.0136763e-04   9.5149036e-05   3.5711197e-05   1.3592569e-04   7.0634604e-05   7.8927391e-05   1.3285181e-04   1.4051856e-04   1.1667450e-04   1.4466872e-04   2.1545668e-04   1.4730911e-04   1.3193813e-04   2.7033035e-04   5.3530344e-05   4.9494480e-05   1.7316501e-05   7.7798693e-05   2.4469907e-04   1.3484099e-04   1.6771835e-04
   2.6991917e-04   1.1108627e-04   2.2175316e-04   1.6082125e-04   1.4088863e-04   2.2576170e-04   2.1568518e-04   1.4762345e-04  -8.6898384e-05  -4.4507018e-04   2.0628293e-05   6.0149392e-05   4.6566565e-05   1.6516949e-04   7.1854309e-05   7.8166580e-05  -3.2977862e-06   2.7717868e-05  -5.2494092e-05  -1.3193802e-05  -1.1600412e-04  -1.7714895e-04   1.1320353e-04   7.3801944e-05   1.1342816e-04   8.6793458e-05   1.0264221e-04   1.3775837e-04   1.5061953e-04   1.0011586e-04   7.7286219e-05   3.4911183e-05   1.0736855e-04   6.6796107e-05   7.5536278e-05   1.2544048e-04   1.4823033e-04   1.0351808e-04   1.5012942e-04   2.3253080e-04   1.6189624e-04   9.8803095e-05   2.4922233e-04   6.5586319e-05   1.0691381e-04   4.0789069e-05   8.1685161e-05   1.9872465e-04   1.6415137e-04   1.4257255e-04
   2.8632701e-04   1.3854181e-04   2.5382463e-04   1.8739238e-04   1.3817470e-04   2.2512801e-04   2.1359212e-04   1.4850424e-04  -3.9604733e-05  -4.1952013e-04   3.8353064e-05   9.4146941e-05   5.4872213e-05   1.7469587e-04   7.8481906e-05   6.3835498e-05  -1.1697032e-05   3.6080244e-06  -1.6065811e-05   4.9004296e-07  -1.1512431e-04  -1.2332079e-04   1.1607947e-04   8.0809354e-05   1.3068321e-04   1.2022406e-04   8.4636558e-05   1.4073586e-04   1.2987679e-04   8.7955072e-05   8.5506777e-05   4.3437991e-05   1.6732124e-04   7.6604680e-05   8.9919929e-05   1.2851627e-04   1.3366772e-04   1.0146006e-04   1.5009267e-04   2.2109110e-04   1.4485340e-04   7.0282185e-05   2.3384354e-04   5.2728283e-05   1.0302118e-04   2.8761884e-05   9.4757634e-05   2.5441046e-04   1.1059707e-04   1.2565684e-04
   2.7753398e-04   1.5188278e-04   2.4609239e-04   1.8015808e-04   1.4062259e-04   2.1842438e-04   2.1083813e-04   1.3807307e-04  -6.1187173e-05  -4.1054288e-04   4.1765783e-05   8.5603308e-05   5.6960245e-05   1.6455253e-04   6.9544614e-05   6.5083419e-05  -4.6359601e-06   4.9163259e-06  -3.1457250e-05  -2.6142375e-06  -9.1720067e-05  -1.4821434e-04   1.1219759e-04   8.3731989e-05   1.0507699e-04   9.8796118e-05   8.2636434e-05   1.4304068e-04   1.3941008e-04   8.9907255e-05   8.5324413e-05   3.7466620e-05   1.2248527e-04   7.0590075e-05   8.2107799e-05   1.2800356e-04   1.2795175e-04   9.9404708e-05   1.3539963e-04   2.1330925e-04   1.5858612e-04   7.1282957e-05   2.5612436e-04   4.4471093e-05   5.5886874e-05   3.3218806e-05   8.4701540e-05   1.9648398e-04   1.4854727e-04   9.6434916e-05
   2.6600581e-04   1.1136341e-04   2.2822022e-04   1.6608801e-04   1.3600447e-04   2.1850427e-04   2.0918346e-04   1.4803441e-04  -8.2960098e-05  -4.0496976e-04   3.5679350e-05   7.0932736e-05   5.5049408e-05   1.5444397e-04   5.8194779e-05   6.9726288e-05  -2.8269242e-06   1.6788770e-05  -5.3582226e-05   4.7127847e-05  -8.9104353e-05  -1.5675784e-04   1.2158574e-04   9.2472743e-05   9.7914563e-05   7.9805548e-05   7.0614136e-05   1.4721394e-04   1.3664615e-04   8.9753710e-05   8.4756459e-05   3.9791521e-05   1.6048335e-04   6.3892308e-05   8.3806925e-05   1.3520542e-04   1.2421233e-04   8.9255314e-05   1.2903548e-04   2.0110792e-04   1.3050709e-04   6.6348272e-05   2.4340443e-04   2.6661004e-05   6.8076784e-05   3.9927836e-05   8.7343964e-05   1.6940101e-04   1.0275972e-04   1.5961422e-04
   2.4937163e-04   7.3406387e-05   2.1949229e-04   1.5618571e-04   1.4225772e-04   2.1592369e-04   2.0982235e-04   1.5335657e-04  -5.4342774e-05  -3.9448880e-04   3.2744952e-05   9.9545912e-05   5.0937942e-05   1.6222910e-04   5.5339460e-05   6.2858046e-05  -1.5968388e-05   1.0626391e-05   1.7195092e-05   4.0697669e-05  -5.2648880e-05  -1.3756554e-04   1.2679823e-04   9.4536648e-05   1.1148042e-04   1.1097329e-04   7.8999197e-05   1.2944282e-04   1.4394616e-04   8.7350789e-05   9.1694172e-05   2.8342114e-05   1.7081223e-04   7.1242095e-05   7.9357545e-05   1.1287128e-04   1.4224328e-04   1.0799374e-04   1.4756575e-04   2.1983996e-04   1.3545920e-04   1.2589619e-04   2.6085757e-04   4.1542513e-05   5.7427838e-05   3.9152314e-05   6.3269741e-05   1.8599036e-04   1.5235801e-04   1.1613514e-04
   2.7679044e-04   1.3768018e-04   2.4312064e-04   1.8531755e-04   1.3354178e-04   2.2139616e-04   2.0656815e-04   1.3734428e-04  -3.8351787e-05  -3.7357426e-04   5.6935856e-05   9.3737799e-05   5.0503404e-05   1.5718622e-04   6.7829664e-05   4.9836119e-05  -1.9653726e-05   6.4195847e-06  -6.3397156e-06   1.1423647e-05  -6.3674801e-05  -1.3866456e-04   1.2157130e-04   9.9137615e-05   1.3678145e-04   9.2595983e-05   7.5271455e-05   1.2780222e-04   8.6341235e-05   8.3938663e-05   7.2886964e-05   3.5901066e-05   1.5985541e-04   8.9135101e-05   7.5980242e-05   1.1610661e-04   1.3725844e-04   9.2764894e-05   1.3596925e-04   2.0294246e-04   1.3986508e-04   6.5375309e-05   2.0381426e-04   3.1081217e-05   8.3585932e-05   1.5012368e-05   9.5828436e-05   2.0707909e-04   6.8894515e-05   8.8129265e-05
   2.5561286e-04   1.0209902e-04   2.2256466e-04   1.7374312e-04   1.2478328e-04   2.0403566e-04   1.9607625e-04   1.4251466e-04   1.2810212e-05  -3.7757243e-04   7.5571501e-05   9.0249465e-05   5.5893175e-05   1.5425080e-04   6.0091148e-05   5.8288922e-05  -4.9271325e-06   2.4723209e-07  -3.1011226e-05   2.2476192e-05  -4.9438713e-05  -1.4667925e-04   1.1148486e-04   1.0896676e-04   1.0020259e-04   7.4808362e-05   7.2440729e-05   1.2344550e-04   1.0349618e-04   8.4884763e-05   7.0357928e-05   4.6311769e-05   1.7099371e-04   6.3935579e-05   7.5359443e-05   1.2232592e-04   1.2551832e-04   7.0788301e-05   1.2423842e-04   2.0337373e-04   1.1487011e-04   8.1041013e-05   1.9594628e-04   2.3699293e-05   2.5065010e-05   3.7658310e-06   8.2249906e-05   1.4743666e-04   6.5640532e-05   8.7774672e-05
   2.4208488e-04   1.1089419e-04   2.0373834e-04   1.5906004e-04   1.3453752e-04   2.0815026e-04   2.0056064e-04   1.4766390e-04  -1.8610544e-05  -3.8116160e-04   6.3652187e-05   9.1523776e-05   5.2131556e-05   1.5458983e-04   7.0478753e-05   5.5219916e-05  -1.2846795e-05  -2.1898234e-06  -5.7620029e-05   1.8050479e-05  -7.4928452e-05  -1.3571209e-04   9.8948360e-05   1.2459567e-04   8.9456371e-05   7.5440228e-05   7.5862416e-05   1.1967905e-04   1.2449060e-04   7.6754317e-05   6.7389185e-05   2.8777900e-05   1.6899715e-04   7.1495415e-05   7.4148782e-05   1.2100072e-04   1.2341027e-04   8.1986407e-05   1.2132212e-04   1.8951378e-04   1.2655769e-04   1.1959424e-04   1.9580714e-04   3.8367281e-05   5.4972414e-05   1.0743908e-05   8.0444217e-05   2.1077307e-04   6.6331922e-05   1.0981206e-04
   2.5742012e-04   1.3418324e-04   2.2644973e-04   1.8166883e-04   1.2858964e-04   2.0921431e-04   1.9691096e-04   1.2998609e-04  -1.5781341e-05  -3.5894680e-04   6.4036518e-05   1.2228233e-04   5.0989987e-05   1.4937720e-04   6.8285881e-05   5.3509913e-05  -1.3081181e-05  -5.1731936e-06  -2.9080082e-05  -9.4999923e-06  -5.7373996e-05  -1.3019796e-04   1.2147438e-04   9.8663368e-05   9.9328485e-05   9.3026611e-05   6.3648600e-05   1.4596854e-04   1.3779443e-04   8.0383747e-05   7.6229953e-05   3.6631485e-05   1.7678137e-04   7.6311393e-05   7.6463104e-05   1.3305295e-04   1.2049150e-04   1.0159439e-04   1.3171727e-04   2.1582453e-04   1.4360038e-04   7.4808304e-05   2.3759935e-04   2.7591823e-05   2.9938046e-06   3.1769468e-05   6.9689231e-05   1.8972367e-04   5.2281863e-05   1.2410387e-04
   2.4569768e-04   1.1217885e-04   2.1393251e-04   1.7278713e-04   1.2173980e-04   1.9935222e-04   1.9797201e-04   1.3418184e-04   1.9472916e-05  -3.6599353e-04   8.0007099e-05   1.0355131e-04   5.1704144e-05   1.5325804e-04   7.6481330e-05   4.9256607e-05  -1.2064410e-05  -2.2002528e-06  -2.2178518e-05   3.6466063e-05  -8.4981897e-05  -1.3573653e-04   1.2576023e-04   1.1863704e-04   9.9197496e-05   7.3865536e-05   7.0827933e-05   1.2819507e-04   9.9905366e-05   9.0306552e-05   7.4146119e-05   4.1617448e-05   1.5393324e-04   7.3119467e-05   7.7016368e-05   1.1440297e-04   1.2916699e-04   9.3199757e-05   1.2449363e-04   2.0392775e-04   1.2721395e-04   9.7448064e-05   1.8397844e-04   3.0007723e-05   4.6878838e-05   2.1878630e-05   9.2556678e-05   1.5654159e-04   1.0789195e-04   9.9580349e-05
   1.9011245e-04   9.9225646e-05   1.9973818e-04   1.5921751e-04   1.2750296e-04   1.9929348e-04   1.9159347e-04   1.3172212e-04  -2.1024603e-05  -3.6664808e-04   5.5278604e-05   1.0525253e-04   4.8963881e-05   1.5133627e-04   6.3442494e-05   4.6552370e-05  -1.9392450e-05   8.5547244e-06  -1.9370438e-05  -3.8877474e-06  -5.3666055e-05  -1.1692243e-04   1.3165646e-04   1.0969459e-04   1.0464085e-04   1.0605135e-04   4.7950685e-05   1.2669624e-04   9.9877951e-05   8.9937275e-05   8.3026047e-05   2.6791196e-05   2.2512021e-04   8.7068627e-05   7.2309937e-05   1.2805767e-04   1.3247531e-04   8.7522967e-05   1.2095053e-04   2.2512698e-04   1.4074401e-04   1.1070981e-04   2.0933629e-04   4.7188874e-05   5.5254550e-05   4.9950249e-05   6.8984424e-05   1.7894529e-04   9.7990778e-05   1.0117032e-04
   2.0149605e-04   1.2210548e-04   2.2220954e-04   1.7927152e-04   1.1387035e-04   1.9876489e-04   1.9133200e-04   1.2199181e-04   9.4659745e-06  -3.4880979e-04   6.8421221e-05   1.1948588e-04   5.3385989e-05   1.5292308e-04   7.4543503e-05   4.1736392e-05  -1.8425342e-05  -3.4613731e-06  -1.2349497e-05  -2.1998869e-06  -5.0067978e-05  -8.8390065e-05   1.2579275e-04   1.0897525e-04   1.1970784e-04   1.0838437e-04   4.4136210e-05   1.4030040e-04   8.7048284e-05   7.8467070e-05   8.1689439e-05   3.3709985e-05   1.6553217e-04   7.6989214e-05   7.0287977e-05   1.2143318e-04   1.2047029e-04   8.5154723e-05   1.2209972e-04   2.0116269e-04   1.2169345e-04   9.6788746e-05   1.6289650e-04   3.0590913e-05   5.2926058e-05   4.4630178e-05   8.9301633e-05   2.1791986e-04   7.5990014e-05   1.0460697e-04
   1.8702484e-04   8.7962064e-05   2.0881160e-04   1.6742850e-04   1.1749216e-04   1.9345888e-04   1.8623860e-04   1.2740602e-04  -3.2787062e-05  -3.4785247e-04   4.9020426e-05   1.0657634e-04   5.3965836e-05   1.4315078e-04   7.4651580e-05   5.2232015e-05  -4.8696611e-06   6.7711394e-06  -3.2081629e-05   2.1252040e-06  -7.7070275e-05  -1.1690815e-04   1.3112792e-04   9.5901392e-05   9.6523399e-05   6.5028893e-05   4.8024755e-05   1.3793532e-04   1.1090068e-04   8.7934066e-05   7.4541073e-05   4.1934563e-05   1.7875466e-04   8.3777311e-05   7.3761752e-05   8.8643836e-05   1.1548736e-04   8.3859923e-05   1.2416743e-04   1.8923105e-04   1.1477186e-04   1.1683365e-05   1.9459146e-04   3.4749217e-05   7.7892881e-05   3.3262317e-05   7.2026764e-05   1.7718843e-04   1.5821240e-04   7.4796109e-05
   1.6100454e-04   6.9104266e-05   1.8557701e-04   1.4811645e-04   1.1833131e-04   1.8478096e-04   1.7938601e-04   1.3596995e-04  -3.4053963e-05  -3.4159518e-04   3.2914832e-05   1.1129817e-04   5.9380407e-05   1.5615625e-04   5.5349425e-05   5.7827983e-05  -1.7074393e-05   5.4837747e-06  -1.5814534e-05   4.0963937e-06  -3.3470576e-05  -7.2337323e-05   1.1028691e-04   1.3002459e-04   1.2509472e-04   9.0650443e-05   5.2960138e-05   1.1982567e-04   8.9461442e-05   6.8448870e-05   7.1743183e-05   2.6281014e-05   1.7247196e-04   7.7094279e-05   6.8373869e-05   1.0665015e-04   1.1987864e-04   8.5435815e-05   1.2669565e-04   1.9049643e-04   1.2275190e-04   7.5840275e-05   1.8934518e-04   4.6671841e-05   8.1699465e-05   3.9244354e-05   8.4416504e-05   1.4983113e-04   6.7508758e-05   9.4636554e-05
   1.8906947e-04   8.4775900e-05   2.1819856e-04   1.7903867e-04   1.0972679e-04   1.8872392e-04   1.7888728e-04   1.1510754e-04  -2.4738660e-05  -3.2212041e-04   4.5429766e-05   1.2747044e-04   6.3387088e-05   1.4142136e-04   7.0108603e-05   5.1569416e-05  -5.0076719e-06   6.3584193e-06  -5.4669322e-06   3.1680258e-05  -3.4174845e-05  -7.4192481e-05   1.0807169e-04   8.8057954e-05   1.0860944e-04   8.8985951e-05   5.4290304e-05   1.1654660e-04   6.4590582e-05   6.3404754e-05   7.2077710e-05   3.1279247e-05   1.7239830e-04   7.4647331e-05   6.3577550e-05   1.0779595e-04   1.1128474e-04   7.9125850e-05   1.1401451e-04   1.8403865e-04   1.0465468e-04   7.7962184e-05   2.0335353e-04   3.4105949e-05   9.2594972e-05   4.7968741e-05   8.5849126e-05   1.2423804e-04   1.3883768e-04   6.7357490e-05
   1.7787130e-04   9.5095886e-05   2.0119803e-04   1.6356858e-04   1.1007664e-04   1.7361958e-04   1.6628586e-04   1.2913921e-04  -3.7015757e-06  -3.1985968e-04   5.4160293e-05   1.2052397e-04   7.0265291e-05   1.5921224e-04   6.4338332e-05   5.9909133e-05   7.1016088e-06   2.0121928e-05  -3.9736824e-05   2.1002630e-05  -3.8908798e-05  -6.9620648e-05   9.8756565e-05   1.1668517e-04   8.0169280e-05   6.6167311e-05   5.6548604e-05   1.1710598e-04   8.7508226e-05   6.1672828e-05   6.7321605e-05   3.3983411e-05   1.9262027e-04   7.2186594e-05   6.0510534e-05   1.0938389e-04   1.0629222e-04   8.0517908e-05   1.1986170e-04   1.7212851e-04   9.7022647e-05   6.1941057e-05   1.5992763e-04   3.3191674e-05   7.7333360e-05   3.8528229e-05   5.9253074e-05   1.1633855e-04   8.8073080e-05   8.1908074e-05
   1.5881070e-04   5.0357536e-05   1.8354190e-04   1.4649368e-04   1.1819310e-04   1.7333926e-04   1.6536633e-04   1.2352812e-04  -2.9232851e-05  -3.1284607e-04   3.8028553e-05   1.1367599e-04   6.7222965e-05   1.5087603e-04   5.6049692e-05   7.3287432e-05   1.5448953e-05   2.4903246e-05  -3.9470880e-05  -1.4151133e-08  -2.7935637e-05  -8.0202975e-05   9.5590083e-05   1.3703616e-04   7.0582006e-05   4.7316455e-05   6.0937266e-05   1.1606642e-04   9.2100934e-05   6.7529501e-05   5.6736957e-05   4.2551430e-05   1.5910095e-04   5.5949167e-05   5.4506527e-05   1.0566312e-04   1.0539388e-04   6.6404122e-05   1.1363762e-04   1.5880760e-04   9.9857774e-05   7.3567171e-05   1.5261193e-04   3.1004125e-05   7.9233221e-05   6.1190723e-05   7.9423124e-05   1.2572997e-04   1.2929288e-04   6.2666884e-05
   1.7871015e-04   8.0467667e-05   2.0843789e-04   1.7367696e-04   1.1004926e-04   1.7714137e-04   1.6764067e-04   1.2696801e-04   2.0017344e-05  -2.9397436e-04   6.1460705e-05   1.3956186e-04   7.4981930e-05   1.5472394e-04   6.3804262e-05   5.6532659e-05   8.0642994e-06   1.4596308e-05  -1.1939062e-05   2.8041000e-05  -2.0048181e-05  -3.2442826e-05   9.4071584e-05   1.2158029e-04   1.1487666e-04   8.3678744e-05   4.9430761e-05   9.3948423e-05   7.0501643e-05   5.6968471e-05   6.9719361e-05   2.4644432e-05   1.8848531e-04   8.0771875e-05   6.5432047e-05   1.2072005e-04   9.9052857e-05   7.7444267e-05   1.1166201e-04   1.3475688e-04   8.7949331e-05   6.3049498e-05   1.1168449e-04   2.4392975e-05   7.3570875e-05   4.0066545e-05   7.6416502e-05   8.4807114e-05   7.6678691e-05   4.1861771e-05
   1.6553118e-04   6.9652502e-05   1.9934570e-04   1.6580222e-04   1.0924417e-04   1.6731456e-04   1.6530001e-04   1.2911757e-04   3.0806401e-05  -2.9499424e-04   7.1182723e-05   1.3181895e-04   7.7253317e-05   1.6165659e-04   6.3915992e-05   6.6043278e-05   1.6334849e-05   2.1250806e-05  -1.1951307e-05   3.4897352e-05  -3.8707665e-05  -4.7920974e-05   1.0573999e-04   1.2177166e-04   8.5930486e-05   6.5221328e-05   4.7184945e-05   1.0344749e-04   8.5426793e-05   6.0626138e-05   6.6828572e-05   2.7810427e-05   1.8207841e-04   6.4377382e-05   6.8987531e-05   1.0755516e-04   9.4459392e-05   6.9223483e-05   1.1109166e-04   1.3314771e-04   8.4372099e-05   9.5015195e-05   1.2032737e-04   3.2680582e-05   1.1496539e-04   2.0444037e-05   6.3567772e-05   1.4471311e-04   7.9642450e-05   5.9493501e-05
   1.5323688e-04   6.2144420e-05   1.7772593e-04   1.4902835e-04   1.1552880e-04   1.6385032e-04   1.6498260e-04   1.2591414e-04   1.5146301e-05  -2.9330197e-04   5.4600183e-05   1.2398524e-04   7.6088749e-05   1.4594365e-04   4.9483431e-05   7.4981952e-05   3.0631942e-05   2.4074516e-05  -3.5019060e-05   3.5524055e-05  -4.3400723e-05  -7.0921342e-05   9.2285030e-05   1.4973925e-04   6.0400784e-05   2.6124382e-05   5.9549264e-05   8.7576511e-05   1.0097741e-04   5.3204145e-05   6.0773815e-05   3.1381009e-05   1.7906485e-04   6.2792475e-05   5.9900427e-05   7.9130223e-05   9.6664669e-05   6.7365712e-05   1.1324944e-04   1.4266680e-04   6.4053573e-05   1.1628048e-04   1.3762909e-04   2.9509403e-05   1.2022039e-04   4.4219301e-05   6.8661160e-05   1.3968536e-04   6.3400839e-05   4.3888034e-05
   1.3399660e-04   3.0317555e-05   1.8446367e-04   1.4247725e-04   1.1871229e-04   1.6506459e-04   1.6730952e-04   1.4279770e-04   1.3014484e-05  -2.7512605e-04   4.6781253e-05   1.4175398e-04   7.4035663e-05   1.5097676e-04   5.4318592e-05   6.4546133e-05   1.5007290e-05   1.8157491e-05  -1.2415061e-05   2.0673535e-05  -1.6804001e-05  -3.9308885e-05   9.4805495e-05   1.0586575e-04   8.8483073e-05   6.8146976e-05   4.4467757e-05   9.6236676e-05   5.9840753e-05   5.1504638e-05   5.9641938e-05   4.1181454e-05   1.9066223e-04   7.7417477e-05   5.7441721e-05   1.0942332e-04   1.0392198e-04   7.2712523e-05   1.2688634e-04   1.4651394e-04   9.1195034e-05   1.3981231e-04   1.4473470e-04   3.9591636e-05   1.2554793e-04   4.6848345e-05   5.2224379e-05   1.6097193e-04   8.8759385e-05   5.4083153e-05
   1.5520565e-04   6.1998886e-05   1.9421772e-04   1.6070243e-04   1.1038726e-04   1.6373504e-04   1.6577946e-04   1.1837664e-04   1.0661813e-05  -2.6810972e-04   4.9428603e-05   1.3783092e-04   7.0347305e-05   1.5472925e-04   5.2906227e-05   6.4275540e-05   1.1597985e-05   2.2788874e-05  -3.5600449e-06   1.0265526e-05  -1.2349054e-05  -3.8947881e-05   9.5284617e-05   1.0348069e-04   1.1476253e-04   5.7262401e-05   4.6940339e-05   8.4581639e-05   7.4095857e-05   5.3467011e-05   6.6974419e-05   4.1692660e-05   1.7645405e-04   8.1951039e-05   5.6024961e-05   9.5001538e-05   8.8341658e-05   6.8578287e-05   1.0214590e-04   1.4984737e-04   8.3136671e-05   1.0505788e-04   1.7504055e-04   2.7472026e-05   1.2942191e-04   5.5105353e-05   8.1410697e-05   1.0488646e-04   1.5221519e-04   7.5184784e-05
   1.4006729e-04   5.1647188e-05   1.7813580e-04   1.4910610e-04   1.1117108e-04   1.6495964e-04   1.6008630e-04   1.1675918e-04   2.6000321e-06  -2.6394869e-04   4.4092460e-05   1.2946918e-04   6.1274848e-05   1.3650369e-04   5.4391541e-05   7.0673741e-05   2.0035386e-05   1.8232395e-05  -2.5409632e-05   4.8840600e-05  -3.4023873e-05  -5.6347733e-05   8.7870736e-05   1.0711872e-04   8.6554966e-05   3.8020466e-05   5.3996380e-05   8.8764798e-05   1.1802724e-04   5.4237746e-05   7.2289447e-05   3.2296095e-05   1.9277779e-04   5.5082022e-05   4.8743499e-05   9.1231850e-05   9.5952251e-05   7.6077718e-05   1.1828009e-04   1.4373609e-04   7.8137804e-05   1.4038839e-04   1.3268947e-04   3.9056358e-05   1.5904252e-04   3.9954266e-05   5.3117634e-05   1.5187346e-04   1.3713998e-04   6.2433050e-05
   1.3907829e-04   5.9507976e-05   1.9245358e-04   1.4982665e-04   1.1091067e-04   1.6327048e-04   1.6438273e-04   1.2362961e-04   2.9555229e-06  -2.5165756e-04   3.5757028e-05   1.5058018e-04   6.1190876e-05   1.3893223e-04   5.2267103e-05   5.0994724e-05   7.0430992e-06   1.1810250e-05   2.0084810e-06   3.7193353e-05  -2.0111222e-05  -3.0778519e-05   9.5263575e-05   8.5646185e-05   9.8549128e-05   6.5899469e-05   4.3680557e-05   9.0084948e-05   6.3543790e-05   4.7533009e-05   5.9999675e-05   3.2702344e-05   1.7969798e-04   7.4744727e-05   5.7558889e-05   1.0851870e-04   8.6462744e-05   7.4035088e-05   1.1439998e-04   1.5547079e-04   8.1283135e-05   1.3428803e-04   1.7069945e-04   4.3504049e-05   1.5000404e-04   4.3845241e-05   7.1578608e-05   1.3005715e-04   1.1796050e-04   5.0366431e-05
   1.4323861e-04   7.4501433e-05   1.8944596e-04   1.5975119e-04   1.0276828e-04   1.5690879e-04   1.5994388e-04   1.0323155e-04  -1.1180189e-06  -2.4108743e-04   3.6488011e-05   1.5473792e-04   5.6431043e-05   1.2693090e-04   5.0861250e-05   5.1825642e-05   1.5153015e-05   3.9711705e-07   6.0464248e-07   3.5585486e-05   5.7256801e-07  -3.9101778e-05   9.6294068e-05   1.0478563e-04   9.1489012e-05   6.4708904e-05   4.6383197e-05   9.6827229e-05   6.1541446e-05   4.6716217e-05   7.0351933e-05   2.3595006e-05   1.6183121e-04   6.6096189e-05   4.8425067e-05   8.4971798e-05   9.1842427e-05   7.0118876e-05   1.1245593e-04   1.5452401e-04   8.4801417e-05   1.3643807e-04   1.8667169e-04   4.2214593e-05   1.8283259e-04   6.0007234e-05   7.8878598e-05   1.6893123e-04   1.1992041e-04   9.4913637e-05
   1.2672230e-04   4.0437561e-05   1.7138335e-04   1.4328116e-04   1.0460141e-04   1.5960542e-04   1.5433603e-04   1.1405604e-04  -1.8016364e-05  -2.4468391e-04   3.9515980e-05   1.4880013e-04   4.9823044e-05   1.3076935e-04   3.7554302e-05   5.7232373e-05   1.2591438e-05   6.4336414e-06  -2.5997408e-05   4.7075591e-05  -1.1581364e-05  -6.2745799e-05   7.7028773e-05   9.3231341e-05   6.3798892e-05   4.0012841e-05   4.0223811e-05   8.6622553e-05   5.5634289e-05   4.3893288e-05   5.8257177e-05   3.0574734e-05   1.3317801e-04   4.6311729e-05   3.9498023e-05   9.5833064e-05   9.1763657e-05   5.3044027e-05   1.0513172e-04   1.3870193e-04   1.1025927e-04   1.6747114e-04   1.5913826e-04   4.4615765e-05   2.2993352e-04   5.5611639e-05   9.0776659e-05   1.1837301e-04   1.5886751e-04   1.0194827e-04
   1.4850685e-04   6.9169335e-05   1.9389100e-04   1.6862308e-04   9.9314508e-05   1.5578810e-04   1.5832538e-04   1.1013737e-04   3.7360234e-05  -2.1711567e-04   5.1382081e-05   1.7135180e-04   5.2800831e-05   1.3230648e-04   5.2487641e-05   4.1556370e-05   5.1031720e-06   1.2006266e-05   3.1851843e-05   4.6539619e-05   1.1571939e-05  -1.5235541e-05   9.2996233e-05   1.2545593e-04   8.5817555e-05   6.0530332e-05   3.4957135e-05   8.5151129e-05   6.6134002e-05   4.1783213e-05   6.2358908e-05   3.0494533e-05   1.7926283e-04   7.5198528e-05   3.9081471e-05   9.2449845e-05   7.4646676e-05   5.6357141e-05   1.0910432e-04   1.3990818e-04   8.8410139e-05   1.6069520e-04   1.5756233e-04   2.4831797e-05   2.2394750e-04   3.1860705e-05   6.5699533e-05   1.4893676e-04   1.3716711e-04   6.2692488e-05
   1.3713304e-04   6.7336077e-05   1.8615041e-04   1.5972053e-04   9.6076015e-05   1.5097273e-04   1.5167291e-04   1.0741110e-04  -6.1258002e-06  -2.1291792e-04   4.5952336e-05   1.6593019e-04   4.6950146e-05   1.2413890e-04   4.2913223e-05   4.7755588e-05   7.8355461e-06   3.3653589e-06  -1.6805046e-05   3.0310899e-05  -6.9301750e-06  -2.7482454e-05   8.0908263e-05   1.0844752e-04   8.7374683e-05   4.7563477e-05   3.4773864e-05   8.7110697e-05   8.6984408e-05   3.7497914e-05   6.5349748e-05   3.8473972e-05   1.8169801e-04   6.3711654e-05   4.5958837e-05   1.0430157e-04   8.4421379e-05   6.2295680e-05   1.0173651e-04   1.0965377e-04   7.6784163e-05   9.9036384e-05   1.4175044e-04   1.8707231e-05   2.0334123e-04   3.6193564e-05   8.3320061e-05   1.0511861e-04   2.0151823e-04   6.7974674e-05
   1.1782813e-04   2.6424703e-05   1.6706219e-04   1.3888179e-04   1.0121551e-04   1.4447408e-04   1.5175760e-04   1.1289855e-04  -7.0400301e-06  -2.1216729e-04   3.0601106e-05   1.5418435e-04   3.8440714e-05   1.2218830e-04   3.5831203e-05   5.1982839e-05   1.3445327e-05   1.2355355e-05  -2.4453870e-05   4.1455471e-05  -4.9953400e-05  -4.6047055e-05   7.2501767e-05   1.1350222e-04   5.6403434e-05   1.7050810e-05   3.0018138e-05   8.4380976e-05   5.6486257e-05   4.1155490e-05   5.7904705e-05   2.6677921e-05   1.8186658e-04   4.8607595e-05   3.8035032e-05   7.8590783e-05   8.1436694e-05   4.9265527e-05   1.0703974e-04   1.1217090e-04   8.6692940e-05   1.5489465e-04   1.5857739e-04   2.9288307e-05   2.3937224e-04   2.8208746e-05   7.2849565e-05   9.6604730e-05   1.1679422e-04   8.4207808e-05
   1.4133584e-04   5.5226941e-05   1.9453857e-04   1.6333537e-04   9.8411459e-05   1.5700822e-04   1.6487930e-04   9.1586582e-05   1.0403310e-05  -1.9235816e-04   4.1934458e-05   1.8121520e-04   3.6877256e-05   1.1675747e-04   4.8909886e-05   3.9746221e-05  -5.4845195e-06  -3.3408838e-08   2.3077764e-05   2.0747020e-05   1.6622924e-05  -2.1645805e-05   8.2594561e-05   1.1752227e-04   1.0788842e-04   5.7533973e-05   2.4044719e-05   8.1016202e-05   7.0245820e-05   3.5179411e-05   6.6862551e-05   2.4540426e-05   1.9758496e-04   7.8413519e-05   4.5633922e-05   7.9288249e-05   8.0992744e-05   6.3835490e-05   8.8661378e-05   1.2835614e-04   9.4288582e-05   1.2178539e-04   1.1480208e-04   3.1330565e-05   1.6497157e-04   6.2052961e-05   6.6140026e-05   6.2416046e-05   1.3773928e-04   5.4254979e-05
   1.3408682e-04   6.5279790e-05   1.9050515e-04   1.5580535e-04   9.0994879e-05   1.5864598e-04   1.5515437e-04   9.4293297e-05  -5.1078632e-07  -1.8870622e-04   3.5792484e-05   1.7657064e-04   2.5577132e-05   1.1168551e-04   3.9674662e-05   3.8268441e-05   5.5524822e-07   5.6152339e-06  -7.7042705e-06   2.9871460e-05   1.7611970e-05  -4.1827203e-05   8.5939835e-05   6.2617779e-05   8.4413696e-05   4.8777012e-05   2.2493474e-05   8.9822970e-05   5.1485240e-05   4.1214902e-05   7.1750233e-05   1.7031243e-05   1.8791674e-04   6.2565552e-05   4.4951561e-05   7.6532757e-05   8.2689861e-05   6.3754014e-05   8.6591041e-05   1.3634434e-04   8.3273779e-05   1.2222267e-04   1.4030423e-04   2.6367652e-05   1.3080746e-04   3.2980392e-05   5.9318241e-05   1.4800442e-04   9.2889954e-05   1.0994916e-04
   1.1803069e-04   3.7892703e-05   1.7027384e-04   1.3873819e-04   9.6407872e-05   1.4494108e-04   1.4585412e-04   1.0187514e-04  -2.6539004e-05  -1.8264342e-04   2.5016239e-05   1.6588101e-04   2.3159513e-05   1.0543567e-04   3.2772681e-05   4.2742238e-05  -7.1619564e-07   1.1691707e-05  -4.8142712e-05   2.7490689e-05  -2.5126898e-05  -5.4614873e-05   6.5864260e-05   8.7962449e-05   7.7452671e-05   2.1301183e-05   2.1480379e-05   7.5964752e-05   6.1894913e-05   4.6252640e-05   6.7093562e-05   1.9910420e-05   1.8119151e-04   5.6336914e-05   3.4581841e-05   7.6454031e-05   8.2206156e-05   5.1449017e-05   9.3379662e-05   1.1641302e-04   7.9299767e-05   1.4771297e-04   1.1371257e-04   1.0848682e-05   1.5253111e-04   4.7322585e-05   7.2679759e-05   1.2399988e-04   1.0690066e-04   7.0107919e-05
   1.0135721e-04   2.8062227e-06   1.4934849e-04   1.2034929e-04   1.0272517e-04   1.4005747e-04   1.4846276e-04   9.7472315e-05  -3.6497349e-05  -1.7461799e-04   2.5268791e-05   1.5738934e-04   1.5552077e-05   9.2714406e-05   1.5418062e-05   4.8111007e-05   1.5816697e-06   3.9245242e-06  -4.9294180e-05   3.1246932e-06  -2.9583740e-05  -6.8886635e-05   5.7185698e-05   9.3973729e-05   3.1657011e-05  -1.6546552e-06   3.4676257e-05   9.3738883e-05   7.1312039e-05   4.8884303e-05   5.6588455e-05   2.9943358e-05   1.4537993e-04   2.6094902e-05   3.7706835e-05   7.9287660e-05   8.3743194e-05   4.4651952e-05   9.2691502e-05   9.6812721e-05   7.1384071e-05   1.5507519e-04   1.2593364e-04   2.0463031e-05   1.5353369e-04   5.4391363e-05   7.0178176e-05   1.0930028e-04   1.2261876e-04   5.2410087e-05
   1.3085229e-04   4.0135968e-05   1.8696106e-04   1.5724328e-04   9.8408855e-05   1.4433755e-04   1.5172300e-04   1.0210594e-04   3.0739691e-05  -1.5363743e-04   4.1591706e-05   1.8046939e-04   1.8410034e-05   1.0240336e-04   3.4527697e-05   3.3796605e-05  -1.4875442e-05  -4.0864520e-06  -5.1840952e-06  -1.7037659e-06   3.1306758e-05  -7.8993735e-06   6.6192282e-05   1.0422289e-04   8.5863918e-05   3.2734129e-05   2.3167822e-05   7.6252385e-05   4.9762530e-05   3.0121570e-05   5.4831147e-05   1.5419082e-05   1.7690046e-04   5.4991091e-05   3.8487826e-05   7.7971017e-05   8.2889688e-05   4.0648512e-05   8.0174839e-05   1.2174206e-04   8.6873246e-05   1.5045518e-04   1.1204618e-04   1.9881823e-05   1.3815990e-04   9.9702556e-06   9.6230979e-05   8.3160427e-05   9.5279065e-05   4.1831878e-05
   1.2342309e-04   5.5596829e-05   1.7849647e-04   1.4842977e-04   8.9488625e-05   1.3750227e-04   1.4884790e-04   9.8068551e-05   2.3502862e-05  -1.5235621e-04   4.7318448e-05   1.7575100e-04   1.5380452e-05   1.0210722e-04   3.4845041e-05   3.4781846e-05  -1.2806212e-05  -5.8433802e-06  -1.0833941e-05   1.2855572e-05  -1.3273902e-05  -1.1722712e-05   5.2558647e-05   1.1724627e-04   7.2462251e-05   2.9024370e-05   3.0355484e-06   7.6279059e-05   4.7887832e-05   2.4221241e-05   4.5209388e-05   1.4407934e-05   1.7018001e-04   5.6192548e-05   3.0742220e-05   7.8509962e-05   6.6895824e-05   4.0366478e-05   7.3204101e-05   1.1066232e-04   6.5939654e-05   1.4666759e-04   6.4865504e-05   1.4369107e-05   1.1764211e-04  -1.0518295e-05   8.2629638e-05   1.5073849e-04   1.0534619e-04   2.2670256e-05
   1.0337910e-04   1.9679082e-05   1.6083558e-04   1.2881232e-04   9.7467622e-05   1.2747396e-04   1.4394615e-04   9.4739858e-05   9.9108402e-06  -1.5528491e-04   3.4103508e-05   1.6646784e-04   8.7024664e-06   9.7377997e-05   1.7281136e-05   3.9436040e-05  -4.9407618e-06  -2.0622572e-06  -5.2788859e-05   7.1642276e-06  -4.7161666e-06  -3.5282806e-05   4.6603480e-05   9.2018388e-05   4.7297432e-05  -4.9859341e-06   1.2913472e-06   6.5244036e-05   5.5732442e-05   2.9734221e-05   4.7969388e-05   1.5740159e-05   1.7481604e-04   3.9728882e-05   2.3740689e-05   7.5242198e-05   7.0018978e-05   4.3425309e-05   7.9344478e-05   9.9193043e-05   5.4054006e-05   1.5465113e-04   1.1178436e-04   7.1676222e-06   1.5724370e-04   2.5717842e-05   7.5699245e-05   1.0874563e-04   6.7396075e-05   1.2173959e-05
   1.1977709e-04   4.2778283e-05   1.8367253e-04   1.3991738e-04   9.1496309e-05   1.3738194e-04   1.4069305e-04   9.5417941e-05   1.6296055e-05  -1.3998385e-04   2.4374358e-05   1.7769780e-04   1.0115856e-05   8.8532892e-05   7.5743196e-06   2.4970817e-05  -2.0925972e-05  -1.7343862e-05  -2.3921742e-05   4.9919421e-05   3.1774802e-05  -4.1941435e-06   5.1673287e-05   9.6372743e-05   7.4091578e-05   3.6723610e-05   1.6069996e-06   6.9677073e-05   4.9459024e-05   2.8614084e-05   4.6909703e-05   1.9570196e-05   1.7099397e-04   4.9667397e-05   3.0363803e-05   6.0431972e-05   5.9605271e-05   5.3081774e-05   7.7358287e-05   9.9496967e-05   5.8975940e-05   2.0096620e-04   1.1350674e-04   1.8667894e-05   1.0747051e-04   1.9691022e-05   7.9544894e-05   1.0562508e-04   4.7183483e-05   1.4520669e-05
   1.1234511e-04   4.5576024e-05   1.7027704e-04   1.3818200e-04   9.1621150e-05   1.2395714e-04   1.3686821e-04   9.8476943e-05   3.4220211e-05  -1.3641777e-04   3.5531837e-05   1.7561777e-04   6.5107242e-06   8.7224253e-05   1.8770055e-05   2.4133802e-05  -2.3674458e-05  -1.8401723e-05  -1.5978907e-05   3.5133442e-06  -2.3786413e-06   4.7182448e-06   4.3430387e-05   1.0565224e-04   6.7550784e-05   1.2725500e-05   1.5794652e-05   5.9790265e-05   2.3243369e-06   2.5220479e-05   3.2055836e-05   9.7669972e-06   1.9481232e-04   4.9541297e-05   2.7205366e-05   8.1827784e-05   6.0591479e-05   3.8493723e-05   7.2439718e-05   1.0331726e-04   5.8863170e-05   1.7703710e-04   7.5658420e-05   1.9886424e-05   1.2179532e-04   1.3611279e-06   5.3594864e-05   5.1820662e-05   9.6332529e-05   4.4114135e-05
   9.1634553e-05   3.0919149e-05   1.5374606e-04   1.2026896e-04   9.1549155e-05   1.1632498e-04   1.2697997e-04   1.0148463e-04   4.4885469e-06  -1.4150217e-04   2.6783460e-05   1.5975630e-04   2.1076507e-06   7.7049044e-05   6.3926154e-06   2.9751887e-05  -1.8391567e-05  -1.2392608e-05  -3.8000348e-05  -1.9587803e-06  -6.7992428e-06  -2.1203077e-05   4.2417301e-05   1.3344512e-04   4.1449694e-05   2.5954355e-07   1.3621640e-05   5.0141829e-05   2.9736975e-05   2.6433068e-05   3.8135760e-05   1.3580309e-05   1.1806911e-04   3.5070811e-05   2.1303989e-05   6.8131470e-05   6.7831585e-05   2.3589442e-05   7.8872370e-05   1.0276520e-04   5.5393659e-05   1.3603135e-04   4.9029397e-05   2.8831635e-05   9.1052636e-05   2.8085906e-05   8.2945655e-05   1.0439884e-04   4.1738364e-05   2.0832424e-05
