   2.0550327e-04   1.6857013e-04   1.9287050e-04   1.4807125e-04   1.3490196e-04   3.0263315e-04   1.7082947e-04   2.6368280e-05  -1.4856999e-05   1.9554560e-04   2.8935041e-05  -1.8318755e-05   1.6298161e-04  -1.5739197e-05   1.6317454e-04   3.0915708e-05  -3.2815096e-05  -4.4928136e-04   2.8555733e-04   5.4344699e-05   1.9470614e-04   1.1414543e-04  -3.0930264e-06  -5.9459312e-04  -2.4662653e-04  -4.4857341e-04  -3.6662625e-04   1.2418284e-04   2.3133022e-04   1.5354685e-04  -1.5472271e-04  -1.1071823e-04   2.7417787e-04  -7.3854462e-05  -2.9106945e-04  -6.8732688e-06   1.3945840e-04  -1.7992534e-04   2.1880674e-04   2.6394043e-04  -1.8991782e-04   1.8135037e-05  -3.3019175e-04  -4.1888867e-05  -1.9271903e-04  -3.3555454e-05   7.6435704e-04  -1.2419834e-04   3.1235395e-04  -1.0486763e-04
   2.0428729e-04   1.6127994e-04   1.6536043e-04   1.4221105e-04   9.9772660e-05   3.0350112e-04   1.3198600e-04   5.1992014e-05  -1.5601503e-04   1.5877582e-04   2.4010937e-05  -4.4227101e-05   1.4046983e-04  -2.2027110e-05   1.6821294e-04   3.2376072e-05  -2.8983848e-05  -4.4402093e-04   2.0990090e-04   4.4848086e-05   1.6872784e-04   1.2946904e-04  -2.2463702e-05  -4.3230806e-04  -2.9929128e-04  -4.8691078e-04  -3.9670954e-04   1.3283783e-04   2.2356761e-04   1.4363666e-04  -1.4078573e-04  -1.9311270e-04  -1.1166985e-04  -1.1599370e-04  -2.8558972e-04  -6.2464715e-05   1.4638444e-04  -1.9620081e-04   2.0026942e-04   3.0962960e-04  -2.0387692e-04   4.5808392e-05  -3.3498663e-04  -6.9067098e-04  -4.6264111e-05  -4.0694853e-05   1.0380573e-03  -1.5514657e-04   2.9986061e-04  -7.1120085e-05
   1.9292891e-04   1.5406623e-04   1.5954714e-04   1.4100022e-04   1.1279843e-04   3.0354527e-04   1.1096706e-04   2.3682638e-05  -7.7771292e-05   1.7262191e-04  -4.6874248e-08  -9.9353667e-05   1.4539561e-04  -2.5055438e-06   1.9076909e-04   1.0449225e-05  -4.3961216e-05  -4.2972009e-04  -2.1544834e-04   5.1213327e-05   2.3450668e-04   1.4279920e-04  -3.0359253e-05  -7.6919462e-04  -2.5160477e-04  -5.1655027e-04  -4.0264943e-04   1.4420200e-04   1.8064314e-04   1.5176080e-04  -1.3023056e-04  -4.2362259e-05   9.9587873e-05  -7.4812662e-05  -2.7821967e-04  -2.7755137e-05   1.6543650e-04  -1.7758508e-04   2.0916181e-04   2.7882296e-04  -1.9666780e-04   6.5758497e-05  -3.6519815e-04  -1.8807789e-04  -2.4707595e-04   6.6591594e-05   8.1842305e-04  -1.7571956e-04   4.0852965e-04  -7.3164760e-05
   2.2024027e-04   1.6661192e-04   1.5749944e-04   1.4642066e-04   1.7703355e-04   3.0010779e-04   1.5729827e-04   9.1207097e-05   5.2720905e-05   1.5384912e-04  -7.3107990e-06  -4.1453070e-05   1.3585847e-04  -2.3061317e-05   2.2205239e-04   2.7930488e-05  -4.1305804e-05  -4.5853667e-04   6.9894653e-04   4.1011681e-05   2.1281144e-04   2.0328339e-04  -3.0083223e-05  -6.9621776e-04  -1.9605261e-04  -5.0220609e-04  -3.9050973e-04   1.1615254e-04   2.4403069e-04   1.6355484e-04  -1.5863100e-04  -1.2365905e-04   3.8785049e-05  -1.1794289e-04  -3.0016559e-04  -4.9284090e-06   1.6780842e-04  -1.8137100e-04   2.2408909e-04   2.7432592e-04  -1.7396094e-04   6.2377454e-05  -3.5072718e-04  -2.1957917e-04  -5.5835102e-05  -1.4675851e-04   8.0838526e-04  -7.1491209e-05   3.0192078e-04  -2.0141050e-04
   2.0619840e-04   1.6838982e-04   1.7196855e-04   1.4792805e-04   9.6689233e-05   3.0398869e-04   9.7577838e-05   1.1189778e-04  -1.0311686e-04   1.6806040e-04   3.8497568e-05  -3.2267344e-05   1.2430247e-04   9.3232193e-06   1.7141365e-04   4.2994852e-06  -4.1247135e-05  -4.5714594e-04   1.7888307e-04   7.5139775e-05   1.9149193e-04   1.9978760e-04  -4.9339142e-06  -4.6605681e-04  -2.6033344e-04  -4.8626232e-04  -3.9794933e-04   7.9556266e-05   1.6348669e-04   1.4933494e-04  -2.5008313e-04  -1.2559451e-04  -1.6521061e-04   1.1266337e-04  -2.7606453e-04   2.1123353e-05   1.1017550e-04  -1.8900201e-04   1.9965607e-04   2.3226271e-04  -1.8615437e-04   1.0210632e-04  -3.4392963e-04  -5.8296253e-04  -5.1335199e-05  -3.4920653e-05   7.6064502e-04  -9.8571749e-05   5.0344388e-04  -1.4544165e-04
   2.1728473e-04   1.7160423e-04   1.8664006e-04   1.4732557e-04   1.0606449e-04   3.0587148e-04   1.1038389e-04   1.3069659e-04  -2.0947521e-04   1.7374895e-04   1.4812657e-05  -7.0158596e-05   1.2565592e-04  -1.4044414e-05   1.7433785e-04   1.2346147e-05  -3.4181845e-05  -4.8205644e-04  -2.0460990e-04   4.4296008e-05   2.1842412e-04   2.8892080e-04  -1.4972703e-05  -3.2860582e-04  -1.7749581e-04  -4.6528724e-04  -3.9638527e-04   1.1231557e-04   1.9047901e-04   1.4461103e-04  -1.0291790e-04  -2.1590556e-04   9.7256940e-05  -1.5502803e-04  -2.8979901e-04  -3.9449507e-05   1.3126743e-04  -1.8156653e-04   1.8927228e-04   1.7571880e-04  -1.9548972e-04   3.1185409e-05  -3.5248630e-04  -4.1106294e-04  -1.7595640e-04  -1.9199126e-04   1.0192619e-03  -2.1023014e-05   2.6213890e-04  -1.7560284e-04
   1.6351715e-04   1.4667673e-04   1.0424865e-04   1.3318377e-04   1.1834029e-04   2.6030114e-04   9.0389163e-05   7.6021948e-05  -1.6299196e-04   1.6662855e-04   1.6488761e-05   7.4393669e-05   1.2331194e-04  -1.5587118e-05   1.3384147e-04  -9.8048804e-06  -5.2109313e-05  -3.6659680e-04   1.4198197e-04   8.1276085e-05   2.7223400e-04   1.0236925e-04  -1.1613450e-06  -5.4596417e-04  -2.3163829e-04  -5.0120510e-04  -3.7847538e-04   1.1029389e-04   1.5975107e-04   8.3006831e-05  -1.7032477e-04  -1.0695252e-04   7.0494243e-05  -1.5682603e-04  -3.0039312e-04   3.4871762e-05   1.2053027e-04  -1.7071715e-04   1.6346861e-04   2.9427570e-04  -1.7355169e-04   1.3461027e-04  -4.0684774e-04  -2.0121601e-04   1.1540978e-05  -1.4096964e-04   5.6293025e-04   5.6045665e-06   2.2914482e-04  -1.5740443e-04
   1.6019505e-04   1.3882884e-04   5.4825097e-05   1.2783581e-04   8.6207401e-05   2.2607790e-04   9.1598515e-05   3.7115955e-05  -1.8441193e-05   1.7488195e-04   5.4441618e-05   7.9348029e-05   1.2976801e-04  -6.0181028e-05   9.0987131e-05  -2.3547238e-05  -6.2066611e-05  -3.5958915e-04   1.1213165e-04   1.0804135e-04   2.2783231e-04   8.8549008e-05   5.0642240e-05  -4.3310507e-04  -2.8074460e-04  -4.6542755e-04  -3.6395347e-04   8.8952242e-05   5.1252300e-05  -2.8195511e-05  -2.9885239e-05  -2.2377129e-04  -1.9184992e-04  -1.1392074e-04  -2.4749563e-04   2.2977218e-05   1.1033686e-04  -1.8018376e-04   1.1560012e-04   1.5396778e-04  -1.1258414e-04   8.9169203e-05  -4.2427928e-04  -1.1058804e-04  -7.9311823e-05  -1.2491409e-04   6.7051151e-04   1.2303512e-04   1.9707608e-04   2.8727867e-05
   9.1330345e-05   1.1291401e-04   3.2581775e-05   8.8455126e-05   1.2063845e-04   1.7272579e-04   3.9307626e-05  -6.0586181e-06  -3.2272123e-04   1.7471972e-04   6.6785506e-05   3.9161132e-05   1.2374538e-04  -5.4938733e-05   4.1923828e-05  -4.4463010e-05  -3.3807657e-05  -3.9137082e-04  -8.5915970e-05   7.9710000e-05   2.8778985e-04   1.8596850e-04   2.1302149e-05  -2.1702757e-04  -1.4418756e-04  -4.1209196e-04  -3.3046788e-04   1.2638549e-05   4.2860964e-05  -8.4492181e-05  -2.3280885e-05  -1.1067364e-04   1.3549982e-04  -2.6785824e-04  -2.5206027e-04  -4.8142749e-05   2.8143388e-05  -1.8826604e-04   5.0406317e-05   4.8775928e-05  -1.3996508e-04   1.1126556e-04  -3.2451627e-04  -3.9963613e-04  -1.2279637e-05  -6.2351690e-05   6.3629349e-04   7.5010380e-06   2.2849334e-04   1.0848737e-04
   7.8695826e-05   9.9724843e-05   3.7981441e-05   7.6228702e-05   6.4412568e-05   1.5070949e-04   1.7387925e-05  -7.6840472e-05  -4.6293226e-05   1.3679234e-04   6.1658997e-05   9.7193370e-06   1.2331521e-04  -4.2374384e-05   5.2635562e-05  -3.0582276e-05  -3.4672907e-05  -3.5711227e-04   2.0072178e-04   6.4114320e-05   2.9391699e-04   2.4440358e-04   5.0921168e-05  -1.5149535e-04  -1.0915429e-04  -3.5702044e-04  -2.5718333e-04  -1.4700996e-05   1.1712417e-05  -7.4046395e-05  -3.9010400e-05  -2.1386030e-04   2.1434311e-05  -1.8873472e-04  -2.2981301e-04  -9.5305113e-05  -2.9108716e-05  -2.0580980e-04   1.7572822e-05  -7.0923097e-06  -1.2850179e-04   6.6664659e-05  -2.3571055e-04  -3.5514095e-04   5.9936559e-05  -9.8409590e-05   2.5887211e-04  -8.5472486e-05   3.3614915e-04   2.2863205e-05
   4.3312419e-05   8.7030625e-05   5.1446139e-05   6.6289729e-05   1.0359126e-04   1.3081188e-04   8.6317950e-06  -1.6869883e-05   1.5511828e-04   1.2630962e-04   2.7206119e-05   1.5740425e-04   1.0190476e-04  -3.1856329e-05   8.3427025e-05  -4.4073109e-05  -3.0227193e-05  -3.1638893e-04   2.1137281e-04   1.1730383e-04   2.5827342e-04   1.0774807e-04   3.8046452e-05  -8.6809385e-05  -8.6997861e-05  -2.9799869e-04  -2.4358837e-04  -3.9998467e-05  -5.3910277e-05  -6.5838372e-05   6.8149515e-05  -1.2605439e-05  -5.3060012e-05  -2.6741318e-04  -2.0404503e-04  -3.0489022e-05   5.6890723e-05  -1.7928299e-04   5.0272418e-05   2.2318047e-05  -1.0683758e-04   5.8029702e-05  -1.9139783e-04   7.2702392e-06   5.5454631e-05   1.4181563e-04   3.1965738e-04  -7.5955657e-05   1.7520250e-04  -4.9937125e-06
   2.7971177e-05   8.2696642e-05   5.7342844e-05   4.6020847e-05   5.3349017e-05   9.8675053e-05   6.3966203e-05  -7.8480785e-05  -1.3303609e-05   1.4891512e-04   9.3692594e-05   1.1371384e-04   1.0778930e-04  -3.3742137e-07   6.4918830e-05  -3.8671493e-05  -4.2400279e-05  -3.0153611e-04   4.2065018e-04   6.7597401e-05   2.4579908e-04   2.0549452e-04   1.4899969e-05  -9.8287361e-05  -1.5193001e-04  -2.3334140e-04  -2.2501405e-04  -8.3998948e-06   1.8705398e-06  -7.0383117e-05  -1.1204880e-04  -2.0575359e-04  -2.7472791e-04  -2.1755714e-04  -2.0999802e-04  -3.4469937e-05  -2.9935743e-05  -1.6301652e-04   2.3897621e-05   7.5580487e-05  -7.5663011e-05   3.4080502e-05  -1.5254662e-04  -7.4572267e-07   1.2269750e-04  -5.1966996e-05   3.4319938e-04  -1.7432826e-04   1.2225908e-04  -1.0874103e-05
   3.4441786e-05   6.9669462e-05   3.9426359e-05   3.8429345e-05   6.8719295e-05   9.1142356e-05   4.4469289e-05  -4.5504483e-05  -1.1167529e-05   1.6755580e-04   4.9242684e-05   6.6446337e-05   1.1387229e-04  -6.2410196e-05   3.9507713e-06  -3.5701949e-05  -4.0974443e-05  -2.8489018e-04   2.9413431e-04   5.6441335e-05   1.6864981e-04  -5.0141669e-05   6.1092869e-05  -2.8175456e-04  -6.2290179e-05  -2.0866097e-04  -2.0139886e-04  -2.1020343e-05  -3.0399809e-05  -4.9771308e-05  -1.6970623e-04  -2.6503098e-04  -1.0436255e-04  -2.4249879e-04  -1.7590242e-04   8.0472500e-06  -7.6869896e-05  -1.3114861e-04  -1.9096260e-06   7.9823640e-06  -7.5818905e-05  -6.3139341e-05  -1.2939345e-04  -2.7627865e-04  -2.4721102e-04   1.5561299e-04   3.2997594e-04  -3.3323109e-04   1.4607960e-04   8.4684769e-05
   2.7397489e-05   6.0916496e-05   1.6737515e-05   1.1555102e-05   2.0770592e-06   7.9574820e-05  -9.4309344e-06  -1.3713498e-05  -7.4088450e-05   1.5360059e-04   7.1743954e-05   1.9572863e-04   1.2654373e-04  -1.4124619e-05   4.9426908e-05  -4.3837310e-05  -4.1653115e-05  -2.3500345e-04   1.4016280e-04   3.6672016e-05   9.3257862e-05  -5.9310201e-05   5.1506791e-05  -2.5516553e-04  -9.3457791e-05  -1.6827509e-04  -1.6590883e-04  -7.3965042e-05  -3.6022597e-05  -1.4780405e-05   1.7239162e-04   1.2228154e-05  -9.2155991e-05  -1.4748368e-04  -1.5225486e-04  -4.9053724e-05  -9.3260664e-05  -1.0540299e-04  -4.4214567e-06  -6.3129669e-06  -3.9977367e-05   8.7363456e-05  -6.2873427e-05   4.6944348e-04  -1.1489120e-05   8.7530781e-05   3.4208715e-04  -2.2221562e-04   4.1535022e-05   3.1329168e-05
   2.5025973e-05   7.1034789e-05   1.7770319e-05   2.1475424e-05  -6.9435691e-07   5.7709407e-05  -5.0916924e-06  -6.5841748e-05  -9.7093216e-05   1.5337364e-04   4.8107428e-05   1.6377438e-04   9.7491298e-05   1.1942019e-05   4.8685466e-05  -2.4119237e-05  -4.2271600e-05  -2.3926121e-04  -5.9340422e-05   6.4556174e-05   8.3870014e-05   6.8832524e-06   1.0111534e-04   2.8976499e-05  -8.6327760e-05  -1.0687490e-04  -1.3801926e-04  -7.4717107e-05  -6.3749030e-05  -4.1814943e-05  -7.0577524e-05  -1.0109867e-04   5.1534920e-05   1.7113483e-04  -1.7175463e-04   6.9526718e-06  -1.1597805e-05  -1.2064346e-04   1.6623726e-05   3.5524714e-05  -5.6161469e-05  -3.9502997e-05  -1.0016741e-04  -4.0866606e-05   1.6436126e-05  -1.1495095e-05   2.6105304e-04  -1.1211700e-04   1.1218381e-04  -2.7861981e-05
   1.6920729e-05   6.5240485e-05   5.1959000e-06   1.1130265e-05  -1.4348563e-05   7.6435354e-05  -4.5838883e-06   5.6281766e-05  -1.0354212e-04   1.6845202e-04   7.9265221e-05   1.1374315e-04   9.7052289e-05   3.5109009e-05   3.0202058e-05  -3.5244444e-05  -3.7719754e-05  -1.7517757e-04  -1.1678660e-05   6.2664352e-05   9.4731891e-05  -9.4742369e-05   5.2893967e-05   2.2399685e-04  -4.0067131e-05  -1.1235596e-04  -1.3574048e-04  -6.4613407e-05  -6.8131143e-05  -4.5309167e-05  -5.8294529e-05  -5.1719751e-05   1.6058370e-04  -2.2684271e-04  -1.4444995e-04  -5.4238179e-05  -5.6989255e-05  -9.3906419e-05   1.4509958e-05   1.1486568e-05  -5.5853317e-05   7.2619288e-05  -1.1746956e-04   4.5609704e-04   7.1996634e-05   2.0538057e-04   3.4761365e-04  -2.2289802e-04   1.9802553e-04  -1.0418446e-05
   1.1020577e-05   8.0115926e-05  -1.6658689e-05   2.4728158e-06  -2.1935230e-05   8.9370282e-05  -1.0752849e-05  -2.3243465e-05  -7.9158061e-05   1.6109424e-04   5.7211768e-05   1.3084200e-04   8.8720721e-05   4.7548394e-05   2.4385745e-05  -2.9660636e-05  -4.6660218e-05  -1.8006135e-04   2.7221811e-04   1.2538607e-05   1.7495207e-04  -6.9998008e-05   7.3186973e-05  -3.0339349e-04   1.4819579e-05  -1.0991543e-04  -1.5225430e-04  -1.1146575e-04  -3.0739520e-05  -3.7553880e-05  -8.0480619e-05  -1.0599168e-04  -1.9844528e-04  -6.7599532e-05  -1.4663737e-04   1.4700110e-05  -8.3624275e-07  -7.7329802e-05   9.3361441e-06   5.0651492e-05  -2.7082970e-05   2.9943061e-05  -9.6046286e-05   1.5997564e-04  -1.2583814e-04   4.6294597e-05   2.0322244e-04  -2.1191064e-04   1.3864996e-04   7.4053067e-05
   3.5458422e-07   6.9286732e-05   3.0039293e-05   1.5123273e-05  -2.4807126e-05   6.2085986e-05   8.1437011e-06  -3.5379948e-05   6.1847204e-05   1.6063926e-04   8.1783634e-05   1.2007487e-04   9.4497300e-05   4.1143803e-06   2.8370696e-05  -3.0386849e-05  -4.4277134e-05  -1.9223582e-04  -4.1700034e-05   2.8146611e-05   8.8305889e-05   1.0446087e-04   4.0357230e-05   1.2135510e-04   3.3769669e-05  -7.8483456e-05  -1.6287134e-04  -2.7354561e-05  -1.0223148e-04  -3.4754881e-05  -9.7669517e-06  -2.0227020e-04   1.7343355e-04  -2.0771382e-04  -1.3437241e-04  -8.9971254e-06   1.5419855e-05  -7.1551316e-05   3.0433022e-05   7.9370118e-05  -5.3784188e-05   8.9716639e-05  -4.0875293e-05   1.7638999e-05  -1.1434234e-04   1.2095793e-04   4.2192981e-04  -1.8697981e-04   1.2087107e-04   2.6439451e-05
   1.1050028e-05   7.1123701e-05  -1.1879403e-05  -4.3284090e-06  -2.6476089e-05   7.9766141e-05   1.3408378e-05  -2.8861967e-05   5.6931087e-05   1.5904637e-04   1.0323361e-04   1.5281835e-04   8.6393818e-05  -2.4181968e-06   2.8851851e-05  -1.8105977e-05  -3.7823655e-05  -2.3054205e-04   2.7748381e-04   4.2422525e-05   1.0991862e-04   1.2860187e-04   1.0058675e-04   1.0029862e-04   3.8971393e-05  -4.1698768e-05  -1.2229665e-04  -6.4026084e-05  -1.6268745e-05  -4.2871729e-05  -2.5195186e-04  -1.4606393e-04   1.1229522e-04  -1.6446247e-04  -1.2009306e-04   4.7090798e-05  -4.0384133e-05  -7.8901277e-05   1.7571091e-06  -3.7465754e-05  -5.1465609e-05   8.9020694e-05  -7.3061732e-05   1.6867943e-04  -9.4649971e-05   2.7006246e-05   5.0170947e-04  -1.5167706e-04   3.7376984e-05   7.8605750e-05
  -1.5335263e-05   7.1708208e-05  -9.4035013e-06   1.8955761e-05   6.5359207e-05   6.2206396e-05  -8.7773151e-06  -2.8559019e-05  -8.4124176e-06   1.7255128e-04   6.8488887e-05   1.3139668e-04   7.8585334e-05   3.2367181e-05   3.3234253e-05  -4.3195334e-05  -3.4326946e-05  -1.9734535e-04   4.2397478e-05   4.8871807e-06   1.4349890e-04   8.2073246e-05   6.8634283e-05   1.7796909e-04   2.0538799e-05  -9.2210350e-05  -1.3477392e-04  -8.0175152e-05  -6.6646135e-05  -3.0759093e-05   6.2253021e-05  -8.1315266e-05  -2.9420862e-05  -7.6487968e-06  -1.3227786e-04  -8.8246970e-06   3.5125634e-06  -1.0063698e-04   2.6481590e-05   4.2156746e-05  -3.4687408e-05   1.9916937e-04  -1.0026054e-04   4.0670202e-04  -1.7842783e-04   1.0564263e-04   2.2842335e-04  -1.2482271e-04   1.5064594e-04  -1.3839365e-05
  -1.0992406e-05   7.5872420e-05   5.8938795e-06   8.5349984e-06  -2.0267060e-05   6.5273111e-05  -9.4964971e-06   6.4781605e-05  -7.1685427e-05   1.9205251e-04   8.7865839e-05   1.8470718e-04   7.8081415e-05   8.3979758e-05   4.9170761e-05  -1.8329132e-05  -3.5942983e-05  -1.3845944e-04  -1.6497879e-04   2.8115044e-05   1.5843997e-04   1.3566723e-04   1.0348374e-04   2.7492433e-04   2.9301502e-05  -8.7565793e-05  -1.2320797e-04  -8.2667008e-05  -4.0036452e-05  -1.7495813e-05  -1.2984894e-05  -1.0189191e-04   2.5677407e-04  -1.0142243e-05  -1.3293682e-04   7.3024949e-06  -3.0553583e-05  -7.7218974e-05   8.1386725e-06   8.0955389e-05  -3.8231003e-05   8.7131637e-05  -9.9952864e-05   4.5666702e-06   1.6808076e-04   3.0318828e-04   3.7926142e-04  -1.0735467e-04   9.8475930e-06  -1.6806340e-05
  -3.5622619e-05   6.9708585e-05   1.0257178e-05   1.9711073e-05  -2.0567154e-06   4.6452198e-05  -1.0922253e-05   1.0687816e-06   1.3433222e-06   1.7954862e-04   9.8577773e-05   1.9381336e-04   6.3561412e-05   4.3976499e-05   2.5505611e-05  -3.0082967e-05  -4.1740663e-05  -2.1227148e-04   1.5047260e-04   1.7353586e-05   1.5486682e-04  -1.6614347e-06   1.4202471e-04   2.9223788e-04  -5.3928752e-06  -5.2563242e-05  -1.4246098e-04  -4.8186448e-05   1.1297609e-05  -2.6876587e-05  -1.3061578e-04  -1.4294928e-04   3.5143970e-04   4.8158723e-05  -1.1780878e-04   3.1633630e-05   6.5733466e-06  -7.8917357e-05   1.5721602e-05   2.0643076e-06  -5.1438477e-05   2.0344961e-04  -1.3918967e-04   4.3575223e-05   1.8505717e-04  -4.7020792e-05   1.3575968e-04  -1.8890113e-04   5.8749272e-05   2.3565644e-05
  -8.0400278e-06   8.0982783e-05  -5.6306494e-06   1.0179302e-05   5.7674242e-05   5.2618474e-05  -2.5491432e-05   1.7011054e-05  -1.5802193e-04   1.9456341e-04   1.0351014e-04   1.5009474e-04   9.1179623e-05   8.7117129e-05   2.1670536e-05  -2.2747992e-05  -2.8986780e-05  -1.8389008e-04  -1.3698632e-04   8.0919535e-06   1.6685022e-04   8.5961241e-05   8.1828548e-05  -2.1071819e-04   5.9366641e-05  -8.4016690e-05  -1.2557041e-04  -4.3833275e-05  -5.3651078e-05  -2.9691786e-05  -2.6221294e-05  -1.1044916e-04   1.0373080e-04   6.9161273e-05  -1.2403651e-04   4.4698569e-05   2.2243836e-05  -5.8393183e-05   3.0799198e-05   4.2314347e-05  -3.6021127e-05   1.6214378e-04  -1.0553854e-04   9.9394892e-06  -2.1233571e-05  -1.2629030e-04   5.0556764e-04  -1.4985120e-04   1.8294498e-04   6.4841581e-05
   1.0755361e-05   8.3027931e-05  -3.3361848e-06   2.3096847e-05   1.6509235e-05   5.5500743e-05   4.9424070e-05  -2.5055348e-05  -5.1058538e-05   1.8974872e-04   8.2152823e-05   1.1246707e-04   8.4361687e-05   3.4982695e-05   7.3370365e-06  -1.1883923e-05  -2.1831387e-05  -1.6853528e-04   1.6950984e-05   6.2028477e-05   1.1672722e-04   2.2466779e-04   6.7007772e-05  -1.5676384e-04   1.8668747e-05  -9.7927783e-05  -1.7101532e-04  -1.4707364e-05  -5.5620862e-05  -3.6433838e-05  -9.9734301e-05  -8.3352279e-05   2.9642833e-05  -2.8045488e-05  -1.1558302e-04   5.8411406e-05   9.9524032e-06  -6.5418397e-05   1.4325899e-05   8.5249034e-05  -2.4215391e-05   1.2065993e-04  -1.2119472e-04  -2.8426564e-04   1.4637101e-04  -5.5875800e-05   2.7439700e-04  -8.3756197e-05   2.0405603e-05  -2.3064387e-05
   4.5389829e-06   6.7123110e-05  -2.2112126e-06   1.6282524e-05   2.7641827e-05   5.1746832e-05   1.2557367e-05   7.3120151e-05   8.7231660e-05   2.1411614e-04   1.1221584e-04   2.3829787e-04   7.9477337e-05   4.1447198e-05   1.5586602e-06  -2.2240542e-05  -2.1152822e-05  -1.1912344e-04  -1.9663625e-04   2.3046025e-05   1.1557629e-04  -2.5060408e-05   5.7468853e-05   2.9451636e-05  -1.7293532e-05  -9.4592608e-05  -1.0608580e-04  -7.0676331e-05  -1.3430119e-05  -3.5919769e-05  -7.8265730e-05  -3.3974957e-05  -3.3755943e-05   4.7939816e-06  -1.1639328e-04   7.6005948e-05   2.4204439e-05  -6.4177730e-05   1.9405263e-05   1.0769058e-04  -2.2132755e-05   2.1317341e-04  -1.1713721e-04  -2.1446278e-04  -3.1371117e-05  -2.5011663e-04   3.1553317e-04  -2.5260217e-05  -2.7396449e-05   2.3955437e-05
  -2.2845996e-05   7.7101889e-05   6.7527299e-06   1.3492039e-05   7.0185255e-05   5.4813845e-05   5.9480267e-06   5.3364192e-06  -1.9139642e-04   2.1034984e-04   9.8897028e-05   1.5321764e-04   7.6326673e-05   3.1612348e-05   4.6871799e-05  -1.7078684e-06  -2.3830738e-05  -1.4128805e-04  -7.6799850e-05   4.6389046e-05   1.2810274e-04   8.0320307e-05   8.0906888e-05   1.1256461e-04   4.0368155e-05  -8.5515050e-05  -9.7637007e-05  -5.3248561e-05  -1.5071327e-05  -2.9419147e-05   2.3270448e-05  -1.1483860e-04  -2.1210335e-04  -7.9852296e-05  -9.7780852e-05   5.2787494e-05   1.4267000e-05  -6.3652842e-05   2.6254202e-05   2.6113199e-05  -4.8177837e-05   1.3797921e-04  -1.1538009e-04  -2.0516473e-04  -1.3158133e-04  -8.6577827e-05   1.9554055e-04  -1.2436163e-04  -6.5345885e-05  -1.6209126e-05
  -7.1107074e-06   8.2783699e-05   7.4508253e-06   1.2590951e-05   3.9947990e-05   6.1988008e-05   1.1013405e-05   7.9019163e-05  -3.3947519e-05   2.0635666e-04   9.8955388e-05   8.8699409e-05   8.8651068e-05   4.3613414e-05   4.9893653e-05  -1.0061857e-05  -1.0378216e-05  -2.1797852e-04   1.2058063e-05   4.9976567e-05   1.9261760e-04   1.2177064e-04   7.0640192e-05   1.0747203e-04   3.4646400e-05  -1.0928154e-04  -1.2947421e-04  -1.5516922e-05  -6.3481202e-05  -7.7845243e-06  -7.8563226e-06  -2.8125554e-05  -4.5321882e-05  -7.4709642e-05  -1.1432225e-04   6.5508728e-05   6.7685971e-05  -6.1514555e-05   3.2367712e-05   7.7779943e-05  -1.5028418e-05   2.0239298e-04  -1.2682111e-04   3.3346977e-04  -4.2636551e-05   1.0054489e-04   4.9032614e-04  -1.0417025e-04   8.4526779e-05   1.0898356e-05
   1.1876212e-05   7.8846584e-05   2.6782576e-05   1.2683926e-05  -1.7550237e-05   6.3569103e-05   1.3079501e-06   8.5097861e-05  -5.8774927e-05   2.1946995e-04   1.5575197e-04   1.3431595e-04   8.7081571e-05   4.8312968e-06  -6.1329665e-06  -6.4383568e-07  -2.5322763e-05  -1.2629322e-04  -6.4673761e-05   2.9991021e-05   1.2327296e-04   7.5204633e-05   9.1034082e-05  -2.1835885e-05  -1.0664088e-05  -9.0052286e-05  -1.0439214e-04  -2.3995932e-05  -9.8981116e-05  -3.7132282e-05  -3.2219774e-05   3.2068077e-05   1.3236364e-04  -8.7357439e-05  -1.1864959e-04   1.0218040e-04   1.2923900e-06  -6.4801556e-05   1.6915532e-05   9.1810311e-05  -2.5230713e-05   2.1741046e-04  -1.1131431e-04   9.7605662e-06   5.3303065e-05  -3.0012807e-05   3.5913844e-04  -1.4409701e-04   2.0455568e-04   7.8046913e-05
  -2.6829091e-06   7.3243915e-05  -6.3391344e-06   1.1611654e-05   1.5454949e-05   9.1123649e-05  -3.2829598e-07  -2.3654658e-05  -1.8623845e-04   2.1341059e-04   9.0191075e-05   2.0335474e-04   9.6715921e-05   7.3981108e-05   5.3201638e-05  -1.1404769e-05  -9.5496871e-06  -1.2082896e-04  -5.0088744e-05   3.1914024e-05   1.2412040e-04   1.2975668e-04   6.4757754e-05   1.1335525e-04  -2.7423212e-05  -1.2927690e-04  -1.4729642e-04  -3.8182206e-05   4.1731742e-05  -3.3365046e-05  -5.7882087e-05   1.0102216e-05  -9.6475800e-05  -7.6758797e-06  -1.1875153e-04   8.8121524e-05  -4.9979230e-06  -5.9244168e-05   4.4092678e-05   3.7238540e-05  -3.1935742e-05   1.1820252e-04  -9.8607299e-05   4.8377096e-05  -2.6544751e-04   1.2465916e-04   1.8522893e-04  -6.8353271e-05   1.8322686e-04   4.5809244e-05
   3.1618172e-05   6.7302273e-05   7.9049860e-06   5.0372191e-06   1.6461889e-05   8.6801570e-05   4.1417866e-06   9.4002833e-05   5.0089311e-06   2.2496504e-04   1.2158637e-04   1.4235348e-04   8.0741716e-05   7.0514936e-05   3.3153836e-05  -2.0692290e-05  -2.4848221e-05  -1.2436378e-04   3.0949226e-04   6.5582535e-05   1.4477817e-04   4.9881564e-06   5.7984336e-05   2.1144404e-04   3.6876638e-05  -1.2978011e-04  -1.4547442e-04  -3.8186743e-05  -2.0304635e-05  -2.3470468e-05  -7.2391126e-06  -6.7892841e-05   9.1319780e-06  -1.8485651e-05  -9.4557530e-05   6.7263281e-05  -1.9465650e-05  -4.8867147e-05   2.8873690e-05   1.5906855e-05  -2.2247881e-05   7.1699687e-05  -9.9604986e-05  -3.6603108e-04  -2.7282053e-05  -2.6264266e-05   4.0661736e-04  -4.9391838e-05   1.2824729e-04   6.1820225e-05
  -1.7965896e-06   8.5836553e-05   1.9737739e-05   1.5706870e-05   2.8242832e-06   7.9777150e-05   3.4575827e-05  -1.7224698e-05   3.6256031e-05   2.1663154e-04   1.0887242e-04   1.8332848e-04   7.1365423e-05   4.8797654e-05   4.1305211e-05   7.6624147e-08  -1.5006187e-05  -1.9651554e-04  -8.9376168e-05   5.7905112e-05   1.5944670e-04   4.9802162e-05   1.1363169e-04   2.8876730e-04   7.9791236e-05  -1.0108279e-04  -1.4859992e-04  -4.0110543e-05   4.1210806e-05  -2.5853715e-05  -4.7654419e-05  -4.2946551e-05   6.9842019e-05  -2.1699172e-05  -1.1474794e-04   7.7522338e-05   3.1110540e-05  -7.1653099e-05   3.3825600e-05   5.3842134e-05  -1.6388571e-05   1.0510249e-04  -1.3458167e-04   5.0076043e-05   3.6592141e-05   1.4327600e-04   3.0750074e-04  -5.5289896e-05   1.7632074e-04  -1.0926748e-05
  -3.5351673e-05   6.4272033e-05   7.3544188e-06   1.4398773e-05   9.6582073e-05   5.8742753e-05   2.0464797e-05   1.6967293e-05   3.7894508e-05   2.2996576e-04   9.8296456e-05   2.2109387e-04   8.1518672e-05   5.7286139e-05   6.5386404e-05  -1.2391636e-05   9.4167708e-06  -1.4951323e-04  -6.1687213e-05   7.6794364e-05   1.3866620e-04  -4.2303793e-05   2.4856430e-05  -3.2682144e-04   6.8926332e-05  -9.7547760e-05  -1.1086838e-04   2.9668505e-05   1.4804311e-06  -4.0727118e-05   5.4787000e-05  -2.2493125e-05  -5.4519522e-05  -5.4621029e-05  -9.7787386e-05   7.2023475e-05   1.8401619e-05  -5.7822337e-05   7.9758129e-06   8.5890752e-05  -3.0480782e-05   2.6730768e-04  -1.1325699e-04   3.3851032e-04   4.9034021e-05   5.8672933e-05   1.0356298e-04   2.5822594e-05   2.8226184e-04   3.6449335e-05
   3.8125565e-06   8.1556158e-05   1.9764761e-06   9.9762938e-06  -3.1084693e-07   6.0933733e-05  -2.8424602e-06   6.9377769e-05   9.0184119e-05   2.0754855e-04   9.2725575e-05   1.3191784e-04   8.3870676e-05   4.9784616e-05   7.6552620e-05  -8.5815846e-06  -1.1954193e-05  -1.7259180e-04  -1.8932008e-04   8.0916085e-05   1.8114127e-04   2.0975378e-05   6.2193722e-05  -9.7043674e-05   7.6030141e-05  -1.2014375e-04  -8.8524619e-05  -8.7645210e-05   4.9136939e-05  -1.0740872e-05   5.2913863e-05  -1.0599624e-04  -7.4368368e-06  -9.6037496e-05  -7.4007476e-05   4.2071006e-05   9.4280194e-06  -5.3331409e-05   2.7529044e-05   5.3465286e-05  -2.7308191e-05   1.8888655e-04  -1.0816977e-04   2.4655619e-05   9.7402532e-05  -4.5853671e-05   2.2866314e-04  -5.1064617e-06   1.4769270e-04   6.3777484e-06
   8.6944729e-06   7.2224975e-05   3.2295589e-05   1.2095685e-05   4.9634495e-05   6.1490908e-05   2.4311579e-05   1.2694906e-04   6.1792380e-05   2.1861760e-04   1.0944544e-04   2.1990735e-04   8.1654813e-05   6.0697967e-05   6.8436042e-05  -4.4288763e-07  -1.7431665e-05  -1.3316542e-04   3.9553485e-04   5.2677759e-05   1.3874515e-04   9.2320857e-05   3.4235789e-05   1.2926654e-04   4.5375811e-05  -7.5125659e-05  -1.0006688e-04   4.5946115e-05  -1.0847241e-05  -1.5828311e-05  -2.5493451e-04  -7.1451643e-05  -6.8433736e-05  -2.5308918e-04  -8.6440035e-05   5.4673415e-05  -2.1690013e-05  -6.2014602e-05   1.0981251e-05   7.6038385e-05  -1.8737112e-05   3.0816812e-04  -8.6154010e-05   2.7227946e-04   2.3576221e-04   3.8447415e-05   3.0549613e-04  -7.2205999e-05   1.3205183e-04   1.6568127e-05
  -9.6095312e-07   7.9953679e-05   6.7384381e-06   2.2861839e-05   9.8873561e-06   7.7759294e-05  -1.8176590e-05   5.5845740e-05  -5.9438362e-06   2.0320925e-04   1.1315619e-04   1.1429160e-04   8.4435647e-05   5.2101870e-05   3.0734675e-05  -2.7307865e-06  -1.4504063e-06  -1.2585692e-04   4.1051832e-04   6.6366607e-05   1.6099084e-04   1.5193207e-05   1.2254354e-04   6.3987987e-05   3.6385976e-05  -9.6876567e-05  -1.2333029e-04  -4.0210180e-05  -2.9714496e-05  -1.4216630e-05  -2.9924915e-05  -4.2224241e-05   2.8494894e-04  -2.1850745e-05  -1.0197258e-04   9.1789494e-05   2.1754346e-05  -7.1156013e-05   2.6484877e-05   4.9656119e-05  -2.0488393e-05   1.7784072e-04  -9.0214002e-05  -9.5622614e-05   2.2122625e-04  -1.5965414e-04   5.1392557e-04  -5.0234892e-05   1.0463294e-04   9.7455406e-05
   1.8319979e-05   7.2047646e-05   7.4732307e-06   2.1499225e-05   3.3666034e-05   6.0104110e-05   3.7717778e-05   1.1219982e-04  -7.4697063e-08   2.0552335e-04   1.2096027e-04   8.7251421e-05   9.8987934e-05   5.5610602e-05   3.2085740e-05   4.8358688e-06  -7.0764991e-06  -1.4823295e-04   2.3596617e-04   8.6573447e-05   1.5031261e-04   5.2010353e-05   6.6980014e-05   1.0938162e-04   3.6239759e-05  -1.1559272e-04  -1.3446205e-04  -9.8430337e-06  -5.1315499e-05   3.9658011e-07   1.9373319e-05  -1.9901556e-05  -9.6870892e-05   5.5970479e-05  -9.2984803e-05   2.3314500e-05   6.8032350e-05  -5.9622289e-05   3.9865834e-05   2.3186258e-05  -6.4823867e-06   1.3480731e-04  -9.2206799e-05  -5.7737056e-05  -6.8144154e-06   3.9714371e-04   4.3990868e-04  -1.5444692e-05   1.9834394e-04  -2.8055215e-06
   2.7044723e-06   7.8374978e-05   2.5672834e-05   8.6143173e-06   5.2451869e-05   6.0163751e-05   8.4373878e-06   5.8458532e-05   1.2342201e-04   1.8805411e-04   1.4518404e-04   5.2239335e-05   8.4162224e-05   6.6971355e-05   4.0921743e-05  -1.4283584e-06   8.7416629e-06  -1.4374449e-04   2.5599601e-04   9.0609865e-05   1.3269258e-04   1.0462406e-04   9.7707125e-05   3.0158335e-04   1.3663901e-04  -7.2886090e-05  -1.2251134e-04   5.0574348e-05  -5.9162612e-05  -8.3049226e-06  -8.9555782e-05  -7.1453251e-05   3.3243542e-04  -1.4677532e-04  -9.4996853e-05   7.9036909e-05   4.6093098e-07  -7.1370647e-05   3.4565477e-05   7.3902898e-05  -1.6954235e-05   2.0316686e-04  -4.6901605e-05   3.3134222e-04   8.7202570e-06  -5.6993056e-05   3.1016264e-04  -6.9659851e-05   2.1504844e-04   8.8258304e-05
   8.4107769e-06   8.7784523e-05   2.7560442e-05   7.3101842e-06   3.0665429e-05   7.7057572e-05   1.4276244e-05   8.1695522e-05  -1.1740727e-04   1.8943980e-04   1.1447337e-04   1.1077584e-04   8.3802595e-05   5.5870973e-05   1.0470065e-07   9.6135391e-06   1.1088810e-06  -7.9979480e-05   1.8512386e-04   6.0606551e-05   1.2286469e-04   2.4184850e-05   6.4349450e-05  -1.2085724e-04   4.1073676e-05  -9.3935516e-05  -9.8931829e-05  -1.9051364e-05  -1.5179523e-06  -8.3469749e-06   1.1485603e-04  -6.0313414e-05   2.0054707e-04   9.3438626e-05  -7.2676034e-05   7.0159680e-05   3.3772514e-05  -5.9588503e-05   2.9337134e-05   1.1121628e-04  -8.6150271e-07   1.6769064e-04  -7.4330936e-05  -1.8028109e-04   2.5997701e-04   1.0188546e-04   3.0294622e-04  -2.7931588e-05   1.7981997e-04   4.4292308e-05
   3.5572517e-05   8.7642846e-05   2.2658107e-05   2.2456754e-05   2.5305793e-05   7.5235133e-05   2.4003633e-05   3.4164146e-05  -3.3274704e-05   1.6511153e-04   1.0984614e-04   4.3903779e-05   8.4570842e-05   6.4845328e-05   7.3643823e-05   1.5525701e-06   2.1177832e-05  -8.3768304e-05   3.1940901e-04   3.4653189e-05   1.7818867e-04   1.2444229e-04   7.7473094e-05   6.5807195e-05   9.1677488e-05  -5.0318788e-05  -9.9531178e-05  -2.3003036e-05   7.4466596e-05  -1.3620707e-06   4.5176148e-06  -1.2386725e-05   4.5206862e-06  -6.2229134e-05  -6.3128478e-05   2.3171200e-05   4.5939928e-06  -5.8198559e-05   2.9294959e-05   7.6178774e-05   1.3860957e-06   6.8310597e-05  -7.5731412e-05   2.7578324e-04  -3.0412119e-05   8.3454855e-05   6.9301075e-04  -3.9678365e-05   7.0784597e-05   1.2752197e-04
  -1.6288888e-07   9.7272692e-05   6.8113868e-06   2.1439471e-05   2.7258493e-05   8.3017316e-05   9.6938020e-06  -4.7759699e-05   1.0191146e-05   1.8100334e-04   1.4861026e-04   8.9040259e-05   9.6686192e-05   7.8860197e-05   6.3970489e-05   1.0870442e-05   1.6237866e-05  -1.6903994e-04   3.2952632e-04   6.4728272e-05   1.5264745e-04   6.6018423e-05   1.3559336e-04   3.3916990e-04   7.9686273e-05  -5.3213997e-05  -1.0892966e-04  -4.9318140e-05  -8.3552040e-05  -8.5346237e-06   1.1871840e-05  -1.0282659e-04   1.1351834e-05   1.0448368e-04  -7.2918789e-05   5.5613844e-05   2.4241974e-05  -4.6777608e-05   2.6615715e-05   7.1036608e-05  -3.5157449e-05   1.8332334e-04  -6.7626825e-05  -6.1817344e-05   1.8586627e-04   5.1848790e-05   2.1153489e-04  -4.4531057e-06   1.9567698e-04   2.1409627e-05
   7.4248551e-06   7.9939084e-05   1.2664247e-05   1.9759907e-05   1.2983781e-05   8.5696971e-05   1.4525873e-05   1.2453316e-05   2.2440006e-05   1.4952531e-04   1.1722615e-04   3.5562411e-05   9.2326423e-05   6.7551744e-05   3.7387730e-05   2.5014957e-05   1.6082688e-05  -1.3113763e-04  -1.9991794e-04   6.6364868e-05   1.8726294e-04   1.2395784e-04   6.8051049e-05  -1.0501504e-04   1.3108607e-04  -5.8181216e-05  -8.5810178e-05  -8.5927013e-06   6.5582003e-06   3.9089632e-06   1.2278062e-04  -8.4041363e-05   1.0079450e-05   1.3677058e-05  -6.7864319e-05   3.3199578e-06   8.7566608e-05  -5.5156310e-05   2.6803489e-05   4.1295785e-05  -2.8139348e-05   1.5258236e-04  -7.9105463e-05   6.0733393e-05  -4.8960428e-05   1.2550395e-04   2.7781742e-04  -6.6300679e-05   3.0235818e-04   5.5041382e-05
  -2.5763950e-06   9.3159717e-05   5.9689582e-06   2.8352639e-05   1.5258486e-05   7.7277982e-05   3.5271205e-05   4.0083971e-05   4.3498353e-06   1.5740242e-04   1.0767638e-04   1.1687839e-04   1.0626409e-04   7.6114979e-05   3.9967395e-05   2.1135242e-05   7.5723638e-06  -1.8692263e-04   2.0085710e-04   7.2867668e-05   1.7173994e-04   4.8921997e-06   7.8230136e-05  -2.2845932e-04   1.2359547e-04  -4.8580176e-05  -1.3438347e-04  -8.7199231e-07  -2.0995456e-05  -5.5730393e-06   7.2668576e-05  -3.6932175e-05   4.5873869e-05   1.6229544e-04  -7.1036411e-05   2.2456357e-05   2.4331377e-05  -4.0819192e-05   4.6731479e-05   1.1383853e-04  -3.3011827e-05  -3.6760339e-06  -1.2317926e-04   4.6158809e-04  -1.1827365e-05  -2.8374378e-05   1.6379234e-04  -6.9787993e-06   1.7932538e-04   2.2500431e-05
  -4.1352368e-06   9.7595395e-05   1.6313101e-05   2.0506743e-05  -8.7079803e-07   5.9003902e-05   4.4858020e-06   7.8488469e-05  -8.5482658e-05   1.5570229e-04   1.5368432e-04   4.0132396e-05   9.2221999e-05   9.5914475e-05   2.1525366e-05   1.5509437e-05   4.0244991e-05  -5.3563803e-05   2.2287294e-04   1.0501753e-04   1.6756786e-04   1.1618258e-04   5.9383150e-05  -3.1682671e-04   5.6225876e-05  -5.7930458e-05  -7.0158647e-05  -2.3149059e-05  -2.2880271e-05  -8.4157418e-06  -1.2766046e-04  -3.5510981e-05  -1.1171024e-04  -3.3157350e-05  -6.6014465e-05   5.6576879e-05   4.5534947e-05  -5.8123245e-05   2.6224181e-05   8.1847225e-05  -4.6343972e-05   7.5777687e-05  -1.0818756e-04   4.8927608e-04   2.5689282e-04   1.2272064e-04   2.3668878e-04   1.4145950e-05   3.0665894e-04   4.9421356e-05
  -1.7049445e-06   1.1702912e-04   3.4320331e-06   2.4470921e-05   1.8012572e-05   7.5118085e-05   1.6663673e-05   6.6528359e-05  -7.2161172e-05   1.1866287e-04   1.1238492e-04   1.0592746e-04   9.5743315e-05   8.8045170e-05   1.4962745e-05   2.0021287e-05   2.5048092e-05  -1.6835162e-04  -1.0063720e-05   8.9876412e-05   1.3930065e-04   1.3023433e-04   1.2875574e-04  -1.1956957e-04   1.0663900e-04  -5.4471129e-05  -1.1047805e-04  -2.1435799e-05  -1.8035287e-05  -6.8863396e-06  -1.0844204e-04   4.6901085e-05   1.4371330e-04  -9.9959456e-05  -7.6619181e-05   8.2671228e-05   4.8787675e-05  -5.2165789e-05   2.9782454e-05   4.8493293e-05  -4.0881940e-05  -6.5487453e-05  -1.0545435e-04  -6.8134900e-06   1.4678066e-04   1.0140717e-04   2.6610220e-04   3.5654019e-05  -4.5896851e-07   3.0495377e-05
   1.2110237e-05   1.0923642e-04   2.7903207e-05   1.3580549e-05  -4.3937162e-05   6.7056499e-05   1.8994378e-05   1.0583114e-04   9.0999420e-05   1.1799423e-04   8.7218970e-05   7.3164352e-05   9.4479379e-05   5.5291126e-05   2.6009475e-05   1.3283691e-05   3.2156775e-05  -9.2720729e-05  -7.4027543e-05   8.3215979e-05   1.8488592e-04   6.7536443e-05   6.1481835e-05  -9.0462134e-05  -3.2667602e-05  -9.6227297e-05  -6.2947067e-05   8.6052765e-05  -1.4303104e-05   5.3609574e-07   2.0216155e-05   7.4949923e-05  -5.6197638e-05  -1.2883074e-05  -6.2179453e-05   4.2094849e-05   3.3354569e-05  -7.7245328e-05   1.3533455e-05   2.3253362e-05  -4.1256411e-05   1.4623787e-04  -1.1985627e-04  -8.6247099e-05   1.7231377e-04  -1.2165487e-04   1.8896951e-04   2.3751816e-05   1.2288229e-04   5.8318368e-05
   2.1727899e-05   1.0158857e-04   2.4045459e-05   3.1414314e-05   3.0780433e-05   5.8349131e-05  -1.1537138e-06   1.0362449e-04   9.3610375e-05   1.3343160e-04   1.2994230e-04   2.9613791e-05   1.0127372e-04   3.5867142e-05   2.3697758e-05   2.7549486e-05   2.7121023e-05  -6.6333603e-05   2.6737066e-04   7.4338721e-05   1.5029921e-04   2.6378235e-05   8.9751455e-05   3.6278343e-05   1.1048767e-04  -6.4845954e-05  -1.0770439e-04  -2.1783850e-05  -3.0294070e-05  -4.8164461e-06   2.3289221e-04  -6.6234970e-05  -2.1411866e-04  -6.2594314e-05  -8.1165934e-05  -1.9807154e-05   4.1749099e-05  -6.2773841e-05   2.3998044e-05   5.7729816e-05  -4.8073256e-05   1.7562455e-05  -1.1216274e-04   2.9509529e-04   5.9107235e-05   1.2284196e-04   1.0189685e-04   2.5728747e-05   2.9981104e-04  -5.1626896e-05
   9.0626354e-06   9.4308896e-05   2.4848287e-05   2.2785342e-05   2.8754625e-05   5.4070679e-05   8.5281517e-06   4.3282111e-05  -1.5082593e-04   1.1668498e-04   1.0051220e-04   1.4978212e-04   9.7337863e-05   7.1797578e-05   4.0778770e-05   1.2715411e-05   2.1259193e-05  -6.7387540e-05   2.9163377e-04   9.0569782e-05   1.2707926e-04   2.7036702e-04   9.6794603e-05  -8.0661041e-05   5.8371508e-05  -5.6464734e-05  -1.3140948e-04  -1.5958047e-05   3.5604594e-06  -2.4315930e-06   2.8346009e-05   4.8319831e-05   3.8157171e-04   6.7417546e-05  -6.4907726e-05   3.7948586e-05   3.3442557e-05  -5.6873196e-05   1.0111884e-05   4.2917229e-05  -3.5506575e-05  -6.4231081e-06  -1.1716352e-04   1.4413392e-05   1.7952450e-04  -1.5191205e-05   2.6716295e-04  -5.9038855e-05   4.1726111e-05   4.5928733e-05
   1.6843525e-05   1.1243986e-04  -3.0212773e-06   3.0471479e-05   4.1345516e-05   6.8573230e-05  -1.1805113e-06   1.8932360e-05  -1.1472122e-04   1.0085964e-04   8.1269282e-05   2.1029558e-05   1.0781539e-04   1.0355152e-04   3.7809044e-05   1.8928944e-05   1.9392541e-05  -9.1856702e-05   1.0179518e-04   7.5725140e-05   1.5546904e-04   1.2757609e-04   7.1857132e-05   1.9526717e-04   5.3413121e-05  -6.7611378e-05  -1.0825826e-04   1.2011094e-05  -2.2891345e-05  -1.0421517e-05   9.2754432e-05   3.2979231e-05  -1.2546139e-05  -5.2567084e-05  -5.5567365e-05   3.4829634e-05   8.4219442e-05  -7.2342867e-05   3.3673892e-05   1.1201478e-04  -3.6070203e-05  -6.4573716e-05  -1.3678020e-04  -2.9554556e-04   9.1225447e-05  -1.3759930e-04   3.8166996e-04  -2.8243199e-05  -3.7461145e-05   9.5291129e-05
   2.3420428e-06   1.1108967e-04   3.1890264e-05   3.3942048e-05   3.2097648e-06   4.3169992e-05   4.1159798e-05   1.3141478e-04  -6.7792040e-05   1.2249414e-04   9.9045552e-05  -7.3193655e-07   1.1335292e-04   8.6691980e-05   1.7852661e-05   3.3302589e-05   7.2283215e-06  -7.7628189e-05   4.1502655e-05   7.0353533e-05   1.5780482e-04   1.4007001e-04   9.9002078e-05   6.8578702e-05   7.8010969e-05  -7.5993310e-05  -4.3347569e-05   2.4100695e-05  -2.2927772e-05   8.8394963e-06   1.7915921e-04  -1.1690368e-04   2.0751692e-04  -6.7481378e-05  -8.3307961e-05  -3.3863803e-06  -3.6321213e-05  -4.8868649e-05   1.4884141e-05   9.0657064e-05  -2.5743575e-05   8.7268774e-05  -1.4282089e-04  -1.9733339e-04   3.7167897e-04   3.0881539e-04   1.8504215e-04  -1.4330640e-05   2.1535976e-04   6.7602930e-05
   4.9761816e-06   9.7662763e-05   3.4603607e-05   4.0961702e-05   1.6377380e-05   6.8158792e-05   1.9584274e-06   1.4254691e-04  -1.8503943e-04   1.1932741e-04   1.1349547e-04   8.3614206e-05   1.0581992e-04   1.0443684e-04   2.5064461e-05   4.0147610e-05   2.3071236e-06  -9.3272298e-05  -1.0539331e-04   1.0053404e-04   1.6199342e-04   4.8182450e-05   1.0901358e-04   1.5753607e-04   8.8068860e-05  -3.7625985e-05  -7.7266035e-05  -3.1385418e-05  -3.5814413e-05  -1.1695662e-05   1.3530585e-05  -1.2420364e-04   2.4616960e-04   5.5875320e-05  -7.4036448e-05   2.8282408e-05   5.2351596e-05  -5.5610650e-05   2.4375840e-05   1.0275006e-04  -6.1474981e-05   4.3129501e-05  -1.1157620e-04   2.8285387e-04   1.5041541e-04   1.1634166e-04   1.1444537e-04  -7.4231953e-06   1.1674571e-04   1.1231783e-04
   1.8118928e-05   8.5320695e-05   2.2393135e-06   2.5128149e-05  -1.7332934e-05   9.2231814e-05  -5.8956193e-06   5.1908035e-05  -7.4795603e-06   8.9660491e-05   7.4002775e-05   8.6737627e-06   9.5151801e-05   8.3743791e-05   2.5938798e-05   1.4663621e-05   3.0558473e-05  -1.2012651e-04   5.0119823e-04   1.1677531e-04   1.2620279e-04   8.0752419e-05   1.4296475e-04  -1.7052436e-04   1.1058185e-04  -9.6993477e-05  -3.5646561e-05   3.5286987e-05   1.4048695e-05   7.2556550e-06  -1.7186780e-04  -9.1223468e-05   1.6586337e-04  -7.1178372e-05  -8.1294893e-05  -3.9896389e-05  -1.7225568e-05  -4.5016968e-05   2.1893857e-05   6.2790132e-05  -4.2298798e-05  -4.1753894e-05  -1.4905384e-04   5.8863345e-05   1.4384372e-04   6.6420776e-05   3.1253102e-04  -3.3384804e-05   3.0474295e-04   5.2311075e-06
   2.8137398e-05   1.1212884e-04   3.9088856e-05   2.8848368e-05  -3.8045434e-06   8.0682832e-05   1.6962722e-05   8.7884917e-05  -6.6931767e-05   1.0804467e-04   8.2921877e-05   5.9635142e-05   1.1417517e-04   1.0670719e-04   2.1522535e-05   1.8423125e-05   3.2492674e-06  -1.1510291e-04  -6.0433300e-05   8.5740001e-05   1.4873604e-04   2.0901367e-04   7.1279443e-05  -1.4347516e-04   5.2126670e-05  -9.7543314e-05  -3.5794590e-05   1.3642998e-05   9.8696546e-06  -6.8476947e-06   1.6691338e-04  -1.5927988e-04  -1.1788438e-04  -7.5886215e-05  -9.1902868e-05   2.7364114e-05   5.0736347e-05  -6.8766931e-05   3.0909043e-05   8.0232800e-05  -2.5428790e-05   6.7561974e-05  -1.4252783e-04   1.1368057e-04  -1.9590855e-04   1.8158935e-05   1.4887664e-04   1.8341305e-05   2.7064121e-05  -3.1410829e-05
   4.0385825e-05   9.2072340e-05   3.9576324e-05   4.6016394e-05  -8.5564998e-06   1.0001476e-04   3.0130248e-05   1.2042484e-04  -1.0950889e-04   1.2460220e-04   1.0142357e-04   9.1706024e-06   1.0369634e-04   7.3015464e-05   6.0304032e-05   2.0494983e-05   5.4314825e-07  -7.5648582e-05   5.2037439e-04   8.9865032e-05   1.3156117e-04   1.9809692e-04   5.3642445e-05  -7.4497919e-05   1.6021484e-04  -6.1379440e-05  -6.5478816e-05   3.2966749e-05   3.8273858e-05  -1.2400786e-05  -3.1946041e-05  -7.3131298e-05   1.7763869e-05  -8.4289459e-05  -9.0130961e-05   4.0697581e-05  -3.9500142e-06  -6.3864638e-05   1.4022628e-05   7.6550627e-05  -6.2153915e-05   7.3780684e-05  -1.3470494e-04  -5.1135232e-04  -4.7778645e-05   4.4874323e-05   1.6783198e-04   4.8740239e-06   1.4948018e-04   8.5309504e-05
   1.9815274e-05   9.3306298e-05   2.9065914e-05   1.6683052e-05  -1.6192140e-05   6.9568894e-05   2.7612117e-05   8.4366129e-06   4.3387783e-05   1.0642290e-04   9.0712296e-05   1.0884554e-05   1.1223047e-04   8.8411201e-05   4.7964833e-05   1.8120340e-05   2.5474850e-05  -7.2716000e-05   1.5805208e-04   5.8323774e-05   1.7035002e-04   2.9261475e-05   7.7989069e-05  -2.2263025e-04   7.8207770e-05  -5.3479194e-05  -4.4392084e-05   7.4116188e-06  -5.1536967e-06  -1.0963498e-05  -7.3089774e-05  -3.7499936e-05   2.0041540e-05  -8.2954364e-05  -9.6061325e-05   1.0076112e-04   4.9219743e-05  -5.4486918e-05   1.0028462e-05   5.6577712e-05  -5.0624461e-05   2.0425798e-05  -1.4123973e-04   9.9109762e-05   7.8103083e-05   9.6571421e-05   2.5626190e-04   1.4220889e-05   8.6007982e-05   6.6805660e-05
   3.0382829e-05   9.9424265e-05   1.4243558e-05   3.5370675e-05  -9.2399096e-06   9.4264666e-05   5.5133992e-06   8.5118678e-05  -4.3725013e-05   1.0939426e-04   9.7141638e-05   5.0253966e-05   1.1070386e-04   1.0158618e-04   4.6829929e-05   3.2559758e-05  -6.3581952e-06  -1.1265393e-04   2.0494081e-04   7.7775294e-05   1.4262114e-04   1.1140409e-04   7.6143333e-05  -1.8640586e-04   9.9407116e-05  -1.2839178e-04  -4.3067510e-05   8.0334597e-05  -2.5123287e-05   5.3773006e-06   1.5506614e-04   1.1015344e-05   1.4805145e-04   4.7429377e-05  -6.4940614e-05   6.6428343e-05   2.9044597e-05  -6.2560008e-05   3.6326962e-06   1.0395002e-04  -3.7424092e-05   1.2992609e-04  -1.5506295e-04  -3.6771150e-04  -1.4343548e-04   2.4637030e-04   4.0488451e-04  -1.1695907e-05   2.3917904e-05   7.3400835e-05
   2.6960912e-05   1.1179861e-04   3.3693257e-05   4.4560766e-05   6.0453985e-05   1.2347249e-04  -9.1898005e-07   5.5410757e-05   1.6682039e-04   1.2642695e-04   1.0413022e-04   8.7279142e-05   9.6911383e-05   8.4620631e-05   9.0410038e-05   1.8014060e-05   2.1340329e-05  -1.1388292e-04   3.1839480e-04   3.7298549e-05   1.8420762e-04   1.3283415e-04   6.3168198e-05   8.5806707e-05   1.1153721e-04  -8.4095343e-05  -8.5439686e-05   1.9445550e-05  -8.4143076e-06   1.0323366e-05   2.9052874e-06  -1.9277753e-04   1.0515586e-04   3.4531385e-07  -6.4601983e-05   7.5391203e-05   2.8612143e-05  -3.9177401e-05   1.3389800e-05   8.6025044e-05  -2.0406973e-05   1.4503812e-04  -1.5016856e-04  -6.0590097e-05  -5.1628838e-05   9.3694995e-05   2.4004324e-04   2.7267635e-05   3.2621228e-05   2.3006452e-05
   6.0771974e-05   1.0148254e-04   2.8096951e-05   4.5256100e-05   2.1595477e-05   7.2436967e-05   4.9047478e-05   2.9052153e-05  -2.0419867e-04   1.4080596e-04   1.4066948e-04   1.7064376e-04   1.0623327e-04   8.3821069e-05   5.6796995e-05   2.3544571e-05   2.8947341e-06  -8.7514272e-05  -3.6898840e-05   6.0367729e-05   1.4999161e-04   8.2238948e-05   7.9794510e-05   8.5262705e-05   7.9930855e-05  -3.4908317e-05  -5.2223972e-05  -1.1784879e-05   1.6300261e-05   1.6677073e-05   1.2924671e-04   2.7206637e-05   1.4094874e-04   6.0343664e-05  -5.7090310e-05   5.3897103e-05   2.6297514e-05  -4.6631474e-05   2.7044682e-05   7.8012010e-05  -4.1313142e-05   5.7898069e-05  -9.9767603e-05   4.1205771e-04  -2.5562820e-04   3.2199977e-04   3.2802852e-04   2.1422151e-05   2.4374877e-04   8.5838270e-05
   4.6384754e-05   8.9291789e-05   5.3657845e-05   4.3146421e-05   2.3205102e-05   7.2551520e-05   5.3195643e-05   1.5066027e-04  -8.1855505e-05   1.2649583e-04   1.2010406e-04   5.6694891e-05   9.1297225e-05   1.2483718e-04   4.2210042e-05   3.2232339e-05   5.7355510e-07  -7.5868164e-05   1.3266531e-04   7.2409581e-05   1.2699176e-04   1.0747656e-04   1.2405898e-04   8.1324979e-05   1.0024658e-04  -9.3021932e-05  -5.5930333e-05   5.9204758e-05  -6.4265819e-06   1.3768919e-05   4.6796238e-05  -6.1398117e-05   1.6464184e-04  -4.8642178e-05  -6.3408559e-05   7.3977142e-05   6.7400470e-05  -6.1806786e-05   3.3273380e-05   1.5639763e-04  -2.6621439e-05   2.0464936e-04  -1.3694943e-04   1.5229468e-04  -8.4754429e-05   1.3775465e-05   2.7845113e-04  -2.2924607e-05   2.0189975e-04   5.9523132e-05
   5.2053285e-05   1.1377707e-04   3.6173675e-05   3.9657705e-05   8.6661303e-06   9.0515838e-05   2.5781532e-05   6.5773056e-05  -1.9515703e-05   1.2115098e-04   9.0667992e-05   2.0068883e-05   9.4636009e-05   9.8727069e-05   4.9194841e-05   2.6773936e-05  -2.5613193e-07  -6.5960005e-05   4.5575514e-05   5.8911584e-05   1.8003440e-04   3.8411756e-05   6.8795511e-05  -1.9247695e-04   1.4576610e-04  -1.2621058e-04  -5.6876841e-05   2.4201008e-05   1.3112474e-05   2.7319369e-05  -5.3053598e-05  -3.7800746e-05   2.0962238e-04  -1.1484576e-04  -5.9279391e-05   3.1964420e-05   5.6895144e-05  -4.8390244e-05   3.4203975e-05   8.1298029e-05  -6.6143480e-06   1.0351909e-04  -8.6423017e-05   1.1679265e-04   9.6237898e-05   3.4315529e-04   2.2953779e-04  -4.6583300e-05   1.7020122e-04   9.4492381e-05
   6.2459985e-05   1.0563820e-04   5.8413563e-05   6.4954751e-05   7.7737386e-05   8.9004679e-05   2.1416829e-05   1.2431259e-04   1.1537565e-04   1.4568519e-04   1.4899770e-04   3.6359026e-05   6.8207388e-05   1.2680660e-04   4.6359208e-05   4.0940529e-05   1.1195936e-05   7.2866824e-06   5.5652880e-04   7.0542497e-05   1.8904620e-04   1.0556834e-04   1.1838665e-04   3.5561700e-04   2.5514382e-05  -6.4957450e-05  -4.1703639e-05   6.4510728e-05  -1.9197055e-06   1.4996064e-05   8.9605210e-06  -3.7465496e-05   1.8528242e-04   4.2705320e-05  -6.5236367e-05   7.9763849e-05   5.1077714e-06  -4.0681247e-05   3.1255069e-05   7.5123702e-05  -2.7196727e-05   1.2889071e-04  -1.0470899e-04  -3.8158705e-05   4.6887286e-05  -7.2953822e-05   3.3243542e-04  -4.9160510e-05   1.8850827e-04   3.8448463e-05
   1.0785458e-05   1.1970526e-04   3.9422182e-05   4.2882799e-05   3.2636864e-05   8.6947759e-05   4.4174940e-05   9.1685972e-05   8.5786465e-05   1.3189431e-04   1.2622702e-04  -1.7536022e-05   7.9562029e-05   1.3761227e-04   3.9236096e-05   5.6699053e-05   2.1740185e-05  -2.7713335e-05   6.4558932e-05   6.7848850e-05   1.7701279e-04   1.2770665e-04   8.9714798e-05  -2.6983751e-05   1.1261932e-04  -5.8624828e-05  -5.6322511e-05   2.1821454e-05  -3.9984707e-06   1.4133730e-05  -8.3360947e-06   1.0602336e-06   8.6171212e-06  -1.9045211e-04  -5.9865950e-05   7.4003168e-05   9.9540623e-05  -4.2011830e-05   2.9355446e-05   1.0415063e-04  -2.3835428e-05   2.0058070e-04  -1.2553208e-04  -4.5521033e-06   7.8644734e-05   1.8379380e-04   4.0438643e-04  -1.3138397e-05   1.3278669e-05   7.0861097e-05
   3.7326074e-05   1.0178758e-04   3.8828901e-05   5.5004974e-05   6.1922750e-05   1.0035714e-04   6.5434855e-05   9.4718111e-05   1.0036516e-04   1.3500820e-04   1.2024441e-04   5.5759836e-05   8.4174593e-05   1.3414670e-04   3.1894167e-05   4.6145960e-05   2.7429571e-05  -9.7305507e-05   4.2169398e-07   1.0422448e-04   1.5850607e-04   1.1282138e-04   8.4562111e-05   1.3920141e-04   2.5356056e-05  -1.0563374e-04  -7.6370583e-05   1.9028617e-05   7.1022820e-05   3.0970939e-05   5.7147201e-05  -1.1500271e-04   1.2380016e-04   2.2040416e-05  -4.5640325e-05   1.0044038e-04   6.1172868e-05  -4.6509896e-05   3.7095229e-05   1.2112639e-04  -1.4906357e-05   1.1137193e-04  -8.6030246e-05   2.6270971e-04  -1.0950239e-04   1.4891128e-05  -1.7574966e-05  -1.1637857e-05   1.7103177e-04  -1.9523550e-05
   9.1105241e-05   1.2778280e-04   6.3109270e-05   5.8460413e-05   3.3153414e-05   8.1472666e-05   3.4203680e-05   4.8720845e-05   5.9106653e-05   1.5426526e-04   1.4644625e-04   7.2360490e-05   7.5573014e-05   1.5406600e-04   5.2633994e-05   3.7070255e-05   1.8073093e-05  -1.3076504e-04   2.2758545e-04   1.1423969e-04   1.9842619e-04   1.0064476e-04   1.3783506e-04   1.4816716e-04   9.4284318e-05  -6.0482962e-05  -4.3510394e-05   1.3725245e-05   7.9109013e-06   3.6612557e-05  -2.7706492e-06  -1.3637655e-04   2.3535031e-05   1.8348615e-04  -3.6719910e-05   1.0395580e-04   1.2028949e-04  -3.5850859e-05   3.4870518e-05   9.2990536e-05  -3.1808209e-05   8.1433529e-05  -1.0209600e-04  -4.9633067e-04  -8.0403865e-05   1.3086887e-04   1.6066529e-04  -5.5299624e-06   2.1800880e-04   7.5169090e-05
   4.4674085e-05   1.0120573e-04   5.9113911e-05   5.6218854e-05  -2.3648117e-05   8.7030203e-05   2.0448688e-05   8.3679770e-05  -1.1062032e-04   1.2576228e-04   1.5056600e-04   7.2110131e-05   7.6001721e-05   1.1807345e-04   1.9089937e-05   4.4252549e-05   2.2490587e-05  -7.4902149e-05   7.7612101e-05   4.2916497e-05   1.6651674e-04   1.6684171e-04   1.0349356e-04  -2.4902957e-04   2.7100079e-05  -6.3826315e-05  -3.2113596e-05   7.8495177e-06   7.3151088e-05   2.7857177e-05   3.3500794e-05  -1.5228288e-05  -3.6322281e-06   3.2392985e-05  -5.6229746e-05   4.7512607e-05   7.0222864e-05  -3.8288643e-05   3.9370581e-05   9.3670795e-05  -2.3840137e-05   5.2165669e-05  -1.0585231e-04   2.1050838e-04   1.7989129e-04  -1.6832391e-04   3.6076800e-04   4.3748525e-05   1.4676727e-04   8.9043577e-05
   5.0474431e-05   1.1874604e-04   2.6255510e-05   5.2824435e-05   2.2190336e-05   9.6063042e-05   3.5686404e-05   5.4851771e-05  -6.5108936e-05   1.1555905e-04   1.2344705e-04   1.2327748e-05   9.0735302e-05   1.8160437e-04   3.7652630e-05   3.7208207e-05   2.2465092e-05  -2.4937606e-05   9.0117089e-04   1.2726257e-04   1.7529544e-04   1.0251424e-04   1.0090201e-04   2.0213268e-04   6.3796346e-05  -6.1710394e-05  -2.8461547e-05   7.1372460e-06  -4.1392410e-05   3.3537530e-05   7.4437121e-05  -3.2316129e-05  -9.3429750e-05   7.5410440e-05  -3.6048797e-05   7.1518967e-05   7.4725940e-05  -3.1829772e-05   9.7969250e-06   1.3449261e-04  -3.5461935e-06  -1.8823408e-06  -8.8078334e-05   2.1405646e-04   1.7238583e-04   8.5279193e-05   2.0195991e-04  -4.3687055e-06   1.4872456e-04   1.1526204e-04
   3.8163445e-05   1.2064591e-04   2.7901158e-05   5.7559741e-05   9.0989190e-05   1.1121463e-04   6.2788269e-05   1.5292967e-04   1.6118633e-04   1.3487303e-04   1.4839084e-04   1.0235418e-04   8.0713435e-05   1.8581489e-04   2.8296678e-05   4.7661779e-05   1.3155401e-05  -5.7857618e-05   1.9477938e-04   5.6091576e-05   1.9602575e-04   1.6907770e-04   1.0659706e-04  -1.6996044e-05   6.1403342e-05  -5.5511828e-05  -2.3096884e-05   6.4691245e-05   4.1538715e-05   3.3233860e-05  -9.4275405e-05  -2.3435057e-05   2.7588644e-04   1.8157648e-04  -2.8436751e-05   8.3713254e-05   4.6851768e-05  -5.9703361e-05   3.4324810e-05   1.0029962e-04  -1.0101886e-05   1.0137590e-04  -8.1190796e-05   1.3530569e-04  -3.7637787e-05   2.7675313e-04   9.9694822e-05  -4.4290333e-05   3.1078648e-04   7.8007506e-05
   4.9966060e-05   1.0917924e-04   5.9309987e-05   7.8411846e-05   6.0595648e-05   6.7974630e-05   9.1923263e-05   1.8379209e-04  -2.6475242e-05   1.2003235e-04   1.4778125e-04   2.8421238e-05   6.3258696e-05   1.4055161e-04   3.8400802e-05   6.1350118e-05   2.3293407e-05  -7.1243128e-05  -3.2107899e-05   5.0308176e-05   1.6172417e-04   1.6949543e-04   9.1578579e-05  -1.3270605e-04   7.5082986e-05  -8.3144943e-05  -1.0720465e-05   3.0818599e-05   6.9665293e-05   3.6100704e-05   3.5577556e-05  -4.8463546e-05   1.6253167e-04  -4.5008095e-05  -2.0874717e-05   7.9483609e-05   5.7067704e-05  -2.1158550e-05   3.2259559e-05   2.7141316e-05  -1.9608837e-05   8.9804489e-05  -1.0328720e-04  -7.2327333e-05   1.5561020e-05   1.6539132e-04   3.6931197e-05   9.2214640e-07   1.4669247e-04   7.0266608e-05
   1.3112837e-05   1.1669746e-04   3.0646803e-05   6.1048857e-05   6.8869762e-05   1.0211528e-04   8.0447091e-05   1.0292708e-04   2.8999524e-05   1.0422866e-04   1.4334905e-04   8.6885128e-05   6.4114211e-05   1.3331491e-04   6.3312291e-05   5.5220014e-05   1.5454330e-05  -8.1372862e-05   3.2133213e-04   7.9672791e-05   1.8923252e-04   1.6684982e-04   6.4017462e-05  -1.5852458e-04   6.0104641e-05  -9.3039700e-05  -1.6118856e-05   6.7394656e-05   6.8861914e-06   3.5983681e-05   9.0587935e-05  -4.2149615e-05   8.4965286e-05   2.1242957e-04  -1.7936396e-05   3.9967395e-05   1.1535832e-04  -2.7567537e-05   4.3971773e-05   9.6019881e-05  -1.0676094e-05   9.6511074e-05  -1.0309664e-04  -4.8928941e-04  -2.3670854e-04   3.2920248e-04   1.6080840e-04  -2.6353854e-07   1.7762485e-04   8.7120352e-05
   6.9737893e-05   1.2002140e-04   6.9910893e-05   6.8271358e-05   1.8611570e-05   6.2171443e-05   1.0386052e-04   1.3021707e-04   6.7144894e-05   1.0444893e-04   1.1019592e-04   3.7580743e-05   8.8609384e-05   1.6310785e-04   9.0040870e-05   5.1545161e-05   4.6417685e-05  -6.7851197e-06   3.3005438e-04   8.7222994e-05   1.4777941e-04   1.8201403e-04   1.0962451e-04  -8.0289887e-05   2.4867149e-05  -6.8658126e-05  -1.1185679e-05   1.2129040e-04   3.2070617e-05   4.4522174e-05  -7.7410652e-05  -1.4160547e-04   2.0671556e-04   9.1430156e-05  -1.5971325e-05   1.0593946e-04   1.0525444e-04  -3.6810405e-05   6.3440217e-05   1.2739989e-04  -1.5037251e-05   1.0463550e-04  -2.4726520e-05   1.5381134e-04  -1.6279331e-05   3.9327913e-04   1.4278057e-04   1.5127363e-05   1.6237740e-04   5.0633331e-05
   5.9256254e-05   1.1935884e-04   7.2526120e-05   8.0645252e-05   6.3420623e-05   1.2798954e-04   4.6862850e-05   1.4655282e-04   1.1646477e-04   1.2277073e-04   1.5217437e-04   4.8348498e-05   7.4063762e-05   1.6202489e-04   5.9988542e-05   6.3043204e-05   2.9137727e-05  -2.9726909e-05  -2.6095696e-04   1.1172231e-04   1.4794205e-04   2.0742574e-04   1.4650123e-04   2.0060779e-05   8.4548403e-05  -6.6979468e-05  -2.8633693e-05   5.5801534e-05   2.0039290e-06   5.2397649e-05   5.2156462e-05  -6.8374196e-05   3.6106227e-04  -1.2971359e-04  -1.3076997e-05   9.4620700e-05   1.3242710e-04  -1.5507896e-05   4.5924640e-05   1.0867965e-04  -2.7855011e-05   1.3268896e-04  -6.9741138e-05  -3.3800243e-05   4.7061541e-05  -1.2879899e-04   2.2037921e-04   5.1364503e-05   7.3397663e-05   8.8272238e-05
   7.0488226e-05   1.2796298e-04   7.2369949e-05   7.3735930e-05   1.1717910e-05   8.4400395e-05   4.3246466e-05   7.1016148e-05  -1.2578524e-04   9.4343661e-05   1.1634503e-04   3.0673869e-05   7.5894364e-05   1.4234112e-04   4.0648702e-05   5.8821861e-05   3.4078472e-05  -5.3560994e-05   1.0828411e-04   1.1893757e-04   1.9239489e-04   1.1851534e-04   8.2357095e-05   4.9582508e-05   6.5647284e-05  -3.3362270e-05  -4.4156615e-05   7.6581426e-05   7.2437826e-05   3.8138678e-05  -6.5322602e-05  -9.1428206e-05   2.9732083e-04   6.1840794e-05  -1.2667136e-05   4.9557189e-06   9.6126016e-05  -2.0159903e-05   5.4504751e-05   1.0691641e-04  -2.3517190e-05  -2.0965736e-05  -1.0794756e-04   3.4520615e-04   1.0590370e-04  -8.7053057e-05   1.0740644e-04   3.0345761e-06  -1.2227891e-04   3.8851093e-05
   8.5168525e-05   1.2781033e-04   4.3624223e-05   7.9292906e-05   3.7300953e-05   1.0073372e-04   5.0614748e-05   2.1144272e-04   6.4138847e-05   1.1056138e-04   1.1803324e-04   2.1529488e-05   7.8633966e-05   1.9201862e-04   3.2921034e-05   6.4968364e-05   5.2013780e-05  -2.8673336e-05  -1.6531330e-05   1.0450298e-04   1.9661637e-04   6.1992549e-05   1.1171720e-04  -1.4696085e-04   1.0829623e-04  -6.1309438e-05  -3.0654897e-05   3.3864633e-06   1.3483912e-05   4.5182700e-05   9.9463447e-05  -5.8989484e-05   1.1158093e-04   2.8534178e-05  -1.2633222e-05   9.9263336e-05   1.3848883e-04  -2.2488077e-05   5.8823451e-05   1.5890146e-04  -2.0223282e-05   1.9692688e-04  -7.2953240e-05  -1.6785163e-04   6.6617111e-05   7.9575766e-05   2.3524421e-04   3.0617710e-05   1.1892441e-04   1.2887054e-04
   5.8869562e-05   1.2061465e-04   4.1180159e-05   6.9001668e-05   6.5802131e-05   1.0611756e-04   8.0854661e-05   1.4697282e-04   1.4460737e-04   8.8120025e-05   1.1177471e-04   7.0737675e-05   7.8597033e-05   2.1221637e-04   1.3549155e-05   7.9193836e-05   4.2073018e-05  -5.5685730e-05   1.1705246e-04   5.4723547e-05   1.7881134e-04   2.0305633e-04   6.2339284e-05   1.2130065e-04   5.0930237e-05  -3.7774436e-05  -1.2240088e-05   4.5686138e-05   1.1229552e-04   5.2801537e-05   1.1062000e-04  -1.0390308e-04   6.5365348e-05  -1.1266587e-04  -1.0533710e-05   6.5501750e-05   1.1565366e-04  -1.4334368e-05   6.2865096e-05   1.8750704e-04  -1.7830149e-05   5.0804858e-05  -1.0108805e-04  -1.4995347e-04  -1.3089187e-05   8.2317471e-05   2.7229005e-04   7.9852805e-05   1.3217152e-04   6.0174320e-05
   7.8052741e-05   1.1445233e-04   9.2120965e-05   7.9486614e-05   3.0732856e-05   1.0989018e-04   8.9150286e-05   1.6101799e-04   7.7438162e-05   1.1018429e-04   1.3675544e-04   2.7221364e-05   6.7255416e-05   1.7123400e-04   4.6631882e-05   6.8962203e-05   4.1625059e-05  -7.0824666e-05   5.7667092e-04   1.2201806e-04   1.5698757e-04   2.6003062e-04   5.2075109e-05   9.8252189e-05   1.0180061e-04  -3.1021467e-05  -4.1839387e-05   1.4447736e-05  -1.9738831e-05   3.9828741e-05   1.2312150e-04  -5.5240420e-05   3.8129417e-04   4.2867981e-05  -1.7485603e-05   8.7816385e-05   9.2535935e-05  -3.9089955e-06   4.4422235e-05   1.0328114e-04  -2.2610813e-05   9.0343019e-06  -7.6926779e-05   4.3947261e-05   3.9592174e-05   4.1912372e-05   3.8826963e-04   4.9208952e-06   2.0922393e-04   9.9675315e-05
   5.6794455e-05   1.1447178e-04   5.6272780e-05   7.5877018e-05   3.5512749e-05   1.1851697e-04   1.1397604e-04   1.6209979e-04  -1.7543943e-04   9.3310038e-05   1.0090332e-04   9.0699934e-05   8.0460166e-05   1.6514039e-04   2.4353278e-05   6.9226211e-05   4.6243229e-05  -9.3027666e-05   3.3399896e-04   1.0858711e-04   1.9765545e-04   1.4318585e-04   8.4463776e-05  -1.2065105e-05   8.9746303e-05  -1.0381122e-05  -8.2410443e-06   9.5923679e-05  -1.0799844e-06   4.9103750e-05   1.1930034e-04  -9.3679148e-05   1.5250017e-04  -8.9633970e-05  -1.8372269e-06   1.1915193e-04   1.1408541e-04  -2.4007586e-05   5.0404145e-05   7.1360002e-05  -2.8020281e-07  -1.6848709e-05  -1.1214089e-04  -4.8415884e-04   1.1668390e-04   1.6983635e-04   1.1068080e-04   6.3662112e-05   1.2233933e-04   3.9242437e-05
   6.5147426e-05   1.4513941e-04   6.9061578e-05   8.0891245e-05   6.8823931e-05   1.0931512e-04   6.9448681e-05   1.8669161e-04   9.3549133e-05   8.7043954e-05   1.1439962e-04   2.1169908e-05   8.0967933e-05   2.1489766e-04   5.6205616e-05   7.3442097e-05   6.5244138e-05  -7.1864655e-05  -1.2137391e-04   1.0026772e-04   1.5242888e-04   1.0627310e-04   1.2107574e-04   1.5319268e-04   1.2614716e-04  -7.0671311e-05  -2.5067324e-05   1.1127970e-04   3.4414919e-05   6.3378640e-05   1.8377900e-04  -9.3551516e-06   1.8395491e-05   1.7272087e-04  -1.3070722e-06   1.2229780e-04   9.9383287e-05  -1.5495574e-05   4.2357613e-05   1.4307561e-04  -6.4096830e-06   1.5151026e-05  -8.4683721e-05   1.5689697e-05   6.5205219e-05   1.8043924e-04   2.2081223e-04   2.5903790e-05   2.8678742e-05   4.0837316e-05
   8.7274035e-05   1.3657681e-04   8.8210691e-05   6.9783142e-05   1.6001994e-05   1.2991873e-04   9.6203243e-05   1.0142887e-04   1.1825958e-04   1.0147158e-04   1.4301598e-04   3.7169837e-05   7.5218813e-05   1.8067683e-04   8.8070126e-05   6.9205649e-05   5.1282295e-05  -7.1649461e-05   1.2188640e-04   7.9391655e-05   1.5138226e-04   1.0226875e-04   1.7001404e-04   1.3458839e-04   1.1493114e-04  -2.7979218e-05   8.6437894e-06   8.0175792e-05  -7.5018966e-06   4.5596458e-05   2.1346494e-04   1.2246996e-05   3.5051774e-04  -7.0302565e-05  -1.6989318e-06   9.8717232e-05   1.5961820e-04  -1.1727386e-05   4.8903887e-05   1.6392407e-04   8.8736442e-07   1.7692696e-04  -8.9289395e-05   2.4365007e-04   7.0807975e-05   8.4585037e-05   4.6687273e-05   5.5314318e-05  -2.1373982e-05   1.1124303e-04
   5.0999177e-05   1.1731768e-04   6.4095249e-05   6.2614658e-05   1.0734368e-04   1.1803643e-04   6.9491020e-05   1.5328264e-04  -2.9930216e-06   8.2194703e-05   1.3211207e-04  -1.1991235e-05   9.4946568e-05   1.6465345e-04   6.2063584e-05   7.6896482e-05   5.8266342e-05   4.2177935e-06   7.8008816e-05   4.1344447e-05   1.6842481e-04   1.6937654e-04   1.1129184e-04   7.6199343e-05   9.9506600e-05  -2.0013887e-05  -3.0805237e-05   6.7310451e-05   7.4300682e-05   4.9523966e-05  -7.9432146e-05  -1.0780264e-04   7.9417812e-05   1.2640288e-04   2.9574830e-06   4.3950262e-05   1.3779517e-04  -3.7444613e-06   6.8523928e-05   1.5233137e-04  -2.1554932e-05   1.0614214e-04  -6.8574431e-05   2.6219810e-04  -4.7445588e-05   2.1893797e-05   3.7278613e-04  -2.9972280e-06   9.2679547e-05   1.1079945e-04
   9.0521455e-05   1.3005844e-04   6.6579669e-05   8.1583014e-05   7.1912349e-05   1.2458388e-04   6.1485931e-05   1.1989732e-04  -5.3321708e-07   7.3941963e-05   1.1500626e-04   2.8105071e-05   7.1440627e-05   1.7716528e-04   4.8493315e-05   7.4354561e-05   5.4177519e-05   2.1542352e-05  -7.4746604e-06   8.0955258e-05   1.7988824e-04   1.3139451e-04   1.1282037e-04  -8.1824892e-06   4.8868831e-05  -5.6717716e-05  -1.1608987e-06   7.0707116e-05   8.7075023e-05   5.8244441e-05  -3.8212202e-05   6.1425490e-05   2.5148607e-05  -5.8555353e-05  -1.2031599e-06   3.4281125e-05   1.4972010e-04  -1.4475641e-05   5.5697215e-05   1.3738169e-04   3.2148964e-06   6.4843851e-05  -9.3077455e-05   4.5985277e-04   2.8423287e-04   1.6200528e-04   3.5378002e-04  -5.2264375e-05  -1.1752739e-05   9.9026547e-05
   7.4194533e-05   1.1865459e-04   5.0443417e-05   7.8422396e-05   1.5077635e-04   9.7495700e-05   1.0271300e-04   2.0277142e-04   3.9419388e-05   6.9213420e-05   1.1667188e-04  -3.9659499e-05   7.6264208e-05   1.5940667e-04   5.2087540e-05   7.9161800e-05   6.3838495e-05   2.9260736e-05  -3.4864483e-05   1.0769998e-04   1.3820305e-04   1.2592316e-04   1.4627926e-04   5.7537115e-08   8.3138664e-05   3.3797912e-06  -1.6945796e-05   1.1403940e-04   1.4436246e-04   6.4214059e-05   7.2594207e-07   6.9822927e-05   2.4671451e-04  -2.1787324e-05  -3.4117211e-06   1.4390895e-04   1.4004532e-04   1.4358185e-06   6.5162814e-05   1.6564391e-04  -5.7995730e-06   5.1833713e-06  -1.1860626e-04  -2.8791546e-05   4.5959026e-05   6.3135907e-05   1.3190722e-04   3.6684713e-05   1.3001825e-04  -3.4327252e-06
   1.0701702e-04   1.3666143e-04   7.3059651e-05   7.7430159e-05   8.0816630e-05   1.2507349e-04   1.1460042e-04   1.0742010e-04   1.9407204e-04   8.8108347e-05   1.4577237e-04   7.9022211e-06   7.3877505e-05   1.4697191e-04   4.0395858e-05   7.5098003e-05   5.2937627e-05   2.3932557e-06  -7.8509867e-05   1.2545555e-04   1.5327412e-04   7.7511671e-05   1.1008290e-04   1.2091856e-04   1.3683196e-04  -5.3600863e-05  -9.9803137e-06   6.2968182e-05   8.5775777e-05   6.4207263e-05   2.5409536e-06   2.1277037e-06   2.5299298e-05   3.9050698e-05   1.8443638e-05   1.1247968e-04   1.0170774e-04   1.6838816e-05   4.9268619e-05   1.0806029e-04  -1.0738951e-05  -2.7187196e-05  -5.2987263e-05   7.4955181e-04   1.7160393e-04  -7.9435420e-05   7.2913303e-05   3.1890137e-05   1.4542155e-04   8.2011771e-05
   9.9697136e-05   1.3427548e-04   6.1074956e-05   8.3180290e-05   1.1202854e-04   1.6131251e-04   7.7390912e-05   1.2332470e-04   3.3042563e-06   7.9461293e-05   1.2620282e-04   5.4395434e-05   6.1050152e-05   2.2567390e-04   7.9121775e-05   7.5504278e-05   5.0540941e-05   1.8584849e-05   1.6849210e-04   1.0260748e-04   1.4539191e-04   2.1306152e-04   1.5559635e-04  -5.6876906e-05   1.8213812e-05  -5.0711729e-05  -1.7883522e-05   8.8933899e-05   6.5114487e-05   5.3635889e-05  -3.7449325e-05  -3.5614939e-05  -1.1442457e-04  -1.8769062e-05  -7.9344618e-06   1.3329125e-04   1.1798749e-04  -1.0958357e-05   6.1085026e-05   8.7423163e-05  -2.6353337e-06   5.8311862e-06  -6.1999664e-05  -1.1195388e-04   1.1618931e-04   1.8594592e-04   2.4887934e-04  -1.2363391e-05   4.1261330e-05   1.1890152e-04
   8.0217527e-05   1.3993593e-04   9.1195318e-05   8.2227743e-05   1.0465206e-04   1.2130488e-04   7.4001007e-05   1.2072095e-04   6.1486404e-05   7.5412798e-05   1.1255702e-04   1.0873566e-04   8.3661762e-05   1.9362739e-04   8.6780936e-05   8.8142879e-05   4.9225619e-05  -4.6570945e-05   2.5523643e-04   1.2142854e-04   1.3660801e-04   4.8306116e-05   1.2389720e-04   2.2447175e-04   6.4139458e-05  -8.8719105e-05   9.4316010e-06   1.3007162e-04   3.6527017e-05   5.5836008e-05   2.5798085e-05   1.4386028e-04  -1.2599945e-04  -2.7801330e-05  -3.3576441e-06   3.7772348e-05   1.3712901e-04  -1.4139810e-05   7.1311704e-05   1.8532528e-04   3.6153526e-06  -3.8101178e-05  -5.7631714e-05   1.9171178e-04   4.4226534e-05   2.9857201e-04  -4.2395877e-06   3.8715178e-05   2.0243875e-04   3.6512149e-05
   1.0492429e-04   1.3398468e-04   9.8159093e-05   9.0103131e-05   6.9654583e-05   1.2580919e-04   2.7657919e-05   5.3092514e-05   1.3124896e-04   7.4188043e-05   1.4042173e-04   5.1334526e-05   7.6917837e-05   1.7313490e-04   5.6571640e-05   8.3614075e-05   5.3156298e-05  -2.1278220e-05   3.6181870e-04   9.3449999e-05   1.4582217e-04   2.2208381e-04   1.0013038e-04   1.4639267e-04   1.4228832e-04  -4.7000078e-05   5.4833970e-05   8.7812623e-05   5.3218366e-05   6.1696897e-05   2.0553985e-05   5.1274299e-05   1.1832752e-05  -7.8209894e-05  -4.6628719e-07   1.4075126e-04   9.2193630e-05   3.6577816e-07   5.9276903e-05   9.4999654e-05  -1.5134551e-05  -7.6646778e-05  -9.9487923e-05   5.6697114e-05   2.7774589e-04  -6.8290705e-05   4.2608925e-05   4.4861739e-05   2.7619401e-04   8.0302176e-05
   9.3498784e-05   1.3710459e-04   9.8734148e-05   6.7034809e-05   1.1054499e-04   1.2608168e-04   5.7696670e-05   2.0397063e-04   1.6246687e-04   8.1127320e-05   1.2172384e-04   2.7078991e-05   8.2569612e-05   1.9469016e-04   8.0034246e-05   8.9255285e-05   4.7491147e-05  -3.8554390e-05   2.3885859e-04   7.9679085e-05   1.5185661e-04   2.9484841e-05   9.1027272e-05  -5.2579955e-05   5.6424360e-05  -6.1716739e-05   1.7434999e-05   8.1101920e-05   4.0482922e-05   6.1837905e-05  -6.0608327e-05   3.7219368e-05  -9.4653617e-05   1.5976648e-04  -1.1022803e-05   1.5776839e-04   1.3015109e-04  -3.2559859e-05   4.7584454e-05   1.3084350e-04  -1.6583259e-05   9.6782074e-05  -8.2062194e-05   9.6668038e-05   1.2039173e-04   2.7611959e-04   1.2249871e-04   1.6154823e-05   2.2056313e-04   1.5987619e-04
   8.5196014e-05   1.2136802e-04   8.1131133e-05   9.8040910e-05   1.2222528e-04   1.0868786e-04   6.8348047e-05   2.1355950e-04   2.1738425e-04   7.8821351e-05   1.0993089e-04   6.1681599e-06   7.0317306e-05   1.6511571e-04   7.2549010e-05   7.7981866e-05   2.0563919e-05   1.6511282e-05   3.2420352e-04   9.0419213e-05   1.4454981e-04   1.2714091e-04   5.9768456e-05   1.9527189e-04   2.0868074e-04  -9.2894094e-05   3.3923869e-05   1.5464025e-04   9.4627969e-05   7.2754432e-05   1.9135921e-04  -3.3928740e-05   2.3555473e-04   1.7311102e-05  -5.1996121e-06   1.2997545e-04   8.9215013e-05  -2.8679508e-05   6.8256821e-05   1.2532946e-04  -6.4794990e-06   3.2804182e-06  -8.8435743e-05  -1.6156875e-04   1.8237809e-04   1.9929833e-04   2.2376620e-04   1.7548142e-05   1.5040746e-04   5.4986584e-05
   1.2814312e-04   1.3437694e-04   8.4492378e-05   9.0099180e-05   8.4845196e-05   1.3270976e-04   7.7638986e-05   1.5323696e-04   1.9279773e-04   8.3957195e-05   1.3099084e-04   3.9304548e-05   6.9908296e-05   1.7198279e-04   6.0364047e-05   7.9421516e-05   6.4539185e-05   1.0521455e-05   4.2251745e-04   9.8640950e-05   1.4463020e-04   1.2675088e-04   1.0720106e-04  -1.8978545e-04   9.8373028e-05  -2.3911341e-05  -2.5603331e-05   1.5217015e-04   4.5521134e-05   7.1101807e-05   1.1367533e-04  -2.5073752e-05  -2.2063665e-05   3.1605341e-05   8.3768755e-06   1.4359246e-04   1.5141696e-04   7.8051971e-06   5.5296769e-05   1.6606583e-04  -1.0004913e-05  -7.9486628e-05  -1.1529549e-04  -1.4033081e-04   1.2806291e-04   1.5993169e-04   1.8913667e-04   3.5010973e-05   6.3937368e-05   6.0834238e-05
   9.7905206e-05   1.3010655e-04   9.4237083e-05   9.4228373e-05   5.4297536e-05   1.2270694e-04   5.8661779e-05   1.3774143e-04  -4.5898356e-05   7.7601064e-05   1.3281970e-04   1.0926611e-04   5.9000631e-05   1.6573074e-04   6.5517401e-05   7.1801813e-05   6.1315746e-05   4.1169762e-05  -1.3790763e-05   1.2770788e-04   1.1449805e-04   5.5076067e-05   1.1580128e-04  -1.4909459e-04   3.1559710e-05  -8.3935913e-05   2.4792595e-05   5.1108789e-05   4.1398202e-05   7.0330323e-05  -1.3684439e-04   1.3902053e-04   4.3319502e-05  -2.5858799e-06   2.3076964e-05   7.6858349e-05   8.2933839e-05   6.1494245e-07   6.6686800e-05   1.8219609e-04   8.4105807e-07   3.4585002e-05  -5.7018744e-05   1.6001626e-04   2.4825035e-04   3.2067968e-05   9.9397577e-05   5.8136869e-05  -3.4097025e-05   5.1194460e-05
   1.1528531e-04   1.3980721e-04   6.4808235e-05   9.1391696e-05   1.2170182e-04   1.1382882e-04   9.6349686e-05   1.4060231e-04   1.3764687e-04   6.1377890e-05   1.3224987e-04  -5.3011245e-05   7.0925504e-05   1.6964166e-04   5.1301355e-05   8.2399507e-05   5.4890515e-05  -8.9210062e-06   4.8348337e-04   1.2221999e-04   1.2206541e-04   1.0910918e-04   1.1545619e-04  -7.6234110e-06   4.2623557e-05  -4.0085390e-05  -5.4129055e-06   1.5014036e-04   4.7145804e-05   8.8903362e-05  -4.0723193e-05   6.3595158e-05   2.6386447e-04   1.6200942e-05   1.3030086e-05   1.0413805e-04   1.0269047e-04   5.6657723e-06   9.0646958e-05   1.6105593e-04  -2.4384340e-06  -1.9191939e-06  -6.5855114e-05   6.0047698e-04   2.2410012e-04   8.9715875e-05   2.6881913e-04  -2.8351875e-05   1.5093083e-04   1.1208235e-04
   9.4552764e-05   1.4117089e-04   8.5777188e-05   9.0076450e-05   1.0484515e-04   1.2766499e-04   9.2195449e-05   1.2233345e-04   2.4458172e-05   6.8939087e-05   1.4010025e-04   1.9144916e-05   7.2524803e-05   1.7693955e-04   7.1276707e-05   8.9550216e-05   7.3800358e-05   3.0805208e-05  -1.0392549e-04   1.2048895e-04   8.7296081e-05   2.4651355e-05   8.5452761e-05   1.1091554e-04   1.6484724e-04  -2.8402677e-05   3.1238447e-05   8.7487817e-05  -1.7767157e-06   7.2483272e-05   6.6959037e-05   6.7044366e-06   1.2766963e-04   9.1338711e-07   1.4275187e-05   4.9399790e-05   1.4894234e-04   6.3974621e-06   6.6824949e-05   1.2680293e-04   9.4874935e-08  -3.1546180e-05  -7.2309471e-05   1.3726625e-04   1.1353836e-04   1.9946232e-05   1.1528487e-04   1.8625256e-05   1.0438780e-04   9.6489108e-05
   8.3266234e-05   1.4690621e-04   9.1855873e-05   9.6066957e-05   1.4572057e-04   1.1914197e-04   7.7977042e-05   1.6776277e-04  -1.5760038e-06   4.4426091e-05   1.3233458e-04  -3.1888201e-05   5.8667451e-05   2.2279822e-04   5.8827773e-05   1.0394401e-04   6.7135043e-05   4.8811919e-05   2.9595761e-04   1.0157101e-04   1.1021135e-04   1.2356132e-04   1.0634142e-04  -1.4738025e-04   1.5918096e-04  -6.8381058e-05   2.1432348e-05   1.4478134e-04   8.3856658e-06   6.9530448e-05   1.7701347e-04  -9.4905095e-05   3.7199681e-04   1.0045012e-04   1.8865801e-05   9.3086099e-05   1.1585093e-04  -9.1863858e-06   6.6191613e-05   7.9391873e-05  -1.8235741e-06  -7.7744917e-05  -4.8210382e-05  -7.2460207e-05   1.1371622e-04   1.1956145e-05   3.7625025e-05   9.7324323e-07  -7.1328186e-06   1.8159856e-04
   9.2298083e-05   1.4840146e-04   8.8467707e-05   9.7472752e-05   7.9380130e-05   1.4203615e-04   9.0365233e-05   1.2326922e-04   4.9279821e-05   5.2544583e-05   1.0941774e-04   2.6832933e-05   7.2462361e-05   1.7916580e-04   5.3076703e-05   9.4196606e-05   7.4782045e-05   4.3576023e-05  -2.1768484e-04   8.7972621e-05   1.1409295e-04   1.8207866e-04   1.3526196e-04   1.2325431e-06   9.9810131e-05  -2.1968937e-05   4.4910372e-05   1.1569546e-04   2.9916147e-05   7.0079623e-05   1.1660592e-04   5.4511394e-05   2.4511586e-05   1.8190304e-04   1.7503935e-05   7.3702926e-05   1.0241624e-04   8.3248751e-06   7.9700185e-05   1.1277305e-04   1.8188015e-08  -2.2418222e-05  -1.4057111e-04  -1.1159803e-04   5.5233817e-05   1.5857878e-04   4.6788951e-05   1.5967935e-05   6.4580920e-05   4.4123321e-06
   8.8850044e-05   1.4879569e-04   9.0263733e-05   1.0508141e-04   9.3745221e-05   1.3045869e-04   1.0774877e-04   1.2383144e-04  -1.2879245e-04   4.7777019e-05   1.4390729e-04   4.9762330e-05   7.2735580e-05   1.7845788e-04   2.3337911e-05   1.0040843e-04   6.8947542e-05   2.0495452e-06   1.6665974e-04   1.1081618e-04   1.4620312e-04   1.2440565e-04   1.6038523e-04   4.0794566e-04   1.3615841e-04  -2.7258200e-05   5.1208546e-05   7.1052913e-05   4.9540409e-05   7.9137557e-05   4.1512674e-05  -8.4388150e-05  -4.0780687e-05   1.4750961e-04   3.6381745e-05   1.1941328e-04   1.0757032e-04  -1.6118255e-06   6.8190406e-05   1.1022147e-04  -2.5655405e-05  -6.0119244e-05  -7.0144604e-05   1.7202120e-04   1.3723728e-04   3.0783020e-04   2.7434467e-05  -1.5211171e-05   6.0301387e-05   8.7875233e-05
   9.9929406e-05   1.2656068e-04   7.3315336e-05   1.0688719e-04   7.7860466e-05   1.3773041e-04   8.0660328e-05   1.1222558e-04   1.4854944e-04   3.9037932e-05   1.1048834e-04  -4.5440433e-05   7.1200680e-05   1.8703024e-04   7.9654586e-05   9.8924247e-05   8.7740096e-05   4.1254998e-06   1.1351980e-04   1.1887648e-04   1.0631329e-04   1.2449791e-04   1.3391276e-04   1.2571597e-04   1.4642370e-04  -2.1887086e-05   3.6744954e-05   8.8876099e-05   4.5414239e-05   7.3297051e-05   2.4882365e-06   8.8228626e-05   5.1203079e-04   1.1177463e-05   2.7105363e-05   8.0441518e-05   8.4707935e-05  -5.2851365e-06   5.2156203e-05   1.1728467e-04  -2.3489765e-05  -1.2823027e-04  -1.0448979e-04   2.9725992e-04   1.4772569e-04  -1.3402072e-04   5.4194283e-05  -2.1419002e-05  -5.4057247e-05   9.4888856e-05
   1.0042350e-04   1.4453415e-04   7.2701499e-05   9.8866774e-05   9.8442273e-05   1.0627009e-04   1.2159921e-04   1.2649830e-04  -2.9870282e-05   3.3606317e-05   1.3711389e-04   9.1703523e-06   7.8947473e-05   2.1284545e-04   5.7243207e-05   1.0093200e-04   7.2679475e-05   5.8130554e-05  -2.8626773e-05   1.0167559e-04   1.1928876e-04   9.8226585e-05   1.2016463e-04  -4.4162891e-05   1.5971324e-04  -3.3294848e-05   1.4161898e-05   4.7290723e-05   4.3677195e-05   6.5067419e-05   1.2495661e-04   3.3180559e-06   9.4915180e-05   6.0362963e-05   1.5576365e-05   8.3004961e-05   1.3819075e-04  -1.1006387e-05   5.8352303e-05   1.6568162e-04  -2.0079275e-05  -9.0490621e-06  -9.8821576e-05   2.9246235e-04   1.0996042e-04   1.5010708e-04   7.9600264e-05   7.7687109e-06   3.5590416e-05   5.5684191e-05
   6.5513574e-05   1.4246033e-04   1.3342388e-04   9.5770105e-05   3.8805778e-05   1.2594393e-04   7.7424236e-05   1.3839727e-04   1.7421805e-04   3.1715732e-05   1.2469607e-04  -1.5926562e-05   8.4864718e-05   2.0468644e-04   3.0060059e-05   1.0206409e-04   6.7909212e-05  -1.8051644e-05   3.1723018e-04   1.2939985e-04   1.0547480e-04   1.0958420e-04   1.0681398e-04   1.0645230e-04   1.7162936e-04   1.9200299e-05  -1.9273453e-05   1.5589163e-04   8.7915403e-05   6.6673951e-05   7.2987154e-05  -6.7189947e-05   1.1472585e-04   1.8023598e-04   3.2962667e-05   1.0930301e-04   1.3307329e-04   1.2978259e-06   4.8734106e-05   1.0678547e-04  -2.3044193e-05  -1.5629854e-04  -1.3134677e-04   4.3269788e-04  -3.3443124e-05   1.1800371e-04   1.8198321e-05  -1.4124766e-05  -1.1599965e-04   1.3180207e-04
   1.3367024e-04   1.4181831e-04  -2.4183648e-05   8.3854531e-05   5.5874593e-04   1.8925738e-04   9.5971875e-05   1.9582480e-04   2.6794334e-04   3.2930095e-06   7.8768135e-05  -6.8136040e-05   8.0187354e-05   1.6946855e-04   5.3807740e-05   8.5747190e-05   8.1710059e-05   8.2519888e-05  -3.3852569e-04   5.8098929e-05   2.9794350e-05   7.2878038e-06   1.6274452e-04   2.3002221e-04   1.9592537e-04  -2.2977945e-05   3.3626260e-05   1.6672634e-04   1.1401661e-04   6.6459943e-05  -6.6442626e-05  -1.6525820e-04  -1.7363952e-04  -1.5655905e-04   3.9236100e-05   1.4727291e-04   1.2041666e-04   6.1271644e-06   5.6303728e-05   5.6906283e-05  -3.2804903e-05  -2.1072742e-04  -7.8072328e-05  -1.6256861e-05  -2.6634701e-05   2.6083444e-04   2.4331220e-04   2.7031153e-06  -8.0317499e-05   1.0196059e-04
   1.1431479e-04   1.4611444e-04   9.4581890e-05   1.0312321e-04   9.1251197e-05   1.1365514e-04   8.5092441e-05   1.6020599e-04   2.5009831e-06   2.6132615e-05   9.3869457e-05  -8.3204483e-05   8.0628924e-05   1.7369840e-04   5.5981865e-05   1.0261817e-04   5.4310512e-05  -6.3188119e-05   3.4789875e-04   1.0336812e-04   1.1088881e-04   6.7756246e-06   5.4889122e-05  -1.9824758e-04   1.8583487e-04  -1.8366866e-06   7.2659852e-05   3.1026266e-05   1.0027201e-04   5.8012156e-05   5.7566365e-05  -4.0248626e-05   7.0666800e-05   1.8168736e-04   1.2475190e-05   1.0222121e-04   1.3502919e-04  -2.4318253e-05   4.7624799e-05   1.3073525e-04  -5.3577987e-05  -2.3717401e-04  -1.2000030e-04  -2.4535981e-04   1.7673880e-04   3.8094422e-05   5.7412621e-05   3.4746892e-05   4.5403434e-05   4.8510858e-05
   9.3528055e-05   1.4834467e-04   7.1061513e-05   9.8310025e-05   5.2615978e-05   1.3961460e-04   7.9478261e-05   6.0035534e-05   1.6481901e-04   6.4682008e-06   1.1390994e-04  -6.3912055e-05   9.6231750e-05   1.8855928e-04   3.4123823e-05   9.1961039e-05   7.9440339e-05   3.4405402e-05   3.6435539e-04   6.9413290e-05   5.2118288e-05  -1.8756160e-05   1.5511701e-04  -9.2022157e-05   1.8602240e-04   1.1808915e-05   3.4639554e-05   1.1488652e-04   3.3128152e-05   4.9784972e-05   9.5411851e-05   1.0329513e-04   2.2205741e-04   3.5590274e-05   1.6345119e-05   8.1246049e-05   6.6817520e-05   2.7422175e-06   4.2248979e-05   1.0200303e-04  -6.9179536e-05  -2.9801350e-04  -1.0856534e-04   1.0832314e-05   5.1034967e-05   1.5056475e-04  -1.4760785e-04  -4.7959125e-05  -9.2430375e-05   6.6960878e-05
   1.0795395e-04   1.5613857e-04   8.4812782e-05   9.0444526e-05   1.1405720e-04   1.3282416e-04   5.7078185e-05   1.2141511e-04   6.1279890e-05  -7.3700353e-06   7.0245973e-05  -6.5948174e-05   1.0855350e-04   1.4186863e-04   1.0805570e-05   8.9176290e-05   5.9389477e-05   7.1434937e-05  -1.2616653e-04   1.1480102e-04   4.8926784e-05   9.1288479e-05   1.0172078e-04  -4.1748339e-04   8.6305678e-05  -4.4850090e-05   1.7471595e-05   1.0166772e-04   2.8239856e-05   6.9713373e-05   9.5254938e-05  -9.2545170e-06   1.8356547e-04   3.2036249e-05   2.1250291e-05   8.9665395e-05   8.9085937e-05  -8.1622602e-06   4.8689890e-05   4.1537773e-05  -5.1204217e-05  -1.0615686e-04  -1.3424901e-04   5.0281506e-04   3.5294528e-05  -3.8547656e-05  -2.5993964e-05  -1.0000121e-05   2.1763399e-06   5.7711273e-05
   1.1234444e-04   1.5511134e-04   7.2914241e-05   8.9446599e-05   1.0975401e-04   1.1898974e-04   6.5875072e-05   1.2409284e-04  -6.2766580e-05  -1.9808578e-05   5.8503560e-05  -4.2075091e-05   1.1659491e-04   1.5487474e-04   7.4159158e-05   8.4079089e-05   7.9557809e-05   1.4799659e-04   3.7330299e-04   1.4100231e-04   3.7126181e-05   1.0380075e-04   1.1333217e-04  -4.1737879e-04   1.2455988e-04  -3.1404765e-05   3.2911623e-05   5.1286719e-05   1.6695019e-06   5.5087170e-05   9.4752198e-05   2.4262887e-05   3.4716108e-04   4.3570712e-06  -3.0915576e-06   2.5679514e-05   9.9829835e-05  -1.1077791e-05   4.4656030e-05   1.1565772e-04  -3.0182069e-05  -1.9736937e-04  -1.0406790e-04   2.5649386e-04  -1.0283438e-05   4.0568598e-04  -8.8876433e-05   6.0935849e-07  -2.0342811e-04   2.3462198e-06
   1.2251032e-04   1.3918377e-04   8.9183923e-05   8.7093598e-05   7.7332399e-05   1.4080752e-04   4.2260035e-05   1.2812171e-04  -1.6641915e-04   2.8377181e-06   8.5513173e-05  -3.9418090e-05   1.1164393e-04   1.5481302e-04   9.9504741e-06   9.9222234e-05   6.9531270e-05  -6.4841486e-05   3.1999420e-04   8.1917002e-05   9.1137292e-05   1.2954962e-04   1.5441880e-04  -7.3116214e-05   1.4608772e-04  -2.0035322e-05  -3.0871200e-07   8.2523220e-05   2.8553202e-05   5.6518464e-05   5.0502702e-05  -3.0601321e-05   1.5754071e-04   1.2277931e-04   3.6329798e-06   4.1737512e-05   1.6786285e-04  -2.2448194e-05   5.3119042e-05   6.5738059e-05  -3.8688933e-05  -2.9837925e-04  -1.8608804e-04  -4.1361805e-04   5.5782602e-06   2.6759284e-04   2.3151968e-05  -3.1924250e-05  -1.7828563e-04   9.9658842e-05
   1.0663670e-04   1.4642754e-04   7.8582547e-05   8.2120292e-05   5.8137168e-05   1.4100084e-04   5.2678370e-05   1.3020560e-04   7.1924689e-05  -1.8518640e-05   5.8509693e-05  -4.0151364e-05   1.0821018e-04   1.7207915e-04   5.8452977e-05   8.4273037e-05   6.9727590e-05  -1.7964785e-05   4.2986730e-04   7.5813397e-05   6.4867061e-05   5.9636808e-05   1.0228263e-04  -2.2575344e-04   1.6305497e-04  -5.0465311e-05   6.5442946e-06   9.4703377e-05   4.5147499e-05   5.7351932e-05   4.4072971e-05  -1.0221140e-05   1.2268274e-04  -7.3736875e-05   1.6622479e-06   3.9782775e-05   1.0727040e-04  -1.5993050e-05   3.9433777e-05   1.2985714e-04  -3.5783785e-05  -8.6307635e-05  -1.2514683e-04   6.9074988e-05  -6.8047637e-05  -8.1241713e-05   2.1908055e-04  -5.6842542e-05  -8.0236256e-05   7.8591671e-05
   1.0031084e-04   1.5791155e-04   7.9152669e-05   1.0251760e-04   7.1333227e-05   1.3254551e-04   7.2029521e-05   1.2462976e-04  -1.1723266e-04  -1.0648110e-05   2.0061661e-05  -3.9168230e-05   9.7656441e-05   1.7102565e-04   6.6166896e-05   9.0916394e-05   7.0180242e-05   5.0508526e-05   1.8882807e-04   1.1223549e-04   7.6558114e-05   5.7683614e-05   1.3448720e-04  -1.6945266e-04   6.6076209e-05  -6.2167361e-05   3.6815454e-06   9.3888906e-05   6.7622546e-05   6.1883497e-05   8.7769331e-06  -3.5208726e-05   3.6530601e-04   1.6133185e-04   9.9760450e-07   8.0524711e-05   1.0180831e-04  -1.9129538e-05   3.6682279e-05   1.1033823e-04  -4.2778101e-05  -1.6523541e-04  -1.5195776e-04   3.1117638e-04   6.1320483e-05   2.5867971e-04   2.0345331e-04   4.7529629e-05  -3.4905843e-05   5.1884548e-05
   1.3936036e-04   1.5084616e-04   1.0412269e-04   9.7887554e-05   6.6803033e-05   1.3854673e-04   9.6734853e-05   7.9860911e-05  -6.9849200e-05  -3.0548938e-06   8.6338041e-05  -6.0916959e-06   1.0965426e-04   1.1232483e-04   4.5362765e-05   8.6020620e-05   4.7757298e-05  -4.6039739e-05   2.7709841e-04   1.0480102e-04   5.0648254e-05   1.2970883e-04   1.0761547e-04  -6.6152730e-05   1.2049529e-04   3.5644094e-05   4.1725460e-05   4.7102993e-05  -2.9692046e-05   4.0625466e-05   9.1966998e-05   7.0424248e-05   6.9957714e-05   4.1881140e-05  -2.5583588e-06   3.3068358e-05   6.3192667e-05  -5.4095531e-06   6.2077699e-05   1.1538462e-04  -5.7327921e-05  -2.3462744e-04  -1.2891818e-04   1.2909001e-04   1.3280574e-05  -1.3146676e-04   1.0105551e-04   2.9213481e-05  -5.5454952e-05   7.7965706e-05
   9.3402741e-05   1.4185793e-04   8.9048597e-05   9.7754462e-05   5.0725968e-05   1.2477471e-04   6.4255066e-05   9.2105627e-05   1.0728282e-04  -1.3999609e-05   6.5974753e-05  -9.9027500e-05   1.0034384e-04   1.3805075e-04   5.8212845e-05   8.8395915e-05   6.6440392e-05  -4.1786428e-05  -5.2852527e-05   5.8480317e-05   3.7229474e-05   6.6458946e-05   5.8855916e-05  -3.8347411e-05   1.8951400e-04   5.2955247e-06   2.9352046e-05   9.4876006e-05   4.6633642e-05   5.8809521e-05   9.6115939e-05   8.2112620e-06   2.2051498e-04  -1.6349969e-04   1.2889204e-05   7.6769771e-05   7.8915764e-05  -2.8797417e-06   3.0324152e-05   6.8011163e-05  -5.1494695e-05  -8.2302649e-05  -1.1603459e-04   1.2770000e-04  -3.6261765e-05   8.9937108e-05   1.0811623e-04   7.6645310e-06  -2.9929439e-05  -1.0368444e-04
   1.1321063e-04   1.4358117e-04   6.0894501e-05   7.4624055e-05   8.6116670e-05   1.2895123e-04   9.6915748e-05   7.7566350e-05   1.3177517e-04  -1.4162988e-05   4.3278917e-05  -1.8962730e-05   9.9798715e-05   1.7465043e-04   5.2800740e-05   8.8440203e-05   6.6537024e-05   6.1296952e-05   6.6909386e-04   1.3767966e-04   5.1038420e-05  -1.1077036e-05   1.2502659e-04  -1.0215973e-04   1.7889382e-04  -4.4277669e-05   2.3022427e-05   1.0639118e-04   3.8277660e-05   7.9984566e-05   7.2588795e-05   1.0283095e-05   3.6570575e-05   1.2764988e-04   2.7718896e-05   1.2266045e-04   1.4304607e-04  -1.6233605e-05   4.6143352e-05   1.5845186e-04  -1.9968431e-05  -1.1828786e-04  -1.0858965e-04  -9.3383933e-06  -8.2258601e-05   1.1512381e-04   1.6622052e-04  -4.9886853e-06  -5.2339681e-05   7.4644980e-05
   8.5229010e-05   1.5302243e-04   9.6629214e-05   9.7845717e-05   8.3594110e-05   1.3325861e-04   7.4966963e-05   1.5057031e-04   1.1228547e-04  -2.3825305e-05   7.4145035e-05  -2.3402494e-05   1.1360680e-04   1.6263146e-04   3.1898897e-05   8.8353154e-05   7.3759489e-05   6.6197288e-05  -1.3588673e-04   8.9750974e-05   8.1178834e-05   1.5271078e-04   1.4890257e-04  -2.5503563e-05   1.1425265e-04  -2.3395607e-05   1.4578161e-05   5.6918583e-05   9.6337972e-06   5.8853668e-05   1.1477806e-04  -5.1720010e-05   1.0662924e-04   1.8448009e-04   2.8335418e-05   9.2915674e-05   1.5844886e-04   1.1671747e-05   4.5881832e-05   1.3182608e-04  -1.7265187e-05  -1.1997301e-04  -1.0316847e-04   3.3663928e-05   1.8267285e-04   1.7489268e-05   2.1746628e-04  -2.1789192e-05   3.6241439e-05   2.9277862e-05
   1.4115810e-04   1.4606414e-04   9.2715112e-05   8.8472509e-05   1.3425116e-05   1.2417499e-04   8.5474945e-05   7.8112607e-05   8.0315142e-05  -8.1809176e-06   9.5254312e-05  -2.4441297e-05   8.5430904e-05   1.5545993e-04   1.7092585e-05   8.4167485e-05   6.8019217e-05   7.8916200e-05   3.2221072e-04   6.9582682e-05   4.4980992e-05   4.1404735e-05   1.1334562e-04  -1.6179979e-04   1.6924192e-04   4.8343469e-07   8.2287734e-05   3.2352244e-05   4.7419126e-05   6.7324763e-05   1.3958564e-04   2.5044134e-05  -2.2559741e-04   1.1210146e-04   1.0548431e-05   1.0697732e-04   1.0626656e-04   3.2487555e-06   3.5019129e-05   1.5138306e-04  -2.7256801e-05  -9.7016033e-05  -1.2354142e-04  -2.2567061e-04   3.2779021e-04  -1.0389027e-04  -1.3933566e-05   1.3571485e-05   9.9694735e-06   1.2698857e-05
   1.1524358e-04   1.4944383e-04   9.3343646e-05   7.9444777e-05   9.4874347e-05   1.2102439e-04   5.8236383e-05   6.8058231e-05   2.6114736e-04  -1.3181729e-05   5.8427333e-05  -9.8089185e-06   8.7664303e-05   1.4482702e-04   2.8639008e-05   8.3745559e-05   8.0402882e-05  -1.7352857e-05  -1.9514846e-04   8.1894730e-05   8.4636406e-05   8.7293396e-05   1.7202480e-04  -2.9109576e-04   8.9173431e-05   1.6962751e-05   5.1248990e-05   6.3733532e-05   8.9549088e-05   9.5202515e-05   1.5792692e-04   4.6454945e-05   2.5935442e-04  -1.4644774e-05   1.4765766e-05   9.9733195e-05   8.6341854e-05  -4.4182225e-06   5.9175436e-05   7.4932512e-05  -2.0050671e-05  -1.4699507e-04  -9.3037233e-05  -4.9037302e-05  -3.2387885e-05   2.1600143e-04   3.5559351e-06  -8.2980703e-05  -7.0792536e-05  -1.5092557e-05
   1.2618925e-04   1.7120944e-04   7.4735108e-05   9.3253620e-05   8.7100008e-05   1.3085370e-04   7.0982685e-05   9.1434995e-05   3.6656222e-06  -2.2013022e-05   6.3017869e-05  -2.2364284e-05   9.4637202e-05   1.9507960e-04   6.4255575e-05   1.0446347e-04   7.2163435e-05   4.5969555e-05  -3.2836513e-04   7.7507575e-05   6.9303620e-05   3.1735381e-05   1.5934778e-04  -1.6586631e-04   1.4726685e-04   2.7462582e-05   4.9849517e-05   7.2177398e-05   1.2313778e-04   6.7796063e-05  -2.8797931e-06  -6.2308878e-05   2.3979842e-04   7.5306685e-05   4.9240341e-05   1.1057769e-04   8.7861212e-05   1.6572600e-05   4.4991375e-05   1.5108701e-04   2.8903728e-06  -3.6101363e-05  -9.5126758e-05  -1.7695760e-04   1.2088093e-04   2.0008806e-04  -2.3120812e-05  -8.2527049e-06  -2.0252781e-04   4.8954935e-05
   1.5433434e-04   1.5768570e-04   8.1724633e-05   9.3081529e-05   1.0077280e-04   1.0558472e-04   7.5945391e-05   1.4438714e-04   4.5481902e-05   3.0351962e-06   7.7215700e-05   7.3772811e-05   7.3716175e-05   1.9149690e-04   4.6945577e-05   1.0302503e-04   4.7053949e-05   3.0975891e-05   1.7764328e-04   4.3459979e-05   6.1078477e-05   1.6322579e-04   1.1908323e-04  -2.5417021e-04   1.0372124e-04   3.5655845e-05   6.1361847e-05   9.6308810e-05   1.3502905e-04   6.9897382e-05   6.4981577e-05  -6.8387948e-05   3.7878365e-04  -6.2172097e-05   2.2414677e-05   7.3848249e-05   5.9826827e-05   2.2110229e-05   6.7596440e-05   1.0654287e-04  -9.5029345e-06  -7.7363220e-05  -1.1393405e-04   2.8005830e-04   1.7640802e-04   1.4093569e-04  -1.6255621e-04  -5.3160536e-05   7.0205133e-05   1.0356514e-04
   1.4593118e-04   1.4912219e-04   9.8149452e-05   1.0726574e-04   5.8254023e-05   1.2376573e-04   5.9459657e-05   9.9050900e-05   3.3020457e-05  -3.1738791e-06   6.1310078e-05  -1.9140707e-05   1.0236031e-04   1.6177779e-04   3.5921428e-05   1.1148264e-04   6.3765816e-05  -3.5955291e-05   4.9639825e-04   8.2492988e-05   6.0917781e-05   1.1199294e-04   1.1267106e-04   4.4265881e-04   1.0777662e-04  -2.2862352e-05   8.9942383e-05   1.0465825e-04   1.5154233e-05   6.9077578e-05   3.9231865e-05  -3.1124830e-05   3.6822728e-04   6.4083201e-06   4.3615011e-05   1.6904852e-04   8.8755223e-05  -5.8558453e-06   5.6516863e-05   9.9230172e-05   8.4809062e-06  -1.2105955e-04  -6.0812396e-05  -1.1986669e-04  -4.3453052e-05   1.5275716e-04  -1.4698970e-04  -2.8232906e-05  -1.9193767e-05   2.6546804e-05
   1.4263831e-04   1.5963110e-04   8.1457103e-05   9.3067974e-05   1.6173789e-04   1.2187150e-04   8.8712361e-05   9.8246921e-05  -4.3930999e-05  -2.2622802e-05   7.7161953e-05  -3.8880960e-05   9.6696196e-05   2.1039149e-04   1.6353111e-05   9.8019118e-05   5.3078278e-05   3.9719223e-05   3.9485580e-04   6.5142791e-05   2.2180137e-07   9.3925446e-06   1.1721661e-04  -3.0603661e-04   1.0717538e-04   1.0740986e-05   6.0369392e-05   7.3757459e-05   1.1750371e-04   8.2306469e-05   7.7113509e-05   1.3916781e-05  -7.6239114e-05  -2.3916764e-05   2.8993536e-05   3.7409911e-05   1.5953914e-04   3.3513570e-05   3.9079718e-05   1.1158022e-04   1.1697239e-05  -7.3599425e-05  -8.9958710e-05   2.2072328e-04  -1.8463774e-04   3.1739604e-04  -1.2209386e-04  -4.2887808e-05   1.2565881e-04   4.5765955e-05
   1.1023747e-04   1.4843895e-04   1.0237417e-04   1.1546203e-04   8.7071596e-05   1.2690792e-04   1.1543518e-04   1.2706760e-04   1.6080438e-04  -2.0256093e-05   1.1945626e-04  -2.3134156e-05   7.8961937e-05   1.6749653e-04   3.7510797e-06   9.7329736e-05   6.4298256e-05   9.9639532e-05  -1.7676370e-05   9.6591379e-05   1.0164140e-04   9.4083007e-05   1.5106845e-04   1.3186054e-05   9.2938710e-05   3.5127472e-05   7.4981035e-05   8.2783466e-05   1.2440581e-05   8.5689717e-05   7.6123230e-05   9.1907517e-05   2.1749902e-04   6.8385423e-05   3.6125257e-05   1.0300361e-04   1.2441231e-04   2.0239811e-05   5.8481000e-05   9.2222086e-05   1.0106781e-07  -1.2211911e-04  -7.1142895e-05   4.4985244e-04   2.3191067e-04   2.0990316e-04   1.1743340e-04   1.3339105e-05  -6.1807445e-06  -2.9241110e-05
   1.2017366e-04   1.4420244e-04   8.6599568e-05   1.0064725e-04   1.2712790e-04   1.3541697e-04   8.8496403e-05   1.0028351e-04  -7.0679002e-05  -9.6973054e-06   8.0311889e-05   5.3575593e-05   8.8557819e-05   1.7787340e-04   1.1219828e-05   9.7493888e-05   6.3798674e-05   1.0594464e-04   8.3315550e-05   9.0079884e-05   8.9335241e-05   1.3422959e-04   1.1732133e-04  -2.5712000e-04   9.5101866e-05   2.1501981e-05   7.2251620e-05   8.7447828e-05   5.7914574e-05   8.4986059e-05   1.4146230e-04  -1.5248303e-04   2.4136250e-04   1.2405406e-04   3.9631275e-05   1.3420517e-04   1.2750547e-04   2.1166239e-05   5.6160428e-05   1.7110191e-04   2.2547922e-05  -5.6750498e-05  -7.3328469e-05   8.2426937e-04  -6.4340929e-05   7.5408410e-05  -5.8861406e-06  -1.3759027e-05   2.1899317e-05   5.8982674e-05
   1.4040558e-04   1.6095901e-04   9.2286893e-05   1.0772410e-04   1.0647233e-04   1.2169529e-04   9.9143530e-05   6.5941647e-05  -8.6226224e-05  -4.7262911e-06   6.1762876e-05  -6.4849701e-05   6.9583068e-05   1.6700153e-04   1.8611461e-05   1.0519585e-04   6.2394123e-05  -6.1299784e-06  -6.4044667e-05   4.9948008e-05   6.4053616e-05   1.2785164e-04   1.1841947e-04  -1.7490634e-04   1.7914418e-04  -7.4922473e-06   6.5455344e-05   4.8657083e-05   9.1514637e-05   9.9987090e-05   5.5579505e-05  -6.6819011e-05   3.0495657e-04   1.3837084e-04   5.6097520e-05   1.3119027e-04   1.3448087e-04   9.8444816e-06   4.7751706e-05   1.8419001e-04  -5.2215264e-06  -4.5393830e-05  -6.8916743e-05   1.9613105e-04  -2.9293871e-05   1.9438972e-04   8.8895962e-05  -5.2563475e-05  -1.1625035e-04   4.6552890e-05
   1.1760838e-04   1.5567802e-04   9.3035698e-05   1.3302438e-04   8.5725551e-05   1.2535327e-04   7.9725200e-05   1.0898270e-04   2.2378523e-04   1.8191113e-05   8.6862950e-05  -8.5502616e-06   6.2294894e-05   1.9649348e-04   2.9795006e-05   9.5432901e-05   5.9149676e-05   1.0935967e-05  -2.1580842e-04   2.9912524e-05   7.0744769e-05   9.4340867e-05   1.3871190e-04  -6.3965446e-05   4.0638297e-05   3.8384362e-05   5.4394932e-05   1.0074025e-04  -1.3718585e-05   8.7872591e-05   4.7241425e-05   9.4455121e-05   2.7480841e-04   1.5605650e-04   4.8816488e-05   1.2893580e-04   1.1783918e-04   3.9309078e-05   6.2817686e-05   1.3871081e-04   1.2463220e-05  -2.5093588e-05  -9.4568975e-05   6.6683162e-05   1.7480135e-05   3.6486197e-04  -1.1589118e-04  -3.8044294e-05  -6.8457004e-05   7.0315335e-05
   1.0436225e-04   1.6041314e-04   1.1425972e-04   1.1740735e-04   6.5324748e-05   1.3313972e-04   8.2440296e-05   6.1061546e-05   4.2771935e-05   3.3888930e-06   1.0748619e-04   2.4863899e-05   6.7495588e-05   1.8229189e-04   7.5343137e-06   9.1252907e-05   4.6039208e-05   7.4284042e-05   3.1368117e-04   7.8565186e-05   7.8228833e-05   1.1278418e-04   9.6904070e-05  -2.3077283e-04   8.7113025e-05   8.1991684e-06   9.6794945e-05   1.1587300e-04   8.7185086e-05   1.0292884e-04  -6.5456752e-06   4.2920701e-06  -6.6331222e-06  -6.6503253e-06   5.5540328e-05   1.1313549e-04   1.7485261e-04   2.6478103e-05   6.7627210e-05   1.6897467e-04   6.0641810e-06  -9.1709051e-05  -9.7909702e-05   1.4293513e-04   6.0207785e-05   2.2554894e-04   1.5660065e-04  -5.9192524e-05   4.0824096e-05   1.7759476e-05
   1.4761613e-04   1.5549270e-04   9.0060385e-05   1.1306410e-04   8.7639135e-05   1.3408126e-04   9.4046714e-05   6.7403686e-05   1.4434983e-04   8.6474411e-06   5.5024870e-05   2.1508517e-05   8.8141838e-05   2.3667523e-04   4.0491901e-05   9.9002682e-05   5.4209770e-05   2.2241007e-05   1.5527394e-04   9.4921204e-05   6.3052052e-05   1.3320212e-04   1.2558518e-04   6.0441907e-05   1.4394581e-04  -6.4640449e-06   6.1950857e-05   1.2326354e-04   4.7114700e-05   9.2579670e-05   1.3379994e-04  -3.2782755e-05   1.4650001e-04   1.1189423e-05   4.7966838e-05   6.9899099e-05   1.4546986e-04   2.0545083e-05   6.9814676e-05   1.5997783e-04  -3.0951526e-06   7.7141020e-05  -5.5560537e-05   1.7341075e-04  -3.8947150e-05  -9.2136979e-05   2.2870438e-05  -1.5325300e-05  -5.1451025e-06   6.0720064e-05
   1.3250232e-04   1.6846452e-04   1.2356619e-04   1.1054435e-04   9.0578731e-05   1.3001073e-04   8.0086022e-05   1.0199755e-04   8.4713516e-05   1.5015092e-05   6.1993967e-05   1.9257168e-05   8.4575440e-05   1.7955663e-04   2.8570490e-05   9.4138319e-05   6.5162647e-05   2.0530186e-05   3.8081889e-05   5.4808304e-05   4.8825077e-05   8.5835898e-05   1.1446608e-04  -2.3041744e-04   8.5642336e-05   1.8900790e-05   6.5437402e-05   1.0692580e-04   7.0490350e-05   1.0858207e-04   5.5353880e-06  -5.0970098e-06   3.2302356e-04   4.6739984e-05   5.5611650e-05   7.2685638e-05   1.5654477e-04   2.2032198e-05   8.4385814e-05   6.5694832e-05  -4.9123596e-06  -1.0315389e-06  -2.8303726e-05   3.0928143e-04   1.2284902e-05   1.0746310e-04   9.1340089e-06   2.5779869e-05   5.0601397e-05   9.6669326e-05
   1.4129636e-04   1.6389399e-04   1.0589154e-04   1.1192093e-04   1.3296737e-04   1.4385165e-04   1.1080005e-04   1.2442288e-04   2.0717522e-04   1.6840879e-05   1.1434128e-04   6.0851398e-05   6.4123567e-05   2.1509749e-04   5.9299582e-05   1.1113305e-04   6.3999672e-05   6.2609295e-05   1.2303755e-04   6.7648994e-05   7.0589456e-05  -3.7867169e-06   1.0455353e-04  -1.0694192e-04   8.8062858e-05  -2.4734611e-05   4.7272977e-05   7.7219534e-05   6.7671666e-05   8.7649350e-05   4.6688692e-05  -7.4695003e-05   4.9482202e-05   2.2401585e-04   5.4648302e-05   1.5527602e-04   1.4725624e-04   1.9750696e-05   7.8498844e-05   1.6877742e-04   1.5058752e-05  -4.6617726e-05  -4.4406552e-05  -6.1347805e-06   2.3430324e-05   2.7967559e-04   2.2553118e-04  -2.8139662e-05  -7.6046592e-05   4.5583249e-05
   1.4290070e-04   1.4524070e-04   8.2877734e-05   1.2578236e-04   1.4763336e-04   1.6331678e-04   1.0942646e-04   7.8661244e-05   2.4108475e-04   1.6653537e-05   8.1309598e-05   1.1772831e-04   7.3978808e-05   1.8650784e-04   2.0923459e-05   9.2320042e-05   6.5318098e-05   5.9852431e-05   5.3226220e-04   7.5878372e-05  -2.1309584e-06   1.1502058e-04   1.5126159e-04   2.2639224e-06   1.4109391e-04   2.2648382e-07   6.4595544e-05   1.2531850e-04   6.2760635e-05   8.6660941e-05   1.7940245e-05   6.2176026e-05   2.2543945e-04   8.5142688e-05   4.5460674e-05   9.1440706e-05   1.6200307e-04   3.9632254e-05   5.1969713e-05   1.1766925e-04   2.2007196e-05  -1.8134540e-05  -5.0074948e-05  -1.3936208e-04  -1.3379969e-04  -2.7094329e-06   7.7974080e-05   6.1511295e-05   1.0030236e-04   5.9013433e-05
   1.5152627e-04   1.5201600e-04   1.0455155e-04   1.1866409e-04   8.7950932e-05   1.4409507e-04   8.9707755e-05   1.4551271e-04   1.5126268e-04   5.7586640e-06   5.6886685e-05  -9.0863077e-06   8.7842389e-05   2.0785291e-04   6.2331565e-05   1.0352180e-04   7.1574643e-05   9.0688889e-05   2.8361354e-04   4.1115789e-05   7.5297983e-05   2.2588285e-04   8.9972593e-05  -1.8484170e-04   4.1998825e-05  -4.0548122e-05   6.8068075e-05   9.5787174e-05   1.1624126e-04   9.8473160e-05   1.7378069e-04   2.3155182e-05   1.2559567e-04   2.8708778e-04   3.4015069e-05   9.9902041e-05   1.4641939e-04   3.3058546e-05   7.9218153e-05   1.1406271e-04   2.1550295e-05   3.2803215e-05  -7.6327793e-05   3.2176101e-04  -2.9547688e-05   2.0978924e-04  -1.4287101e-05  -1.0945484e-05  -1.8714069e-05   2.6605021e-05
   1.4088640e-04   1.4810706e-04   1.0261896e-04   1.2411858e-04   7.0874637e-05   1.2944035e-04   1.4371736e-04   1.4340672e-04   3.8766902e-04   2.9635903e-05   9.8914381e-05   7.7367251e-05   8.2436003e-05   1.9261822e-04   2.4237905e-05   1.0629198e-04   6.0894610e-05   4.1130115e-05  -6.5661050e-05   4.3474996e-05   9.2471120e-05   1.4329137e-04   9.3776980e-05  -1.1687782e-04   7.0756469e-05   1.6735090e-05   6.3283223e-05   8.1064354e-05   8.9878842e-05   7.5952928e-05   3.3448126e-05   7.6017692e-05   2.7858480e-04  -1.4499979e-05   2.8659608e-05   3.8778278e-05   1.4013186e-04   3.1487492e-05   7.7545454e-05   1.5208290e-04   7.3552280e-07  -3.4599085e-05  -9.5695534e-05   3.8128276e-04  -9.5105243e-05   7.4165975e-05  -4.2450063e-07   3.8882055e-05  -3.8834940e-05  -3.2129415e-06
   1.7533032e-04   1.6421764e-04   1.0412951e-04   1.0837729e-04   9.5276911e-05   1.3946577e-04   1.0215183e-04   1.8944897e-04   2.1704490e-04   1.2242405e-05   8.4782325e-05   6.9718488e-05   8.2025057e-05   1.6521210e-04   9.8841760e-05   1.0159122e-04   6.4954467e-05   2.7097256e-05  -1.4148490e-04   1.1501343e-04   7.1371462e-05  -1.2788048e-05   1.1951712e-04  -7.8500641e-05   9.3383540e-05  -2.9637858e-05   9.5915850e-05   8.1052232e-05   3.9475854e-05   7.9486563e-05   2.4229083e-04  -4.5856217e-05   2.9661952e-04   5.1439591e-05   5.0288189e-05   1.3649341e-04   1.3878099e-04   1.4588364e-05   5.6331537e-05   1.6769565e-04   1.4735535e-06  -4.4767392e-05  -2.9553557e-05   3.3962884e-04   2.8602613e-05   1.4120573e-04  -3.2490658e-05   5.3470394e-05   4.1358860e-05   1.4510143e-05
   1.4633061e-04   1.5457299e-04   1.1548040e-04   1.1760760e-04   1.9410407e-04   1.3611381e-04   8.3947503e-05   1.3333437e-04   7.1321250e-05   1.7473478e-05   5.1026142e-05  -2.8850269e-07   8.2443694e-05   1.8082134e-04   6.5789005e-05   1.0847451e-04   5.6072109e-05   7.2937393e-05  -1.5430088e-04   5.8745132e-05   5.1886116e-05   1.7938616e-04   9.0244786e-05  -3.4680612e-05   7.3815805e-05  -4.2416705e-05   6.1174484e-05   1.5244614e-04   2.1481454e-05   7.5871380e-05  -2.9086274e-05   9.3072616e-05   2.4257890e-04   5.4025426e-05   5.5465105e-05   4.0645755e-05   1.1846070e-04   1.3114337e-05   4.4425058e-05   1.2415052e-04   8.4330604e-06   1.0516743e-04  -9.5397787e-05  -1.3392234e-05   4.9655460e-05   1.9016434e-07   8.1118531e-05   7.0373884e-05  -4.1386491e-05   1.0362768e-04
   1.3888101e-04   1.5867525e-04   9.5661948e-05   1.0924834e-04   1.4367579e-04   1.2891601e-04   1.0891668e-04   9.3075236e-05   2.2923324e-04   2.7888995e-05   9.3066636e-05   6.5765213e-05   8.3877545e-05   2.0922528e-04   6.8362671e-05   8.3770276e-05   5.8580237e-05   3.9474493e-05   3.1420344e-04   6.9643655e-05   8.2853228e-05   3.2182801e-05   9.5185496e-05   3.3165845e-05   5.7112135e-05  -2.1632070e-05   7.4613759e-05   1.1000923e-04   1.9139690e-05   7.1762028e-05   1.1589822e-04   9.1662165e-05   5.9280072e-05  -9.4566285e-06   4.9871582e-05   1.3427228e-04   1.0012343e-04   2.3383993e-05   5.6623318e-05   1.7319356e-04   8.6505734e-06   1.5990949e-05  -6.7512250e-05   3.5140605e-04   1.8895109e-05   2.9832736e-04   1.5466459e-04   5.1789782e-05  -6.2230654e-05   5.5400447e-05
   1.5532351e-04   1.5083478e-04   1.2192045e-04   1.1021035e-04   1.2153358e-04   1.3581717e-04   1.0419439e-04   1.0243265e-04   1.0471497e-04   2.6405023e-05   9.0642396e-05   3.2915494e-05   7.2656803e-05   1.5847046e-04   7.7683952e-05   8.7993940e-05   5.5151828e-05   1.2614481e-05   9.7331256e-05   7.6608696e-05   3.8775197e-05   2.2333318e-04   9.9130913e-05   1.1078553e-04   7.1824921e-05  -2.1071259e-05   5.8681944e-05   1.2548914e-04   3.1396045e-05   8.9075562e-05  -4.8969491e-07   2.1982467e-05   8.4725878e-07   1.4606489e-04   4.8573493e-05   1.3328924e-04   9.5105403e-05   2.5027486e-05   5.0887320e-05   1.3790156e-04   2.3613085e-05   5.6575238e-05  -6.0338385e-05  -3.3767885e-04   1.6602151e-05   3.2563673e-04  -4.5277142e-05   7.3043127e-05   1.5437676e-05   8.3565996e-05
   1.4720245e-04   1.6626231e-04   1.0083828e-04   1.1113997e-04   6.5317356e-05   1.4064612e-04   1.2021315e-04   1.3374418e-04   6.2991974e-05   2.1417716e-05   7.6452350e-05   4.6453726e-05   5.3972122e-05   1.6596273e-04   5.6582096e-05   9.6137243e-05   5.4278684e-05   4.0610445e-08   3.6475889e-04   6.6225824e-05   7.1332637e-05   1.0906480e-04   1.1287416e-04   7.5422628e-05   4.3300115e-05  -2.9805311e-05   1.0027146e-04   9.5943527e-05   9.8802899e-05   8.7727829e-05   5.4357963e-05   7.6871955e-05   2.5799041e-04   7.0598580e-05   5.0942912e-05   1.3838844e-04   1.2127963e-04   3.0901625e-05   5.1687864e-05   1.4307987e-04   2.0122487e-05   2.6516248e-06  -6.6337379e-05   1.4555314e-05   1.0598859e-04   5.4178451e-04  -8.2581682e-05   3.8500431e-05   6.6041619e-05   4.3693497e-05
   1.4975830e-04   1.7250380e-04   1.1721268e-04   1.2422552e-04   1.0668703e-04   1.4668510e-04   1.0853968e-04   1.4672871e-04   5.1911509e-05   5.4760250e-05   1.1378569e-04   1.8137116e-05   5.1964347e-05   1.8978989e-04   8.0199563e-05   1.0450329e-04   6.1246770e-05   4.9470797e-05  -3.5566959e-04   9.7743607e-05   6.0401042e-05   1.4560598e-04   1.6705293e-04   1.0299539e-04   1.7431541e-04  -5.3283964e-07   5.3630560e-05   1.5330211e-04   8.8179950e-05   7.1657007e-05   1.8717372e-04   6.0609022e-05   5.9498569e-05   2.8312876e-04   5.0970240e-05   1.4193221e-04   1.4945435e-04   4.8282687e-05   6.9850335e-05   1.5007354e-04   1.8842715e-05   1.0295790e-05   3.7165580e-06   3.8030243e-04   2.1169637e-05   3.5722114e-04   1.4355325e-04   7.9803925e-05  -6.7231500e-05   8.5622538e-05
   1.6052554e-04   1.6617659e-04   1.1264562e-04   1.0981604e-04   1.0343864e-04   1.2415017e-04   1.0955780e-04   1.7012210e-04   2.3593049e-05   3.3923829e-05   1.0091696e-04   7.6077281e-06   6.6130044e-05   1.9497339e-04   8.7472305e-05   1.0814008e-04   7.5914075e-05   3.7499922e-05   9.5833195e-05   7.9586280e-05   1.2117558e-04   7.6851618e-05   1.4179117e-04  -8.5528460e-05   8.2618353e-05  -8.5484189e-06   8.2116931e-05   6.4515829e-05   8.9829555e-05   7.3854411e-05   6.6037966e-05   8.2529084e-05   1.9708763e-04   1.3992132e-04   6.2291983e-05   5.9702401e-05   1.6745996e-04   3.5941459e-05   6.7715016e-05   1.4335006e-04   2.6410051e-05   1.0013198e-04  -4.6372887e-05   1.4750172e-04  -2.9335581e-04   3.9280989e-05   3.5383902e-05   2.3399338e-05   5.7028024e-05   1.7093825e-04
   1.3681479e-04   1.5257989e-04   9.6509502e-05   1.1244145e-04   1.1392829e-04   1.6565948e-04   1.4640634e-04   7.0382986e-05   1.8885867e-05   2.3411454e-05   7.8285317e-05   2.9935751e-05   5.8395941e-05   1.8196150e-04   6.0052527e-05   1.2040758e-04   7.8426856e-05   6.6462468e-05  -1.9875766e-05   1.0227954e-04   9.9976380e-05   6.4804670e-05   5.6957957e-05   7.2733783e-05   1.1137878e-04   3.2304649e-06   7.0889873e-05   1.8157273e-04   4.9060582e-05   8.7392466e-05   9.5818737e-05   3.0835959e-05   2.2337778e-04   2.2526362e-04   6.0779101e-05   1.3385383e-04   1.6561834e-04   2.2268214e-05   6.1203747e-05   1.3572584e-04   3.2844993e-05  -2.9527608e-05  -5.3437798e-06   2.7016705e-04  -1.2345538e-04   2.3532262e-04   8.0317070e-05   7.6632814e-06   1.1547314e-04   1.5172295e-04
   1.6828590e-04   1.6781419e-04   1.5093101e-04   1.2647698e-04   6.9231588e-05   1.4418009e-04   9.0060414e-05   1.0315816e-04   5.4047789e-05   3.4020435e-05   1.0460282e-04   1.1033902e-04   6.5794608e-05   1.9298140e-04   5.9383219e-05   1.2881996e-04   9.0427056e-05   3.9954408e-05   1.1487094e-04   8.8564113e-05   1.4087911e-04   1.1311601e-05   5.4610686e-05   7.4594991e-06   1.1013742e-04   3.5939498e-05   1.0235165e-04   1.3079864e-04   3.9212478e-05   7.4179945e-05   7.0382477e-05   8.8590728e-05   3.1490845e-04   1.9628805e-04   6.2674422e-05   7.8217570e-05   1.7107252e-04   2.1197986e-05   8.2473751e-05   1.3071354e-04   1.1972952e-05   4.3011560e-06  -2.5018928e-05  -6.6658490e-06   5.9383114e-05   2.3313139e-04   1.6285860e-04   6.4460655e-05  -3.0744150e-06   1.1528903e-04
   1.5899680e-04   1.6360437e-04   1.1567634e-04   1.2127560e-04   6.4007705e-05   1.6413642e-04   1.0164288e-04   9.9425451e-05  -1.0701785e-04   2.6096099e-05   1.0511477e-04  -2.2510641e-05   5.1660416e-05   1.4066337e-04   4.2480024e-05   1.2255854e-04   8.2129904e-05   3.4789857e-05   7.0810673e-04   7.3635783e-05   6.5519089e-05   8.3435130e-05   9.7217890e-05  -1.3817873e-04   5.0521321e-05   2.1054335e-05   8.7109016e-05   2.8966519e-05   5.3074433e-05   7.6024866e-05  -6.3129878e-06   5.6138782e-05  -5.2100797e-05   2.5995289e-05   7.3250849e-05   9.8415803e-05   1.4585764e-04   3.6356592e-05   7.8213074e-05   1.4309303e-04   1.8242481e-05   1.5921432e-04  -1.9881270e-05   3.6140953e-04  -1.2913438e-05   2.6562728e-04   5.7184923e-05   1.3775682e-05   8.6199114e-05   9.4537529e-05
   1.6486122e-04   1.6475569e-04   1.0642040e-04   1.1947380e-04   1.4443774e-04   1.5060471e-04   1.3465888e-04   1.9445486e-04  -4.8262234e-05   3.0031486e-05   6.3060987e-05  -3.7619488e-06   7.1955001e-05   2.3166933e-04   5.4241034e-05   1.1700660e-04   9.9764315e-05   6.8927708e-05   3.3422562e-04   7.1433722e-05   1.2267068e-04   1.1617642e-04   1.2484402e-04  -8.5221836e-05   1.1251235e-04   2.4396799e-05   1.1602689e-04   1.3969725e-04   1.2360571e-04   8.9856148e-05   1.2652301e-04  -3.8600789e-05   1.3813945e-04   5.9897684e-05   5.6411871e-05   1.3173588e-04   1.5593813e-04   1.5074766e-05   7.6360149e-05   1.3800347e-04   2.7812841e-05  -6.6913475e-05  -6.2639505e-05   2.8793659e-04  -1.5436952e-05   2.7735342e-04   1.7567341e-04   7.6229335e-05  -3.8500675e-05   1.5101850e-04
   1.5853941e-04   1.6220339e-04   1.3251929e-04   1.2832361e-04   1.0638464e-04   1.4940125e-04   8.9679932e-05   1.5286607e-04  -1.9123565e-06   4.2285654e-05   1.0969729e-04   1.0740130e-04   5.9269412e-05   1.9252568e-04   3.9613929e-05   1.2860743e-04   8.7407810e-05   8.5738175e-05  -3.4000550e-04   8.8131892e-05   1.4928883e-04   1.4545509e-04   1.0511314e-04  -2.7100873e-04   1.1597326e-04  -5.6217864e-06   1.0085882e-04   1.0423929e-04   1.4424840e-05   7.7064047e-05   8.4533140e-06  -1.2079497e-04   1.8235500e-04   1.2499388e-04   6.9587892e-05   1.0539222e-04   1.3296677e-04   4.9300281e-05   7.7854078e-05   1.1383672e-04   7.7648192e-06   1.3857684e-04  -3.2208871e-05   7.8191348e-05   1.0653602e-04   1.0437969e-04   6.5919754e-05   8.5327352e-05   2.0148162e-05   1.1131941e-04
   1.6667662e-04   1.7928163e-04   9.7146090e-05   1.1467261e-04   1.2567146e-04   1.5854297e-04   1.2530442e-04   1.9588927e-04   1.7872428e-04   3.0219850e-05   1.1227807e-04   4.0328861e-05   6.2749095e-05   1.8374743e-04  -1.1826210e-06   1.3888121e-04   9.8023011e-05   1.1936767e-04   4.0567276e-05   8.2292099e-05   1.1050123e-04   8.8622612e-05   1.1694477e-04   1.6980743e-04   1.3103223e-04  -3.1468651e-05   1.0995623e-04   1.6259885e-04   9.8184399e-05   6.9702233e-05   1.4853109e-04  -3.3145450e-05   1.4100090e-04   1.6128420e-04   6.8140231e-05   4.6945454e-05   1.4083380e-04   3.6853231e-05   5.7411973e-05   1.2999871e-04   3.8004646e-06  -1.6060159e-04  -3.1181251e-05   5.8120256e-04   7.7548109e-05   4.8170579e-05   2.9338049e-04   8.6411819e-05   1.2760851e-04   8.0952785e-05
   1.7349240e-04   1.8213350e-04   8.4433494e-05   1.2632144e-04   1.2871016e-04   1.7033961e-04   1.2591631e-04   1.1696875e-04   8.1824866e-05   1.9017165e-05   7.4819654e-05  -1.9619147e-05   4.2542099e-05   1.6954460e-04   3.9873179e-05   1.2995093e-04   1.0842795e-04   4.8571917e-05   4.2385625e-05   1.1164082e-04   1.1558955e-04   2.6021246e-04   1.1770383e-04   1.1871381e-04   4.4275559e-05  -2.7307566e-05   8.0477301e-05   1.0125091e-04   1.5296567e-04   8.2698905e-05   2.0854738e-04  -2.4514849e-05   1.2309712e-04   9.5800991e-05   8.2651553e-05   1.0583646e-04   1.4692434e-04   1.6616264e-05   5.0264134e-05   1.3136670e-04   1.6732614e-05  -1.1925612e-05  -7.6756824e-06  -1.8660772e-04   5.6630975e-05   1.5343987e-05  -1.5730827e-04   4.0406012e-05  -3.6187244e-05   5.1504001e-05
   1.4774135e-04   1.7548629e-04   1.2133897e-04   1.3807075e-04   3.8016766e-05   1.5383889e-04   1.4399139e-04   1.4921668e-04  -3.8491089e-05   2.4132309e-05   8.6971144e-05   1.6395848e-05   5.4637283e-05   1.5344242e-04   5.2565734e-05   1.1466871e-04   1.0429243e-04   7.6594617e-05  -2.5406867e-05   7.2096627e-05   1.0172278e-04   1.3207410e-04   1.3832528e-04   1.8767671e-04   1.4717579e-04  -2.2752840e-06   1.0651586e-04   1.1679199e-04   4.2043510e-05   5.9330188e-05   1.5954534e-04  -2.2326392e-05   2.9405329e-04  -5.8096150e-05   6.3797423e-05   5.4120472e-05   1.0207464e-04   3.7428232e-05   6.3867177e-05   1.1957433e-04   1.3162456e-05  -2.8062341e-05  -4.8356877e-05   3.1521500e-05  -4.0702296e-05   1.4507494e-04   2.0695763e-04   4.7688376e-05   5.6788103e-05  -8.2359431e-05
   1.4528728e-04   1.7352936e-04   1.2199359e-04   1.2218551e-04   1.0926062e-04   1.7219142e-04   1.0052305e-04   1.6780167e-04   2.1665724e-04   2.4705332e-05   9.4514362e-05   1.6537542e-05   5.8952857e-05   1.9602099e-04   1.9835164e-05   1.0549645e-04   9.0114423e-05   4.5248122e-05  -1.8598561e-04   9.1085240e-05   9.7638636e-05   2.0859682e-04   1.3086054e-04  -7.5480610e-05   3.5593621e-05  -2.0746531e-05   6.4777814e-05   1.0997806e-04   4.5529564e-06   5.9963222e-05   1.2835627e-05   4.6558482e-05   2.9648654e-04   1.7464909e-05   4.5219876e-05   6.8871392e-05   1.7971477e-04   2.6252941e-05   6.8956368e-05   1.0583072e-04   7.4915451e-06  -3.3542696e-05  -2.6585407e-05   1.4767841e-04   2.9797444e-05   5.1955914e-05   3.0714067e-04   1.7901437e-05  -8.8229781e-06   4.8827889e-05
   1.3927536e-04   1.8443129e-04   1.3961182e-04   1.0794868e-04   1.8132212e-04   1.6196753e-04   1.1396380e-04   1.0812452e-04   6.8730973e-05   5.1965994e-06   8.2688792e-05  -1.1235886e-04   7.5561868e-05   1.1795694e-04   9.6024458e-05   1.1841171e-04   9.0200847e-05   7.1237933e-05  -1.4509405e-04   7.1530703e-05   9.0352456e-05   9.7663375e-05   1.0626979e-04  -1.9266919e-04   1.0890506e-04  -1.1620795e-05   3.2047737e-05   1.3610398e-04   1.4502999e-04   5.7305115e-05   5.7196186e-05   1.1717627e-04   1.5825292e-04   1.6355317e-04   5.9189573e-05   1.1534240e-04   1.6707060e-04   2.7544480e-05   4.8897764e-05   1.5176290e-04   1.7825952e-05  -6.0015645e-05  -2.7757818e-05   2.5407804e-04  -1.6103114e-04   2.9920621e-04   1.4787949e-04   9.4393472e-05   1.1043410e-04   6.9613518e-05
   1.8620916e-04   1.6837960e-04   1.1477979e-04   1.3620914e-04   8.3532759e-05   1.4808065e-04   1.2290661e-04   8.3420622e-05   1.5465759e-04   9.3088720e-06   6.9417285e-05   2.9942054e-05   5.5726912e-05   1.9157497e-04   3.9990740e-05   1.1815913e-04   9.3675539e-05   4.7081838e-05  -2.0604910e-04   8.7048997e-05   9.5779527e-05   2.0607264e-04   4.6016361e-05   3.5182678e-04   5.9736314e-05  -2.5719664e-05   1.1693851e-04   1.2648315e-04   3.2796215e-05   8.8404202e-05   2.4145418e-04   1.4327250e-04   2.0018731e-04   2.1174891e-04   7.0221467e-05   7.6477823e-05   1.5913512e-04   2.8700963e-05   5.4693788e-05   8.1194506e-05   3.6089630e-05  -3.6391011e-05  -3.2356835e-05   5.6358776e-04   3.3441131e-05   3.0715292e-04   3.1687552e-05   2.2991967e-06   5.0580211e-06   8.2897939e-05
   1.5095891e-04   1.7350413e-04   1.4164053e-04   1.2495673e-04   9.8709927e-05   1.6636855e-04   1.0959918e-04   2.7977279e-05  -3.6778783e-05   2.0016296e-05   1.0467688e-04   8.5104875e-06   6.1174047e-05   1.3831833e-04   5.9641421e-05   9.9142264e-05   9.7444412e-05   5.9640202e-05   2.5994171e-04   6.6455177e-05   6.1398205e-05   1.2507317e-04   1.3374395e-04   1.6550456e-04   8.1334139e-05  -3.1771840e-05   7.0344278e-05   1.2634059e-04   8.3803774e-05   6.1695835e-05   9.3301678e-05   1.0399376e-04   3.2192952e-04   7.0124479e-05   4.2659529e-05   4.6549900e-05   5.4766035e-05   1.2405411e-05   5.3671749e-05   1.3523348e-04   8.1501921e-06   6.0164775e-06  -2.1278598e-05  -4.4083718e-04   7.9703939e-05   2.2025828e-04  -6.1718209e-05  -1.6129132e-05  -1.3103049e-04   9.3710201e-05
   1.7406058e-04   1.5615283e-04   1.1138964e-04   1.1470140e-04   9.3464827e-05   1.5218154e-04   8.5615196e-05   1.9248626e-04   1.4963384e-04   6.5683639e-06   7.3996671e-05   2.3862740e-05   6.1979314e-05   1.1926302e-04   3.5684607e-05   1.0344404e-04   9.8658405e-05   4.2451626e-05  -2.3987452e-05   5.7292800e-05   7.2082039e-05   1.1150855e-04   1.0133689e-04   4.1461419e-05   8.2809289e-05  -2.9968450e-07   8.2538580e-05   1.1847846e-04   8.6306456e-05   5.8766807e-05   1.6165416e-04   1.8078123e-05   1.1292086e-04   1.1900032e-04   6.0792441e-05   8.3033665e-05   1.2425127e-04   6.1274086e-06   6.0177586e-05   1.6537032e-04   2.4720870e-05  -8.4772510e-05  -3.4897788e-05   5.4635078e-04  -1.1816735e-04   2.3886145e-04   2.0433204e-04   7.8521007e-05  -1.3006779e-05   9.0745434e-06
   1.7725751e-04   1.7130321e-04   1.1293220e-04   1.0384357e-04   1.1215545e-04   1.7559985e-04   1.2921613e-04   9.8310411e-05   1.0998307e-04  -1.0219417e-05   4.1550367e-05  -4.8356574e-06   5.5801032e-05   1.3538037e-04   7.7343830e-05   1.0469436e-04   9.1316033e-05   5.2644707e-05   2.1271087e-04   9.7060692e-05   5.1156643e-05   1.8436827e-04   9.9963843e-05  -2.4232711e-04   6.0374998e-05  -5.1310958e-06   5.4625561e-05   1.1954461e-04   2.6637032e-05   6.3673120e-05   1.4838624e-04  -4.2325355e-05   1.8435669e-04   5.1126462e-06   7.9405487e-05   8.4446961e-05   1.4645151e-04   2.8491782e-05   5.8964357e-05   4.5331140e-05   2.4580320e-05  -8.7948656e-06  -2.8135042e-05   4.0129761e-04   1.1811979e-04   1.0706994e-05   1.0246357e-05   2.4778208e-05  -5.3041309e-05   6.5865846e-05
   1.5359693e-04   1.6764033e-04   1.3266505e-04   1.2043503e-04   1.1293899e-04   1.7154288e-04   1.2202537e-04   1.0419978e-04   7.9799131e-05   1.3535246e-05   9.8795121e-05  -4.9965747e-05   7.9741840e-05   1.5042665e-04   5.7659723e-05   1.1318462e-04   9.6017138e-05   1.2350587e-04   2.7347129e-04   6.4908061e-05   6.2934188e-05   9.0568290e-05   1.4104000e-04  -3.0706282e-04   3.9070732e-05  -5.5799005e-06   8.2265149e-05   6.8340203e-05   1.0752441e-04   6.0855898e-05   2.0585953e-04  -4.8858397e-05   1.0165018e-04   6.1344159e-05   6.3736974e-05   9.4065108e-05   1.6190176e-04   2.3114715e-05   6.7345980e-05   7.5592390e-05   4.9155402e-05  -6.5671877e-05  -1.4017202e-05   2.6590380e-04   8.8475834e-05   1.1716224e-04   1.9990739e-04   4.1191921e-05  -1.0523391e-04   2.5611642e-05
   1.6987411e-04   1.7196761e-04   1.0622933e-04   1.2434083e-04   1.0680951e-04   1.3110826e-04   9.9431432e-05   1.1327254e-04   3.2747522e-04   1.3600095e-05   6.8598260e-05   7.8296780e-06   5.4011594e-05   1.2104045e-04   3.3058830e-05   1.0487522e-04   9.3590032e-05   9.9651661e-05   9.3644863e-05   4.1061168e-05   5.6530203e-05   1.8184693e-04   1.5524267e-04   3.9417264e-06   1.4763573e-04  -9.4796451e-06   8.5610969e-05   6.7014349e-05   4.0157345e-05   6.1207895e-05   1.2729982e-04   2.5827056e-05   3.9040673e-04   2.6817035e-04   5.4277942e-05   6.0548733e-05   1.2756174e-04   3.4864148e-05   5.0179504e-05   8.0925784e-05   2.6929809e-05  -1.7638833e-04  -1.6475038e-05   3.3798930e-04   1.2508112e-04   2.5332795e-04   2.1238848e-05  -7.5407811e-06  -5.2807671e-05   7.3458788e-05
   1.8799619e-04   1.6111258e-04   1.2497857e-04   1.1121803e-04   1.3214200e-04   1.6254153e-04   9.9407131e-05   6.0397819e-05   8.8262481e-05   1.0327139e-05   5.8244681e-05  -2.9996501e-05   5.9370857e-05   1.4581547e-04   2.5446676e-05   1.1707089e-04   9.1203976e-05   4.8530535e-05  -1.0858238e-04   1.0266344e-04   7.2173534e-05   9.6513970e-05   1.2797141e-04   2.6910664e-05   1.1439894e-04  -2.1765560e-05   1.1424511e-04   9.4165436e-05   4.6835888e-05   7.1963746e-05   3.6556365e-05   6.5320390e-05   1.0160956e-04   2.4604007e-05   7.2153452e-05   1.2784431e-04   9.4409887e-05   2.4203124e-05   7.3105570e-05   1.1381453e-04   4.2645101e-05   1.2654096e-05   7.9570636e-06   4.2418385e-04   3.7241087e-05   1.0441792e-04   2.4677147e-04   2.2226181e-05   5.7197321e-05   6.6739238e-05
