  -4.0936389e-05  -3.7880989e-05  -8.3122381e-05  -9.3566392e-05  -9.6026306e-05  -4.6837034e-05  -9.7434160e-05  -7.4952011e-05  -8.3497005e-05   5.6766428e-05  -1.0082095e-04  -1.7420902e-05   2.3096138e-05  -9.0791909e-05   2.1525057e-05   3.3931185e-05  -6.5814922e-05  -2.7136008e-05   2.7165803e-04  -3.8331254e-05  -1.4030522e-04  -1.8153725e-04  -1.0509507e-04  -4.2833432e-05  -2.1226694e-04  -1.3440898e-04   5.0295153e-06  -2.9398447e-05  -2.7063616e-05  -1.7846529e-05  -1.6078968e-04  -9.0145913e-05  -2.6084113e-04  -2.6021758e-05  -9.9322242e-05  -6.3896492e-05  -7.6179364e-05  -5.7643247e-05  -5.1013845e-05  -5.1787920e-05  -1.2463577e-04  -1.4625097e-04  -4.0226238e-05   5.2206004e-05  -2.8435342e-04   1.5165113e-04  -1.9195471e-04  -1.2655040e-04  -6.6520137e-05  -2.1450067e-05
  -2.8471590e-05  -4.4929806e-05  -3.8940747e-05  -8.9996414e-05  -8.2224215e-05  -6.0150345e-05  -1.1458914e-04  -2.8473689e-05  -2.1136559e-05   6.5033368e-05  -6.9597219e-05  -2.8125853e-05   1.2727613e-05  -5.1173698e-05   3.1253374e-05   1.1507497e-05  -8.0218611e-05  -9.9243771e-05   2.7120630e-05  -3.9432609e-05  -1.5020583e-04  -1.4610504e-04  -9.2322902e-05  -1.1011474e-04  -1.3837380e-04  -1.1970518e-04   4.9264327e-06  -8.4804196e-05  -6.2360748e-05  -1.1367721e-05  -5.3555133e-05  -7.2035960e-05   6.1817191e-05  -1.9319092e-04  -1.2815089e-04  -2.6425332e-05  -9.9822573e-05  -5.4666041e-05  -3.6956331e-05  -5.3475571e-05  -1.2349639e-04  -1.8470945e-04  -9.1925667e-06  -6.3729749e-05  -9.4268853e-06   1.6521341e-04  -4.3133751e-04  -1.1632704e-04  -1.5950351e-04  -6.2212341e-05
  -2.5304696e-05  -4.9739399e-05  -7.2435811e-05  -1.0063470e-04  -1.2450892e-04  -8.3225044e-05  -1.2681384e-04  -1.0652431e-04   5.0833769e-05   4.1448831e-05  -6.8060952e-05  -1.9406920e-05   1.9654168e-05  -6.0986382e-05   1.3725384e-05   1.4308269e-05  -6.3540640e-05  -2.2376076e-05  -2.6299062e-04  -4.4139197e-05  -1.5443332e-04  -3.5189078e-04  -1.0881743e-04  -4.4569658e-04  -1.6431222e-04  -1.3762523e-04  -1.0591242e-05  -5.1472154e-05  -2.2832857e-05  -1.0814961e-05  -1.5012819e-04   6.3025014e-05  -9.9655575e-05  -1.6819494e-04  -1.3441223e-04  -1.2761197e-05  -3.0665982e-05  -6.6424167e-05  -4.7695910e-05  -1.1076197e-04  -8.9853107e-05  -2.4828827e-04  -4.5764762e-05  -6.1648418e-05  -2.2110579e-04   1.8944801e-04  -3.1381234e-04  -1.3279733e-04  -1.4636123e-05  -2.2158949e-05
  -2.0302839e-05  -4.7926402e-05  -7.3882955e-05  -9.8063727e-05  -3.4870809e-05  -7.6348115e-05  -1.0351397e-04  -7.1258888e-05  -3.0048985e-05   4.8457579e-05  -1.0949784e-04  -3.3688844e-05   2.5852645e-05  -6.4172586e-05  -3.8895223e-06   1.1713136e-05  -7.9914345e-05   1.8664359e-05   9.3240897e-06  -5.7940979e-05  -1.4151471e-04  -2.5770965e-04  -7.4666612e-05  -1.9524647e-04  -1.1228470e-04  -1.3845749e-04   1.3023463e-05  -5.6545941e-05  -3.7685084e-05  -7.6513688e-06  -1.8452232e-04  -4.1740495e-05  -1.5575235e-04  -5.5312466e-05  -1.1370333e-04  -5.0693212e-05  -5.8163201e-05  -6.6377310e-05  -4.5815425e-05  -4.3315933e-05  -1.0290805e-04  -2.2661216e-04  -2.9536184e-05  -3.8537118e-04  -1.4066056e-04  -2.9730919e-04  -9.5043797e-05  -1.8266197e-04   4.9205759e-05  -4.7401911e-05
  -3.9210940e-05  -6.1988540e-05  -8.5600688e-05  -8.9469526e-05  -1.9769872e-05  -3.7986159e-05  -9.3258161e-05  -3.6431120e-05   8.4758438e-05   4.1566866e-05  -9.0595771e-05  -1.1728454e-05   2.1700143e-05  -6.8960544e-05   2.2127764e-05   2.0144296e-05  -8.2393555e-05  -5.3895870e-05  -1.1291978e-04  -4.4876182e-05  -1.4071201e-04  -1.2944148e-04  -1.1998947e-04   6.5801214e-05  -9.8007418e-05  -1.1715241e-04   8.0281143e-07  -5.6332574e-05  -5.6606426e-05  -3.0196215e-06  -2.1915785e-04  -1.0469408e-04  -1.1288864e-04  -3.1176474e-05  -1.2545513e-04   2.1060525e-05  -6.0630849e-05  -6.4340762e-05  -4.3746437e-05  -3.8973219e-05  -9.3834031e-05  -2.7769059e-04  -5.0643877e-05  -4.9912435e-04  -1.6812838e-04   8.3356026e-05   8.1757869e-05  -1.0787755e-04  -6.4126361e-05  -1.7277260e-05
  -3.1870819e-05  -3.2328360e-05  -6.7914370e-05  -9.8996679e-05  -7.9410660e-05  -5.6186083e-05  -1.0695799e-04  -3.0362846e-05   7.3455753e-06   6.7831861e-05  -4.6564481e-05  -7.0762107e-06   1.8161943e-05  -9.6271906e-05   2.2671693e-05   1.4356066e-05  -9.3158378e-05  -1.8755951e-05  -2.0585446e-04  -6.1055267e-05  -1.5394065e-04  -3.1819858e-04  -1.0235908e-04  -6.7040091e-05  -1.5851817e-04  -1.4168848e-04  -6.2108127e-05  -7.5213626e-05  -4.0850382e-06  -1.9492441e-05  -2.1406835e-04   5.8141246e-05  -2.6472256e-04  -2.7389888e-05  -1.2144515e-04   1.3251673e-05  -6.4085551e-05  -4.7443351e-05  -6.5360000e-05  -5.5937293e-05  -1.0055667e-04  -1.4842683e-04  -3.0609888e-05   2.0063912e-05  -1.1202943e-04  -1.4949447e-04  -5.3100826e-05  -1.3264579e-04  -3.6958856e-05  -6.3240237e-05
  -4.3521239e-05  -4.4040440e-05  -6.7232933e-05  -1.0190935e-04  -3.9533017e-05  -4.2739728e-05  -1.2700257e-04  -5.0878818e-05  -4.3050536e-06   6.0295599e-05  -6.8048816e-05   1.5575682e-05   1.6389322e-05  -8.6939093e-05  -8.0329874e-06   2.6384500e-06  -8.5068750e-05  -3.6381498e-05  -3.0469874e-04  -8.2962695e-05  -1.4722794e-04  -1.9681366e-04  -8.9588393e-05  -2.5481379e-04  -1.1527298e-04  -1.4890978e-04  -1.3557274e-05  -4.7482397e-05  -4.4283886e-05  -8.3480618e-06  -3.7406866e-05  -4.9228362e-05  -1.5973071e-04  -1.1921979e-04  -1.1247233e-04  -6.7776084e-05  -6.2762578e-05  -5.5353627e-05  -5.1973046e-05  -8.1364167e-05  -1.1266307e-04  -1.0657787e-04  -5.5423610e-05  -4.1738115e-04  -1.1509100e-04  -7.0522874e-05  -4.3447984e-05  -1.2549356e-04   2.2560080e-05  -3.0519041e-05
  -2.9869931e-05  -2.1424552e-05  -6.6764020e-05  -8.0305290e-05   3.4797907e-07  -4.9994029e-05  -1.1346822e-04  -6.8501031e-05   1.5575923e-04   5.2150437e-05  -7.5201817e-05   5.3430911e-05   3.3283704e-05  -3.5701847e-05   6.2797015e-05  -9.2300970e-06  -9.0601658e-05  -2.4691972e-05  -3.8266109e-07  -3.4197674e-05  -1.3588560e-04  -1.8337768e-04  -9.9611927e-05  -2.9603491e-04  -2.1025032e-04  -1.4986080e-04  -1.2219968e-05  -8.8267392e-05  -2.3522396e-05  -6.0844454e-06   1.8482069e-05  -5.5893372e-05  -2.4016005e-04   7.9746329e-05  -1.1055503e-04  -5.2812461e-06  -7.3483658e-05  -3.5060908e-05  -5.4997647e-05  -4.2678181e-05  -6.7657777e-05  -1.7388987e-04  -4.2835400e-05  -3.3913009e-04   1.6966237e-04  -6.3731068e-06  -1.4017586e-04  -2.0107880e-04  -9.6402779e-05   1.5511827e-05
  -1.9765197e-05  -2.6106331e-05  -8.2931685e-05  -8.2766332e-05  -1.1267655e-04  -4.8903461e-05  -1.1232341e-04  -3.0883552e-05  -8.2718907e-05   7.8076380e-05  -2.3051902e-05   5.0242983e-05   3.7637357e-05  -2.5839519e-05   2.0605969e-06   2.0353706e-05  -9.4676572e-05   4.1894713e-05   4.8323447e-05  -2.1628093e-06  -8.4415216e-05  -1.4417185e-04  -8.6121458e-05   1.7936078e-04  -1.6431283e-04  -5.6546345e-05   4.7560657e-06  -3.1168966e-05  -1.1163376e-04   4.6624000e-06  -1.8036651e-04  -2.4158865e-06  -1.6825883e-04  -2.1517405e-06  -1.0657719e-04  -1.0915114e-05  -6.6637294e-05  -4.0995252e-05  -5.6428686e-05  -7.5117721e-05  -8.0690741e-05  -1.0308350e-04  -1.7808496e-05   6.7715868e-05  -1.8952819e-04  -3.4994693e-05  -4.6129611e-05  -9.7664146e-05   6.1076011e-05   5.7165595e-05
  -2.9134540e-05  -4.1788528e-05  -5.1758660e-05  -8.3173094e-05  -9.2170711e-05  -5.1916726e-05  -8.9281544e-05   3.0301576e-06   5.5536188e-05   9.4922550e-05  -2.7582842e-05   3.8241137e-06   1.4038153e-05  -3.8026737e-05   6.5690965e-06   2.6457903e-05  -8.3093226e-05  -8.7736509e-05  -6.8830857e-05  -6.9516267e-05  -9.5806179e-05  -2.0402981e-04  -4.3500568e-05  -2.8674511e-05  -1.7087581e-04  -9.1686874e-05   3.5262474e-05  -1.0375502e-04  -7.4461241e-05  -2.8377076e-06  -4.1845993e-05  -9.5819982e-05  -1.3602129e-04  -1.7144260e-04  -1.2132014e-04  -4.3250908e-05  -2.7007451e-05  -3.0668063e-05  -5.8667101e-05  -3.0254357e-06  -7.1376788e-05  -1.4729546e-04  -1.4548173e-05  -1.8003147e-05  -1.1452791e-04  -4.7350597e-05  -1.7329497e-04  -1.6021931e-04  -2.1306498e-05   4.5305358e-05
  -3.2881722e-05  -3.7730319e-05  -8.5170839e-05  -7.1641349e-05  -6.9198497e-05  -3.6603153e-05  -8.6156921e-05  -2.0270143e-05  -1.6635921e-04   8.7332250e-05  -5.5502507e-05  -3.1798629e-07   1.5566897e-05  -5.5423439e-05   3.4534489e-05   1.1315605e-05  -6.8855865e-05  -1.6911059e-05  -1.8288092e-04  -1.9562762e-05  -1.0616297e-04  -2.5458296e-04  -9.3903567e-05  -4.3419441e-05  -1.5540941e-04  -1.0778145e-04  -2.2787339e-05  -3.5794335e-05  -1.5672933e-05   2.9901053e-06  -1.9812470e-04  -1.2224903e-06  -2.8901818e-04  -1.0622004e-04  -1.0546879e-04   1.7057517e-05  -5.8872916e-05  -5.1282033e-05  -4.2822696e-05  -4.6567908e-05  -5.2473064e-05  -7.8130186e-05  -5.5314282e-05  -2.0238022e-04  -1.5567522e-04   6.3170410e-05  -1.4236791e-04  -8.4920292e-05  -2.3069964e-05  -6.8876390e-05
  -4.7052727e-05  -3.6223013e-05  -6.1474100e-05  -7.6426630e-05  -3.5111872e-05  -5.3982782e-05  -8.4711981e-05  -6.2876767e-05  -1.3867606e-04   7.9206526e-05  -2.9394674e-05   9.6597854e-05   1.4187807e-05  -6.3603460e-05   1.5504560e-05   1.1873485e-05  -9.0526824e-05  -4.7057740e-05   8.3793690e-05  -5.7797166e-05  -8.4518193e-05  -2.0608172e-04  -1.1424871e-04  -9.9356053e-05  -2.1229150e-04  -1.1800587e-04   1.0430827e-05  -8.6910302e-05   4.7977073e-06   1.4478135e-05  -1.6089475e-04  -2.1744316e-05   1.8226949e-04   5.8353071e-05  -9.5368581e-05  -1.2553173e-05  -5.1086066e-05  -4.6405174e-05  -4.9771683e-05  -3.2194708e-05  -2.7874512e-05  -8.1856662e-05   1.5706913e-05   2.9123059e-05  -6.3681005e-06  -1.9587233e-04   1.3315892e-04  -1.3954651e-04   1.1725633e-04  -2.9972307e-05
   4.8163411e-06  -2.0532052e-05  -7.5467076e-05  -7.1109527e-05  -7.0598937e-05  -7.0820890e-05  -6.8039488e-05  -2.4048308e-05   1.1954799e-05   1.1897263e-04  -5.5587916e-06   8.7637396e-05   8.6448881e-06  -4.8195267e-05   1.6163996e-05   5.6403974e-06  -9.5661322e-05  -1.7586808e-05   1.2491379e-04  -7.7402008e-05  -1.1153110e-04  -2.3566568e-04  -1.1691802e-04  -2.2859540e-04  -1.9004298e-04  -7.6320634e-05   5.0240587e-06  -4.4773304e-05  -1.0053693e-05  -1.5210318e-05  -1.9481588e-04   3.2723248e-05   1.1874173e-05  -3.9102102e-05  -1.0703663e-04   5.7056979e-05  -5.3889966e-05  -3.7721475e-05  -5.2295876e-05  -1.0003294e-05  -5.4769800e-05  -6.6148481e-05  -3.0726074e-05  -4.3128731e-04  -2.9216139e-04   8.6982225e-05  -3.4539593e-05  -1.5605813e-04   6.1601873e-05   3.1883963e-05
  -3.1752352e-05  -3.5960034e-05  -5.8846039e-05  -8.0495178e-05  -6.4679800e-05  -6.7710200e-05  -7.1295559e-05   4.1932151e-05   1.7823301e-04   1.1094825e-04  -1.2146324e-05   1.0832466e-04  -5.6902259e-06  -3.8750870e-05  -2.1617138e-06   3.1560667e-05  -8.1355334e-05   5.5174543e-05   7.2923503e-05  -2.1088399e-05  -7.2656665e-05  -1.4481090e-04  -5.8723803e-05  -2.4015699e-04  -1.9833738e-04  -8.3393919e-05  -5.2733712e-06  -2.8055583e-05  -4.6447367e-05   9.1342927e-06  -1.0224307e-04  -5.6994431e-05  -5.0802744e-04  -7.0156486e-05  -9.4298106e-05  -4.6183704e-06   3.1868254e-05  -5.7249508e-05  -4.1204454e-05  -5.6904406e-05  -3.4276807e-05   4.7396963e-05   3.7767761e-05   1.4567267e-04  -9.4245894e-05  -1.2985707e-06  -6.8971109e-05  -1.6745644e-04  -1.9041734e-05   1.3278335e-04
  -1.3852168e-05  -2.3285918e-05  -7.0798400e-05  -6.2079576e-05  -5.8639893e-05  -4.5866203e-05  -7.4556912e-05   4.2649983e-05   1.1576712e-04   9.8346274e-05  -3.4874065e-05   1.5304517e-04   1.8729072e-06  -4.6188292e-05  -5.0514222e-06   5.0337740e-06  -1.0005487e-04  -4.8848811e-05   1.9592720e-04  -5.2704472e-05  -6.8943613e-05  -2.7133565e-04  -9.8854631e-05   1.0539025e-04  -2.1990183e-04  -7.0493312e-05   1.6828930e-05  -9.7905409e-05  -9.0623333e-05   9.4930874e-06  -2.3465160e-05  -9.8595647e-06  -2.6746836e-04  -2.4773521e-04  -7.7292105e-05   3.9631068e-05  -9.8565588e-06  -3.5656896e-05  -4.1086587e-05  -1.8404166e-05  -2.5372021e-05  -8.5827771e-05  -8.7103117e-06  -2.2595604e-04  -5.8481346e-05  -1.8746879e-04   1.1883041e-04  -1.8242150e-04   1.4054979e-04   3.1626405e-05
  -1.9445028e-05  -2.0741198e-05  -6.3786421e-05  -4.9675753e-05  -8.3724197e-05  -5.8130885e-05  -1.0074778e-04  -5.5253226e-05   3.2002466e-05   1.1403421e-04  -1.4892447e-05   1.1248033e-04  -8.5475158e-06  -1.1883867e-05  -2.0704116e-05   3.7747366e-06  -9.3663868e-05  -8.2970637e-06  -1.2516059e-04  -4.3257493e-05  -4.9016264e-05  -2.9008143e-04  -1.1206447e-04   2.0259675e-05  -2.1410070e-04  -8.3807616e-05  -4.0586970e-06  -3.4111403e-05   2.5851719e-05   8.2950410e-06  -5.2725063e-05  -2.6629497e-05  -6.6940920e-06  -2.2526667e-04  -1.0559506e-04   5.4872198e-05  -1.3202218e-06  -4.4209923e-05  -3.6980065e-05  -3.7178768e-05  -2.9521605e-05  -1.1705616e-05   2.8844101e-05  -2.5638012e-04  -5.3182452e-05   6.7754110e-05   5.3646902e-05  -8.6666259e-05   9.0966852e-05   2.8894165e-05
   6.2839385e-06  -2.1081676e-05  -7.7268778e-05  -5.5630004e-05  -7.1464878e-05  -5.5476445e-05  -2.1121108e-05   1.9251713e-05   3.4369259e-05   1.1872860e-04   3.8630437e-06   7.6845536e-05  -3.4023062e-05  -8.3855091e-05  -9.4791594e-06   1.7639495e-05  -9.6962285e-05   1.8049279e-05   1.6736574e-05  -5.0060527e-05  -9.9429082e-05  -7.5694552e-05  -7.3454226e-05   1.5992842e-05  -2.6272170e-04  -7.2935320e-05   9.8023093e-06  -6.2459239e-06  -4.4568096e-05  -9.9205636e-06   3.4685221e-05   4.9270941e-05  -2.2930847e-04  -1.5189315e-04  -1.0181426e-04   1.1508504e-04  -4.0729847e-05  -5.2821368e-05  -4.6699628e-05  -2.4819254e-05  -1.3246437e-06   4.4118027e-05   6.2199288e-06   4.2075917e-05  -1.9297930e-05  -9.9414741e-05   5.2988689e-05  -8.3353763e-05   2.2754421e-05  -1.2402847e-05
   4.0579876e-06  -3.1038413e-05  -6.0797614e-05  -5.5934463e-05  -4.2756434e-05  -5.1146137e-05  -8.4000341e-05  -1.4327708e-05   1.2159366e-04   1.1161677e-04   1.7107470e-05   1.1326285e-04  -3.4185941e-05  -5.2668711e-05  -1.4067612e-05   3.1789543e-05  -8.2723367e-05  -1.8280346e-06  -1.9203311e-04  -7.2281189e-05  -1.0107866e-04  -2.0338138e-04  -6.9979433e-05  -2.7862270e-05  -2.8938957e-04  -6.9906964e-05  -1.5007587e-05   3.7769717e-06  -7.7674558e-06  -5.7342349e-06  -1.6477577e-04   2.5947858e-05  -3.0524714e-04  -3.9719609e-05  -9.6511096e-05   3.1115840e-05  -5.9186459e-06  -3.4406308e-05  -4.3196815e-05  -6.7190369e-05  -1.2330721e-05   6.8640853e-05   1.9476678e-05  -2.1045141e-04  -2.2495614e-04  -4.8902311e-05   1.3520973e-04  -1.1018207e-04  -4.2532949e-05  -2.7985547e-05
  -6.3805160e-06  -2.5437530e-05  -5.0539402e-05  -4.0316776e-05  -2.3132057e-05  -4.3256878e-05  -6.0891274e-05   1.9637539e-05  -7.3961004e-05   1.0316934e-04   1.3553330e-06   1.1230101e-04  -2.5920299e-05  -3.5961519e-05   1.3726962e-05   2.4676106e-05  -8.5554493e-05  -2.0154459e-05  -6.8442743e-05  -4.2060830e-05  -6.7877809e-05  -1.6348880e-04  -6.9526730e-05   1.3176996e-04  -2.1649725e-04  -6.1757768e-05   9.5781597e-06  -6.7706605e-05   2.9388877e-07  -6.4500227e-07   7.0337042e-06  -2.3390070e-05  -4.7223866e-06  -8.3446866e-05  -6.9148249e-05   9.6977485e-05  -6.8661284e-05  -3.3067958e-05  -3.4634715e-05  -4.6414458e-05   1.9260260e-06  -6.4103646e-05   1.0703807e-05  -9.4976254e-05  -1.6111581e-04   1.0897901e-05  -9.7442236e-05  -8.1651298e-05   3.6767382e-05  -1.8528484e-06
  -1.6775446e-05  -8.0865384e-06  -6.0276892e-05  -3.7685601e-05  -4.9033059e-07  -5.4947966e-05  -3.8984272e-05   1.0435877e-04  -9.1565045e-05   1.0803025e-04   2.7620057e-05   1.1542629e-04  -3.3743901e-05  -1.7640145e-05   3.2789958e-05   2.1468653e-05  -8.8510023e-05  -9.0861911e-05  -1.6512765e-04  -6.1574159e-05  -5.4270567e-05  -1.2737556e-04  -7.4856500e-05   8.0911443e-05  -2.3955421e-04  -3.8008617e-05  -2.6643589e-05  -2.2085387e-05  -4.5402830e-05   1.6769782e-06  -1.5013909e-04  -6.4730841e-05   7.9649471e-05  -6.2043146e-05  -7.2520335e-05   6.8704139e-05  -6.5019776e-06  -4.9344475e-05  -3.4755467e-05  -2.0891252e-05   1.8185385e-05  -2.5932090e-06   6.5435870e-06  -1.0360563e-04  -2.1264958e-04   8.1352038e-05   2.2096107e-04  -1.7193799e-05   2.6677837e-05  -4.1747586e-05
   5.7254210e-06  -1.9851388e-05  -4.8673806e-05  -4.6715606e-05  -1.7652316e-06  -3.6550100e-05  -7.4009666e-05   6.4814441e-05   1.0608375e-04   1.0814258e-04   3.4235130e-05   1.3471257e-04  -6.1031198e-05  -3.3384655e-05   3.4193272e-05   2.4920777e-05  -7.4503783e-05  -8.3131337e-05   5.9815960e-05  -6.5041488e-05  -8.2823281e-05  -1.8558170e-04  -1.0588714e-04  -1.0560838e-04  -2.1876489e-04  -4.5426375e-05   4.9092187e-06  -5.1534105e-05  -4.1025323e-05  -1.0606020e-05  -3.0977553e-04  -1.3991361e-04  -1.3184304e-04   1.9664783e-05  -8.5888329e-05   4.2328531e-05  -2.9750070e-05  -3.5849560e-05  -2.1486016e-05  -5.9879426e-06   1.8742790e-05   1.3068014e-04   4.3291453e-05   6.1273927e-06   7.3698560e-05   4.4840159e-05   1.1853305e-04  -1.1764276e-04  -2.3776629e-06   6.5140390e-05
  -4.8661391e-06  -1.5441638e-05  -6.2032726e-05  -5.0329800e-05  -4.0542687e-05  -4.1090028e-05  -5.2586896e-05  -2.1012329e-05   1.0564728e-04   1.1562214e-04   2.9244979e-05   1.6163039e-04  -5.7661127e-05  -2.1275921e-05   3.6768462e-05   3.8029237e-05  -7.2523653e-05  -4.2511128e-05  -6.0670242e-05  -2.4368153e-05  -4.5461860e-05  -1.6340065e-04  -5.9428308e-05   3.2724941e-04  -2.3486245e-04  -9.2495648e-05  -8.1668850e-06  -2.9880051e-05   2.0186760e-06  -2.8426041e-06  -1.8859956e-04   9.8223674e-05  -2.1218941e-04   6.2538497e-06  -7.6325414e-05   1.0562618e-04   2.7388864e-05  -3.1254895e-05  -2.3634962e-05   1.2156714e-05   1.0085762e-05   2.4323221e-04   2.3318858e-05   2.6473013e-04  -1.0488926e-04   1.1196341e-04  -4.8485526e-05  -6.4804241e-05   3.1159918e-05  -5.2925432e-05
   9.7613820e-06  -2.2785598e-05  -6.5493870e-05  -2.9977715e-05   1.3923264e-05  -5.8401078e-05  -4.3522927e-05   5.7628811e-05   1.2733285e-04   1.1510318e-04   2.6318257e-05   1.6836195e-04  -5.9057038e-05  -2.8235881e-05  -7.6291803e-06   2.2290467e-05  -8.1912942e-05  -1.7736521e-06   5.1091491e-05  -4.9890561e-05  -1.8348375e-05  -1.0779631e-04  -6.7966190e-05   3.7126585e-05  -2.0878069e-04  -7.2994641e-05   3.7231434e-06   1.2212035e-05  -7.6044489e-06   5.1255583e-06  -1.3545784e-04   7.3388865e-06  -5.0685601e-05  -2.5683225e-04  -5.7586753e-05   7.8934077e-05  -5.0392395e-05  -2.4581634e-05  -2.8335326e-05   2.3859633e-05   5.2596479e-05   2.0014036e-04   4.5811823e-05  -4.0040916e-04  -1.3215239e-04   1.5049170e-04   8.8494373e-05  -5.7495592e-05   1.3007592e-05   8.8192373e-06
   2.5359323e-05  -1.1942974e-06  -3.8142778e-05  -3.0331819e-05  -1.3966720e-05  -3.7095881e-05  -4.7052604e-06   6.3233994e-05   1.4412415e-04   1.0588909e-04   5.0250976e-05   1.7079018e-04  -6.3227162e-05   3.3694289e-06  -1.0601718e-06   2.4143563e-05  -9.3581060e-05   5.1747134e-06  -5.6350837e-05  -7.1713592e-05  -4.3798180e-05  -1.2270996e-04  -7.3648240e-05   1.1934276e-04  -2.4305665e-04  -4.6809444e-05  -1.7917762e-06  -5.8615620e-05  -4.7315370e-05   4.2050542e-06  -1.8929245e-04   1.4124798e-04  -1.1198694e-04   5.5254163e-06  -6.9454618e-05   3.8847924e-05   9.7172633e-06  -1.4344981e-05  -1.7878137e-05  -2.0061821e-05   4.9497405e-05   2.5763363e-04   1.9737989e-05   5.3318250e-05   1.9992907e-04  -4.8138561e-05   3.5200935e-04  -4.5191318e-05   1.6672447e-04   8.1196602e-05
   3.6731381e-06  -1.0539243e-05  -4.8393504e-05  -3.2869779e-05  -3.0278899e-05  -2.0862841e-05  -2.1718803e-05   2.5648733e-05   1.8836357e-04   9.5094503e-05   4.7352270e-05   1.5740747e-04  -5.3234486e-05  -5.0832036e-06   1.6824861e-05   2.2071934e-05  -7.1463372e-05  -1.6358050e-05   2.1428049e-04  -2.4547704e-05  -1.8285260e-05  -2.2220095e-04  -5.6976067e-05   2.7360761e-04  -2.2376719e-04  -5.1842901e-05   3.3959288e-05  -6.4544947e-05   3.6986807e-05  -5.2205128e-06  -2.1583027e-04   1.8099800e-04   4.3461252e-05  -1.7819295e-04  -6.9134883e-05   7.3226453e-05  -3.3918575e-08  -2.2970653e-05  -4.0826049e-05  -1.0029496e-05   2.0329979e-05   1.0468035e-04   7.4104260e-05  -9.7010918e-05   6.5027372e-05  -6.8442663e-05  -1.9790083e-05   2.2297976e-05   1.1063357e-04   7.3000600e-05
   4.1862368e-06  -1.1658814e-05  -3.8306516e-05  -3.4617307e-05   1.7133902e-05  -3.8776558e-05   3.5783111e-07   1.1251200e-05   1.8701675e-04   8.4718078e-05   4.5294004e-05   1.5958353e-04  -6.4242100e-05  -1.6634572e-06   2.9830555e-05   2.6263700e-05  -6.7424546e-05  -1.7823479e-05  -4.0817773e-05  -2.2779896e-06   1.6994101e-06  -1.6306834e-04  -8.9055517e-05   4.1198818e-04  -2.0571960e-04  -4.0019098e-05  -2.1932896e-05  -1.2799693e-05   1.9491999e-05   7.2735893e-06  -1.5092069e-04   7.6652497e-05  -1.3881098e-04  -4.5919001e-05  -6.1041690e-05   1.0323581e-04   6.9728999e-06  -9.5275054e-06  -1.9633839e-05   2.3277969e-05   3.8969181e-05   8.8723995e-05   6.0373339e-05   4.2746862e-05   8.4057312e-05   9.0087335e-05   1.0432622e-04  -6.7915615e-05   1.9633109e-04   7.0212751e-05
   5.7055599e-06   7.5100402e-06  -2.3582284e-05  -2.5623258e-05  -1.3690053e-05   1.3988323e-06   2.7903957e-06   1.1748304e-04   5.7870606e-05   1.0238228e-04   8.1415281e-05   2.0130501e-04  -8.3475970e-05  -1.7939548e-05   4.8763700e-06   2.5882018e-05  -6.0892224e-05  -4.6659556e-05   1.0725218e-04  -8.1839044e-06  -3.2165131e-06  -7.6766453e-05  -6.3292166e-05   5.0436810e-04  -2.1501207e-04  -7.0993410e-05   4.4586384e-05  -3.1852469e-05  -3.2892658e-05  -3.2217254e-06  -1.8867417e-04   1.6519491e-04   1.0188665e-04  -1.8457471e-05  -5.8853100e-05   1.0500490e-04  -3.7523034e-05  -1.0788389e-05  -4.0176778e-06   1.1634281e-05   5.7439112e-05   2.1177968e-04   6.2703410e-05   3.2130245e-04   6.4651664e-05   4.7663802e-05   2.7119147e-04  -7.1014925e-05   2.1716882e-04   6.2507876e-05
  -1.2603571e-06  -1.1833067e-05  -4.0563758e-05  -3.1668857e-05   1.3401391e-05  -1.1458053e-05   4.8894453e-06   4.9728424e-05   1.5760097e-04   1.0670780e-04   7.2180585e-05   7.7216806e-05  -6.4022599e-05  -2.7658538e-05   2.1587364e-05   3.7495556e-05  -7.1537572e-05   3.8648628e-05   1.2591371e-04  -4.6151788e-05   1.0759758e-05  -9.8639750e-05  -4.4427445e-05   1.2080419e-04  -2.0293695e-04  -4.2775726e-05  -1.7985771e-05  -2.7687774e-05  -3.6742473e-05   1.8529544e-06  -2.4022961e-04   7.9529898e-05  -1.3305330e-04   1.0018314e-04  -4.5869390e-05   8.4298961e-05   4.1715299e-05  -4.5968868e-06  -2.1218417e-05   2.7369981e-05   5.0012153e-05   1.9918995e-04   4.0649804e-05  -3.3059012e-04   2.4011790e-05  -2.4034067e-05   9.6127689e-05  -8.5261890e-06   6.1610706e-05   1.5440062e-04
   7.9552419e-06  -2.1402468e-05  -2.9185558e-05  -3.2301134e-05  -7.7866871e-06  -1.3748487e-06   2.1841337e-05   5.2501404e-05   2.2707609e-04   8.6834436e-05   6.3691725e-05   1.9078961e-04  -7.7755634e-05  -4.2791871e-06   2.9812218e-05   2.9427727e-05  -6.0608159e-05   2.8969120e-05   2.0520440e-05  -2.2211287e-05   3.4475219e-05  -1.6446284e-04  -7.0097776e-05   1.1445018e-04  -1.5436401e-04  -7.4746145e-05   1.1751655e-06  -5.4109354e-05  -1.4284109e-05   2.1323331e-06  -3.0351267e-04  -3.6955593e-05   1.1519968e-04   8.3577965e-05  -4.1825184e-05   1.2830393e-04  -4.9113987e-06  -1.0237510e-05  -2.4163895e-05   3.9996348e-06   7.0402872e-05   1.3389705e-04   7.8777426e-05  -4.8360822e-04   5.7264941e-05   1.1654030e-05  -1.9751291e-05  -1.4670960e-05   8.3815758e-05   7.4266463e-06
  -1.6044144e-06  -3.7156860e-07  -5.4880231e-05  -1.6649496e-05  -1.2444667e-05  -9.6448048e-06  -1.8756824e-05   3.2294716e-05   1.1752645e-04   7.8861231e-05   6.1460058e-05   1.2323559e-04  -5.2419298e-05  -1.8226430e-05   3.9707862e-05   3.1891912e-05  -6.2522420e-05  -2.7829050e-05  -1.5307400e-04   6.9849193e-06  -1.2767166e-05  -1.3793953e-04  -8.9493660e-05   3.3848046e-04  -2.5869717e-04  -5.8894220e-05   1.5664860e-05  -5.7225843e-05  -1.2534363e-05  -1.4874649e-05  -8.1943326e-05   3.2764136e-05  -9.5007541e-05  -7.1406408e-05  -7.3377312e-05   1.3290295e-04   2.0241334e-05  -2.4438144e-05  -1.0345136e-05  -1.8425761e-05   6.4066029e-05   1.9211271e-04   8.7510023e-05  -1.4845163e-05   1.7589208e-04   6.4913482e-05   1.8201367e-04  -2.2354474e-05   2.6402264e-04   2.0326182e-05
   4.2375223e-07  -3.9711813e-06  -3.7430080e-05  -3.0661642e-05  -3.7147554e-05  -1.9298541e-05  -1.6568736e-05   4.9105278e-05   1.3098832e-04   5.7251455e-05   6.7662724e-05   5.9897266e-05  -8.0772013e-05  -1.0135645e-05   1.0288752e-05   3.4238950e-05  -6.0056598e-05  -1.1106251e-05   8.6918262e-05  -2.7254486e-05  -3.1717227e-05  -1.6656764e-04  -9.1884365e-05   2.4970784e-04  -1.6400770e-04  -5.8940484e-05   5.8925630e-06   4.6413676e-05  -6.5496541e-05  -1.5195656e-05   7.1358431e-06   7.3291494e-06  -5.3138436e-05  -3.2969470e-05  -6.8260291e-05   1.4239791e-04   1.8359342e-05  -1.0882690e-05  -2.1270667e-05   4.0568433e-05   3.4326418e-05   2.1121476e-04   8.4716972e-05   3.0413827e-05   8.0395148e-05  -1.9649790e-06   9.2280723e-05  -1.1587113e-05   1.3748997e-04   4.0109433e-05
   2.2907632e-05  -1.2671166e-05  -4.5347853e-05  -2.9378863e-05   2.9309700e-05  -1.5884249e-05  -6.4881774e-06   3.5400808e-05   2.3210779e-04   5.3094049e-05   6.2757557e-05   1.3045287e-04  -7.3339659e-05  -1.9411562e-05   2.0028294e-05   4.4064996e-05  -4.4953547e-05   1.9465610e-05   1.1821603e-04  -1.0856776e-05  -6.9821599e-06  -9.1081332e-05  -2.3702576e-05   3.9203462e-04  -1.9359092e-04  -4.8030692e-05   1.4701102e-05   2.9736242e-05  -4.1338615e-05   4.4077604e-09  -9.8931741e-06  -1.1516199e-05   1.3955243e-04  -3.9823542e-05  -6.7335000e-05   2.2524282e-04   6.2846593e-05  -1.5236917e-05  -3.0767340e-05  -4.7451799e-06   4.2232448e-05   2.1831176e-04   8.8882065e-05  -9.2509305e-05   1.2465804e-04  -1.9620649e-04   2.5935625e-04  -4.5005469e-05   1.3677322e-04   2.4993158e-05
   2.1420281e-05  -1.9403811e-05  -3.6733240e-05  -3.2756547e-05   2.6119462e-06  -6.6042662e-06  -1.4500184e-05   7.7025848e-05   2.5224578e-04   4.9104790e-05   9.2224873e-05   8.0522288e-05  -6.5767723e-05  -9.9706258e-06   6.8122863e-05   3.9144561e-05  -3.6902609e-05   1.8822948e-05  -1.1514012e-04   1.5789319e-05  -3.5206565e-05  -5.3324999e-05  -1.0234291e-04   2.7981593e-04  -1.6150274e-04  -5.0720242e-05  -2.1989845e-05  -2.2370979e-05   3.3022225e-05  -1.2167782e-05  -2.6108735e-04   2.0712567e-04   8.4007617e-05  -9.0925962e-05  -5.4254404e-05   1.1263179e-04   3.9809001e-05  -1.8011167e-05  -1.3085733e-05   2.8447166e-05   4.8151280e-05   2.8522563e-04   5.5378823e-05  -2.8009625e-04   8.2784019e-05  -7.4678079e-05  -6.9036803e-05  -6.6315770e-05   2.6533965e-04   4.3347369e-05
   8.2040706e-06  -3.9478959e-06  -4.9286347e-05  -3.1731139e-05  -1.1739824e-05  -1.2897815e-05  -1.0459690e-05   4.0939063e-05   3.2552882e-04   3.2854816e-05   7.2948096e-05   8.3009574e-05  -7.6608070e-05   1.8114819e-05   1.6844186e-05   5.8483689e-05  -4.6936297e-05   4.4190845e-05   2.4928479e-04   3.2273508e-06  -4.8335660e-05  -1.1588581e-04  -1.3304023e-04   2.2066981e-04  -1.4042840e-04  -5.6545494e-05  -7.3848983e-06  -3.6612280e-05  -2.2034190e-05  -2.0008058e-05  -2.5780246e-04   6.9746457e-05  -2.1011776e-05  -1.0972070e-04  -4.0542087e-05   8.8872788e-05   3.3158092e-05  -5.5167420e-06  -1.7210254e-05  -8.1214584e-06   5.7177651e-05   1.6297185e-04   8.8162160e-05  -2.2561960e-04  -1.0302476e-04   1.9690154e-04   1.5179197e-04   2.3146965e-06   2.0738343e-04   7.5291719e-05
   1.6424978e-05  -1.1891209e-05  -4.0631716e-05  -2.8737701e-05   7.4912696e-06  -1.1361050e-05   8.9896439e-06   3.6195241e-05   3.1031080e-04   2.6465179e-05   5.7660229e-05   1.4360480e-04  -5.6330344e-05  -2.1087799e-05   2.4936866e-05   3.7976220e-05  -2.2993096e-05  -1.6769907e-05   3.3952863e-04   2.7957356e-06   1.6508931e-05  -1.1770063e-04  -1.0539604e-04  -1.1482057e-05  -1.5674529e-04  -5.8309615e-05   2.3473489e-05  -4.9416401e-05  -3.9519186e-05   5.0229676e-07  -6.0152634e-06   1.7457776e-05  -1.2592420e-04   2.1265141e-05  -4.7557907e-05   1.0491711e-04   4.2209140e-05  -8.1658718e-06  -1.6195267e-05   2.9081279e-05   5.5570596e-05   2.3580334e-04   8.9560504e-05   4.5202764e-06  -5.6673016e-05   2.2989156e-04   4.0366786e-04  -3.0936208e-05   2.3274402e-04   1.5607476e-04
   5.6257563e-06  -2.2660015e-07  -3.0920084e-05  -2.2194832e-05  -2.0546542e-05   8.1778268e-07   1.0640193e-05   7.3312309e-05   1.5204486e-04   2.6717091e-05   6.0828574e-05   1.2201912e-04  -6.7176799e-05  -6.6675151e-05   3.2087399e-05   5.2843046e-05  -4.7759200e-05   2.5020487e-05  -5.8238053e-05  -1.9967772e-05   3.6223535e-06  -1.6185635e-04  -7.2805553e-05   3.0468206e-04  -1.7182869e-04  -3.8264352e-05   2.2953431e-05  -7.6674241e-06  -4.6229587e-05  -2.0268275e-05   5.5192733e-05   1.6805132e-04  -1.5938213e-05  -2.7523676e-05  -5.2375588e-05   9.5527452e-05   5.4261171e-05  -8.8047877e-08  -2.3152317e-05  -7.9139312e-07   3.4535951e-05   1.8207304e-04   9.4623370e-05  -1.6783742e-04   1.8493472e-04   1.6956644e-04   3.2774522e-04  -7.4492862e-05   1.4409694e-04   1.2091189e-04
   9.1924048e-06  -1.2553792e-05  -3.9634171e-05  -2.5960619e-05   2.8941402e-05   1.8453635e-05   2.0789015e-07  -2.1482967e-06   1.2727708e-04   5.4363477e-06   5.2175692e-05   6.6509172e-05  -7.8472120e-05  -1.9589266e-05   4.8525486e-05   5.5010005e-05  -2.8175786e-05   5.4853328e-05  -5.0682851e-05  -1.4939521e-07  -1.8890325e-05  -9.7312899e-05  -8.6126478e-05   2.7506551e-04  -1.5296684e-04  -1.5559210e-05  -2.8583181e-05   2.9467801e-05  -4.6738751e-05  -1.9443439e-06  -1.3442711e-04   1.1291481e-04   8.3845611e-05  -1.6403249e-04  -3.7021262e-05   6.4309155e-05  -6.4326209e-06  -2.4122121e-05  -3.2824526e-05  -2.7807029e-05   6.6638800e-05   1.1490103e-04   1.0662126e-04  -3.3400013e-04   1.6986358e-04  -7.3392323e-05  -3.7329537e-05  -4.2069831e-05   2.1919873e-04   1.4592425e-04
  -7.7631639e-06  -1.4058382e-05  -3.1391945e-05  -3.9271836e-05  -4.4569802e-06  -3.3110937e-06  -4.0848504e-06   8.0620939e-06   1.5298948e-04   1.2683714e-05   5.5451714e-05   6.4887958e-05  -6.2172054e-05  -5.5819237e-05   1.7825434e-05   4.8721282e-05  -4.3850963e-05   9.3967399e-05   7.2351744e-05  -2.9908642e-05  -2.1827898e-06  -1.5197230e-04  -1.2810538e-04  -2.0711966e-05  -1.3203807e-04  -1.3505944e-05  -2.8046523e-05  -5.9405982e-05  -1.5151541e-05  -4.3752966e-06  -2.2419238e-04   1.2860184e-04   4.8627662e-05   8.3063562e-05  -3.5463891e-05   7.5048440e-05  -3.4657845e-05  -4.6793807e-06  -1.3461025e-05   1.8474952e-05   5.0023882e-05   1.4045539e-04   1.1288161e-04  -2.8279694e-05   1.8098542e-06  -1.0226314e-04   2.8709034e-04   2.4696565e-05   2.4017172e-04   1.2275024e-04
   7.1205754e-06   5.7361785e-06  -5.1585903e-05  -4.9544778e-05   1.1986037e-05  -1.4479108e-05   1.8992108e-05   5.9828970e-05  -9.9744584e-06  -2.8360023e-06   3.9427217e-05   3.4150227e-05  -5.6485103e-05  -5.8454577e-07   9.2626060e-06   4.8469909e-05  -2.5695426e-05  -2.8181868e-05   8.6262902e-05   4.0119357e-05  -1.3979108e-05  -6.5997010e-05  -8.7745473e-05   1.4572577e-04  -1.4599602e-04  -5.6830082e-05  -1.8504161e-05  -1.8078832e-05   9.5819869e-06  -5.7080965e-06  -9.8346376e-05  -3.2037613e-05  -7.8205419e-05  -1.7440948e-04  -3.9967395e-05   5.4631852e-05  -8.5534048e-06  -2.0252368e-05  -2.3785957e-05   2.3100849e-05   4.2370419e-05   8.4343708e-05   9.7100630e-05   1.8823285e-04   8.6349370e-05   1.0688593e-04   2.1895897e-04   1.0802575e-05   2.2654340e-04   8.8908375e-05
  -1.8111296e-05  -6.0721027e-07  -5.2336414e-05  -3.9017894e-05  -6.0128001e-05  -5.2011677e-07  -2.7682512e-05   3.3368793e-05   2.0172504e-04  -1.8602868e-05   3.6860445e-05   7.8453952e-05  -3.9877799e-05  -2.0886493e-05   3.8982318e-05   3.8975475e-05  -2.9972769e-05  -4.4076420e-05  -1.8906050e-05  -9.7110351e-06  -1.8450135e-05  -7.8607896e-05  -1.1839055e-04   3.7116316e-04  -1.8969018e-04  -3.8525362e-05  -3.6414876e-05   1.6337399e-05   1.9911618e-05  -6.1960227e-06  -6.1074061e-06  -2.7859038e-05   3.6068894e-05  -3.7046266e-05  -4.0565115e-05   1.1237033e-04   4.4477834e-05  -1.1802434e-05  -1.4071523e-05  -3.7416856e-05   4.0234267e-05  -9.2750170e-06   1.0401983e-04   4.0240629e-05   7.8112775e-05   2.5730810e-04   8.2949926e-05   6.3240637e-05   2.3926109e-04   1.5908938e-04
  -1.7141729e-05  -1.9922998e-05  -5.0874318e-05  -4.4333723e-05  -3.6109395e-05  -1.2602610e-05  -1.1235229e-05  -1.9975982e-05   1.5732959e-04  -1.4178959e-05   6.2327104e-05  -8.7380595e-06  -5.5320768e-05  -2.5504822e-05   3.2631306e-05   6.4599764e-05  -2.5291280e-05   2.8725453e-05   3.2208645e-04   3.4383177e-06  -5.7652720e-05  -7.7769982e-05  -1.4402733e-04  -1.0659095e-04  -7.1870279e-05  -2.1405189e-05   1.8290069e-05  -4.0367391e-05  -8.1557278e-05  -1.8742767e-05  -9.4997013e-05   1.1259103e-04  -1.5437539e-04   3.4559371e-06  -6.7483750e-05   4.0028557e-05  -5.1085849e-06  -3.4753706e-05  -1.0240307e-05   6.5545595e-07   4.7581052e-05  -3.5722773e-05   7.7750199e-05  -4.2569558e-05   1.9485306e-04  -1.1943106e-04   3.0447467e-05  -4.8264919e-05   1.4300484e-04   1.4270091e-04
   1.0770737e-05   2.8300292e-06  -5.2116422e-05  -5.2737247e-05  -3.1048032e-05   2.1758384e-05  -6.0100770e-05  -6.3799744e-06   9.8581637e-05  -1.8589128e-05   1.5127670e-05  -2.8370123e-05  -4.2877564e-05  -4.3354063e-05   7.3415445e-06   6.5278189e-05  -1.1441845e-05   2.7518219e-05   2.6883857e-04  -3.5659967e-05  -2.9464594e-05  -1.2606662e-04  -1.3337606e-04   1.0923755e-04  -8.3723717e-05  -1.1213615e-05   1.0209501e-05  -4.3628468e-05  -1.7975726e-06  -1.9524590e-05   2.7508871e-05  -4.7051068e-05   8.8079876e-05  -4.5459961e-05  -1.9670979e-05   7.5464304e-05  -1.5137906e-05  -2.2203765e-05  -2.0824391e-05   8.2067472e-06   3.1788208e-05  -6.3456413e-05   6.3147847e-05  -1.5731301e-04   5.6932757e-05  -5.6065779e-05   3.5690100e-04  -2.6565041e-05   1.7671585e-04   3.2040974e-05
  -5.0751682e-06  -1.1676620e-05  -7.3311676e-05  -4.6240752e-05  -9.7504899e-06   2.5373771e-05  -3.7351547e-05   9.5044134e-06   2.8726217e-04  -2.6509453e-05   1.7528026e-05  -2.9315943e-05  -3.6922469e-05  -4.8104408e-05   3.5329776e-05   4.8260375e-05  -2.4824520e-05  -9.8437556e-07  -3.2819724e-05  -2.9808965e-05  -3.9485931e-05  -5.8097965e-05  -8.8244422e-05  -1.5637502e-06  -1.3368196e-04   2.5117924e-06  -3.0541880e-05  -5.3365875e-05  -3.6883022e-05  -1.8058858e-05  -5.3128741e-05   3.1554780e-06  -1.5658916e-05   3.8821199e-05  -5.2894571e-05   6.3434563e-05   6.8783214e-07  -4.4893754e-05  -1.8590184e-05   3.9666174e-05   1.9481693e-05  -2.0955664e-05   9.0035806e-05  -3.4708224e-04  -7.0891889e-05   5.1201572e-05   1.5132038e-04   7.7456971e-05   2.0840921e-04   1.0367178e-04
  -3.1849202e-06  -3.0077450e-05  -7.2819537e-05  -6.3134969e-05  -8.8234374e-05  -2.4960091e-05  -3.6330872e-05  -3.5857527e-05   1.4992300e-04  -2.6491500e-05   4.2409734e-05  -6.6578155e-05  -2.6147587e-05  -5.9734804e-05   9.3016621e-07   4.6729161e-05  -2.4428524e-05  -2.8427903e-05   4.7000125e-05  -1.7394510e-05  -7.0060705e-05  -1.3062864e-05  -9.8508033e-05   2.4973066e-04  -5.8871847e-05  -1.4479047e-05   2.2289601e-05   3.7711952e-06  -4.2393538e-05  -2.4393641e-05  -1.5414803e-04   1.0319246e-04  -8.7636981e-06   1.2794143e-04  -7.5143085e-05   6.6758366e-05  -6.2429477e-05  -3.9468130e-05  -2.3029277e-05  -3.0302712e-05  -6.4191195e-06  -1.6848224e-05   7.6241937e-05   1.8496004e-04   1.1162263e-04  -1.8247063e-05   1.5257268e-05   2.4958370e-05   9.6241725e-05   1.0327148e-04
  -2.4745177e-05  -7.8089870e-06  -8.6304986e-05  -6.5119792e-05   8.5912516e-06  -1.1486542e-05  -3.8295981e-05  -2.9838595e-05   1.1697031e-04  -4.9894727e-05   1.7424738e-05  -5.8552585e-05  -2.2693403e-05  -3.8073355e-05   1.8439625e-05   4.5824316e-05  -1.8978391e-05  -3.1268522e-05  -4.9364113e-05   3.6915151e-06  -6.4202970e-05  -7.6712255e-05  -1.6485309e-04  -3.9215087e-05  -5.0676153e-05  -3.0147772e-05  -3.9300307e-05  -2.0722089e-06  -3.1875297e-05  -2.4140132e-05  -6.4190658e-06   1.2676309e-04  -1.3867485e-04  -2.7001028e-05  -4.3196476e-05   1.2285734e-04  -2.0661793e-05  -3.7225698e-05  -3.0350362e-05  -5.9124883e-05   1.2583609e-05  -5.0333667e-05   6.8702546e-05   2.3729301e-05   2.4372066e-05   1.2659407e-04   9.4361720e-05   6.3658576e-05   1.7945169e-04   7.9402649e-05
  -2.9991261e-05  -1.4387123e-05  -8.9617366e-05  -5.1525367e-05  -8.4471867e-06   3.6929250e-05  -6.1835570e-05  -1.5239361e-05   6.7826652e-05  -4.1654439e-05   1.3116111e-05  -9.1854214e-05  -1.5885020e-05  -6.8211753e-05   5.6772687e-06   3.8577247e-05  -2.8164093e-06   3.8991865e-07  -2.5965281e-05   1.4465988e-07  -2.3739221e-05  -1.1759954e-04  -1.0080577e-04   1.2582076e-04  -1.2109090e-04  -9.7779348e-06  -2.9169871e-06  -2.2801354e-05  -5.2728672e-05  -1.9864096e-05  -4.7979545e-05  -2.6600805e-05  -1.5251234e-04  -8.8504112e-06  -5.7372963e-05   3.8983511e-05  -2.0128700e-05  -4.2130458e-05  -4.5663091e-05  -5.3527219e-05  -4.9683667e-06  -9.8977660e-05   5.5229710e-05  -1.5925345e-04   1.8050477e-04  -4.1454983e-05  -7.4484393e-05   7.8352619e-05   2.8994749e-04   5.3599444e-05
  -2.6735868e-05  -3.3308015e-06  -9.9132376e-05  -7.7670782e-05  -1.0377114e-04  -9.0702879e-06  -7.9246245e-05  -2.3851811e-05   1.2186294e-04  -5.0254828e-05   2.2687271e-05  -3.0031330e-05  -1.9386665e-05  -8.1169143e-05  -1.0196147e-05   6.6309862e-05  -3.1448664e-05   8.1878061e-06  -5.4304710e-05  -3.6274332e-06  -3.7325186e-05  -1.0458328e-04  -1.1727029e-04   1.5656762e-05  -8.0066216e-05  -3.1470227e-05  -6.5305314e-05  -9.6551623e-05  -3.8457201e-05  -2.8465058e-05  -1.7602071e-04  -9.5461510e-05  -2.1968600e-04  -6.0818064e-05  -6.0891060e-05   4.9953644e-05  -3.3385397e-05  -3.4707889e-05  -3.4189492e-05  -4.2936237e-05  -3.1054147e-05  -1.2143729e-04   6.4817003e-05   5.2762261e-05  -1.8406472e-04   1.6432756e-05   9.9211429e-05  -2.5099091e-05   2.1564469e-04   1.9083493e-05
  -1.5556599e-05  -2.0218522e-05  -8.1830891e-05  -7.4705611e-05  -5.3690728e-05   1.9178968e-05  -8.8820576e-05  -2.6777559e-05  -2.7396549e-05  -6.5242748e-05   1.4772963e-05  -1.1444296e-04  -1.4989395e-05  -7.4481344e-05   1.7590452e-05   3.2230742e-05  -1.6826551e-05  -7.5255382e-05  -1.6840627e-04  -2.9601597e-05  -7.4926997e-05  -8.3428436e-05  -1.1935022e-04   1.7940602e-05  -7.2833391e-05  -2.5390684e-05  -6.7497863e-06  -2.3891087e-05   1.1138889e-05  -2.0448892e-05  -2.8851477e-04  -1.1027942e-04  -7.9773919e-05   1.0858464e-04  -4.3201355e-05   4.8120033e-05  -4.3838707e-05  -3.3732562e-05  -3.4379274e-05  -6.6703840e-05  -1.9745148e-06  -4.0640716e-05   7.4737916e-05   9.6687058e-05   6.8197478e-05   1.3365869e-04  -3.8602324e-05   1.0193003e-04   1.6608546e-04   5.2924035e-05
  -1.2105271e-05  -5.8570067e-06  -1.0581534e-04  -8.0169346e-05  -4.8098500e-05  -7.5122279e-07  -7.7701370e-05  -6.6036024e-05   2.6465260e-04  -7.3463627e-05  -2.8647132e-06  -3.4479933e-06   3.9131219e-06  -5.1530275e-05   3.7313122e-05   3.7969206e-05  -1.6485066e-05  -1.7188555e-05   7.1251678e-05  -1.4642268e-05  -3.0575524e-05  -1.3065069e-04  -7.4633848e-05   3.2220774e-05   1.6397466e-05  -3.9304934e-05  -3.7874706e-05  -5.9031430e-05  -6.2931009e-05  -3.2509481e-05  -1.3456031e-04   1.0785820e-06  -2.3438074e-04  -1.4975594e-04  -4.8959122e-05   2.3287574e-05  -3.2071555e-05  -3.6451460e-05  -2.8840153e-05  -2.9954174e-06   1.5641450e-05  -1.2778825e-04   7.3220443e-05   2.6570044e-05   4.0031687e-06   1.5847484e-04   1.7710936e-05   5.4849725e-06   1.3212427e-04   1.0288119e-04
  -8.1402195e-06   2.3837374e-06  -6.7551773e-05  -6.0027065e-05  -1.0970750e-04  -1.0037975e-05  -6.1714141e-05   5.6446748e-05   5.5636490e-05  -4.5736117e-05   1.9792224e-05  -8.8130080e-05   5.1995639e-06  -6.2813458e-05   1.5139368e-05   2.9128993e-05  -1.7877415e-05  -2.3145376e-05   1.9869446e-04  -5.5118486e-05  -4.5737230e-05  -5.2408392e-05  -1.0348588e-04  -5.7040338e-06  -4.9651724e-05  -1.5704161e-05  -8.8740191e-05  -3.0840525e-05  -1.0248741e-04  -3.4901899e-05   4.5920234e-07   8.2426050e-05  -9.3004637e-05  -4.1067428e-06  -6.8224377e-05   6.5299653e-05  -1.1507055e-05  -3.5758407e-05  -2.6558719e-05   9.0526109e-06  -1.6843409e-05  -6.4548454e-05   1.2083897e-04   4.2170988e-05  -1.9288232e-04   2.5884178e-04   6.1517944e-06  -6.1031860e-05   1.8123079e-04   4.4473516e-05
  -2.1114010e-05  -5.9415324e-06  -1.0373417e-04  -8.2194965e-05  -4.9889659e-05   5.0166718e-06  -8.5954562e-05  -1.2091124e-05   9.2567236e-05  -7.4653901e-05   2.6082304e-05  -2.6631991e-05  -1.2117215e-05  -5.2355943e-05  -3.7992006e-05   4.3844942e-05  -1.7043465e-05  -1.3374147e-05  -2.9277257e-04  -4.8922630e-05  -6.3104349e-06  -1.2038741e-04  -1.4907548e-04  -4.3575394e-05  -2.0588509e-06   9.3590506e-06  -4.2556738e-05  -1.0263016e-04  -1.8363424e-05  -4.0019062e-05  -2.3248405e-04  -4.9636990e-05   9.3562878e-05  -1.1995257e-04  -7.4601201e-05   1.6003834e-05  -5.8169149e-05  -4.0645973e-05  -3.4280762e-05  -6.8900459e-05  -2.0364885e-05  -9.4944327e-05   9.5418154e-06  -2.1122500e-05  -1.1313946e-04  -1.1874166e-04   2.6876011e-04  -5.5475666e-05   2.3338635e-04   9.3557668e-05
  -2.6361020e-05  -1.0007068e-05  -9.7065415e-05  -8.1737104e-05  -8.6425673e-05  -2.0554968e-05  -8.1972124e-05   2.5936577e-05   2.0831208e-04  -8.7769433e-05   2.1749265e-05  -2.0210296e-05   5.4607726e-06  -8.2924678e-05  -4.7911901e-05   2.2479486e-05  -1.7347007e-05  -1.7231583e-05  -5.8495232e-05  -1.3732109e-05  -2.3713152e-05  -8.6522312e-05  -1.3339789e-04   2.0026491e-04  -1.7870327e-05   5.4781131e-06  -3.7700367e-05  -1.1871151e-04  -2.7451648e-07  -2.2258328e-05  -1.7356250e-04  -7.7919474e-05   4.4454395e-05   9.0189416e-05  -8.7484223e-05   2.5968804e-05  -3.0599898e-05  -4.3508051e-05  -3.5861416e-05  -8.3989289e-05  -1.2340773e-05  -1.1094392e-05   6.4058666e-05   1.0822725e-04   2.6999784e-05  -1.3445613e-04   2.4067462e-05  -1.4450493e-05   1.0736891e-04   9.6633012e-06
  -2.5687366e-05  -1.6313650e-05  -1.0317025e-04  -8.2642786e-05  -7.9512320e-05  -9.6835893e-06  -1.0247979e-04  -2.0104862e-05   1.1159747e-04  -7.0876500e-05   1.0817951e-05  -7.1456430e-05  -9.1015090e-06  -6.5674925e-05  -5.1425195e-06   2.8707815e-05  -4.0739447e-05  -3.2437991e-05   2.7085895e-05  -6.1085816e-06  -3.4965997e-05   1.5678404e-05  -1.3027532e-04   1.5142695e-04  -5.8897011e-05   1.4540002e-05  -7.6801880e-05  -9.5699252e-05  -6.9805537e-05  -2.5487854e-05  -3.7229554e-05   8.4162486e-05   2.0839693e-04  -8.3109480e-05  -7.6710952e-05   2.6469384e-05  -2.2987362e-05  -5.2693977e-05  -2.9432835e-05  -3.9699928e-05  -8.0487016e-06  -4.1066851e-05   8.3542836e-05   1.5543756e-04  -1.9993479e-04   7.6771859e-05   7.3356874e-05  -4.1630185e-05   3.9215298e-05   7.2825082e-05
  -9.4162133e-06  -1.3622260e-05  -8.2053877e-05  -6.6019791e-05  -6.6891640e-05  -5.4724705e-07  -6.3268242e-05  -3.9477127e-05   1.5509926e-04  -6.5341468e-05   5.8349244e-05  -8.2793136e-05  -1.6026382e-06  -5.9197162e-05   2.2761078e-06   2.9759425e-05  -2.9005587e-05  -2.3647179e-05  -5.4187367e-05  -1.1566766e-05  -2.6620519e-05  -1.0408436e-04  -1.2777117e-04   2.1200140e-04   2.9383234e-06   4.2895676e-06  -7.6689808e-05  -5.3277883e-05  -4.1151714e-05  -4.4973487e-05  -1.6818928e-04  -9.3906847e-06   9.8923643e-05  -1.2433229e-04  -7.5187781e-05   1.1199573e-04  -7.4506432e-05  -4.6994886e-05  -3.7387905e-05  -2.0734513e-05  -2.0494910e-05   4.6752531e-05   4.9785180e-05   1.0288377e-04   1.2109629e-05  -1.2666779e-04   1.0319064e-04  -1.4198295e-05   3.4369747e-04   1.2729922e-05
  -3.3094238e-05  -2.2430868e-05  -1.0347703e-04  -7.8863915e-05  -5.4162989e-05  -6.0833363e-06  -8.6130443e-05  -6.3758525e-05  -7.3492884e-06  -7.6424127e-05   8.5101492e-06  -5.7330453e-05  -1.0475010e-05  -7.3772993e-05  -2.3287552e-05   1.8734770e-05  -3.7091446e-05  -6.0255188e-05  -1.7608055e-04   1.5750213e-05   9.7534194e-06  -8.7162203e-05  -1.0461751e-04  -6.7341869e-05   8.4490339e-06  -9.8121427e-06  -6.9892048e-05  -1.3805597e-04  -3.7266840e-05  -3.4988207e-05  -7.4865602e-06   8.5631086e-07  -2.2445446e-04  -3.8058279e-05  -7.3312207e-05   1.9503344e-05  -1.7613440e-05  -5.5489661e-05  -4.2629337e-05  -9.0023444e-05  -1.7321681e-05   5.5752043e-05   3.6807240e-05  -4.7498535e-05  -2.1881348e-04   1.7450181e-04   9.9945690e-05  -2.2026537e-05   7.5703385e-05   3.3773627e-05
  -1.6580125e-05  -9.6200047e-06  -1.1662946e-04  -7.2157396e-05  -5.9396916e-05  -1.6883530e-05  -6.8964509e-05  -3.2452888e-05  -1.4235182e-05  -7.5216900e-05   3.6685629e-05   4.9099043e-07  -3.2746241e-06  -7.1529306e-05   1.2580020e-05   2.0190073e-05  -3.9929233e-05  -1.5332751e-05  -1.8778795e-04  -3.8559243e-05  -2.1711827e-05  -8.5323973e-06  -1.9403857e-04  -7.9319449e-05  -2.1564039e-05  -9.1336324e-06  -9.7009333e-06  -6.2165898e-05  -4.7263300e-05  -3.6214857e-05  -4.4808326e-05  -4.7539324e-05  -1.9942886e-04  -4.4037690e-05  -7.6308788e-05  -2.0251786e-05  -7.9066398e-05  -5.1851533e-05  -6.0081475e-05  -6.8207621e-05   2.6038715e-05  -3.8622411e-06   3.8647398e-05  -3.3104105e-04   1.3991802e-04  -2.2828905e-04   4.9885581e-05  -5.1834257e-05   2.0200864e-04   1.7886710e-05
  -1.8532935e-05   7.6936785e-06  -9.3377203e-05  -6.3452077e-05  -7.7600467e-05  -1.3406912e-05  -6.4208754e-05  -6.2156864e-06   2.0878980e-04  -8.1800928e-05   2.7239101e-05  -1.9509571e-05  -5.8189567e-06  -6.1236940e-05   6.6316425e-06   3.8377880e-06  -5.5550583e-05  -6.4238237e-05  -2.0974854e-04  -3.4090674e-05   9.4299821e-06  -1.9990641e-05  -1.4273342e-04  -1.4122847e-05  -2.8921979e-05   1.0653544e-05  -3.6357829e-05  -6.6940964e-05  -8.0896505e-05  -2.5223024e-05  -7.8786281e-05  -9.6318887e-05   7.7290642e-05  -1.4593212e-04  -5.9329243e-05   1.0009777e-04  -3.8990900e-05  -6.4088883e-05  -3.6016205e-05  -5.1332008e-06   1.7512546e-05   5.4659860e-05   4.4566317e-05  -2.1315277e-04  -9.2170521e-05  -2.0890850e-04   7.4543022e-05  -6.7620022e-05   2.9157454e-04   3.9812639e-05
  -3.5667558e-06  -9.4314046e-06  -7.9342091e-05  -6.9097390e-05  -1.0813304e-04  -7.9303036e-06  -8.6177584e-05  -8.8337511e-05  -2.3850400e-05  -7.4040661e-05   5.4157605e-05  -3.7215399e-05  -7.7681589e-06  -9.5147436e-05  -2.6481386e-05   2.2885921e-05  -5.0124421e-05  -4.2898439e-05   8.7259607e-05  -2.4445082e-05   1.5587029e-05  -1.7829424e-04  -1.3053490e-04   2.1513217e-04  -1.2092872e-05   1.1071464e-05  -6.1536390e-05  -1.1700682e-04  -5.3967207e-05  -3.6235437e-05  -1.2936299e-04  -3.1309153e-06  -1.5162220e-05   4.9520982e-05  -7.1142313e-05  -2.3846429e-05  -4.6259192e-05  -6.8491056e-05  -4.9966551e-05  -3.9056744e-05   8.9341502e-06  -3.0821433e-05   3.9202805e-05  -8.7889957e-06   1.7366963e-04  -6.7100373e-05   1.3246977e-04  -1.3287937e-04   1.6896914e-04   7.3912670e-05
  -3.1978012e-05  -2.1043188e-05  -7.4191310e-05  -7.1085633e-05  -1.2843635e-04  -2.6534128e-05  -6.9881717e-05  -6.5336564e-05   3.2279044e-05  -7.8190671e-05   3.6816695e-05  -8.0796061e-05  -6.0908942e-06  -6.2660853e-05  -3.1063228e-05   6.7995179e-06  -5.0987113e-05  -2.9285691e-05   3.8335031e-05  -1.5214666e-05  -3.5467565e-05  -7.2419847e-05  -1.5299088e-04  -1.1559235e-04  -7.0936025e-05   1.5822034e-05  -4.8797054e-05  -1.0731182e-04  -6.7962523e-05  -3.3701566e-05  -3.9904720e-05   1.3640779e-05   8.1201702e-05  -5.8730951e-05  -7.8360768e-05   4.2473770e-05  -2.8730828e-05  -6.2340085e-05  -5.0767972e-05  -3.7695572e-05   1.7561284e-05   1.3938548e-04   5.0086597e-05   4.2940934e-05  -8.8282795e-05  -1.2789022e-04   9.4679162e-05  -4.1150717e-05   2.0674249e-04   9.8410994e-05
  -1.6015907e-05  -9.5468422e-06  -9.4306008e-05  -6.7840556e-05  -4.7773396e-05  -2.5788971e-05  -5.9580681e-05   6.6622451e-06   1.8345163e-04  -8.4560153e-05   3.2015869e-05   3.6908499e-05  -1.5790127e-05  -6.2287967e-05   3.5425051e-06   3.5640726e-06  -6.0608490e-05  -3.6043119e-05   1.8092095e-04  -5.3633544e-06   1.0470990e-05  -2.0793177e-05  -1.6926193e-04   1.0279942e-04   6.4815622e-06   1.0728053e-05   4.6295718e-06  -7.8149678e-05  -5.8157220e-05  -2.7943754e-05  -1.1051708e-04  -1.0984855e-04   6.1115185e-05  -1.1984350e-04  -7.7338584e-05   4.4889388e-05  -5.6736448e-05  -5.2069849e-05  -5.5045140e-05  -8.9910922e-05   3.7074271e-05  -1.5716911e-05   7.1446091e-05  -3.9338009e-04   1.0916479e-04   5.3983313e-05   4.4375836e-05  -1.1512463e-04   3.8707515e-04   4.0902738e-05
  -4.7204324e-08   6.9221841e-08  -7.3970099e-05  -5.9778533e-05  -1.0546669e-04  -2.0025571e-05  -4.4434855e-05  -9.1880847e-06   1.2394473e-04  -7.1942792e-05   4.6102810e-05   2.7354676e-05  -2.5819210e-05  -1.3011607e-04  -2.5921881e-05   6.7482197e-06  -5.4568700e-05  -3.1114138e-05  -2.9389962e-04  -2.7886168e-05   5.0180456e-06  -1.5742478e-05  -1.3906324e-04   6.1844534e-05  -9.7614946e-05  -3.3672590e-05  -2.6165255e-05  -1.0840219e-04  -7.4057039e-05  -2.3411374e-05  -9.5546573e-05  -7.0968570e-05  -2.4808289e-05   9.4558127e-05  -7.4290161e-05   6.4739601e-05  -7.3553936e-05  -5.1984694e-05  -2.8132559e-05  -4.0402258e-05   2.5547961e-05   1.3020016e-04   6.1791412e-05  -1.4496966e-04  -7.3397723e-06   1.6888950e-04  -1.4883503e-05  -6.0733339e-05   3.5079551e-04   6.9874215e-05
   8.9129180e-06  -1.7921342e-05  -8.6488071e-05  -6.0925824e-05  -6.2657185e-05  -3.8065082e-05  -6.5090710e-05  -7.2419534e-05   1.0331201e-04  -6.9418180e-05   5.3134096e-05  -2.5647456e-05  -2.8634000e-05  -6.0271737e-05  -3.2378801e-05   1.0192197e-05  -6.1305247e-05   2.1351379e-05   1.6736127e-04  -1.8239840e-05  -3.2497333e-05  -8.9774439e-05  -1.6307436e-04   1.0447574e-04  -1.2520644e-04   3.5611054e-05  -5.1157094e-06  -1.5364724e-04  -4.7258560e-05  -3.6150970e-05  -1.1392323e-04  -5.9910788e-05  -1.4753547e-05  -8.2811966e-05  -6.7145658e-05   8.4264080e-05  -8.3316612e-05  -5.2665768e-05  -5.1321982e-05  -2.1455991e-05   2.8619444e-05   2.2951880e-04   8.7203342e-05   1.4999317e-04  -1.8605202e-05  -6.8871559e-05   1.2174881e-04  -7.1586030e-05   2.8252893e-04   6.9929352e-05
  -2.7002088e-05   1.4583477e-06  -8.2416052e-05  -4.5863289e-05  -7.0177979e-05  -3.3509859e-05  -5.0752849e-05  -2.9993764e-05   3.2745951e-04  -6.9198570e-05   3.9123752e-05  -7.4066884e-06  -1.1009987e-05  -4.7190148e-05  -6.9158191e-06   1.1123677e-05  -5.8511894e-05  -1.4914832e-05   1.8208331e-04  -9.4491961e-06  -1.0320760e-05  -6.3865431e-05  -1.5590046e-04  -3.8750251e-05  -7.1407914e-05   4.2768559e-05  -5.3401585e-05  -8.6600478e-05  -4.4297543e-05  -2.0166199e-05  -1.1938632e-04   6.7661008e-06   1.4186910e-05   2.2575370e-05  -6.8394947e-05   8.2454928e-05  -4.2726282e-05  -5.6562771e-05  -6.5399414e-05  -8.2438346e-05   5.3189509e-05   1.5549760e-04   7.3653522e-05  -1.3796904e-04  -2.2922688e-05   6.3191379e-05   8.9593552e-05  -3.0442699e-05   1.9985734e-04   1.0464370e-04
  -1.0489764e-05  -4.9772430e-06  -8.0185455e-05  -4.6448426e-05  -1.8417297e-05  -2.0422789e-05  -2.6120268e-05  -9.0326912e-06   9.7172349e-05  -7.1264425e-05   4.3713779e-05  -4.5443281e-05  -3.7215028e-05  -9.1782138e-05  -6.7954584e-06   8.6347936e-06  -6.6437919e-05   2.4505285e-05  -8.6636028e-05  -1.0450976e-05   2.5911051e-05  -1.2304429e-04  -1.8060512e-04  -3.4606659e-05  -1.5599806e-04   1.4914569e-05  -3.3144464e-05  -1.5509425e-04  -7.6835924e-05  -2.5437943e-05  -6.2830870e-05  -3.9903181e-05   3.9160892e-05  -1.6271892e-04  -8.0318554e-05   7.3159135e-05  -1.7277649e-05  -5.4941454e-05  -3.8286922e-05  -8.3377869e-05   3.7077698e-05   1.3249771e-04   5.4811178e-05   3.7243904e-04  -1.0746706e-06   1.9682717e-04  -5.9851998e-05   2.5026657e-05   3.5061347e-04   6.7941619e-05
  -9.8857608e-06  -5.2778846e-06  -7.5413605e-05  -4.4510743e-05  -9.4412673e-05  -1.1824099e-05  -2.7292141e-05  -3.0301946e-06   1.9607710e-04  -5.5316017e-05   7.0457383e-05   2.5691346e-05  -3.2531654e-05  -9.0378926e-05   1.5937270e-05   4.8481138e-06  -7.1967945e-05  -5.4222997e-05   3.2953074e-04   2.3113147e-05   8.0436148e-06  -7.3132425e-05  -1.6242205e-04   1.1338172e-06  -4.1698037e-05   2.3496588e-05   1.5689442e-05  -1.0318174e-04  -1.0448151e-05  -3.0792977e-05  -1.7575716e-04  -1.6758262e-04   9.2647242e-05  -1.3733690e-04  -8.5708321e-05   9.6640455e-05  -8.8835761e-05  -4.4234392e-05  -3.4081084e-05  -3.4602926e-05   4.0290182e-05   4.2958753e-05   7.2732495e-05   2.6682060e-04  -1.5393831e-04   5.1377818e-05  -7.8195822e-05  -7.0670889e-05   2.9395934e-04   8.4953455e-05
  -2.8695167e-05  -1.7502991e-05  -1.0614759e-04  -5.5582444e-05  -5.2321768e-05  -3.0720897e-05  -5.5586614e-05  -3.6470516e-05   1.1483109e-05  -6.2816915e-05   5.8524191e-05  -8.9106188e-06  -4.2865744e-05  -7.8279940e-05  -3.2137013e-05   4.8852107e-06  -6.4788466e-05   5.1584584e-06   2.0929764e-04  -3.7542404e-06  -2.0030662e-05  -9.9830038e-05  -1.6364644e-04  -8.8919740e-05  -5.5169214e-05   2.5399757e-05  -2.0876638e-05  -1.2951565e-04  -5.3381551e-05  -3.1333668e-05  -2.6592767e-04  -6.1282364e-05  -3.1464902e-04  -2.6643739e-04  -6.5697452e-05   4.3665357e-05  -6.4938235e-05  -6.1440187e-05  -3.2200889e-05  -8.7520180e-05   6.2633000e-05   1.3339278e-04   1.1318176e-04   3.0382516e-04   2.6178197e-04  -1.1532109e-04   5.1548057e-05  -1.0064588e-04   2.3354260e-04   1.7601596e-04
   6.6636840e-06   2.5017027e-06  -8.7297987e-05  -3.6683505e-05  -6.3494888e-05  -2.3138620e-05  -2.8472281e-05  -7.3471325e-05   2.3648941e-05  -7.1605995e-05   3.0093423e-05  -2.1239952e-05  -2.5243440e-05  -7.2071278e-05  -2.0373591e-05   8.3750219e-06  -7.2117451e-05  -5.9565562e-05  -2.6267848e-04  -1.7846827e-05   8.2550350e-06  -6.8004374e-05  -1.7892125e-04   1.8997418e-04  -9.4266412e-05   2.4110937e-05  -2.6332895e-05  -6.7873691e-05  -4.0772197e-06  -1.6549173e-05  -2.3741230e-04  -3.4908724e-06   2.0194202e-05  -8.9555164e-05  -5.9694019e-05   9.7752760e-05  -4.0537238e-05  -4.9804476e-05  -4.9384664e-05  -4.6690839e-05   4.5156648e-05   6.2520536e-05   8.1896673e-05  -3.5186228e-04  -1.8542376e-04  -1.7931183e-04   3.1007227e-04  -4.5750581e-05   2.4686789e-04   1.3566184e-04
  -3.5764901e-05  -4.5023768e-08  -6.9657959e-05  -3.6912566e-05  -5.3096833e-06  -1.4059602e-05  -1.7166169e-05  -5.4166853e-06   2.0088880e-04  -6.4281994e-05   4.1037001e-05   1.6590095e-05  -3.0399697e-05  -7.9861733e-05  -8.6793762e-06   7.9254141e-06  -7.8521436e-05  -3.3840839e-05   8.2931401e-05  -1.5306001e-05   9.5625392e-06  -9.3983297e-05  -1.8289767e-04  -7.3055438e-05  -1.2614499e-04   2.1766640e-05  -2.1933163e-05  -1.1572885e-04  -8.6564316e-05  -1.9763596e-05   4.1176114e-05   1.1088156e-04   2.5766736e-05  -6.6423585e-05  -8.1555620e-05   1.1457960e-04   2.4685725e-05  -5.0550563e-05  -2.7133010e-05  -4.0343217e-05   4.1974530e-05   1.0441500e-04   7.6899574e-05   1.0320976e-04   2.0842020e-04  -1.4391978e-04   2.7872951e-04   1.7017343e-05   1.4096709e-04   1.1568557e-04
  -1.3001488e-05  -8.7425551e-06  -6.2458181e-05  -4.1147629e-05  -4.2656000e-05  -4.5819826e-05  -4.3611130e-05   2.8759909e-05   1.3728347e-04  -6.3647203e-05   6.8940928e-05   4.4411201e-05  -3.3474978e-05  -1.1468395e-04  -4.0042640e-05  -8.8999650e-06  -6.9934642e-05  -3.1439828e-05   1.3045078e-04  -5.3788259e-05   3.8410395e-05  -1.2242493e-04  -1.9843805e-04   5.5139222e-05  -1.2512770e-04  -8.5704833e-06  -2.8281444e-05  -1.1157281e-04  -1.3612898e-05  -2.2316484e-05  -9.0345042e-05  -6.9028538e-05  -9.3527115e-06  -2.6386758e-04  -8.5477630e-05   3.8702954e-05  -2.6875879e-05  -5.0421073e-05  -3.9702987e-05  -2.8265587e-05   3.7553571e-05   1.2677032e-04   7.5059579e-05  -1.5427321e-04  -8.0964877e-05  -4.6177014e-05   1.3446363e-04  -5.9132042e-05   1.2395199e-04   6.8246445e-06
  -1.8615916e-05  -6.4350379e-06  -7.5202712e-05  -3.7232043e-05  -2.4633777e-05  -3.8190698e-05  -1.7317951e-05  -4.5803285e-05   9.7327647e-05  -5.4431297e-05   3.3261495e-05   4.8618126e-06  -4.2322310e-05  -1.0461039e-04  -2.6120783e-06  -6.4065130e-06  -7.0711743e-05  -2.4780923e-07   1.1024997e-04  -3.7309960e-07   6.4487745e-06  -4.2510164e-05  -1.2930040e-04   2.4960496e-04  -3.5952755e-05  -2.2090895e-05  -5.6109398e-05  -9.5607138e-05  -1.1512861e-04  -3.7704751e-05  -1.0509878e-04   1.9131048e-05  -4.3436721e-05  -2.3385493e-05  -7.0340364e-05   6.8367597e-05  -6.1888037e-05  -5.9583388e-05  -3.5913887e-05   1.0410818e-05   4.5241755e-05   1.7274298e-04   5.8989721e-05  -1.1506513e-04  -2.1650620e-05   3.6888236e-05   1.7446258e-04  -9.7357646e-05   2.1473387e-04   6.9950569e-05
  -2.3938610e-05  -4.3269206e-06  -4.3923927e-05  -3.9937771e-05  -3.1795375e-05  -3.4781558e-05  -3.1922107e-05   1.4782077e-05   5.1192103e-05  -6.8075256e-05   4.9248039e-05   2.9806766e-05  -1.6237278e-05  -9.6318588e-05  -8.8163306e-06  -1.2690130e-05  -6.1667568e-05  -2.0459927e-05   1.9108749e-04  -1.1534128e-05   4.9920498e-05  -1.0407808e-04  -1.2832775e-04   1.9982881e-04  -8.7981556e-05  -1.1048702e-05  -6.0521030e-05  -1.0380027e-04  -5.5639044e-05  -2.2181906e-05  -2.5102068e-04  -1.9109762e-05  -2.7747944e-04  -6.7802699e-05  -6.8882131e-05   9.2865776e-05  -3.3651555e-05  -6.0623635e-05  -3.5301251e-05  -7.1551673e-05   4.2343581e-05   1.5584489e-04   7.3406736e-05   1.9611769e-05  -9.0523768e-05   1.7653541e-04   1.6605414e-05   1.9181971e-05   2.4384614e-04   7.4827607e-05
  -4.0120810e-07   8.9533478e-06  -6.2121981e-05  -1.9914742e-05  -7.6807373e-05  -1.3492964e-05  -3.8461123e-05   2.0670172e-05   1.8544128e-04  -5.0653704e-05   5.3280219e-05  -1.2213834e-05  -4.2949319e-05  -6.5283748e-05  -3.6571455e-05   5.2177338e-06  -7.1653943e-05  -1.5236986e-05  -2.3826644e-05  -4.0175855e-05   3.0626688e-05  -2.1176904e-05  -1.3414341e-04   2.6649583e-04  -7.7275545e-05   6.7048350e-06  -2.2839353e-05  -8.5343789e-05  -4.9332462e-05  -3.5668472e-05  -1.5471721e-04  -4.7501824e-05  -1.1571554e-04  -1.4474809e-04  -7.1728587e-05   1.0471357e-04  -1.9586007e-05  -5.0872844e-05  -2.4185609e-05  -2.2553681e-05   2.9668950e-05   7.8295547e-05   5.9207483e-05  -3.7186392e-04   1.1762357e-04   2.1300944e-05   2.2298911e-04  -6.4371940e-05   2.0616379e-04   1.1646435e-04
  -6.9738558e-06  -1.1840020e-05  -5.6803354e-05  -3.3699936e-05  -1.7501294e-05  -3.8374419e-05  -1.4655988e-05   1.8193332e-05   1.9479172e-04  -6.0908551e-05   4.9394352e-05   3.6236070e-05  -3.7457216e-05  -8.1093349e-05  -3.8719427e-05  -1.5058040e-06  -7.4308315e-05  -6.5866989e-05   1.7866395e-04  -1.4417423e-05  -1.1758845e-05  -1.2760438e-04  -1.0177513e-04   5.0809180e-05  -9.1619644e-05  -2.5517204e-05  -6.1549610e-05  -7.9616642e-05  -1.5796168e-05  -2.9046309e-05  -1.0204113e-04  -2.5739910e-05   1.2791336e-04   3.7365960e-05  -8.1775237e-05  -1.3180831e-05  -4.8226902e-05  -6.6883476e-05  -3.9739789e-05  -1.0557780e-05   2.4280889e-05   1.0581124e-04   5.8424379e-05   1.9406735e-04  -1.4902219e-04   1.2608978e-04   1.4523705e-04   2.2048641e-06   5.0179508e-05   7.1876304e-05
  -1.6302141e-05  -3.6395256e-06  -7.8598889e-05  -2.6467564e-05   1.5461503e-05  -1.8627861e-05  -4.9045768e-05  -2.7613954e-05   2.0120217e-04  -6.7395726e-05   3.3668552e-05   1.4427900e-06  -2.8842642e-05  -8.0781516e-05  -2.2929442e-05  -1.5200636e-05  -8.0771315e-05  -3.4744939e-05   4.3945425e-04  -1.4379508e-05   2.5410269e-05  -1.9047699e-04  -1.0657286e-04   4.9061200e-05  -1.1544666e-04  -2.3103903e-05  -1.1150866e-05  -9.2000017e-05  -6.9537759e-06  -2.2352280e-05  -7.6072509e-05   2.3723367e-05   2.6374508e-04  -1.7446662e-04  -5.3597836e-05   6.1396815e-05  -2.6910937e-05  -4.2198437e-05  -2.9717530e-05  -4.0388450e-06   5.1745723e-05   2.0322429e-04   7.1963106e-05   2.3828002e-04   5.6102650e-05  -2.0906225e-05   7.3582065e-05   2.0065971e-05   1.9207170e-04   3.1122650e-05
  -1.7407792e-05   7.5730777e-06  -5.9582548e-05  -1.9110119e-05  -1.4997385e-05  -7.7965315e-06   8.7023318e-06  -3.0884228e-05   1.9765554e-04  -6.8636138e-05   5.5256674e-05   4.5315806e-05  -4.7337286e-05  -5.7600293e-05   5.6317663e-06  -6.8517902e-06  -8.1983613e-05  -6.3667139e-05   9.6514850e-05  -1.3010400e-05   4.7250065e-05   2.1203621e-06  -1.1680189e-04  -4.3336488e-05  -1.1498100e-04  -2.9517907e-05  -6.7604436e-05  -6.6674816e-05  -4.5182132e-05  -2.1797154e-05  -7.0438400e-05  -1.5820452e-04   1.2010804e-04  -1.1035922e-04  -6.8085457e-05   1.5235955e-05  -2.1869580e-05  -6.4898682e-05  -3.5502002e-05  -1.2441683e-05   4.1107054e-05   5.6761124e-05   3.6932757e-05  -2.7686174e-04  -2.7380820e-05  -1.0403465e-04   2.1804603e-04  -7.8807687e-05   1.7038215e-04   2.1182766e-05
  -9.2907003e-06  -5.6466838e-06  -7.0806927e-05  -3.3843127e-05  -7.2156326e-05  -3.6661466e-05   2.8995743e-07  -2.0578416e-05   1.0314876e-04  -5.2523217e-05   7.3648705e-05  -6.9509297e-05  -5.2237498e-05  -8.9711430e-05  -2.6601880e-05   1.0133627e-05  -7.0979841e-05   4.4920512e-06   1.4114102e-04   6.3009793e-06   2.6153108e-05   6.0762814e-06  -1.4866315e-04   2.3996949e-04  -8.5362051e-05  -3.1308937e-05  -4.4361659e-05  -2.1601136e-05  -3.2038366e-05  -2.6125619e-05   6.7102599e-05  -6.3575077e-05  -2.0541440e-04  -1.7205383e-06  -5.5544424e-05   5.1039358e-05  -2.2233485e-06  -3.8828712e-05  -3.4520235e-05  -4.5133875e-05   4.5288747e-05   3.4316923e-05   9.9387980e-05   2.5540747e-04  -1.0868208e-04  -7.4773168e-05   1.1015678e-04  -2.3508797e-05   1.0356186e-04   8.1889608e-05
  -8.2436882e-06  -5.2973301e-06  -5.8318419e-05  -2.5122677e-05  -1.3189590e-05  -4.0476993e-06  -3.3833403e-05   2.9274737e-05   2.3702760e-05  -6.5514338e-05   3.7907841e-05   4.0875351e-05  -5.9252128e-05  -1.1895188e-04  -3.4627996e-05  -7.0856872e-06  -8.8736677e-05   7.4229665e-06   2.0366476e-04   1.5171286e-06   3.1335432e-05  -9.2640454e-05  -1.3006853e-04  -6.3071828e-05  -1.4276402e-04  -4.6764286e-05  -3.9514347e-05  -6.4483756e-05  -3.3957702e-05  -3.5919718e-05  -4.9807877e-05  -1.2303324e-04  -1.4995069e-04  -1.2071154e-04  -9.5317890e-05   6.0863109e-05  -4.4699034e-05  -3.5779391e-05  -3.8121372e-05   3.7121267e-06   3.7870697e-05   1.8874028e-04   3.5625744e-05   2.6927833e-04   8.1237253e-05   5.4791348e-05   2.5865062e-05  -1.0543631e-05   1.2313719e-04   4.2099728e-05
  -2.9034662e-05  -1.0030487e-06  -6.5719651e-05  -2.5534673e-05  -2.2961976e-05  -1.3052558e-05  -2.8621660e-05  -2.8541450e-05   1.4139000e-04  -8.0978702e-05   2.7382393e-05  -2.6072516e-05  -5.2478903e-05  -7.3750431e-05   2.4224410e-05  -1.0257168e-05  -6.8337555e-05  -4.6029469e-05   2.6800873e-04  -4.4564633e-05   7.9878329e-05  -5.4757500e-05  -1.6790841e-04   2.8689791e-04  -1.3744384e-04  -4.5358323e-05  -3.8779406e-05  -6.1566192e-05   4.7245062e-06  -3.0249983e-05  -2.4854751e-05   2.0381263e-05   1.9307692e-04   5.5017194e-06  -6.4621061e-05   3.9517556e-05  -1.5303971e-05  -4.4332035e-05  -2.1158090e-05  -1.2339017e-05   4.4840712e-05   1.7878111e-04   6.7908375e-05  -2.6586768e-04  -1.1835772e-04  -1.3703131e-04   9.5964991e-05  -8.4127848e-08   6.2824030e-05   3.3783930e-05
  -5.3480330e-06   2.4453857e-06  -5.8229041e-05  -2.5483370e-05  -3.0182589e-05   5.3150015e-06   1.3381092e-05  -5.1574807e-05   1.9761652e-04  -5.3955373e-05   4.3253127e-05  -3.6339166e-05  -6.4836007e-05  -1.0597793e-04  -8.6114878e-06  -6.0042862e-06  -8.4397368e-05  -5.4096072e-05  -6.8754423e-05  -2.6454405e-05  -2.6757083e-05  -2.6347334e-05  -1.6936674e-04   1.5910048e-04  -1.0965805e-04  -1.2114175e-05  -9.3708411e-05  -9.9462712e-05  -3.1434687e-05  -3.6659796e-05  -1.0660410e-04  -7.3551040e-05  -2.5266112e-04  -5.6341345e-05  -7.6801851e-05   6.0168339e-05   5.9716131e-06  -4.5280754e-05  -1.6508449e-05   6.9557686e-06   5.3212727e-05   2.2753367e-04   6.5498287e-05   1.1737765e-04  -4.8414131e-05  -1.2117410e-04  -5.4529455e-06   4.1100800e-05   1.5388131e-04   1.0661397e-04
   4.4425410e-06   8.0273358e-06  -5.1396884e-05  -3.0010184e-05   2.4017336e-05  -2.7583330e-05  -3.6315356e-05  -7.5215571e-06   1.4955475e-04  -6.6784109e-05   1.8238456e-05  -6.5407767e-06  -8.5690401e-05  -8.7951063e-05  -2.0419126e-05   1.2179153e-05  -6.7621579e-05  -4.8521866e-05   2.3399366e-04   1.2339088e-06  -7.2526227e-06  -3.7967344e-05  -1.4042475e-04   2.8954606e-04  -1.3299800e-04  -7.5660013e-05  -3.9367591e-05  -8.8241024e-05  -5.5761507e-06  -2.9146142e-05   1.7626662e-05  -8.0435811e-06  -1.8851199e-06  -8.9200847e-05  -6.3738909e-05   4.4032076e-05  -2.9518695e-05  -4.7874808e-05  -1.9377751e-05  -4.6829507e-05   3.3537392e-05   7.1042603e-05   4.8771242e-05   6.6569992e-06   9.6451207e-05   8.7292628e-06   2.6040279e-06  -4.0585778e-06   7.6605924e-05   4.0223953e-05
  -5.5594469e-06  -1.0161441e-05  -4.5701938e-05  -1.5076529e-05   4.2587584e-05  -7.1998402e-06   3.4641412e-06  -3.3941064e-06   7.6822536e-05  -6.8741865e-05   1.6820321e-05   4.7925856e-05  -6.8347239e-05  -6.0800056e-05  -2.2016004e-05  -3.1143345e-06  -6.5456908e-05  -5.4849927e-05  -1.0122878e-04  -1.0749654e-05   1.6004534e-06  -1.0462903e-04  -1.3049085e-04  -3.7989998e-05  -1.3864589e-04  -1.6800021e-05  -1.0261116e-06  -9.9396588e-05  -3.6515547e-05  -1.5914131e-05  -8.7835542e-05   4.2177799e-05  -1.0835360e-05   6.2449235e-06  -4.8125545e-05   3.2036216e-05  -4.8751939e-05  -5.2896867e-05  -1.2960063e-05  -5.5843746e-05   4.7740719e-05   7.2315597e-05   3.9179322e-05  -1.4946837e-04   6.5569839e-05   1.0192232e-04  -1.1523274e-05  -5.7368870e-05   4.9901282e-05   2.1401887e-05
  -1.7097791e-05   1.7601615e-05  -3.1857915e-05  -1.4335475e-05   1.4708568e-05  -2.2570519e-05   1.0492819e-05  -9.0957150e-07  -1.4672280e-04  -7.8485056e-05   6.2827457e-05  -2.1291158e-05  -6.8834823e-05  -8.2412706e-05  -3.4717912e-05  -5.6910876e-06  -5.6665129e-05  -6.0146969e-05   7.0966293e-05   2.0635027e-05   2.6361764e-05  -4.4850880e-05  -1.2759544e-04   3.7615260e-04  -5.4667667e-05  -3.9612507e-05  -3.6180776e-05  -1.0014624e-04  -7.0062553e-05  -3.0435882e-05  -9.6750504e-05  -1.2896708e-04  -1.2776762e-04  -6.7790606e-05  -6.1534316e-05   2.1889777e-05  -2.3969113e-05  -4.7273163e-05  -1.5421614e-05  -4.4881643e-05   3.2971249e-05   6.8225767e-05   6.0857081e-05  -2.5305783e-04  -5.6365793e-06   8.6129337e-05  -7.2720846e-05   3.3643191e-05   1.3857975e-04   2.7946880e-05
  -4.2242318e-06  -1.2399762e-06  -5.1466992e-05  -2.0891252e-05   3.2365881e-06   2.0369575e-06   2.2838121e-05  -1.7334934e-05   1.0271890e-04  -8.0013808e-05   2.3354431e-05   9.0975409e-06  -7.6971759e-05  -9.2861177e-05   4.2556649e-06  -1.0146484e-05  -6.9144262e-05  -6.9186201e-05   2.2048611e-04  -1.4426194e-05  -3.2902597e-05  -8.5732951e-05  -1.6156949e-04  -2.1154410e-05  -1.7772948e-04  -3.7667403e-05  -5.1929070e-05  -3.8738108e-05  -2.7931657e-05  -2.8654558e-05   4.6436788e-05  -1.3365157e-04   2.2584872e-04  -1.0975383e-04  -7.2570336e-05   5.4028893e-05   1.0295764e-05  -3.3915730e-05  -2.0653353e-05  -2.6993288e-05   3.6812100e-05   1.9588508e-04   2.1465314e-05  -2.4729059e-04   6.6151100e-05   1.2772367e-04   1.5585551e-04  -2.9494639e-05   1.3388424e-04   1.0218063e-04
  -1.0723943e-05   1.7837690e-05  -4.3753487e-05  -1.6327145e-05   5.6933408e-05  -1.5823280e-06   2.9485454e-06  -2.2929993e-05   1.2634865e-04  -9.9026060e-05   1.7613171e-05  -4.6057103e-05  -5.0141884e-05  -5.3630192e-05  -1.3186933e-05   1.4867582e-06  -6.6096865e-05  -4.3523301e-05  -2.6995706e-04  -1.6240190e-05  -3.3308781e-06  -1.9971108e-05  -1.3675101e-04  -3.0862258e-04  -1.3316536e-04  -5.6104003e-05  -3.6699374e-05  -4.3408581e-05  -1.6532018e-05  -2.8990444e-05  -1.0131094e-04   3.3736087e-05  -7.7005607e-06   2.1469810e-05  -5.7788624e-05   4.7003265e-05  -4.3986383e-05  -4.3906835e-05  -1.2578076e-05   4.9267215e-05   5.7679277e-05   2.6893837e-04   1.7685266e-05   2.2504832e-05   2.7786809e-05  -2.0695603e-04  -3.7419690e-05   2.1510272e-05   7.3455240e-06   1.4264282e-04
   1.4001943e-05   5.3341836e-07  -4.5333683e-05  -1.2046633e-05  -1.5813946e-05   1.6921229e-06  -8.6023310e-06   2.7664362e-05   2.1532435e-04  -7.3255796e-05   5.7143814e-05  -4.5061261e-05  -7.1379807e-05  -9.9726793e-05   1.8835517e-05   3.6552672e-06  -5.8881626e-05  -9.4581643e-05  -1.6114498e-04   2.1752039e-05   2.4092145e-05  -3.8707254e-05  -1.7281789e-04   1.7455792e-05  -6.2017476e-05  -4.1606545e-05  -1.0640244e-04  -5.5385575e-05  -5.4100019e-05  -3.1187978e-05  -1.7008235e-04   3.9963270e-05  -1.4036101e-04  -8.4812702e-05  -5.2529431e-05   6.0394964e-06  -2.9476076e-05  -6.1950406e-05  -1.4087961e-05  -1.4886265e-05   3.0723622e-05   8.2854822e-05   5.6374742e-05  -2.5252625e-04  -1.0223887e-05  -7.4837473e-05   1.9038779e-04  -3.3761495e-05   7.4584990e-05   8.2873667e-05
   1.1032674e-05   1.0786633e-05  -6.6256827e-05  -1.0952327e-05  -5.4118032e-06   1.4037320e-05  -1.4318809e-05  -3.4623288e-05   1.2662550e-04  -8.0046819e-05   3.2094616e-05  -3.8507704e-05  -6.3877320e-05  -1.0666061e-04   1.8204322e-05  -1.4063207e-05  -5.6306013e-05  -3.1565149e-05   3.0709934e-04  -1.4348508e-05  -3.6962847e-05  -1.4209296e-05  -1.4418735e-04   2.5492205e-04  -1.2205605e-04  -9.5663909e-06  -7.7211596e-05  -1.0136222e-04  -1.7686385e-05  -3.9457442e-05  -4.4621862e-05   4.5277968e-05   4.5427929e-05   6.9842194e-05  -5.5802298e-05   5.1898347e-05  -6.4655942e-06  -4.3298311e-05  -1.6353333e-05   1.4264571e-05   4.3650849e-05  -6.2780324e-05   4.2855412e-05  -2.3182682e-04  -4.7264082e-05  -1.2498019e-04   1.1170944e-04  -3.7898764e-05   4.3258522e-05   9.2891474e-05
  -1.0752141e-05   5.5200881e-06  -6.0511862e-05  -6.0014822e-06   3.0412855e-06   1.3763952e-05   4.1258186e-06   7.6777418e-05   3.6496866e-05  -9.8424389e-05   2.5921196e-05  -3.9905011e-05  -6.2522995e-05  -8.0303289e-05   3.5764155e-05   2.6290568e-06  -7.0356495e-05  -7.5964184e-05   2.7357260e-04   2.1993857e-05   1.1587507e-05  -7.2958115e-05  -1.9302443e-04   1.2185161e-04  -6.5850036e-05  -3.1104002e-05  -9.4867035e-05  -7.5289077e-05  -5.4797430e-05  -2.5624855e-05  -2.6053502e-04   5.2972548e-05  -2.8265960e-04  -3.5539550e-05  -3.6189649e-05   5.9855716e-05   1.0377282e-05  -4.7838163e-05  -2.6810359e-05  -8.9952355e-06   3.2016516e-05   9.6030148e-05   9.5309493e-05  -5.3947671e-05  -1.0811704e-04  -1.3495942e-04   3.1264983e-05  -9.5211371e-06   4.5337292e-05   5.5401437e-05
   1.0101182e-05   2.1757547e-05  -2.6395488e-05  -1.0397214e-05  -4.2389682e-05   4.1117091e-06   2.8785885e-06  -2.9319885e-05   1.3967592e-04  -9.7162330e-05   3.5391171e-05  -5.5160810e-05  -6.3152933e-05  -6.2457118e-05   3.8901326e-06  -4.1565509e-06  -4.7449688e-05   1.3317831e-05   6.0210961e-05  -2.2547425e-05  -1.0374692e-05  -1.1729688e-04  -1.8063337e-04   1.8213100e-04  -9.8346733e-05  -1.7937651e-05  -2.3322738e-05  -1.7075481e-05  -4.7332167e-05  -2.8644970e-05   1.6369162e-05   1.2666789e-05  -1.3245185e-05   5.2099640e-06  -5.4089651e-05  -3.4348268e-05   2.7732915e-05  -4.8007641e-05  -1.4019407e-05  -3.0910822e-05   4.5040644e-05   2.6557000e-05   6.0769511e-05  -4.9192633e-05   3.3762895e-05   1.1738712e-04   2.6840353e-04   5.8742767e-06   2.3021150e-04   1.9039266e-04
  -8.4984396e-07   1.6732060e-05  -3.1978896e-05  -3.5912778e-06   2.9465056e-05   6.2160648e-06   4.8482066e-06   9.8956145e-05   1.8446460e-04  -9.3697709e-05   2.0123551e-05  -2.0174775e-05  -5.3703752e-05  -9.4171810e-05  -1.5388701e-05  -3.2424666e-06  -5.4946689e-05  -1.0667569e-05  -7.3970128e-05   2.0683412e-05  -1.8120059e-05  -3.4962726e-05  -1.3812055e-04  -7.2010254e-05  -1.3723751e-04  -4.1575382e-05  -4.6925310e-05  -8.5847772e-05  -3.8209819e-05  -2.3413859e-05  -1.2227526e-04  -8.8396642e-05  -2.0356315e-04  -4.2278014e-05  -5.3136853e-05   1.5283002e-05   2.2256891e-05  -3.8451391e-05  -2.9855582e-05  -4.6853802e-05   2.3418737e-05   1.0134072e-04   5.4902001e-05  -6.5660512e-05  -4.6966848e-06   1.6940929e-04   1.6737194e-04   4.5007717e-05   1.6329803e-05  -1.8633794e-07
  -1.3709457e-05   1.9846975e-05  -5.0878738e-05  -9.3451390e-06  -1.3909682e-05   1.1636663e-05  -7.2990765e-06   2.3986904e-05  -7.1278148e-05  -1.0112490e-04   2.0765758e-05  -4.1713251e-05  -6.0878861e-05  -1.0579309e-04  -8.7986737e-06   1.9635388e-06  -3.4609999e-05  -1.9069827e-04   1.9421804e-04  -4.7656093e-05  -1.8522225e-05  -1.4076814e-04  -1.2584293e-04  -1.3046130e-04  -1.2099189e-04  -3.6511126e-05  -3.1383090e-05  -3.7679729e-05  -3.0616546e-05  -2.1173035e-05  -7.7354634e-05  -3.2962937e-05  -7.0300797e-05  -4.4004839e-05  -3.8751310e-05   2.1497015e-05   2.7439521e-06  -3.9805156e-05  -1.7398439e-05  -1.2605370e-06   4.4149234e-05   2.6704094e-05   6.9166737e-05   1.0462069e-04   6.7192748e-05  -1.4638540e-04   1.4757880e-04   3.5501085e-05   2.3482895e-05   5.5102792e-05
  -1.0297316e-05   1.6038206e-05  -2.9911176e-05  -1.3221240e-06  -6.0111711e-06   7.5047155e-06   3.7953534e-05  -1.7868762e-05   6.6803928e-05  -9.6123556e-05   2.0838710e-05  -6.9354355e-05  -5.4757944e-05  -5.5614775e-05  -2.5287472e-06   7.9588672e-06  -4.0330928e-05  -6.8393114e-05   1.1209129e-04  -3.2890926e-05   2.9190243e-05   7.1509152e-05  -1.3812659e-04  -6.2078398e-05  -6.8986068e-05  -3.1131160e-05  -7.2271578e-05  -6.5427274e-05  -7.4736607e-05  -2.3336397e-05  -2.1455346e-05   3.0373001e-05   1.5482602e-04  -7.3026393e-05  -5.2791678e-05   6.0517865e-05   2.3928676e-05  -2.6062355e-05  -2.4388624e-05  -1.6729424e-05   3.6805905e-05  -1.0731728e-04   5.8857608e-05  -2.0007488e-05   5.0403851e-05   2.3798243e-04   1.0697247e-04  -3.1854659e-05   1.6970908e-04   7.5478849e-05
  -1.1521952e-06   1.0671657e-05  -3.6341815e-05  -1.5064490e-05  -3.9056500e-05   1.5583182e-05  -8.9652385e-06  -4.1463268e-06  -4.9415888e-05  -1.0169282e-04   1.5454561e-05  -1.1931125e-04  -6.1437218e-05  -9.4737952e-05   7.7354189e-06   3.7550510e-06  -3.8360620e-05  -7.7435478e-05   2.4327970e-04  -6.0167608e-06  -1.0544060e-05  -2.9734983e-05  -9.7882003e-05  -5.2628933e-05  -1.0176480e-04  -6.1771672e-05  -3.3765289e-05  -7.2676274e-05  -1.8769033e-05  -2.5026678e-05  -7.2835704e-05  -5.4791941e-05  -1.7911520e-05   1.2605675e-05  -4.7843492e-05   6.0169390e-05  -1.9675175e-05  -4.2724252e-05  -2.0250287e-05  -3.7536858e-05   1.9468929e-05   2.1578942e-05   2.7770551e-05  -1.9623902e-04   8.6113731e-05   1.1311142e-04  -8.4679286e-06   2.8330521e-06   5.5971792e-05   3.2211938e-05
   2.8778138e-06  -2.1805195e-06  -4.2935091e-05  -3.6641195e-06   1.1130944e-07   1.1944632e-05   8.5196625e-06   4.0681512e-05   1.0152800e-04  -1.2596625e-04  -9.3034059e-06  -1.6347600e-04  -5.2184725e-05  -9.1052425e-05   2.9750798e-05   9.9263005e-08  -4.0306266e-05  -1.1838453e-04   2.3630713e-04   2.7851183e-05  -1.7531096e-05   5.5977216e-05  -1.6030876e-04   3.1831770e-04  -9.0872745e-05  -4.8712591e-05  -2.4711435e-05  -7.4607582e-05  -2.4417863e-05  -2.9882649e-05  -7.7650890e-05  -1.0004442e-04   2.3225576e-04  -4.8924263e-05  -4.6227186e-05   2.9704752e-05  -3.1513428e-05  -4.6081430e-05  -1.9333371e-05  -4.6017132e-05   2.3833063e-05   1.8680776e-05   2.2153257e-05  -1.2284621e-04  -1.3617096e-04   4.7062691e-05   3.2918644e-05   9.4097072e-07   1.5407411e-04   4.2333580e-05
   1.7567299e-06   1.6877082e-05  -2.4719750e-06  -2.5259158e-06  -6.2513871e-05   1.1570354e-05  -5.1241486e-06   1.5141848e-06  -3.9545557e-05  -1.1149730e-04   2.1212119e-05  -9.3810224e-05  -5.3133892e-05  -7.1770715e-05  -5.3107165e-06  -1.7355634e-06  -3.3829907e-05  -5.1885916e-05   1.1902593e-04  -9.6555059e-06  -5.6988341e-05  -5.8087055e-05  -9.8369688e-05   1.1015426e-04  -7.4113632e-05  -3.7735215e-06  -4.7124020e-05  -1.0334329e-04  -5.0567061e-05  -3.0536368e-05  -6.3266270e-05   1.2228845e-04   1.6259805e-04  -2.1920447e-07  -5.1897699e-05   2.8476235e-05  -2.1521382e-05  -3.7555168e-05  -1.7419965e-05  -1.1300610e-05   2.8392942e-05   4.0082941e-05   7.1502844e-05  -3.7125927e-05  -2.1884936e-05   6.1473729e-06  -3.2799693e-05   2.6565724e-06   4.6516743e-05   9.1473761e-05
  -1.2293519e-05   1.6816233e-05  -5.4386444e-05  -1.1006051e-05   1.1356833e-05   1.8657029e-05   1.8376913e-05   3.6794281e-05   8.3749634e-05  -1.2619159e-04  -1.5757969e-05  -1.0447932e-04  -6.4098975e-05  -9.3037386e-05  -8.4212843e-06  -1.3530580e-05  -4.7755380e-05  -4.8958082e-05   1.5863383e-04   4.8179216e-05  -1.1713517e-05  -2.5754283e-05  -1.1841127e-04   1.3417059e-04  -1.0431834e-04  -1.6924529e-05  -1.1278945e-05  -4.6266752e-05  -5.5443188e-06  -3.1573531e-05  -1.5414415e-04   1.1682769e-05  -3.8500637e-04  -4.6774989e-05  -3.9295639e-05   3.1959480e-05   4.1910404e-05  -5.9173439e-05  -1.3577401e-05  -1.4325599e-05   7.7515078e-06   1.4048985e-05   5.5467997e-05  -4.9467868e-05  -4.9178081e-05  -1.8537468e-04   8.3305560e-05  -4.0354018e-05  -2.4350935e-05  -2.4137194e-05
   7.3277324e-06   2.2605767e-05  -4.7698119e-05  -7.8685741e-07  -2.8922850e-06   2.3132772e-05   9.0772719e-06  -2.4156630e-05   8.3350940e-05  -1.3653765e-04  -2.0249892e-05  -1.0046060e-04  -4.2199004e-05  -5.4142394e-05   8.8410216e-06  -1.0804588e-05  -2.4688614e-05  -9.8539684e-05   2.9526069e-04   1.9071673e-05  -2.1110640e-05  -1.5451038e-05  -1.5193994e-04   4.2419153e-05  -6.8805457e-05  -2.3727673e-05  -2.4942308e-05  -6.9577349e-05  -2.1601121e-05  -2.1857355e-05  -7.3635683e-06  -1.6860002e-04   2.2897008e-05  -3.1638479e-05  -4.3874552e-05   3.8327730e-06  -1.5540654e-05  -3.9457675e-05  -8.4859748e-06  -1.3757136e-05   2.8979755e-05   7.5141637e-05   3.1223921e-05   2.2036956e-04  -2.8101049e-04   1.5784737e-05   5.8232363e-05  -2.6487645e-05  -8.7121560e-05   4.4944445e-05
   6.2247332e-06   1.9758252e-05  -2.0677768e-05  -9.0542790e-06  -7.5701068e-06  -4.4746226e-08  -3.8200455e-05   2.8656830e-05  -4.6757300e-06  -1.3963917e-04  -2.2664135e-05  -1.2942999e-04  -3.8383921e-05  -9.0031775e-05  -8.2725239e-07  -9.0395406e-06  -3.1857409e-05  -6.3219646e-05   3.0323712e-04  -5.4698699e-05  -3.5313613e-05  -7.6817247e-05  -1.3303685e-04  -1.8087112e-04  -3.7525595e-06  -1.6671107e-05  -6.0656195e-05  -7.4634365e-05  -1.2815263e-04  -3.5953351e-05  -4.8086058e-05  -1.8543569e-05  -3.1685155e-05  -1.8957799e-04  -5.4823140e-05  -2.0635851e-05   5.6972249e-06  -4.6032837e-05  -1.8964134e-05  -1.4660360e-05   9.0301673e-06  -1.7580179e-04   6.3075240e-05   7.7706150e-05   4.7649995e-05   2.2398970e-05  -8.5158649e-07   8.4989124e-06  -1.4442780e-04   5.8376423e-05
  -2.2781282e-05   1.1918816e-05  -5.5520253e-05   4.2191409e-06  -5.2646679e-05   1.0766410e-05   3.9187762e-05  -2.8100453e-07   9.0746536e-05  -1.6375049e-04  -3.7762289e-05  -1.0728009e-04  -3.9451446e-05  -1.0632740e-04  -1.7829450e-05  -1.2028494e-05  -3.4156492e-05  -8.6471002e-05  -6.4775704e-05   2.2106292e-06  -7.5365271e-05  -1.5751022e-05  -8.7367640e-05  -1.0045481e-05  -6.9738133e-05  -3.6366517e-05  -6.0372902e-05  -5.5316843e-05  -2.9053184e-05  -1.6933604e-05  -9.1926500e-05  -7.0329006e-05  -1.0413995e-04   5.6360612e-05  -4.0765502e-05   3.1832886e-05   3.0640942e-05  -2.9937735e-05  -2.8207423e-05  -4.9555052e-05   1.3461440e-05  -4.8972794e-05   5.1757121e-05  -7.7273813e-05  -1.0546736e-04   7.7111072e-05   9.8682896e-05  -2.5759256e-05  -1.1110902e-04   9.3357431e-07
   6.1748920e-06   1.8758234e-05  -6.7233188e-05  -2.3518805e-06  -1.9623214e-05   7.5568323e-06  -1.1481431e-05  -6.1769504e-05   1.7245125e-04  -1.5672296e-04  -6.6035464e-05  -2.0383766e-04  -3.4565255e-05  -7.9659294e-05  -7.7509810e-07  -1.7834600e-05  -2.7163167e-05  -2.4456583e-06   7.0818052e-05   1.3957012e-05  -5.0158560e-05  -1.9392361e-04  -1.5196226e-04  -6.5234053e-05   1.1057595e-05  -3.9427832e-05  -6.2294064e-05  -7.4310767e-05  -5.1824631e-05  -2.3708024e-05  -1.0294723e-04  -6.0650524e-05  -2.2962864e-04  -1.9546317e-04  -5.4123826e-05   6.5152242e-05  -3.4434855e-05  -2.3503677e-05  -2.3715947e-06  -2.1172775e-05   6.2836530e-06  -4.2292053e-05  -1.1303810e-05  -4.2779153e-05  -5.2001840e-05   3.5247536e-05  -4.9687875e-05  -3.8198536e-06  -1.5115351e-04   7.5315649e-05
   9.5383948e-06   5.2098453e-06  -2.8681818e-05  -7.0006381e-06   6.3556367e-06  -3.1020068e-06  -1.7233788e-05  -3.1037642e-05  -3.7459864e-05  -1.6134793e-04  -4.6896679e-05  -2.1498492e-04  -2.9728526e-05  -9.6517419e-05  -1.0556665e-05  -5.3632652e-06  -2.4893434e-05  -8.3481711e-05  -1.2085810e-04  -1.2738393e-05  -8.2581995e-05  -9.0172703e-05  -1.5293775e-04  -1.9939865e-04  -3.3531855e-05  -5.5416374e-05  -5.4715802e-05  -6.9832553e-05  -4.7035883e-05  -3.0225699e-05  -7.5574302e-05  -3.8087685e-05  -6.7557463e-05  -7.8201156e-05  -4.3587537e-05  -2.3253880e-05  -4.4476481e-05  -5.0583301e-05  -1.2419003e-05  -8.9702507e-06  -1.0695843e-05  -1.3944488e-04   2.3435052e-05  -6.3334346e-06  -1.5899018e-04  -2.1386960e-04  -8.1006518e-05  -6.5489825e-05  -9.7123768e-05   6.6941298e-05
   1.4796626e-06   1.4510831e-05  -4.5802168e-05  -4.2667866e-06  -5.9726310e-05   1.3017614e-05  -2.2307751e-05  -6.5196342e-05  -8.1341888e-05  -1.7773222e-04  -6.6270011e-05  -1.7755189e-04  -1.7232062e-05  -1.1181396e-04  -2.1020143e-07  -3.2994769e-05  -1.8332636e-05  -1.4099268e-04  -1.7056386e-04  -6.0182215e-06  -6.7030560e-05  -1.9427104e-04  -1.0634031e-04  -3.8098302e-04  -4.8197340e-05  -3.9681840e-05  -4.6644818e-05  -5.2673677e-05  -7.1340164e-06  -2.8944485e-05  -3.0442641e-05  -6.8557267e-05  -2.8308577e-04  -1.7069113e-05  -2.7907217e-05  -5.4622647e-05  -7.3873212e-05  -5.7176083e-05  -1.7305771e-05  -7.9181242e-05  -1.2290709e-05  -1.2807979e-04  -1.5805241e-05   2.7657178e-04  -6.2925086e-05   1.3121318e-04  -6.6015949e-05  -6.5390137e-05  -3.6695685e-05   1.1729775e-05
   7.7125160e-06   9.7248867e-06  -6.2359301e-05  -9.7618240e-06   6.8979389e-05   9.5163441e-06  -2.2894063e-05  -2.2977380e-05  -1.4256753e-05  -1.7677870e-04  -8.3517589e-05  -1.8269116e-04  -1.5987482e-05  -8.2131060e-05   1.7225115e-05  -4.4652065e-06  -2.6086705e-05  -8.1204475e-05   3.1066558e-04  -6.0350743e-05  -6.3606378e-05   1.4672616e-05  -6.0184069e-05  -1.4936340e-04   6.1581581e-05  -1.9566911e-05  -5.5998826e-05  -5.8887334e-05  -6.9270784e-05  -2.9215827e-05  -1.7342169e-05   3.9333190e-06  -9.5662268e-05   2.1771595e-05  -4.3823246e-05  -4.2967400e-05  -2.8028202e-05  -5.6332690e-05  -3.0602510e-05  -4.7981892e-05   1.3636551e-06  -1.9685723e-04   1.1526449e-05   8.0267251e-05  -5.9314234e-06  -9.1423099e-05  -1.4592828e-04  -2.7855394e-05  -1.2939102e-04  -1.4859452e-05
  -3.1033628e-06   1.3411362e-05  -2.2098942e-05  -6.4136457e-06  -6.6988076e-05  -1.5825357e-05  -2.9726914e-05  -4.6709541e-05  -2.3798594e-04  -1.6134013e-04  -7.3837931e-05  -2.7563432e-04  -1.1092470e-05  -7.9717771e-05   1.1713042e-05  -2.8613002e-05  -3.1658248e-05  -5.1992196e-05   2.0586464e-04  -2.6388276e-05  -1.0700191e-04  -4.4043391e-05  -6.1973202e-05  -2.9373515e-04  -2.2067210e-05  -4.5301116e-05  -3.4687200e-05  -8.6200147e-05  -6.8766938e-05  -4.3309188e-05  -2.0980263e-04  -5.6510456e-05  -6.8141417e-05  -9.8825076e-05  -3.5999848e-05  -3.8999577e-05  -3.0994088e-05  -6.1519459e-05  -2.9260926e-05  -9.7462644e-06  -3.1136526e-05  -1.9089130e-04  -1.3014765e-05  -6.4152686e-05  -1.9786414e-04   2.1385024e-05   3.1834174e-06  -7.2940920e-06  -1.4106810e-04  -6.6284505e-05
  -1.4168900e-05   1.2694088e-06  -6.8682668e-05  -1.5505073e-05  -6.1978553e-06  -5.0414692e-06  -1.9719930e-05  -1.3318879e-04  -3.2041462e-05  -1.9038173e-04  -9.6037445e-05  -2.5398179e-04   6.4467854e-06  -8.7221990e-05   5.7269176e-06  -3.9130180e-05  -2.9673580e-05  -2.6699743e-05  -1.1525701e-05   3.4058667e-05  -7.8509300e-05  -2.2722658e-04  -8.8950335e-05  -3.0367300e-04  -1.3577382e-05  -5.7892354e-05  -9.9622477e-05  -2.4562354e-05  -6.4695705e-05  -3.9666622e-05  -1.2076025e-04   2.5331297e-05   2.6924599e-05  -2.6587621e-05  -1.5816757e-05   5.4300370e-05  -3.5752394e-06  -6.7176588e-05  -2.6269379e-05   6.9854350e-06  -7.6430588e-06  -8.7096807e-05   2.2852639e-05  -1.8695812e-04  -5.0192401e-05  -1.5419908e-05  -9.0589609e-05  -6.6919638e-05  -1.3380995e-04   4.4486296e-05
  -7.1360475e-08   2.4828885e-05  -5.6269993e-05  -9.5465912e-06  -1.9491084e-05   2.6564443e-05  -2.2938540e-05  -5.2083418e-05  -1.4167601e-04  -1.9878353e-04  -9.1722475e-05  -2.1653245e-04  -4.8798111e-06  -7.7894467e-05   3.1674706e-05  -3.0119056e-05  -1.8420007e-05  -9.0957757e-05   1.0409708e-04   1.1594670e-05  -6.3469910e-05  -3.1561071e-05  -7.1839182e-05  -1.3346465e-04   2.9213010e-05  -6.3578045e-05  -6.8997462e-05  -1.9417655e-05  -3.4612851e-05  -2.4293009e-05   1.1546043e-05  -6.5814755e-05  -1.5723953e-04  -3.8077771e-05  -3.3917033e-05  -1.7946470e-06  -3.0113184e-05  -6.4675267e-05  -3.2939715e-05  -4.7246940e-05  -1.7743972e-05  -2.7044791e-05  -3.3754612e-05   3.6311724e-07  -2.5157619e-04  -5.2697585e-05  -6.3842694e-05  -9.6411313e-05  -7.1436283e-05  -3.8359722e-06
   2.3152941e-05   1.6570943e-05  -1.8638704e-05  -6.6813418e-06  -2.7850885e-05  -1.2668227e-07  -1.8468487e-05  -8.8489382e-05  -1.5207872e-04  -1.6584885e-04  -5.6135170e-05  -2.7154843e-04   9.9356621e-06  -4.9065689e-05   3.2568007e-06  -3.1807358e-05  -2.2327971e-05  -1.4240142e-04  -1.4746199e-04  -1.4765802e-05  -1.1445842e-04  -1.1688793e-04  -1.0445838e-04  -4.1420665e-04   4.4425451e-06   2.2405587e-07  -4.7383575e-05  -6.9116257e-05  -7.1012568e-05  -3.6473655e-05  -5.5797005e-05  -8.3313760e-05  -7.9557121e-06  -1.3391448e-04  -5.3520660e-05  -3.6003985e-05  -8.4858011e-06  -6.6869376e-05  -2.2398897e-05  -6.6023829e-05  -1.4603241e-05  -8.3161824e-05  -1.7220056e-05  -5.4814569e-05   7.0092821e-05  -5.7867092e-05  -3.9787956e-05  -4.7611313e-05  -1.1937938e-04  -6.4751228e-05
  -2.6884329e-05   3.0621545e-06  -3.5607878e-05  -1.6338068e-05  -2.7404609e-05   1.1078600e-05  -7.8281853e-05  -7.6018579e-05  -2.8838898e-05  -1.9117462e-04  -9.3628762e-05  -2.8411212e-04  -1.1167648e-05  -7.2166033e-05   5.3218105e-06  -4.0089977e-05  -3.0508967e-05  -1.0109563e-04  -9.5212534e-05  -3.3177326e-05  -1.0504588e-04  -3.7513426e-05  -4.7493151e-05  -1.3284110e-04   2.0018413e-06  -3.6820955e-05  -7.2163435e-05  -9.5515497e-05  -8.1676146e-05  -2.6313872e-05  -2.6536893e-04  -9.3080496e-05   8.4200641e-05   6.6719408e-06  -3.6789734e-05  -5.6083401e-05  -4.0048948e-05  -5.3613694e-05  -2.9524110e-05  -7.8132056e-05  -5.7468871e-05  -1.1954090e-04  -8.4446474e-06  -2.9389003e-05  -2.4610345e-04  -3.1179027e-04  -1.8823340e-04  -1.0505465e-04  -1.2494730e-04   2.7400736e-05
  -4.7375247e-06   4.1282878e-05  -4.7016812e-05  -1.0122674e-05  -2.6841664e-05   5.0033723e-06  -3.1493055e-05  -8.5011954e-05  -1.0736826e-05  -1.9126113e-04  -9.8750294e-05  -2.2116568e-04   5.3265030e-06  -5.2644253e-05  -6.3439575e-06  -3.8621220e-05  -4.3695505e-05  -4.5268906e-05  -1.3909651e-05  -1.4406668e-05  -8.3224579e-05  -1.2447375e-04  -6.8561058e-05  -3.0072729e-04  -1.4859101e-05  -4.5123230e-05  -9.1847432e-05  -4.8867743e-05  -5.0807041e-05  -2.0555033e-05  -7.9171565e-05  -9.2858114e-05   3.0736279e-05  -1.2811966e-04  -5.7659880e-05   5.0172680e-06  -1.8545685e-05  -6.5326705e-05  -2.9143570e-05  -3.1360356e-05  -3.3043423e-05  -1.6602690e-04  -4.8541770e-05  -3.6178785e-04  -1.6819016e-04   1.7034517e-04  -2.3899817e-04  -4.4264278e-05  -2.2048710e-04  -6.5066299e-05
   1.3204036e-05   2.2368979e-05  -2.8794208e-05  -1.3013143e-05  -4.4233166e-05   1.6059174e-05  -1.1002066e-05  -1.0443584e-04  -3.3272689e-05  -1.7075219e-04  -5.8192134e-05  -2.3735671e-04  -5.3870367e-06  -5.6077071e-05  -1.0381696e-05  -4.7761336e-05  -2.5490586e-05  -1.3919536e-04  -1.4307855e-04  -7.8584362e-06  -8.2400489e-05  -1.5867772e-05  -2.4180747e-05  -2.4504619e-04  -3.3528720e-06  -6.9565431e-08  -3.8118185e-05  -7.9520680e-05   3.6110832e-06  -4.9069153e-05   1.2346641e-04   5.6549648e-05  -2.5115881e-04   1.3825153e-05  -5.9028651e-05  -1.5887788e-05   1.5714728e-05  -4.6812627e-05  -9.0635722e-06   1.5391544e-06  -2.1770849e-05  -1.2500875e-04  -4.1259635e-05  -2.6788146e-05  -1.4450330e-04  -2.3621043e-04  -1.9190453e-04  -1.1080884e-04  -8.6321372e-05  -6.3101281e-05
  -8.4246485e-06   2.3934675e-05  -4.0598730e-05   4.4388509e-07  -3.9355091e-05   4.2825759e-05  -3.6514994e-05  -1.0043068e-04  -1.3458567e-04  -1.8496539e-04  -7.3817522e-05  -2.1567926e-04   1.6416335e-06  -4.9620543e-05  -3.1437747e-05  -3.2527445e-05  -4.0007097e-05  -1.1788389e-04   1.8718130e-05  -2.6265050e-05  -1.2731231e-04  -2.0145727e-04  -7.4271251e-05  -1.9355577e-04   4.7615402e-05  -2.5472105e-05  -1.0336214e-04  -8.3683444e-05  -1.1020613e-04  -4.1943709e-05  -1.7045886e-04  -1.5879361e-05   5.2705273e-05  -6.0146169e-05  -2.9367713e-05   4.2806291e-06  -3.0457595e-05  -7.1658462e-05  -5.3106738e-05  -3.4428685e-05  -2.7971229e-05  -1.0242236e-04  -6.0837334e-05  -2.3260447e-05   1.8321016e-05   1.5590721e-04  -2.0504720e-04  -3.2371918e-07  -2.1014869e-04  -2.4165107e-05
  -1.6418802e-05   2.4440635e-05  -4.3694137e-05   2.2296481e-06  -7.9151523e-06   1.2064449e-05  -4.2362943e-05  -1.0607786e-04  -2.6146841e-04  -1.9151912e-04  -8.6005668e-05  -1.9134315e-04   1.2195836e-05  -3.8156017e-05  -1.7235223e-05  -3.7183134e-05  -2.7497506e-05  -1.6752696e-05   1.8357999e-04   6.7541005e-06  -5.0433900e-05  -1.9425854e-05  -5.3548109e-05  -2.9964955e-04  -9.9639547e-06  -5.0641542e-05  -2.0263484e-05  -4.7455167e-05  -5.6334626e-05  -2.2129880e-05  -1.3736022e-05  -6.2446074e-05  -1.7854691e-04  -5.8553509e-05  -1.6511347e-05  -2.2429615e-05  -8.2110552e-07  -6.0646395e-05  -2.6411662e-05   4.1404433e-05  -2.3072196e-05  -1.3025293e-04  -1.4251347e-05  -6.5136519e-05  -1.1713462e-04  -9.6425456e-06  -1.9985219e-04  -9.5862408e-05  -2.5133954e-04  -3.9757673e-05
   2.5597974e-05   3.5511206e-05  -2.2957931e-05   8.7722437e-06   8.2091537e-06   1.1065606e-05  -3.9057691e-06  -6.8705202e-05  -3.2813077e-05  -1.7368476e-04  -8.6184293e-05  -2.0136876e-04   2.9470709e-08  -6.6053573e-05   1.6942306e-05  -3.4584034e-05  -5.4299322e-05  -3.3716882e-05  -3.2206204e-05   4.3739278e-06  -3.9472739e-05  -5.0090280e-06  -3.9321898e-05  -1.4347951e-04  -8.2929677e-05  -6.0207731e-05  -1.3430886e-05   7.3335355e-06  -1.0944031e-04  -3.5839395e-05  -7.2911520e-05   1.3610370e-05  -1.3439429e-04   7.9665813e-05  -1.7190985e-05   1.1019805e-05  -1.8378068e-05  -5.6943889e-05  -2.0419868e-05  -4.3802989e-05  -3.2692082e-05  -1.4382620e-04  -1.7287402e-05   4.6398889e-04  -1.4421849e-04  -2.0258907e-04  -1.1286627e-04  -1.0440371e-04  -2.1909054e-04  -2.0727064e-05
  -1.3599749e-05   1.4930603e-05  -1.4786662e-05   5.1327697e-06  -2.3912289e-05   4.1038647e-06  -1.6952066e-05  -6.0924220e-05  -9.8665019e-05  -1.8432546e-04  -6.8937719e-05  -1.9294609e-04  -2.0342439e-05  -7.7443503e-05  -1.2018514e-05  -3.8582497e-05  -4.1641211e-05  -1.3293004e-04   5.0725468e-04  -2.3618573e-05  -7.9853227e-05  -3.1735795e-05  -8.9236164e-05  -1.6029102e-04   6.1777697e-05  -1.8953164e-05  -5.6448029e-05  -3.4268851e-05  -5.9557551e-05  -2.9370367e-05  -2.2323986e-05  -1.1635636e-05  -3.5174038e-05  -1.0997197e-05  -3.2336946e-05   1.2972502e-05  -6.1391843e-06  -5.4720604e-05  -3.3373541e-05  -2.7863911e-05  -3.4038312e-05  -1.9964299e-04  -7.0517337e-05  -7.3063078e-05  -1.6478782e-04  -1.4585430e-04   9.6467767e-05  -1.0943019e-05  -1.6563447e-04  -8.8161105e-06
   1.0147105e-05   8.2829984e-06  -4.4733501e-05   5.5659339e-06  -2.8209544e-05  -2.2911932e-05  -3.1392596e-05  -6.7519162e-05  -1.2833906e-04  -1.7464379e-04  -7.4105199e-05  -1.4023359e-04  -3.6594336e-06  -5.3893884e-05   7.9825995e-06  -4.5151286e-05  -5.3754149e-05  -6.3209241e-05   5.6886583e-05   1.5626787e-05  -6.5251821e-05  -1.1426115e-04  -1.0144853e-04  -3.8014961e-05   1.5493784e-05  -3.8621190e-05  -6.2763072e-05  -5.0758706e-05  -1.0659211e-04  -3.1615917e-05  -1.1964617e-04  -1.2055398e-05   5.2000065e-05   1.9578452e-05  -2.8807366e-05   8.5224812e-05   8.4264766e-06  -5.4521395e-05  -3.3980763e-05  -4.9249291e-05  -1.5518730e-05  -8.9639841e-05  -2.2060469e-05  -1.9730178e-04  -1.9448547e-05  -1.2959157e-04  -1.0294895e-04  -1.8872108e-05  -1.1279889e-04   5.1846171e-05
  -6.7676069e-06   2.7948814e-05  -1.2276511e-05   2.1846101e-05  -2.9348252e-05  -7.3549386e-06   2.7461797e-06  -3.8930706e-05  -6.1021565e-05  -1.7356165e-04  -6.8801266e-05  -1.7581844e-04  -1.0258380e-05  -7.2453840e-05  -1.0153361e-05  -4.6844456e-05  -4.0617982e-05  -7.5771306e-05  -2.1317956e-04  -9.0846170e-06  -8.4111358e-05  -1.1992364e-04  -9.3232979e-05  -1.9320825e-04  -8.6678692e-06  -3.2659547e-05  -4.7578018e-05   1.9686606e-05  -5.7005131e-05  -1.4322699e-05  -1.1891726e-04  -7.6138764e-05   1.3095117e-04  -1.6555046e-04  -4.1370888e-05   9.9672548e-07  -4.1525484e-05  -5.2180523e-05  -2.3442492e-05  -9.8488399e-06  -5.1647007e-06   5.9621860e-05  -3.3326083e-05   1.7564189e-04  -2.2988721e-04  -1.5781067e-04  -9.9719582e-05  -5.7089121e-05  -1.0746621e-04  -4.4483263e-06
   4.4870762e-06   1.9326972e-05  -2.1128530e-05   8.9163559e-06   1.5599138e-06  -2.5268564e-06   1.4916434e-05  -8.0468446e-05  -6.4993474e-05  -1.7857361e-04  -6.2198960e-05  -1.2428203e-04  -1.0019395e-06  -6.6687098e-06  -2.1300486e-06  -4.4433658e-05  -2.9875066e-05  -4.0243718e-05   1.2147825e-04  -8.2392153e-06  -8.0436024e-05  -2.2783664e-04  -7.4430616e-05   2.2755974e-04   1.0096388e-05   1.8903194e-05  -4.4133249e-05  -3.3703251e-05  -2.7631471e-05  -2.2909860e-05  -1.4693034e-04  -8.0814782e-05   5.2698921e-05  -8.7226916e-05  -3.0076326e-05  -5.0435181e-05  -2.2906614e-05  -5.6085715e-05  -2.3796007e-05  -4.9632916e-05   1.0255192e-05  -7.5377131e-05  -5.3547959e-05  -4.7472364e-04  -1.2374183e-04   6.3965508e-06  -1.3781931e-04  -7.4983196e-05  -9.5037183e-05   2.0727015e-05
   5.1116008e-06   1.0383542e-05  -3.3239787e-05   1.2006899e-05  -1.7068573e-05  -1.5680287e-05   2.5343899e-05  -2.8178170e-05  -7.5896569e-05  -1.8594974e-04  -7.6402976e-05  -1.3561372e-04  -2.4043464e-05  -2.8746954e-05   1.8096393e-05  -4.7449728e-05  -4.4009310e-05  -1.2346667e-04  -2.0358800e-04  -3.4370441e-05  -9.7921788e-05  -1.3136142e-04  -1.2943357e-04   3.8819704e-05  -2.0403424e-05   3.9149512e-08  -1.0112630e-05   2.5574175e-07  -8.1970766e-06  -1.3320287e-05  -5.4461303e-05   5.3187373e-06  -3.4487699e-04  -4.6137178e-05  -4.4722277e-05   2.8567085e-05   9.0185031e-06  -4.1184612e-05  -2.0776841e-05   2.2136214e-06   2.1195332e-05  -9.9920020e-05  -4.9647046e-05   3.1935362e-04   2.2211952e-05   1.2327499e-04   1.4585239e-04  -1.2460977e-04  -1.5964675e-04  -3.7003663e-06
   1.1401848e-05   1.4054139e-05  -1.5766891e-05   1.8824863e-05   1.1589842e-05   1.9279871e-05  -7.8146031e-06  -1.2733210e-05  -1.3212950e-04  -1.6820982e-04  -6.9835412e-05  -1.3381765e-04  -1.1173912e-05  -3.9368439e-05  -6.1136717e-07  -5.1616982e-05  -3.0680723e-05  -4.4900415e-05   9.0000496e-05  -5.4192797e-06  -3.4228931e-05  -4.6105724e-05  -4.6435405e-05   1.5880782e-04   3.7185073e-06  -8.7776891e-07  -3.9288894e-05  -4.0074130e-05  -5.8165711e-05  -9.1635275e-06  -1.5722345e-04  -1.1217744e-04  -1.4574878e-04  -7.7243210e-05  -2.3697428e-05   8.8345492e-05   1.4428673e-05  -5.1638704e-05  -2.6742369e-05  -2.1647671e-05   2.0654514e-05  -1.2960512e-04   2.6002403e-05  -4.3223044e-04  -8.2760751e-05  -1.3171826e-04   1.1366073e-04  -6.2101477e-05  -3.0017620e-05   2.0711735e-05
   1.2019043e-05   2.2842387e-05   5.0246337e-07   2.3199440e-05  -5.0188424e-05  -7.8561643e-06   1.1707591e-05   1.8341680e-05   4.6960220e-05  -1.6877665e-04  -5.9916936e-05  -1.7197523e-04  -9.8944693e-06  -3.0282128e-05  -2.0731017e-05  -3.2967007e-05  -3.8280923e-05   3.4237059e-05   1.8480929e-04  -4.1437808e-05  -5.2153398e-05   5.1629475e-05  -5.4820033e-05  -4.1236589e-04  -5.1617495e-05  -1.7301623e-05  -4.4947021e-05  -5.8357302e-05  -3.5607765e-05   1.3290610e-06  -2.6544466e-04   1.2657663e-04  -7.7634024e-05  -6.6905355e-05  -1.5682544e-05  -4.7860822e-06   6.3156926e-06  -4.2632550e-05  -2.3688879e-05  -4.2029707e-05   1.4321902e-05  -1.1770220e-05   5.1123397e-06  -7.1434988e-05   1.2438511e-05  -5.3812011e-05  -8.2138213e-05  -3.6217149e-05  -1.0661679e-04   6.4969194e-05
   1.3934352e-05   8.5247311e-06  -1.0408459e-05   3.2583368e-05   1.8047103e-05  -1.5828713e-05  -6.6470238e-06   1.9451751e-05  -4.3567336e-05  -1.5561601e-04  -6.1859289e-05  -8.2617596e-05  -1.7035185e-05  -1.0552321e-05  -5.1615921e-06  -2.6237076e-05  -2.8450093e-05  -7.3850904e-05  -1.4316053e-04  -5.0792687e-06  -9.9184865e-05  -8.7615510e-05  -5.4784123e-05   1.3730543e-04   2.2268947e-05   1.1502881e-05  -4.6084726e-05  -2.1909866e-05   8.0642203e-06   3.8407452e-06  -1.0296668e-04  -5.0357230e-05  -2.6876442e-04  -1.4729001e-05  -5.5106707e-06   1.0426026e-05   1.0582822e-05  -5.3151296e-05  -2.2258144e-05  -1.7105109e-05   2.9325713e-05  -2.2515524e-05   1.6206963e-05   1.2398511e-04  -1.2834660e-04  -1.3423575e-06  -9.3005190e-05  -1.0742372e-04  -1.9874795e-04   1.0585964e-05
   4.5697420e-06   2.2205930e-05   2.5550478e-06   2.2848428e-05   2.3118368e-05   1.2053322e-05   4.1905554e-05   1.0168858e-06  -8.5503139e-05  -1.7097639e-04  -5.8381182e-05  -6.7243927e-05  -2.2873484e-05  -5.2085281e-05  -1.6815378e-05  -5.0843097e-05  -2.8835291e-05  -8.7612018e-05  -2.2548037e-04   5.5807122e-06  -9.7528602e-05  -1.2147846e-04  -5.2552565e-05   2.0414112e-04  -1.3657220e-05   1.0694373e-05  -2.3896393e-05  -3.5294746e-05  -5.6156637e-06  -1.7671797e-06  -1.3930650e-04  -2.1480550e-05  -3.2160318e-04   7.5346434e-05  -1.9201549e-05   3.3246211e-05   5.6931699e-06  -3.8106406e-05  -2.7872369e-05  -3.1822648e-05   2.8154454e-05   1.0006456e-05   1.4088810e-05  -1.6739823e-05   1.0913626e-04   1.0110160e-05   1.8763289e-04  -1.2998859e-04  -1.0627862e-04   4.3376134e-05
   1.2765207e-05   1.8493793e-05   2.1182215e-05   2.1634723e-05  -3.1882068e-06  -1.0168449e-05  -5.6491954e-06  -1.4106857e-05  -8.7073977e-06  -1.7068980e-04  -6.3015337e-05  -1.7175781e-04  -9.5066835e-06  -7.1624876e-05  -5.3687367e-05  -3.6372985e-05  -3.9309522e-05  -7.4365038e-05  -1.7609186e-06  -2.5080824e-05  -7.4985321e-05  -1.9830572e-05  -2.6593621e-05  -4.4700973e-05   7.7734861e-05   1.5861977e-05  -3.6080859e-05  -9.7135344e-05  -2.8505234e-05  -5.3901308e-06  -1.2720982e-04   1.9419400e-05  -2.1291027e-05  -1.1616314e-04  -2.1309070e-05  -5.3767017e-06  -1.2933619e-05  -5.9320351e-05  -1.9194280e-05  -5.3374315e-05   2.4465797e-05  -1.0739868e-05  -7.6911610e-06   1.5751391e-05  -8.0796148e-05  -1.5519545e-04   1.8544299e-05  -5.3302174e-05  -1.8642309e-04   8.2052218e-05
   2.5082280e-05   2.4340696e-05  -1.8383411e-05   1.7274720e-05   3.3042987e-05   3.3564672e-06   1.5920765e-06   1.3226637e-05  -4.0746359e-05  -1.7707502e-04  -6.9312329e-05  -1.0164654e-04  -1.2616299e-05  -5.4477874e-05  -1.3371254e-05  -3.5751265e-05  -3.6282887e-05  -8.9157591e-05  -2.6682278e-04   2.5471494e-05  -1.0061625e-04  -1.1450713e-04  -4.1547861e-05   3.9758947e-05   1.1899505e-05   1.6257238e-05  -9.7572156e-06  -6.8089161e-05  -8.0717429e-05   2.4210158e-06  -2.4702121e-04  -2.2031723e-05  -1.7404580e-04   5.9720387e-05  -1.8863293e-06   1.0918228e-05  -3.4160334e-05  -7.4773197e-05  -8.8699071e-06  -3.2509532e-05   4.1237497e-05   2.5419085e-05  -1.0250298e-05   1.2395927e-04  -1.6366810e-04   6.3524785e-05  -1.3097850e-04  -4.7559704e-05  -4.2678323e-05   3.9634022e-05
   2.1017771e-05   1.0965347e-05   1.5015135e-05   2.5570702e-05   7.4360548e-07  -9.9369508e-06   9.4964926e-06  -4.5574925e-05   3.9358401e-05  -1.5772972e-04  -4.4337528e-05  -1.1799953e-04  -1.7277755e-05  -3.5491859e-05   5.5364234e-07  -1.9167912e-05  -4.9333630e-05   4.2729185e-05   1.3090250e-04   1.0417494e-05  -5.0709259e-05  -9.5959709e-05  -5.4667784e-05  -2.2695216e-04   4.2444749e-06   3.9519764e-05  -1.3938338e-05  -2.7354550e-05  -5.7740213e-05   1.7722697e-06  -3.7452239e-05   1.8340341e-05  -1.2314112e-05   9.4421966e-06  -1.7047381e-05   2.8735622e-05  -9.8548999e-06  -3.3264856e-05  -9.2338196e-06  -3.9169241e-05   4.0545987e-05   1.0679103e-04   3.0695875e-05  -2.9194189e-04  -2.2923495e-04  -1.7916460e-05   4.7648522e-05  -6.7732348e-05  -4.2440624e-05   5.9980674e-05
   1.6997332e-05   1.1230608e-05   1.6901780e-05   1.6542717e-05  -4.9762715e-05  -1.5292571e-06  -5.9881904e-06  -5.6836911e-05   8.3858940e-05  -1.7141370e-04  -6.5752225e-05  -1.4441111e-04   7.9899137e-06  -4.9684069e-05   3.8735867e-05  -3.9632050e-05  -3.7350135e-05  -7.8713194e-05   1.8391295e-06  -1.1379724e-05  -6.6204688e-05  -1.1734019e-04  -6.9366564e-05  -1.9493976e-04   4.7275712e-06  -9.6648537e-06  -1.8613307e-05  -1.2644839e-05  -3.7608675e-05   1.5069536e-05  -4.1875344e-05  -3.8972754e-05  -3.0039588e-04  -7.6903008e-05  -3.3798238e-05   3.6965965e-05   3.3114375e-05  -4.5063560e-05  -2.4163959e-05  -2.0431964e-05   3.1002241e-05  -1.3485028e-04   2.5568992e-05   7.8330020e-05   6.1733503e-05   1.7671393e-04   2.7040518e-05  -8.2348015e-05  -1.1317454e-04   4.2585769e-05
   1.7004872e-05  -9.4152074e-06   2.0211693e-05   2.6260926e-05   9.1322217e-06  -6.4941378e-06   2.7963486e-05  -6.2913183e-05   3.3889984e-05  -1.8077828e-04  -8.6147556e-05  -1.2289538e-04  -7.5169883e-06  -5.9880589e-05   1.6279508e-05  -4.0743020e-05  -4.5500594e-05  -8.7272711e-05   1.4200664e-04  -5.6441213e-06  -8.6094245e-05  -3.4771725e-05  -7.0645416e-05  -4.5744553e-05   1.0083055e-07   3.8010665e-05  -5.4275442e-05  -4.2071941e-05   6.9406933e-06  -2.9891003e-06  -8.0860329e-05   4.0485480e-07  -3.1144058e-04   2.7253611e-06  -1.0292073e-05   2.0847141e-05   2.3182231e-06  -4.5809113e-05  -2.6387686e-05  -5.3388074e-05   2.4152927e-05  -1.6198079e-05  -2.7146751e-05   1.4104821e-04  -1.7190594e-04  -2.6178328e-05  -8.2424063e-05  -6.2374456e-05  -9.6584088e-05  -3.7633872e-05
   2.0439769e-05   2.4875041e-07   1.6305923e-05   1.7583809e-05  -2.1320127e-05  -1.8102537e-06   7.6303577e-06  -3.6796522e-05  -1.2937073e-04  -1.6758834e-04  -6.9060137e-05  -1.0431682e-04  -4.1634089e-06  -9.3621689e-05   5.6565300e-06  -3.8827107e-05  -3.6578953e-05  -1.1574016e-04   1.4110563e-04   2.9256080e-06  -8.7797162e-05  -1.7085626e-04  -2.4067827e-05   1.6980970e-04   2.3362011e-06   1.6099653e-05  -2.9450390e-05  -1.0476037e-04  -2.4519735e-05   2.0753341e-06   6.6558168e-05   5.3179843e-05  -3.0097708e-05  -7.0693027e-06   6.7999163e-06  -1.5432055e-05  -3.9018672e-05  -4.1386564e-05  -7.7878676e-06  -4.4730208e-05   9.1842030e-06  -5.9410697e-05   2.2483905e-06  -1.7165937e-04   1.6609645e-05  -4.2774445e-05  -1.3058679e-05  -5.7087353e-05  -8.0811296e-05   9.0987967e-05
   1.2890977e-05  -6.1093931e-07  -3.6430602e-06   1.4226011e-05  -4.4080949e-05  -1.0213327e-05   2.3728497e-05  -1.8513598e-06  -5.4032196e-05  -1.8541013e-04  -9.4469033e-05  -1.1932311e-04  -1.4701205e-05  -7.5685544e-05  -2.0851834e-05  -3.8440059e-05  -4.0069390e-05  -4.4030235e-06  -6.5809319e-05  -5.0526392e-06  -1.1267782e-04  -1.0120511e-04   9.3088656e-06   1.3195921e-04   4.3435371e-05   2.4101026e-05  -4.9256047e-05  -5.8416052e-05  -4.2031930e-05  -9.1204171e-08  -2.0631761e-04  -5.4963413e-05  -1.5793201e-04  -1.9944967e-04   2.0943164e-06   7.0686925e-05  -5.5442466e-05  -4.3180356e-05  -2.2747878e-05  -2.4689671e-05   1.1372245e-05  -8.2916362e-05   1.2928459e-06   1.4543293e-05  -1.4985212e-04  -1.4791951e-04  -2.4542958e-04  -8.9024616e-05  -1.5538161e-04   1.1936545e-04
   1.7664437e-05   3.1339457e-06  -2.1868915e-05   1.2715083e-05   4.9427463e-06  -2.0111143e-05   1.1258503e-05  -5.7751949e-05  -1.3571067e-04  -2.0387585e-04  -1.1593207e-04  -1.7589481e-04  -2.7146546e-06  -5.9938811e-05  -6.7781380e-06  -2.6963075e-05  -3.9591338e-05  -7.5662443e-05   3.4781042e-05  -2.1305334e-05  -1.1053155e-04  -1.0812487e-04  -1.0964702e-05   1.4184009e-04  -1.4954247e-05  -2.6803416e-06  -1.7752822e-05  -5.4211476e-05  -5.5656656e-05   6.2434178e-06  -2.0394416e-04  -1.4975102e-04  -6.7730089e-06  -1.1281994e-04  -1.2544346e-05   1.5254772e-05  -2.5622481e-05  -6.5952525e-05  -1.9389461e-05  -4.5471250e-05   2.6690695e-05   3.2312797e-05  -4.4786320e-05  -6.2917701e-05  -8.8813722e-05   5.8979036e-05  -5.6518689e-05  -3.3073306e-05  -1.2079281e-04   1.4643328e-05
   1.3433865e-05   1.1146546e-05   9.5376226e-06   1.5525580e-05   2.5846330e-05  -9.9131944e-07   7.4590407e-06  -4.3726101e-05  -2.5970646e-04  -1.9176204e-04  -1.0068546e-04  -2.0960245e-04   2.5008515e-06  -9.5970507e-05   8.3760169e-06  -4.5237106e-05  -4.5687320e-05  -7.8377416e-05   3.9656908e-04  -2.3723207e-05  -7.5245451e-05  -1.5155540e-04  -4.3789773e-06  -1.3763498e-04   3.4108602e-05  -3.3801447e-05  -2.7154951e-05  -6.5424060e-06  -2.9624416e-05  -4.9847467e-06  -2.7873111e-04  -8.0459846e-05   1.2844196e-04  -5.8965383e-05  -7.6117167e-06   7.9887817e-05  -1.6497417e-05  -5.9915899e-05  -1.1739823e-05  -5.4044935e-06   2.7934886e-05  -7.8588906e-05  -1.4278447e-06  -6.5074513e-05   3.8615788e-05   1.1961059e-04  -1.0089834e-04  -5.0222236e-05  -4.6511679e-05  -5.6585905e-06
   1.9555791e-05   1.0350096e-05  -4.7252411e-06   1.3518799e-05  -2.3143996e-06  -2.3523957e-05   7.2582352e-06  -5.6238005e-06  -2.1286332e-04  -1.9180794e-04  -8.9004468e-05  -1.9572914e-04  -2.0406205e-05  -8.6304957e-05   1.1049557e-05  -4.3395976e-05  -5.7698628e-05  -4.3777189e-05   2.4268162e-04  -2.9202081e-05  -1.1601627e-04  -1.4846980e-04  -1.0243420e-05  -2.4443015e-04   3.0669824e-05  -2.9975639e-05  -3.5939229e-05  -5.6629760e-05  -6.1740946e-05  -3.2315297e-06  -1.5822549e-04  -1.5150511e-04   2.5940817e-04   8.5834668e-05  -3.3940032e-05   1.0196990e-04  -3.6981946e-05  -2.5523810e-05  -2.4152891e-05  -7.2388932e-05  -1.3023356e-06  -4.8285521e-05  -8.4168050e-07  -2.3081091e-05   3.4470875e-05   1.1388522e-04  -2.7571566e-04  -5.7749552e-05  -2.1517370e-04  -2.1483114e-05
   1.7653056e-05   8.0616792e-06   3.2149765e-06   1.7266593e-05  -1.6282962e-05  -2.0244401e-05   2.3785924e-05  -6.9613867e-05   1.0744945e-04  -1.9214954e-04  -1.4492570e-04  -1.9422479e-04  -4.3788850e-06  -8.4855674e-05   2.8519784e-07  -3.6789752e-05  -3.8914452e-05  -7.3701900e-05   2.4392326e-04  -2.4164472e-05  -6.9290167e-05  -2.6992607e-04  -1.1326226e-05  -2.9560004e-04  -1.4211266e-05  -2.0561931e-05  -5.6492550e-05   1.6383048e-05  -3.2110911e-05   5.6850317e-06  -8.4800173e-05  -6.4381820e-05   1.2259699e-04  -7.2674593e-05   1.3138309e-05   4.4726017e-05   4.7346707e-06  -4.9963295e-05  -2.9570816e-05   2.1789312e-05   1.1573526e-05  -4.3298562e-05  -1.0411994e-05   1.8194524e-04  -3.1857409e-05   2.3602159e-05  -3.0929034e-05  -6.9706301e-05  -1.9257190e-04   8.4535465e-08
  -2.0506212e-05   1.2217216e-05  -1.8262292e-06   1.9242570e-05   4.8494519e-05  -1.3935609e-06   2.8971177e-05  -3.4087006e-05  -1.4099421e-04  -1.9262577e-04  -1.2669916e-04  -2.1679616e-04  -1.7250693e-05  -6.3902960e-05   4.7277648e-05  -3.4623336e-05  -3.8149417e-05  -4.2060787e-05   1.8345383e-04  -2.3011858e-06  -9.7218384e-05  -1.6897028e-04   2.3878918e-06   2.6694854e-04  -2.5446647e-05  -1.7748358e-05  -3.6137179e-05   6.7218643e-06  -1.9230803e-05  -8.9830501e-06  -1.7839875e-04  -3.5473720e-05   1.1407735e-04   8.8952118e-05  -8.4486446e-06   7.0343798e-05   2.3233459e-05  -1.8482368e-05  -2.4394516e-05   5.0271674e-06   1.0803384e-05  -5.0335999e-05  -3.5847741e-05   4.9758313e-04  -5.8169229e-05  -6.9287053e-05   2.3546310e-05  -1.2524883e-06  -1.3103535e-04  -3.4871897e-05
   1.8260498e-05   7.0023798e-06   3.1174655e-05   1.4423638e-05   1.2866715e-05  -1.9272105e-05   4.4251810e-05  -4.6054465e-05  -1.5708519e-04  -1.9086018e-04  -1.0748958e-04  -1.9213599e-04  -1.2180886e-05  -4.8771886e-05   9.2333194e-06  -4.6315912e-05  -4.0535928e-05  -6.6843175e-05   4.3658132e-04  -3.9566261e-05  -1.2127026e-04  -4.0022514e-05  -4.2908559e-05  -2.3270040e-04  -4.5911249e-05  -1.3296424e-05  -5.9172024e-05  -8.0025202e-05  -9.8446777e-05  -5.4774932e-06  -1.2891970e-04   5.4395598e-05   2.6369005e-04  -1.2628808e-04  -3.2658561e-05  -9.1953179e-06  -4.1206982e-05  -4.4317334e-05  -2.9690160e-05  -1.4004902e-05   1.1132605e-05   3.7981874e-06  -3.7065092e-05  -2.5097316e-04  -1.1960360e-04   9.3831750e-06   1.2376293e-04  -1.1312267e-04  -1.7963810e-04   5.8989688e-05
   1.7588836e-05   1.8343762e-05  -1.0560182e-05   9.9400750e-06   2.3640972e-05  -1.2756820e-05   8.2133465e-06   1.9080304e-05  -2.0047078e-04  -2.0294425e-04  -1.2853871e-04  -2.0719742e-04  -8.7508676e-07  -2.5322803e-05   1.4781454e-05  -5.1646231e-05  -2.8666236e-05  -1.1499861e-04   6.0523675e-05  -2.4882151e-05  -1.2389834e-04  -1.7628897e-04  -5.7294164e-05  -2.0908467e-04   1.2076303e-05  -3.3293432e-05  -4.9009112e-05  -2.8823331e-05   2.9630619e-05  -6.6811981e-06  -7.4455202e-05  -3.5844809e-05  -2.2172097e-04   1.4795785e-05  -1.3069975e-05   3.5254070e-05  -2.3522351e-05  -3.5280784e-05  -3.2300766e-05   2.5013780e-05   1.4121873e-05  -7.4731943e-05  -2.9812265e-05  -5.3903717e-04  -5.5882054e-05  -1.1130212e-05  -1.6917045e-05  -4.5568591e-05  -2.0078645e-04  -5.1689982e-05
   9.1266420e-06   1.6037327e-05   1.0609930e-05   2.9963787e-05  -3.6210342e-05   1.8211023e-06   1.0207268e-05  -3.4644974e-05   2.8505616e-05  -1.9212558e-04  -1.4143948e-04  -1.5416114e-04  -3.5278063e-06  -6.6386609e-05   3.1642685e-05  -5.1917388e-05  -2.6677784e-05  -8.1858547e-05  -3.4400579e-04  -2.2039791e-05  -5.1951978e-05  -2.1948861e-05  -7.9687263e-05   1.5397498e-04  -4.5369138e-06   2.3948220e-05  -8.4801162e-05  -7.2362636e-05  -1.6265018e-05  -2.8209392e-06   9.8980327e-06   5.9190155e-05  -6.7003260e-05   8.3762225e-06  -1.4470513e-05   9.5838932e-06  -1.7536315e-05  -4.3060489e-05  -2.4617066e-05  -2.5587782e-05   1.3339857e-05   6.3988293e-05   8.7315429e-06   2.1209345e-04   1.4918865e-05  -1.8823755e-04  -4.2281667e-05  -8.2672932e-06  -2.1425901e-04  -4.2857275e-05
   3.7965969e-05   1.0884381e-05  -9.4501538e-06   1.4637449e-05   3.5135115e-05  -2.5737868e-06   1.1332584e-05  -2.7370523e-05  -2.5883915e-05  -1.9480877e-04  -9.3789145e-05  -1.6443375e-04   6.4163755e-06  -6.4138410e-05  -1.9728643e-05  -3.4350636e-05  -4.0673811e-05  -1.2908173e-04   9.9966790e-05  -1.7040520e-05  -9.5053379e-05  -1.3292061e-04  -6.4488588e-05   9.6210779e-06   4.6288496e-05   2.7026847e-06  -3.9292001e-05  -2.2956752e-05  -4.4100845e-05   4.2868387e-06  -1.6642945e-04  -1.1411831e-06  -2.0465288e-04   1.8745024e-05  -1.6728614e-05  -1.5940387e-07  -1.7014017e-05  -2.8957200e-05  -2.6107358e-05  -1.5643800e-05   1.3447858e-06  -4.1495172e-05  -8.8904262e-06   9.6375654e-05  -1.8101138e-04  -1.8278063e-04  -7.1997230e-05  -3.6215733e-05  -1.2229898e-05  -7.3189076e-05
   1.4054372e-05   4.8652769e-06   2.4288647e-05   1.6083317e-05   3.7464819e-05   1.1465124e-05   1.1888585e-05  -1.8624773e-05  -1.1270932e-04  -2.0400366e-04  -9.7405828e-05  -1.1480795e-04   2.4257959e-06  -1.4730715e-05  -1.3473315e-05  -4.8102389e-05  -2.3150962e-05  -5.5225875e-05  -3.3375740e-04  -8.9974328e-06  -8.8887522e-05  -9.2561277e-05  -4.2536689e-05  -3.8097878e-05  -1.4019965e-05   2.2855462e-05  -3.5582441e-05  -2.8630040e-05   1.3016581e-05   2.4746643e-05   3.3524997e-05  -7.7707686e-05  -1.1718617e-04   2.2440842e-04   7.3540377e-06  -1.2845478e-05   1.5982780e-05  -1.9693114e-05  -2.4657909e-05   2.4125527e-05   3.5288100e-05  -1.6138406e-06  -1.6223092e-05   2.1456497e-05  -9.7225413e-05  -1.0347312e-04  -1.1425790e-04  -6.8608053e-05   1.2480301e-05   1.9635989e-05
  -5.6081592e-07   1.4311245e-05   2.1662278e-05   2.9673087e-05   1.9198485e-05  -3.7270907e-05  -2.0496893e-06   1.0987341e-06  -1.5276573e-04  -1.8463911e-04  -8.3803956e-05  -1.4129427e-04   1.5300235e-05  -4.6141151e-05  -2.7537237e-05  -3.7409547e-05  -3.2833981e-05  -8.9151436e-06  -1.9877696e-04  -1.2274320e-05  -9.0415750e-05  -5.9491707e-05  -5.9390968e-05   1.0460030e-04   6.8460751e-05   4.0331153e-05  -3.4169640e-05   2.2639139e-07  -3.0915260e-05   1.2468425e-05  -2.6814319e-04  -6.9551512e-05  -6.5386637e-05  -1.8797049e-04   5.6153867e-06   6.6300796e-05  -8.7581077e-07  -1.9568812e-05  -2.4815281e-05  -4.5977551e-05   3.0396115e-05  -2.3024506e-05  -1.6905545e-06   3.2245656e-04  -1.1331870e-04   1.0887902e-04  -1.6240816e-04   4.2680635e-06   3.2893083e-06   1.5561725e-05
   1.8904941e-05   1.6621500e-05   1.2162533e-05   1.9689433e-05   3.8514230e-05   1.1090647e-05   5.7915619e-05  -5.6169014e-05  -1.2606241e-04  -1.9229509e-04  -9.1509093e-05  -1.1394830e-04  -4.7089497e-06  -1.5741947e-05  -7.6653951e-06  -2.3653247e-05  -1.0819209e-05  -9.4904623e-05   2.0256293e-05  -3.3499007e-05  -5.5014534e-05  -9.7927914e-05   2.4898791e-05   2.2414346e-04   3.4038112e-05   3.0965486e-05  -2.8157463e-05  -1.6918699e-05   3.5343841e-05   1.4032928e-05  -8.8508357e-05  -1.0351964e-04  -1.3626700e-04  -5.5380315e-05  -1.0641905e-05   4.9048154e-05  -6.2020881e-05  -2.5451389e-05  -1.6008098e-05  -1.4731099e-05   3.1681386e-05  -1.2258904e-05   1.4368346e-05  -2.6481092e-04   9.5698582e-05   5.9166314e-06  -1.1790809e-04  -1.0263639e-04  -3.9536728e-05   5.9048663e-05
   5.0914086e-06   1.0500085e-05   1.9781966e-05   3.4998615e-05   2.0520501e-05  -2.2305523e-05   1.2983114e-05   5.9585554e-06  -2.0224489e-04  -2.1250673e-04  -1.0937806e-04  -1.8570058e-04  -2.5098868e-06  -2.7523756e-05   9.7825450e-06  -3.7446676e-05  -1.5177478e-05  -1.2122258e-05  -7.6686345e-05   5.2500727e-06  -8.8515691e-05  -1.2745937e-04  -2.1294132e-05  -5.3830928e-04   2.2607952e-05   1.9189773e-05  -4.5339075e-05   2.9012004e-05   5.9002364e-06   1.5239247e-05  -1.1360532e-04   4.4120316e-05  -3.3324723e-05  -8.5841544e-05   1.9192428e-05   2.1733854e-06   2.4512796e-05  -2.3739191e-05  -2.0347075e-05   5.6196695e-05   3.6950121e-05  -4.3457734e-05   4.7305916e-06  -4.0414947e-05  -8.7853572e-05   6.4445034e-05  -5.0368653e-05  -5.5197386e-05  -2.2145922e-04  -1.4350173e-05
   5.4127058e-06   1.8469058e-05   3.9179216e-05   3.1910055e-05  -2.5867266e-05   1.0556053e-05   4.2540276e-05  -3.0611311e-06  -2.1506543e-05  -1.8493853e-04  -6.9599148e-05  -9.8467739e-05   1.1948230e-06  -4.1645169e-05   1.3513772e-05  -3.9319719e-05  -7.6607730e-06  -1.1184634e-04   9.2782910e-05  -5.9108743e-06  -8.6856875e-05  -1.1445345e-04  -2.7808655e-05   2.1624548e-04   1.0013584e-05   4.6379055e-06  -4.9377490e-05  -1.1290713e-05  -5.8132253e-05   1.3228540e-05  -1.8311879e-05  -2.1342597e-04   6.7115361e-05   6.2023908e-05   1.7182761e-05   5.3205258e-05   2.0485606e-05  -3.1271789e-05  -2.2341057e-05  -3.3794098e-05  -2.8215345e-06   2.9125345e-05  -2.1262783e-06  -2.0961787e-04   8.0400147e-05   2.7984817e-05  -3.9020168e-05  -4.2428223e-05  -4.2016516e-05  -3.6926747e-05
   1.1430756e-05   1.6922722e-05   2.3179853e-05   2.1827333e-05  -5.0874082e-06  -1.8276656e-05   1.0972799e-05  -8.3842075e-05  -1.5265074e-04  -1.9857025e-04  -9.3987772e-05  -1.8213468e-04   7.7954019e-06  -6.3083426e-05   1.5122981e-05  -3.4054901e-05  -6.0043244e-06   3.8766029e-06   1.0645850e-05  -1.3357641e-05  -9.9798621e-05  -6.0214876e-05  -1.9971632e-05  -1.9943497e-04   8.9453424e-05   1.9114572e-05  -2.7391427e-05  -6.5451582e-05  -8.2284087e-06   1.3500431e-06   3.8198024e-05  -1.2356153e-04  -9.6041345e-05   6.6049543e-05  -7.4133129e-07   6.0662445e-05  -4.4069922e-05  -3.3360433e-05  -1.5555834e-05  -5.1483144e-05   3.2658667e-05  -4.0384464e-05   2.7951676e-06   7.5704986e-05  -1.8583761e-04  -2.9793911e-05  -1.8966343e-04  -9.0051999e-06  -9.3138253e-05   3.4553592e-05
  -1.9049368e-05   1.4197438e-05   3.9479114e-06   3.0435436e-05  -1.1418819e-05  -2.3839084e-07   2.2652193e-05  -3.6102691e-05  -3.3184609e-05  -1.9907819e-04  -8.7580214e-05  -9.8247983e-05   7.5633311e-06  -5.6412759e-05   1.2917964e-05  -3.0233045e-05  -1.0972965e-05  -4.9863309e-05  -6.4583939e-05  -7.5783933e-06  -8.2401493e-05  -6.6359076e-05  -1.5449623e-05  -2.1756570e-04   1.0769307e-04   3.0314781e-05  -1.9369513e-06  -2.7697040e-05  -2.3090246e-05   1.2429694e-05  -1.1852818e-04   6.6838875e-05  -2.3826164e-05   2.6972104e-05   1.5450638e-05   1.6538945e-05   3.5656872e-06  -1.8767680e-05  -1.7278779e-05   1.0512858e-05   1.5136240e-05  -1.4867433e-05   3.6778667e-05   1.2112354e-04   3.4566237e-05   1.7702091e-06   4.8706607e-07  -3.8035112e-05  -2.2801406e-04  -8.8856825e-05
   3.1650387e-05   2.1339287e-05   1.6959280e-05   2.6139245e-05   6.9893285e-06  -1.4301067e-05   5.6313734e-06  -7.4171592e-05  -8.2936967e-05  -1.7544247e-04  -5.7776779e-05  -1.7352274e-04  -8.5654437e-06  -1.8484943e-05   2.3517661e-05  -5.2744930e-05  -1.2126047e-05  -4.8223723e-05   6.1469204e-05  -4.1561227e-05  -7.4668613e-05  -1.1543059e-04  -9.9175868e-06   8.0908911e-05  -1.2875528e-05  -8.1263506e-06  -3.5874495e-05  -3.1017893e-07   1.5775217e-05   4.0409776e-07  -1.2467173e-04  -4.2578922e-05  -3.6515345e-04  -5.0288458e-05   1.1966518e-05   2.8493860e-05   4.0264786e-06  -3.0116156e-05  -1.6322381e-05   1.5845320e-05   7.3750357e-06  -1.3146109e-05   4.1148167e-05  -1.4905726e-04   5.8609450e-05  -9.5522024e-05  -5.2858708e-05  -1.2662415e-05  -1.6686298e-04  -7.6841177e-05
   6.2365589e-06   1.0763047e-05   1.9080455e-05   1.1943083e-05   1.6318454e-05  -3.4909505e-07  -1.6878754e-05  -1.4373867e-04  -1.0640797e-04  -1.8930591e-04  -6.5870168e-05  -1.3010023e-04  -8.2892975e-06  -3.7651636e-05   1.5901789e-05  -4.7642916e-05  -1.0459911e-05  -1.0624222e-04  -2.1766371e-05  -1.7731514e-05  -1.2329685e-04  -1.0132905e-04   8.1324079e-06  -1.3839311e-04  -2.2990077e-06  -1.0030344e-05  -4.9357513e-05  -2.6136361e-06  -1.2810682e-05   7.4134380e-07   3.0994852e-05   7.6801398e-06   1.4716844e-04  -9.0306574e-05   1.4997154e-05   3.1837648e-05   8.6055752e-07  -3.2332173e-05  -2.7783350e-05   2.3719822e-05   1.9527735e-05  -5.4507305e-05  -1.5815240e-05   6.8147638e-05  -1.6419265e-04  -1.0967594e-04  -2.4425497e-04  -2.0025964e-05  -4.6028319e-05  -4.8821988e-05
   4.7504705e-06   1.0558239e-05  -2.2292475e-06   2.3602492e-05   2.9865792e-05  -1.8168956e-07   3.9242943e-05  -8.2394290e-05  -1.5733099e-04  -2.0920132e-04  -9.8210825e-05  -1.5683236e-04  -6.1499566e-07  -3.8154900e-05   2.7939039e-05  -4.3598167e-05   3.1148973e-06  -6.4025546e-05  -6.5324879e-05   4.2467968e-06  -1.1395205e-04  -7.3982694e-05  -3.6906629e-05  -4.6978821e-04   2.4921542e-06   1.9163959e-05  -3.6756031e-05  -4.3035493e-06   4.1743106e-06   1.3783034e-05   2.5209065e-05  -2.1198759e-04  -3.3586167e-04  -1.2027728e-05   1.6205046e-05   2.0779966e-05   2.9040117e-05  -3.7892412e-05  -2.3645489e-05   4.9108271e-06   1.9470870e-05  -6.6989251e-06   1.8239551e-05  -1.0959738e-05  -2.3057873e-04   3.1995205e-05  -1.4504143e-04  -7.7093471e-05  -2.2656715e-04  -6.4327345e-05
   3.2230684e-05   6.9827602e-06   3.4713856e-05   3.2470969e-05   1.8262223e-05  -3.2117459e-06  -6.6794308e-07  -3.7616777e-05  -1.2154663e-04  -1.7778265e-04  -5.2265579e-05  -9.3110859e-05   1.1957644e-05  -5.4238462e-05   2.5122186e-05  -5.5431246e-05  -4.1661169e-06  -3.5467910e-05  -2.0424239e-04  -3.5513436e-05  -9.9568453e-05  -4.1449257e-05   2.0297604e-05  -1.0166652e-06   3.0214198e-05  -1.2940986e-05  -5.7949084e-05  -7.0350303e-05   5.8319714e-05   8.0743421e-06  -6.7669207e-05  -2.2011953e-04   1.4738788e-04  -1.6771094e-04  -1.8598876e-05   3.3733188e-05  -6.4471701e-06  -2.2919583e-05  -2.3742983e-05   1.7301549e-05   3.6209954e-06  -3.4249810e-05  -3.4624511e-05  -2.9646483e-04  -5.2017960e-05   1.6800761e-04  -3.2068338e-04  -5.0690487e-05  -1.4332356e-04   5.1651718e-05
   8.6171389e-07   7.4445944e-07   5.6122235e-06   2.1271644e-05  -1.2622562e-05  -9.9100525e-06  -6.0549905e-06  -1.3387467e-04  -1.7492600e-04  -1.9187144e-04  -6.8385278e-05  -2.0432869e-04   5.0738868e-06  -6.7005378e-05  -3.7318425e-06  -4.9146176e-05  -6.2861759e-06  -6.6600602e-05  -3.0007368e-04  -2.3812618e-05  -1.1065599e-04  -1.1026881e-04   1.7088747e-05  -2.8927150e-04   4.6987763e-05   2.3269795e-05  -3.6164143e-05   1.0289158e-05  -4.4197332e-06   4.1300236e-06  -6.9503985e-05   2.7681870e-06  -2.0579986e-04   2.8051869e-05  -1.3191696e-05  -4.8512840e-05  -1.6292235e-05  -2.5766090e-05  -2.0800380e-05   2.9029021e-05   5.7447601e-06   4.7224403e-05  -1.7192944e-05   6.5168802e-05  -2.1939396e-04  -2.3359198e-05  -2.0346114e-04  -2.1115811e-05  -2.6097766e-04  -6.7177498e-05
