   1.0019326e-04   7.2231524e-05   8.2199076e-05   8.9840596e-06   4.5864410e-05   4.3623713e-05  -2.9389248e-05  -6.7526278e-05  -1.3752584e-05  -1.3720946e-04  -3.1011805e-06   3.1988086e-05   2.1948170e-05  -1.1663052e-06  -2.6110836e-05  -3.4202316e-05   9.0078556e-06  -9.0808673e-05   1.4414926e-06  -5.9133232e-05   1.4229818e-06  -8.9745863e-06   8.1708284e-05   2.3042074e-04   4.4956932e-06   1.0472738e-04  -1.2707812e-05  -1.0794490e-05   2.7978709e-05  -2.8049180e-05   1.0259059e-04   4.5560086e-05   3.8584240e-04  -2.5117997e-05   5.0877577e-05   3.1458378e-05  -1.4809285e-05   1.4513317e-05  -7.8535322e-06  -1.8712970e-05   7.0962917e-05   3.0101985e-05   4.2871008e-05   6.2748550e-05   3.9768860e-05  -1.7116293e-04  -2.3713608e-05   3.2825596e-07  -4.2130938e-05   2.2187660e-05
   9.8520730e-05   6.9894784e-05   6.5133027e-05   1.9279216e-06   4.4516462e-05   3.9489612e-05  -4.0282350e-05  -4.1522144e-05   7.7263277e-05  -1.3586196e-04  -1.2434514e-05   1.5111616e-05   1.1500820e-05   5.5586082e-07  -1.6484699e-05  -3.9633418e-05   1.8506074e-06   1.1799692e-05   5.3177635e-05  -1.4215473e-05   1.1439666e-05  -2.6473490e-05   9.6580501e-05   1.2943737e-04   9.0830799e-05   5.6773002e-05   3.2291875e-05  -1.0880751e-05  -4.1266285e-06  -1.1000140e-05   1.9876217e-04  -6.9380265e-05   8.0812781e-05  -1.2841169e-04   3.1433563e-05   1.9230798e-05  -4.1798150e-05   2.6689657e-05  -1.4841956e-05  -3.6083100e-05   7.6746073e-05   1.1171490e-04   7.5475531e-05   1.6561184e-04  -3.5671394e-05  -2.3661020e-04   3.2373777e-05   4.5469384e-05  -1.0972068e-05   2.3042327e-05
   1.0486662e-04   6.7031666e-05   5.1722360e-05   5.8481301e-06   6.0315861e-06   5.0346422e-05  -3.0856798e-05  -6.2553504e-06  -4.3444265e-06  -1.4788996e-04  -2.8112829e-05   6.6058434e-05   3.2926338e-05   3.1602722e-05  -9.5452006e-06  -1.8397588e-05  -1.9614743e-06  -6.7723995e-05   2.9329731e-04  -9.7064067e-06  -1.3301611e-05  -3.3543874e-05   5.9045225e-05   8.7369539e-05   5.5242926e-05   5.5868226e-05   3.6191452e-06  -1.7640588e-05   4.9453156e-05  -2.0409230e-05   2.5658953e-04   8.0925121e-05   1.1298733e-04   1.1520141e-05   4.2026440e-05  -8.0149621e-06  -5.1830910e-05   3.0458777e-05  -5.0568970e-06  -1.0495673e-05   8.1241640e-05   1.1452689e-04   7.8519384e-05  -1.1860007e-04  -2.8543875e-05   2.5320600e-05  -5.4214637e-05  -9.3221797e-06  -7.0024631e-05  -2.1100712e-05
   1.1220765e-04   5.4077074e-05   6.9064983e-05   7.2728230e-06   1.3606515e-05   3.8508897e-05  -2.9010020e-05  -1.6376862e-05   1.1478542e-04  -1.1054389e-04   1.4444982e-05   9.3613362e-06   1.7970793e-05   2.8467668e-05  -2.1935146e-05  -2.9959794e-05   3.6280562e-07  -7.3308438e-05  -1.5934353e-04  -4.3080545e-06  -4.6933274e-06   6.2764877e-05   7.7566030e-05   2.7995734e-04   1.3480611e-04   7.0320297e-05  -2.1845908e-05  -4.7336529e-05   6.9127695e-06  -2.3773740e-05  -7.1480485e-05  -4.2783493e-05   3.6564804e-06   1.2372607e-05   5.0410476e-05   4.1354670e-05  -6.9538284e-05   3.1920736e-05  -1.8663723e-05  -8.8617431e-05   8.6544263e-05   1.5023908e-04   6.4446038e-05   1.7136415e-04   5.4602646e-05  -1.4808734e-05  -4.1416079e-05   2.0582149e-05  -4.0557188e-06  -9.8911369e-06
   1.0719001e-04   5.4777436e-05   6.9128320e-05   9.9975769e-06   5.4936780e-05   5.9407455e-05  -3.0114747e-05  -6.8313922e-05   2.0300893e-05  -1.2323944e-04  -6.5266687e-07   5.7655001e-05   2.0835994e-05   8.0016507e-06  -1.5520482e-05  -3.5929952e-05   1.5578628e-06  -1.0031870e-04   1.5337662e-04  -1.9807774e-05  -8.2922179e-06   3.3496171e-06   1.0225707e-04   1.0652436e-04   6.7212910e-05   1.0200129e-04   2.0278756e-06  -5.4551343e-05   2.3402241e-05  -2.3326795e-05  -1.7660994e-05  -6.0714297e-06  -6.5033942e-06  -2.1815222e-05   4.4326691e-05  -1.4890400e-05  -6.4530199e-05   2.7184817e-05  -2.2662669e-05  -2.7818116e-05   9.8978744e-05   6.6952605e-05   5.0697614e-05  -1.9445435e-04  -4.9943210e-05   3.9531977e-05  -1.8396628e-05  -1.3987488e-05  -2.6783129e-05  -2.8097551e-05
   9.0071386e-05   5.4268137e-05   3.7108523e-05  -2.9581613e-06   4.7307578e-05   4.5301615e-05  -2.2534223e-05  -1.0721612e-06  -5.9493363e-05  -1.2804505e-04   1.2981939e-08   5.5727705e-05   2.7920856e-05   2.9611892e-05  -4.1468800e-05  -4.1760552e-05   1.5677987e-06  -2.0602356e-05   1.2962360e-04  -1.5334281e-05  -2.2114222e-05   1.5480053e-05   3.9736191e-05   1.1800757e-04  -4.0544114e-06   8.1407969e-05  -1.2542976e-06  -3.7756778e-05   3.0179226e-05  -1.9550274e-05   2.7618769e-05  -5.5429558e-05   1.1615265e-05   9.1924725e-05   5.9074933e-05   4.4020737e-05  -1.7615646e-06   3.0307194e-05  -1.4681286e-05  -1.2352646e-05   1.0060435e-04   1.5091892e-04   9.4512667e-05  -2.5817505e-04   1.5556881e-04   7.3181451e-05   1.8415270e-04   2.1904492e-05   1.7079197e-05   9.8146711e-06
   1.1239573e-04   4.6910765e-05   5.1016534e-05   4.6419846e-06  -1.7703558e-06   2.9059996e-05  -1.1475508e-06  -3.6234742e-05  -1.6204969e-05  -9.7006814e-05   4.9988430e-05   1.1939022e-04   2.4376986e-05   2.7379643e-05  -3.2380260e-05  -4.3725402e-05   3.2763539e-06  -5.5992000e-06  -3.0847065e-04  -4.8405385e-05  -5.0016997e-06  -7.2454495e-05   5.7065663e-05  -1.6583643e-04   1.4548036e-05   7.7798839e-05  -2.4764695e-05   8.8185971e-06   6.2016629e-06  -2.1926213e-05  -8.4621810e-05  -3.8355800e-05   1.4500332e-04   5.1073599e-05   2.6876960e-05   6.7990091e-05  -4.0003186e-05   2.4510291e-05  -1.5400567e-05  -3.4216264e-05   8.9777197e-05   1.1299833e-04   5.7357480e-05   8.4250933e-05  -5.6267518e-06   5.5595374e-05   2.2984170e-05   5.1472478e-05   1.0229049e-04   2.2682892e-05
   9.1941743e-05   6.2853316e-05   6.6818866e-05  -1.3947144e-06   6.7925765e-05   2.6510119e-05  -1.4356058e-05   1.5675865e-05  -8.9801651e-06  -9.8876808e-05   8.8177194e-06  -1.3360188e-05   6.9478801e-06   1.6263928e-05  -3.7498339e-05  -2.6842205e-05  -1.2075737e-05  -5.2924785e-05  -7.5228763e-06  -1.6447679e-05  -2.5673504e-05  -8.0291771e-05   6.7332177e-05   3.0388412e-04   8.8982637e-07   5.8022953e-05  -2.6587164e-05  -3.6878930e-05  -1.0718987e-05  -3.1169511e-05  -6.1696173e-06  -1.0175178e-04   4.5098372e-05  -5.4876036e-05   5.2845087e-05  -4.2762485e-06  -4.7035377e-05   2.0159225e-06  -1.9537953e-05  -1.9450010e-05   8.1604958e-05   1.3589655e-04   8.2575287e-05   2.0875887e-04   1.7092028e-06  -1.2406218e-04   8.9001667e-05  -1.9157955e-05   3.4197245e-05  -2.9674911e-05
   9.6593911e-05   4.8183385e-05   4.0573963e-05  -2.4024171e-06   9.7771490e-06   2.4995332e-05  -4.6299312e-05  -4.2215466e-05   6.7272151e-05  -1.1071975e-04   3.0095853e-05  -5.5547494e-06  -3.6561460e-06  -2.6493950e-05  -4.7469039e-05  -4.7103284e-05  -1.8374401e-05  -8.1789978e-05  -4.0752071e-05  -2.4041974e-05  -1.2675150e-05   1.2654922e-05   6.2770108e-05  -2.2516793e-05  -4.4590830e-05   7.0055466e-05  -1.6658042e-06  -4.0187930e-05  -2.0999081e-05  -3.1088468e-05   1.0225747e-04  -4.7821351e-05   4.9967377e-05  -1.1119854e-04   4.1487638e-05  -4.3309251e-06  -1.2934108e-05   2.7089163e-05  -2.1026250e-05  -9.1477432e-06   7.6890945e-05   1.8314811e-04   8.1081729e-05  -1.2047414e-04  -5.6813697e-06  -7.4161348e-05   2.3483996e-04   2.9583403e-05  -6.2451705e-05   2.4134009e-05
   9.3446150e-05   3.9364419e-05   3.9487295e-05   1.0250996e-06   3.9669681e-05   2.7614406e-05  -2.5619293e-05  -9.8988734e-05   1.6375580e-04  -9.8199394e-05   3.9623155e-05   7.4852142e-05   1.4240371e-05  -9.1190550e-06  -4.9408722e-05  -2.8390234e-05   2.4892838e-06  -1.1209468e-04   9.3156894e-05  -4.0329989e-05   1.1976170e-05  -3.6082965e-06   2.1375108e-05   3.0404294e-04   3.1738957e-05   3.7981601e-05   5.1145789e-06  -1.7091146e-05   4.0651807e-06  -3.6179765e-05   3.7669080e-05  -4.6746558e-05  -1.1504445e-04  -4.9690116e-05   4.5596113e-05  -3.3068365e-05  -3.1647309e-05   1.2468460e-05  -2.0599653e-05  -3.9605795e-05   7.2955590e-05   5.1119790e-05   7.1546921e-05   9.4763789e-05  -9.6631004e-05  -2.6406449e-05  -3.3451575e-05   5.4494092e-05  -2.2386695e-05  -6.9087022e-05
   7.5523720e-05   3.2281427e-05   6.2456325e-05  -7.7070972e-06  -1.8445016e-05   2.7798340e-05  -2.9854937e-05  -4.8871458e-05   3.7004851e-05  -1.0171952e-04  -1.5779336e-06   6.4920576e-05   3.7254176e-07   2.8392789e-05  -4.5002798e-05  -3.1687283e-05  -8.6838581e-06  -9.7917138e-05  -7.7093000e-06  -3.2397296e-05  -4.6107102e-06   8.0013931e-05   2.9116924e-05  -3.8722130e-05   2.3112234e-05   5.3926342e-05   1.1419917e-05  -1.8235627e-05   3.2777143e-06  -2.7558328e-05   7.4139258e-05  -1.6250172e-04   5.3968954e-05  -1.0725501e-04   2.8807806e-05  -2.3374545e-05  -2.7407755e-06   1.5825481e-05  -2.2682965e-05  -3.7990703e-05   7.8176927e-05   1.2977132e-04   6.4199157e-05   1.1884293e-04   1.1794966e-04  -2.9900391e-04  -7.7420511e-05   3.3612778e-05  -6.4602835e-05   1.4184359e-06
   8.9997498e-05   3.8944669e-05   5.0072933e-05   1.5531961e-06   6.3193445e-05   4.6918176e-05  -2.0997959e-05  -3.5138008e-05   2.4578625e-05  -1.0741910e-04   1.5330783e-05   8.6122258e-05   6.8482423e-06   4.8579727e-07  -2.2950095e-05  -2.8921890e-05  -1.4514392e-05  -5.7349902e-05  -2.2634209e-04  -3.8900253e-05  -7.6462420e-06   1.1884867e-04   6.5991677e-05   6.4895459e-05   4.6169022e-05   7.2459385e-05  -1.0860846e-05  -4.0793882e-05   1.7746232e-05  -2.4727773e-05   1.7100590e-05  -3.4206638e-05   2.1296044e-04  -6.2865780e-05   2.3635512e-05   2.5156118e-05  -4.1161253e-05   1.4844153e-05  -1.3822209e-05  -3.0806885e-05   9.3791248e-05   8.4564948e-05   8.5672211e-05  -4.8335307e-05   1.7889621e-05   2.4568970e-05   2.8978937e-04   1.7741295e-05  -1.0061097e-04  -1.3856539e-06
   7.4312913e-05   3.9938084e-05   5.6825862e-05  -6.8099844e-06   4.5015768e-05   2.0734760e-05  -1.5729836e-05  -1.1718957e-05  -1.7624383e-04  -8.8950350e-05   3.6856847e-05   4.8810271e-05  -8.5638612e-06   8.7811486e-06  -7.7684483e-05  -2.2708502e-05  -1.7476198e-06  -8.1520237e-05  -3.6372500e-04  -6.9939721e-05  -3.0447281e-05   1.1959418e-04   3.8698978e-05  -3.5332750e-06  -4.0331328e-05   6.8523987e-05  -3.8743841e-05  -6.5820015e-05  -2.0476929e-05  -2.8091243e-05   3.7488531e-05   4.5800887e-05   2.9174678e-04  -7.7416786e-05   5.4773873e-06  -7.7883797e-06  -4.1582109e-05   1.2465764e-05  -1.7739387e-05  -4.4138305e-05   7.1157468e-05   1.4416283e-04   2.1221735e-05  -3.9109553e-04   5.6905872e-05   2.4932917e-05  -5.2524207e-05   3.3379697e-06  -7.0156762e-05  -2.8332870e-05
   8.7656772e-05   3.7921363e-05   4.8733516e-05  -4.8770530e-06   5.8526994e-06   6.6442308e-06  -6.8174515e-05  -2.9051598e-05   5.1306586e-05  -1.0048896e-04  -8.1944909e-06  -6.0992957e-06   1.9760023e-06   3.8548937e-06  -8.6553355e-06  -4.1032908e-05  -1.5931641e-05  -1.0247352e-05   1.1154705e-04  -3.3116117e-05  -5.9419141e-05  -5.4779572e-05  -3.0998410e-05  -1.0062833e-04   4.1393247e-05   3.9851046e-05  -2.0721498e-05  -2.1456965e-05  -6.8361936e-05  -3.1806187e-05   1.2926174e-04  -3.2159944e-05   1.0086031e-04  -1.6407466e-05   2.3541725e-05  -6.0759191e-08  -5.9517057e-05   3.1024581e-05  -4.1641997e-05  -9.6012764e-06   8.0826510e-05   1.2250600e-04   5.9518024e-05  -4.5469825e-04   1.6390477e-04  -1.2607925e-04   3.3933375e-05   2.8603092e-05  -6.6121691e-05  -1.8025950e-05
   4.8365779e-05   3.1954063e-05   3.0034340e-05  -4.0710479e-06   5.7412093e-05   1.5302207e-05  -6.0829989e-05  -6.1378727e-05  -1.1652591e-04  -1.1470373e-04  -1.6520475e-05   4.3715714e-05  -1.0738397e-05   1.5999631e-05  -2.1659058e-05  -2.9135686e-05  -1.9194134e-05  -3.5694371e-05  -2.0750522e-04  -9.6685426e-06  -4.4163393e-05  -1.1160149e-05   3.4744335e-05  -9.3904848e-05  -3.4222609e-05   5.1253995e-05   1.4526304e-06  -3.1384185e-05   9.6266867e-06  -3.5341374e-05   5.8589198e-05   2.1576114e-05  -2.8944194e-05  -3.2127948e-05   1.4567267e-05   2.6767118e-05  -3.1351328e-06   5.7910402e-06  -2.5456293e-05  -6.5926317e-05   7.2731520e-05   1.1982412e-04   6.9948670e-05  -2.0908180e-04   9.1981470e-05  -8.3741055e-05   1.1352360e-04   3.0692354e-05  -1.3589653e-05  -5.4232791e-05
   6.6873195e-05   2.3176701e-05   3.2872544e-05   5.1646734e-06  -1.6088301e-05   2.5472387e-05  -6.4155218e-05  -7.0268507e-05  -1.5496000e-04  -9.4706476e-05   1.4403005e-05   1.2676604e-06  -8.9643272e-06  -2.6806865e-06  -4.2912925e-05  -2.7435432e-05  -7.5688035e-06  -8.1822269e-05   1.3716426e-04  -1.6249391e-05   2.1806056e-05   4.6846490e-05   2.4853192e-05   1.1993622e-04  -3.9728540e-05   8.9233523e-05  -3.6532263e-05  -7.0438880e-05  -4.8390143e-06  -4.0131523e-05   2.1798927e-05  -4.7236176e-06   9.0794092e-06  -3.5035879e-05   1.7743443e-05  -4.0039351e-05  -3.9116127e-05   2.2051800e-05  -3.7423652e-05  -3.8598762e-05   6.0872953e-05   6.4164000e-05   6.7543355e-05  -1.7266517e-04   8.9324945e-05   8.5708372e-05   1.0564845e-04  -5.1752395e-05  -5.7927473e-06  -4.2192965e-05
   4.4859305e-05   2.6621317e-05   5.6743429e-05  -2.7253986e-06   2.6465283e-05  -6.3599336e-06  -3.7613758e-05  -5.3446791e-05   9.6032250e-05  -9.6430740e-05  -8.7840999e-06   5.0912597e-05   4.5164788e-06  -4.4050789e-06  -2.0709454e-05  -3.3042565e-05  -9.3391818e-06  -4.9652353e-05   1.1249078e-04  -1.3644992e-05  -3.2259657e-05   3.5784782e-05   5.4822864e-05  -2.8323082e-05  -5.3209574e-06   5.4827869e-05  -1.6059814e-05  -8.0011465e-05   1.4869691e-05  -3.6066085e-05  -5.7622245e-05  -1.2604846e-04   2.2762390e-04  -6.3687708e-05   1.9848305e-05  -2.8873745e-05  -2.7966256e-05   2.4264280e-05  -3.5548699e-05  -3.1426691e-05   7.4701697e-05   7.6505516e-05   4.7549169e-05  -2.2199348e-04  -9.7216951e-05  -1.3290814e-04   3.9852101e-05   6.8855326e-05   5.1133557e-06  -3.9815372e-06
   8.4193780e-05   2.0362835e-05  -2.0839825e-06  -4.8499614e-06   2.8208291e-05   9.4506531e-06  -2.8838374e-05  -5.6134755e-05   5.1387189e-05  -1.1013904e-04  -2.3418292e-05   8.8208028e-05  -5.8124829e-06  -1.1811875e-05  -3.7916991e-05  -2.5122021e-05  -1.0122152e-05  -1.0464535e-05  -2.2615533e-04  -3.0336294e-05  -3.0327035e-05   3.6843681e-05   8.5700840e-06   1.2014998e-04  -4.8010843e-05   7.6687196e-05  -2.0017529e-05   4.1132039e-06   4.4172102e-05  -4.0443436e-05  -2.0433687e-05  -9.5446994e-05  -1.2518634e-04  -8.1387752e-06  -2.2536449e-06   3.8645430e-05  -5.7911217e-05   3.1292770e-05  -1.4295248e-05  -7.2885807e-05   6.0381666e-05   1.3950228e-04   3.9641487e-05  -9.7708384e-05   1.6417376e-04   3.9560779e-05   1.4497005e-04   2.8289789e-05  -5.8067511e-05   3.3983222e-06
   8.6651911e-05   2.2360842e-05   3.8774051e-05  -8.8931074e-06   2.5135401e-05   1.0961395e-05  -4.3852575e-05  -3.1846608e-05   1.0147456e-04  -9.9069315e-05  -1.9303909e-06   6.2429492e-05  -6.8312028e-07  -2.3642086e-05  -3.2457800e-05  -3.3248514e-05  -7.9486417e-06  -3.5006571e-05  -3.0364862e-04  -3.4395918e-05  -9.3788512e-06   9.5945565e-05   4.6526769e-05  -2.0714011e-05  -9.6431177e-06   7.8204670e-05  -4.3155698e-05  -6.1891355e-05  -6.1129125e-05  -4.2787971e-05   2.9851422e-05   2.0319645e-04  -1.5959088e-04  -8.9506946e-05   1.0559553e-05   4.8329453e-05  -1.5075896e-05   1.7040740e-05  -4.7627644e-05  -2.0196569e-05   4.8915957e-05   1.3387015e-04   6.4830856e-05   6.0006416e-05  -1.6662838e-06   9.0273104e-05  -5.0503317e-05   2.9632050e-05   3.8663940e-05  -2.7540413e-05
   4.2833308e-05   2.8749870e-05   6.0413084e-05  -1.5573110e-05  -5.5142064e-06   3.0492488e-06  -6.6709770e-05  -3.1036936e-05  -5.4022345e-05  -1.0087852e-04  -3.8646798e-05  -1.2689196e-05   2.8604966e-06  -1.1690919e-05  -4.3062260e-05  -2.4251563e-05  -1.1377583e-05  -2.4592629e-05  -3.1359855e-04  -2.9476179e-05  -3.1905394e-05   8.4827429e-05   2.5948973e-05   2.6021331e-05   5.5104469e-05   1.1669553e-04  -6.5389228e-05  -8.1135062e-05  -8.1528287e-06  -3.6298625e-05   2.3240258e-04  -5.4696658e-05   6.0955474e-05  -6.0233480e-05   2.1117732e-05  -2.4223118e-05  -3.7153695e-05   1.4606073e-05  -3.1484782e-05  -7.2364128e-05   6.8678899e-05   7.0621296e-05   5.4296455e-05  -2.2167459e-04   6.2967309e-05   1.5805032e-04   1.0264709e-04  -1.7416784e-05   6.0796971e-05  -3.1199354e-05
   6.7381741e-05   1.1693318e-05   3.5814479e-05  -1.1596841e-05   2.1938620e-05  -1.5844645e-06  -6.6721914e-05  -4.0814084e-05  -7.4833488e-06  -9.5777737e-05  -8.9540736e-06   5.8116890e-05  -4.5979577e-06  -2.1754950e-05  -7.3272677e-05  -3.8662278e-05  -1.4661202e-05  -3.7591326e-05   7.1749440e-05  -1.8440731e-05  -2.9971781e-05   5.8045749e-05   1.7733402e-05   2.0709120e-04  -5.8752863e-05   9.6037642e-05  -3.9364539e-05  -2.8950157e-05   4.9724358e-06  -3.4631128e-05  -1.3317267e-04  -1.1492946e-04  -5.0579210e-06  -6.7450628e-06  -8.8645794e-07   4.3201111e-05  -1.0927362e-05   3.5434525e-05  -4.5660036e-05  -6.1315419e-05   5.9852136e-05   8.0651022e-05   8.0168487e-05  -5.6112400e-05   3.6276451e-05   1.3753911e-04   6.6437220e-05   7.2700081e-05  -7.3251125e-05  -4.6441153e-05
   6.4112544e-05   7.9387632e-08   4.0474519e-05  -1.3942654e-05   4.6600006e-05  -7.8465609e-06  -5.9665603e-05  -5.3326505e-05  -9.4289280e-05  -9.1605609e-05  -2.5698955e-05   3.1424177e-05  -2.4859939e-05  -2.4461493e-05  -4.0438626e-05  -3.6570989e-05  -2.3442357e-05  -9.2648115e-05  -1.4101919e-04  -4.0617550e-05  -3.7601436e-05   6.3109226e-05  -3.3969613e-05   2.3444332e-04   4.1424140e-05   9.3082417e-05   5.3979488e-06  -6.9707276e-05  -1.8319772e-05  -4.1704236e-05   5.2445750e-05   4.4159406e-06  -2.6645698e-04  -6.0853941e-05  -1.3058819e-06   3.8804261e-05  -1.4617355e-05   3.4020479e-05  -2.9707307e-05  -5.9575566e-05   5.6078865e-05   8.3209510e-05   4.9095208e-05  -1.2622847e-05   3.3468368e-05   8.7217370e-05   1.5480611e-04   3.6826299e-05   4.1605927e-05   2.3109924e-06
   3.0686937e-05   1.0099392e-05   3.7072405e-05  -1.4161774e-05   2.7694412e-05   1.3926810e-05  -4.7277990e-05  -5.7441015e-05  -2.1541100e-04  -9.9332603e-05  -3.7726571e-05  -2.5158655e-05  -8.7118033e-06  -6.7658707e-06  -4.1756364e-05  -4.1485549e-05  -2.1759000e-05  -1.1012348e-04   1.1555314e-04  -2.8418352e-05  -8.5329360e-05   2.5834262e-05   1.9469315e-05  -2.1133600e-04  -8.3949351e-05   4.5853227e-05   1.4470995e-05  -6.5302556e-05  -3.0477138e-05  -4.2883737e-05  -1.8255148e-04  -1.6173597e-05   1.0298525e-04  -1.3917431e-04   5.6215781e-06   3.2004516e-07  -4.7297272e-05   9.8804030e-06  -3.5828150e-05  -3.4953897e-05   4.3871918e-05   2.7056821e-04   7.0622758e-05  -1.9368718e-04  -6.4829022e-05   1.3796031e-04  -7.1642389e-05   8.0096099e-05   1.0945524e-04  -8.2794591e-05
   7.8487617e-05   1.6922830e-05   6.5562868e-05  -2.1568017e-05   6.0846742e-06  -1.0056390e-05  -2.2402781e-05  -6.5669134e-05   3.3208882e-05  -9.0980015e-05  -9.1670236e-06   4.9872713e-05  -1.9562613e-05  -1.8210589e-05  -3.6946287e-05  -2.1810672e-05  -2.4412355e-05  -1.0154133e-04   4.0799606e-04  -3.2195636e-05  -4.9671112e-06   1.8532972e-05   3.5036705e-05  -3.8928632e-05  -2.8150354e-05   6.9745431e-05  -2.2103904e-06  -6.6926841e-05  -4.8951352e-07  -4.9125745e-05   7.0357208e-05  -1.1777722e-04  -1.8714465e-05  -9.3930357e-05  -9.3208382e-06  -1.5801957e-05  -2.5190015e-05   2.2719139e-05  -4.3794302e-05  -1.2532775e-05   5.5633682e-05   1.3254705e-04   8.0199636e-05  -2.3150411e-05   1.1420168e-04   4.4928420e-05   1.4637495e-04   1.5529155e-05   4.7132798e-05  -2.2981012e-05
   3.6785743e-05  -1.4422960e-06   2.4298895e-05  -2.0153881e-05   5.4180517e-05   1.3751575e-06  -3.5486995e-05  -3.6644044e-05  -6.8212430e-05  -9.5127689e-05  -3.9154984e-05  -2.9953713e-05  -3.1400166e-05  -2.9474269e-05  -5.2701431e-05  -5.3321251e-05  -1.2691036e-05   5.4951929e-06  -2.2112457e-04  -4.4037839e-05  -7.6115495e-05  -3.9465622e-06   7.0947590e-06   3.0029798e-04  -5.8453843e-06   2.9593974e-05  -2.9991463e-05  -1.3726062e-04  -1.0810500e-05  -5.8336856e-05  -3.7189016e-05   8.1129350e-05  -1.4180514e-04  -2.6795919e-05   1.3706932e-06   4.2842039e-05  -2.1972744e-05  -2.1836843e-06  -4.1886633e-05  -7.1271288e-06   3.4138844e-05   6.6036933e-05   6.0417609e-05  -6.3280415e-05  -1.3327840e-04   3.8863870e-04   1.8229577e-04   3.4453598e-05   3.7859703e-05  -3.6042267e-05
   4.9055725e-05   5.5080613e-06   1.5743604e-05  -1.4576356e-05  -4.0590297e-07  -2.1276706e-05  -5.5210472e-05  -3.8519516e-05   8.2259094e-06  -1.1043990e-04  -6.8075169e-05  -9.3530252e-06  -1.4249804e-05  -3.1074185e-06  -6.0895203e-05  -4.9233251e-05  -2.0461108e-05  -8.0178870e-05   8.3100611e-05  -2.4873521e-05  -1.0283727e-04   3.3106167e-05   2.0453178e-06   2.5205320e-04  -5.3650769e-05   4.4200533e-05  -3.5921927e-05  -4.9286780e-05  -3.0447585e-05  -3.1377116e-05  -1.5063091e-04  -3.0730247e-05   8.9204754e-05  -5.3929136e-05  -1.8542200e-05   1.8208431e-05  -5.5625980e-05   1.9380073e-05  -3.3891443e-05  -6.6322471e-05   5.4205677e-05   7.1161478e-05   8.1507373e-05  -4.3546892e-04   1.2987175e-05   1.5293248e-05  -2.7422297e-05   4.2183539e-05   3.5161822e-05  -1.3877888e-05
   3.6852583e-05  -8.2920860e-06   5.0303654e-05  -1.3009449e-05   2.7260552e-05  -1.6005608e-05  -1.7757588e-05  -1.0279967e-04  -1.1109092e-04  -9.3272058e-05  -3.5957204e-05  -5.8541184e-05  -2.9505201e-05  -2.4353041e-05  -6.6304077e-05  -3.9682345e-05  -1.7878572e-05  -8.8886532e-05  -5.2636224e-05  -6.1771047e-05  -3.3843316e-05   1.0334088e-04   1.2629086e-05  -7.8145924e-05  -3.1714033e-05   5.0043389e-05  -2.3251896e-05  -2.0341758e-05   1.6344595e-08  -7.7375240e-05  -1.9785159e-06  -6.2728286e-05  -5.7553625e-05  -1.4976735e-04  -1.1284443e-05  -2.1908001e-05  -4.2558226e-05   8.4317588e-07  -3.7845875e-05  -1.9774025e-06   3.3660093e-05  -5.6799227e-06   7.3824893e-05   2.3610231e-05   2.4069460e-04   9.0972098e-06  -7.6345939e-05   9.6215677e-05  -6.2189988e-06  -4.9698214e-05
   4.4925921e-05  -1.3321247e-05   3.4868295e-05  -2.4828494e-05   9.0150452e-06  -1.6219761e-06  -6.8325186e-05  -7.9803373e-05  -8.6954315e-05  -1.1119148e-04  -6.7743182e-05   6.6110282e-05  -3.0403035e-05  -4.7556670e-05  -4.1458632e-05  -4.1129690e-05  -3.4062065e-05  -4.0509767e-05  -2.7893786e-04  -6.2453044e-05  -7.2386079e-05  -3.8613041e-05  -7.3665097e-07  -1.1718717e-04  -2.0917241e-05   5.3294840e-05  -1.9757734e-05  -3.7701946e-05   4.7482125e-05  -6.9873087e-05  -5.0919516e-05  -2.8260934e-05  -1.0592488e-04  -9.9512836e-05  -1.3989993e-05  -2.0361736e-06  -5.4749202e-05   1.5293755e-05  -5.1264789e-05  -4.7035734e-05   3.3660090e-05   4.3197659e-05   6.3055246e-05  -2.1915092e-05   1.7030579e-05  -4.0988849e-05   1.4905787e-04   1.3796233e-04   1.0158886e-04  -3.0732521e-05
   2.3040408e-05  -9.8402752e-06   6.4797696e-06  -2.8223190e-05  -3.0629951e-07  -2.4544621e-05  -5.3336742e-05  -8.6410160e-05  -1.3674545e-04  -1.1932355e-04  -7.9239348e-05   5.2951000e-06  -1.4392511e-05  -4.0448700e-05  -1.5320324e-05  -3.7506783e-05  -2.1336242e-05  -9.1629234e-05  -1.2028250e-04  -2.2135775e-05  -7.3670068e-05  -2.3651239e-05   5.7756224e-06  -3.0811908e-04  -7.1922412e-05   2.8647984e-05  -1.3219152e-05  -3.9558610e-05  -1.1755527e-05  -4.6450230e-05   7.7674697e-05  -3.6610534e-05  -1.8290730e-04  -9.6820113e-05  -1.3265146e-05   1.6849061e-05  -9.0713133e-05   3.1988551e-05  -5.0085288e-05  -5.9027068e-05   3.7016172e-05   9.4304749e-05   8.7541506e-05   4.3061958e-04   3.5061857e-05   3.6987909e-05   1.4356310e-04   4.5924498e-05   8.0152538e-05   4.0621424e-05
   2.9310959e-05  -1.8788804e-05   5.1878840e-05  -2.1800515e-05  -2.3648148e-05  -3.2490148e-05  -6.3210660e-05  -8.7152082e-05  -2.2421515e-04  -9.9179466e-05  -4.4078635e-05   3.4948960e-05  -3.0352532e-05  -3.5088167e-05  -4.8447990e-05  -1.2422736e-05  -2.7275579e-05  -1.4018943e-05  -1.7896468e-04  -2.9283499e-05  -6.9691523e-05  -5.3337015e-05  -4.4259141e-05   2.1429903e-04  -3.6271787e-05   4.9543996e-07  -4.3883334e-05  -7.5137155e-05  -6.7713714e-05  -4.4101129e-05   2.1852049e-05  -1.3241461e-04   7.8809717e-05  -1.9018838e-05  -7.5000798e-06  -4.8746821e-05  -1.1648021e-04   2.2300694e-05  -3.5830049e-05  -1.9949908e-05   2.6839823e-05   9.7905518e-05   6.5626540e-05  -3.5773803e-04   4.5590878e-05   1.9111192e-04   8.3442057e-05   4.8859511e-05  -9.4419302e-05   3.7110208e-06
   4.7020018e-05  -1.3713980e-05   1.8556211e-05  -2.4682449e-05   4.0468904e-06  -2.4113562e-05  -3.7884343e-05  -6.8362460e-05  -1.0206856e-04  -1.1082111e-04  -6.2661224e-05  -5.0398990e-05  -4.3926084e-05  -3.8138798e-05  -3.7074497e-05  -3.1004256e-05  -1.9638814e-05  -9.2730152e-05   1.9063010e-04   4.2815091e-06  -6.0451614e-05  -2.2190688e-05  -4.8034594e-06   1.2426822e-04  -1.4573229e-04   4.6088542e-05   3.1329393e-05  -5.3301912e-05  -3.3913890e-05  -6.1025738e-05   2.7718531e-06  -1.5408066e-06  -1.7686092e-04   1.7340268e-05  -2.9389864e-06  -3.0095556e-05  -7.8867008e-05   8.3150790e-06  -4.7917711e-05  -3.7848309e-05   2.1708733e-05  -6.5349006e-05   7.7339086e-05  -2.2732677e-04  -1.0495298e-04  -3.2391734e-05   3.7419846e-05   1.3334036e-06  -5.5601016e-05   2.1950771e-05
   2.6040580e-05  -1.6779535e-05   4.0183288e-05  -2.0417572e-05   1.3366137e-05  -1.5651278e-05  -6.3554486e-05  -6.7525063e-05  -1.9262423e-04  -1.0880748e-04  -6.8408117e-05   7.2858755e-05  -3.6483605e-05  -5.9174756e-05  -4.2017509e-05  -4.0599229e-05  -3.0337291e-05   6.6392872e-06   6.9581874e-06  -3.0064968e-05  -8.1161641e-05  -1.0628685e-04  -3.6747253e-06  -2.1162690e-04  -6.3798449e-05   3.3797416e-05  -5.1065057e-05  -2.9977868e-05  -3.9861967e-05  -6.0148213e-05  -1.0130602e-04  -1.4138112e-05  -1.1582435e-04   3.0102907e-05  -2.8656168e-05   9.3140961e-06  -4.6517322e-05  -2.3944458e-06  -4.7235328e-05  -1.0296534e-04   2.5289635e-05   6.8925976e-05   2.9241110e-05   1.1577979e-04  -1.2206793e-04  -1.3495589e-04   4.6605528e-05   1.1299112e-04  -5.2308233e-06  -5.5261069e-05
   1.8851131e-05  -1.7151182e-05   4.5862282e-05  -2.6407119e-05   1.5671165e-05  -2.4320501e-05  -4.3382737e-05  -2.8622646e-05  -1.7723718e-04  -9.6201904e-05  -4.8044971e-05   8.6082691e-06  -3.6947582e-05  -1.8154948e-05  -5.6644665e-05  -2.7130121e-05  -2.7603246e-05  -5.5640525e-05  -2.4899502e-05  -1.8097613e-05  -5.1168241e-05  -1.2003657e-05  -3.7333244e-05   4.3649902e-04  -5.1623072e-05   5.3075077e-05  -3.1345906e-05  -4.4770812e-05  -2.4957240e-05  -5.8310379e-05  -7.3775176e-05  -9.4156385e-05   1.2988348e-04   1.0930728e-05  -4.7183123e-05  -3.1669457e-05  -6.9306741e-05   1.4910895e-05  -4.4455726e-05  -1.9888954e-05   2.1240896e-05   1.4355854e-04   2.7907503e-05  -2.8252447e-04   1.1690806e-04   1.9848133e-04   1.1647629e-04  -3.3118660e-05   3.0650008e-05   2.4873272e-05
   3.9867238e-05  -2.9300980e-05   1.2401010e-05  -2.0091369e-05  -7.5568118e-05  -3.5798141e-05  -4.5904450e-05  -3.6929714e-07  -1.3315714e-04  -1.0046620e-04  -9.3003342e-05   4.0288423e-06  -3.7199781e-05  -2.4409735e-05  -3.5706318e-05  -6.0467151e-05  -2.9019871e-05  -6.2476189e-05   1.4368283e-04  -5.5951252e-05  -6.6417357e-05  -9.8638202e-06  -3.2223790e-05   1.0894229e-05  -3.7485508e-05  -1.4309337e-05  -3.5228259e-05  -7.6407276e-05  -7.1359100e-05  -5.3538482e-05  -2.1592545e-05  -6.5172040e-05  -8.5566418e-05  -7.0098278e-05  -9.8016208e-06  -1.7198341e-05  -9.2222435e-05   2.8207514e-06  -6.2994965e-05  -6.1000570e-05   3.0870542e-05   3.8946573e-06   5.6616704e-05   1.2041778e-04   8.8021443e-05  -1.9386332e-04   1.1840563e-04   3.9333532e-05   8.5971871e-05   1.1239243e-05
  -7.2074721e-07  -2.3918237e-05   1.0570967e-05  -4.1470674e-05   1.7651515e-05  -1.2092763e-05  -5.6521654e-05  -1.1091297e-04  -1.4069883e-04  -9.4478753e-05  -5.2490959e-05  -2.4477844e-05  -3.6069774e-05  -3.9753439e-05  -5.6468674e-05  -3.8544778e-05  -2.3726088e-05  -1.1917079e-04   1.9231084e-04  -2.1856717e-05  -9.7534714e-05   9.2559649e-06  -2.5136513e-05   1.9201486e-04  -1.0393479e-04   4.7600461e-05  -3.4418023e-05  -1.2196328e-04  -3.8156154e-06  -6.3254716e-05  -6.1950163e-06  -5.0104354e-05  -1.6249053e-04  -8.3363047e-05  -2.8855191e-05  -1.2662610e-05  -7.9976860e-05   1.4156222e-05  -5.4477841e-05  -3.0765586e-05   6.8023905e-06  -4.8551290e-05  -1.8511430e-06  -3.3974051e-04  -1.3239399e-05   1.1598195e-04  -7.3744253e-05   1.8111807e-05  -3.5071564e-05  -1.8514262e-05
   1.7323268e-06  -2.3093138e-05   3.1889289e-05  -2.8705426e-05  -4.0122024e-05  -3.5475990e-05  -9.1000154e-05  -8.2234983e-05  -3.5649056e-05  -9.2553229e-05  -5.6320630e-05  -1.6625503e-05  -5.4888067e-05  -2.1957418e-05  -6.1868937e-05  -4.2263251e-05  -1.5576015e-05  -7.9147816e-05   3.9107876e-05  -1.9183144e-05  -5.5606095e-05  -2.4953180e-05   1.5627036e-05   7.7466364e-05  -8.9138441e-05   9.4204352e-06  -3.2828335e-05  -9.8964490e-05  -4.3216802e-05  -6.1901919e-05  -1.5140527e-04  -1.9012697e-04  -4.4257096e-05  -1.0253063e-04  -2.9823410e-05  -6.3879670e-05  -1.1909341e-04   2.0516898e-05  -5.3724711e-05  -8.3028608e-05   1.6816040e-05   1.7147368e-05   1.0088924e-05   2.2866150e-05  -9.5342322e-05  -1.5096487e-04  -1.1589634e-04   3.8909966e-05   6.8762580e-05   5.9526817e-05
   3.6398606e-06  -1.5761814e-05   1.8650742e-05  -3.2235279e-05  -3.0027013e-05  -2.2764279e-05  -6.2651365e-05  -1.2504015e-04  -2.2583462e-04  -1.0528081e-04  -7.3931340e-05  -1.5675017e-05  -3.9675142e-05  -2.9727886e-05  -4.9153197e-05  -3.5128778e-05  -1.9031424e-05  -5.8036876e-05  -9.3189767e-05  -4.4243217e-05  -6.9026391e-05  -6.7578359e-05   8.0962327e-06  -1.1011174e-04  -9.5352007e-05   1.7225790e-05  -2.3672632e-05  -9.8746321e-05  -8.8988250e-05  -4.2867468e-05   7.7947960e-05  -8.1010483e-05   3.3422667e-04  -9.5862033e-06  -1.9698629e-05  -6.5149950e-05  -9.5353294e-05  -6.9716407e-06  -4.8317965e-05  -7.4140167e-05   3.3611290e-05   1.0883935e-04   3.8915747e-05  -1.7093362e-04   4.8653077e-05  -2.8665105e-05   1.2709110e-05   9.5593059e-05   2.0759811e-05  -5.6911424e-05
   4.0531886e-06  -3.6267324e-05   3.5023771e-05  -3.7942315e-05  -1.7645722e-05  -2.6522752e-05  -3.9211158e-05  -5.0204959e-05  -8.7230961e-05  -8.2442355e-05  -3.7591515e-05   5.9262733e-05  -3.2391978e-05  -2.1558659e-05  -8.1459337e-05  -4.0403069e-05  -2.4183395e-05  -1.0114237e-04  -1.0161332e-05  -7.5871605e-05  -7.6099532e-05   2.7516804e-05  -9.3715526e-06   2.4382782e-04  -8.0460872e-05   4.3373886e-05  -4.6778219e-05  -1.2653125e-04  -1.8267916e-05  -5.9831178e-05  -9.0532259e-05   9.8338620e-05  -6.9143964e-05   3.6716916e-05  -3.4973102e-05  -4.7503341e-05  -6.3741296e-05   1.1559675e-05  -6.1868421e-05  -1.0025606e-04   1.0088057e-06  -3.7054961e-05   4.3247852e-05  -1.1699829e-04  -2.7200755e-05   8.5548199e-05  -4.3654371e-05   2.7863047e-05   1.3513549e-04  -7.2494775e-05
  -8.0762757e-06  -3.6217509e-05   8.1153530e-06  -3.3434018e-05  -4.8112724e-05  -2.9948958e-05  -7.4458971e-05  -1.5338873e-04  -1.7698620e-04  -9.2716669e-05  -8.1914761e-05  -3.0526739e-05  -5.3230073e-05  -4.0751311e-05  -6.9929141e-05  -5.1373390e-05  -4.4354427e-05  -7.5297947e-05   3.5492168e-04  -5.3200754e-05  -4.7845278e-05  -1.7760070e-05  -6.2087085e-05  -2.3131307e-04  -7.4917676e-05  -1.2165120e-05  -3.2891367e-05  -9.0738904e-05  -3.3180422e-05  -6.2419655e-05   6.8286456e-05  -1.7929736e-04   6.7619010e-05  -1.2397837e-04  -1.6996320e-05  -4.2719865e-05  -1.0749263e-04  -5.3350191e-06  -6.4031970e-05  -5.8105838e-05  -1.8197172e-06   9.5520278e-05   5.2550724e-05  -3.0526883e-04  -5.2285530e-05   5.1972656e-05   2.4410131e-04   8.6240194e-05   2.7089944e-05  -5.8955834e-06
   3.3997896e-06  -2.9622604e-05  -4.1677813e-06  -3.9231370e-05   1.1207201e-05  -4.5347344e-05  -8.1370228e-05  -7.9527752e-05  -6.0998493e-05  -9.8484568e-05  -9.6837794e-05  -3.0593881e-05  -5.3086584e-05  -8.2886174e-05  -4.8425671e-05  -4.9431146e-05  -3.0706949e-05  -1.1153461e-04  -3.5607294e-04  -7.3632662e-05  -8.5205931e-05  -5.0474144e-05  -6.1504019e-05  -3.1263510e-06  -1.6554988e-04  -4.1392368e-06  -6.3737949e-05  -7.3000934e-05   2.2727265e-05  -6.9030386e-05  -7.9856354e-06  -4.9370232e-05   1.4550843e-04  -3.7239861e-05  -2.8572604e-05  -8.3213956e-05  -1.2865444e-04   4.8966067e-06  -5.5992899e-05  -1.0284783e-04   7.9854854e-06   1.9101453e-05   3.8690509e-05   1.3700951e-04  -2.5730103e-04  -6.4063723e-05   1.3444621e-04   4.9885079e-05   4.3917520e-05   1.5281992e-05
  -3.4389479e-05  -3.5555397e-05   2.6620131e-05  -2.8845545e-05  -5.4349548e-05  -5.0855338e-05  -9.1647802e-05  -1.0686414e-04  -1.1718158e-04  -7.6485965e-05  -6.9657188e-05  -2.4058223e-05  -6.6491149e-05  -6.0738217e-05  -4.3102889e-05  -4.5652214e-05  -3.7334725e-05  -2.2211927e-05  -4.7235537e-04  -7.2840943e-05  -5.7028003e-05   1.8230121e-05  -7.8481680e-05   1.9561997e-04  -9.1816546e-05   1.3847691e-05  -5.2962620e-05  -9.5513584e-05  -5.9292419e-05  -8.2179504e-05   1.5496556e-04  -2.0369260e-04   1.6122005e-05  -9.8757882e-05  -4.3075004e-05  -9.5570358e-05  -9.2227499e-05   1.7666860e-05  -6.2457199e-05  -5.0879797e-05  -1.6910755e-05  -3.1069561e-05   3.6406243e-05  -1.0909961e-04   2.5260155e-05  -6.4739332e-05   6.8901842e-05   8.9308443e-05   1.2000086e-04  -6.9313588e-05
  -5.3482891e-06  -4.6919035e-05  -1.0129104e-06  -2.9570405e-05  -2.5011190e-05  -5.5101587e-05  -9.0464702e-05  -6.4294283e-05  -1.8678406e-04  -1.0239035e-04  -9.8382705e-05  -2.4268522e-05  -5.1856423e-05  -6.3558022e-05  -4.7803220e-05  -3.7421938e-05  -2.9773339e-05  -5.1729108e-05  -1.3581586e-04  -6.7769455e-05  -6.6853761e-05   3.2920168e-06  -4.8756581e-05  -2.8122612e-04  -9.5013020e-05   2.0876156e-05  -4.7498135e-05  -9.8906523e-05  -4.9445658e-05  -7.5511278e-05  -8.4707164e-05  -8.8138026e-05  -1.3163804e-04  -3.9261635e-05  -4.5320063e-05  -9.2702430e-05  -1.0677128e-04   5.6258864e-06  -6.8371075e-05  -9.5591742e-05  -1.3565403e-05  -3.9974941e-07   2.7954813e-05  -1.2055351e-04  -7.6845106e-05   1.1227413e-04   1.8226936e-04   3.5529880e-05  -4.9500741e-05  -7.1655886e-05
   2.4178705e-06  -4.3502678e-05  -2.2957589e-05  -4.5498869e-05  -5.4741737e-05  -4.6541143e-05  -8.4222236e-05  -7.1830713e-05  -2.4247945e-04  -9.5846262e-05  -1.2359032e-04  -7.1578463e-05  -4.5042150e-05  -8.7522545e-05  -2.8944580e-05  -4.1366318e-05  -3.5613208e-05  -5.3990818e-05  -6.2762432e-05  -4.9737351e-05  -7.6828052e-05   5.1142601e-05  -4.7997699e-05  -1.6902140e-04  -8.7908826e-05  -1.9994538e-06  -2.4922876e-05  -9.2505761e-05  -4.2075888e-05  -7.1162416e-05  -5.5731336e-05  -1.9238245e-04  -1.0604210e-04  -1.2541279e-04  -3.5939745e-05  -9.4747287e-05  -1.2556073e-04   1.1718292e-05  -6.7432426e-05  -1.0752151e-04   4.7007238e-06   1.5355137e-05   7.4634067e-06  -4.2653776e-04  -1.2011800e-05  -5.0182305e-05   4.5925091e-05  -1.9883033e-05  -5.0551475e-06   1.6105019e-05
  -1.0772752e-05  -3.9144536e-05   1.8929479e-05  -4.3249205e-05  -1.1085149e-05  -5.9791575e-05  -7.4593590e-05  -1.0148731e-04  -2.2732075e-04  -8.5404368e-05  -8.1818784e-05  -1.2867043e-05  -6.0572344e-05  -5.1068633e-05  -4.2676213e-05  -4.5973495e-05  -2.1687187e-05  -9.5910422e-05   2.5160512e-04  -5.6701505e-05  -5.0131497e-05   9.7322489e-05  -3.6627618e-05  -2.9358763e-04  -7.1541232e-05   4.2194229e-06  -6.7597801e-05  -6.6884371e-05  -1.0040350e-04  -7.6572665e-05   8.1620346e-05  -3.7318106e-05  -2.1242768e-04  -8.6623346e-05  -3.1596624e-05  -5.6907837e-05  -1.1337603e-04  -1.2923987e-06  -7.3241630e-05  -1.3702533e-04  -5.8223059e-06   2.3477864e-05   3.5377916e-06  -1.8737350e-04  -6.6798122e-05  -1.5688526e-04  -1.3660529e-05  -9.7258280e-06  -6.5670138e-05  -2.3560495e-05
  -1.8917770e-05  -4.9646675e-05  -5.0033708e-07  -4.0773837e-05  -4.2509320e-05  -5.2181498e-05  -1.0449010e-04  -1.3335557e-04  -3.1083482e-04  -9.1852817e-05  -1.1382191e-04   7.6874139e-06  -4.4467561e-05  -9.5430245e-05  -5.5998054e-05  -5.2609426e-05  -4.0570980e-05  -1.3289443e-04  -2.1315337e-04  -8.4065396e-05  -7.7242199e-05   3.1465865e-05  -3.0236790e-05   1.3039101e-04  -1.1067309e-04   1.4457000e-05  -8.3405612e-05  -1.0336578e-04   3.5908917e-05  -7.7032128e-05  -7.2340044e-06  -2.1154160e-04  -7.6070377e-05   3.0176359e-05  -2.5905674e-05  -9.1499453e-05  -1.2141529e-04   1.0144681e-06  -6.9136840e-05  -1.5121655e-04  -2.1485768e-05   1.8529898e-05  -2.5981637e-05  -3.7107424e-05   3.5263965e-05  -1.2068717e-04   2.4978959e-04   2.5022742e-05   3.5464753e-05  -5.3220228e-05
  -1.8275912e-05  -3.7852740e-05  -8.3446057e-06  -4.7365371e-05  -6.4530133e-05  -4.8424841e-05  -4.6034133e-05  -4.9529888e-05  -2.3285509e-04  -8.7183405e-05  -1.2279321e-04   5.5172321e-05  -6.9224530e-05  -4.0142659e-05  -6.6647750e-05  -5.4802396e-05  -3.9979121e-05  -8.5622014e-05  -8.5954434e-06  -7.0190210e-05  -5.9232818e-05   3.6901558e-05  -2.8650620e-05  -1.8802223e-04  -8.9432462e-05   2.1337626e-05  -5.4730619e-05  -1.1513301e-04  -4.0713014e-05  -7.7241799e-05  -1.8613298e-04  -1.5875127e-04   2.2651875e-06  -1.7410965e-04  -4.8921669e-05  -3.7069611e-05  -1.6143877e-04  -9.3958997e-06  -5.1822582e-05  -1.0742933e-04   3.1519593e-07  -3.0389272e-05  -4.0557716e-06  -2.2065714e-04  -3.8405964e-05  -1.6105204e-04   1.0362815e-04  -1.0097760e-05   1.6944845e-05  -1.0855956e-05
  -2.6363574e-05  -4.2191525e-05   1.0575708e-05  -4.2188800e-05  -7.3232935e-05  -7.2214389e-05  -8.5012070e-05  -8.1992592e-05  -1.9737810e-04  -7.0625239e-05  -8.6368782e-05  -7.1793033e-06  -6.2104373e-05  -1.1203084e-05  -8.4654836e-05  -5.4418575e-05  -4.3125910e-05  -6.9972120e-05  -1.0472321e-04  -5.1070318e-05  -2.1468541e-05   2.4939243e-06   3.9878232e-05  -1.7467765e-04  -8.4217994e-05  -2.1219400e-06  -6.2595107e-05  -1.3669132e-04  -5.0325078e-05  -9.0797090e-05  -1.0878668e-04  -1.1837681e-04   7.4925615e-06  -5.4407792e-05  -3.0240719e-05  -6.9208050e-05  -8.3447827e-05  -1.3735730e-05  -6.1194041e-05  -5.8100562e-05  -2.4671046e-05   5.1752679e-05   9.6132471e-06   2.5605323e-04  -7.2370487e-05  -5.8242058e-05  -2.0804702e-05   2.2965996e-05  -1.5392796e-05  -2.2341879e-05
  -3.9210154e-05  -4.2123782e-05   8.5278843e-06  -4.8945203e-05  -7.0424750e-05  -5.7846122e-05  -6.2086569e-05  -1.0416377e-04  -9.2500108e-05  -7.5244236e-05  -1.1978892e-04  -1.0342433e-05  -5.8050133e-05  -7.7521203e-05  -1.0635069e-04  -4.9374536e-05  -2.5387666e-05  -5.5722005e-05  -1.0184003e-04  -5.2749740e-05  -6.4320200e-05   8.1779574e-05  -5.3989414e-05  -1.2217519e-04  -8.7188644e-05  -1.7680428e-05  -8.4439693e-05  -1.5513889e-04  -5.9870152e-05  -7.9524376e-05   1.8357276e-04  -1.1558066e-04   2.2273976e-05  -1.7252388e-04  -5.4446093e-05  -8.8445726e-05  -1.2241870e-04  -1.4388008e-05  -7.0338792e-05  -6.9922404e-05   1.4191192e-05   7.1848772e-05  -1.5411148e-05  -3.1792885e-04  -1.2760710e-04  -7.3098025e-05  -5.2790336e-05  -2.0896505e-05   2.3898235e-06  -9.3189636e-05
   3.3951706e-06  -3.7176345e-05  -2.8255950e-05  -3.4966823e-05  -6.6881148e-05  -5.6677469e-05  -8.0569276e-05  -1.1581217e-04  -2.7210906e-05  -6.4749467e-05  -9.0784379e-05   1.0520726e-05  -5.5605353e-05  -5.2097967e-05  -6.2618805e-05  -4.2492982e-05  -4.1946467e-05  -8.4773565e-05   1.6669148e-04  -7.8817757e-05  -5.7910205e-05  -2.4774439e-05  -7.2708870e-05   4.1538304e-05  -1.0812438e-04  -7.5994380e-06  -5.9178674e-05  -1.1570099e-04   1.9982108e-05  -8.0420061e-05  -1.6390037e-04  -1.0928318e-04   1.1417318e-04  -1.9572819e-04  -5.4339715e-05  -9.7210948e-05  -1.4912586e-04  -2.9998532e-06  -6.9622438e-05  -1.2579131e-04  -2.4215842e-05   4.6981855e-05  -1.1347212e-05  -5.6579465e-04  -5.5545435e-05  -1.8934967e-04   1.1821593e-04   2.1462432e-05   9.0638429e-07  -4.3327011e-05
  -3.7824153e-05  -5.5112170e-05  -2.0464920e-05  -4.4101864e-05  -3.3374741e-05  -7.0570029e-05  -1.0725104e-04  -1.1514912e-04  -2.4600537e-04  -6.2720741e-05  -9.8058415e-05  -2.0323154e-05  -6.7954155e-05  -4.0937899e-05  -5.0928691e-05  -5.1584124e-05  -4.4671149e-05  -4.8372476e-05  -4.1302125e-04  -7.1389564e-05  -3.3425167e-05   3.3314169e-05  -3.4321438e-05   1.4475198e-04  -1.1474821e-04   7.1422046e-06  -8.6408632e-05  -1.1808545e-04  -4.4130120e-05  -8.2028528e-05  -1.5758512e-04  -6.7761146e-05  -1.0121232e-04  -6.7077999e-05  -4.9238744e-05  -6.2241255e-05  -1.2271202e-04  -1.3520395e-05  -8.3107618e-05  -9.8675970e-05  -1.3705664e-05  -1.3299955e-05   2.6600073e-06   2.1344786e-04  -1.8587954e-05  -8.5336629e-05   1.1664489e-04   1.6941025e-05   6.9927170e-05  -1.2072905e-05
  -5.6926237e-05  -4.9515238e-05  -2.3072571e-05  -3.7927955e-05  -9.2265655e-05  -7.3207579e-05  -8.3166939e-05  -1.4897232e-04  -1.6028908e-04  -7.5722448e-05  -1.3043072e-04  -3.5757774e-05  -6.1518775e-05  -6.9844056e-05  -6.3564148e-05  -5.2124666e-05  -3.5769619e-05  -1.0299668e-04  -7.9365382e-05  -4.1572159e-05  -6.2596759e-05  -6.6535751e-05  -4.3561628e-05  -3.0603518e-05  -9.6272161e-05   3.5844821e-06  -2.8727873e-05  -1.0956938e-04  -3.8876951e-05  -6.6381494e-05   5.4641569e-05  -4.2315119e-06  -2.4454715e-04  -6.9924579e-05  -4.0472467e-05  -8.9738394e-05  -1.2070376e-04  -1.4457981e-05  -7.5130374e-05  -1.3784641e-04   4.7948261e-06   1.0341474e-04   3.2012340e-06  -1.4316359e-04   1.3906133e-04  -1.0653298e-04   2.4119769e-04   7.0228516e-06  -4.7407942e-05  -2.2172746e-05
  -4.1712858e-05  -4.6406290e-05  -5.4941488e-06  -3.1472053e-05  -3.2361186e-05  -6.3768981e-05  -1.0013432e-04  -1.1956230e-04  -3.1174818e-04  -5.4915545e-05  -9.1115005e-05   4.4032637e-05  -7.0456765e-05  -7.7698336e-05  -7.5539450e-05  -4.9970731e-05  -2.7825967e-05  -1.4396798e-04   8.4631502e-05  -6.1476749e-05  -7.6101256e-05   4.3553544e-05  -3.1384661e-05  -2.7012935e-05  -6.4636639e-05   7.4992943e-07  -7.1590046e-05  -8.8396526e-05  -4.5051682e-05  -8.4965483e-05  -1.1894426e-04  -2.3152934e-05  -3.5989848e-05  -2.3574293e-04  -7.3888325e-05  -7.8327474e-05  -1.4883809e-04  -1.6660024e-05  -8.3004357e-05  -9.2101887e-05   6.0189217e-07   2.8141163e-05   1.9007648e-05  -4.4805951e-05  -1.0945838e-04   1.2100779e-04   4.8901165e-05  -1.8976027e-05   2.5699832e-05   5.6658350e-06
  -6.1343264e-05  -4.2843607e-05  -8.6003874e-06  -5.0983454e-05  -7.0654423e-05  -6.3841231e-05  -7.6450990e-05  -8.7543973e-05  -1.7365564e-04  -5.9739898e-05  -1.0667717e-04   1.7421919e-05  -6.2428284e-05  -6.6284592e-05  -7.0602640e-05  -5.6908571e-05  -2.9406881e-05  -5.8809062e-05   2.3438380e-04  -4.7635527e-05  -3.8773836e-05  -1.4394986e-05  -6.2127401e-05   1.2523908e-04  -1.1645028e-04  -2.9329863e-06  -9.5557778e-05  -1.4772473e-04  -3.7388410e-05  -9.1207614e-05  -1.0690020e-04  -1.9997888e-05   6.2242885e-05  -1.4748686e-04  -5.9688060e-05  -5.8550941e-05  -1.0773841e-04  -5.4895895e-07  -7.1511080e-05  -7.0386319e-05   7.1226799e-07   6.5330845e-05   8.4461890e-06  -1.8915652e-04   2.2137341e-04   1.7188872e-04   1.8703287e-04   9.5442792e-06  -1.1684112e-05  -1.0412534e-04
  -4.7537898e-05  -5.2454987e-05  -1.9110987e-05  -4.5546414e-05  -9.0916503e-05  -5.6827848e-05  -9.8860008e-05  -1.0824480e-04  -2.7174185e-04  -6.8033718e-05  -1.2084693e-04  -4.7935864e-05  -7.0614842e-05  -9.1948699e-05  -8.3759624e-05  -6.7215267e-05  -3.6216195e-05  -3.5521272e-05  -3.2156499e-04  -3.9324626e-05  -6.1212239e-05  -1.9870140e-05  -5.0155991e-06  -2.8240247e-05  -8.6264205e-05   1.3356296e-06  -5.7169626e-05  -1.2397104e-04  -1.0240548e-04  -9.2898830e-05  -9.9684610e-07  -1.0211069e-04  -3.9584542e-05  -4.4405738e-06  -4.8268554e-05   1.7742759e-05  -1.2323289e-04  -2.3087901e-05  -7.4240554e-05  -7.6064040e-05   7.1873724e-06   9.1938986e-05   1.6292364e-05  -1.9294917e-04  -1.1600101e-04   9.2338314e-06   9.5272269e-05   6.1876657e-05  -9.3830626e-05  -5.2099685e-06
  -6.9399932e-05  -5.7347643e-05  -1.8390256e-05  -4.7889895e-05  -9.3914525e-05  -8.3128325e-05  -9.3822317e-05  -2.8602288e-05  -2.3372206e-04  -5.5410808e-05  -7.9990896e-05   2.8857074e-05  -6.3102445e-05  -8.2365972e-05  -1.1047774e-04  -5.4688117e-05  -4.1621330e-05  -1.0660326e-04   9.7677592e-05  -6.8520618e-05  -8.8009983e-05   2.3724802e-05  -2.0412375e-05   1.1651850e-04  -1.1060157e-04  -1.8350613e-05  -9.0330519e-05  -1.3982752e-04  -6.8239315e-05  -9.9521756e-05  -8.1431550e-05  -8.6855769e-05  -2.5386093e-04  -4.7679921e-05  -5.8268397e-05  -8.0409329e-05  -1.3762199e-04  -2.7197768e-05  -8.9307905e-05  -1.0615476e-04  -1.2274626e-05   4.3500917e-05  -8.6526343e-06  -4.6701763e-05  -1.9842759e-05   3.9136838e-05   1.3288244e-04  -1.4514260e-05  -3.3832610e-05  -5.8155223e-05
  -4.4261258e-05  -6.1717234e-05  -2.4560974e-05  -4.4403107e-05  -4.7546022e-05  -8.0209000e-05  -9.9538061e-05  -1.3496532e-04  -1.9384756e-04  -6.2249033e-05  -1.2042446e-04  -1.4370349e-05  -8.2650760e-05  -9.4638934e-05  -7.0848429e-05  -6.4970540e-05  -2.8713683e-05  -8.3948398e-05  -1.6325113e-04  -5.2764983e-05  -2.5941470e-05  -4.5028919e-05  -6.9289730e-05  -1.3182603e-04  -9.4541247e-05  -5.1501520e-06  -1.1421245e-04  -1.8050900e-04  -4.1477291e-05  -8.6278262e-05  -8.9577297e-06  -1.2375612e-05  -2.7357205e-04  -2.5996918e-05  -7.3925810e-05  -6.6023880e-05  -8.5873318e-05  -2.0119936e-05  -8.9893743e-05  -1.0306451e-04  -1.5210068e-05   1.4503820e-04   1.8504319e-05   5.2722247e-04  -7.3802466e-06   1.6670402e-04   4.0946361e-05  -6.3657549e-06  -4.7226971e-05   4.4222637e-05
  -4.7234706e-05  -6.2348830e-05  -2.0487847e-05  -3.7098918e-05  -1.0950954e-04  -9.7464508e-05  -1.1101979e-04  -4.7316516e-05  -2.4067257e-04  -6.2938925e-05  -1.4522628e-04  -3.6724476e-05  -8.1229613e-05  -7.2196090e-05  -6.9259928e-05  -6.4314219e-05  -3.6279278e-05  -9.3333641e-05  -1.7948264e-04  -4.2960492e-05  -5.4725831e-05  -6.1362821e-06  -4.3091924e-05   7.6403099e-05  -9.4460796e-05   1.1832275e-05  -6.7818866e-05  -1.4322693e-04  -5.6359313e-05  -8.8396562e-05   1.7840550e-05  -1.0842652e-04   1.2052502e-04  -8.3557468e-05  -6.7217727e-05  -7.9492776e-05  -9.9056480e-05  -2.7324311e-05  -7.8541780e-05  -6.0266681e-05  -3.0147185e-06   4.1651911e-05  -2.2850857e-06  -4.0032261e-04  -3.2676930e-06  -1.3264848e-04   1.1860141e-04   4.2636249e-05   5.9436702e-06  -1.0388715e-04
  -6.0556409e-05  -6.1458435e-05   4.1360490e-06  -5.6389523e-05  -6.7278903e-05  -7.1239127e-05  -1.0867547e-04  -5.1705778e-05  -1.3270520e-04  -5.4649001e-05  -1.0928715e-04   2.7979206e-05  -7.3186697e-05  -9.1854767e-05  -9.3908791e-05  -5.8774323e-05  -4.1452837e-05  -1.4328134e-04  -2.1642324e-04  -8.9398280e-05  -7.2277195e-05   4.9791738e-06  -8.2556762e-05   9.4415518e-05  -1.2040463e-04   3.1086285e-05  -1.0365889e-04  -1.6449820e-04  -5.7213081e-05  -1.0653974e-04  -3.5377936e-05   7.4046525e-06   9.3444003e-05  -9.5854295e-05  -6.2289211e-05  -1.0189636e-04  -6.9614871e-05  -2.9564793e-05  -8.7800479e-05  -9.8246346e-05  -1.5111028e-05   4.2144766e-05   3.3740962e-05  -1.3863525e-04  -2.1304678e-04  -2.4816504e-06   3.2711620e-04  -1.1330710e-05   5.9435974e-06  -5.9005724e-05
  -4.2633867e-05  -6.2588661e-05  -4.6559951e-05  -4.4686629e-05  -6.5053428e-05  -9.0277856e-05  -1.2186206e-04  -1.3200520e-04  -2.5005749e-04  -7.0636801e-05  -1.2862730e-04  -2.8205906e-05  -6.6876019e-05  -8.9249144e-05  -1.0346506e-04  -4.9750939e-05  -3.8462593e-05  -7.7715507e-05  -1.9446410e-04  -6.6622168e-05  -7.7160345e-05   1.7590579e-05  -8.7199718e-05  -3.9750632e-04  -1.7842253e-04  -3.4595032e-05  -5.1429342e-05  -1.1762994e-04  -7.1263843e-05  -1.0675364e-04  -2.2173930e-04   5.1234998e-05  -5.7288780e-05  -1.5065675e-04  -3.8507864e-05  -7.2263654e-05  -1.1985732e-04  -2.1861639e-05  -9.7355827e-05  -1.0849696e-04  -1.1032524e-05   8.8866276e-05   2.5253879e-05  -1.0849765e-04  -3.8070713e-05  -1.1065742e-04   4.5935835e-06   1.5990336e-05  -9.9543198e-05  -5.1028001e-05
  -5.1273160e-05  -6.2720341e-05  -3.1682222e-05  -6.3333471e-05  -2.7239275e-05  -8.1843049e-05  -1.1472634e-04  -8.8877554e-05  -1.8536980e-04  -6.5807209e-05  -1.3934681e-04   2.8385111e-05  -8.6609733e-05  -6.4512707e-05  -6.3985783e-05  -7.2831979e-05  -5.1416704e-05  -1.4479931e-04  -8.8023888e-05  -7.6659926e-05  -5.9542257e-05  -2.0215572e-05  -1.0483137e-04  -2.9729893e-06  -1.0607470e-04  -2.4778432e-05  -7.9061931e-05  -1.1347830e-04  -5.5746732e-05  -9.5628828e-05  -2.0222502e-07   1.1872060e-05  -2.7396082e-04  -9.4393756e-05  -5.6645902e-05  -7.1722177e-05  -1.2903332e-04   2.2229258e-06  -9.5739713e-05  -8.6855158e-05  -2.6587742e-05   1.2769608e-04  -1.3559571e-06   1.6636822e-04  -1.1709116e-04  -1.9571408e-04   1.4042587e-04  -4.2292551e-05  -9.3064387e-05  -7.1192204e-05
  -5.0730647e-05  -7.1985363e-05  -5.8093110e-06  -6.3618922e-05  -1.9134681e-05  -8.9501198e-05  -8.7596643e-05  -9.7779091e-05  -3.5544802e-04  -4.5525056e-05  -1.2075269e-04   3.7924259e-05  -8.5587315e-05  -1.0399114e-04  -8.0114587e-05  -5.5682889e-05  -5.3425076e-05  -8.8795343e-05  -1.0788362e-04  -9.6649703e-05  -2.1614524e-05   3.9779562e-07  -6.1642408e-05   1.1159643e-04  -1.1703060e-04  -2.5645716e-06  -5.8267349e-05  -1.3129385e-04  -7.6818971e-05  -1.0433771e-04  -2.3315542e-05  -4.4792072e-05   6.7879686e-05   4.2314205e-05  -7.4087475e-05  -6.6487890e-05  -1.2603171e-04  -3.2585263e-05  -9.0829133e-05  -1.4688799e-04  -2.3315977e-05   8.1398714e-05   3.2615699e-05  -5.3065265e-05   5.4304965e-06   6.4019376e-05   2.3809371e-04   2.8584314e-05  -1.2280050e-04  -9.9123718e-05
  -6.1745515e-05  -5.9934304e-05  -4.6266730e-05  -6.0465060e-05  -7.6183154e-05  -9.7231619e-05  -7.1540147e-05  -8.6173939e-05  -2.7212780e-04  -6.4071137e-05  -1.2151767e-04  -2.8973995e-05  -6.9054833e-05  -9.5225128e-05  -7.8480567e-05  -6.1981955e-05  -4.1403739e-05  -1.4081468e-04   4.3217595e-05  -6.0688559e-05  -8.5473250e-05  -5.2203071e-05  -9.8236080e-05   1.2977992e-04  -1.2442294e-04   1.5558388e-05  -5.1450188e-05  -1.5025953e-04  -5.0566698e-05  -9.8687553e-05   4.4509288e-05   2.6105012e-05  -2.7577595e-05  -1.4015175e-04  -6.6004912e-05  -6.1569641e-05  -1.2869285e-04  -2.6078927e-05  -8.3880412e-05  -1.1408147e-04  -3.3469543e-05   6.1459061e-05  -4.1166650e-06   1.2646177e-04   4.4733548e-05   1.6134059e-05  -5.5137894e-05   4.3492946e-05  -2.7320440e-05  -5.6978633e-06
  -6.3789266e-05  -6.0222901e-05  -3.3448021e-05  -5.5120865e-05  -6.3782361e-05  -8.1049860e-05  -8.7167929e-05  -7.1776674e-05  -2.0407229e-04  -5.9940812e-05  -1.4448256e-04  -6.3121428e-05  -7.2990086e-05  -9.5588031e-05  -9.6357719e-05  -6.8849877e-05  -5.6912340e-05  -6.3751788e-05  -2.6467824e-04  -5.7247518e-05  -5.6714653e-05  -5.6564550e-05  -5.2839670e-05  -1.3364694e-04  -1.9945366e-04   1.8453013e-05  -9.3155031e-05  -1.5030825e-04  -3.7340447e-05  -8.9358917e-05  -6.9760958e-05   1.4219391e-05   1.5585138e-05  -1.4232261e-04  -6.0691727e-05  -7.0759590e-05  -1.0835028e-04  -1.5320496e-05  -8.5949301e-05  -9.2425442e-05  -1.5766738e-05   6.0415881e-05   1.4010549e-05  -6.7051100e-05  -7.7077777e-05   1.4977338e-04  -1.3215678e-06   5.8383386e-05   1.3076628e-05  -8.9768306e-05
  -5.4294167e-05  -6.2337400e-05   7.4139875e-06  -5.8409601e-05  -5.8973983e-05  -1.0190241e-04  -1.1031740e-04  -1.2212539e-04  -1.4051479e-04  -4.9351445e-05  -1.1247399e-04   2.8410044e-05  -8.3509054e-05  -1.1954304e-04  -1.0137613e-04  -5.5770470e-05  -4.4693297e-05  -8.9253073e-05  -3.5341957e-04  -5.1320640e-05  -3.6063437e-05   4.0126110e-05  -4.1823980e-05  -2.2848959e-04  -6.9175629e-05  -8.4393459e-06  -8.4195490e-05  -1.6349100e-04  -8.6592139e-05  -1.0031727e-04   3.3051192e-06  -1.1226159e-04   4.8741789e-05  -7.2231262e-05  -7.5440053e-05  -7.0999507e-05  -1.4049484e-04  -2.0083991e-05  -8.8644207e-05  -1.3017407e-04  -2.1587759e-05   1.2427327e-04  -1.7860775e-06   1.4518677e-04  -9.3031213e-06  -1.4626427e-04  -4.8183578e-05   5.9186623e-05  -5.3159119e-06  -4.1546311e-05
  -6.6188564e-05  -7.0713773e-05  -1.9682964e-05  -5.6241839e-05  -6.9445596e-05  -8.1465470e-05  -9.9989833e-05  -1.2039633e-04  -3.4919329e-04  -5.0880797e-05  -1.4408281e-04   8.4274034e-06  -9.3029921e-05  -1.2065605e-04  -9.2247144e-05  -7.3199153e-05  -3.8685874e-05  -1.2606231e-04   1.5791481e-04  -2.2587999e-05  -6.8153306e-05  -9.8088849e-06  -4.4245720e-05  -6.9570728e-05  -8.6736487e-05  -4.0099098e-05  -7.4016534e-05  -1.5640608e-04  -1.1892410e-04  -1.0285403e-04  -1.2194725e-04  -1.1902602e-04   1.3110760e-05  -6.9912057e-05  -3.7482092e-05  -1.0775395e-04  -1.2248916e-04  -2.0556110e-05  -8.7885724e-05  -8.6787826e-05  -1.7772129e-05   8.8390334e-05   5.7367538e-06  -6.1446488e-05  -3.1983254e-06  -7.7907125e-06   1.8443118e-04   7.5677541e-05   6.1895871e-06  -8.6603504e-05
  -5.7725149e-05  -6.9725407e-05  -2.0380980e-06  -5.6232911e-05  -1.7130234e-05  -9.5331496e-05  -1.0139049e-04  -4.9818973e-05  -2.3192322e-04  -2.7988688e-05  -1.0164874e-04  -5.5977098e-06  -8.5647676e-05  -7.8945122e-05  -9.2893009e-05  -5.2782711e-05  -3.8589762e-05  -6.0433518e-05  -2.5633321e-04  -6.9845250e-05  -8.6151034e-05   3.5265493e-05  -6.7228350e-05   2.7330447e-04  -1.0493390e-04   2.2485952e-05  -9.0033776e-05  -1.6617011e-04  -9.4930539e-05  -1.0724748e-04   4.7422011e-05   8.1613280e-06  -1.8814194e-04   4.3187050e-05  -4.5333411e-05  -1.2932057e-04  -1.4016840e-04  -1.8347897e-05  -9.9733683e-05  -1.0568505e-04  -3.1016349e-05   5.7665598e-05   8.6296077e-06   1.1992177e-04   1.1923347e-04  -8.3909275e-05   1.8870398e-04   1.3805706e-05  -7.5217002e-05  -8.5443950e-05
  -4.1351253e-05  -7.0320355e-05  -2.4095498e-05  -5.5810244e-05  -1.1081259e-04  -6.6456996e-05  -9.3247952e-05  -7.2623181e-05  -2.1422131e-04  -3.4347151e-05  -1.0124558e-04   1.4188242e-05  -9.0055371e-05  -1.1554114e-04  -8.8706707e-05  -5.6575285e-05  -3.0457191e-05  -7.5595344e-05  -2.7334882e-04  -8.5829481e-05  -1.0893798e-04  -4.8231657e-05  -8.9804511e-05   1.3590300e-05  -7.4373951e-05   1.1197122e-05  -7.9403384e-05  -1.3199895e-04  -5.6550482e-05  -9.8484517e-05  -7.9945625e-05  -1.0647131e-04   1.7279124e-05  -1.2178479e-04  -6.7124682e-05  -5.5459070e-05  -1.7012995e-04  -1.7395492e-05  -9.6168456e-05  -8.2152968e-05  -1.6071002e-05   7.8306337e-05   1.6295417e-05  -2.6618662e-05  -1.5508720e-04   2.7967535e-05  -5.5445257e-06   3.3095064e-05   6.3618434e-05  -7.3672672e-05
  -4.2067619e-05  -6.7037174e-05  -3.8387490e-05  -4.8007951e-05  -7.1895927e-05  -9.2691829e-05  -1.2181080e-04  -1.2900119e-04  -9.8820536e-05  -2.6983642e-05  -1.1666217e-04  -5.7016919e-06  -8.8477507e-05  -1.0285398e-04  -7.7767560e-05  -4.8408288e-05  -4.8541307e-05  -5.9897073e-05  -3.6669840e-04  -7.5476768e-05  -6.7066350e-05  -1.8884359e-05  -7.2897681e-05   3.2496054e-04  -7.1758950e-05   3.8857900e-07  -8.6090186e-05  -1.2816444e-04  -6.3904932e-05  -1.0710083e-04  -1.0121386e-04   1.0762864e-06  -3.8243452e-05  -2.2147740e-04  -8.2634688e-05  -1.1358207e-04  -6.7042209e-05  -2.5488402e-05  -8.9358531e-05  -1.1608210e-04  -2.1615930e-05   3.2703632e-05   2.8412302e-05  -4.4573942e-05  -1.0593404e-04   6.8502784e-05   8.6408927e-06  -2.8266717e-05   1.3912063e-05  -4.7111611e-05
  -3.7597019e-05  -6.6589055e-05  -2.4566018e-05  -6.8150774e-05  -1.0982305e-04  -9.4091047e-05  -1.1257064e-04  -1.4663044e-04  -3.1114989e-05  -1.4102848e-05  -8.4507024e-05   3.1423773e-05  -9.7964614e-05  -9.7282624e-05  -7.4090822e-05  -6.4148699e-05  -4.7314392e-05  -1.3890734e-04  -2.0423239e-04  -7.1772287e-05  -7.4126699e-05   8.9535041e-07  -6.3211490e-05  -2.0384005e-05  -1.2463481e-04  -8.5896318e-06  -8.1312384e-05  -1.4676221e-04  -1.4118053e-04  -1.0617335e-04   1.6091592e-04  -6.8619207e-05  -7.1242830e-05  -7.3676747e-05  -7.6848621e-05  -6.8752815e-05  -1.8136014e-04  -1.3763261e-05  -8.9968700e-05  -9.7323253e-05  -3.4122892e-05  -2.1262378e-05  -7.8665853e-06  -1.8335786e-04  -1.6254910e-06  -5.6429642e-05  -5.5148110e-05  -1.8921242e-05  -6.2160434e-05  -1.5577531e-04
  -7.1300849e-05  -7.8056190e-05  -4.7862690e-05  -7.2608462e-05  -8.5152104e-05  -1.2599646e-04  -9.0072768e-05  -7.6003540e-05  -1.9122634e-04  -2.9241282e-05  -1.0298201e-04  -2.1735043e-06  -7.6278549e-05  -1.0784265e-04  -9.2188580e-05  -6.2310159e-05  -4.3026233e-05  -8.2221486e-05  -1.1174050e-04  -8.4084342e-05  -6.2011255e-05  -8.0773469e-05  -6.9766604e-05   6.2195642e-05  -1.2255808e-04  -1.1022600e-05  -9.4766045e-05  -1.6885904e-04  -1.3229922e-04  -1.0842297e-04  -2.0064728e-04  -1.5716566e-04  -1.9614084e-04   4.2845372e-06  -7.4858464e-05  -5.6209665e-05  -1.6843922e-04  -3.6137502e-05  -9.7890945e-05  -1.1109021e-04  -3.6158599e-05  -2.5611007e-06  -6.5684744e-06   1.5532560e-04  -1.8324536e-05  -2.3203503e-04   2.3081466e-04   8.3834821e-05  -1.1701130e-04  -1.2195210e-04
  -5.0029226e-05  -7.3737923e-05  -3.2351054e-05  -6.3261330e-05  -8.3412211e-05  -8.0532496e-05  -1.4114530e-04  -1.0571586e-04  -3.2752636e-04  -2.6780297e-05  -1.1969550e-04   6.1294908e-05  -9.4496099e-05  -9.0544949e-05  -5.7744393e-05  -6.0369228e-05  -3.7015401e-05  -1.1634923e-04  -2.5336436e-04  -5.5300581e-05  -7.8924699e-05  -2.6328773e-05  -1.4332488e-05  -1.0383472e-04  -1.7277460e-04  -1.9875555e-05  -9.0347276e-05  -1.4702593e-04  -5.3718537e-05  -1.1249506e-04  -5.8504000e-05   9.3125709e-05  -1.8825501e-04  -1.0348821e-04  -6.4451757e-05  -6.5166467e-05  -1.8520324e-04  -2.7620305e-05  -8.6842454e-05  -1.2506483e-04  -3.4428915e-05  -2.6257194e-05   8.0013979e-06  -3.0910090e-04   1.2317256e-04  -3.0176216e-05   8.0186845e-05   1.1664039e-05  -1.6401905e-04  -1.9214928e-04
  -6.6830973e-05  -8.3607520e-05  -3.4355719e-05  -5.9176040e-05  -1.1335549e-04  -1.2286649e-04  -1.3936441e-04  -1.4776456e-04  -1.0104201e-04  -1.4546999e-05  -1.2700458e-04   4.3674052e-05  -7.8560501e-05  -1.2789025e-04  -3.0420331e-05  -5.1623258e-05  -4.7682446e-05  -6.5482061e-05  -6.1593470e-05  -1.1697469e-04  -7.5786447e-05  -2.0049283e-05  -7.7703196e-05   2.6912088e-04  -8.1457103e-05  -1.3189998e-06  -1.3559130e-04  -1.6304415e-04  -7.7802491e-05  -1.1276642e-04  -4.3188811e-05  -1.4965091e-04  -8.0674596e-05  -1.4358270e-04  -9.4718831e-05  -7.2017698e-05  -1.4806588e-04  -3.5145677e-05  -1.0707503e-04  -1.5493829e-04  -4.8892198e-05   3.2565265e-05  -1.6406761e-05   5.5250595e-05  -6.6168555e-05  -1.9390174e-04   1.3980764e-04   3.9234465e-06  -1.0406032e-04  -1.1198442e-04
  -9.8203338e-05  -8.6639418e-05  -3.7775717e-05  -7.0237249e-05  -7.3614188e-05  -1.1803288e-04  -1.2484244e-04  -1.1017431e-04  -2.2148641e-04  -3.6607813e-05  -1.2492998e-04   4.2272961e-05  -9.2096794e-05  -1.2423952e-04  -9.1694237e-05  -7.0919647e-05  -5.3641797e-05  -1.2887457e-04  -1.6635984e-04  -8.1695500e-05  -1.2592787e-04  -6.3644096e-05  -9.0879730e-05   1.7518773e-04  -1.5865233e-04  -6.4971478e-05  -1.5270994e-04  -1.7364917e-04  -9.4797091e-05  -1.1042495e-04   1.2468866e-05  -7.2157425e-05  -2.0204007e-04  -1.7665644e-04  -7.4332187e-05  -7.9582751e-05  -1.5343179e-04  -3.2857104e-05  -8.6999731e-05  -1.5852421e-04  -3.6305202e-05  -5.2129966e-05  -6.2495888e-06  -3.8889312e-04   1.2659172e-05  -3.5486723e-06   8.6625252e-05   7.8219513e-05  -1.2305776e-04  -9.9908168e-05
  -9.2021801e-05  -7.8164398e-05  -3.6646437e-05  -6.6257337e-05  -5.2806932e-05  -9.8270371e-05  -1.2819769e-04  -1.8804078e-04  -2.0994977e-04  -2.8305456e-05  -1.1053842e-04  -1.5715437e-05  -8.3025065e-05  -1.0535501e-04  -1.0134243e-04  -6.9964015e-05  -4.6646426e-05  -1.5539749e-04  -9.5559153e-05  -8.6767875e-05  -6.6743240e-05  -5.6560479e-05  -1.1155024e-04  -5.6947207e-05  -9.9474280e-05  -1.9487814e-05  -9.2337119e-05  -1.5753262e-04  -9.1194343e-05  -1.1807701e-04  -1.0495810e-04  -1.9619377e-04  -3.4547786e-04  -1.0691935e-04  -9.3579016e-05  -1.2909151e-04  -1.4514313e-04  -1.6773345e-05  -1.0020885e-04  -1.3057971e-04  -5.7300509e-05  -8.6663553e-05   1.9568790e-05  -2.1011732e-04   1.5634179e-05  -6.6385714e-05  -9.5445212e-06   9.4409530e-05  -1.8177237e-04  -1.6396785e-04
  -9.5933821e-05  -9.0151414e-05  -5.7854159e-05  -7.9149744e-05  -6.6976158e-05  -8.4000043e-05  -1.4161710e-04  -1.1858925e-04  -3.0435447e-04  -1.4314720e-05  -1.1758389e-04  -6.5121731e-06  -9.0310081e-05  -1.0376178e-04  -7.3517600e-05  -5.6925583e-05  -4.7281246e-05  -1.1035123e-04  -9.5312382e-05  -1.1569628e-04  -8.1557948e-05  -5.4480547e-06  -9.1666137e-05  -1.6258651e-04  -9.9417273e-05  -3.7085567e-05  -1.0821264e-04  -1.6020371e-04  -1.0177367e-04  -1.1477521e-04  -7.1085313e-05  -7.1623297e-05  -2.8367850e-04  -1.5300352e-04  -6.7864268e-05  -1.1616206e-04  -1.6433644e-04  -4.9332881e-05  -1.0092296e-04  -1.2068877e-04  -5.0593408e-05  -1.2364649e-04   4.9589448e-06  -2.7066964e-04  -3.5359393e-05  -5.4426295e-05   5.8374986e-05   2.2838072e-05  -9.6176031e-05  -1.5407977e-04
  -9.1974398e-05  -9.7734352e-05  -5.0758412e-05  -7.7700046e-05  -1.2371439e-04  -1.1969041e-04  -1.1786235e-04  -1.5288733e-04  -2.2807729e-04  -3.8694026e-05  -1.4273905e-04   3.3454686e-05  -9.7236632e-05  -1.1093688e-04  -1.0815751e-04  -7.2422125e-05  -4.6159465e-05  -1.7560960e-04  -1.7077976e-04  -1.1083842e-04  -7.6977369e-05  -5.1401443e-05  -7.1304872e-05  -2.9136054e-04  -1.2459194e-04  -4.8003869e-05  -1.3992819e-04  -1.4357944e-04  -3.8687078e-05  -1.1926678e-04  -1.4909112e-04  -1.5889613e-04  -1.0400487e-04  -1.2765905e-04  -8.4091684e-05  -1.2974878e-04  -1.6925677e-04  -2.3524628e-05  -1.0279954e-04  -1.1627095e-04  -4.2447973e-05  -5.7030931e-05   7.3885585e-06   1.1267725e-04   1.0188278e-04   1.6479861e-04   5.6735862e-05  -1.1622218e-05  -1.0665707e-04  -1.4269185e-04
  -9.4670344e-05  -8.7653818e-05  -4.6301695e-05  -8.3191648e-05  -5.9352020e-05  -1.0307209e-04  -9.9991834e-05  -2.8865348e-05  -2.2642597e-04  -2.3526582e-05  -1.0235119e-04   2.9170598e-05  -9.2433991e-05  -1.1997107e-04  -9.6089090e-05  -6.4490174e-05  -5.0247563e-05  -1.3938479e-04  -3.9916657e-04  -1.1065845e-04  -7.0864451e-05  -1.2101690e-05  -6.1753526e-05  -6.6673434e-05  -9.2414572e-05  -3.7456157e-05  -1.1419388e-04  -1.3259359e-04  -1.2648266e-04  -1.2074974e-04  -3.6806669e-05   4.1644134e-06  -1.2059204e-04  -1.6942328e-04  -8.7497829e-05  -1.1923914e-04  -1.5173889e-04  -3.2081891e-05  -9.3872099e-05  -1.6195276e-04  -6.6293513e-05  -1.2623481e-04  -6.4451833e-06   4.4715118e-05  -1.5341162e-04  -9.4479350e-05   4.9921404e-05   7.6219576e-06  -9.0545320e-05  -4.8400863e-05
  -9.7989810e-05  -8.9265595e-05  -4.9810413e-05  -6.8694855e-05  -9.7452292e-05  -9.0565089e-05  -1.5747655e-04  -1.8387126e-04  -2.7060937e-04  -2.1023090e-05  -1.1021396e-04  -1.6572209e-05  -7.5839220e-05  -1.3602944e-04  -3.8226764e-05  -5.5739241e-05  -5.2250303e-05  -1.5851345e-04  -3.0137840e-04  -8.3631625e-05  -1.2152580e-04  -9.4754592e-05  -8.3017156e-05   2.7684620e-04  -1.2612759e-04  -1.6504584e-05  -1.2016407e-04  -1.9717222e-04  -5.7274454e-05  -1.1332395e-04  -2.9329929e-04  -1.3095926e-04  -2.5301959e-04  -2.6634483e-05  -8.9203910e-05  -1.1141188e-04  -1.4185590e-04  -3.6762402e-05  -9.8519013e-05  -1.2167545e-04  -4.6252597e-05  -6.2053718e-05  -2.4253970e-05  -2.5140322e-04  -1.3177769e-04  -1.2820926e-04   7.5214550e-05  -4.0626972e-05  -1.4680368e-04  -1.4914482e-04
  -9.9740566e-05  -8.1648868e-05  -5.5818306e-05  -8.5500251e-05  -6.0863280e-05  -9.7357210e-05  -1.4395540e-04  -1.3531471e-04  -1.6229901e-04  -3.1147309e-05  -1.2512112e-04   9.8369883e-06  -8.8585148e-05  -1.2173071e-04  -1.2303474e-04  -7.2709241e-05  -4.0700354e-05  -1.0402081e-04  -3.6732241e-04  -7.5912714e-05  -1.0146894e-04  -4.5529247e-05  -8.0842685e-05  -1.7606051e-05  -1.0819371e-04  -3.5816000e-05  -1.1763861e-04  -1.0915935e-04  -3.9723873e-05  -1.0716476e-04  -1.4168469e-04  -2.0006270e-04   8.0977825e-06  -1.5256854e-04  -7.9407349e-05  -9.5272029e-05  -1.4868657e-04  -3.6611102e-05  -1.1369659e-04  -1.7475453e-04  -4.8319453e-05   3.5605157e-05  -2.7339562e-05  -1.6857964e-06  -3.1767653e-05  -1.3324688e-04  -1.4325306e-04  -4.5549812e-05  -7.9405640e-05  -1.4433196e-04
  -1.0038023e-04  -8.3971609e-05  -5.4705444e-05  -7.8592711e-05  -5.9335980e-05  -1.0540218e-04  -1.5881794e-04  -1.9644425e-04  -3.3557319e-04  -1.5394045e-05  -9.4747018e-05   6.8201234e-06  -7.7794895e-05  -1.1681497e-04  -1.0297340e-04  -6.4530126e-05  -3.9256913e-05  -1.1819267e-04  -2.4857468e-04  -1.0488959e-04  -7.0243819e-05   5.8043697e-05  -5.7742156e-05  -5.6360735e-05  -8.1307830e-05  -3.4391414e-05  -8.3535175e-05  -2.0724272e-04  -1.0950257e-04  -1.2338122e-04  -1.6056222e-04  -1.5381744e-04  -2.9501200e-04   5.9210984e-06  -9.1521440e-05  -1.7922663e-04  -1.4894399e-04  -1.6023265e-05  -9.9943310e-05  -1.5217820e-04  -3.9430350e-05  -6.1798451e-06   1.2327536e-05   1.1940025e-04  -4.7239795e-05   1.2934300e-04   4.0792205e-05  -2.0098945e-05  -1.1954169e-04  -8.4600477e-05
  -1.0899020e-04  -9.5647600e-05  -8.5024825e-05  -8.2115956e-05  -1.3064501e-04  -1.1171409e-04  -9.4988682e-05  -1.3006454e-04  -2.4794787e-04  -2.9200268e-05  -1.0777742e-04   1.5686133e-05  -9.2308903e-05  -1.3013554e-04  -7.0921662e-05  -7.5592339e-05  -3.9129372e-05  -1.4725172e-04  -2.0891835e-04  -7.8664969e-05  -8.5699554e-05  -2.2073777e-06  -6.9153182e-05  -1.1898760e-04  -1.7784654e-04  -1.2664226e-05  -1.1290608e-04  -1.3410999e-04  -5.3928943e-05  -1.3230913e-04   3.7441743e-05  -4.7750280e-05  -2.9462941e-05  -1.3022225e-04  -7.5373282e-05  -1.2916244e-04  -1.9861160e-04  -3.8522357e-05  -9.9375444e-05  -1.2839885e-04  -4.0106283e-05  -5.5146866e-05  -2.6037524e-05  -1.9765359e-04  -8.9334164e-05  -2.9734542e-04   3.2836862e-05   1.4566416e-05  -1.3879692e-04  -1.0736479e-04
  -1.1314503e-04  -9.7826785e-05  -5.6433713e-05  -8.9725843e-05  -7.5537369e-05  -9.4980031e-05  -1.0543855e-04  -1.3399011e-04  -1.2147659e-04  -2.5301979e-05  -1.3983926e-04   1.7240300e-05  -8.9153575e-05  -1.2072585e-04  -1.1666852e-04  -7.0901508e-05  -5.9546470e-05  -1.0910378e-04  -4.1196088e-04  -7.2912881e-05  -6.1485298e-05  -6.7014858e-05  -9.8530159e-05  -3.6080499e-04  -9.9431607e-05  -6.0859576e-05  -1.2227683e-04  -1.3906266e-04  -5.3115491e-05  -1.1666094e-04   1.3136194e-05  -7.7848839e-05  -1.3606308e-04  -1.2543063e-04  -6.9766393e-05  -1.5426333e-04  -1.9907669e-04  -4.9788170e-05  -1.0868149e-04  -1.4263138e-04  -4.4486856e-05   7.9189551e-05   7.4528762e-06  -3.0441990e-04  -1.3526836e-04  -1.2091642e-04   6.5998662e-05  -5.8444959e-05  -2.1386707e-04  -1.7076939e-04
  -1.1187188e-04  -8.2652616e-05  -5.4918255e-05  -8.0720667e-05  -9.0351474e-05  -1.1789134e-04  -1.5500745e-04  -1.0566987e-04   9.1605267e-05  -9.8498758e-06  -8.4666921e-05   2.2750521e-05  -8.3469378e-05  -1.3334896e-04  -8.5116379e-05  -7.1541668e-05  -4.7057150e-05  -9.1008267e-05   9.4986157e-05  -8.4457912e-05  -7.1574526e-05  -1.1727885e-04  -3.0628245e-05  -1.3921960e-04  -1.0923106e-04  -2.9141042e-05  -1.3139544e-04  -1.5826635e-04  -7.1301110e-05  -1.1605657e-04   3.3923676e-05  -1.0507640e-04  -2.7304972e-04  -1.0636997e-04  -8.9989677e-05  -1.3730659e-04  -2.1638587e-04  -3.4026933e-05  -1.0772113e-04  -1.2242234e-04  -3.9818846e-05   6.8887261e-05  -9.2793607e-06   1.7697296e-04  -1.0414841e-04  -8.7648659e-05  -9.8466444e-05  -8.3418972e-06  -1.3302967e-04  -7.5418640e-05
  -1.2707857e-04  -1.0815207e-04  -6.9244852e-05  -7.7193617e-05  -1.1604225e-04  -1.2977395e-04  -1.4381642e-04  -1.2906564e-04  -5.0096074e-05  -1.4433562e-05  -1.2429981e-04   5.3978911e-05  -8.2460785e-05  -1.3963392e-04  -1.0877096e-04  -7.4621406e-05  -4.9902392e-05  -1.1586845e-04  -8.7520086e-05  -1.0673441e-04  -5.1055558e-05  -3.5063767e-05  -2.4820210e-05   3.7256948e-05  -1.0341901e-04  -5.6709796e-05  -9.5067429e-05  -1.6254876e-04  -5.3051717e-05  -1.2029908e-04  -1.8042422e-04  -1.0039261e-04  -2.3547887e-04  -3.7080979e-05  -6.8486916e-05  -7.2551906e-05  -1.5677424e-04  -4.4839653e-05  -1.1622221e-04  -1.5691965e-04  -3.8649421e-05   2.3359551e-06  -2.6831520e-05  -6.2110026e-05   7.4276315e-05  -2.6671035e-04  -5.2672520e-05   4.7957084e-05  -1.0812100e-04  -2.0242689e-04
  -1.0099119e-04  -9.0153044e-05  -6.7428402e-05  -7.4743133e-05  -8.4781263e-05  -1.1858155e-04  -1.4726994e-04  -1.8371567e-04  -2.6018123e-04  -1.2098821e-05  -1.0892335e-04   6.3129082e-05  -7.6401258e-05  -1.4206175e-04  -7.5135671e-05  -7.6979282e-05  -6.2574989e-05  -1.1774311e-04  -3.9476037e-04  -8.6579123e-05  -4.9184637e-05   2.1651517e-06  -5.8914127e-05  -8.9433226e-05  -9.4366835e-05  -5.9897506e-05  -1.0588935e-04  -1.5511454e-04  -3.5973633e-05  -1.2892864e-04  -1.7964566e-04  -5.8701178e-05  -1.8483990e-04  -1.0473808e-04  -9.6150434e-05  -1.5835708e-04  -2.4078960e-04  -2.3331831e-05  -9.9982506e-05  -1.4014803e-04  -4.0861189e-05   1.1054756e-04  -3.1236847e-05  -3.2657347e-04   2.5692998e-06  -2.7240493e-04  -3.8491442e-05  -5.4021304e-05  -6.0571496e-05  -1.3482942e-04
  -1.1039931e-04  -9.4198127e-05  -3.6577192e-05  -7.8051882e-05  -1.3684039e-04  -1.3469876e-04  -1.4291356e-04  -1.5638326e-04  -6.6210596e-05  -2.7603764e-06  -7.7532459e-05  -1.5406618e-05  -7.4034084e-05  -1.2901817e-04  -1.1011062e-04  -7.9073165e-05  -5.9638573e-05  -1.2137757e-04  -1.4437244e-05  -1.2112138e-04  -1.0203431e-04  -3.3490083e-05  -1.0231764e-04  -1.0581642e-04  -1.3003557e-04  -4.7010406e-05  -1.2936986e-04  -1.5858244e-04  -1.1066577e-04  -1.3049581e-04  -7.8021556e-05  -1.5491321e-04  -3.9420690e-04  -2.4545539e-04  -9.0420930e-05  -7.9927551e-05  -1.8480803e-04  -5.0211431e-05  -1.0634567e-04  -1.6727482e-04  -4.2260173e-05  -8.2747109e-05  -3.9348026e-05  -2.0732368e-04  -9.4912037e-05  -1.0030188e-04   3.8056445e-05   2.1305403e-05  -1.1849442e-05  -8.8486857e-05
  -1.1996898e-04  -1.0196102e-04  -8.3939136e-05  -9.0810623e-05  -9.9638644e-05  -1.0642027e-04  -1.2160058e-04  -1.6081380e-04  -2.1243958e-04  -8.9104933e-06  -1.2473868e-04  -2.7409689e-05  -7.2756367e-05  -1.3933622e-04  -1.1184003e-04  -7.4286065e-05  -6.5127926e-05  -1.3105014e-04  -2.6405597e-04  -8.0144127e-05  -9.1134345e-05  -1.0527624e-04  -6.5027823e-05  -2.7396096e-04  -1.2297537e-04  -7.4126088e-05  -1.2282562e-04  -1.9627533e-04  -5.6779005e-05  -1.3068202e-04  -9.4011310e-05  -1.2162400e-04  -1.8377918e-04  -1.8537833e-04  -7.7945908e-05  -8.9691777e-05  -1.7321525e-04  -5.5587963e-05  -9.7380485e-05  -1.8523225e-04  -2.8197350e-05   8.8118257e-05  -1.3899574e-05   1.6183869e-05  -6.9256806e-05  -1.5948393e-04   4.2046955e-05  -5.9542181e-05  -2.3981016e-04  -1.3722354e-04
  -1.4201095e-04  -9.2108072e-05  -7.5328033e-05  -8.8013599e-05  -8.2873921e-05  -1.2126541e-04  -1.0763390e-04  -1.6431171e-04  -1.4352439e-04   3.2159865e-06  -9.2728122e-05   3.1082236e-05  -8.9391819e-05  -1.1803037e-04  -5.0790219e-05  -7.1880349e-05  -5.6060235e-05  -1.0941604e-04  -2.6200525e-04  -1.1380549e-04  -8.6051557e-05  -5.8356076e-05  -5.9549770e-05   6.1711362e-05  -1.7849224e-04  -7.2582894e-05  -1.1813373e-04  -1.9952857e-04  -5.6608817e-05  -1.2424811e-04  -2.2266802e-05  -8.1470411e-05   1.1964138e-04  -2.5649654e-04  -8.7416163e-05  -1.2677677e-04  -2.0935864e-04  -4.6337729e-05  -1.0260005e-04  -1.2174313e-04  -4.6445133e-05  -1.0149379e-05  -1.0516484e-05  -7.5260112e-05  -2.5317675e-04  -6.4963697e-06  -1.5810094e-04  -6.0048289e-05  -1.4611888e-04  -9.1082766e-05
  -1.6043660e-04  -9.1763373e-05  -7.7187375e-05  -8.1877180e-05  -1.5220579e-04  -1.0466045e-04  -1.5344807e-04  -9.8206481e-05  -1.4833655e-04  -4.8229967e-06  -7.1534436e-05  -1.7630036e-05  -8.3454426e-05  -1.7002948e-04  -9.5856980e-05  -7.6109733e-05  -6.0828392e-05  -4.7536785e-05  -3.7655374e-04  -9.3485447e-05  -6.2702093e-05  -4.0855281e-05  -6.1454251e-05  -1.4022813e-04  -6.2844934e-05  -3.9608964e-05  -1.0980832e-04  -1.6003971e-04  -1.4979990e-04  -1.3344061e-04  -1.5752920e-04  -8.7493085e-05  -3.8342341e-04  -1.7538216e-04  -9.7844648e-05  -1.4017378e-04  -1.6706178e-04  -4.0438601e-05  -1.1312083e-04  -1.3756378e-04  -3.9710550e-05   2.5056273e-05  -1.0940329e-05   2.9207306e-04  -4.5314773e-05  -2.8115795e-05  -5.8795787e-05  -3.5977704e-05  -1.4530870e-04  -1.0140321e-04
  -1.2683838e-04  -9.7629141e-05  -9.8815450e-05  -8.7583401e-05  -8.0193262e-05  -1.3813224e-04  -1.2725990e-04  -1.4031367e-04  -2.0288104e-04  -1.1255575e-05  -1.0133915e-04  -5.0267085e-05  -7.5565607e-05  -1.2274765e-04  -9.3138719e-05  -8.0834907e-05  -4.3033626e-05  -2.6441287e-05  -1.4057782e-04  -1.0287463e-04  -7.0624505e-05   1.0794538e-05  -4.2988577e-05  -1.0569866e-04  -4.5500547e-05  -5.8634709e-05  -1.3962212e-04  -2.0733700e-04  -1.0149195e-04  -1.2616941e-04  -2.2087950e-04  -6.5058390e-05  -1.2088978e-04  -1.0630055e-04  -6.9207854e-05  -1.4530426e-04  -1.9262177e-04  -4.6505578e-05  -1.1861818e-04  -1.5586597e-04  -1.7395883e-05   1.1483837e-04   4.5766523e-05  -4.9749052e-04   6.6051623e-05  -1.6349930e-04  -7.9971411e-05  -6.8893045e-05  -2.1035204e-04  -1.4039120e-04
  -1.2422074e-04  -1.0222619e-04  -8.0500395e-05  -9.0861489e-05  -1.2579838e-04  -1.2759220e-04  -1.3025085e-04  -1.5969711e-04  -1.9074016e-04   1.4876488e-05  -7.6700140e-05   4.4587847e-05  -9.6215626e-05  -1.5399727e-04  -7.9194317e-05  -8.1359663e-05  -5.8174886e-05  -1.0991141e-04  -2.5786660e-04  -9.6408054e-05  -6.5822860e-05   2.3314386e-05  -6.7376532e-05   6.8276830e-05  -1.0995285e-04  -7.1354232e-05  -1.0479043e-04  -1.6556219e-04  -7.4816417e-05  -1.3081875e-04  -2.3975746e-04  -3.1966723e-05  -2.7908903e-04   3.1607746e-05  -9.5877200e-05  -7.2222829e-05  -2.1040754e-04  -5.0467679e-05  -1.0852145e-04  -1.0229103e-04  -3.8831899e-05   2.2698410e-05   1.5666725e-05  -3.3403246e-04  -3.1904292e-05  -2.3224553e-04   2.1565638e-05  -6.2426443e-05  -1.3052358e-05  -1.1179591e-04
  -1.2914636e-04  -9.3470582e-05  -5.8742844e-05  -9.1244627e-05  -7.4323812e-05  -1.2186918e-04  -1.4054273e-04  -2.0807484e-04  -2.3994139e-04   1.5730644e-05  -7.7995406e-05   6.6718558e-06  -7.8874473e-05  -1.6849696e-04  -1.0043928e-04  -7.9974867e-05  -6.5220527e-05  -1.3494902e-04  -1.9428461e-04  -9.1682603e-05  -5.1191237e-05  -6.3403131e-05  -1.1203057e-04   2.2116179e-05  -9.3847222e-05  -5.8588685e-05  -1.3237855e-04  -1.6600170e-04  -1.2418973e-04  -1.2514983e-04  -3.0357597e-04  -2.3079972e-04  -1.0422734e-04  -1.7946833e-04  -8.5222491e-05  -1.3178719e-04  -1.7205990e-04  -6.1478677e-05  -1.2088611e-04  -1.5644930e-04  -2.6182555e-05   5.7741316e-05   2.6420343e-05   3.2199160e-04  -8.2936756e-05  -4.4872417e-05   3.1245469e-05  -3.2510576e-05  -6.8930938e-05  -1.0793546e-04
  -1.2779205e-04  -8.5829306e-05  -7.6954333e-05  -1.0008501e-04  -1.4041760e-04  -1.2300028e-04  -1.3316203e-04  -1.7692235e-04  -8.7329776e-05  -9.3072858e-06  -7.3125215e-05  -7.4937134e-06  -9.4460513e-05  -1.2203442e-04  -1.3464910e-04  -8.3333951e-05  -6.7878289e-05  -3.5351044e-05  -2.9313084e-04  -1.0301299e-04  -7.9742764e-05  -5.8897211e-05  -6.4979322e-05   1.1779686e-04  -1.0925544e-04  -4.0800995e-05  -1.2702541e-04  -1.5914119e-04  -9.4591174e-05  -1.2163006e-04  -9.4392373e-05  -1.3888875e-04  -2.2018500e-04  -1.6106215e-04  -8.5625332e-05  -1.0738967e-04  -1.8227698e-04  -4.2400377e-05  -1.2190913e-04  -1.3824660e-04  -2.3111485e-05   9.6873358e-05   1.9277626e-05  -2.4170941e-04  -3.8648632e-05  -2.0037599e-04   5.9875161e-05   5.4801985e-05  -1.3276056e-04  -1.5770373e-04
  -1.3499994e-04  -8.8693429e-05  -9.1027192e-05  -9.0512483e-05  -5.7503472e-05  -1.5132480e-04  -1.2002442e-04  -7.9077043e-05   7.4428797e-05   1.1782014e-05  -6.4466607e-05   7.4157309e-05  -1.0344260e-04  -1.3862285e-04  -1.2224291e-04  -8.1740669e-05  -8.1103863e-05  -1.4659899e-04  -1.3384657e-04  -8.0578160e-05  -6.9233305e-05  -4.0812360e-05  -9.8151097e-05   1.1649379e-04  -6.6887776e-05  -1.0828765e-05  -5.0857569e-05  -1.5357988e-04  -3.7673413e-05  -1.1585400e-04  -1.3440922e-04  -1.5401315e-04  -4.1675670e-05  -7.1602808e-05  -9.2968963e-05  -1.1931633e-04  -2.1304793e-04  -3.4122895e-05  -1.1538259e-04  -1.8506598e-04  -3.6218957e-05   1.0954191e-04   5.3724630e-06  -3.1413345e-04  -9.9270139e-05   1.8169891e-04   2.2988852e-05  -3.3929547e-05  -4.0424235e-05  -3.8111746e-05
  -1.1802049e-04  -9.3434479e-05  -7.4151372e-05  -8.7676861e-05  -1.2852285e-04  -1.4849943e-04  -1.4555143e-04  -8.3946361e-05  -9.2709866e-05   2.0857466e-05  -6.3166648e-05   4.2255910e-05  -9.2558286e-05  -1.0595023e-04  -1.0533645e-04  -8.3671635e-05  -7.9936508e-05  -1.2298986e-04  -3.1603634e-04  -8.8345878e-05  -1.4373855e-05   2.8135622e-05  -4.0396426e-05   5.6664525e-05  -6.3272477e-05  -2.7900805e-06  -1.1006449e-04  -2.1095970e-04  -8.8908608e-05  -1.3108594e-04   3.8411479e-05  -8.9588619e-05  -8.6532753e-05  -2.6894576e-04  -9.0199152e-05  -9.1658192e-05  -2.1984130e-04  -5.2927066e-05  -1.0916449e-04  -8.7183573e-05  -4.1450148e-05   6.2889165e-05   1.4230158e-06  -6.1608054e-04  -3.8259634e-05  -2.6466580e-05  -2.4709932e-05   1.2431173e-06  -3.5665813e-05  -1.0118496e-04
  -1.5286822e-04  -9.2772949e-05  -9.1741502e-05  -8.6006527e-05  -7.1087685e-05  -1.3103780e-04  -1.0807838e-04  -1.6653462e-04  -1.7142591e-04   1.8897645e-05  -5.6915200e-05   4.2058004e-05  -9.4649389e-05  -1.3024558e-04  -1.3214505e-04  -8.6219690e-05  -6.7825211e-05  -8.7110726e-05  -2.3611488e-04  -4.8403268e-05  -8.4692132e-05  -4.3516397e-05  -8.2693710e-05   2.3946185e-04  -7.9452417e-05  -3.9967228e-05  -1.3869084e-04  -1.4176458e-04  -4.9681159e-05  -1.0930973e-04  -9.8012213e-05  -1.7796758e-04  -1.0983061e-04  -1.5583566e-04  -9.6795644e-05  -7.0934570e-05  -1.5303443e-04  -6.0167786e-05  -1.1094186e-04  -1.7086984e-04  -2.6981606e-05   3.2649891e-06   2.8650902e-06  -7.2085801e-05  -9.4096598e-05  -9.6378484e-05   6.8942514e-05  -2.3385459e-05  -1.9729136e-04  -1.3785793e-04
  -1.2847024e-04  -1.0135490e-04  -7.7169971e-05  -9.0173155e-05  -8.1988343e-05  -1.0837004e-04  -1.1114919e-04  -1.6234214e-04  -7.6749668e-05   3.8947117e-05  -3.0974592e-05   2.4041921e-05  -9.6320276e-05  -9.2609436e-05  -1.0345299e-04  -8.4097788e-05  -7.2775860e-05  -1.3962039e-04  -3.7981535e-04  -8.2628518e-05  -1.6882066e-06   3.1447984e-05  -3.6704831e-05   6.3892832e-05  -1.3238798e-04  -3.9426584e-05  -1.3285756e-04  -1.8654087e-04  -8.1391590e-05  -1.1479037e-04  -6.9088426e-05  -2.0339307e-04  -1.8893933e-04  -3.2113880e-05  -8.9504261e-05  -1.1022505e-04  -1.5347132e-04  -4.8621572e-05  -1.1068210e-04  -1.3775576e-04  -2.0987192e-05   1.1202318e-04   1.9261008e-05   8.7883847e-05  -1.1542150e-04  -1.5451839e-04  -4.9428101e-05  -2.6570087e-05   1.9948957e-05  -8.6914188e-05
  -1.3146523e-04  -9.2703718e-05  -8.2933504e-05  -8.9366658e-05  -1.1482972e-04  -1.2771056e-04  -1.1483110e-04  -1.3048682e-04  -1.2393956e-04   3.5612040e-05  -3.1384923e-05   1.2319520e-04  -1.0199480e-04  -1.1532377e-04  -7.2938230e-05  -8.4290048e-05  -6.8130685e-05  -1.0252005e-04  -4.7966483e-04  -1.1367771e-04  -7.2677874e-05  -2.0974932e-05  -9.3200375e-05   1.5241510e-04  -1.0069391e-04  -4.7599300e-05  -1.0058910e-04  -1.6501517e-04  -4.0705887e-05  -1.2535154e-04   7.2544208e-05  -1.6957408e-04  -2.9522076e-04  -1.3355518e-04  -7.2473180e-05  -1.4961477e-04  -1.5737789e-04  -4.5889516e-05  -1.0948545e-04  -2.1126489e-04  -2.0797203e-05   1.1831948e-04   4.5664783e-06   2.2967263e-04  -5.8803373e-05  -8.5826199e-05  -1.6433033e-04   4.2276594e-07  -5.7870660e-05  -1.2146556e-04
  -1.3551493e-04  -9.0871094e-05  -8.9471941e-05  -8.4551844e-05  -8.3591935e-05  -1.2500439e-04  -1.1825314e-04  -1.0142804e-04  -1.4164225e-04   2.4488745e-05  -5.8598132e-05   3.5080175e-05  -9.1241469e-05  -9.9449870e-05  -6.8954389e-05  -9.2382659e-05  -6.4408501e-05  -3.6733454e-05   3.1888674e-06  -7.0113419e-05  -2.3470348e-05   3.5283672e-06  -3.4176403e-05   3.4563411e-05  -1.3779996e-04  -4.9473212e-05  -1.1652192e-04  -1.4195102e-04  -6.3660722e-05  -1.0744620e-04  -1.8922056e-04  -1.6255611e-04   2.6434477e-06  -4.9985733e-06  -8.6277811e-05  -1.0677148e-04  -1.5908571e-04  -5.9412279e-05  -1.1923836e-04  -9.6277894e-05  -2.3711817e-05   1.7184899e-04   9.2421351e-06   1.5062813e-04  -8.9370937e-05   4.2203737e-05   8.5221007e-05   9.4667093e-06  -1.4888433e-04  -1.6251463e-04
  -1.3156889e-04  -9.2643902e-05  -7.1099144e-05  -8.0230355e-05  -9.8769437e-05  -1.1647733e-04  -1.3422426e-04  -1.2346472e-04  -1.5045398e-04   4.7263304e-05  -1.8308092e-05   6.7422006e-05  -9.8142307e-05  -1.5832497e-04  -7.8687037e-05  -8.2044069e-05  -7.5528966e-05  -1.3235252e-04  -3.2080000e-04  -8.1923892e-05   4.0355994e-06  -2.6489955e-05  -4.6431385e-05   1.3582871e-04  -1.3159811e-04  -2.5290998e-05  -8.3079707e-05  -1.5896748e-04  -1.1472794e-04  -1.2465053e-04  -1.1565586e-04  -4.1987918e-05   7.5773220e-05  -3.2200900e-05  -9.0559457e-05  -1.3040050e-04  -1.9748539e-04  -4.7857455e-05  -1.1338307e-04  -1.2614203e-04   6.2130061e-07   7.2219525e-05   3.9025040e-06   1.2071400e-04  -1.5323881e-04  -2.4309474e-04   1.4446019e-04   3.3870383e-05  -1.4804491e-05  -6.3080195e-05
  -1.1462169e-04  -1.0235012e-04  -9.7884717e-05  -8.6125860e-05  -1.3487450e-04  -1.4029215e-04  -1.2417497e-04  -7.4643642e-05  -2.7579945e-04   4.1178901e-05  -2.2840177e-05   8.0068421e-05  -8.4105486e-05  -1.0014644e-04  -6.8977017e-05  -7.0047841e-05  -5.4421191e-05  -1.3837180e-04  -1.7930170e-04  -6.9219284e-05  -3.7311071e-05  -2.3997285e-05  -2.6996033e-05   6.0066715e-05  -5.6469093e-05  -3.1940101e-05  -1.1934156e-04  -1.8319486e-04  -1.0279203e-04  -1.1115629e-04  -2.2550811e-04  -9.9085941e-05  -9.6340373e-06  -5.5800330e-05  -7.3404779e-05  -1.4939485e-04  -1.5997795e-04  -5.7532452e-05  -1.1636863e-04  -1.7112841e-04  -6.1040628e-06   1.7189034e-04   2.8065138e-05  -4.1055921e-04  -8.6212094e-05   1.0537749e-04  -3.1703486e-05  -3.2530948e-05  -1.8044382e-04  -8.0467842e-05
  -1.2277460e-04  -1.0620611e-04  -8.4387990e-05  -9.4387346e-05  -8.6044223e-05  -1.1788210e-04  -1.1031795e-04  -1.7549301e-04   5.0429328e-05   4.2197615e-05  -4.0282917e-05   4.6375779e-05  -7.9503232e-05  -9.3431809e-05  -1.0740378e-04  -7.2753923e-05  -7.9346552e-05  -6.4484877e-05  -1.8716462e-04  -5.7798130e-05  -1.6117894e-05  -1.3971119e-04  -8.8239736e-05   8.5636366e-06  -1.0640067e-04  -6.1013983e-05  -8.4550884e-05  -1.7285389e-04  -3.4108405e-05  -1.0369493e-04  -1.6725078e-04  -1.5176888e-04  -2.3125942e-04  -1.6425060e-04  -8.6862325e-05  -1.3571001e-04  -1.6651007e-04  -3.8753667e-05  -1.2056553e-04  -1.2469398e-04  -7.5386838e-06   7.7912271e-05   6.7160754e-06  -5.6107843e-04   6.1222949e-05  -2.3394945e-04  -1.9763993e-05   1.2219452e-05  -1.5558985e-04  -1.0298476e-04
  -1.3628360e-04  -1.0208648e-04  -8.0873200e-05  -8.8023735e-05  -4.9418129e-05  -1.3261531e-04  -1.3478973e-04  -9.2697745e-05  -3.2366668e-05   5.6240657e-05  -2.1781314e-05   4.7257563e-05  -9.7942931e-05  -1.1041891e-04  -8.5170628e-05  -9.2205337e-05  -6.5995882e-05  -1.0829920e-04  -7.8569064e-05  -8.5430976e-05  -3.3550896e-05   2.1450542e-05  -6.9349320e-05  -6.4044987e-05  -1.2918358e-04  -9.9386607e-06  -9.5517666e-05  -1.4258054e-04  -7.2291259e-05  -1.1619890e-04  -3.5283774e-05  -1.3697961e-04   7.0246053e-05  -1.0065397e-04  -9.7528122e-05  -2.3968820e-05  -1.5645841e-04  -4.3102289e-05  -9.9744917e-05  -1.1661933e-04  -2.3189346e-05   5.0201579e-05   6.6925936e-06   1.0850914e-04  -1.2184613e-04   1.2670458e-06  -9.5166295e-05  -1.0453947e-05   1.6464155e-06  -1.2743857e-04
  -1.3170883e-04  -1.0161976e-04  -8.9641682e-05  -9.1884263e-05  -8.4823638e-05  -1.1636628e-04  -1.0365845e-04  -8.3245257e-05  -1.2720481e-04   4.4285509e-05  -3.4562167e-05   5.0301813e-05  -8.0729602e-05  -1.0705277e-04  -8.2407787e-05  -7.6663797e-05  -6.9120011e-05  -1.2415255e-04  -9.7251403e-05  -8.6325344e-05  -2.6185846e-05  -1.3437711e-04  -8.6259330e-05   2.2965737e-04  -6.0085364e-05  -3.6217494e-05  -1.1198063e-04  -2.0748713e-04  -7.3560535e-05  -1.0668921e-04  -2.0208687e-04  -1.6621436e-04  -2.0837666e-04  -1.2155338e-04  -8.3732113e-05  -9.2911083e-05  -1.5069661e-04  -6.5851091e-05  -1.0433854e-04  -1.0601836e-04  -2.0660553e-05  -9.8101827e-06   8.3084706e-06  -4.5780627e-05   2.7655540e-05  -1.6880436e-04  -2.0205032e-05  -3.7063667e-06  -1.9617677e-05  -5.5291097e-05
  -1.5215101e-04  -1.0817241e-04  -7.3995310e-05  -1.0523219e-04  -1.0275704e-04  -1.2782267e-04  -1.2669367e-04  -1.2600872e-04  -8.2883409e-05   3.9521612e-05  -4.5958353e-05   5.7764140e-05  -7.6639539e-05  -1.0322731e-04  -6.6402412e-05  -9.1244583e-05  -7.5138822e-05  -4.1658539e-05  -9.3196781e-05  -6.4791668e-05  -5.3005777e-05  -6.9084483e-05  -4.5523284e-05   2.0441041e-05  -1.6367108e-04  -8.0157683e-05  -1.0372148e-04  -9.1258960e-05  -4.0532526e-05  -1.1653408e-04   3.1372692e-05  -9.4497584e-05   2.0703554e-05  -1.5859373e-04  -8.1315629e-05  -8.2621358e-05  -1.8159574e-04  -4.9008846e-05  -9.8985882e-05  -1.5686153e-04  -4.1062890e-06   4.3685719e-05   5.0391543e-05  -1.4690218e-04   1.3769523e-04  -1.7266946e-05   3.4413064e-05   3.9644972e-05   3.3549848e-05  -1.1374112e-04
  -8.8165776e-05  -1.0428298e-04  -6.4871914e-05  -8.9131361e-05  -8.0649254e-05  -1.2995055e-04  -1.0767149e-04  -1.1341831e-04   6.2898536e-05   4.6158493e-05  -2.5483878e-06   7.9183315e-05  -8.0046804e-05  -7.7521683e-05  -5.8965750e-05  -7.8379693e-05  -7.4188058e-05  -6.8363719e-05  -1.9956366e-04  -7.5830758e-05  -4.4330496e-05  -3.2706703e-05  -7.7184239e-05   3.1998235e-04  -5.9525006e-05  -2.5800589e-05  -1.0363317e-04  -1.8327043e-04  -7.3547271e-05  -1.1452888e-04  -7.5014184e-05  -1.2867486e-04  -9.8122226e-05  -1.0065964e-04  -8.8895467e-05  -7.3211901e-05  -1.9612991e-04  -4.4576667e-05  -1.1113829e-04  -1.4285800e-04  -2.7403343e-05   7.3466166e-05   2.0863392e-05  -4.0792886e-04  -5.6969813e-05   5.0274633e-05  -1.7876369e-04   2.9840339e-05  -2.3258859e-05  -8.1151687e-05
  -1.6471774e-04  -1.0119517e-04  -7.7086021e-05  -1.0201375e-04  -9.5145791e-05  -1.0446042e-04  -1.0222037e-04  -6.3423824e-05   8.8205888e-05   5.0594303e-05  -4.5722747e-05   6.4942586e-05  -8.7770408e-05  -1.1907252e-04  -6.5280423e-05  -8.4130530e-05  -6.8665104e-05  -1.1859535e-04  -9.6501739e-05  -7.5986129e-05  -5.3872569e-05  -1.3540310e-04  -6.2720290e-05  -2.4647365e-04  -1.1590627e-04  -6.4467902e-05  -9.1766393e-05  -1.9462487e-04  -8.1835729e-05  -1.1647008e-04  -1.3158741e-04  -8.3232080e-05  -1.2918242e-04  -1.8235620e-05  -9.2780181e-05  -1.0933866e-04  -2.2206905e-04  -3.1227093e-05  -1.0498662e-04  -1.3425383e-04  -2.0529071e-05   1.3956055e-04   1.5304542e-05  -4.0092607e-04  -8.6704982e-05  -1.6831580e-04  -6.0601247e-05  -6.7417779e-05  -1.4185935e-04  -7.2181931e-05
  -1.4065525e-04  -1.0249863e-04  -9.0021487e-05  -9.1526381e-05  -5.9950653e-05  -9.5774536e-05  -1.0233888e-04  -1.6593443e-04   1.7271333e-05   3.6464724e-05  -4.7641021e-05   3.9132996e-05  -6.5499356e-05  -9.9052530e-05  -7.0037866e-05  -9.2451599e-05  -7.0242837e-05  -1.2173479e-04  -1.0624120e-04  -5.9900649e-05  -4.5428340e-05  -2.7489918e-05  -6.0357102e-05   6.3148559e-06  -1.1933421e-04  -4.5638018e-05  -9.5920383e-05  -1.1975808e-04  -9.3709212e-05  -1.0058555e-04  -2.3605398e-04  -7.9604742e-06  -1.9095097e-04  -2.3606299e-04  -9.4813506e-05  -6.0859235e-05  -1.7882552e-04  -3.8062633e-05  -9.8979312e-05  -9.2864597e-05  -6.5437266e-06   7.0033289e-05   2.2221364e-05  -2.5769652e-04   1.6713131e-04  -1.2457412e-04  -4.9730863e-07   7.3360061e-06  -3.1962576e-05  -1.1756941e-04
  -1.2457656e-04  -9.9235142e-05  -9.4142400e-05  -7.6780401e-05  -4.4343993e-05  -1.1809192e-04  -1.0024249e-04  -1.0238017e-04   3.4529578e-05   3.4962693e-05  -4.2174186e-05   1.0276400e-04  -6.8122776e-05  -8.6984081e-05  -5.4621960e-05  -7.6170400e-05  -7.7559693e-05  -1.0636147e-04   3.6115172e-05  -5.0601138e-05  -3.2166736e-05  -1.0327206e-04  -4.2449941e-05   1.2591368e-04  -7.9286277e-05  -3.6313566e-05  -9.4251234e-05  -1.6334908e-04  -5.9409864e-05  -1.0249864e-04  -9.9011253e-05  -6.3252883e-05  -9.7212287e-05  -1.4699410e-07  -8.7296110e-05  -1.6012132e-04  -1.6122429e-04  -3.6169062e-05  -1.1363118e-04  -1.2126521e-04  -2.6408756e-05   6.7953071e-05  -3.8233509e-05  -1.8048340e-04  -1.4352154e-04  -2.6266580e-05   2.5110867e-05  -2.0607524e-05  -1.0722332e-04  -1.4004525e-04
  -1.1722449e-04  -9.5157375e-05  -6.3382271e-05  -9.8163757e-05  -1.2216231e-04  -8.8764238e-05  -1.1102538e-04  -1.0255689e-04  -1.3343984e-04   3.7924267e-05  -4.9109789e-05   3.6999372e-05  -6.0494065e-05  -8.7168162e-05  -4.2817275e-05  -8.4614796e-05  -6.5417313e-05  -7.6540004e-05  -1.1716435e-04  -6.9401212e-05  -3.2415155e-05  -8.6541513e-05  -7.4746786e-05  -1.5427294e-04  -6.3007428e-05  -4.5790966e-05  -9.7753677e-05  -1.4615529e-04  -6.4790373e-05  -1.0560109e-04  -6.8365123e-05  -3.8775433e-05  -2.1944752e-04   6.1563919e-06  -8.1483944e-05  -1.0870414e-04  -1.3475245e-04  -5.7654648e-05  -9.5878648e-05  -1.2679433e-04  -3.7156438e-05   5.1946288e-05   2.3968016e-05  -7.8240497e-05  -1.5276333e-05   2.0612306e-04   8.2522070e-05   5.1778625e-05   4.5770703e-05  -1.3182193e-04
  -1.4569412e-04  -1.0593830e-04  -8.1026301e-05  -8.4007603e-05  -7.4135729e-05  -1.1201737e-04  -1.0718151e-04  -1.3901717e-04  -2.5569843e-04   4.1562907e-05  -5.9254726e-05   9.2156813e-05  -7.4610172e-05  -8.7288856e-05  -4.3279826e-05  -7.3575698e-05  -6.6822555e-05  -1.3214363e-04  -3.7497174e-04  -5.1065042e-05  -2.5813355e-05  -2.7413320e-05  -1.0679421e-04   3.1334775e-07  -9.9552039e-05  -7.1573937e-05  -6.9923612e-05  -9.6854696e-05  -1.5983462e-05  -9.7839002e-05  -1.7027316e-05  -8.5905180e-05  -3.9674662e-05  -1.6110140e-04  -6.9907903e-05  -8.2785838e-05  -1.7647394e-04  -5.3442218e-05  -8.6434135e-05  -1.0875008e-04  -2.8077140e-05  -1.0624681e-05  -2.9913763e-05   1.3413590e-04  -1.1543907e-04  -5.0023133e-05  -5.5961027e-05  -2.6500289e-05  -7.5960816e-05  -1.1715782e-04
  -1.3623617e-04  -9.4441348e-05  -5.9895909e-05  -8.6825814e-05  -4.2356573e-05  -1.0306453e-04  -1.2220940e-04  -1.2643615e-04  -2.7441487e-05   4.7787235e-05  -3.0902698e-05   3.5362256e-05  -6.3154614e-05  -7.4556585e-05  -5.6768404e-05  -6.7047869e-05  -5.0957129e-05  -7.3675365e-05  -6.3777175e-06  -6.7757130e-05  -1.8638526e-05  -4.3959288e-05  -5.0675735e-05   1.1785391e-04  -9.4563053e-05  -6.2541898e-05  -8.2091035e-05  -8.9919209e-05  -6.0504102e-05  -1.1054651e-04  -1.9633208e-04  -6.8350622e-05  -7.1053114e-06  -7.9565825e-06  -5.9075868e-05  -5.4792436e-05  -1.3695395e-04  -2.2073855e-05  -1.0697886e-04  -1.6391856e-04  -1.8907103e-05   2.5065701e-05   1.6736829e-05  -5.0191290e-04   7.4219366e-05  -4.2894433e-05   8.6284403e-05  -3.8055648e-05  -1.0383110e-04  -7.3088260e-05
  -1.3851603e-04  -8.5014028e-05  -5.8298752e-05  -8.7828164e-05  -6.4906337e-05  -1.0539027e-04  -1.2476637e-04  -1.0536822e-04  -1.1750768e-04   4.7407801e-05  -5.6176093e-05   1.0638089e-05  -6.0246974e-05  -9.7968463e-05  -5.9282505e-05  -7.4752053e-05  -6.0488550e-05  -1.3114016e-04  -5.8583151e-05  -5.3329702e-05  -2.7950462e-05  -3.6260964e-05  -7.4741722e-05   1.9489277e-04  -5.4329965e-05  -7.2668983e-05  -5.1877807e-05  -1.1711518e-04  -8.8480818e-05  -9.0464891e-05  -9.1224916e-05   4.7481949e-06   1.0084824e-04  -8.1830396e-05  -5.9953327e-05  -6.7002089e-05  -1.6566897e-04  -5.6442135e-05  -1.1186155e-04  -1.3086172e-04  -2.4357332e-05   7.3611714e-05  -4.6406811e-07  -6.5980399e-05   9.3276256e-05  -1.5922055e-04  -1.2533227e-04  -5.4836233e-05  -2.3666526e-05  -4.9171544e-05
  -1.0750429e-04  -8.7657689e-05  -5.5433677e-05  -8.9805508e-05  -9.6048447e-05  -1.1171053e-04  -1.2242328e-04  -5.5327630e-05  -1.4557835e-04   5.1561467e-05  -3.3116958e-05   4.5003650e-05  -6.5931919e-05  -7.7721044e-05  -5.2156589e-05  -6.6348017e-05  -6.1096733e-05  -1.5040326e-04  -1.1161626e-04  -5.3499622e-05  -3.8949671e-05  -2.7692085e-05  -6.3331240e-06   1.3901504e-04  -5.8739024e-05  -3.9977749e-05  -4.7277903e-05  -1.5596696e-04  -9.5570591e-05  -1.1146292e-04  -1.4088470e-04  -7.8066238e-05  -7.8687452e-05  -2.0742365e-05  -7.1056158e-05  -6.5500353e-05  -1.3714562e-04  -3.4680321e-05  -9.4060233e-05  -1.2083323e-04  -2.9430845e-05   1.4441690e-04   1.4225288e-06   1.2576817e-06  -1.2114250e-04   1.2371188e-04   3.8615824e-05  -2.8800328e-05  -7.4193520e-07  -5.4562719e-05
  -1.2391902e-04  -9.6873839e-05  -6.4770262e-05  -7.2131887e-05  -9.4118732e-05  -1.0591805e-04  -1.3606157e-04  -2.7124206e-05  -1.3856395e-04   4.5940673e-05  -2.8483089e-05   3.2990320e-05  -6.3791609e-05  -1.0050112e-04  -7.5966273e-05  -7.6941607e-05  -6.0382816e-05  -9.3017545e-05   3.9298015e-05  -7.0936338e-05   1.4925666e-05  -3.9255588e-05  -6.3923108e-05  -2.2652272e-04  -7.6329648e-05  -4.1031977e-05  -9.4616815e-05  -8.9987232e-05  -6.4963417e-05  -1.0539642e-04  -2.2368757e-05  -1.2131631e-04   7.9281890e-05  -1.4591188e-04  -8.7266701e-05  -1.7664490e-05  -1.7222708e-04  -4.7568526e-05  -8.6582637e-05  -1.1241491e-04  -6.0789607e-05   2.0072608e-04  -8.3541163e-06   3.8596929e-05   1.0896477e-05   4.3289903e-05   7.7407691e-05  -9.3418248e-06  -6.1715087e-05  -9.8284429e-05
  -1.0690585e-04  -1.0259618e-04  -9.5257674e-05  -8.3313236e-05  -5.0611845e-05  -7.3768031e-05  -1.3823589e-04  -9.5572766e-05  -1.7385396e-04   3.4597921e-05  -3.4545883e-05   8.4998966e-05  -4.9990467e-05  -7.4989817e-05  -4.0486098e-05  -6.9155554e-05  -4.7480440e-05  -6.2865947e-05   7.7033226e-05  -3.3313030e-05  -1.1578725e-05   1.5384010e-05  -4.5558645e-05  -2.8213693e-04  -1.1548138e-04  -6.1338862e-05  -9.0019385e-05  -1.3275701e-04  -9.1218826e-05  -8.9889239e-05  -1.8262570e-05  -1.1703301e-04  -8.0771839e-05  -8.0278754e-05  -8.0971025e-05  -1.0289028e-04  -1.3035953e-04  -2.9360219e-05  -8.9167304e-05  -9.8649769e-05  -3.1027685e-05  -9.8663149e-05  -6.4688074e-06  -3.7236733e-04  -8.2588631e-05  -2.1525899e-05   2.9643426e-05  -5.6448862e-05  -3.3979079e-05  -1.4674598e-04
  -1.0269723e-04  -8.4176063e-05  -6.7707871e-05  -9.2744885e-05  -1.0151750e-04  -8.1424900e-05  -8.8049776e-05  -5.6146135e-05  -2.1453588e-05   5.3827636e-05  -4.0682284e-05   5.2252657e-05  -3.7749051e-05  -8.2720071e-05  -4.5832934e-05  -6.9685469e-05  -6.5562330e-05  -8.5718231e-05  -4.3985914e-04  -6.2335712e-05  -2.7277658e-05  -8.3043262e-05  -4.4005275e-05  -2.5403849e-04  -2.0579584e-05  -8.1929429e-05  -8.0261168e-05  -1.0695987e-04  -1.1974229e-04  -1.0804465e-04  -9.2809219e-05  -4.4401026e-05  -9.2287017e-05  -4.3120108e-05  -6.8796209e-05  -1.0068522e-04  -1.1205154e-04  -4.0697920e-05  -9.1311595e-05  -1.7430939e-04  -4.3395346e-05   4.9724160e-05  -2.0205402e-05  -4.9062696e-04  -9.4554607e-06  -7.7305842e-05  -4.6772730e-05   1.0250117e-04   1.1028934e-05  -7.1247188e-05
  -1.1754157e-04  -7.4060481e-05  -6.8875997e-05  -8.5656553e-05  -9.0984344e-05  -8.9394904e-05  -1.0933796e-04  -9.8130666e-05  -2.8075484e-04   2.1267944e-05  -5.7683217e-05   4.7769194e-05  -5.6946887e-05  -8.7789813e-05  -3.8991522e-05  -6.1370396e-05  -5.3557971e-05  -1.2965799e-04  -6.7643166e-05  -6.8156500e-05  -1.6051259e-05  -9.9505633e-05  -6.6029854e-05   1.9252689e-04  -1.1523624e-04  -4.5976471e-05  -3.5462581e-05  -1.0408423e-04  -6.6126609e-05  -9.9569545e-05  -9.7905824e-05  -1.3474371e-04  -1.3345212e-04  -8.2669045e-05  -8.0753001e-05  -9.5920412e-05  -1.4091807e-04  -4.0023922e-05  -9.3645416e-05  -1.4493726e-04  -5.3401207e-05  -3.6716909e-05   1.6597454e-05   9.2737733e-05  -1.6141764e-04   9.9566263e-05  -1.4265496e-04   4.8255810e-05  -5.3623084e-05  -7.6607548e-06
  -1.2290254e-04  -6.4286534e-05  -8.7890614e-05  -8.5786058e-05  -1.1564369e-04  -8.0027567e-05  -9.3224662e-05  -1.1385506e-04  -7.7365243e-05   3.1601587e-05  -7.2717827e-05   4.5963666e-06  -5.2901334e-05  -7.5656346e-05  -5.3627202e-05  -7.3272146e-05  -5.3551939e-05  -1.3966425e-04  -3.6151204e-04  -1.0829752e-04  -1.9122765e-05   3.1035466e-05  -7.8880432e-05  -3.5199942e-04  -1.0176479e-04  -7.1546325e-05  -1.3289234e-04  -7.7574863e-05  -9.1546426e-05  -1.0342091e-04  -6.5246561e-05  -1.7225741e-04  -4.9987149e-05  -1.2976758e-04  -8.3673476e-05  -1.0294438e-04  -1.5594435e-04  -4.2584652e-05  -8.1074337e-05  -1.2585608e-04  -5.3589458e-05   1.0214959e-05  -2.1557467e-05  -2.8098311e-04  -5.3643089e-05  -8.6934728e-05   5.4045297e-05  -3.6845286e-05  -3.3003431e-05  -1.6257369e-04
  -1.3629642e-04  -8.3388841e-05  -7.3533956e-05  -9.3865405e-05  -8.7355671e-05  -1.0848850e-04  -1.3488153e-04  -1.1213314e-04  -8.5488777e-05   3.0973610e-05  -6.2185776e-05  -9.9258706e-08  -5.3460524e-05  -8.5717998e-05  -5.1195591e-05  -6.7888606e-05  -4.4076140e-05  -1.2150648e-04  -2.4464418e-04  -7.5316879e-05  -2.0402624e-05  -5.9865983e-05  -8.7756001e-05   4.1544186e-05  -1.0938479e-04  -1.2649079e-05  -9.3032650e-05  -6.9880436e-05  -1.1342659e-04  -8.5856693e-05  -1.2061686e-04  -1.6385911e-04  -1.1920286e-04  -5.0778417e-05  -7.3012648e-05  -9.3679468e-05  -1.7216122e-04  -4.5237106e-05  -8.6916647e-05  -9.6361757e-05  -5.6922618e-05   2.4537529e-05  -2.2001295e-05  -5.0250488e-05  -2.0020238e-04  -2.1458625e-05  -5.5468583e-05  -2.5741390e-05  -4.8106980e-05  -1.1535982e-04
  -1.5846721e-04  -9.1815993e-05  -9.0743080e-05  -9.6702963e-05  -6.8474415e-05  -7.7478799e-05  -1.4288725e-04  -1.8189961e-04  -3.3196405e-04   2.0013566e-05  -8.0057383e-05  -2.7407033e-05  -4.5542718e-05  -8.5754793e-05  -3.7157006e-05  -9.7683187e-05  -5.7531310e-05  -6.7157896e-05  -1.8913999e-04  -9.8912227e-05  -1.9682990e-05  -3.1035106e-05  -6.3938489e-05  -3.1353885e-04  -8.0496902e-05  -2.5409719e-05  -1.0448947e-04  -1.4672520e-04  -9.1397975e-05  -9.4300653e-05  -9.7281205e-05  -1.9087331e-05  -2.0066043e-04  -1.2269370e-04  -1.0298711e-04  -6.0116799e-05  -1.4686193e-04  -3.9546256e-05  -9.5713018e-05  -1.1724942e-04  -7.4882322e-05  -1.3668527e-05  -2.9409052e-06   1.1650888e-04  -1.6146489e-04  -9.2874361e-05   3.2414834e-04   5.4812546e-05   1.0240260e-04  -1.2115832e-04
  -1.4493328e-04  -8.4238003e-05  -9.5892421e-05  -8.3111983e-05  -4.3359141e-05  -6.1812047e-05  -9.0224166e-05  -6.9312278e-05  -1.7873081e-04   5.0099570e-06  -7.5262389e-05  -1.5814569e-05  -3.6651010e-05  -1.0183494e-04  -2.9894101e-05  -8.1153317e-05  -4.3156237e-05  -1.3471302e-04  -1.3845545e-04  -7.6525095e-05  -2.8645924e-05  -1.2606043e-04  -6.9338566e-05  -2.5969816e-04  -1.6033754e-04  -8.9220208e-05  -4.5766203e-05  -1.3625628e-04  -6.2633393e-05  -9.6023301e-05   3.2501641e-05  -6.1030307e-05   1.3441115e-04  -1.6627304e-04  -5.9356735e-05  -3.7763733e-05  -1.9737132e-04  -4.1622530e-05  -8.5167121e-05  -1.7431530e-04  -7.6196120e-05   4.7266665e-05   8.3765972e-06  -1.8491884e-04  -1.1435800e-04  -7.7146782e-05  -1.3304262e-04   4.4910867e-05   1.3051313e-04  -6.6090586e-05
  -1.4376130e-04  -8.7232664e-05  -9.5385250e-05  -9.9196033e-05  -9.6497373e-05  -9.4562507e-05  -1.2101789e-04  -1.5103907e-04  -2.0713374e-04   1.8918721e-05  -6.3679690e-05  -8.8013767e-05  -3.6156314e-05  -9.7432414e-05  -4.8304018e-06  -6.9682923e-05  -6.0066548e-05  -3.7511221e-05   1.2044713e-04  -1.0210909e-04  -1.8756501e-07  -4.0106181e-05  -7.4305332e-05   8.3115585e-05  -7.0189068e-05  -3.5222278e-05  -1.1277117e-04  -1.6146420e-04  -8.5394102e-05  -9.2834649e-05  -5.9943668e-05  -2.9740138e-05  -1.4397514e-04  -2.1189780e-04  -7.9668178e-05  -9.3584145e-05  -1.6948472e-04  -5.4205582e-05  -9.6334428e-05  -1.2099132e-04  -8.4690997e-05  -4.7240384e-05   4.5454735e-06  -4.6801142e-04   1.0501655e-04  -3.1091165e-04   1.4177139e-04   1.4468382e-05   3.8678139e-05  -5.6484525e-05
  -1.3162072e-04  -8.7360830e-05  -1.0718872e-04  -8.2168764e-05  -9.4610819e-05  -1.0279172e-04  -1.3100721e-04  -7.3105104e-05  -1.8100892e-04   9.4758088e-06  -9.0572699e-05  -1.1559217e-05  -4.7627509e-05  -1.2705312e-04  -4.2346906e-05  -7.5012300e-05  -4.7384390e-05  -5.2446849e-05  -5.3588166e-05  -1.2040106e-04  -2.3828519e-05  -9.7719731e-06  -8.6276756e-05  -1.5801709e-04  -1.0199149e-04  -6.3387044e-05  -1.0890054e-04  -7.4635107e-05  -3.8376980e-05  -9.3579809e-05  -1.5782498e-04  -1.3438448e-05  -2.1898783e-04  -2.2652694e-05  -7.2423449e-05  -1.2973481e-04  -1.3645117e-04  -4.7476329e-05  -1.0511642e-04  -1.0864108e-04  -7.7095443e-05  -5.7702535e-05  -3.8237940e-05  -3.8704681e-04  -4.2239721e-05  -2.3868572e-04  -5.4607237e-05  -1.0684060e-05   1.4283830e-06  -9.1560229e-05
  -1.3566919e-04  -8.1187558e-05  -6.8771151e-05  -8.7080691e-05  -6.4761349e-05  -6.8484442e-05  -1.3626712e-04  -1.7271328e-04  -2.0276110e-04   2.1930473e-05  -6.5357322e-05  -4.7121677e-05  -4.0790972e-05  -5.5515276e-05  -6.5507949e-05  -7.9727892e-05  -4.6752026e-05  -1.3250161e-04   2.4606312e-05  -5.4735319e-05  -9.2578921e-05  -1.3725413e-04   6.7333049e-06  -3.3432685e-04  -4.4214910e-05  -5.2715779e-05  -8.2656770e-05  -1.1138163e-04  -7.1983144e-05  -8.9463407e-05  -5.5421249e-05  -5.7643174e-05   1.7152584e-05  -8.4483087e-05  -8.4538413e-05  -9.0096997e-05  -1.7301574e-04  -3.8106347e-05  -9.1334448e-05  -1.1277012e-04  -8.2602113e-05   3.7814254e-05  -7.0711460e-05   2.1179675e-04  -1.0402230e-04  -2.8788310e-04   6.8132053e-05  -9.7159973e-06   5.0385447e-06  -5.5573582e-05
  -1.2821298e-04  -9.0662215e-05  -7.9818943e-05  -9.4553325e-05  -9.9180426e-05  -5.9473408e-05  -1.1911516e-04  -1.0639055e-04  -2.1728770e-04   2.2676117e-05  -7.0986032e-05  -3.1315882e-05  -3.2872991e-05  -7.3892086e-05  -4.0114312e-05  -7.7789904e-05  -3.7979160e-05  -1.2937147e-04  -2.6757104e-04  -1.1251084e-04  -4.6739504e-05  -9.1015616e-05  -3.3120192e-05   1.8413318e-04  -1.1687614e-04  -7.6045319e-05  -7.0447197e-05  -5.6109751e-05  -8.5935215e-05  -8.2479484e-05  -1.3747935e-05  -1.2266994e-04  -1.5809943e-04  -1.0095786e-05  -6.5975648e-05  -1.1327811e-04  -1.5405018e-04  -5.8288617e-05  -1.0423320e-04  -1.6495783e-04  -8.3674495e-05   2.4026314e-05  -2.6346934e-05   2.2334094e-05   3.1652322e-05  -5.6767851e-05   4.0712959e-05   1.0244245e-05   9.7674987e-05  -1.0886325e-04
  -1.4936402e-04  -7.4955416e-05  -9.7569377e-05  -8.8786197e-05  -1.1945948e-04  -9.0418143e-05  -1.3416457e-04  -6.7420173e-05  -5.8946075e-06   3.1434072e-06  -8.4141364e-05  -8.3202889e-05  -4.8565831e-05  -6.0278162e-05  -5.3629898e-05  -8.2097293e-05  -4.9878508e-05  -9.2222952e-05  -2.9107145e-04  -1.1184693e-04  -1.4993111e-05  -1.5135300e-05  -1.4234649e-05  -2.6834408e-05  -6.4491775e-05  -7.1717346e-05  -5.8060657e-05  -1.4917667e-04  -7.5722630e-05  -8.5847067e-05  -8.5749671e-05  -7.2756498e-05   9.0316818e-05  -2.1303828e-04  -7.0072063e-05  -1.0080211e-04  -1.2509890e-04  -6.4487860e-05  -9.7544988e-05  -1.3152971e-04  -9.8570679e-05   1.0686528e-04  -1.7697745e-05  -5.1093248e-05  -6.9413327e-05  -6.0635128e-05   7.4696050e-06  -2.2371256e-05   1.0062247e-05  -7.2837007e-05
  -1.7598200e-04  -8.0327765e-05  -8.6282183e-05  -9.1270616e-05  -6.2638981e-05  -8.9608657e-05  -1.0364008e-04  -1.2479052e-04  -1.7542340e-04   2.1291013e-05  -5.6555091e-05  -2.2847085e-05  -3.1687796e-05  -9.8008211e-05  -9.2806746e-05  -7.8236044e-05  -4.5073637e-05  -3.9323659e-05  -1.2807100e-04  -9.3354938e-05  -1.8572375e-05  -4.5352157e-05  -4.3753669e-05  -1.8034673e-04  -5.1995998e-05  -8.0477148e-05  -6.9346999e-05  -8.8624947e-05  -6.9086389e-05  -1.0227253e-04   1.5476218e-04  -1.4905827e-04   9.5423529e-05  -2.2979350e-05  -7.7673496e-05  -6.4327898e-05  -1.6871365e-04  -5.5751480e-05  -8.8468958e-05  -1.3496363e-04  -9.0179492e-05   5.1466028e-05  -1.2025627e-05   4.8450808e-04  -2.0667413e-04  -3.8023776e-05   4.4849996e-05  -5.8053363e-05   6.0457078e-05  -5.9983299e-06
  -1.1679986e-04  -8.8204353e-05  -7.4170333e-05  -9.4938623e-05  -1.0843981e-04  -9.7046977e-05  -1.1799484e-04  -1.0463755e-04  -2.3314157e-04   1.3050969e-05  -7.3946743e-05   7.3449371e-07  -2.5033130e-05  -1.0799767e-04  -1.5877402e-05  -7.1471288e-05  -4.4229910e-05  -2.6378040e-05  -1.1131966e-04  -1.2672391e-04  -3.7502414e-05  -7.5345175e-05  -7.5498960e-05  -3.1603624e-05  -9.0799032e-05  -9.0561844e-05  -8.0896280e-05  -1.0928313e-04  -9.5527663e-05  -7.5672033e-05   9.6359341e-05  -3.2866217e-05   2.1857569e-04  -3.3614284e-05  -7.9409838e-05  -8.8297071e-05  -1.2158581e-04  -5.6930316e-05  -9.5578711e-05  -1.1914314e-04  -9.1474642e-05   5.6510657e-05  -3.0118488e-05  -1.5696996e-05  -5.2193376e-05  -9.5797377e-06   1.3926920e-05   3.6519559e-05   7.1767929e-05  -7.6186647e-05
  -1.4963419e-04  -8.4916108e-05  -8.6727428e-05  -8.3280946e-05  -5.5086173e-05  -9.3318573e-05  -1.3064074e-04  -1.2379797e-04  -1.2862666e-04   3.0731783e-06  -8.4473097e-05  -8.8088024e-07  -3.0225119e-05  -7.1959643e-05  -4.4454817e-05  -8.0077123e-05  -3.9730992e-05  -1.6630779e-04   1.0084270e-04  -8.4443644e-05  -4.3159409e-05  -8.1759099e-05  -5.3720043e-05  -3.6621343e-05  -7.7546334e-05  -7.7594079e-05  -9.7600881e-05  -9.2702307e-05  -6.5449130e-05  -8.1958846e-05   1.5049061e-05  -1.0115279e-04   7.0083661e-06  -1.4775551e-04  -9.0009169e-05  -1.1287389e-04  -1.5380493e-04  -5.6430898e-05  -8.4944746e-05  -1.4266391e-04  -7.9775746e-05   3.0706680e-05  -5.6560952e-05  -5.1861920e-04   7.3242838e-05  -1.1619990e-04   2.1206284e-05   9.5004383e-05   6.3019201e-05  -7.9023121e-05
  -1.3635351e-04  -8.5638130e-05  -9.3146744e-05  -8.4977728e-05  -1.1879912e-04  -7.3039540e-05  -1.4299077e-04  -1.1482824e-04  -2.4405120e-04   3.3478151e-05  -5.5664139e-05   1.9903635e-05  -2.4877780e-05  -6.0584094e-05  -3.8168877e-05  -7.5584874e-05  -4.6269019e-05  -1.0445377e-04   3.5907633e-05  -6.9873611e-05  -4.6082518e-05  -2.9960595e-06  -9.2652663e-06   1.9767776e-04   3.0981198e-07  -7.0799535e-05  -9.7122756e-05  -8.3655257e-05  -1.0911817e-04  -9.9964687e-05   1.0357365e-05  -1.2917731e-04   3.8907321e-05  -3.6435838e-05  -7.8230420e-05  -9.5871248e-05  -1.3315048e-04  -6.4377149e-05  -8.7852779e-05  -1.5921130e-04  -1.1451487e-04  -5.4836219e-05  -4.8686041e-05  -3.7621529e-04  -1.3952819e-04   7.8312609e-05   1.1441962e-04   1.5849186e-05  -1.1521021e-04  -1.1718495e-04
  -1.1276770e-04  -7.6276599e-05  -8.9738198e-05  -8.2794955e-05  -8.3891864e-05  -1.0237812e-04  -1.2471624e-04  -8.3141371e-05  -2.9916869e-04   8.5469910e-06  -6.2012921e-05  -3.0942811e-05  -2.4281255e-05  -1.0416473e-04  -5.2050989e-05  -7.4453543e-05  -5.0408427e-05  -1.2026868e-04  -3.0130290e-05  -8.7681838e-05  -4.5646580e-06  -1.3614308e-05  -2.9123703e-05  -6.0502833e-05  -4.7158795e-05  -5.2119020e-05  -5.5531971e-05  -1.0263615e-04  -8.3061037e-05  -8.6160129e-05  -2.9431417e-04  -2.0507054e-04  -2.8102816e-04  -1.2310632e-04  -7.2630704e-05  -8.9312292e-05  -1.6503592e-04  -5.3065862e-05  -9.7688418e-05  -9.0172638e-05  -8.8049026e-05   1.1649205e-05  -2.4812760e-05  -6.9128517e-05  -1.0794873e-04  -4.6135341e-05   1.9217248e-04   2.5691709e-06  -2.2122438e-05  -3.6162175e-05
  -1.3748146e-04  -6.4820786e-05  -9.3785296e-05  -9.0480949e-05  -5.4751676e-05  -7.4345873e-05  -7.9030193e-05  -1.2477455e-04  -2.5443450e-04   2.0486734e-05  -8.2879262e-05  -1.2103392e-05  -1.4177757e-05  -5.9027341e-05  -3.3656715e-06  -8.2323808e-05  -6.0571994e-05  -1.1189924e-04  -1.0811497e-04  -8.0543134e-05  -3.0879717e-05  -1.0761420e-04  -4.4798937e-05  -3.5176075e-05  -5.4418837e-05  -5.9138674e-05  -8.8198460e-05  -5.2211140e-05  -2.5259671e-05  -8.8216177e-05  -8.4455693e-05  -2.8839973e-05  -1.7986313e-05  -1.0354468e-04  -6.7172638e-05  -1.4003243e-04  -1.8821002e-04  -5.7692916e-05  -7.1116076e-05  -1.3836047e-04  -9.9038196e-05  -8.5462967e-04  -1.7896969e-05  -8.9833724e-05  -2.9507896e-04  -1.0211329e-04   6.1813989e-05  -3.0499637e-05   3.7031725e-05  -5.4536769e-05
  -1.1392569e-04  -5.9955273e-05  -9.0743510e-05  -9.0551257e-05  -8.7892477e-05  -7.9211619e-05  -1.1016481e-04  -1.4866178e-04  -1.1117613e-05   3.2439286e-05  -4.9691513e-05  -2.3594079e-05  -1.7045493e-05  -7.1597766e-05  -5.6215413e-05  -7.1058806e-05  -4.9779159e-05  -2.4615014e-05  -5.1055738e-04  -9.1690526e-05  -3.6298417e-05  -4.7649082e-05  -9.1758433e-05  -2.7936773e-04  -7.5942793e-05  -9.3740236e-05  -6.1191757e-05  -5.7122139e-05  -1.0592263e-04  -8.4689076e-05  -5.3799948e-05  -1.1027050e-04  -9.0838672e-05  -1.8152606e-04  -7.2372241e-05  -1.0260959e-04  -1.3606143e-04  -3.1221472e-05  -1.0417945e-04  -1.1274950e-04  -1.0993714e-04   9.0832342e-05   5.9420421e-07  -2.7849324e-05   8.3841605e-06   1.8282906e-04   3.9957256e-05  -3.7309732e-05   1.3985109e-04  -1.2742930e-04
  -1.4624119e-04  -5.9385093e-05  -6.7753877e-05  -8.9426292e-05  -1.2168555e-04  -7.4551470e-05  -9.5895462e-05  -1.1292202e-04  -1.8152612e-04   3.6945146e-06  -7.9252241e-05  -5.5045959e-05  -1.4902211e-05  -7.2950817e-05  -1.9086117e-05  -8.0690239e-05  -5.7754231e-05  -6.4670356e-05  -3.0826902e-04  -1.2692183e-04  -3.1506686e-05  -6.8762216e-05  -3.4419660e-05  -3.2875212e-04  -3.6161509e-05  -6.7286041e-05  -4.6103352e-05  -1.3864425e-04  -1.1142304e-04  -8.0956866e-05  -6.9393180e-05  -1.2969620e-04  -4.7500882e-05  -6.5561653e-05  -6.8930734e-05  -1.1739431e-04  -1.2896793e-04  -6.4776745e-05  -8.4498199e-05  -1.3408031e-04  -1.0822136e-04  -4.3892767e-05  -6.9723108e-05  -1.1149589e-04  -5.7804096e-05  -5.3011678e-05  -2.0396034e-05   3.2350967e-05   2.6137548e-05  -1.1918858e-04
  -1.0672321e-04  -7.2832292e-05  -9.1887290e-05  -9.3914008e-05  -8.8988440e-05  -7.0885661e-05  -1.1459531e-04  -1.8020846e-04  -1.3978114e-04   2.6467105e-05  -6.8419402e-05  -2.4548197e-05  -1.9799932e-05  -8.3459599e-05  -4.6616744e-05  -7.9428653e-05  -5.4315853e-05  -8.4374893e-05  -1.5089051e-04  -8.5077867e-05  -2.2305150e-05  -8.5907232e-05  -6.0849903e-05   1.6939492e-04  -7.0864502e-05  -3.3609958e-05  -5.2381645e-05  -6.0131482e-05  -1.1658196e-04  -8.6938038e-05  -8.3146726e-05   1.5414800e-05   9.7454013e-06  -1.0978658e-04  -8.0170481e-05  -8.2517166e-05  -1.2089377e-04  -5.4085143e-05  -8.5579275e-05  -1.1336339e-04  -1.0355421e-04   9.3429400e-05  -2.7193568e-05  -2.6105641e-04  -1.8909423e-05  -3.5793433e-04  -3.9428403e-05   8.5402635e-06  -6.8473979e-05  -1.0304525e-04
  -1.1748129e-04  -6.4173109e-05  -5.9270489e-05  -8.4937237e-05  -6.8326946e-05  -8.9745183e-05  -1.0376350e-04  -9.0788701e-05  -1.1999178e-04   1.6910319e-05  -6.3384156e-05  -5.1587108e-06  -1.9453459e-05  -8.0322476e-05  -4.7850506e-05  -7.4362877e-05  -6.1426399e-05  -1.2478291e-04  -3.4689161e-04  -1.0510051e-04  -4.0332478e-05  -1.0778890e-04  -1.2598458e-05   2.0450876e-04  -7.8984420e-05  -1.5317752e-05  -7.7184901e-05  -6.9899303e-05  -5.2004303e-05  -8.6861532e-05  -1.2694461e-04  -1.7758935e-04  -6.4079199e-05  -1.7010380e-04  -9.2842725e-05  -3.5629191e-06  -1.5790756e-04  -3.9324179e-05  -8.9376699e-05  -9.3897368e-05  -9.8088865e-05  -6.8237583e-05  -5.3860462e-05  -3.6901620e-04   8.6000982e-05  -8.4916492e-06  -2.8962335e-05  -9.1050388e-05   3.2432035e-05  -8.2777391e-05
  -1.2732798e-04  -6.9459566e-05  -8.7398206e-05  -7.9619866e-05  -1.2516098e-04  -9.6481956e-05  -1.2466394e-04  -7.6854405e-05  -2.0078762e-04   1.2042780e-05  -8.3767110e-05   9.5751830e-06  -2.6475289e-05  -4.6497593e-05  -3.2246637e-05  -8.0249221e-05  -5.4815901e-05  -1.2507332e-04  -1.9460257e-04  -1.1311650e-04  -4.6973430e-05  -7.1804672e-05  -7.3521558e-05  -5.4636301e-05   1.1613194e-05  -3.9597184e-05  -5.0392195e-05  -1.0547649e-04  -9.9087316e-05  -7.3954528e-05   3.1583302e-05  -9.8138262e-05  -3.3474414e-04   1.1369799e-04  -7.2720388e-05  -1.0919513e-04  -1.3852656e-04  -4.9743518e-05  -9.0706468e-05  -1.2028867e-04  -9.9299024e-05   7.2364877e-05  -5.4001568e-05   2.2801844e-04  -2.2196693e-04  -2.0554090e-04   3.9622100e-05   4.3607928e-05  -1.2245329e-06  -3.3755230e-05
  -1.2730088e-04  -6.3953965e-05  -7.7510165e-05  -7.7431250e-05  -1.2306322e-04  -7.0258415e-05  -1.3871559e-04  -6.5721819e-05  -1.2685895e-04   2.6975464e-05  -4.7403959e-05   3.4791778e-05  -3.3619672e-05  -7.0592192e-05  -4.0147981e-05  -9.0225680e-05  -4.7337369e-05  -7.7744218e-05  -3.7615941e-04  -6.7666319e-05   1.9244730e-05  -1.0353477e-04  -9.3957256e-05  -3.0246659e-04   3.0924632e-05  -4.8429782e-05  -4.0130268e-05  -7.3650786e-05  -8.0877580e-05  -8.8440298e-05  -5.1151754e-05  -3.8330883e-05  -9.3988114e-05   9.4695919e-05  -7.7301549e-05  -1.3801547e-04  -1.7763909e-04  -6.3446394e-05  -7.4962205e-05  -9.6978707e-05  -9.5333773e-05   2.7622775e-05  -1.5261985e-05  -1.9951838e-04   2.0551558e-06  -1.6184192e-04  -1.0019965e-04  -3.1451142e-05   5.5271830e-05  -2.6601216e-05
  -9.6006406e-05  -6.8193811e-05  -6.9802671e-05  -8.2458610e-05  -9.1207185e-06  -7.3729294e-05  -1.0372647e-04  -6.3843290e-05  -2.1375233e-04   2.2714725e-05  -5.2492938e-05   1.4789053e-06  -2.4593417e-05  -7.2582610e-05  -5.1380168e-05  -8.0225451e-05  -5.5395867e-05  -1.0770519e-04  -1.6349078e-04  -8.0232909e-05  -1.1122602e-05  -3.5024870e-05  -8.1014514e-06   6.9682988e-05   3.2285782e-06  -3.5832560e-05  -6.1602688e-05  -7.1259696e-05  -1.1883907e-04  -7.9502977e-05   9.3142255e-05  -1.3744242e-04   1.2552569e-04  -1.1539533e-04  -5.9165090e-05  -9.5396943e-05  -1.4054596e-04  -5.9116435e-05  -9.0009264e-05  -8.3383820e-05  -8.8990659e-05   2.1616263e-05  -2.4176701e-05  -2.8113971e-05  -8.9758796e-05  -2.2263192e-04   5.6196790e-05  -3.8281258e-05  -8.6718064e-05  -8.1677805e-05
  -1.2772942e-04  -5.4524342e-05  -6.7262597e-05  -7.7070508e-05  -5.0386661e-05  -6.1056548e-05  -1.2472415e-04  -6.9003931e-05  -1.1788202e-04   2.5783209e-05  -5.8373385e-05  -1.5801888e-05  -2.7805087e-05  -5.0164490e-05  -3.5462781e-05  -7.2262366e-05  -5.5131437e-05  -7.5740954e-06  -1.8805912e-04  -6.4529049e-05  -4.3929835e-05  -5.3346615e-05  -4.0799860e-05  -1.6313477e-04  -2.9214936e-05  -8.0824400e-05  -1.0135926e-04  -7.9260040e-05  -5.6267534e-05  -7.1300885e-05  -1.2930973e-04  -9.3240546e-05   8.5168205e-05  -4.0320159e-05  -5.8640948e-05  -6.7334804e-05  -1.0513264e-04  -5.6885128e-05  -9.1697781e-05  -1.2631016e-04  -8.8105975e-05  -5.7741236e-05  -6.0576560e-05  -6.2706429e-05  -5.0417439e-06  -3.8547310e-05   3.6507256e-05  -6.7669011e-05  -8.3831284e-05  -7.1029695e-05
  -1.0754461e-04  -5.2452830e-05  -7.3793970e-05  -7.6482967e-05  -8.9882567e-05  -5.7310936e-05  -9.2739734e-05  -7.2697636e-05  -9.8613848e-05   3.5951325e-05  -4.4930239e-05  -3.2769454e-05  -1.8378780e-05  -4.8442802e-05  -4.0942479e-05  -6.5310232e-05  -5.7714089e-05  -2.7470289e-05   1.4439323e-04  -4.7022742e-05  -6.2023987e-06  -1.7003795e-05  -3.2954522e-05  -2.3039964e-04  -9.6406238e-06  -5.7708039e-05  -5.7135028e-05  -5.5148019e-05  -6.9403628e-05  -7.1008559e-05  -1.0941279e-05  -3.8256603e-05   4.4674627e-05  -1.4818329e-04  -7.5614669e-05  -1.0142379e-04  -9.2793663e-05  -5.5616070e-05  -8.8971436e-05  -1.0479335e-04  -8.4422747e-05   7.2544739e-05  -2.9340757e-05  -4.8575734e-05  -1.3141715e-05  -2.0625203e-05  -5.1634845e-05  -5.7338788e-05  -1.5803294e-05  -8.3181651e-05
  -1.3061744e-04  -6.3114137e-05  -5.7709218e-05  -7.2364841e-05  -2.3517914e-05  -5.5906770e-05  -8.3318555e-05  -5.0133665e-05  -1.4300265e-04   4.4519544e-05  -6.2540625e-05   8.4391822e-06  -1.7963588e-05  -7.6131197e-05  -3.9926435e-05  -7.5733929e-05  -4.9247607e-05  -2.1278360e-05  -3.3142441e-04  -8.9539724e-05  -1.6422662e-05  -3.1154632e-05  -3.4829802e-05  -8.7704815e-05   3.6184808e-06  -5.1127747e-05  -5.2467367e-05  -1.0421562e-04  -8.7079366e-05  -6.2687264e-05  -5.7011017e-05  -1.8868418e-04  -3.3274264e-05  -1.5076467e-04  -5.9741826e-05  -2.8694345e-05  -5.1689796e-05  -5.9091904e-05  -7.3822521e-05  -1.5528627e-04  -1.1095676e-04   4.7513080e-05  -4.2135394e-05  -1.0504820e-04  -1.8396798e-04  -1.4896606e-04  -8.7757486e-05   1.5359950e-05   3.7094454e-05  -5.8997804e-05
  -1.2896727e-04  -5.1558647e-05  -5.7814919e-05  -6.6304943e-05  -4.0611478e-05  -3.9454593e-05  -7.7670309e-05  -9.5406533e-05  -4.8825626e-05   2.6775881e-05  -5.7229070e-05   8.6417051e-05  -2.3590299e-05  -5.9946611e-05  -1.6575561e-05  -7.7720098e-05  -6.1486324e-05  -9.0927162e-05  -1.9082701e-04  -7.0157155e-05  -9.2031314e-06  -5.6423491e-05   3.2490378e-05  -1.1603825e-04  -2.6316391e-05  -6.3437961e-05  -9.8903278e-05  -5.7430003e-05  -4.8726528e-05  -5.4159620e-05  -1.0114825e-04  -1.3317724e-04  -2.2196610e-04  -6.4246153e-05  -6.6125802e-05  -4.0900890e-05  -1.1003215e-04  -5.5308443e-05  -9.5695366e-05  -9.2557755e-05  -6.8045054e-05   4.1553005e-05  -7.8571502e-05  -2.1736250e-04  -6.1586798e-05  -1.2347677e-04   1.0432227e-04  -3.5405941e-05   1.1431082e-05  -9.4430216e-05
  -9.3706338e-05  -6.1929764e-05  -6.3527375e-05  -7.6513745e-05  -3.0735046e-05  -6.2464875e-05  -1.0161003e-04  -8.8621528e-05  -1.7512313e-04   6.2400504e-05  -2.4698900e-05   2.3842611e-05  -2.7331609e-05  -7.3234412e-05  -1.8641002e-05  -7.1974056e-05  -6.0730334e-05  -2.6724816e-05   6.0060822e-05  -5.3355474e-05  -6.7871420e-06   1.5542705e-06  -3.7413772e-06   9.3394483e-05  -2.2036453e-05  -4.0424795e-05  -5.1626695e-05  -8.6952357e-05  -1.9707762e-05  -6.9489477e-05  -6.7911453e-05  -6.4863845e-05   1.1591246e-05  -4.2770931e-05  -6.5036998e-05  -4.3976797e-05  -1.3024171e-04  -4.3361335e-05  -7.7319892e-05  -9.4438154e-05  -6.4487707e-05   8.3888617e-06  -5.5898337e-05   2.1426252e-04  -4.6775356e-05   8.8151093e-05   5.9726799e-06  -4.3431399e-05  -7.2393399e-05  -8.8258981e-05
  -9.5737872e-05  -5.8275000e-05  -5.4493110e-05  -6.5739121e-05  -5.0324194e-05  -6.0701048e-05  -8.9544490e-05  -6.0705832e-05  -4.7879392e-05   4.1020659e-05  -3.8669768e-05   3.7033777e-05  -2.0161613e-05  -2.7574453e-05  -4.1629428e-05  -6.7062480e-05  -5.3171647e-05  -2.3621807e-05  -3.6908389e-04  -7.9276819e-05   1.8349472e-06  -9.1921116e-05  -4.4358068e-05  -6.4827094e-05  -6.0089533e-05  -4.6922029e-05  -3.0754833e-05  -7.0588205e-05  -6.9540889e-05  -5.9615912e-05  -7.7480378e-05  -1.1265975e-04  -1.4569517e-04  -5.2165546e-05  -6.9627233e-05  -9.4688483e-05  -9.8136639e-05  -7.0019974e-05  -9.1652910e-05  -8.2180952e-05  -7.5407734e-05  -3.5450976e-05  -6.7133420e-05   2.4939174e-05  -4.4632186e-05  -2.5628560e-04  -1.7174671e-05  -5.4056811e-05  -3.2921403e-06  -6.1650302e-05
  -8.5776905e-05  -5.0707891e-05  -4.0675204e-05  -5.8736947e-05  -1.1634735e-05  -6.8127491e-05  -9.3671180e-05  -9.7687611e-05   1.8588461e-06   5.1195180e-05  -4.0881776e-05   2.9277906e-05  -1.9119296e-05  -3.8940296e-05  -1.1148381e-05  -7.0196060e-05  -5.1555649e-05   9.8264836e-06  -2.1054540e-04  -5.7651487e-05   4.4217290e-06  -1.3808571e-04  -3.9744529e-05  -5.3667496e-05  -5.4415574e-05  -3.8786544e-05  -4.8204201e-05   3.7876337e-06  -1.0257386e-04  -5.6163462e-05  -8.7190077e-05  -3.8380866e-05  -3.7000176e-05   3.2800548e-05  -7.0679598e-05  -3.8315837e-05  -1.2260801e-04  -4.0204053e-05  -5.8777048e-05  -9.8580364e-05  -7.4014315e-05   6.1718124e-06  -5.2306768e-05   4.1261428e-05  -8.2361781e-05  -6.5513882e-06  -3.6625199e-06  -1.3989103e-05  -1.5246860e-05  -8.0361155e-05
  -4.8909493e-05  -6.1903251e-05  -6.0210918e-05  -6.7494322e-05  -7.4591124e-05  -7.1688715e-05  -5.0218794e-05  -2.9486415e-05   1.4668914e-06   6.3121501e-05  -1.3571919e-05   9.6920841e-05  -3.0382593e-05  -4.6670775e-05  -8.7758119e-05  -6.6704524e-05  -4.7260295e-05  -4.4305874e-05  -1.7570470e-04  -5.6100536e-05   2.3701891e-06  -1.5144829e-04  -1.5116370e-05  -2.1205103e-04  -7.3805488e-05  -2.0515414e-05  -6.0751878e-05  -7.7583456e-05  -1.1260041e-04  -6.3897380e-05  -1.0041041e-04  -1.0041237e-04  -1.0864471e-04  -1.0790666e-04  -7.3824966e-05  -7.9124569e-05  -1.3047401e-04  -4.9316142e-05  -6.9676185e-05  -1.0150921e-04  -7.7109136e-05   1.8092524e-05  -7.1157607e-05   1.0069642e-04   5.4731474e-05  -6.8823334e-05   3.1314357e-05   4.7041867e-05  -1.2011958e-04  -5.2862404e-05
  -1.0069816e-04  -5.8548088e-05  -5.4252592e-05  -6.1813553e-05  -5.5558317e-05  -4.3372569e-05  -8.8065790e-05  -3.0522588e-05  -8.3937492e-05   5.3734231e-05  -3.2758489e-05   2.7108514e-05  -1.8831011e-05  -4.0452025e-05  -4.6729387e-05  -7.9083220e-05  -4.7934824e-05   1.4118767e-05   2.0874507e-04  -3.8695736e-05  -4.1673931e-05  -4.0940253e-05   2.1749314e-05  -9.4461291e-05  -3.1597410e-05  -6.0453880e-05  -6.7125234e-06  -1.0806577e-04  -5.0264680e-05  -4.1092990e-05   5.5269978e-05  -3.7185415e-05   1.2890733e-05  -5.8966925e-05  -7.1023984e-05  -7.4609983e-05  -9.3263079e-05  -6.0670118e-05  -7.3543968e-05  -8.6173881e-05  -6.3867017e-05  -1.8103166e-05  -7.6502911e-05  -2.2323205e-04   1.7491745e-08  -1.1250552e-04   7.8932790e-05  -3.8704900e-05  -1.4352433e-04  -8.5404623e-05
