  -3.4274879e-05  -3.2859782e-05   1.0809076e-04  -6.0606435e-05  -9.0751855e-05  -1.2209211e-04  -1.5348666e-04  -1.6906713e-04  -3.0342274e-04   7.4898584e-05  -1.5864648e-04  -1.6481636e-04  -3.2903129e-04  -3.4981308e-04  -1.7284149e-04  -2.8370830e-04  -1.7789334e-04  -3.4395768e-04  -1.3088026e-04  -1.1717103e-04  -3.5752353e-06  -6.4993683e-06  -3.4428781e-04  -1.3445255e-04  -3.2307333e-04  -3.4783347e-04  -2.3761220e-04  -2.7805605e-04  -2.3594199e-04  -2.4870478e-04  -1.3502585e-04  -1.2213373e-04  -4.7215412e-04  -2.0899906e-04  -3.0461268e-04  -4.8928807e-04  -2.5005901e-04  -2.1823471e-04  -1.5905384e-04  -2.8502205e-04  -4.6476041e-04  -1.4151471e-04  -2.7361413e-04  -3.3090453e-04  -1.5843003e-04  -2.8977331e-04  -1.5408364e-04  -8.1430291e-05  -3.6053362e-04  -4.4507394e-04
  -2.5440333e-04  -2.2688872e-04  -2.6999120e-04  -3.1912292e-04  -2.3223415e-04  -3.9025940e-04  -3.5899424e-04  -4.7012116e-04  -4.7929824e-04  -1.0815414e-04  -3.7591605e-04  -2.5257547e-04  -4.3691020e-04  -4.5679446e-04  -2.3650916e-04  -3.9234824e-04  -2.5803666e-04  -3.5353098e-04  -1.3276890e-04  -1.5167629e-04   2.7987880e-05  -1.7473234e-05  -3.3003450e-04  -1.4721886e-04  -2.8651027e-04  -2.3100800e-04  -1.9399446e-04  -2.7167768e-04  -1.9501557e-04  -2.2090034e-04  -8.6659034e-05  -1.5588784e-04  -8.6516244e-05  -1.7010943e-04  -2.2057227e-04  -2.7804135e-04  -1.8486338e-04  -1.1180580e-04  -5.9721635e-05  -1.4270142e-04  -1.8249985e-04   1.1438177e-04  -1.7735107e-04  -2.6412003e-04   3.7956106e-05  -9.2536211e-05   1.0757078e-04   8.1557941e-05  -1.3833870e-04  -2.1201097e-04
   1.9924493e-04   1.8724738e-04   4.1162255e-04   2.0987102e-04   1.7195333e-04   1.0573570e-04   1.1644092e-04   6.3341868e-05   8.5026722e-06   2.8789378e-04   5.8925714e-05   5.4015112e-05  -1.5863977e-04  -1.0653868e-04  -9.9558929e-05  -7.5611119e-05   2.4495974e-05  -1.1526007e-04   9.3525203e-05   9.4478921e-05   2.8491160e-04   2.0937606e-04  -2.1918990e-04  -2.6218736e-04  -9.9929290e-05  -1.4228602e-04  -3.0797957e-05  -9.8079785e-05  -2.8289527e-05  -7.3078307e-05   1.1499367e-04  -4.2627806e-05   2.4905903e-04   3.3600969e-05  -7.7452860e-05  -1.5997380e-04  -1.2987098e-04   5.1926513e-06   4.1774911e-05  -6.0955667e-06  -1.8231380e-04   1.5323816e-04  -1.3641683e-04   1.1740354e-04   5.6256140e-05  -2.6979030e-04   1.0827083e-04   9.8153600e-05  -9.9979879e-05  -2.4037744e-04
   8.6095184e-05   1.0725595e-04   2.1496725e-04   1.0455042e-04   1.4995779e-05  -4.2324824e-05  -5.5681812e-05  -1.2862151e-04  -8.5544394e-05   7.0693670e-05  -1.0293903e-04  -1.0476216e-04  -2.4306787e-04  -2.0219279e-04  -1.4523511e-04  -1.5764078e-04  -1.3654630e-05  -1.9132307e-04  -1.9230772e-04   1.8823433e-05   9.2609182e-05   1.2397136e-04  -3.2424415e-04  -4.8463763e-04  -1.8159162e-04  -2.4552338e-04  -1.2516546e-04  -1.5685223e-04  -1.5623358e-04  -1.5132598e-04  -2.2182416e-05  -1.7111537e-05   6.7924298e-06  -2.0192628e-04  -2.0899935e-04  -3.9172990e-04  -1.5912496e-04  -1.3432192e-04  -6.9502297e-05  -2.0081113e-04  -4.0259867e-04  -1.9446931e-04  -2.4694519e-04  -3.0637317e-04   6.1929153e-05  -1.7974262e-04  -1.5604449e-04  -6.5327331e-05  -3.2628424e-04  -3.0740973e-04
  -1.5166124e-04  -8.7075110e-05   3.4075278e-05  -4.5665165e-05  -8.0804792e-05  -8.2236445e-05  -9.5723342e-05  -1.3987148e-04  -1.1451513e-04   1.9039348e-04  -8.0235193e-05  -3.1371288e-05  -1.6989397e-04  -1.5886144e-04  -1.2965589e-04  -6.9348207e-05   2.2001623e-05  -1.8015415e-04  -1.4277884e-04   1.6108713e-04   3.0301919e-04   2.6411653e-04  -1.2790230e-04   1.2899531e-04  -1.1178188e-04  -8.0862956e-05   3.4089946e-05  -4.1643660e-05   4.4784974e-05  -1.2703921e-05   1.5459403e-04  -1.0275695e-04   2.9337587e-04  -4.4645349e-05  -6.3784628e-06  -4.3514359e-05   5.5678891e-05   1.1797437e-04   1.4982818e-04   1.0506654e-04  -5.8082078e-06   2.4550024e-04  -6.5619213e-05   3.6271976e-04   1.0917675e-04   9.6096141e-05   2.6610377e-04   1.4707579e-04  -1.8920940e-05  -6.2317376e-05
   3.4525426e-04   3.0202486e-04   6.2680338e-04   4.2899550e-04   3.1382969e-04   2.5314398e-04   2.8355105e-04   1.8721652e-04   8.0027814e-05   3.7238339e-04   1.9966310e-04   2.2708984e-04  -5.0392114e-06   7.4207011e-05  -1.1479972e-05   1.4539783e-04   2.0252986e-04  -6.5090780e-06  -1.5659083e-05   3.8151225e-04   4.7043955e-04   3.7561587e-04  -1.0843963e-04  -1.7261818e-04  -8.6747314e-05  -5.7973182e-05   1.0807874e-04   1.0474336e-04   1.4850953e-04   6.9622700e-05   3.7717208e-04   1.0972679e-04   1.6098104e-04   1.2766539e-04   7.1920455e-05  -3.1891650e-05   5.0528943e-05   1.6793740e-04   2.1051805e-04   1.1924955e-04  -7.8178382e-05   1.9351355e-04  -4.9630169e-05   5.4883953e-06   2.3757914e-04  -2.9755038e-05   2.5406037e-04   5.9723901e-05   4.1562809e-05  -1.1456006e-04
   2.2282162e-04   1.8851235e-04   3.7316233e-04   2.7792950e-04   1.5547589e-04   2.0273133e-05   1.1574138e-04   2.7110367e-05  -1.4230459e-04   1.2934272e-04  -4.4831245e-06   1.6690139e-05  -1.3695667e-04  -1.2150098e-04  -7.8703662e-05   4.2154043e-05   1.1752791e-04  -9.5653586e-06   6.9795053e-05   1.9713030e-04   2.2895468e-04   2.4024626e-04  -2.9076656e-04  -1.0586739e-04  -1.9290083e-04  -1.7914310e-04  -5.2837429e-05  -3.3331478e-05   4.9284590e-05  -4.9506561e-05   2.3751384e-06  -1.0566105e-04   9.0626287e-05   6.4130865e-05  -7.1701979e-05  -2.9561226e-04  -4.6977613e-05   3.5773558e-06   4.0942301e-05  -5.2851010e-05  -3.2937492e-04  -1.0658064e-04  -2.4298931e-04   4.1972878e-04   2.3218887e-05  -1.5395548e-04   1.0146562e-04  -2.3416660e-05  -3.5025933e-04  -3.4225214e-04
  -1.0027687e-04  -7.2559458e-05  -6.3222898e-05  -4.9562801e-05  -1.4505655e-04  -2.8873925e-04  -1.3795980e-04  -2.9693931e-04  -4.6410461e-04  -1.7574338e-04  -3.4421537e-04  -2.4956311e-04  -3.8949293e-04  -3.3483561e-04  -2.0862526e-04  -1.9162470e-04  -1.0695560e-04  -1.7614191e-04  -5.3016513e-05  -1.5520391e-05   1.0314007e-05   6.7172630e-05  -4.0986750e-04  -1.3631857e-04  -2.9384944e-04  -3.2622868e-04  -1.2544621e-04  -1.5171760e-04  -1.1561930e-04  -1.1356382e-04   3.7227637e-05  -4.2667962e-05  -1.6983513e-05  -7.2915973e-06  -6.2439489e-05  -2.3550770e-04  -4.2508113e-05   3.9430521e-05   9.5250572e-05   3.3602031e-05  -1.4789501e-04  -1.2286051e-04  -2.3608522e-04  -1.2088090e-04   7.1743394e-05  -3.6202422e-05   5.2417126e-05  -2.2923257e-05  -9.5086019e-05  -1.8077914e-04
   3.6917327e-04   2.5228711e-04   6.4670370e-04   4.7284469e-04   3.9847929e-04   2.0036516e-04   3.9780591e-04   2.8824600e-04   6.7361441e-05   3.9665587e-04   2.0435182e-04   2.2254832e-04  -5.0002571e-05   4.7530797e-05  -5.6022214e-05   2.1567734e-04   1.7168149e-04  -3.5306164e-06   1.3688618e-04   3.3539475e-04   3.5158906e-04   3.7121036e-04  -1.1205481e-04   2.2420280e-04  -1.9096321e-04  -1.6498282e-04   2.0930586e-04   5.3420532e-05   2.6651056e-04   1.2972081e-04   2.3873401e-04   1.9622318e-04   3.1543424e-04   1.1606166e-04   1.5476355e-04  -4.3315860e-05   2.0925737e-04   2.3628106e-04   3.1192676e-04   2.4767578e-04  -6.1497514e-05   1.9002691e-04  -1.0113962e-04   5.7764456e-04   2.1881079e-04   1.9677947e-04   1.4508533e-04   2.4769486e-05  -1.6026064e-04  -8.6708998e-05
   3.4930659e-04   2.2318147e-04   5.8078411e-04   4.4309429e-04   2.7294725e-04   7.4397300e-05   3.0880023e-04   1.4470686e-04  -8.3951476e-05   1.9591743e-04   5.8380803e-05   1.1930055e-04  -1.1571385e-04  -1.8609255e-05  -9.2912567e-05   2.0589188e-04   1.6002286e-04   2.0216616e-05   6.6644578e-05   2.4454482e-04   2.2137992e-04   2.7512162e-04  -2.0789010e-04  -2.4029521e-04  -2.2450859e-04  -2.7718293e-04   8.2686813e-05   7.3561911e-05   2.0483142e-04   1.0263254e-04   1.2515503e-04   1.0609771e-04   2.3965431e-04   1.3551797e-04   6.9394991e-05  -2.3670019e-04   1.0512122e-04   1.4757350e-04   2.0262315e-04   7.1212125e-05  -3.1560217e-04  -1.3949440e-04  -1.9500179e-04   2.3965335e-04   7.1273374e-05   1.4025914e-05  -2.5822406e-04  -2.0281441e-05  -4.3339902e-04  -2.7978612e-04
   3.2555719e-05   3.7514374e-06   1.0224295e-04   1.2790480e-04  -1.4078133e-05  -2.9076790e-04   1.3369880e-05  -4.8191527e-05  -2.5501262e-04  -1.0326087e-04  -2.6847562e-04  -2.8517665e-04  -3.5405371e-04  -2.5796713e-04  -1.5829674e-04  -1.2971181e-05  -7.4221382e-05  -1.3822499e-04  -2.1321206e-04   1.0625690e-05  -5.5147426e-05   2.1910537e-05  -5.2177964e-04  -3.6859448e-04  -5.7581026e-04  -5.0082058e-04  -9.3396520e-05  -1.4769411e-04  -2.3018840e-05  -6.1736362e-05  -3.6812577e-05  -3.0932704e-06  -1.5647888e-04  -1.4187228e-04  -1.4183950e-04  -5.0038914e-04  -8.2707651e-05  -3.5161411e-05   1.9046911e-05  -9.2922914e-05  -6.0241879e-04  -4.6061669e-04  -4.0547611e-04  -3.1124585e-04  -1.4576517e-04  -1.6872700e-04  -2.9337720e-04  -2.2995897e-04  -6.5651978e-04  -4.9278169e-04
  -3.0624363e-04  -2.8387332e-04  -1.7821271e-04  -1.2783360e-04  -1.6465299e-04  -4.4932065e-04  -1.4826791e-04  -2.5435732e-04  -1.9865923e-04  -4.5344445e-05  -3.1202793e-04  -1.3883710e-04  -3.9524512e-04  -2.7896406e-04  -2.7594261e-04   5.0793092e-06  -1.6523438e-04  -1.0505594e-04  -2.3431692e-04   2.4971543e-05   3.2323274e-05   7.4347481e-05  -3.3684340e-04  -2.9542740e-04  -6.0345244e-04  -4.6871268e-04   5.3608801e-05  -3.8075024e-05   1.1862211e-04   4.9439364e-05   5.2042891e-05  -7.9445963e-05  -1.0530093e-04  -2.3115726e-05  -4.9903454e-05  -1.9684297e-04   1.2944746e-04   1.5276366e-04   2.5578233e-04   1.4098300e-04  -2.4611090e-04  -1.6277019e-04  -3.0525064e-04   3.0661435e-04  -5.2036648e-05   1.9239038e-05  -1.6109362e-04  -6.0547391e-05  -4.4901096e-04  -3.0266709e-04
   2.2353955e-04   8.9268731e-05   4.9169787e-04   3.5718706e-04   2.1765607e-04  -1.3477428e-04   2.6717500e-04   3.1040917e-04   3.1500304e-06   1.9546702e-04  -4.8659149e-05   6.1532286e-05  -3.0847863e-04  -9.3284529e-05  -1.9405900e-04   1.9775066e-04  -2.3511739e-05   2.0229128e-05   7.8395875e-05   5.0488463e-05   1.1838179e-04  -2.6609752e-05  -3.4491112e-04  -3.8137194e-04  -5.9575035e-04  -4.7231794e-04   1.5935671e-04   5.4375567e-05   2.2321939e-04   1.4349598e-04   7.2082985e-06   1.5887005e-04  -1.9145086e-04   4.4540295e-05  -3.7611139e-06  -2.2620303e-04   1.4723701e-04   2.1959322e-04   2.9631919e-04   1.7653246e-04  -3.7911159e-04  -2.8659019e-04  -3.0176737e-04   1.9413847e-05  -4.4383261e-05  -2.3445468e-04  -3.1737634e-04  -8.6507534e-05  -3.9133898e-04  -2.7585437e-04
   1.5798287e-05  -5.3599484e-05   2.1469047e-04   2.0077583e-04   5.1313225e-05  -3.6004162e-04   1.1052300e-04   2.2404649e-05  -2.7870436e-04  -3.8050119e-05  -2.7082421e-04  -2.2621365e-04  -5.0297164e-04  -2.6074448e-04  -2.7489173e-04   7.8350509e-05  -1.4789442e-04  -2.6059370e-05  -6.4225704e-04  -8.4453088e-05  -1.1526850e-04  -2.8389142e-04  -4.8003980e-04  -5.6757114e-04  -8.1604125e-04  -6.3296943e-04   2.5969099e-05  -1.1174758e-04   9.6550488e-05   2.8699740e-05  -1.3241477e-04  -1.0604712e-04  -1.3266235e-04  -1.9287197e-04  -1.5684887e-04  -4.3198312e-04   3.2250017e-07   4.1895601e-05   1.0572227e-04  -1.5128702e-05  -6.4300635e-04  -5.9238158e-04  -4.5422107e-04   9.4060953e-05   5.2122403e-05  -2.7866065e-04  -5.8984931e-04  -2.8004588e-04  -7.8099809e-04  -5.0635845e-04
  -3.0190448e-04  -3.1594379e-04  -2.3156666e-04  -1.6596405e-04  -3.1598477e-04  -6.9630390e-04  -1.8385927e-04  -3.0303665e-04  -6.0629804e-04  -3.0409719e-04  -6.0811063e-04  -3.8199569e-04  -7.9499546e-04  -4.8369556e-04  -4.0991919e-04  -1.7921452e-04  -3.9958878e-04  -2.2407308e-04  -3.1428647e-04  -3.4326955e-04  -3.8492886e-04  -5.0125574e-04  -7.6723529e-04  -9.9118485e-04  -1.0746660e-03  -7.8873563e-04  -1.9977479e-04  -2.8773522e-04  -1.2211804e-04  -1.4876762e-04  -2.8555660e-04  -9.1292946e-05  -3.8377597e-04  -3.5183757e-04  -4.1224388e-04  -7.8126654e-04  -1.9199910e-04  -1.7693588e-04  -8.0380196e-05  -2.3749081e-04  -8.6111034e-04  -7.9599750e-04  -6.2325271e-04  -1.6669945e-04  -1.6429779e-04  -4.4305634e-04  -5.9868110e-04  -3.9934035e-04  -7.1326882e-04  -5.9246644e-04
  -2.2908908e-04  -2.7090497e-04   4.8929596e-05   1.7206223e-05  -4.7739308e-05  -5.0356274e-04  -1.3741271e-05  -2.2797010e-05  -5.4227834e-04   7.3289148e-06  -3.8241915e-04  -1.6287960e-04  -6.8445248e-04  -3.6332553e-04  -4.4587450e-04  -5.7254174e-06  -3.8795767e-04  -1.0982438e-04  -1.4482773e-04  -2.3953084e-04  -1.6479501e-04  -3.7688870e-04  -4.9363391e-04  -4.3623507e-04  -9.8947994e-04  -6.6103239e-04   4.5465844e-05  -1.8708064e-04   1.5877525e-04   4.9790367e-05  -2.1045915e-04  -1.0852463e-04  -5.5396085e-04  -9.1904200e-05  -2.5635422e-04  -4.1513771e-04   7.0620787e-05   1.1986095e-04   2.0438265e-04   3.9902279e-05  -6.0629740e-04  -6.3637487e-04  -5.0850061e-04  -1.0223742e-05  -2.1105410e-05  -2.8103113e-04  -3.6251184e-04  -3.2872663e-04  -5.6088297e-04  -5.6635722e-04
  -1.3526523e-04  -1.9587897e-04   1.4071976e-04   7.9095844e-05   2.3345950e-05  -4.9248972e-04   1.4529213e-05  -3.7118538e-05  -5.1573105e-04  -2.1072660e-06  -3.8676991e-04  -1.5206418e-04  -6.9901341e-04  -3.5196010e-04  -4.1927400e-04   1.5565594e-05  -3.7050445e-04  -4.0250932e-05  -3.4277971e-04  -3.7696506e-04  -2.1758827e-04  -4.2391292e-04  -5.7280937e-04  -3.2149098e-04  -9.7113883e-04  -7.7322294e-04  -6.0910129e-06  -2.3144695e-04   7.8364850e-05   1.6123357e-05  -3.1545226e-04  -9.3292329e-05  -4.7900851e-04  -1.7729563e-04  -3.2464252e-04  -5.2454678e-04  -4.3662290e-05   5.9475085e-05   1.5169970e-04  -6.6742556e-05  -7.6514052e-04  -7.7495776e-04  -5.6404487e-04   5.2602118e-05  -1.6098567e-04  -1.8466533e-04  -5.3997285e-04  -3.6991504e-04  -7.7152939e-04  -6.7351380e-04
  -4.0346748e-04  -4.1122240e-04  -2.6891610e-04  -2.1886340e-04  -3.7960324e-04  -7.5814716e-04  -2.1491414e-04  -2.8537554e-04  -7.7112846e-04  -2.6853883e-04  -6.4598460e-04  -4.2175979e-04  -9.2939974e-04  -5.3429016e-04  -4.8322204e-04  -2.1841463e-04  -5.7550572e-04  -2.1612260e-04  -8.4710086e-04  -5.4092653e-04  -4.1900625e-04  -6.6249125e-04  -7.1408908e-04  -6.3689135e-04  -1.2550539e-03  -8.6915545e-04  -2.0275019e-04  -3.5717367e-04  -7.1882481e-05  -1.3502498e-04  -4.1523590e-04  -2.2870209e-04  -4.4501331e-04  -2.8217203e-04  -5.0637953e-04  -8.0150057e-04  -1.7722840e-04  -1.3382405e-04  -3.7273152e-05  -3.2391711e-04  -1.0229717e-03  -1.0408617e-03  -7.9316675e-04  -4.9960276e-04  -1.0628438e-04  -3.6580622e-04  -8.9921703e-04  -4.8703712e-04  -9.7196642e-04  -8.7185967e-04
  -7.6145068e-04  -6.7398313e-04  -7.4375223e-04  -5.9705239e-04  -7.1449846e-04  -1.1294619e-03  -5.5898452e-04  -5.0651794e-04  -9.5869252e-04  -5.3031993e-04  -9.8702370e-04  -6.4352882e-04  -1.1992266e-03  -8.0728304e-04  -6.1895285e-04  -4.9115781e-04  -8.0434757e-04  -4.8537363e-04  -9.6634479e-04  -7.3724461e-04  -5.8241631e-04  -8.8572974e-04  -8.4760162e-04  -9.7838941e-04  -1.4192245e-03  -9.8608143e-04  -3.2418588e-04  -4.6629214e-04  -1.9375660e-04  -2.4491880e-04  -5.2167452e-04  -4.2058821e-04  -4.4686793e-04  -2.2779648e-04  -5.7650899e-04  -6.8592763e-04  -2.8097726e-04  -1.4904118e-04  -3.9786188e-05  -3.2847311e-04  -8.6924701e-04  -8.8281481e-04  -7.3736417e-04  -5.7054491e-04  -3.1756156e-04  -5.4579141e-04  -7.9267524e-04  -5.1736349e-04  -8.7623973e-04  -8.4474817e-04
  -4.2188290e-04  -4.4638227e-04  -1.5563829e-04  -2.2182494e-04  -2.6142754e-04  -7.4529409e-04  -2.2043023e-04  -1.6576966e-04  -4.9578474e-04  -1.0615226e-04  -5.9907517e-04  -3.0987937e-04  -9.4009226e-04  -5.2962697e-04  -5.8546138e-04  -2.2488451e-04  -6.9068844e-04  -3.1068310e-04  -5.0693634e-04  -6.2376156e-04  -4.1580517e-04  -7.3290459e-04  -6.3117646e-04  -6.0281134e-04  -1.2794974e-03  -8.5891859e-04  -1.3007803e-04  -3.9952039e-04  -8.9084932e-07  -1.0036053e-04  -6.8229559e-04  -2.1974031e-04  -1.2560065e-04  -3.0565538e-04  -5.4822728e-04  -7.0037483e-04  -1.3600421e-04  -3.0302273e-05   5.7379584e-05  -2.6227374e-04  -8.8426826e-04  -9.4440684e-04  -7.3907379e-04  -5.7891844e-04  -2.2773117e-04  -7.3245924e-04  -7.7429978e-04  -4.8933312e-04  -1.0352400e-03  -8.6311408e-04
  -5.3020479e-04  -5.0609221e-04  -3.5810174e-04  -3.8041605e-04  -4.5246238e-04  -9.0010540e-04  -4.0853972e-04  -2.8825155e-04  -8.1928598e-04  -2.4365309e-04  -7.2967442e-04  -4.5234841e-04  -1.0118355e-03  -6.4237707e-04  -5.9032888e-04  -3.1439849e-04  -7.7223527e-04  -4.2927623e-04  -8.1152713e-04  -7.3328119e-04  -4.9147848e-04  -8.9800556e-04  -7.5309171e-04  -4.7069494e-04  -1.3235128e-03  -9.0589561e-04  -3.1371388e-04  -4.8042848e-04  -1.7360652e-04  -1.9776248e-04  -6.0167693e-04  -2.1687175e-04  -6.9372356e-04  -5.1844324e-04  -6.4147945e-04  -8.2766556e-04  -2.7545565e-04  -1.9765031e-04  -1.0459332e-04  -4.3877409e-04  -1.0982029e-03  -1.0713544e-03  -8.3939353e-04  -7.8530499e-04  -2.4915513e-04  -5.1220780e-04  -8.9187181e-04  -5.9232692e-04  -9.9207007e-04  -9.5782208e-04
  -8.4368000e-04  -7.2978955e-04  -8.1001938e-04  -7.1554218e-04  -7.5609417e-04  -1.1856053e-03  -6.8208494e-04  -5.9117074e-04  -1.0591511e-03  -4.9445091e-04  -9.8585826e-04  -6.5508328e-04  -1.2470930e-03  -8.5341174e-04  -7.2452065e-04  -5.9118203e-04  -9.6063915e-04  -5.8299437e-04  -1.0004796e-03  -9.7516336e-04  -7.0740620e-04  -1.0708278e-03  -9.2695490e-04  -1.3517507e-03  -1.5415442e-03  -1.0709286e-03  -4.7777142e-04  -5.9858704e-04  -2.8530209e-04  -3.6531471e-04  -8.0123299e-04  -5.2658585e-04  -6.6436164e-04  -7.3850661e-04  -8.4306078e-04  -1.1040630e-03  -4.5851769e-04  -4.3309495e-04  -3.2352263e-04  -6.6983898e-04  -1.3792409e-03  -1.3649440e-03  -9.9231978e-04  -3.5260938e-04  -8.0243591e-04  -9.7371649e-04  -1.1101842e-03  -6.7949103e-04  -1.1629937e-03  -1.0789300e-03
  -9.6918817e-04  -8.2727562e-04  -8.2362304e-04  -7.5553433e-04  -6.9519534e-04  -1.1099817e-03  -6.6008233e-04  -6.0704153e-04  -9.7380026e-04  -3.1041852e-04  -9.0286823e-04  -4.7539466e-04  -1.1465797e-03  -7.6319271e-04  -7.4291520e-04  -5.2945100e-04  -9.9561724e-04  -5.8926264e-04  -1.4223541e-03  -9.2794816e-04  -5.6485710e-04  -9.4650855e-04  -6.9676724e-04  -6.3136336e-04  -1.4308970e-03  -9.2485803e-04  -3.1195211e-04  -6.0890103e-04  -2.6484395e-04  -2.8291624e-04  -6.6327618e-04  -4.2263616e-04  -7.4504223e-04  -5.3896796e-04  -7.3977292e-04  -8.5066055e-04  -3.3227619e-04  -2.4523149e-04  -1.4331591e-04  -4.7850859e-04  -1.0334533e-03  -1.0263844e-03  -8.8917615e-04  -7.5572159e-04  -2.6886284e-04  -7.1487465e-04  -7.7692175e-04  -6.0263829e-04  -9.9452399e-04  -9.4126078e-04
  -7.2985940e-04  -6.2804803e-04  -5.8861839e-04  -5.8596645e-04  -6.4109918e-04  -1.0162481e-03  -5.4749014e-04  -4.7032913e-04  -8.7218202e-04  -2.6198413e-04  -8.1031834e-04  -4.6423386e-04  -1.0936286e-03  -6.8620703e-04  -7.0463232e-04  -5.0865073e-04  -9.7159564e-04  -6.7312235e-04  -1.2613197e-03  -9.4488438e-04  -5.7299307e-04  -8.9996430e-04  -7.2191563e-04  -8.4801926e-04  -1.4502890e-03  -9.0404996e-04  -3.4015501e-04  -6.5141544e-04  -2.7463961e-04  -2.8149836e-04  -6.2139862e-04  -5.8353378e-04  -8.2999381e-04  -8.3598250e-04  -7.9010770e-04  -8.4019674e-04  -4.1888803e-04  -3.2244829e-04  -2.1335942e-04  -5.6174642e-04  -1.1376851e-03  -1.1732094e-03  -9.0735219e-04  -6.0030312e-04  -5.9479853e-04  -6.6676247e-04  -9.5733366e-04  -6.9670484e-04  -1.0605757e-03  -1.0530860e-03
  -9.3130517e-04  -7.5145828e-04  -8.8119443e-04  -8.0835208e-04  -8.5731124e-04  -1.2295585e-03  -7.7752944e-04  -6.6787953e-04  -1.0788327e-03  -4.8289826e-04  -1.0281965e-03  -6.7173323e-04  -1.2680528e-03  -8.5651578e-04  -7.5557415e-04  -6.9112953e-04  -1.0928430e-03  -6.7423150e-04  -1.1302845e-03  -1.0677030e-03  -6.8918208e-04  -1.0878448e-03  -8.4339036e-04  -9.9239126e-04  -1.5861728e-03  -1.0455546e-03  -5.2550685e-04  -7.5285620e-04  -4.8412196e-04  -4.4900982e-04  -8.9981110e-04  -6.6341873e-04  -7.4321975e-04  -1.0306095e-03  -9.8019466e-04  -1.1585635e-03  -5.6759344e-04  -5.5118621e-04  -3.8216342e-04  -7.8897405e-04  -1.3652535e-03  -1.4024110e-03  -1.0692923e-03  -6.4664497e-04  -7.6664425e-04  -8.2843140e-04  -1.1879225e-03  -7.1680720e-04  -1.3218205e-03  -1.2061211e-03
  -1.2118017e-03  -9.9377765e-04  -1.3430953e-03  -1.1384266e-03  -1.1526358e-03  -1.4609520e-03  -9.6828840e-04  -9.6585345e-04  -1.2605293e-03  -6.0030370e-04  -1.2252195e-03  -7.2979444e-04  -1.3836424e-03  -1.0300420e-03  -8.1447838e-04  -8.5288641e-04  -1.2272899e-03  -8.1681943e-04  -1.1821614e-03  -1.1359986e-03  -7.4558315e-04  -1.0014417e-03  -8.2818751e-04  -9.9983544e-04  -1.6291436e-03  -9.8854408e-04  -5.4141210e-04  -7.8438316e-04  -5.4184766e-04  -4.7010463e-04  -9.7816240e-04  -6.5225968e-04  -6.7641761e-04  -7.9513423e-04  -9.6730888e-04  -9.7826438e-04  -5.4764515e-04  -4.8213129e-04  -3.4721024e-04  -7.0340239e-04  -1.1273134e-03  -1.2466318e-03  -9.9486695e-04  -6.2458083e-04  -4.3116350e-04  -1.0012970e-03  -9.9631457e-04  -6.3417549e-04  -1.1386391e-03  -1.1082229e-03
  -8.3774404e-04  -6.9149007e-04  -7.3524140e-04  -7.2800176e-04  -8.0713251e-04  -1.0968979e-03  -6.9403998e-04  -6.1014586e-04  -1.0597818e-03  -3.5371087e-04  -9.1511349e-04  -5.2956736e-04  -1.1912583e-03  -7.8668835e-04  -7.4610743e-04  -6.7892112e-04  -1.0903828e-03  -7.6905737e-04  -1.2587374e-03  -1.0485761e-03  -6.3516438e-04  -9.9958724e-04  -7.5260206e-04  -8.2196714e-04  -1.5756950e-03  -8.9806144e-04  -4.5328002e-04  -7.5289723e-04  -4.4249275e-04  -4.1912327e-04  -8.2510622e-04  -6.6895335e-04  -5.5214582e-04  -8.7618624e-04  -9.6213579e-04  -9.7421516e-04  -5.3402933e-04  -4.7018830e-04  -3.2850189e-04  -6.4429885e-04  -1.1722939e-03  -1.1631958e-03  -9.8470377e-04  -8.6399727e-04  -6.2157324e-04  -9.3559700e-04  -1.0551667e-03  -6.5775280e-04  -1.3066558e-03  -1.1294320e-03
  -9.3922572e-04  -7.5743505e-04  -9.2827808e-04  -8.5776846e-04  -8.8208943e-04  -1.1912540e-03  -8.3379878e-04  -7.7510619e-04  -9.8319026e-04  -4.9593701e-04  -1.0434055e-03  -7.2711054e-04  -1.2827298e-03  -8.5127703e-04  -7.6517131e-04  -8.0423575e-04  -1.1590202e-03  -8.4456423e-04  -1.0361543e-03  -1.1741561e-03  -7.2910922e-04  -1.0789102e-03  -8.5326191e-04  -1.3429431e-03  -1.5958770e-03  -9.4740570e-04  -5.8544474e-04  -7.2749134e-04  -6.2736665e-04  -5.3419382e-04  -7.8202278e-04  -7.6683739e-04  -6.6996465e-04  -9.9986198e-04  -1.0511469e-03  -1.2034606e-03  -6.9704937e-04  -6.2981871e-04  -5.1005220e-04  -8.8140665e-04  -1.3718783e-03  -1.2893023e-03  -1.0587720e-03  -1.1141956e-03  -7.0122088e-04  -1.0759589e-03  -1.1621767e-03  -6.5782515e-04  -1.3838374e-03  -1.2828149e-03
  -1.2228785e-03  -9.8006031e-04  -1.3211984e-03  -1.1723108e-03  -1.1441708e-03  -1.4956018e-03  -1.0645456e-03  -9.7512850e-04  -1.3899535e-03  -7.0686778e-04  -1.3040483e-03  -8.2734786e-04  -1.4643574e-03  -1.1193284e-03  -8.2637055e-04  -1.0341747e-03  -1.3078569e-03  -9.7371079e-04  -1.5770550e-03  -1.2342618e-03  -8.4478670e-04  -1.2214471e-03  -8.8218786e-04  -1.0128226e-03  -1.6872995e-03  -1.0158954e-03  -6.8547268e-04  -8.7296369e-04  -6.6263566e-04  -6.1104802e-04  -1.0798640e-03  -8.2252041e-04  -5.6521490e-04  -9.7546593e-04  -1.0649801e-03  -1.1040737e-03  -6.9181627e-04  -6.3492428e-04  -5.1854632e-04  -8.0562086e-04  -1.1860913e-03  -1.2773325e-03  -1.0422720e-03  -8.1978529e-04  -5.3920847e-04  -9.8342472e-04  -1.2985913e-03  -6.0350809e-04  -1.2197016e-03  -1.1334970e-03
  -8.5651304e-04  -7.3176937e-04  -8.3084143e-04  -8.1474159e-04  -8.5703214e-04  -1.1410923e-03  -8.5201982e-04  -7.6156447e-04  -8.8277401e-04  -4.2005029e-04  -9.8972605e-04  -6.2050455e-04  -1.2036137e-03  -8.4164663e-04  -7.7411265e-04  -8.1765762e-04  -1.1805071e-03  -8.4199809e-04  -1.0070704e-03  -1.1477885e-03  -6.8054255e-04  -1.2103702e-03  -7.1009819e-04  -8.8370265e-04  -1.5316675e-03  -8.8008941e-04  -5.7509169e-04  -8.3358068e-04  -5.7058531e-04  -5.1495683e-04  -1.0132790e-03  -7.5072853e-04  -8.7935547e-04  -9.9882076e-04  -9.8279153e-04  -1.1091363e-03  -6.3791272e-04  -5.7859736e-04  -4.5474077e-04  -8.4714661e-04  -1.1765820e-03  -1.2359484e-03  -9.8614104e-04  -9.1966364e-04  -7.0273015e-04  -1.1318146e-03  -9.4116444e-04  -6.5744040e-04  -1.2698136e-03  -1.1870395e-03
  -9.8357582e-04  -7.7351258e-04  -9.4399293e-04  -8.9331198e-04  -8.9956750e-04  -1.2032638e-03  -8.8336802e-04  -7.4754120e-04  -1.0789077e-03  -5.2767480e-04  -1.0725044e-03  -6.2933576e-04  -1.2635945e-03  -9.3296694e-04  -7.5853907e-04  -8.7617553e-04  -1.1969933e-03  -8.4548059e-04  -1.0481486e-03  -1.1277045e-03  -7.5291033e-04  -1.1790521e-03  -8.0377376e-04  -1.0479201e-03  -1.5398567e-03  -9.5385860e-04  -6.5057137e-04  -8.5675187e-04  -7.0136553e-04  -5.8880803e-04  -8.4320642e-04  -6.7357754e-04  -7.2311808e-04  -1.0736994e-03  -1.0686498e-03  -1.1564335e-03  -7.4897730e-04  -7.0503377e-04  -5.8838201e-04  -9.3829463e-04  -1.3578547e-03  -1.4142878e-03  -1.0800636e-03  -7.3821587e-04  -8.2824787e-04  -1.1574854e-03  -1.4009930e-03  -7.7356241e-04  -1.4299933e-03  -1.3389821e-03
  -1.2159788e-03  -9.8880334e-04  -1.3256945e-03  -1.1731428e-03  -1.1306289e-03  -1.4440541e-03  -1.0878770e-03  -9.9212211e-04  -1.0422585e-03  -6.6102517e-04  -1.2640557e-03  -7.9709810e-04  -1.3627678e-03  -1.0546710e-03  -8.3191809e-04  -1.0033461e-03  -1.2760973e-03  -9.8965573e-04  -9.3969080e-04  -1.2064803e-03  -7.4141892e-04  -1.2497790e-03  -7.7526207e-04  -8.9440838e-04  -1.5848225e-03  -9.0958172e-04  -5.9484376e-04  -8.6042954e-04  -6.3840591e-04  -5.7593128e-04  -9.8955561e-04  -7.4113847e-04  -4.2675700e-04  -1.0788768e-03  -1.0189298e-03  -9.8566071e-04  -6.8854302e-04  -6.3518161e-04  -4.9589254e-04  -8.5910375e-04  -1.1010843e-03  -1.1119859e-03  -9.7939640e-04  -6.3913810e-04  -7.8563974e-04  -1.0315932e-03  -1.0147349e-03  -6.6683628e-04  -1.2051222e-03  -1.1377517e-03
  -8.8243949e-04  -7.1510847e-04  -7.9803879e-04  -8.1236137e-04  -8.2366506e-04  -1.1205907e-03  -8.0911885e-04  -7.2456093e-04  -9.9736615e-04  -4.7610232e-04  -9.8760589e-04  -6.2252703e-04  -1.1619612e-03  -8.7533490e-04  -7.5815723e-04  -8.2059164e-04  -1.1352242e-03  -8.0787373e-04  -8.8022044e-04  -1.0691416e-03  -6.5540330e-04  -1.1040916e-03  -6.6672784e-04  -9.6140453e-04  -1.4529321e-03  -8.2681316e-04  -5.9311592e-04  -7.8266329e-04  -5.7022012e-04  -5.2982272e-04  -1.0480449e-03  -6.1446393e-04  -9.4783888e-04  -8.8116940e-04  -9.7103504e-04  -1.0111509e-03  -6.9284049e-04  -6.0743099e-04  -4.8401966e-04  -8.4052462e-04  -1.1098423e-03  -1.1843627e-03  -9.5854420e-04  -6.2192668e-04  -6.9921219e-04  -1.0187139e-03  -1.0567905e-03  -6.9578981e-04  -1.2979748e-03  -1.0766764e-03
  -9.5498213e-04  -7.7947107e-04  -9.6660969e-04  -9.0665027e-04  -9.2841854e-04  -1.2052543e-03  -8.8501297e-04  -7.8581274e-04  -1.0631153e-03  -5.7947129e-04  -1.0899469e-03  -7.7349046e-04  -1.2357305e-03  -9.1590662e-04  -7.2030746e-04  -9.0881559e-04  -1.1574614e-03  -9.2603907e-04  -1.1040140e-03  -1.1601545e-03  -7.6711795e-04  -1.2510668e-03  -7.9899095e-04  -7.8573922e-04  -1.5374172e-03  -9.2272699e-04  -6.7581097e-04  -8.4009947e-04  -6.7254808e-04  -6.2596233e-04  -9.6418656e-04  -7.9642894e-04  -7.7089900e-04  -1.0451942e-03  -1.0523521e-03  -1.1452829e-03  -7.9313881e-04  -7.3897862e-04  -6.2119029e-04  -9.9761691e-04  -1.2737523e-03  -1.3290719e-03  -9.8660891e-04  -1.0322121e-03  -8.1289967e-04  -9.9741563e-04  -1.0260203e-03  -7.2602014e-04  -1.1353509e-03  -1.1092501e-03
  -8.8852312e-04  -7.1293680e-04  -7.4845547e-04  -7.7938597e-04  -8.6762302e-04  -1.0483495e-03  -8.0950238e-04  -6.4880971e-04  -8.8332803e-04  -3.9997941e-04  -9.1411674e-04  -6.1792589e-04  -1.0603379e-03  -7.3226664e-04  -6.9759495e-04  -7.6733046e-04  -1.0686908e-03  -8.1250118e-04  -7.5672864e-04  -9.7426691e-04  -5.3044467e-04  -1.0417182e-03  -5.8618712e-04  -5.6498765e-04  -1.4523716e-03  -7.2287797e-04  -4.4755053e-04  -7.1638351e-04  -4.7853871e-04  -5.0440460e-04  -6.9055456e-04  -6.9395796e-04  -5.5911101e-04  -9.0170448e-04  -9.0625329e-04  -8.5613847e-04  -5.8841985e-04  -5.9675693e-04  -4.5103373e-04  -7.6643110e-04  -9.6419727e-04  -1.0171972e-03  -8.5472554e-04  -9.9757838e-04  -4.3400310e-04  -9.9808688e-04  -8.5834705e-04  -5.5568712e-04  -1.1549690e-03  -1.1245208e-03
  -7.2106242e-04  -5.5565342e-04  -5.9477607e-04  -6.3743972e-04  -6.8152603e-04  -9.2660770e-04  -7.2273571e-04  -5.5959623e-04  -1.0214461e-03  -4.1584796e-04  -8.4890542e-04  -5.2883185e-04  -1.0466545e-03  -7.1411161e-04  -6.4579363e-04  -7.1958068e-04  -9.9459034e-04  -7.8995526e-04  -9.9810341e-04  -9.5056224e-04  -4.8760828e-04  -1.0013405e-03  -6.1020243e-04  -8.4578095e-04  -1.3944776e-03  -7.2412746e-04  -5.4271048e-04  -6.7856623e-04  -5.2274560e-04  -5.0013606e-04  -9.1013778e-04  -7.1991712e-04  -4.4179213e-04  -7.0303667e-04  -9.2261459e-04  -9.4491849e-04  -6.4127130e-04  -6.1021192e-04  -4.9664738e-04  -8.5283845e-04  -1.0072237e-03  -1.1142846e-03  -8.5833052e-04  -6.2859472e-04  -6.8637816e-04  -8.7669067e-04  -8.8081363e-04  -5.7617750e-04  -1.2037673e-03  -1.1038267e-03
  -8.9189556e-04  -6.7672296e-04  -9.0683915e-04  -8.1840478e-04  -9.0826664e-04  -1.1137689e-03  -8.7313773e-04  -7.7629328e-04  -9.8919624e-04  -6.2373251e-04  -1.0562842e-03  -7.3747127e-04  -1.1673192e-03  -8.2874153e-04  -6.8544241e-04  -8.6736493e-04  -1.0441693e-03  -8.8341249e-04  -1.0011557e-03  -9.8734500e-04  -5.4345175e-04  -1.0128540e-03  -6.3767825e-04  -5.1031163e-04  -1.4089093e-03  -7.3263596e-04  -5.3059979e-04  -7.3119882e-04  -6.3611160e-04  -5.3788949e-04  -6.6879258e-04  -7.3597120e-04  -4.2291556e-04  -9.6434698e-04  -8.6722564e-04  -8.1780698e-04  -6.0749118e-04  -5.9496326e-04  -4.6288152e-04  -8.0013671e-04  -7.6090521e-04  -7.9088716e-04  -7.6102582e-04  -8.6131942e-04  -5.5389560e-04  -8.7889872e-04  -5.8480009e-04  -4.4102038e-04  -8.3834230e-04  -9.2820870e-04
  -5.1533396e-04  -3.6367495e-04  -2.9357933e-04  -3.8515724e-04  -5.1462586e-04  -6.6690065e-04  -4.9979356e-04  -4.9058354e-04  -6.4083689e-04  -2.1185656e-04  -6.0784159e-04  -3.7470565e-04  -7.9816795e-04  -5.3209712e-04  -5.1068002e-04  -5.6692609e-04  -7.7968836e-04  -7.1924302e-04  -8.7977876e-04  -6.6371431e-04  -2.7460151e-04  -7.0821890e-04  -3.8919188e-04  -7.5937581e-04  -1.1338769e-03  -5.1419256e-04  -3.8232259e-04  -5.0977332e-04  -4.1730946e-04  -3.8653697e-04  -4.6531172e-04  -5.1820284e-04  -4.5241363e-04  -5.5133272e-04  -6.8127748e-04  -6.9128815e-04  -4.9139245e-04  -4.7009237e-04  -3.5944371e-04  -6.6079531e-04  -6.2326191e-04  -6.4198388e-04  -5.6009943e-04  -6.7804760e-04  -3.9359869e-04  -6.7722634e-04  -4.8461338e-04  -3.5798195e-04  -1.0414504e-03  -8.3271158e-04
  -4.8333636e-04  -3.2371402e-04  -3.5587230e-04  -3.8367926e-04  -5.4189330e-04  -7.0464547e-04  -5.1951309e-04  -4.6885337e-04  -6.5214909e-04  -3.4763163e-04  -6.6614017e-04  -4.9385091e-04  -7.9150434e-04  -5.0863088e-04  -5.0493417e-04  -5.7598233e-04  -7.3640543e-04  -5.9477455e-04  -3.9645107e-04  -6.1808934e-04  -3.1322334e-04  -7.1687321e-04  -4.1292625e-04  -6.7195704e-04  -1.1543414e-03  -4.9447879e-04  -4.0557902e-04  -5.1236083e-04  -4.5615633e-04  -4.2863548e-04  -4.5346579e-04  -5.2003516e-04  -4.9115397e-04  -6.4903207e-04  -7.0746115e-04  -7.5416535e-04  -5.6668883e-04  -5.5624580e-04  -4.4960590e-04  -7.8100176e-04  -7.3988613e-04  -6.2030274e-04  -6.3831528e-04  -3.2810459e-04  -2.9500196e-04  -7.4399268e-04  -6.9191033e-04  -4.1208905e-04  -9.7217126e-04  -9.4972266e-04
  -5.6071265e-04  -3.8293510e-04  -3.6634444e-04  -4.1243018e-04  -5.0177419e-04  -6.3811633e-04  -5.4426061e-04  -4.4453709e-04  -4.6829006e-04  -1.7973084e-04  -5.4123619e-04  -3.6979187e-04  -6.2363455e-04  -3.8987849e-04  -4.8811716e-04  -4.6644319e-04  -6.3875125e-04  -5.5290828e-04  -2.7620411e-04  -4.4948969e-04  -7.1440743e-05  -5.3616602e-04  -2.8375036e-04  -1.9245858e-04  -1.0599034e-03  -3.2636701e-04  -2.4743463e-04  -3.5468940e-04  -3.8533786e-04  -2.9721059e-04  -4.5970947e-04  -3.3827446e-04  -1.1605414e-04  -4.7561966e-04  -4.9406884e-04  -4.7422640e-04  -3.9679738e-04  -3.5836088e-04  -2.5748770e-04  -5.7590863e-04  -2.7507165e-04  -2.7020555e-04  -3.3631199e-04  -5.4533884e-04  -1.6813980e-04  -4.3342938e-04  -1.1796132e-04  -1.5851567e-04  -6.7682029e-04  -5.4185349e-04
  -1.3179299e-04  -1.2363993e-05   1.0007078e-04   5.5532441e-06  -1.8976978e-04  -3.2379560e-04  -1.9348125e-04  -1.6961926e-04  -3.2101470e-04  -2.3856550e-05  -2.5926391e-04  -1.6421899e-04  -3.8974654e-04  -1.6331142e-04  -3.1836849e-04  -2.8157386e-04  -3.9595267e-04  -3.8622261e-04  -7.0037198e-04  -2.1063085e-04   6.3913743e-05  -4.4485231e-04  -2.0048060e-04  -4.1170479e-04  -8.6325157e-04  -1.7776444e-04  -2.0780531e-04  -2.6641009e-04  -2.4069108e-04  -2.2086738e-04  -3.0135282e-04  -2.8924705e-04  -5.4909338e-05  -4.5394880e-04  -3.5445686e-04  -4.2562638e-04  -3.4908156e-04  -3.0756858e-04  -2.2698108e-04  -4.8257882e-04  -2.4193971e-04  -2.1422516e-04  -2.6009773e-04  -5.2991742e-04  -2.5172697e-04  -4.2892504e-04  -1.5496308e-04  -1.6202118e-04  -6.0646626e-04  -4.3623504e-04
  -1.8191975e-04  -6.2528248e-05  -9.9284516e-06  -7.9447287e-05  -2.6918104e-04  -4.1733729e-04  -3.5361547e-04  -2.6706400e-04  -5.3262676e-04  -2.2569552e-04  -3.7847817e-04  -3.1836925e-04  -4.2677831e-04  -2.5720557e-04  -3.3119947e-04  -3.7058000e-04  -3.9473639e-04  -4.4154644e-04  -1.8363434e-04  -2.5630399e-04  -3.7801903e-05  -2.9630112e-04  -2.4621285e-04  -2.6667403e-04  -8.4392761e-04  -2.9027104e-04  -2.6457998e-04  -2.5713231e-04  -3.3188888e-04  -3.0756849e-04  -3.4330357e-04  -2.3755498e-04  -9.2576593e-05  -3.9367061e-04  -4.1638702e-04  -4.6413532e-04  -3.8413756e-04  -4.0336524e-04  -3.5358322e-04  -5.8434869e-04  -3.7578878e-04  -1.5470445e-04  -3.1808068e-04  -5.8398262e-04  -4.7334100e-04  -5.0964352e-04  -2.6690078e-04  -1.4234151e-04  -6.0592714e-04  -5.1192858e-04
  -1.7248574e-04  -4.2551514e-05   9.9163539e-05   2.4486304e-05  -1.2702662e-04  -2.4923845e-04  -1.8315228e-04  -6.2384395e-05  -2.2081846e-04   1.0756006e-05  -1.5663292e-04  -1.3120622e-04  -2.1902881e-04  -1.4355061e-04  -2.7760147e-04  -2.1726181e-04  -2.5945622e-04  -3.4795972e-04   1.0700387e-05  -1.9746220e-05   2.1983567e-04  -1.6854776e-04   8.6540431e-06   2.0368316e-04  -5.8310706e-04  -1.0837412e-05  -4.6132209e-05  -1.1160776e-04  -4.7238365e-05  -1.3351913e-04   9.3949575e-06  -1.4307826e-04   7.1414259e-05  -2.1533178e-04  -1.5759695e-04  -8.8079491e-05  -1.6565093e-04  -1.8637009e-04  -1.1444442e-04  -3.0858399e-04   1.2741955e-04   8.4235638e-05   4.3791271e-05   1.2918543e-04   4.4191627e-05  -1.8261916e-04   3.4401639e-04   7.0129769e-05  -3.8358889e-04  -2.0167607e-04
   2.2014516e-04   2.9645395e-04   5.2323274e-04   3.6893820e-04   2.0281019e-04   1.0974552e-05   6.8722024e-05   1.1660775e-04  -1.8679554e-04   1.2015113e-04   1.0859448e-04   1.9084853e-06   9.0829517e-06   1.0122413e-04  -9.8722085e-05  -1.8851999e-05  -3.9917286e-05  -1.7386780e-04   3.7053309e-04   2.5035095e-04   3.5871411e-04  -4.2038278e-05   7.2449409e-05   1.8689712e-04  -5.0910993e-04   9.0334790e-05   2.4432127e-05  -5.4610489e-05  -8.2551414e-05  -6.1427236e-05   1.4015155e-04  -9.1702277e-05   2.2630769e-04  -6.1181031e-06  -5.4064451e-05  -1.5051791e-04  -1.2809357e-04  -1.5180750e-04  -8.6697779e-05  -2.8843438e-04   1.3374654e-04   2.7869598e-04   1.2179371e-04  -2.3211750e-04   1.3269192e-04  -2.2740020e-05   2.0543634e-04   6.7771805e-05  -3.1993349e-04  -6.2455481e-05
   1.6447103e-04   1.9535881e-04   3.2632289e-04   2.5411279e-04   2.0832058e-05  -1.4237817e-04  -5.7584468e-05   2.7640757e-05  -2.7703636e-04  -1.3493784e-04  -8.7985456e-05  -1.1905636e-04  -7.2467526e-05   8.9822461e-06  -1.0218099e-04  -1.0426044e-04  -6.8433495e-05  -1.3907738e-04  -2.9832029e-04   1.8936381e-04   1.6063299e-04   1.6513641e-05  -2.8012408e-05  -2.2118738e-04  -4.8072182e-04   2.3307595e-05  -1.3259557e-04  -5.4554122e-05  -1.3951759e-04  -1.6674893e-04   5.8756694e-05  -1.2203971e-04   7.0174741e-05  -1.1127290e-04  -1.5033677e-04  -1.9843658e-04  -2.4608505e-04  -2.4360188e-04  -2.1064554e-04  -4.1056477e-04  -2.3487761e-05  -6.5553264e-05   2.0021527e-05  -1.9823381e-04  -1.9629655e-04  -3.1043339e-04   2.5366837e-05   3.9579016e-05  -4.6040310e-04  -2.5680501e-04
  -1.0849324e-04  -8.7620974e-06  -5.2889325e-05  -1.1853273e-05  -2.4037767e-04  -3.8011829e-04  -2.9106607e-04  -3.0982497e-04  -7.2923617e-04  -3.9030952e-04  -3.3616091e-04  -3.0072834e-04  -2.7893481e-04  -2.0542655e-04  -1.8699658e-04  -3.0061515e-04  -2.4275068e-04  -2.6099078e-04  -1.7956201e-06   3.1116997e-05  -5.2445874e-05  -1.1107510e-04  -1.5358021e-04  -3.9585526e-04  -5.4758572e-04  -7.7419762e-05  -1.7747445e-04  -2.0903973e-04  -2.6073554e-04  -2.4991835e-04   1.1320190e-05  -1.7394210e-04   2.4069550e-04  -1.1784288e-04  -1.3929876e-04  -8.4388717e-05  -2.7311180e-04  -2.6123703e-04  -2.0622341e-04  -3.9862053e-04   1.9572301e-04   9.5799929e-05   1.1784582e-04   4.5680154e-05  -6.9861489e-05  -1.0728641e-04   1.8368021e-04   1.4878451e-04  -2.2153987e-04  -4.9372960e-05
   3.2365273e-04   3.1859364e-04   6.3754374e-04   4.8074216e-04   3.2615208e-04   1.2941541e-04   2.2175083e-04   1.6586760e-04   8.7117201e-05   1.7723066e-04   2.3147625e-04   1.5921290e-04   1.6563007e-04   2.0296873e-04  -2.9921270e-05   1.1646164e-04   1.0590393e-04   6.9396975e-07   1.3447684e-04   3.8765615e-04   4.3189112e-04   2.3303121e-04   1.4112527e-04   3.4584539e-04  -2.0201071e-04   2.3937378e-04   1.3531497e-04   1.4169671e-04   1.0926907e-04   9.3115659e-06   2.3113634e-04   1.3928461e-05   2.5950835e-04  -1.2440668e-04   1.0276563e-04   1.1925335e-04   2.1581325e-05  -4.2979309e-06   4.7674662e-06  -1.1718377e-04   4.4053912e-04   4.2654286e-04   3.0409882e-04   8.2217222e-05   1.3856868e-04   1.9964817e-04   4.5081062e-04   3.0159796e-04  -2.1016000e-04   1.3444794e-04
   4.1777402e-04   3.6706935e-04   6.8872352e-04   5.6956708e-04   3.0234913e-04   1.0841151e-04   2.6073869e-04   1.8497289e-04   3.8879971e-05   4.6773494e-05   2.0357246e-04   6.4978376e-05   2.0245240e-04   2.2278474e-04   5.1278246e-05   1.2703118e-04   1.7161982e-04   7.7680153e-05   1.8532931e-04   4.5358785e-04   3.4423271e-04   1.8147097e-04   7.4171949e-05  -1.6857876e-04  -2.1669657e-04   1.7348836e-04   9.6328513e-05   9.1697715e-05   7.0813847e-05   6.8272420e-06   3.1663664e-04   1.2344214e-04   2.1995512e-04   9.4830451e-05   1.1634512e-04  -2.6809712e-05  -1.8989012e-05  -3.7789378e-05  -5.5340275e-05  -1.9155863e-04   3.2606602e-04   9.2166061e-05   3.1413135e-04  -5.0450097e-05   1.2896094e-04  -2.6678952e-06   2.1170467e-04   2.0743866e-04  -1.9127244e-04   1.0057656e-04
   1.9920724e-04   1.9555629e-04   3.5004510e-04   3.2858251e-04   6.1312770e-05  -8.6215572e-05   3.3151868e-05  -1.0232050e-05  -2.3115196e-04  -2.3707723e-04  -6.8282876e-05  -1.0396823e-04   3.4740886e-05   2.7121192e-05  -2.5901609e-05  -3.8259814e-06   5.4324883e-05  -8.9516972e-05   2.4783571e-04   3.3426142e-04   1.1408222e-04   1.8950770e-04  -5.8234131e-05  -3.0751814e-04  -2.7852162e-04   5.8394209e-05  -1.1285307e-04  -1.9542744e-05  -1.3439916e-04  -1.1979877e-04   1.8694381e-04   1.1143449e-04  -1.3220176e-04   2.2605453e-05  -5.4321899e-05  -9.2555230e-05  -1.9045347e-04  -2.0957690e-04  -2.0084102e-04  -4.3190696e-04   8.4692314e-05  -5.3809414e-05   1.5526898e-04   2.3228468e-04  -2.2284116e-04   1.7489473e-04   1.0601909e-04   1.1127526e-05  -4.6516553e-04  -9.8837256e-05
  -1.2483014e-04  -7.7083503e-05  -9.4494557e-05   3.6456322e-06  -2.3227098e-04  -3.9469730e-04  -1.9359805e-04  -2.6839398e-04  -5.7454366e-04  -3.8885529e-04  -3.1598299e-04  -3.0801064e-04  -1.1899562e-04  -1.5854288e-04  -1.3015051e-04  -1.4273365e-04  -7.1650611e-05  -1.9229320e-04   5.4504024e-04   2.4606453e-04   1.0664986e-04   1.8656139e-04  -5.8236947e-05  -1.9454391e-04  -3.2406603e-04  -5.5428150e-06  -7.4991040e-06  -8.7440552e-05  -4.1228472e-05  -1.1571804e-04   1.4493351e-04   1.8442113e-05   3.2094662e-04   1.1116945e-04   1.5426373e-05  -1.1056421e-05  -6.2646286e-05  -9.7105607e-05  -7.1639945e-05  -2.2524368e-04   4.1098645e-04   1.2139374e-04   2.4783035e-04  -1.0930859e-04   7.6643089e-05   5.7516158e-05   6.9059628e-05   1.4934294e-04  -1.7424196e-04   1.4427610e-04
   4.7129873e-04   3.4178619e-04   8.0117822e-04   6.6195981e-04   3.7497253e-04   2.2553855e-04   3.8922881e-04   2.9770992e-04   2.3336257e-05   8.0013619e-05   2.0617325e-04   1.5931054e-04   2.0933922e-04   2.2422992e-04   4.1548243e-05   2.0054889e-04   2.0607573e-04   7.2515897e-05   1.2120743e-04   5.3916633e-04   3.2498120e-04   3.5412566e-04   8.9120425e-05   2.7142273e-04  -1.7268787e-04   9.8384306e-05   1.3928406e-04   1.5525056e-04   6.3272899e-05   6.7853762e-05   4.6784041e-04   3.4902547e-04   3.2634102e-04   1.1401989e-04   1.8908251e-04   1.1143964e-04   9.8246579e-05   5.1521278e-05   6.7247965e-05  -4.7542835e-05   4.8445727e-04   3.0039827e-04   3.5138003e-04   2.5693047e-05   1.6027167e-04   4.1330233e-04   3.6340448e-04   2.4840061e-04  -1.1584105e-04   2.4839328e-04
   3.8505858e-04   2.7808780e-04   7.1085407e-04   6.0174492e-04   3.6249898e-04   1.2386663e-04   3.1082070e-04   1.8245251e-04  -2.9038193e-04  -8.4776271e-05   7.3912415e-05  -2.6187847e-05   1.5806699e-04   2.0240362e-04   3.3567667e-05   1.6985903e-04   2.2432477e-04   6.5927066e-05  -1.3652332e-04   4.9818866e-04   2.3680988e-04   2.7494505e-04  -5.0217277e-05  -3.7823993e-04  -2.1296027e-04   1.3758067e-05   2.5393032e-05   1.1534010e-04   5.7277393e-05   1.5582213e-05   3.4433769e-04  -1.0623690e-05   2.7555914e-04   7.1471077e-05   1.1897586e-04   1.7786107e-05  -7.1148443e-06  -3.4133907e-05  -2.5848156e-05  -1.4686714e-04   2.6384782e-04   7.0718605e-05   2.8339998e-04  -9.9536337e-05   1.5643967e-04   2.1733741e-04   8.8593464e-05   1.2987840e-04  -3.2454368e-04   7.9357589e-05
   1.3508281e-04   5.4404543e-05   2.8473863e-04   3.1606149e-04   6.9261303e-05  -1.4389871e-04   8.9233057e-05  -4.7339912e-05  -5.2184844e-04  -3.5740729e-04  -2.3191661e-04  -2.9824625e-04  -5.0005918e-05  -4.1381485e-05  -7.8171302e-05  -1.2517556e-05   4.8714628e-05  -8.9985384e-05   4.9324596e-04   2.4757127e-04  -3.5657358e-05   1.1787296e-04  -2.7241121e-04  -3.2930731e-04  -3.7262574e-04  -1.1305506e-04  -1.0662335e-04  -9.3859133e-05  -8.5460684e-05  -1.2834916e-04   1.6144713e-04  -1.2006368e-04   1.7265879e-04  -3.6330312e-05  -1.0027161e-04  -2.5482572e-04  -1.9621936e-04  -1.9098340e-04  -1.9214863e-04  -2.9713759e-04  -2.0514919e-05  -3.7297569e-04   8.5477790e-05   1.7663828e-04   6.4507018e-05   1.2769175e-04  -2.1906399e-04   8.4952089e-06  -6.4040732e-04  -1.5876921e-04
  -1.8911564e-04  -2.2851817e-04  -8.3745717e-06   4.8493195e-05  -1.0656127e-04  -2.6022195e-04  -8.5558073e-05  -1.4679033e-04  -3.9220331e-04  -2.8453182e-04  -2.6170295e-04  -2.7093009e-04  -6.8164816e-05  -6.7225490e-05  -1.2896452e-04  -4.0539344e-06  -1.3651844e-05  -1.0365756e-04  -2.2555837e-04   2.8104993e-04   4.9102571e-05   1.4390761e-04  -1.6044021e-04  -2.8552089e-04  -4.3774128e-04  -1.5942803e-04   2.8348919e-05  -6.4566222e-05   1.9586658e-05  -3.3102922e-05   4.3272630e-05   4.3625954e-05   2.3437785e-04   1.0640286e-04   2.5998146e-05   2.6247328e-05  -1.7547083e-05  -8.9098230e-06   1.2361351e-05  -3.5618250e-05   3.6061753e-04   1.2493558e-05   2.2585852e-04   5.9715239e-04   1.4725854e-04   3.6553500e-04  -1.0582410e-05   8.9456371e-05  -3.3279622e-04   4.3160300e-05
   3.4653163e-04   1.6947828e-04   6.8094820e-04   5.8112020e-04   3.1056642e-04   1.3784277e-04   3.6140875e-04   1.8873707e-04   4.2653744e-05  -6.2843559e-05   2.5305855e-05  -6.9319976e-05   7.6752491e-05   1.2902169e-04  -1.9244084e-05   1.8904958e-04   1.7575249e-04   1.1114455e-04   7.8249155e-05   3.8346500e-04   1.7994216e-04   2.6902312e-04  -1.0085808e-04  -2.5243658e-04  -3.3338048e-04  -4.1540636e-05   9.8088698e-05   8.1976017e-05   1.6549679e-04   7.1989634e-05   2.9992926e-04   1.7796633e-04   3.1909187e-04   6.8568814e-05   4.7323370e-05   1.1215134e-05   8.4782077e-05   5.9817678e-05   7.1941155e-05  -5.5217566e-05   2.9060326e-04  -9.6812757e-05   1.8751710e-04   6.3629466e-04   1.6835057e-04   2.7320097e-04   2.7677695e-06   9.6422991e-05  -4.9878721e-04   5.2136646e-05
   2.0624312e-04   6.2675426e-05   4.6162790e-04   4.4439564e-04   2.0046213e-04  -5.4539498e-05   1.9738270e-04   7.0047347e-05  -4.2032383e-04  -2.4775104e-04  -1.8838371e-04  -2.1827822e-04  -5.3651143e-05   3.0656494e-05  -4.1836218e-05   7.9968719e-05   1.0259765e-04  -3.1425425e-05  -1.6170403e-04   2.9011010e-04  -1.9704832e-05   5.3742911e-05  -1.9637113e-04  -4.3970207e-04  -4.3301401e-04  -1.8870896e-04  -3.4228673e-05   3.0717565e-05   6.5362342e-06  -1.8008988e-05   2.1784451e-04   9.4446950e-05   9.8502125e-05   1.1498313e-04  -6.1098639e-05  -1.7105784e-04  -6.2414510e-05  -6.6045723e-05  -5.3012813e-05  -1.8580201e-04   1.6742029e-05  -2.9677333e-04   3.4862485e-05   4.7418708e-04   2.6378670e-04   1.7470242e-04  -3.2719187e-04  -1.2662946e-04  -5.3458032e-04  -1.5367348e-04
  -9.3515271e-05  -1.8943162e-04   5.6132460e-05   1.0145485e-04  -1.0001900e-04  -3.2435238e-04  -6.7360888e-05  -2.0136029e-04  -6.4578163e-04  -4.8216581e-04  -4.7760407e-04  -4.6371721e-04  -3.1717544e-04  -2.3136671e-04  -1.9423068e-04  -1.7741033e-04  -1.3197916e-04  -1.6825613e-04  -4.8625309e-04   4.7659058e-05  -3.0163387e-04  -3.1829943e-05  -4.9037463e-04  -9.1772247e-04  -5.8607920e-04  -3.7971025e-04  -2.2753637e-04  -1.5968115e-04  -2.1503778e-04  -2.0371238e-04  -1.5145738e-04  -1.1020489e-04  -2.7402921e-04  -1.1806517e-04  -2.9554870e-04  -4.2104430e-04  -2.8504452e-04  -2.6516864e-04  -2.3975944e-04  -3.9323376e-04  -2.8989048e-04  -7.1437535e-04  -2.0677489e-04  -5.6514204e-05  -8.2904116e-05   2.9707406e-05  -4.5886275e-04  -1.8115937e-04  -7.0389005e-04  -2.4477462e-04
  -3.8281200e-05  -1.7461798e-04   2.3770877e-04   2.2122671e-04   8.3175211e-05  -1.1601743e-04   7.9442318e-05   1.2608067e-05  -4.4328568e-04  -1.9858353e-04  -2.9816385e-04  -1.3527252e-04  -1.9587383e-04  -1.1089123e-04  -2.1109072e-04  -1.0029313e-05  -8.8831846e-05  -1.2929257e-04  -1.5230454e-04   1.1237509e-04  -4.8628732e-05   5.5748907e-05  -2.3298360e-04  -4.7015544e-04  -4.8680310e-04  -2.4236481e-04  -4.7105292e-05  -4.8237220e-05  -2.3777042e-05  -3.1301635e-05   3.8498358e-05  -8.6756017e-06   1.6088395e-04   1.1333549e-04  -1.3255276e-04  -1.4183437e-04  -8.4640360e-06   5.0234769e-07   3.7922393e-05   5.7774610e-06   2.7614133e-05  -3.8380356e-04  -9.2407994e-05   2.4374954e-04   1.1145436e-04   1.5953646e-04  -8.6541484e-05  -9.8461715e-05  -6.6341436e-04  -9.5163705e-05
   1.2391093e-04  -6.0208546e-05   4.4727736e-04   3.7393876e-04   2.4385533e-04  -8.0737729e-05   2.2088156e-04   8.0126083e-05  -2.3630843e-04  -1.4319965e-04  -2.3960081e-04  -1.1947630e-04  -1.7002928e-04  -5.7380556e-05  -1.7326113e-04   6.7419096e-05  -4.2536280e-06  -2.5831940e-05  -7.5217904e-05   1.1336474e-04  -7.6802331e-05  -8.2979068e-06  -2.1019491e-04  -4.9377722e-04  -5.8224070e-04  -2.9945190e-04  -5.3188203e-05  -8.4932042e-05   9.0524472e-06  -1.5523714e-05  -3.3264252e-05   9.6505719e-05  -1.0854760e-04   1.0297653e-04  -1.9220237e-04  -2.2072883e-04  -3.9876260e-05  -5.6276485e-07  -6.7296096e-06  -1.1031198e-04  -1.6264014e-04  -4.9366080e-04  -2.2055522e-04   7.8915167e-05   1.3700066e-04   1.2347044e-04  -2.7596945e-04  -1.5811565e-04  -8.1872765e-04  -2.9512239e-04
  -8.2740735e-05  -2.1213318e-04   6.9721835e-05   1.3314276e-04  -5.8872556e-05  -3.1526791e-04  -1.0840794e-06  -1.1838427e-04  -7.8200112e-04  -4.0419586e-04  -4.9056590e-04  -4.1947656e-04  -3.7598357e-04  -2.8008304e-04  -2.5599517e-04  -1.4452716e-04  -1.7910487e-04  -2.4106330e-04  -1.0254243e-05  -7.5191674e-05  -2.8397483e-04  -1.2093865e-04  -4.5309763e-04  -9.8503719e-04  -6.6444313e-04  -4.3597084e-04  -1.8467424e-04  -2.5705504e-04  -1.7270453e-04  -1.7456429e-04  -9.3156254e-05  -7.0438065e-05  -5.3524468e-06  -9.1393180e-05  -3.7270822e-04  -5.0534518e-04  -2.5727088e-04  -2.1140772e-04  -1.7153301e-04  -3.1352992e-04  -4.7243977e-04  -8.6159550e-04  -3.9011447e-04   6.4496555e-05  -5.4179382e-05  -1.6658095e-04  -5.8930123e-04  -3.2743785e-04  -8.8367506e-04  -5.3070107e-04
  -4.0680214e-04  -4.5403521e-04  -3.8399838e-04  -2.2700283e-04  -3.2901310e-04  -6.2686170e-04  -2.9281707e-04  -4.3076259e-04  -8.3028409e-04  -6.5238343e-04  -8.0720976e-04  -6.0123304e-04  -6.5371580e-04  -5.1418482e-04  -3.8152360e-04  -4.1068523e-04  -4.0769967e-04  -3.1859774e-04  -1.0100054e-03  -3.0125421e-04  -5.1258097e-04  -2.5066300e-04  -6.0100446e-04  -3.4598217e-04  -8.4592949e-04  -5.2017841e-04  -3.9436162e-04  -3.8477697e-04  -3.2574040e-04  -2.9352802e-04  -6.2618346e-05  -1.7873883e-04  -3.5939633e-04  -2.7803311e-04  -4.8328046e-04  -4.7516020e-04  -2.7288188e-04  -2.1705584e-04  -1.9707116e-04  -3.3756701e-04  -3.7073912e-04  -7.8530970e-04  -4.4793254e-04   3.5035823e-04  -1.8118478e-04  -2.5311747e-04  -5.7486398e-04  -3.3563361e-04  -8.1810268e-04  -4.8712085e-04
  -7.7196695e-05  -2.6087888e-04   1.8844538e-04   1.2328503e-04   5.8839425e-05  -2.3347833e-04   3.4624380e-05  -2.4662473e-05  -4.5193924e-04  -2.0576282e-04  -4.1716819e-04  -3.0142319e-04  -3.9123584e-04  -2.4427634e-04  -3.4888837e-04  -1.3777422e-04  -2.6478985e-04  -1.6839104e-04  -5.1372644e-04  -1.6593523e-04  -2.3840678e-04  -1.2110724e-04  -3.3095217e-04  -4.6362393e-04  -7.4888399e-04  -4.1225663e-04  -1.5948749e-04  -2.8868386e-04  -1.2414165e-04  -1.1443999e-04  -6.3962936e-05  -1.8897995e-04  -8.6573273e-05  -4.3188869e-05  -3.9736443e-04  -3.3833651e-04  -1.5197616e-04  -9.0316193e-05  -5.6860848e-05  -1.7520356e-04  -4.0033672e-04  -7.3938596e-04  -4.6073282e-04  -8.3832536e-05   4.7143716e-05  -1.5824822e-04  -7.3277717e-04  -2.8020260e-04  -8.4463909e-04  -4.9614900e-04
  -1.6976320e-04  -2.9327133e-04   4.0021947e-05   2.3020615e-05  -4.8505968e-05  -3.8754413e-04  -4.8775481e-05  -1.7314793e-04  -7.6822133e-04  -3.1511992e-04  -5.3979259e-04  -4.1382329e-04  -4.7903907e-04  -3.5859499e-04  -3.8297341e-04  -2.2188145e-04  -3.0550777e-04  -2.3776678e-04  -3.4105906e-04  -2.1510554e-04  -3.6149964e-04  -3.5710944e-04  -4.1443834e-04  -4.7643844e-04  -8.3231297e-04  -4.9272261e-04  -2.1622857e-04  -3.3954415e-04  -2.0110179e-04  -1.7821154e-04  -2.1757797e-04  -1.8832042e-04  -2.4177758e-04  -2.4663092e-04  -4.9257261e-04  -5.5414293e-04  -2.7174750e-04  -2.0775652e-04  -1.9840225e-04  -3.6320262e-04  -6.3724420e-04  -9.3915797e-04  -5.9250661e-04   2.0754138e-04  -1.3761279e-04  -1.0041358e-04  -6.3805777e-04  -4.9878855e-04  -9.5048302e-04  -5.1292579e-04
  -4.6071515e-04  -5.4452423e-04  -4.3432886e-04  -3.3914900e-04  -3.3068715e-04  -6.6839543e-04  -3.6920467e-04  -4.3688784e-04  -9.9736173e-04  -5.5242720e-04  -8.0283702e-04  -5.5314915e-04  -6.9652853e-04  -5.8394426e-04  -4.6291022e-04  -4.7215866e-04  -4.9341342e-04  -3.9539894e-04  -8.0996653e-04  -4.7522291e-04  -6.5008039e-04  -4.2118219e-04  -6.1777711e-04  -4.2380724e-04  -9.7627769e-04  -6.4485194e-04  -4.3883856e-04  -5.7487172e-04  -2.8104419e-04  -3.4481607e-04  -3.3317384e-04  -3.6772926e-04  -3.7003038e-04  -5.1572593e-04  -6.9069804e-04  -6.5456063e-04  -4.3954593e-04  -3.5647841e-04  -3.2730951e-04  -4.9948395e-04  -6.9580739e-04  -1.0653953e-03  -7.0156180e-04  -1.2370503e-04  -2.0481006e-04  -3.4327438e-04  -6.9867756e-04  -4.9706025e-04  -1.0571526e-03  -5.7697046e-04
  -2.9700666e-04  -4.2855387e-04  -1.0760348e-04  -1.3231899e-04  -2.2275938e-04  -4.4047207e-04  -2.0667019e-04  -2.9980580e-04  -6.0516497e-04  -2.3052828e-04  -5.4236135e-04  -3.2059487e-04  -5.3427520e-04  -4.0427491e-04  -4.5184232e-04  -2.9130315e-04  -4.1663100e-04  -3.2030090e-04  -7.6494645e-05  -3.6752899e-04  -3.9002535e-04  -4.8767074e-04  -3.5456204e-04  -4.9185148e-04  -8.1188820e-04  -4.4508986e-04  -2.3567151e-04  -3.6999493e-04  -1.5685138e-04  -1.6629057e-04  -3.1601687e-04  -3.0778328e-04  -2.9010788e-04  -3.4544404e-04  -5.1633001e-04  -4.2985225e-04  -2.6128200e-04  -1.7284560e-04  -1.2385834e-04  -2.9542579e-04  -5.8383396e-04  -1.0872900e-03  -6.2828866e-04  -8.0974532e-06  -2.0618428e-04  -1.8777368e-04  -6.2499248e-04  -4.6925218e-04  -1.0337944e-03  -6.0521014e-04
  -3.1217502e-04  -4.1321214e-04  -1.4156847e-04  -1.6146411e-04  -1.7043251e-04  -4.9687235e-04  -2.0550107e-04  -3.3749113e-04  -8.5427519e-04  -2.8186789e-04  -5.5681088e-04  -3.5196173e-04  -5.5700279e-04  -4.3596217e-04  -4.2510795e-04  -3.3371022e-04  -4.5220501e-04  -3.2724242e-04  -2.3697554e-04  -4.4686947e-04  -5.0440186e-04  -4.4452251e-04  -4.6129647e-04  -6.9541461e-04  -8.1356609e-04  -5.0282193e-04  -3.3863730e-04  -4.0590522e-04  -2.4467640e-04  -2.2583468e-04  -4.0086414e-04  -3.2468289e-04  -5.1883224e-04  -3.7996849e-04  -5.6851114e-04  -5.1712012e-04  -3.5509671e-04  -2.2901957e-04  -2.0428083e-04  -3.7175912e-04  -7.6653011e-04  -1.1002403e-03  -7.2092377e-04  -2.8405324e-04  -2.3117545e-04  -3.7008297e-04  -7.7949936e-04  -6.4318080e-04  -1.0089555e-03  -7.0443412e-04
  -5.8790250e-04  -6.2737800e-04  -5.5335037e-04  -4.7019485e-04  -4.0590661e-04  -7.9087593e-04  -4.6809699e-04  -5.6290731e-04  -9.7082660e-04  -5.1931234e-04  -8.2122203e-04  -5.6632189e-04  -7.5669034e-04  -7.0033607e-04  -5.0755165e-04  -5.7064730e-04  -6.1267515e-04  -5.0092675e-04  -8.8609848e-04  -6.7137275e-04  -7.0177845e-04  -7.6055079e-04  -6.5814221e-04  -7.2396360e-04  -9.5584959e-04  -6.5350026e-04  -4.7449989e-04  -5.4711103e-04  -4.1140756e-04  -3.8029969e-04  -5.0476834e-04  -5.7043985e-04  -5.4898713e-04  -5.5721536e-04  -7.3370669e-04  -7.6792593e-04  -5.3149572e-04  -3.9700544e-04  -3.6866980e-04  -5.4396491e-04  -7.7008945e-04  -1.1469526e-03  -7.6478161e-04  -3.9702858e-04  -4.6871635e-04  -5.2217639e-04  -7.5719319e-04  -6.3563493e-04  -1.0417408e-03  -7.0769619e-04
  -3.4150135e-04  -4.3525084e-04  -1.6661968e-04  -1.7753635e-04  -1.6861940e-04  -4.4850932e-04  -2.2030900e-04  -2.4571581e-04  -7.4595731e-04  -1.4177039e-04  -4.9048330e-04  -2.9311830e-04  -4.9924175e-04  -4.3571115e-04  -4.2756094e-04  -3.2807799e-04  -4.7216751e-04  -3.3839524e-04  -2.2078260e-04  -4.1752183e-04  -3.5465753e-04  -4.6907211e-04  -3.2503504e-04  -4.6499292e-04  -7.7599753e-04  -4.2982143e-04  -2.0793237e-04  -4.2149250e-04  -1.7916385e-04  -1.8499499e-04  -3.1162365e-04  -3.0301901e-04  -4.1695245e-04  -4.2076054e-04  -5.5830186e-04  -4.7368070e-04  -2.3653872e-04  -1.7449353e-04  -1.4201761e-04  -3.1350888e-04  -6.7251100e-04  -9.0324780e-04  -6.4795412e-04  -2.9386373e-04  -9.2076785e-05  -5.7283533e-04  -6.2433421e-04  -5.5043341e-04  -9.8410761e-04  -6.2151079e-04
  -2.9503834e-04  -3.4461910e-04  -1.3284953e-04  -1.3362920e-04  -1.5808923e-04  -4.4869582e-04  -2.1051690e-04  -1.7848423e-04  -5.4757838e-04  -1.8331531e-04  -4.7991931e-04  -3.8890450e-04  -5.0289696e-04  -4.3288493e-04  -4.2633375e-04  -3.6671764e-04  -4.5586735e-04  -4.1665055e-04  -6.0141337e-04  -4.6613949e-04  -3.7704234e-04  -4.6134199e-04  -3.3227354e-04  -7.7115279e-04  -7.8947307e-04  -4.2769732e-04  -2.3853016e-04  -4.5067689e-04  -2.5820298e-04  -2.2848154e-04  -4.0470753e-04  -3.3418424e-04  -4.6291147e-04  -5.7618815e-04  -6.3096377e-04  -6.3389278e-04  -3.7551121e-04  -2.6546040e-04  -2.3144344e-04  -4.3941438e-04  -8.1402098e-04  -1.0944182e-03  -7.0686988e-04  -1.2472688e-04  -6.1454659e-04  -4.9609109e-04  -7.4492081e-04  -5.7646778e-04  -1.0047820e-03  -7.3909445e-04
  -5.5118295e-04  -5.5267912e-04  -5.4425810e-04  -4.5823312e-04  -4.9469119e-04  -7.8314199e-04  -4.5924966e-04  -5.8065006e-04  -6.5826689e-04  -4.1503322e-04  -7.1697979e-04  -4.9767387e-04  -7.1116141e-04  -6.5557362e-04  -4.8867811e-04  -5.9435173e-04  -6.1804045e-04  -5.4231012e-04  -6.3833548e-04  -6.5597409e-04  -5.9805159e-04  -7.2435010e-04  -5.8359478e-04  -1.0931321e-03  -8.8826357e-04  -5.7295698e-04  -4.9708516e-04  -5.5316917e-04  -3.9512984e-04  -3.8610830e-04  -6.0985558e-04  -4.8433605e-04  -6.0503802e-04  -5.7754823e-04  -7.2737795e-04  -7.2133233e-04  -4.8633647e-04  -3.8902025e-04  -3.3759509e-04  -5.4707145e-04  -7.7461271e-04  -9.5611048e-04  -7.3637755e-04  -7.6179497e-04  -5.8968592e-04  -4.7026563e-04  -5.3202600e-04  -5.8145879e-04  -9.5455133e-04  -6.4933259e-04
  -3.2765875e-04  -3.4404185e-04  -1.0182137e-04  -1.3193078e-04  -1.3752232e-04  -4.1215782e-04  -1.9929548e-04  -2.1973340e-04  -6.9383509e-04  -1.2305637e-05  -3.7371134e-04  -1.6285822e-04  -4.2367319e-04  -4.0218706e-04  -4.0412231e-04  -3.1140039e-04  -4.4862615e-04  -3.1594012e-04  -1.9331889e-04  -3.6997974e-04  -2.2007404e-04  -4.0286602e-04  -2.5424111e-04  -6.2760268e-04  -7.8097777e-04  -2.9361644e-04  -1.6058267e-04  -3.8439824e-04  -1.7195173e-04  -1.5011485e-04  -5.3335796e-04  -3.5939415e-04  -1.9392004e-04  -4.2475833e-04  -5.5151875e-04  -4.0173458e-04  -2.7251290e-04  -1.7156551e-04  -1.0949333e-04  -2.9763125e-04  -6.0055527e-04  -7.4647210e-04  -5.9401657e-04  -3.0573650e-04  -2.9845160e-04  -4.3327099e-04  -4.6439251e-04  -4.5919698e-04  -8.1473280e-04  -6.5643719e-04
  -2.2307227e-04  -2.2955913e-04  -1.3800202e-05  -2.6767984e-05  -1.7553831e-04  -3.7553275e-04  -1.3358716e-04  -1.3125746e-04  -6.0615852e-04  -5.0839943e-05  -3.6206076e-04  -2.6235823e-04  -4.0085515e-04  -3.2827372e-04  -3.6321545e-04  -3.0265644e-04  -3.8541632e-04  -3.1687683e-04  -2.2499418e-04  -3.4040518e-04  -2.1700287e-04  -3.2748320e-04  -2.6727992e-04  -6.9717958e-04  -6.0090382e-04  -3.1443356e-04  -2.5803712e-04  -3.6840851e-04  -1.9907620e-04  -2.0974762e-04  -4.4577671e-04  -3.8896807e-04  -2.6854119e-04  -4.1271365e-04  -5.7400542e-04  -5.8129866e-04  -2.7735796e-04  -2.7072511e-04  -1.8320103e-04  -3.4473412e-04  -7.3422509e-04  -8.9853094e-04  -6.2473392e-04  -1.9525472e-04  -4.0153263e-04  -6.2698318e-04  -5.1495305e-04  -4.6644721e-04  -8.1874762e-04  -8.0645311e-04
  -4.2904075e-04  -3.8926548e-04  -3.8580151e-04  -2.9633471e-04  -3.7453102e-04  -6.1060558e-04  -3.6484352e-04  -4.6338106e-04  -7.7498326e-04  -3.0465095e-04  -6.2314555e-04  -4.1230183e-04  -6.0096465e-04  -5.3123094e-04  -4.1838118e-04  -5.3560076e-04  -5.1655219e-04  -4.3462866e-04  -2.5470843e-04  -4.7571020e-04  -4.1593838e-04  -3.7780253e-04  -4.4439186e-04  -5.1026535e-04  -8.9862826e-04  -4.5387438e-04  -4.4897373e-04  -5.1867572e-04  -3.6949752e-04  -3.5469770e-04  -4.1257235e-04  -5.8325764e-04  -4.7201265e-04  -4.9389916e-04  -7.6465029e-04  -7.4049598e-04  -5.6135119e-04  -4.3497249e-04  -3.8202756e-04  -5.7942932e-04  -8.6164655e-04  -9.3035470e-04  -7.2609057e-04  -4.5189389e-04  -4.4063380e-04  -6.5231696e-04  -5.4634898e-04  -4.3569144e-04  -6.5620872e-04  -6.8802520e-04
  -3.0201793e-04  -2.8419419e-04  -1.3017343e-04  -1.0902323e-04  -1.7638794e-04  -3.6771968e-04  -1.6982903e-04  -1.8167522e-04  -6.6682667e-04   9.3504168e-06  -3.3265501e-04  -1.0351019e-04  -3.9760984e-04  -3.5119490e-04  -4.0791003e-04  -3.4448536e-04  -3.9685966e-04  -3.2654393e-04  -6.9930742e-04  -2.3472795e-04  -9.1636532e-05  -2.7015805e-04  -1.8931119e-04  -1.9123853e-04  -7.0356461e-04  -2.6178599e-04  -1.3567849e-04  -3.6455528e-04  -1.8621133e-04  -1.5971565e-04  -2.2468607e-04  -3.3478014e-04  -1.4148852e-04  -4.8634908e-04  -5.0829741e-04  -4.1409757e-04  -2.2490915e-04  -1.9461020e-04  -1.0115644e-04  -3.0945582e-04  -5.1033369e-04  -5.4171932e-04  -5.1767949e-04  -4.4904102e-04  -3.5675304e-04  -3.7742779e-04  -3.6241152e-04  -3.0807807e-04  -5.7630421e-04  -6.0943159e-04
  -1.3496925e-04  -1.1780127e-04   8.0231846e-05   7.3253315e-05  -4.1484986e-05  -2.9905594e-04  -5.4623411e-05  -9.4955445e-05  -4.1136006e-04   5.3368731e-05  -2.4037920e-04  -1.4801713e-04  -3.2276713e-04  -2.4723524e-04  -3.3418500e-04  -2.5842458e-04  -2.8593829e-04  -2.8860569e-04  -2.5910063e-04  -1.6441406e-04  -8.4983163e-05  -1.5549980e-04  -1.8604170e-04  -3.1089396e-04  -6.6214462e-04  -2.2038682e-04  -2.1675116e-04  -3.1259024e-04  -2.1925305e-04  -1.7259674e-04  -2.1892000e-04  -3.0703074e-04   1.5994056e-06  -3.9232889e-04  -4.8684224e-04  -4.8634387e-04  -2.7209069e-04  -2.4249693e-04  -1.5794771e-04  -3.4423059e-04  -5.6677265e-04  -5.9862103e-04  -4.5403818e-04  -8.2804059e-04  -5.1335036e-04  -4.3663706e-04  -4.0819834e-04  -3.6773682e-04  -6.0067762e-04  -6.7593675e-04
  -3.0281307e-04  -2.7967343e-04  -2.5779186e-04  -1.9381080e-04  -2.7414437e-04  -5.4510363e-04  -2.7699006e-04  -3.2615106e-04  -6.9793675e-04  -1.9292778e-04  -4.7116156e-04  -2.5293135e-04  -4.8972049e-04  -4.2059403e-04  -3.9517679e-04  -4.4111873e-04  -4.2080335e-04  -4.1259723e-04  -3.5824097e-04  -3.4147568e-04  -2.4615196e-04  -2.2693301e-04  -3.7147687e-04  -3.6766284e-04  -6.9830316e-04  -3.4014927e-04  -3.0798648e-04  -4.8439659e-04  -4.0592413e-04  -2.9962571e-04  -4.0082113e-04  -3.9074320e-04  -2.3647658e-04  -5.3979101e-04  -6.2824466e-04  -6.4131984e-04  -4.5879072e-04  -3.8079626e-04  -3.4006650e-04  -5.4537883e-04  -8.0948987e-04  -7.6590711e-04  -6.1806559e-04  -4.9858575e-04  -4.3127453e-04  -7.3989539e-04  -6.6116540e-04  -4.4332576e-04  -7.7901891e-04  -7.0710888e-04
  -5.4119033e-04  -4.5423160e-04  -4.4748222e-04  -3.2442572e-04  -3.4333277e-04  -5.3452200e-04  -3.4511462e-04  -4.1528587e-04  -5.3554494e-04  -4.9075403e-05  -4.2325066e-04  -2.5049609e-04  -3.9739840e-04  -4.0433218e-04  -4.1707369e-04  -3.9456482e-04  -3.9727028e-04  -3.6673335e-04  -1.1348845e-04  -2.4625452e-04  -9.6638498e-05  -2.6883787e-04  -1.9293178e-04  -4.7690119e-04  -6.4465997e-04  -2.5431256e-04  -2.0062084e-04  -3.9350693e-04  -2.1524000e-04  -2.1162415e-04  -1.5785701e-04  -3.1166957e-04  -1.8068533e-04  -4.2105641e-04  -4.5473437e-04  -3.7722618e-04  -2.7015567e-04  -2.3235024e-04  -1.5148883e-04  -3.7119139e-04  -3.8563291e-04  -4.2564399e-04  -4.3306220e-04  -5.4661484e-07  -3.2904133e-04  -3.8470991e-04  -3.1445202e-04  -2.4804482e-04  -4.7957487e-04  -3.7406382e-04
  -1.0082304e-04  -1.1836081e-04   8.7096822e-05   5.8590693e-05  -4.0747509e-05  -2.9010282e-04  -9.1045236e-05  -8.3707768e-05  -2.0933137e-04   8.5098720e-05  -2.0574729e-04  -9.7818927e-05  -2.7290345e-04  -2.3607252e-04  -3.0237657e-04  -2.4930268e-04  -2.5286374e-04  -2.3063202e-04  -3.9943962e-04  -1.0875430e-04  -2.6389809e-05  -9.6641284e-05  -1.3081016e-04  -4.3607698e-04  -5.2879757e-04  -1.4678026e-04  -1.4082494e-04  -2.4657676e-04  -1.6533142e-04  -1.5707230e-04  -5.1068135e-05  -2.6060760e-04   9.6769618e-05  -4.5238523e-04  -3.7875390e-04  -3.3501961e-04  -2.6942702e-04  -2.0461773e-04  -1.6076598e-04  -3.0775796e-04  -4.2568790e-04  -3.2527876e-04  -4.0936554e-04  -8.1413498e-05  -4.6848151e-04  -4.7463196e-04  -9.5684976e-05  -2.4665330e-04  -4.9676828e-04  -4.8620728e-04
  -2.3558910e-04  -2.3015399e-04  -1.5766670e-04  -8.6540975e-05  -2.1896613e-04  -4.7260319e-04  -2.3107567e-04  -2.2755492e-04  -6.3006562e-04  -1.2739314e-04  -3.7614495e-04  -2.9880603e-04  -4.1372119e-04  -3.8383534e-04  -3.2096088e-04  -3.8023223e-04  -3.5571161e-04  -2.4806525e-04  -1.6666515e-04  -2.3640678e-04  -2.4121441e-04  -2.5324791e-04  -3.1452041e-04  -5.9779431e-04  -6.1813352e-04  -2.6811421e-04  -3.2743337e-04  -3.3850013e-04  -3.0662373e-04  -2.7143816e-04  -3.6138904e-04  -4.0845782e-04  -3.8219255e-04  -4.9453881e-04  -4.8938527e-04  -5.4431113e-04  -3.6666181e-04  -3.3654660e-04  -3.1055050e-04  -5.1305472e-04  -6.5447082e-04  -5.4846058e-04  -4.7160930e-04  -4.0712825e-04  -4.4791732e-04  -6.4549531e-04  -2.6562315e-04  -3.0202899e-04  -8.2989677e-04  -6.8687100e-04
  -5.4341392e-04  -4.8164403e-04  -5.8527675e-04  -4.1971085e-04  -5.2099954e-04  -7.1784703e-04  -4.9331161e-04  -5.4504012e-04  -8.0600724e-04  -2.1781489e-04  -5.5640750e-04  -3.7133030e-04  -5.1392376e-04  -5.3889130e-04  -4.2566378e-04  -4.8670446e-04  -4.4822716e-04  -4.2811644e-04  -5.0054607e-04  -2.8666371e-04  -1.6203886e-04  -2.2255082e-04  -1.9893337e-04  -5.5266015e-04  -6.6200527e-04  -2.3536161e-04  -2.3362724e-04  -3.1302692e-04  -2.7291491e-04  -2.4377104e-04  -1.9867736e-04  -3.9201186e-04  -5.8114715e-06  -4.5579861e-04  -4.2524480e-04  -3.6330617e-04  -3.0299788e-04  -2.6191433e-04  -2.1972765e-04  -4.1486367e-04  -3.3621682e-04  -2.8140150e-04  -3.9836540e-04  -2.4573941e-04  -4.0394414e-04  -5.4553704e-04  -3.7375747e-05  -2.5579298e-04  -4.8489211e-04  -4.1956862e-04
  -1.5617028e-04  -1.7625208e-04   2.9714878e-05   4.7089776e-05  -7.4200812e-05  -3.3829635e-04  -1.2758179e-04  -2.0592861e-04  -4.7096758e-04   4.1396579e-05  -2.4939462e-04  -1.5762121e-04  -3.0131405e-04  -3.2252274e-04  -2.7079074e-04  -2.6805667e-04  -2.7347094e-04  -2.9089540e-04  -1.7779200e-04  -1.5202670e-04  -1.2037552e-04  -1.8507284e-04  -1.3405469e-04  -3.4542431e-04  -5.3200085e-04  -1.9305624e-04  -1.4872735e-04  -2.4703646e-04  -1.3189051e-04  -1.6276981e-04  -3.2672464e-04  -3.4948668e-04  -1.2043184e-05  -4.4342768e-04  -3.2963831e-04  -2.9160580e-04  -2.7613834e-04  -2.0732486e-04  -1.7945048e-04  -3.5003468e-04  -3.3336325e-04  -3.4694024e-04  -3.5069903e-04  -2.7280537e-04  -5.7241571e-04  -7.0196379e-04  -1.7061779e-04  -2.1032407e-04  -3.9583564e-04  -4.2469983e-04
  -2.8284741e-04  -2.4691227e-04  -1.4919645e-04  -8.4156629e-05  -2.1499505e-04  -4.8367216e-04  -2.2696053e-04  -2.3037499e-04  -6.9589360e-04  -1.4277083e-04  -3.6993859e-04  -2.7341774e-04  -4.0654032e-04  -3.8817764e-04  -3.3118378e-04  -3.7167751e-04  -3.2584643e-04  -3.0577657e-04   1.9845521e-04  -2.3140172e-04  -2.5675926e-04  -2.4058089e-04  -2.5371223e-04  -5.4411904e-04  -5.8053562e-04  -3.1963614e-04  -2.5672870e-04  -3.3334651e-04  -2.6090894e-04  -2.4902329e-04  -3.0200669e-04  -3.4822844e-04  -2.9551290e-04  -4.1732760e-04  -4.5309300e-04  -4.3152645e-04  -4.0779589e-04  -3.2916729e-04  -3.0098311e-04  -5.1457435e-04  -5.4272974e-04  -4.4106116e-04  -3.6822670e-04  -6.6927471e-04  -5.9179048e-04  -5.8384973e-04  -4.2733201e-04  -3.8639066e-04  -6.7035033e-04  -5.5761670e-04
  -5.0767366e-04  -4.8073911e-04  -5.3248025e-04  -3.5194177e-04  -4.1265634e-04  -6.4124359e-04  -4.2616238e-04  -4.6390944e-04  -5.8191287e-04  -1.3873584e-04  -4.7418350e-04  -2.5383037e-04  -4.2259114e-04  -4.2288276e-04  -3.3955206e-04  -3.8002493e-04  -3.6314185e-04  -3.3215532e-04  -3.9538764e-04  -1.9403921e-04  -1.6621563e-04  -2.8907199e-04  -2.0281109e-04  -2.1943355e-04  -5.2937615e-04  -2.4270891e-04  -2.0208924e-04  -2.8835912e-04  -2.1326338e-04  -2.0504014e-04  -2.7108385e-04  -2.3391061e-04  -2.2860772e-04  -3.5742534e-04  -3.3418345e-04  -2.5697847e-04  -2.8022259e-04  -2.2196198e-04  -1.6676936e-04  -3.6359069e-04  -2.0857665e-04  -2.2315144e-04  -2.6082291e-04  -3.5360726e-04  -3.8649503e-04  -4.7925988e-04  -1.0445168e-04  -2.2469305e-04  -2.3407879e-04  -3.9962688e-04
  -1.7344105e-04  -1.8794624e-04   4.6555775e-05   4.9411017e-05  -1.0527774e-04  -3.8008232e-04  -7.1091992e-05  -1.8011905e-04  -3.5658633e-04   2.9936888e-05  -2.2917449e-04  -1.4567150e-04  -2.9297138e-04  -2.9786062e-04  -2.7411719e-04  -2.4180001e-04  -2.1012666e-04  -1.2442838e-04   3.5203432e-04  -1.1730754e-04  -3.9240556e-05  -1.5434240e-04  -1.6487375e-04  -2.0892697e-04  -4.1575354e-04  -1.6332341e-04  -1.5302442e-04  -1.8560124e-04  -1.5982805e-04  -1.4745045e-04  -1.8306646e-04  -2.3515527e-04  -1.2061961e-04  -4.0470270e-04  -2.6815815e-04  -2.2813206e-04  -2.6818062e-04  -1.5711537e-04  -1.7146209e-04  -3.5332699e-04  -2.5399719e-04  -2.0066838e-04  -2.3484077e-04  -5.5976154e-04  -4.9616577e-04  -2.6760239e-04  -4.2923431e-05  -2.4703384e-04  -4.6467915e-04  -2.6864550e-04
  -2.8220614e-04  -2.9354144e-04  -2.1217206e-04  -8.7236673e-05  -2.5932398e-04  -5.0991710e-04  -2.3703219e-04  -3.1332136e-04  -6.9306092e-04  -1.5568639e-04  -3.9169259e-04  -2.9505309e-04  -4.3347734e-04  -3.9991862e-04  -3.0131600e-04  -3.6937618e-04  -2.9045547e-04  -2.8214802e-04  -3.5899918e-04  -2.4423309e-04  -2.5946827e-04  -2.8565837e-04  -2.9858344e-04  -4.1385202e-04  -5.3211243e-04  -2.9084220e-04  -3.3374081e-04  -2.6132356e-04  -2.4458734e-04  -2.5885785e-04  -4.0584226e-04  -2.8792609e-04  -2.8238157e-04  -4.8457284e-04  -4.0337708e-04  -4.0422328e-04  -3.7238072e-04  -3.2111155e-04  -3.1235669e-04  -5.3553225e-04  -4.9360236e-04  -5.2719080e-04  -3.7938086e-04  -2.9641512e-04  -5.4751756e-04  -5.4460589e-04  -3.2307417e-04  -2.7222608e-04  -3.4619687e-04  -3.6760423e-04
  -4.5675441e-04  -4.1655471e-04  -2.3039083e-04  -1.8013325e-04  -2.1195790e-04  -4.7524043e-04  -2.7578580e-04  -2.8239656e-04  -2.8423363e-04   1.6880282e-05  -3.1258623e-04  -1.8211197e-04  -3.3686523e-04  -3.2639224e-04  -3.1923121e-04  -2.6002014e-04  -2.5545913e-04  -2.5339823e-04   2.2588196e-04  -1.0515926e-04  -8.4639491e-05  -1.7591116e-04  -1.4463101e-04   2.1345144e-04  -4.9010379e-04  -1.8473658e-04  -1.4827328e-04  -1.9675927e-04  -1.2214953e-04  -1.4403467e-04  -3.5432039e-04  -2.0021643e-04  -4.3174275e-04  -2.5970649e-04  -2.1419721e-04  -1.1551956e-04  -1.8032003e-04  -1.3817588e-04  -1.1406254e-04  -2.7538286e-04  -1.8548375e-05   2.0605982e-04  -1.5695520e-04  -4.4013257e-04  -3.3204630e-04  -2.3555382e-04  -1.6850709e-05  -1.7951823e-04  -2.1601754e-04  -1.2278723e-04
  -6.4684122e-05  -1.5727375e-04   1.6433056e-04   1.5836410e-04  -4.8479349e-05  -2.9712351e-04  -6.9308888e-05  -8.1309947e-05  -3.2271838e-04   1.1650720e-04  -1.2030512e-04  -2.2633078e-05  -2.1065290e-04  -1.9442408e-04  -1.8695908e-04  -1.3406436e-04  -1.0728036e-04  -1.1426637e-04  -2.8865121e-04  -5.0230927e-05  -6.5011668e-06  -1.2947348e-04  -2.7792288e-05  -1.9472645e-04  -2.9940647e-04  -1.3739942e-04  -5.4482316e-05  -8.7392866e-05  -3.8769602e-05  -7.6616598e-05  -4.9109560e-05  -2.4399300e-04  -1.6553390e-04  -1.4775380e-04  -1.2408230e-04  -1.8481287e-04  -2.0689137e-04  -1.1066982e-04  -1.0411646e-04  -3.1472309e-04  -6.3264124e-05   4.8136397e-05  -9.1284717e-05  -2.1755927e-04  -2.4078831e-04  -1.9519810e-04  -2.6631480e-05  -1.3749019e-04  -2.5283219e-04  -1.2567574e-04
  -2.2925519e-04  -2.6292261e-04  -9.3109826e-05  -2.9691993e-05  -1.9678067e-04  -4.5924715e-04  -2.0858806e-04  -2.8806194e-04  -4.7296111e-04  -1.1011011e-04  -3.2289128e-04  -2.3145790e-04  -3.6974176e-04  -3.6441401e-04  -2.3865042e-04  -2.9498493e-04  -2.1435255e-04  -1.7493471e-04  -3.1467440e-04  -1.7870571e-04  -2.2219290e-04  -3.2780840e-04  -2.1682249e-04  -6.1437796e-04  -4.2916075e-04  -2.4292216e-04  -3.0676401e-04  -2.0726574e-04  -2.1993603e-04  -1.9145578e-04  -3.2894113e-04  -3.0304762e-04  -1.9632309e-04  -4.1035312e-04  -2.7419277e-04  -2.9721693e-04  -3.3110986e-04  -2.7392610e-04  -2.7479776e-04  -4.9780699e-04  -3.0473081e-04  -1.7922197e-04  -2.1661450e-04  -5.3159427e-04  -3.8643539e-04  -3.7832028e-04  -1.3803066e-04  -1.6335757e-04  -2.1917988e-04  -2.0979083e-04
  -3.4469893e-04  -3.6252080e-04  -1.0321990e-04  -7.1672723e-05  -1.6568213e-04  -3.8682742e-04  -1.7496734e-04  -2.4527774e-04  -1.9451624e-04   1.1488326e-04  -1.9167183e-04  -1.0861646e-04  -2.2426131e-04  -2.5205483e-04  -2.1029491e-04  -1.7496280e-04  -1.3509093e-04  -1.7973279e-04  -3.5328863e-05  -3.8549490e-05   2.1418491e-05  -1.9753816e-04  -5.0611638e-05   4.0420611e-05  -3.8374160e-04  -1.3706794e-04  -9.7185002e-05  -7.5892138e-05  -1.9073923e-05  -5.5080618e-05  -1.1452779e-04  -7.5734490e-05  -1.9789018e-06  -1.9140124e-04  -6.1881816e-05  -2.3401679e-05  -1.4262320e-04  -3.4045981e-05  -5.4968055e-05  -1.7682824e-04   2.0203312e-04   2.7821265e-04   1.9366777e-05  -3.9377952e-08  -2.0918348e-04  -1.8622969e-04   2.7788832e-04   4.7995487e-05   1.4706729e-04  -1.9009682e-05
   6.0114191e-05  -7.8737146e-05   3.0196819e-04   2.7970481e-04   6.8599009e-05  -1.6349662e-04   8.3291183e-05   3.0517826e-05  -2.7136263e-04   2.4912794e-04  -4.9965147e-06   5.8731031e-05  -9.9888392e-05  -1.0620205e-04  -9.9409081e-05  -1.4995376e-05   3.8424161e-05  -5.2957061e-05   2.3554533e-04   8.7997600e-05   1.0317066e-04  -1.1215547e-04  -2.0055659e-05  -1.8859930e-04  -2.3018783e-04  -8.1062215e-05  -6.9366230e-05   4.6691639e-06   2.0604331e-05   4.3435148e-07  -1.1943404e-05  -7.7843752e-06  -2.0895067e-04  -6.0165003e-05   3.2962911e-05   6.4413985e-06  -7.9688834e-05  -4.1815696e-05  -2.9988916e-05  -1.3239274e-04   1.4601304e-04   2.1807774e-04   5.7061276e-05  -4.7728163e-04  -1.7677767e-04  -1.3755752e-04   1.4736042e-04   2.9210622e-05  -9.5982185e-05   1.6191390e-05
  -8.4671403e-05  -1.9215800e-04   3.3178774e-05   9.4394054e-05  -1.0397811e-04  -3.6090470e-04  -1.1409650e-04  -2.6715666e-04  -3.2350258e-04   1.3618956e-05  -1.9924522e-04  -1.9289518e-04  -2.2587989e-04  -2.0593582e-04  -1.3774773e-04  -1.6358774e-04  -8.0519232e-05  -1.6561865e-04  -2.5758040e-04  -5.1925785e-05  -1.0358095e-04  -2.0218444e-04  -1.9554437e-04  -4.3931257e-04  -2.9898554e-04  -2.0940931e-04  -1.4005310e-04  -1.3719684e-04  -1.2624098e-04  -1.2988503e-04  -1.9874735e-04  -7.2547067e-05  -3.2064936e-06  -1.8330723e-04  -1.1324561e-04  -1.7369854e-04  -2.2556772e-04  -1.8804528e-04  -1.9326029e-04  -3.7286364e-04  -1.2507918e-04  -2.0229994e-05  -6.6492219e-05  -4.0753867e-04  -2.7108172e-04  -2.2339991e-04   4.0161278e-05  -8.2652441e-05  -1.6346919e-04  -1.4991562e-04
  -4.2714443e-04  -4.3097671e-04  -3.1021645e-04  -2.0448338e-04  -3.3250437e-04  -5.5120990e-04  -2.9771592e-04  -3.7110789e-04  -4.5761443e-04   4.1069041e-05  -2.6680250e-04  -1.6615687e-04  -2.1596139e-04  -2.9351976e-04  -1.7163390e-04  -1.6999595e-04  -1.1733435e-04  -1.5155181e-04   2.6135932e-04  -3.1037391e-05   2.6955313e-05  -8.6499043e-05  -4.4104021e-05   2.3655464e-04  -3.1857155e-04  -1.2885456e-04  -3.0052561e-05  -3.3499538e-05  -2.8267657e-05  -3.2750952e-05  -8.6679640e-05  -8.9779613e-05   1.3353648e-04  -1.9179606e-04   2.0891443e-05   9.8961660e-05  -6.0865146e-05  -3.7326485e-05  -2.5324296e-05  -1.0848492e-04   3.3668778e-04   4.4946914e-04   1.1860493e-04   8.3985826e-05  -1.5771751e-05   5.8656820e-05   3.3774052e-04   1.1003843e-04   1.8638080e-04   2.4541712e-04
   1.2399399e-04  -4.3703326e-06   4.0143641e-04   3.4289743e-04   1.9344308e-04  -5.2441577e-05   1.6306495e-04   5.3392854e-05   1.0244957e-04   3.0095931e-04   9.5321724e-05   5.3329375e-05   1.1652745e-05  -1.4163029e-05  -7.0429533e-06   4.3041378e-05   8.9990717e-05   1.2354981e-04   2.2375816e-04   1.7132936e-04   1.9516384e-04  -6.0114395e-05   2.0910007e-05   1.6758280e-04  -1.6083346e-04  -2.7910575e-05   6.2275205e-05   7.6443510e-05   1.2562069e-04   5.6916215e-05   2.3854387e-04   4.0147381e-05  -5.8846905e-05   2.3008801e-05   1.3187053e-04   8.0982551e-05  -3.3601409e-05   3.0408135e-05   3.3666107e-05  -1.1531060e-04   3.2237667e-04   3.4132463e-04   2.0174046e-04   2.5533922e-05  -1.8462412e-04   8.3667648e-05   4.7003527e-04   1.9335776e-04   1.6298112e-04   1.8202678e-04
   1.8047909e-05  -1.1733980e-04   1.6802886e-04   2.0600548e-04   7.1981252e-05  -2.4516316e-04   2.3872846e-05  -1.7514941e-04  -3.8836841e-04   9.7672259e-05  -4.9655639e-05  -1.9434930e-05  -7.5739255e-05  -1.5758551e-04  -3.7727630e-05  -4.2968844e-05   5.4664601e-05   4.9553433e-05   4.6066914e-04   7.0648850e-05   1.9375455e-05  -9.7460084e-05  -7.0276066e-05  -4.0171345e-04  -1.2415496e-04  -1.4156067e-04  -3.0244439e-05   6.0729104e-05   3.5635730e-05  -2.8226113e-05  -2.0728809e-04   5.3141921e-05  -1.7884622e-05  -1.4263704e-04   1.6161712e-05  -3.4790304e-05  -1.0768473e-04  -8.2577673e-05  -1.2596534e-04  -2.5248900e-04   9.8648998e-05  -8.6871760e-06   9.2188508e-05  -3.5286415e-04  -2.8408042e-05  -2.7080424e-04  -2.1692479e-06   3.0128596e-05  -4.5753237e-05   1.0344289e-04
  -2.9435504e-04  -3.6299817e-04  -2.5459807e-04  -1.3750639e-04  -2.9161709e-04  -5.3942436e-04  -2.5024067e-04  -3.3704727e-04  -4.9361266e-04  -1.7017135e-04  -3.5425383e-04  -2.5164551e-04  -3.0270708e-04  -3.3463229e-04  -1.5709313e-04  -2.6092198e-04  -1.3985134e-04  -1.2592439e-04  -3.0347862e-04  -8.6577034e-05  -1.4267523e-04  -3.3182057e-04  -1.1347190e-04   1.2702086e-04  -3.2738477e-04  -1.6962789e-04  -9.5434945e-05  -8.1793100e-05  -1.2603460e-04  -8.7411026e-05  -1.6718297e-04  -5.9466329e-05  -6.1220504e-05  -1.8379702e-04   1.2870139e-05   8.3332845e-05  -9.8677869e-05  -5.4539993e-05  -6.0881477e-05  -1.7834001e-04   3.2041606e-04   3.0136967e-04   1.7702936e-04  -2.8249982e-04  -2.1288368e-05  -1.4484345e-04   2.3341014e-04   8.9388916e-05   2.4429458e-04   2.4975077e-04
   9.7029282e-05  -4.8488553e-05   3.6978471e-04   3.1737669e-04   2.2816390e-04  -5.5252618e-05   1.6843196e-04   8.2598250e-05  -3.2298523e-04   3.1213532e-04   1.2249245e-04   1.5049013e-04   2.4887675e-05  -5.6893168e-06   1.8436348e-06   9.4522693e-05   1.0655525e-04   1.1676471e-04  -3.7731070e-04   1.2752062e-04   1.6872697e-04  -7.4569900e-05   2.8027336e-05  -1.3051003e-04  -7.5261414e-05  -2.9176730e-05   1.0880225e-04   1.0633292e-04   1.2612526e-04   9.7785363e-05   2.8509112e-05   1.0999262e-04   1.3230868e-04   1.7599368e-05   1.8931156e-04   1.0085534e-04   2.0671683e-05   7.0348622e-05   4.5031873e-05  -2.9024457e-05   4.1190931e-04   3.5353057e-04   2.4752098e-04   1.5957028e-04   9.1321243e-05   3.4848428e-05   3.5217273e-04   1.7544023e-04   2.0667305e-04   2.7876519e-04
   4.5457971e-05  -8.2549064e-05   2.3386923e-04   2.3795805e-04   7.7960598e-05  -2.0450281e-04   5.7471410e-05  -1.2177619e-05  -1.4412648e-04   1.2728368e-04  -3.6279712e-07  -4.1509111e-06  -2.7692660e-05  -5.3741973e-05   6.4690132e-05   1.9589288e-05   7.3047486e-05   2.6313468e-05   2.7943170e-04   1.0028705e-04   6.3465523e-05  -1.0469748e-04  -6.3486323e-06   1.0881992e-04  -1.0907293e-04  -8.7933273e-05  -1.7609924e-05   1.0917557e-04   1.9900132e-05   2.6418427e-05   1.6439824e-05   5.6823628e-05  -1.2700094e-04  -8.0932859e-06   8.6804801e-05  -2.4306548e-05  -9.9225254e-05  -3.7577040e-05  -7.9716527e-05  -1.6166201e-04   1.6808057e-04   1.6305408e-04   2.0077715e-04  -2.9282196e-04  -1.0276942e-04   1.4623320e-04   1.4444480e-04   7.3910938e-05   1.0873243e-04   1.3962178e-04
  -2.4430547e-04  -3.4185816e-04  -1.7970602e-04  -1.0586763e-04  -2.5428744e-04  -4.5911531e-04  -2.2214638e-04  -3.7348850e-04  -4.7468589e-04  -1.2945794e-04  -2.5152459e-04  -1.0068010e-04  -2.5592992e-04  -3.2552169e-04  -7.1727613e-05  -2.1378079e-04  -1.0300198e-04  -1.1065635e-04  -1.3144851e-04  -1.6372604e-04  -2.7438020e-04  -2.6515275e-04  -2.3749299e-04  -1.5571566e-04  -2.6002974e-04  -2.8292122e-04  -2.4680712e-04  -9.0289752e-05  -1.4707808e-04  -1.5919573e-04  -1.9471298e-04  -7.5677330e-05  -1.5260607e-04  -2.3446811e-04  -9.6434655e-05  -1.9872609e-04  -2.3888872e-04  -1.8530483e-04  -2.1799500e-04  -2.8471020e-04   1.6957513e-04   1.0278355e-04   6.4772103e-05  -3.9177760e-04  -1.2906235e-04   6.9632238e-06   2.2061709e-04   2.4911986e-05   1.3881355e-05   1.6862438e-04
  -3.2765961e-06  -1.7020496e-04   1.9719444e-04   1.6421525e-04   3.6021982e-05  -1.4771937e-04   5.4452597e-05  -5.9050224e-05  -1.4697391e-04   2.2254993e-04   2.7888416e-05   1.2691290e-04  -3.4031895e-05  -8.4402716e-05  -1.8730860e-05   3.4667042e-05   1.5339991e-05   4.9139486e-05   1.2137511e-05   6.0110204e-05   1.1893280e-04  -8.8423745e-05   2.5857500e-05   1.7302670e-04  -1.1636616e-04  -7.2006915e-05   1.7197979e-05   6.0865641e-05   8.3999541e-05   4.7901725e-05  -1.5299939e-04  -1.0605356e-04  -1.9626085e-04   3.7946505e-05   9.2124690e-05   1.0645035e-04  -1.6659356e-05   3.8136259e-05  -5.2868531e-06  -1.4223656e-04   3.1381039e-04   2.8954435e-04   2.0267659e-04   1.7499618e-04   2.0516716e-04  -8.1984836e-05   4.9331062e-04   1.1559156e-04   1.2068710e-04   2.7308179e-04
   2.7068229e-05  -1.3249487e-04   1.9617699e-04   1.8577975e-04   6.8566216e-05  -2.0633095e-04   2.1343340e-05  -7.7373625e-05  -1.6668852e-04   9.7536089e-05  -3.3502081e-05  -3.2379103e-05  -6.8464622e-05  -8.1172926e-05  -1.8602461e-05   2.7842161e-06   1.9550780e-05   1.7705041e-05  -9.2547278e-05   7.0370752e-06   3.4268640e-05  -7.0567854e-05  -5.4225751e-05  -5.1281870e-05  -1.9395567e-04  -1.3968849e-04  -6.7566703e-05   2.1201393e-05   1.1988605e-05   6.9531125e-06  -1.0594497e-04   9.1042566e-06  -2.5652855e-04  -3.1752625e-05   5.5199354e-05  -3.5363901e-05  -1.3436518e-04  -5.8961021e-05  -7.5220429e-05  -1.5229185e-04   1.0250239e-04   1.8776338e-05   1.2991825e-04  -3.5248950e-04   1.5266679e-04  -2.8589561e-06   5.0699055e-05   7.8307203e-06  -2.0004700e-05   8.5491636e-05
  -2.4775483e-04  -3.4203625e-04  -1.7581049e-04  -1.1075884e-04  -2.1610394e-04  -4.6223018e-04  -1.9182198e-04  -2.9098507e-04  -1.7422202e-04  -1.5678190e-04  -2.8620646e-04  -1.4207553e-04  -2.6005649e-04  -3.0093675e-04  -1.0574771e-04  -1.8158936e-04  -1.3843819e-04  -1.0768847e-04  -4.7099576e-04  -1.6913108e-04  -1.9651586e-04  -4.1279232e-04  -1.8748966e-04  -2.2281981e-04  -2.9122178e-04  -2.9951270e-04  -2.5766806e-04  -1.0681266e-04  -1.2712076e-04  -1.3803887e-04  -2.0408627e-04  -1.7071243e-04  -4.0796190e-04  -2.1399236e-04  -1.3191221e-04  -2.8182263e-04  -2.5210605e-04  -2.2546611e-04  -2.2849621e-04  -3.9593776e-04   2.2902734e-05  -8.1852697e-05  -9.6927379e-06  -5.1151752e-04  -7.8270998e-05  -1.3356666e-04  -1.5840046e-04  -1.1654981e-06   7.5400130e-05   1.6967386e-05
  -1.1095597e-04  -2.2471434e-04   1.2296367e-04   8.4918778e-05   1.3040014e-05  -2.0317953e-04  -3.7747228e-05  -1.2311673e-04  -1.0013235e-04   1.4403275e-04  -4.2317719e-05   4.4572491e-05  -9.0047703e-05  -1.2284875e-04  -9.6222859e-05   2.4005801e-06  -3.2665641e-05   2.0174060e-05  -2.3693108e-04  -7.1228991e-05   7.0410686e-05  -1.3959709e-04   3.4452518e-05   1.0213444e-04  -2.6726472e-04  -1.1906387e-04  -1.6345275e-05   2.6675825e-05   4.5806988e-05   3.6819729e-05  -5.1861862e-05   8.5651927e-06  -4.7622700e-05  -7.3847878e-05   8.9027024e-05  -3.7330869e-05  -3.9957322e-05  -1.1180069e-05  -1.2797628e-05  -7.5332297e-05   2.0964941e-04   6.7389330e-05   8.1416256e-05  -2.3789167e-05  -2.4786108e-05  -1.3305442e-04   1.9477349e-04  -1.8581508e-05   6.7585970e-05   1.9142951e-04
  -8.4896827e-05  -2.1101868e-04   9.9349170e-05   8.2754566e-05  -5.6458666e-06  -2.4436190e-04  -4.8337653e-05  -1.5323925e-04  -4.8183004e-04   4.0557465e-05  -6.6745430e-05  -7.7308432e-05  -1.2365791e-04  -1.2534774e-04  -5.0810631e-05  -4.3333031e-05  -4.9764443e-05   2.0911293e-05   3.0635827e-05  -5.3779244e-05  -7.0259921e-05  -2.9609230e-04  -1.1877935e-04  -4.8274065e-05  -2.2832616e-04  -2.0253939e-04  -1.0088044e-04  -1.1925110e-05   5.7263492e-07  -1.6304122e-05  -7.0787049e-05  -4.5439556e-05  -5.1518840e-05   5.6079196e-05   5.1628363e-06  -1.4734597e-04  -9.4569776e-05  -8.2815008e-05  -7.3739538e-05  -2.0543936e-04   1.4047763e-05  -1.2406519e-04   5.4814202e-05   7.8712663e-05  -8.3065461e-05  -2.4594408e-06  -1.4825218e-04  -1.0267117e-04  -4.3865777e-05  -3.4274093e-05
  -3.5168251e-04  -4.1528471e-04  -3.0197069e-04  -2.2862083e-04  -2.6095298e-04  -5.2167027e-04  -2.5134863e-04  -4.0065814e-04  -4.1321816e-04  -2.1336289e-04  -3.5215711e-04  -1.7509786e-04  -3.8610570e-04  -3.5793238e-04  -1.5651273e-04  -2.4878408e-04  -2.2661425e-04  -1.4435730e-04  -6.3880478e-05  -2.6938238e-04  -2.6307054e-04  -3.9493979e-04  -2.5580489e-04  -4.9334096e-05  -3.6761147e-04  -3.2388305e-04  -2.4871435e-04  -1.1712868e-04  -1.9326767e-04  -1.7295602e-04  -2.0709976e-04  -1.3406496e-04  -3.3506125e-04  -2.0388415e-04  -1.3340052e-04  -2.3321470e-04  -2.3907523e-04  -1.6915331e-04  -1.8781729e-04  -2.8205695e-04   8.1192098e-05  -6.1942294e-05  -6.5870612e-05  -1.6646821e-04  -4.4206995e-06  -1.6804886e-04   1.6271300e-04  -8.7290297e-05   7.7251607e-05   5.2454772e-05
  -1.0143801e-04  -2.4105079e-04   1.1740294e-04   8.0560414e-05   3.0331783e-05  -1.7429263e-04   4.9585826e-05  -1.1867797e-04  -1.0871296e-04   1.5316272e-04   9.1573256e-06   9.0546229e-05  -1.0374084e-04  -8.8001034e-05  -5.1645296e-05   8.5420252e-06  -5.4120541e-05   3.2423210e-05   7.6311473e-05  -9.2653754e-05   6.6461471e-05  -2.1269012e-04   4.7760172e-05   1.3002804e-04  -2.7296005e-04  -1.4752464e-04   1.3414787e-05   2.1136200e-05   3.6592050e-05   4.1073221e-05  -2.5195553e-04   6.4384330e-05   2.3158271e-05   4.9308161e-05   3.9168339e-05   1.1933924e-05  -7.8320518e-05   1.7624650e-05   1.4490084e-05  -1.2934674e-04   1.5929402e-04   3.9339691e-05   5.6953704e-05   2.0112506e-04   3.2174733e-04   6.9999151e-05   1.4596136e-04   4.7953818e-06   1.1270203e-04   1.7594178e-04
  -1.0850346e-04  -2.2871095e-04   5.2882489e-05   5.1687741e-05   6.0034058e-06  -2.7506214e-04  -1.1779292e-05  -1.7755281e-04  -2.4938365e-04   3.1367250e-05  -4.6808775e-05  -7.1268805e-05  -1.6536974e-04  -1.6101293e-04  -5.8657541e-05  -3.7526490e-05  -8.9696528e-05  -3.0371955e-05   2.5508017e-04  -1.0572443e-04  -7.1725852e-05  -1.8181672e-04  -1.0061907e-04  -7.8702658e-05  -2.4932981e-04  -1.9909134e-04  -7.1954244e-05   4.0398932e-05   8.3550657e-07  -1.8061241e-05  -1.1355779e-04  -1.4500911e-04  -3.1157373e-04  -2.1421934e-04  -5.7498284e-05  -6.6249959e-05  -1.4580786e-04  -6.0565464e-05  -7.3074516e-05  -2.6638550e-04  -6.8370093e-05  -2.1374940e-04  -2.6849966e-05   1.9924730e-05   7.7351462e-05  -1.1948948e-04  -7.0701950e-05  -1.1068941e-04  -8.5361957e-05   2.3072207e-05
  -3.9463345e-04  -4.4838671e-04  -3.8685396e-04  -2.8419954e-04  -3.1249155e-04  -5.3974258e-04  -2.7726803e-04  -4.0165655e-04  -3.7080090e-04  -2.2083180e-04  -3.4166710e-04  -2.5475866e-04  -3.9742468e-04  -3.9748475e-04  -1.3555617e-04  -2.5992788e-04  -2.7091891e-04  -1.5313194e-04  -1.2733458e-04  -2.9183720e-04  -2.7495844e-04  -4.1988917e-04  -2.4506345e-04  -3.6587572e-04  -3.9238870e-04  -3.3844096e-04  -1.4846830e-04  -1.5131150e-04  -8.4971660e-05  -1.2286579e-04  -3.5697283e-04  -7.4725722e-05  -1.2073234e-04  -1.8768336e-04  -6.9918096e-05  -8.3496016e-05  -1.2722854e-04  -6.8516587e-05  -8.8100642e-05  -2.0586919e-04   8.0850354e-05  -1.2445670e-04  -1.5036741e-06  -7.3696814e-05   6.1730585e-05   2.0628324e-04  -2.2375076e-04  -5.6428536e-05   1.8463818e-04   1.7362891e-04
  -2.3071414e-05  -1.6007577e-04   2.0743933e-04   1.4394488e-04   5.3113185e-05  -1.0805739e-04   6.2735991e-05  -1.0537458e-05   1.4049899e-04   2.4890696e-04   1.0497417e-04   2.0182366e-04  -4.5848537e-05  -4.7004603e-05  -3.7300419e-05   7.4865005e-05  -2.5625237e-05   4.6654739e-05   1.5538716e-04  -6.8985079e-05   6.1882063e-05  -2.2185237e-04   8.3868479e-05   2.7837424e-04  -1.9519364e-04  -1.2319126e-04   3.6646750e-05   1.2909425e-04   1.0426545e-04   8.3297156e-05  -5.7893139e-05   4.3874061e-05  -3.6870025e-04  -1.0781967e-04   7.0283895e-05   1.3571899e-04  -2.8969929e-05   6.7002140e-05   5.1767445e-05  -4.6755653e-05   1.1108722e-04  -1.1707786e-05   2.1422977e-05   8.9114023e-05   6.4689979e-05   1.4792642e-04   1.2843557e-04  -2.3158962e-05   2.4932867e-04   2.1439322e-04
  -5.4720127e-05  -1.7332543e-04   1.0728154e-04   8.3938728e-05   4.4000917e-06  -2.1962567e-04  -2.5516480e-05  -9.3035887e-05   3.5119207e-05   8.4631545e-05   1.6753789e-05  -1.9926858e-06  -1.1613958e-04  -1.6116234e-04  -2.8761177e-05   1.3052224e-05  -8.1326732e-05  -1.8206154e-05  -2.6833020e-05  -1.2100005e-04  -1.0278377e-04  -2.1281547e-04  -7.6478667e-05   2.6675372e-04  -2.8333266e-04  -1.4856341e-04  -2.8233269e-05  -2.8599932e-05   1.1422363e-04   2.6091926e-05  -4.4613465e-05  -2.8656357e-05  -2.3998856e-04  -1.3402179e-04  -2.5501378e-05  -1.1340494e-04  -1.7022273e-04  -3.1760905e-05  -3.4979861e-05  -1.8835068e-04  -1.3357977e-04  -3.1608020e-04  -1.0471294e-04   3.6212525e-04  -1.3094934e-04   1.1475480e-04  -3.0031597e-04  -9.5743933e-05  -4.0652711e-05   3.6871936e-06
  -3.3638239e-04  -4.1423072e-04  -3.4869005e-04  -2.5682064e-04  -3.3050403e-04  -5.2414869e-04  -3.2114162e-04  -4.1008214e-04  -3.3334110e-04  -1.7532673e-04  -2.6949958e-04  -2.0730040e-04  -3.6271504e-04  -3.2648677e-04  -1.4019528e-04  -2.2418250e-04  -2.5322329e-04  -1.1097691e-04  -1.5358524e-04  -2.8987584e-04  -2.5033962e-04  -4.4050990e-04  -1.3235016e-04   4.3984543e-05  -3.1769156e-04  -2.3857734e-04  -1.1659975e-04  -1.3942289e-04  -5.6778052e-05  -7.0263486e-05  -2.7417057e-04  -8.5754888e-05  -1.3646101e-04  -1.3108585e-04  -6.2024170e-05  -9.4033086e-05  -1.6312688e-04  -2.0959536e-05  -1.8319617e-05  -1.4862773e-04  -4.6135524e-06  -1.5652849e-04  -1.0767487e-04   1.6921760e-04  -5.3762513e-05   2.9607388e-06  -1.6704272e-04  -7.6428929e-05   2.9027494e-04   1.3849288e-04
   7.5918333e-06  -1.0507884e-04   2.5898896e-04   1.8439903e-04   1.3708588e-04  -4.9894301e-05   1.2665994e-04   4.6642894e-05   2.1712462e-04   3.1478447e-04   1.9541902e-04   2.4278353e-04   1.1331296e-05   3.5432971e-05  -3.3812537e-06   1.0696941e-04   7.7018049e-06   9.9567311e-05   2.7758155e-05  -1.5104050e-05   1.3026399e-04  -1.6297438e-04   9.5908406e-05   5.4657980e-06  -2.1614344e-04  -6.0507278e-05   7.0525522e-05   6.3416148e-05   1.3417046e-04   1.2704794e-04   3.4029617e-05   3.0128710e-06   7.6402408e-05  -8.5123929e-06   9.4703151e-05   3.2286982e-05   2.2411696e-05   1.0305282e-04   1.0212908e-04   8.5437878e-06   2.9128705e-05  -1.0784984e-04  -2.3170520e-05   3.6062190e-04   2.1070818e-04   1.1032335e-04   9.7151111e-05   1.5939544e-05   2.5884697e-04   2.0825279e-04
   3.3758406e-05  -1.1221722e-04   1.3435913e-04   1.2832200e-04   3.7493683e-05  -1.5372713e-04  -1.9656753e-05  -1.7917651e-05  -1.4513680e-04   1.6275565e-04   1.1026111e-04   9.9566787e-05  -3.9264673e-05  -2.4393805e-05  -2.6698381e-05   4.5628138e-05  -3.1467207e-05  -1.4133307e-05  -1.2083000e-04   3.5259172e-06   3.8424765e-05  -1.9127074e-04   2.6209709e-05  -3.2979273e-04  -2.0058504e-04  -1.3285266e-04   5.4709849e-06   1.6219819e-05   6.9197740e-05   6.3520456e-05  -6.9642767e-05   1.3015314e-04  -3.5705525e-04  -1.4787742e-04  -1.5906693e-05  -1.5812494e-04  -1.7771703e-05  -7.3471315e-06  -2.6425776e-05  -1.4040290e-04  -2.1396345e-04  -3.0879813e-04  -1.5137270e-04   9.9403929e-05   1.1817001e-04   1.8771292e-05  -2.1051058e-04  -9.9651428e-05   1.1829743e-04  -7.8515604e-06
  -2.7327688e-04  -3.3670786e-04  -2.7006556e-04  -1.7685845e-04  -2.2602272e-04  -4.3010892e-04  -2.1933587e-04  -2.5473876e-04  -2.5387466e-04  -9.8884266e-05  -1.9051650e-04  -7.5389849e-05  -2.8750405e-04  -2.5374032e-04  -6.7488887e-05  -1.6974719e-04  -2.0478322e-04  -1.3636901e-04  -3.6455918e-04  -2.4532084e-04  -2.3215819e-04  -2.5389186e-04  -1.7812007e-04  -1.7879103e-04  -3.4839808e-04  -2.8813371e-04  -2.2072271e-04  -1.3349880e-04  -1.2949422e-04  -1.1011249e-04  -2.6413027e-04  -3.0738371e-04  -7.9781503e-06  -1.1510240e-04  -1.7469168e-04  -2.1007832e-04  -1.8113981e-04  -8.7004912e-05  -9.7163516e-05  -2.0329072e-04  -1.5733857e-04  -3.0569514e-04  -1.7874851e-04   9.7536053e-05   2.4688829e-04   1.1079560e-04  -3.2487154e-04  -6.2301580e-05   3.1118718e-04   4.1573317e-06
   8.1365679e-06  -8.8128967e-05   1.9485722e-04   1.6255221e-04   9.1020782e-05  -6.4003762e-05   6.4437874e-05   3.6369511e-05   1.2418745e-05   3.3830016e-04   2.1247924e-04   3.7055204e-04   1.4736405e-05   3.7549391e-05  -4.7699312e-05   1.0700502e-04  -1.7770630e-05   6.1081279e-05   1.9596425e-04   3.3674096e-05   2.0851026e-04  -8.6860156e-05   8.4773463e-05   5.7716627e-04  -2.2960025e-04  -4.8745434e-05   6.6575376e-05  -2.6264375e-05   9.2112095e-05   1.1964887e-04  -1.3943232e-04  -1.7583279e-04  -1.0473159e-04  -3.2132204e-05   2.2487728e-05   2.5508944e-05   3.7001053e-05   7.6956174e-05   8.3975479e-05  -1.7942457e-05  -1.0235744e-04  -2.5708793e-04  -9.7818011e-05   6.0366678e-05   1.0741574e-04   1.2112172e-04  -1.3896672e-04  -7.1735281e-05   2.4503548e-04   6.1462262e-05
   4.2485091e-05  -7.1658942e-05   1.4940406e-04   1.3635677e-04   4.9446644e-05  -9.3215189e-05   6.8259492e-06   1.0799132e-05   6.9261769e-05   1.8513840e-04   1.3139877e-04   1.1742138e-04  -2.4833751e-05  -3.4904773e-05  -4.9507973e-05   4.1403269e-05  -2.8274098e-05   4.3513130e-05   2.1992611e-04  -1.2742175e-05   8.6418928e-05  -4.2256957e-05  -2.8267570e-05   1.7470536e-04  -3.0633513e-04  -1.1747132e-04   1.1344820e-05   1.6572749e-06   4.5235989e-05   5.3989261e-05  -2.4373327e-04  -7.5751879e-05  -1.5452797e-04  -1.9250762e-04  -5.1755036e-05  -1.5211999e-04  -1.0299936e-04  -9.4202469e-06  -2.8810351e-05  -1.1623206e-04  -3.1857859e-04  -3.2792083e-04  -2.3445282e-04   1.7447598e-04   7.1219001e-05  -8.7893794e-05  -1.8581540e-04  -1.5686428e-04   1.5408621e-04  -1.0786884e-04
  -2.3895866e-04  -2.9437145e-04  -2.6141200e-04  -1.5886560e-04  -1.8959290e-04  -4.0969715e-04  -2.2842691e-04  -3.2164561e-04  -2.6647237e-04  -4.8317394e-05  -1.3854484e-04  -5.7255271e-05  -2.6506808e-04  -2.5640812e-04  -1.2604384e-04  -1.6230054e-04  -1.7282229e-04  -1.4440327e-04  -2.0687837e-04  -2.4712970e-04  -1.8608931e-04  -3.8148533e-04  -2.4401807e-04   3.5377589e-04  -3.9917606e-04  -3.0582320e-04  -1.9219297e-04  -1.0379218e-04  -1.0627083e-04  -1.1727162e-04  -3.5890139e-04  -2.9222699e-04  -3.2988048e-04  -2.8330629e-04  -2.5880401e-04  -3.5644931e-04  -2.3282153e-04  -1.9753723e-04  -1.7659659e-04  -2.7526767e-04  -3.8281028e-04  -4.1938762e-04  -3.5381585e-04   8.4263520e-05   8.7783184e-05  -4.5299887e-05  -2.0713378e-04  -2.4409867e-04   1.3497690e-04  -9.6653755e-05
  -9.1531954e-05  -1.6678432e-04   8.6069020e-05   5.0298990e-05   1.0340375e-05  -1.1109233e-04  -3.0718638e-05  -1.2324010e-04  -6.3254665e-05   2.2793401e-04   1.2899043e-04   2.5670792e-04  -7.4272531e-05  -7.5159420e-05  -1.1964188e-04   1.7018934e-05  -9.3142255e-05  -2.1132171e-05   5.3362153e-04  -1.7292710e-05   9.6896714e-05  -1.1493119e-04   4.1571035e-05   5.4459128e-04  -2.2497766e-04  -1.4151917e-04   3.2738865e-07   1.3977434e-05   4.6242159e-05   6.4770866e-05  -1.8232012e-04  -2.1904799e-04  -5.2225264e-04  -2.0658133e-04  -3.0865824e-05  -1.1552311e-04  -3.1645908e-05   3.0028010e-05   3.5625617e-05  -4.9020327e-05  -2.4255597e-04  -3.2070142e-04  -2.4002821e-04   1.5852069e-04   9.3294249e-05  -7.1819977e-06  -2.8182386e-04  -1.3569505e-04   2.1734818e-04  -2.7734326e-05
  -4.5158053e-05  -1.2717443e-04   7.2143033e-05   6.7276138e-05   3.6115904e-05  -1.6936823e-04  -6.3237974e-05  -5.1967098e-05  -2.2651322e-04   1.6218152e-04   9.2678936e-05   1.2320293e-04  -1.0818447e-04  -9.0183712e-05  -8.2619852e-05  -2.6886869e-07  -7.4852222e-05   1.1657598e-06   5.0010235e-04  -6.7602443e-05   3.5768848e-05  -2.8126335e-04  -4.8030663e-05   1.4451999e-04  -4.2259126e-04  -1.6807884e-04  -1.0431038e-05  -2.7693139e-05   1.1661928e-05   3.6463458e-05  -2.5372373e-04  -1.9164647e-04  -1.6257336e-04  -9.5988602e-05  -1.2891530e-04  -1.9383026e-04  -7.9331025e-05  -4.4922577e-05  -3.5664580e-05  -1.2634578e-04  -4.2118150e-04  -4.8811812e-04  -3.1972188e-04   3.7469256e-06   1.3280024e-04  -4.4573837e-05  -3.6228972e-04  -2.7068576e-04   1.2102504e-04  -1.2181082e-04
  -3.0275225e-04  -3.3644625e-04  -3.2207707e-04  -2.1831004e-04  -2.2610014e-04  -4.0435288e-04  -2.7255269e-04  -2.9662618e-04  -3.5353491e-04  -1.0187606e-04  -1.6077684e-04  -4.3232725e-05  -3.0001943e-04  -2.8919466e-04  -1.7529917e-04  -2.0526290e-04  -2.3465331e-04  -1.4761412e-04  -2.4535996e-04  -2.6039715e-04  -2.0628214e-04  -4.0140637e-04  -3.1820787e-04  -2.7256718e-04  -4.4628576e-04  -3.4323885e-04  -2.3414644e-04  -1.8685449e-04  -1.7902259e-04  -1.2908502e-04  -4.9468252e-04  -2.3415749e-04  -3.2867977e-04  -4.7301099e-04  -2.8348126e-04  -4.2998101e-04  -2.5499193e-04  -2.1476140e-04  -1.9362733e-04  -3.0167928e-04  -4.5769761e-04  -4.9448694e-04  -4.0075506e-04  -3.4356481e-04   1.0472833e-04  -1.6421534e-04  -3.1913057e-04  -3.2773137e-04   1.5393105e-04  -1.7985694e-04
  -1.1803796e-04  -1.9866391e-04  -1.4061972e-05   1.1961862e-06  -1.0363818e-05  -1.6102320e-04  -5.3964442e-05  -6.1783452e-05  -1.3374822e-04   1.7549294e-04   9.8890261e-05   1.4838181e-04  -1.4910393e-04  -1.0561838e-04  -1.0933104e-04  -2.6452559e-05  -1.3796592e-04  -3.4938494e-05   1.2611751e-04  -1.1086088e-04   7.4699929e-05  -5.5677720e-05  -8.4997540e-05   3.3112077e-04  -4.3468821e-04  -2.6219798e-04   9.0779104e-06  -6.3101048e-05   5.3396293e-06   3.9520037e-05  -4.1590689e-04  -1.8214942e-04  -3.6684971e-04  -4.1231968e-05  -1.2441163e-04  -1.4390943e-04  -9.4918272e-05  -3.4257620e-05   4.9177106e-07  -8.6448003e-05  -3.4494617e-04  -3.7730226e-04  -3.1475848e-04   3.0365575e-04   8.4551444e-05  -8.6959510e-05  -2.1400297e-04  -3.4671000e-04   2.3975283e-04  -1.4325656e-04
  -1.4759772e-04  -1.9371745e-04  -2.3223611e-05   1.4724845e-06  -5.4239645e-05  -2.2449817e-04  -6.5444648e-05  -1.4760645e-04  -1.3847815e-04   8.8273868e-05   2.7110902e-05   5.7139991e-05  -2.0774244e-04  -1.2381926e-04  -1.3391710e-04  -5.2015279e-05  -1.4443441e-04  -5.6872806e-05   4.1993171e-05  -1.2392797e-04  -3.5988298e-05  -3.0412397e-04  -1.2798743e-04   6.9853297e-05  -3.8815607e-04  -2.6302744e-04  -3.5785160e-05  -1.1476553e-04  -1.3259730e-04  -4.7201024e-06  -7.1443596e-05  -2.2584130e-04  -3.3106987e-04  -1.1059408e-04  -1.9403253e-04  -2.4063773e-04  -1.6082537e-04  -1.2385493e-04  -9.8429897e-05  -1.6927453e-04  -5.2748737e-04  -5.9600407e-04  -3.9941390e-04  -4.2345469e-05   4.9600279e-05  -1.1768951e-04  -4.5158554e-04  -4.0377607e-04  -1.5006128e-05  -2.3449193e-04
  -4.0912585e-04  -3.9361342e-04  -4.1856247e-04  -3.0170986e-04  -3.4503467e-04  -4.7407349e-04  -3.5382117e-04  -3.5431320e-04  -3.5151441e-04  -1.8411400e-04  -2.5769239e-04  -1.2903860e-04  -4.1349704e-04  -3.4743085e-04  -2.4069184e-04  -2.9068641e-04  -3.0857255e-04  -2.7054962e-04   2.5233534e-05  -3.0626476e-04  -2.4980365e-04  -3.7435390e-04  -3.0011986e-04   1.4782575e-04  -4.8409097e-04  -4.4644118e-04  -2.6961957e-04  -2.4106799e-04  -2.2773766e-04  -1.4343054e-04  -2.1979418e-04  -2.4677196e-04  -4.2209937e-04  -3.3905066e-04  -2.7871746e-04  -2.5707079e-04  -2.2406521e-04  -1.6679637e-04  -1.3436312e-04  -2.6345701e-04  -4.1246100e-04  -4.3256558e-04  -4.1383781e-04   2.1788430e-04   2.9258168e-05   8.7098175e-05  -4.9287837e-04  -3.4668299e-04   2.9085757e-04  -2.3676650e-04
  -1.1005891e-04  -1.8299237e-04   6.7213972e-05   3.5522211e-05   2.7096106e-05  -1.3986460e-04  -3.1774543e-05  -1.7352810e-05   1.2850867e-05   1.9782022e-04   9.7353950e-05   8.0725833e-05  -1.9377576e-04  -1.2250374e-04  -1.9414083e-04  -2.5684218e-05  -1.2303780e-04  -6.7168054e-05  -1.1938255e-05  -1.1160546e-04   4.2444957e-05  -2.3451707e-04  -1.9366618e-05   2.4210938e-05  -3.7593345e-04  -2.4899861e-04   3.5073714e-05  -7.3432384e-05  -2.7983111e-05   1.6591068e-05  -2.0646786e-04  -1.6626930e-04  -4.2460198e-04  -3.9118816e-04  -1.3451843e-04  -1.3739588e-04  -8.3733008e-05  -1.0838022e-05  -3.7901318e-06  -1.4491263e-04  -3.7792823e-04  -4.2085620e-04  -3.2210918e-04   5.6658824e-05   2.1822736e-04  -2.0118736e-04  -1.6775574e-04  -2.5139871e-04   2.9368233e-04  -1.6741193e-04
  -1.6178873e-04  -2.1291492e-04  -5.3686279e-05  -2.9074768e-05  -5.9292455e-05  -2.4340772e-04  -1.0725306e-04  -1.6229136e-04  -2.7586086e-04   3.5615001e-05  -1.3444384e-05   7.2911527e-05  -2.5839373e-04  -1.6209656e-04  -1.9530639e-04  -7.9681275e-05  -1.5366165e-04  -1.0866718e-04  -5.3095551e-05  -1.9778144e-04  -9.0973110e-05  -3.4385367e-04  -1.8860845e-04  -1.5272472e-04  -4.8042744e-04  -3.5652219e-04  -6.7746580e-05  -1.1042041e-04  -4.6766934e-05  -3.2655724e-05  -2.0354676e-04  -1.2927070e-04  -2.7614323e-04  -1.3680177e-04  -2.0991173e-04  -3.0582579e-04  -2.3424516e-04  -1.2501859e-04  -1.0821383e-04  -2.3273237e-04  -5.5931119e-04  -6.0125499e-04  -4.3875465e-04  -5.6256785e-04  -1.6578910e-04  -1.6979424e-04  -4.1292974e-04  -3.9095696e-04   5.7628535e-05  -2.6601923e-04
  -4.4125190e-04  -4.4006345e-04  -4.8090747e-04  -3.3997110e-04  -3.8459714e-04  -5.4238545e-04  -3.7975461e-04  -4.0363258e-04  -2.5503719e-04  -1.7826205e-04  -2.9674347e-04  -1.5745826e-04  -4.6304820e-04  -4.1186262e-04  -2.6447533e-04  -2.9748451e-04  -3.0726392e-04  -2.5949511e-04  -1.9094450e-04  -2.5192980e-04  -1.4485048e-04  -4.2164084e-04  -2.1381097e-04  -3.7234396e-04  -4.7870458e-04  -3.5749582e-04  -1.0083150e-04  -1.3677424e-04  -1.0684216e-04  -6.6808148e-05  -3.0482080e-04  -1.6814476e-04  -4.1586554e-04  -4.2049275e-04  -1.8333941e-04  -2.0783624e-04  -1.7210156e-04  -8.7796499e-05  -4.7423855e-05  -1.5955424e-04  -3.3579464e-04  -3.7883566e-04  -3.6104632e-04  -2.5912828e-05   1.1873010e-04  -6.7094668e-05  -1.9487027e-04  -2.9556692e-04   3.7243665e-04  -1.0453052e-04
  -3.1939744e-05  -1.4128056e-04   2.0522629e-04   1.4389357e-04   4.0817009e-05  -8.6100881e-05   5.5846900e-05   2.7135555e-05   5.5119381e-05   2.3775952e-04   1.2893839e-04   1.7716916e-04  -1.6851017e-04  -9.4234172e-05  -1.6781762e-04   2.0700989e-05  -7.7909521e-05  -2.3881823e-05   2.1080150e-04  -4.0649760e-05   1.1231479e-04  -1.9672894e-04  -6.5185755e-05   3.1756888e-05  -3.5949852e-04  -2.2962013e-04   6.6503068e-05  -4.5841152e-05   5.9029881e-05   6.5258260e-05  -9.4667877e-05  -3.9506755e-05  -1.4669893e-04  -1.4244020e-04  -7.8378223e-05  -2.8220971e-05  -4.8665024e-05   1.6564663e-05   2.3185823e-05  -9.2827984e-05  -2.6528709e-04  -2.2277154e-04  -2.6421403e-04  -9.3448572e-05   4.6795696e-05  -5.9237816e-05  -1.6925002e-04  -1.5613981e-04   4.2057381e-04  -9.6986972e-05
  -1.3339717e-04  -1.9387943e-04   3.9363240e-06   4.1466592e-06  -4.9281109e-05  -2.3810695e-04  -8.2753439e-05  -1.2202356e-04  -9.3653485e-05   4.9958657e-05   8.2687402e-06  -3.7173468e-05  -2.4362221e-04  -1.8203187e-04  -1.5661663e-04  -3.5457910e-05  -1.1263485e-04   4.2896331e-06  -6.4232700e-05  -1.5660051e-04  -9.6572825e-05  -3.3504283e-04  -2.1737041e-04   1.2437352e-04  -4.6668874e-04  -3.2408739e-04  -5.6405861e-05  -1.1182421e-04   2.8926306e-05  -1.6017420e-05  -2.5571333e-04  -8.2134313e-05  -4.6598507e-04  -2.0532035e-04  -1.7243090e-04  -2.5335094e-04  -1.4512989e-04  -9.4959971e-05  -1.0089960e-04  -2.0085876e-04  -4.9715198e-04  -4.1924845e-04  -3.6775551e-04  -2.1482255e-04   4.3283366e-05  -2.0124612e-04  -3.1008455e-04  -2.7590094e-04   4.0146209e-05  -2.0034780e-04
  -4.0801286e-04  -4.5758445e-04  -4.1571222e-04  -3.3620643e-04  -3.0647509e-04  -5.3845579e-04  -3.5358890e-04  -3.9161072e-04  -4.7748469e-04  -1.7864893e-04  -2.6004264e-04  -2.2807901e-04  -4.6862316e-04  -4.4808476e-04  -2.3169119e-04  -2.6677406e-04  -2.8446200e-04  -2.5388808e-04  -2.9991547e-04  -2.6002817e-04  -1.6646585e-04  -3.9284932e-04  -2.5515482e-04   1.0322733e-05  -4.7000597e-04  -4.0401248e-04  -1.3068505e-04  -1.5853340e-04  -1.1318832e-05  -5.9639686e-05  -3.3177354e-04  -3.0960658e-04  -2.9269914e-04  -1.1327458e-04  -1.4157900e-04  -1.3455497e-04  -1.2475898e-04  -5.5047425e-05  -4.1675888e-05  -1.0761268e-04  -2.3765738e-04  -3.6738682e-04  -2.9957734e-04  -3.1768857e-04   8.3176310e-05  -2.9390108e-05  -3.2209812e-04  -1.7044015e-04   3.6892906e-04  -1.5272989e-06
  -5.4155435e-06  -1.0218917e-04   2.6706498e-04   1.9886854e-04   1.7036070e-04  -5.1019546e-05   7.9760444e-05   1.0792255e-04   2.6774008e-04   2.7351285e-04   2.3077059e-04   2.2682715e-04  -1.1524574e-04  -6.0759303e-05  -1.0522603e-04   7.5075113e-05  -2.7432274e-05  -8.1195185e-06   2.7182754e-04  -5.2974596e-05   2.0786964e-04  -1.2454481e-04  -8.3408828e-05   4.0356690e-04  -3.3818622e-04  -2.0524047e-04   7.8366254e-05   4.0627485e-05   7.9994941e-05   1.0644438e-04  -1.8756308e-04   3.6266782e-05  -2.8551559e-04  -2.8294876e-06  -1.0762417e-05  -4.7631129e-05   2.6483927e-05   7.6584125e-05   5.8274676e-05  -1.2448103e-06  -1.7574463e-04  -1.2440316e-04  -1.8584955e-04  -1.6464353e-04  -2.5378000e-05   4.5260018e-05  -1.4223964e-06  -7.2680115e-05   3.2747400e-04   1.2604832e-05
  -6.7058201e-05  -1.5998427e-04   1.2170045e-04   1.0165318e-04   4.9979888e-05  -1.4500425e-04  -5.5282359e-05  -1.0401315e-04  -6.5136453e-05   9.6738353e-05   1.0118505e-04   4.4357948e-05  -1.8802381e-04  -1.0605442e-04  -1.2796848e-04   5.9270542e-06  -6.6091445e-05   7.5354081e-05   2.4463452e-05  -5.9639922e-05   2.7395356e-05  -3.3366439e-04  -1.8117405e-04  -2.6641963e-05  -3.2690610e-04  -2.9505120e-04  -1.0372951e-05  -5.5200100e-05   2.9091527e-05   3.1569358e-05  -3.9849227e-05  -1.0169247e-04  -5.9164094e-04  -2.7546266e-04  -1.1271814e-04  -2.3248939e-04  -1.0281997e-04  -5.6160909e-05  -7.7390388e-05  -1.8872753e-04  -3.9120292e-04  -2.9665389e-04  -2.6187624e-04   1.7180031e-05   1.8739980e-05  -3.8899962e-04  -2.9139820e-04  -2.1854352e-04   2.2831558e-04  -1.4126563e-04
  -3.1147664e-04  -3.6843674e-04  -2.9954902e-04  -2.2024286e-04  -2.7223205e-04  -4.7990671e-04  -2.8118180e-04  -3.7202757e-04  -4.5748230e-04  -1.5777377e-04  -1.9920208e-04  -1.4523770e-04  -4.1589071e-04  -3.8882319e-04  -2.0169831e-04  -2.3020353e-04  -2.2539652e-04  -1.8058773e-04  -5.3681404e-04  -2.6159867e-04  -1.7839103e-04  -4.3331526e-04  -3.0667614e-04  -7.5169264e-05  -4.9702072e-04  -3.8570029e-04  -8.3447092e-05  -1.1993204e-04  -1.4216764e-04  -8.9430992e-05  -4.3806501e-04  -4.8148846e-05  -3.3389256e-04  -3.1670849e-04  -1.5201166e-04  -1.5102945e-04  -1.2103385e-04  -8.0987709e-05  -6.2168067e-05  -1.9378132e-04  -2.0541651e-04  -1.1546852e-04  -2.6892606e-04   1.4838211e-04  -6.3755331e-05   8.4863777e-06   9.8610741e-05  -2.1543955e-04   4.2788786e-04   2.4774405e-05
   2.8330718e-05  -1.0571186e-04   3.2398841e-04   2.3284710e-04   1.7520235e-04  -8.3913947e-06   1.3892296e-04   1.1040387e-04   1.9123308e-04   3.1037518e-04   2.5764669e-04   1.8635426e-04  -8.2154649e-05  -6.5912034e-05  -1.1340775e-04   1.3030118e-04   1.4097847e-05   6.6216286e-05   3.4078638e-04   2.8344622e-05   1.3942173e-04  -1.5529955e-04  -2.3805998e-05   2.5313371e-04  -2.9937123e-04  -1.8420693e-04   1.3512014e-04   1.2229103e-06   1.2632777e-04   1.1020619e-04  -1.6924680e-05   1.7091611e-06  -2.0053296e-05  -1.7926004e-04   9.9273202e-06  -3.0116025e-05   1.4431651e-05   6.1772451e-05   9.9236866e-05  -1.7801623e-05  -9.0553891e-05   3.7994290e-05  -1.1427458e-04   2.2545745e-04   3.1664284e-05  -2.2130991e-04   3.5380639e-05  -6.0693532e-05   4.4380897e-04   1.3151146e-04
   2.2474462e-05  -9.6748881e-05   2.0962898e-04   1.7401046e-04   6.7282395e-05  -1.0420626e-04   5.2257761e-05  -1.9758932e-05  -1.2799334e-05   1.5498235e-04   1.2507201e-04   4.2992640e-05  -1.1817382e-04  -1.0084631e-04  -4.6493860e-05   6.0806815e-05  -7.7049572e-06  -3.4476150e-06  -2.4374435e-04  -1.6358841e-05   5.4195185e-05  -2.3128335e-04  -1.5710306e-04  -3.1081036e-05  -2.5842304e-04  -2.8949339e-04   2.0637861e-05  -5.1501782e-05   3.3696058e-05   4.7884670e-05  -1.2844607e-04  -1.3205566e-04  -3.6234976e-04  -3.1631580e-04  -5.1196206e-05  -2.4427078e-04  -1.0070561e-04  -4.6368055e-05  -1.8551216e-05  -1.8667652e-04  -2.8945861e-04  -3.1537344e-04  -2.1209162e-04   2.8168941e-05  -1.5869665e-04   3.2313143e-05  -3.1477908e-04  -1.2830013e-04   1.4156227e-04  -7.7480290e-05
  -2.4549861e-04  -3.2536217e-04  -2.0773849e-04  -1.5033971e-04  -1.9202901e-04  -4.2044363e-04  -2.1586085e-04  -3.3610457e-04  -4.7370957e-04  -1.1628701e-04  -1.3099481e-04  -9.3198141e-05  -3.4874782e-04  -3.5110951e-04  -1.7726159e-04  -1.7531143e-04  -1.8536895e-04  -1.7871466e-04  -1.8671621e-04  -2.5631388e-04  -1.7683663e-04  -4.2594451e-04  -3.1939865e-04  -1.8024365e-04  -4.1619269e-04  -4.0588804e-04  -1.5494536e-04  -1.1790785e-04  -1.8068701e-04  -1.2428308e-04  -3.1793024e-04  -1.5426053e-04  -2.2448690e-04  -3.0021855e-04  -2.5096931e-04  -3.5340639e-04  -2.1780698e-04  -1.9843021e-04  -1.9362890e-04  -3.1150063e-04  -3.1530039e-04  -2.7315089e-04  -2.9830536e-04   5.3009044e-05  -5.8421621e-05  -3.6690326e-04  -1.9771686e-04  -1.2572635e-04   2.6556914e-04  -3.1695763e-05
  -3.6334048e-05  -1.8035353e-04   2.0373502e-04   1.1723860e-04   1.2465738e-04  -9.0641763e-05   2.2273811e-05  -2.4882004e-06   2.9761353e-05   2.0870350e-04   1.5114107e-04   1.2974758e-04  -1.3081239e-04  -1.1835645e-04  -8.5470907e-05   5.6061501e-05  -5.8045924e-05  -9.2177383e-05   1.0205382e-04  -5.2545962e-05   1.1908233e-04  -1.6498867e-04  -7.9500453e-05   1.0244617e-05  -3.3284017e-04  -1.4005293e-04   4.3190288e-05   1.7141642e-07   4.3886725e-05   7.0773087e-05  -2.3516027e-04  -7.2687355e-05  -1.1005984e-04  -1.6018051e-04  -3.7504316e-05  -8.1973601e-05  -1.7775865e-05   2.8195216e-05   1.1380739e-05  -5.1450621e-05  -1.0735886e-04   4.4172510e-05  -1.4991871e-04  -5.4763519e-04  -1.1097643e-04  -3.9179411e-04  -7.9628451e-05  -1.0295658e-04   4.1144845e-04   1.2487041e-05
  -2.5762012e-05  -1.2665044e-04   2.1744464e-04   1.7674013e-04   1.7270031e-04  -1.0897996e-04   5.3856074e-05  -4.0480914e-05  -1.0609716e-04   1.2538732e-04   1.2495194e-04   3.1333155e-05  -1.6239057e-04  -1.5074397e-04  -1.1640258e-04   5.5954490e-05  -4.1314437e-05  -4.6645058e-05   5.5814387e-05  -7.6792407e-05   3.5095668e-06  -2.3908613e-04  -1.6635378e-04   5.6550278e-05  -3.3128413e-04  -2.4780293e-04   2.0291527e-05  -4.9478127e-05   2.7852757e-05   3.2947959e-05  -1.4656111e-04   6.8658674e-06  -1.5947134e-04  -2.1409971e-04  -8.5331834e-05  -1.9793911e-04  -4.0894614e-05  -5.3554511e-05  -4.1087998e-05  -1.5199788e-04  -2.4663049e-04  -1.7305707e-04  -2.0066083e-04  -5.3332746e-04  -2.2744255e-04  -3.0790403e-04  -1.8220274e-04  -1.5424564e-04   1.8151096e-04  -8.5423831e-05
  -2.3494638e-04  -3.2622926e-04  -1.7273394e-04  -1.2410471e-04  -1.3315165e-04  -3.7687705e-04  -1.9002885e-04  -2.2328019e-04  -3.3656842e-04  -1.4125870e-04  -1.5120910e-04  -1.5586392e-04  -3.4103097e-04  -3.4933363e-04  -1.5259496e-04  -1.6051145e-04  -1.8609730e-04  -1.9170894e-04  -3.8586650e-04  -2.3207736e-04  -2.2891711e-04  -3.8848814e-04  -3.1168023e-04  -3.1558151e-04  -4.9662130e-04  -3.8276435e-04  -2.0573281e-04  -1.8874739e-04  -1.3656812e-04  -1.2338505e-04  -2.5008700e-04  -1.5950872e-04  -5.2763947e-04  -3.1219402e-04  -2.7058090e-04  -3.9238302e-04  -2.5271706e-04  -2.5474690e-04  -2.2756908e-04  -3.1928657e-04  -4.1751988e-04  -3.5972317e-04  -3.3151527e-04  -5.9884106e-04  -1.4351787e-04  -2.8260204e-04  -1.7627621e-04  -1.4070718e-04   3.0869301e-04  -1.9301416e-04
  -1.2782357e-04  -2.4771073e-04   9.7130971e-05   4.7835088e-05   7.9152756e-05  -1.5713065e-04   1.8244247e-06  -1.2448807e-05   2.5082776e-05   1.0305901e-04   5.6007677e-05   4.5313707e-05  -2.1961746e-04  -1.9584097e-04  -1.5822290e-04  -2.1838097e-05  -1.1911903e-04   1.8064387e-05   2.2443346e-04  -8.1369129e-05   5.6958823e-05  -2.8925535e-04  -1.2815899e-04  -4.6338068e-04  -4.1705376e-04  -2.4881109e-04  -2.6809845e-05  -8.6244632e-05   5.8574915e-05   3.9838200e-05  -1.2012771e-04  -1.6622510e-04  -1.0843099e-04  -2.3230173e-04  -7.4490112e-05  -8.8220433e-05  -8.0758080e-05  -3.8388920e-05  -3.3209133e-06  -1.2262403e-04  -1.6871863e-04  -9.5524789e-05  -2.0643143e-04  -7.8124943e-04  -2.1852276e-04  -3.7115725e-04  -6.3240070e-05  -1.6484599e-04   3.0939255e-04  -9.9811441e-05
  -7.3595431e-05  -2.0738358e-04   1.3243915e-04   1.0633489e-04  -1.0166052e-06  -1.5188490e-04   2.5962290e-06  -2.9959747e-05  -2.4960845e-04   4.9544993e-05   2.3345920e-05  -5.2156851e-05  -2.1657113e-04  -1.6745560e-04  -1.5442348e-04  -9.8252185e-06  -7.9178688e-05  -3.3480050e-05  -4.5991928e-04  -1.2414783e-04  -1.2106555e-05  -3.5601019e-04  -2.2266386e-04  -2.4768239e-04  -4.6349908e-04  -3.1018746e-04   2.4877472e-06  -5.0312210e-05  -1.5508285e-05  -1.5882766e-07  -1.3958119e-04  -5.5458157e-05  -3.1153549e-04  -1.6377930e-04  -1.1020427e-04  -2.1895072e-04  -1.0166501e-04  -1.0718872e-04  -6.0781065e-05  -2.0254013e-04  -2.7094324e-04  -2.4253884e-04  -2.3374805e-04  -4.4263745e-04  -1.4180774e-04  -5.3199363e-04  -9.2372909e-05  -2.2593897e-04   1.2264538e-04  -1.9039579e-04
  -3.2673869e-04  -3.8343211e-04  -2.3953828e-04  -1.7380834e-04  -2.5594729e-04  -4.3978030e-04  -2.2414402e-04  -3.3031817e-04  -4.2044010e-04  -2.1816543e-04  -2.4092535e-04  -1.8860526e-04  -4.4211111e-04  -3.5420692e-04  -2.3870640e-04  -2.2727944e-04  -2.3932752e-04  -1.8224277e-04   1.4090714e-04  -2.8047888e-04  -2.6803315e-04  -3.8518006e-04  -3.6047774e-04  -3.3487778e-04  -4.9927103e-04  -4.3620323e-04  -2.1883255e-04  -1.8545313e-04  -1.8034596e-04  -1.3786297e-04  -4.6300200e-05  -1.5994904e-04  -5.0078094e-04  -4.7566564e-04  -2.4436403e-04  -3.0096684e-04  -2.6130924e-04  -1.9038198e-04  -1.6765445e-04  -2.9603139e-04  -2.1971179e-04  -3.1023618e-04  -2.8336540e-04  -2.7296704e-04  -4.9376376e-05  -4.9367448e-04  -2.4976235e-04  -2.6761022e-04   3.2757039e-04  -7.3111158e-05
  -8.6859916e-05  -2.3590589e-04   1.0131609e-04   7.7736942e-05   1.8059620e-05  -1.5044527e-04  -1.7555240e-05  -4.7904417e-05  -1.1747127e-04   8.6399785e-05   2.1222133e-05   3.7128277e-05  -2.2218835e-04  -1.6396222e-04  -1.7370528e-04  -3.9357824e-06  -1.1568855e-04  -3.3317570e-05  -2.1310846e-04  -1.1636193e-04  -4.3176078e-06  -2.9490565e-04  -1.4893786e-04   2.5547943e-06  -4.2032480e-04  -2.7101135e-04   3.2343229e-05  -8.5429157e-05   4.6675781e-05   2.5891077e-05  -1.0666461e-04  -1.5898909e-04  -3.8360138e-04  -1.4677960e-04  -7.2251722e-05  -2.0972754e-04  -4.8392052e-05  -3.1999065e-05  -1.0475885e-05  -1.2059145e-04  -1.4194060e-04  -1.8237461e-04  -2.0393885e-04  -4.0631276e-04  -2.9174928e-04  -3.0908492e-04  -1.4524555e-04  -1.9612408e-04   1.6295217e-04  -7.3483126e-05
  -1.8219079e-04  -2.6140027e-04  -8.0490845e-06   7.1598515e-06  -7.6745913e-05  -2.4325968e-04  -9.1505091e-05  -1.6790754e-04  -3.6819270e-04  -8.8846828e-05  -9.4286486e-05  -6.6231732e-05  -3.0536533e-04  -2.4982882e-04  -2.1517983e-04  -8.3317304e-05  -1.5094169e-04  -1.2194554e-04   1.9789151e-04  -1.7650003e-04  -1.3969994e-04  -3.3865194e-04  -2.8577985e-04  -4.7253541e-04  -4.4317273e-04  -3.5627530e-04  -6.3654479e-05  -1.6533269e-04  -7.4324278e-05  -4.6487232e-05  -1.9915638e-04  -7.3225237e-05  -2.5968498e-04  -1.8643025e-04  -1.8322319e-04  -2.9006388e-04  -1.5915034e-04  -1.5465713e-04  -1.2157499e-04  -2.7126839e-04  -3.4663471e-04  -4.2706548e-04  -2.9443434e-04  -5.1731354e-04  -5.0170685e-04  -4.4571498e-04  -3.5327024e-04  -2.3454877e-04   1.0800659e-04  -2.4507413e-04
  -4.3976941e-04  -4.7981666e-04  -4.2477535e-04  -3.1361991e-04  -3.2341722e-04  -5.7255663e-04  -3.2399161e-04  -4.3392734e-04  -5.3164887e-04  -2.7122413e-04  -3.6894434e-04  -2.8758982e-04  -4.9370801e-04  -4.6538000e-04  -2.4424706e-04  -2.7337860e-04  -3.0024865e-04  -2.1334573e-04  -1.6464129e-04  -2.9461138e-04  -1.7572851e-04  -4.4601533e-04  -2.6326507e-04  -3.5921324e-04  -5.8451301e-04  -3.6371377e-04  -1.0593043e-04  -1.7652175e-04  -9.7133932e-05  -4.9612219e-05  -3.2810034e-04   3.5175242e-07  -3.0182526e-04  -3.1250287e-04  -1.4314802e-04  -1.5227262e-04  -1.2297829e-04  -1.1109729e-04  -5.0319028e-05  -1.6062778e-04  -1.2031014e-04  -1.8482584e-04  -1.9756505e-04  -4.4069136e-04  -8.4520289e-05  -2.7951691e-04  -2.2716676e-04  -1.4408227e-04   5.2247394e-04  -1.6381842e-05
  -2.0912817e-05  -1.8538919e-04   1.9712567e-04   1.3373423e-04   1.4269506e-04  -1.3226533e-04   3.5405039e-05  -2.5563651e-05  -1.3060488e-04   9.4919371e-05   2.4358224e-05  -3.3777509e-05  -2.2192487e-04  -1.6917715e-04  -1.7434823e-04   6.8627678e-06  -1.0734952e-04  -9.3740928e-05   4.8051759e-05  -9.2208749e-05   1.1078222e-05  -3.2944133e-04  -1.3177335e-04   1.0109055e-04  -4.0312405e-04  -2.6838467e-04   1.7208795e-05  -1.1485846e-06   4.8836922e-05   5.0168903e-05  -1.2959664e-04  -1.4678965e-04  -3.6887696e-04  -4.6523837e-05  -5.9904447e-05  -1.1564958e-04  -4.5040386e-05  -1.7396475e-05  -7.0112192e-06  -1.3232963e-04  -7.7506556e-05  -9.9750934e-05  -1.5187275e-04  -5.0878606e-04  -2.3843555e-04  -3.9301955e-04  -2.1106085e-04  -1.6168568e-04   3.5248918e-04  -7.2056093e-05
  -1.8261671e-04  -2.7040404e-04  -8.1758926e-06  -1.3009013e-05  -1.3200945e-04  -3.0856821e-04  -1.0607835e-04  -1.8404977e-04  -2.8435298e-04  -6.1476254e-05  -1.4004827e-04  -1.0039692e-04  -3.0369070e-04  -2.1987176e-04  -2.1087821e-04  -1.0312677e-04  -1.6575879e-04  -9.8430821e-05  -4.2159975e-04  -2.0988344e-04  -2.1583021e-04  -3.9517545e-04  -2.5097493e-04  -8.5367908e-05  -4.3407743e-04  -3.6475039e-04  -1.2786318e-04  -1.2707073e-04  -5.3429761e-05  -5.6021934e-05  -1.9762598e-04  -2.1789433e-04  -4.3586490e-04  -2.7257140e-04  -1.6805809e-04  -2.7822141e-04  -1.8641101e-04  -1.6459993e-04  -1.1888352e-04  -2.6999752e-04  -3.3539606e-04  -3.6612907e-04  -2.3774205e-04  -1.1881642e-04  -2.9625019e-04  -3.3106669e-04  -3.6521023e-04  -1.6592469e-04   9.8164863e-05  -2.2602326e-04
  -4.5071324e-04  -4.9567415e-04  -3.7709382e-04  -2.9385861e-04  -3.0625824e-04  -4.6200739e-04  -3.1370524e-04  -3.5054173e-04  -2.7192966e-04  -4.3533611e-05  -1.8680021e-04  -4.5510227e-05  -2.9506939e-04  -3.0086839e-04  -2.2065768e-04  -1.0614396e-04  -1.9489801e-04  -9.7806143e-05   1.6801168e-04  -2.1586521e-04  -3.5126326e-05  -3.4615112e-04  -1.1831276e-04   7.2934883e-05  -3.8938009e-04  -2.6463525e-04   1.2230064e-05  -8.1348153e-05  -8.1191220e-06   7.9398442e-06  -1.8619359e-04  -1.9789860e-04  -1.2228142e-04  -1.2691406e-04  -7.2559291e-05  -3.3171375e-05  -3.9118986e-05  -4.1529231e-05   9.4194684e-06  -9.6609372e-05   3.6083682e-05  -9.6795869e-05  -1.3595352e-04  -2.1592472e-04  -2.2616355e-04  -2.8161489e-04  -3.3225617e-04  -2.9855417e-05   3.8817432e-04   4.9850869e-06
   5.6082750e-05  -1.3398156e-04   2.5786829e-04   1.9211936e-04   1.2052982e-04  -9.6234755e-05   1.0876473e-04   5.2860076e-05   1.9321580e-04   1.5465128e-04   1.0655806e-04   1.6261260e-04  -1.5721489e-04  -7.5834716e-05  -1.1911111e-04   6.5212109e-05  -3.0645118e-05   4.4383461e-05   3.1319523e-04  -8.1569728e-05   6.0517548e-05  -3.4555778e-04  -9.5303461e-05  -4.4058772e-05  -2.1923902e-04  -1.8882145e-04   7.3506963e-05  -3.1035241e-05   1.0145425e-04   6.2900377e-05   1.3304080e-05  -7.1398674e-05  -2.3578756e-04  -1.7014731e-04  -1.5971858e-05   5.6638046e-06  -7.9430365e-06   3.0970828e-06   2.9970342e-05  -8.3310064e-05  -2.6465705e-05  -1.8232206e-05  -1.0517850e-04  -4.7460373e-04  -1.8950086e-04  -2.8732419e-04  -1.7192817e-04  -8.3615043e-05   3.6527438e-04  -1.3871789e-05
  -8.8960376e-05  -2.1880232e-04  -3.2893586e-05   6.5545723e-06  -5.3129883e-05  -2.6910522e-04  -7.6482153e-05  -1.5801148e-04  -2.4586235e-04  -2.6007971e-05  -8.9757246e-05  -9.5945128e-05  -2.6947918e-04  -2.5927386e-04  -1.6251468e-04  -6.4565866e-05  -1.2847474e-04  -7.2576186e-05  -1.4065765e-04  -1.9154030e-04  -1.5393829e-04  -3.8529973e-04  -2.2839030e-04  -2.4528246e-04  -4.4557630e-04  -2.7137378e-04  -8.5582848e-05  -9.6224328e-05  -5.1978725e-05  -4.5946203e-05  -1.3037941e-04  -2.1768671e-04  -2.2539639e-04  -1.9797013e-04  -1.5486284e-04  -2.6463566e-04  -1.8957346e-04  -1.5246350e-04  -1.5041078e-04  -2.4695732e-04  -2.5981988e-04  -2.0655469e-04  -2.2534939e-04  -4.0764091e-04  -2.6292994e-04  -5.9972535e-04  -5.0313142e-04  -2.4015371e-04   1.0882604e-04  -1.2162272e-04
  -3.9097786e-04  -4.5141950e-04  -2.7037121e-04  -2.2793429e-04  -2.1202196e-04  -3.7066417e-04  -2.1133962e-04  -3.0501577e-04  -2.3105482e-04   4.7075962e-05  -1.0843854e-04  -9.4129064e-05  -2.2381586e-04  -2.5509213e-04  -1.6496518e-04  -4.2403200e-05  -1.5860898e-04  -5.3095981e-05   1.3311171e-04  -1.5646160e-04  -4.5677491e-05  -2.9161051e-04  -1.1697554e-04   1.1968102e-05  -2.6708210e-04  -1.8661382e-04   5.1295006e-05  -9.0331530e-05   4.2263680e-05   3.2759795e-05  -1.0661627e-04  -1.5189948e-04  -1.8861542e-04  -1.4105871e-04  -3.0842839e-06   9.2289938e-06   2.8183753e-05   5.6033523e-06   2.4566198e-05  -1.8098803e-05   1.2904171e-04   8.9210829e-05  -5.3980017e-05   9.2064374e-06  -1.3361539e-04  -4.0923347e-04   2.6837723e-05  -5.3297546e-05   4.4716228e-04   9.1664624e-05
