   8.2127826e-04   1.1726590e-03   1.0218016e-03   1.1026874e-03   6.7441567e-04   8.9382584e-04   7.5683428e-04   3.2846280e-04   8.1796781e-04   1.5787312e-03   6.4300629e-04   6.2353449e-04   5.2583334e-04   5.7038211e-04  -8.8923935e-06   8.3013391e-04   5.7661580e-04   3.5932736e-04   1.1567568e-03   1.1731444e-03   1.5138033e-03   2.0184971e-03   4.0958368e-04   3.3885890e-04   3.0279355e-04   4.3167023e-04   1.8664886e-04   1.2080911e-04   6.3214503e-04   4.6621473e-04   6.4068288e-04   5.6837098e-04   1.0570880e-03   5.4969988e-04  -2.2989916e-05   8.6249602e-06   3.1460705e-04   3.0037426e-04   4.8760074e-04   5.3817336e-04   1.4031272e-04   9.7332179e-04   5.5455929e-04   9.1077416e-04   1.2867346e-03   8.2670548e-04   8.2948926e-04   3.2257958e-04   1.0347529e-03   8.4410777e-04
   6.2729552e-04   1.0374421e-03   7.0803554e-04   9.0634107e-04   4.8582267e-04   6.8584096e-04   5.7328283e-04   1.5767601e-04   6.5273274e-04   1.3614448e-03   4.3782784e-04   4.8408753e-04   3.6015784e-04   4.0195772e-04  -3.9058483e-05   6.6889648e-04   4.4589851e-04   3.2446175e-04   8.2883978e-04   1.0384814e-03   1.2518519e-03   1.7906077e-03   1.9207512e-04  -1.8638895e-04   2.6421866e-04   3.0314876e-04   4.6839928e-06  -7.3192219e-05   4.2494459e-04   3.0909872e-04   4.7949838e-04   2.2603350e-04   8.2333991e-04   5.2854413e-04  -2.5641161e-04  -2.7910047e-04   6.7499852e-05   6.5863198e-05   2.8131125e-04   3.3999706e-04  -2.4220494e-04   5.4848718e-04   3.0067805e-04   3.3499949e-04   1.1123572e-03   7.1575801e-04   6.1740476e-04   1.3728470e-04   7.2394329e-04   6.5696408e-04
   2.4689341e-04   7.3238107e-04   2.1150349e-04   4.8931176e-04   1.8429098e-04   3.1867108e-04   3.0886356e-04  -1.0075474e-04   3.9922644e-04   1.0756333e-03   1.2507767e-04   2.2771368e-04   5.9944075e-05   1.2328051e-04  -1.8172832e-04   3.7901130e-04   1.9535684e-04   1.8850231e-05   8.6041150e-04   7.7334879e-04   1.0204049e-03   1.5304203e-03   1.8176268e-05  -1.1519992e-04   9.4305678e-06   5.1864939e-05  -1.5527041e-04  -2.4729074e-04   1.6684039e-04   1.5728371e-04   2.8417388e-04   1.5241108e-04   5.2213349e-04   3.4860588e-04  -3.7485873e-04  -2.3639362e-04   4.4072431e-06   4.6182791e-05   2.7502404e-04   3.0153547e-04  -1.4690169e-05   7.3242042e-04   3.2294044e-04   1.0709760e-03   9.6740830e-04   7.7583251e-04   6.1599253e-04   1.0336995e-04   8.3673641e-04   6.6504360e-04
   5.9028174e-04   1.0084042e-03   7.8428496e-04   8.9997781e-04   5.4284692e-04   7.5053249e-04   5.9721421e-04   2.9691850e-04   7.7834126e-04   1.4346567e-03   4.5558781e-04   4.9328915e-04   3.3889024e-04   4.1190325e-04  -1.5819953e-04   6.7744858e-04   3.9208197e-04   2.6056639e-04   1.0752700e-03   9.2714292e-04   1.3170569e-03   1.6126176e-03   2.2917676e-04   1.9184186e-04   2.3089518e-04   2.5553050e-04   6.8618210e-05  -7.9143261e-05   4.2791117e-04   3.5037953e-04   5.6686543e-04   2.7654035e-04   7.8983844e-04   4.0306497e-04  -2.4236154e-04  -1.3892137e-04   1.6787151e-04   1.8954744e-04   4.1422321e-04   4.6828407e-04   1.7202362e-06   7.4318814e-04   3.0829626e-04   8.6335902e-04   1.0860738e-03   8.3593017e-04   8.9858024e-04   9.3326649e-05   9.2075538e-04   6.3969474e-04
   5.0260843e-04   9.1587455e-04   6.0951721e-04   7.7969889e-04   4.7887943e-04   5.8870390e-04   4.6378403e-04   1.4641450e-04   5.3552305e-04   1.3404572e-03   3.3825217e-04   4.0778972e-04   2.5392848e-04   3.2582885e-04  -1.3940968e-04   5.6165998e-04   3.3692829e-04   1.9362921e-04   1.0292848e-03   8.8216702e-04   1.1623682e-03   1.5900644e-03   1.6981224e-04  -1.5340668e-04   1.4136563e-04   1.3337517e-04  -4.6554800e-05  -1.6943213e-04   3.4141916e-04   2.5416692e-04   3.5046964e-04   1.4294830e-05   5.2227598e-04   2.7634643e-04  -3.6090647e-04  -4.0574689e-04   9.9699828e-06   4.9927046e-05   2.5100849e-04   3.1660698e-04  -3.0054242e-04   3.5456012e-04   1.3350513e-04   7.3122623e-04   9.3592750e-04   5.4691604e-04   5.4896378e-04   6.0722981e-05   5.9024646e-04   5.5961736e-04
   1.5612380e-04   6.5084285e-04   1.3966669e-04   3.8863701e-04   5.3674921e-05   2.2117372e-04   1.9992478e-04  -1.5561277e-04   2.0347540e-04   1.0795200e-03   5.7428231e-05   2.1900229e-04  -2.4716837e-05   8.8285684e-05  -2.3495172e-04   3.0905381e-04   1.1642511e-04  -6.9130379e-05   6.2794925e-04   6.4897060e-04   9.2491898e-04   1.4621023e-03  -2.8189850e-05   2.4059898e-06  -2.1163874e-05  -5.5491165e-07  -1.7677346e-04  -2.9297566e-04   1.6020110e-04   1.3934658e-04   2.4983540e-04   6.6888570e-05   6.9071690e-04   2.1938057e-04  -4.0023206e-04  -2.7373468e-04  -3.6484078e-05   2.8750444e-05   2.5421445e-04   2.9379266e-04  -9.4815005e-05   3.6185054e-04   1.3983468e-04   9.0616872e-04   7.2783977e-04   5.3499977e-04   6.5636553e-04   7.7367120e-05   8.5936452e-04   5.7053118e-04
   4.7414255e-04   8.7245530e-04   6.6668296e-04   7.6544733e-04   4.2293902e-04   6.3765130e-04   4.6516929e-04   1.6824494e-04   5.6154077e-04   1.4086405e-03   3.6745783e-04   4.7560118e-04   2.2361225e-04   3.5464502e-04  -1.5873241e-04   5.6737394e-04   2.6920892e-04   1.3222999e-04   9.6879451e-04   8.1363943e-04   1.1717672e-03   1.5040501e-03   2.1458529e-04  -1.5339786e-04   1.2121323e-04   1.7774726e-04  -3.4843499e-06  -1.5381654e-04   4.5023760e-04   3.2401431e-04   1.3189463e-04   9.6189702e-05   7.6269195e-04   4.0034126e-04  -2.8606449e-04  -1.5050636e-04   2.0279553e-05   1.4383021e-04   3.4686204e-04   3.8704817e-04  -1.2416458e-04   3.6820318e-04   1.6477644e-04   7.1497395e-04   9.1350026e-04   4.3134406e-04   5.8421743e-04   9.2284579e-05   7.8320695e-04   6.5295183e-04
   3.7068836e-04   7.5298588e-04   4.2471351e-04   5.9997186e-04   2.4550609e-04   4.3601994e-04   3.3047120e-04  -6.2372710e-05   3.0761870e-04   1.2790523e-03   2.2210505e-04   2.7620021e-04   1.2944163e-04   1.5734430e-04  -1.9084537e-04   4.5162611e-04   1.9675418e-04   9.3002782e-06   7.1768102e-04   6.7573460e-04   9.6671615e-04   1.3736000e-03   4.4315493e-05  -1.5403032e-04  -1.2230783e-05  -9.6624372e-06  -1.6443634e-04  -2.0468800e-04   2.6684412e-04   2.1799594e-04   4.0335322e-04  -6.7572670e-05   6.3211320e-04   2.2176013e-04  -4.3061658e-04  -4.2365323e-04  -1.4663858e-05  -4.4702570e-06   1.8300995e-04   1.6727259e-04  -4.9570261e-04   2.0261751e-04  -6.4764718e-05   4.1704785e-04   6.5159367e-04   5.3774787e-04   8.2896178e-05  -3.3208260e-05   4.4808022e-04   4.2686466e-04
  -5.0550123e-05   4.5844805e-04  -1.1371150e-04   2.0024602e-04  -6.8867266e-05   1.0206855e-04   3.8218011e-05  -2.2332348e-04   5.4739554e-05   1.0487288e-03  -7.0078124e-05   1.0249687e-04  -1.3419356e-04  -7.1883143e-05  -3.0079510e-04   2.3295631e-04   5.3695053e-06  -8.5106942e-05   5.8980042e-04   5.5324909e-04   9.2458277e-04   1.3695796e-03  -4.4730159e-06  -4.8206549e-04  -1.2016169e-04  -1.1647403e-05  -1.1669165e-04  -3.1414157e-04   1.9572656e-04   1.8850577e-04   1.5572378e-04   1.7741873e-05   6.1849289e-04   3.5188778e-04  -3.8654392e-04  -2.5335158e-04  -9.7647404e-05   3.9055871e-05   2.7069039e-04   2.4305945e-04  -1.4419065e-04   4.1999560e-04   7.3392323e-05   1.0276446e-03   8.4480917e-04   5.4175139e-04   5.3487060e-04   5.9279111e-05   5.8857590e-04   6.3189940e-04
   4.2657851e-04   8.2373514e-04   6.0029549e-04   7.1806117e-04   3.9435379e-04   5.8995077e-04   3.9794869e-04   2.2328580e-04   4.6965235e-04   1.4092240e-03   3.1366889e-04   4.1810950e-04   1.7626467e-04   2.9817747e-04  -1.9073482e-04   5.4105645e-04   2.2463495e-04   1.1257373e-04   7.4237253e-04   7.5271865e-04   1.1213432e-03   1.4145024e-03   2.2942785e-04  -3.2464121e-04   5.1976327e-05   1.2956328e-04  -1.7433989e-05  -1.4461222e-04   4.6512936e-04   3.1628995e-04   2.7379359e-04   1.7608631e-04   5.2366039e-04   3.4332267e-04  -3.1256178e-04  -2.5379201e-04   9.9747240e-06   1.3456677e-04   3.3358790e-04   3.4653782e-04  -2.0509918e-04   4.3138006e-04   1.2767193e-04   8.4427139e-04   6.5936777e-04   6.5778923e-04   4.0084595e-04   5.3765674e-05   6.8750768e-04   5.9071684e-04
   2.6078042e-04   7.0253975e-04   3.7710313e-04   5.3735747e-04   1.6236697e-04   3.9189064e-04   2.4761568e-04   3.1554238e-05   4.8870011e-04   1.2547290e-03   1.8229446e-04   2.7045849e-04   4.2193376e-05   1.3148139e-04  -2.3064396e-04   4.3164907e-04   1.6128579e-04   7.2075323e-05   1.4361547e-03   5.9866800e-04   1.0572929e-03   1.4213077e-03   9.6787837e-05  -6.1637006e-04  -1.1166115e-04  -2.5675907e-05  -1.3788932e-04  -3.4140487e-04   3.2743701e-04   2.0425314e-04   6.0248061e-05  -1.2413345e-05   3.1791531e-04   1.8632086e-04  -4.3265798e-04  -4.3971319e-04  -6.3286323e-05  -3.8581606e-05   1.5325872e-04   1.9370941e-04  -5.5890973e-04  -2.0738245e-05  -1.1813133e-04   1.0193329e-03   4.4992156e-04   6.7840109e-04   1.2402950e-04  -6.3513158e-05   4.2531546e-04   2.7423410e-04
  -1.0754789e-04   4.3883352e-04  -1.3274899e-04   1.6780705e-04  -7.3275070e-05   9.3118731e-05  -1.3832563e-05  -2.1674391e-04   2.8560040e-04   1.1698942e-03  -3.4280991e-05   2.9709627e-04  -4.9547503e-05  -1.4430396e-05  -3.1332244e-04   3.0165783e-04   5.3217900e-05  -3.5995570e-05   7.1709009e-04   6.2131532e-04   1.1135760e-03   1.4809575e-03   1.1439629e-04   7.3481322e-05  -1.2164622e-04   4.0466398e-06  -6.7679699e-05  -2.3195395e-04   2.7283630e-04   2.3692813e-04   1.1585593e-04   1.2641594e-04   2.8120694e-04   1.7808203e-04  -3.4572213e-04  -2.7238741e-04   3.7838214e-05   7.9977341e-05   3.2308008e-04   2.8924158e-04  -1.5911275e-04   2.6272287e-04  -9.1188838e-07   9.6812623e-04   6.4547017e-04   3.3748071e-04   5.7860604e-04  -2.0799976e-05   7.2095025e-04   5.8451627e-04
   3.9783766e-04   8.2371745e-04   5.5735034e-04   7.2618818e-04   3.4886238e-04   5.7887600e-04   3.5150672e-04   2.2188641e-04   5.3573656e-04   1.4650504e-03   3.3045522e-04   4.3482089e-04   1.8753369e-04   2.9613526e-04  -2.1567536e-04   5.6116382e-04   2.4692889e-04   1.3965990e-04   8.0928684e-04   7.2118116e-04   1.2438007e-03   1.5121601e-03   2.0336838e-04  -1.9137916e-04   2.3889683e-05   9.6749573e-05   6.7171437e-05  -1.6208919e-04   3.7332674e-04   3.0979322e-04   3.7487110e-04  -3.0235993e-05   4.6459696e-04   3.9991614e-04  -2.8795440e-04  -1.8412121e-04   3.9927192e-05   1.1281016e-04   3.2331716e-04   3.1979178e-04  -2.5910174e-04   2.6450530e-04   3.6918464e-05   1.0427784e-03   5.6872476e-04   2.1007411e-04   5.3537847e-04   3.8836726e-05   6.3472183e-04   5.1580661e-04
   2.6478330e-04   6.8761787e-04   3.1853409e-04   5.1933341e-04   1.9629607e-04   3.9391167e-04   2.0428475e-04  -5.8306855e-06   4.8286380e-04   1.2965465e-03   1.7615329e-04   3.4707019e-04   5.7208759e-05   9.7700547e-05  -2.2664988e-04   3.8838299e-04   1.3980853e-04   7.3233059e-05   9.6945430e-04   5.6621921e-04   1.0428827e-03   1.4510402e-03   5.7527002e-05  -3.7290234e-04  -7.2199124e-05  -2.6979533e-05  -1.2011767e-04  -3.1187717e-04   2.3083667e-04   1.8965578e-04   1.2738902e-04  -9.8272350e-05   3.8253854e-04   4.5447872e-05  -4.6540768e-04  -4.2027989e-04  -1.2811247e-04  -5.7000678e-05   1.3795869e-04   1.4831088e-04  -6.3033809e-04   3.7469879e-05  -1.3752904e-04   6.6409074e-04   5.7870819e-04   3.2296331e-04   2.6189248e-04  -1.8333184e-04   2.4368233e-04   3.1015740e-04
  -9.3417228e-05   4.1328010e-04  -1.5898926e-04   1.6491747e-04  -9.7924079e-05   1.1472572e-04  -2.4086447e-05  -2.1177786e-04   3.0668377e-04   1.2531270e-03   3.1154748e-05   1.8233949e-04  -1.7561835e-06   6.2211702e-06  -2.7713884e-04   3.3402967e-04   7.2243136e-05  -1.2233188e-04   5.9252075e-04   6.1163999e-04   1.1324959e-03   1.4179983e-03   1.6288039e-04  -2.7076647e-04  -1.0301091e-04   9.8079690e-05  -9.4833063e-05  -2.5730819e-04   2.9456901e-04   2.3082452e-04   2.5380716e-05  -2.2792865e-06   4.3406436e-04   2.8790804e-04  -3.4510216e-04  -2.1951346e-04   3.2387366e-06   5.9693175e-05   3.0438794e-04   3.1747174e-04  -2.1572571e-04   2.0523072e-04   1.1512567e-06   5.6180829e-04   6.7442021e-04   4.4014587e-04   5.3700118e-04   8.2810577e-05   5.7316991e-04   5.5626326e-04
   3.9178898e-04   7.6758460e-04   5.2616594e-04   6.5281807e-04   3.3805615e-04   5.5254635e-04   3.3922709e-04   9.9238496e-05   5.5371656e-04   1.4509215e-03   3.3614883e-04   4.4958977e-04   1.4035254e-04   2.2661650e-04  -2.2938747e-04   5.0947134e-04   2.0269064e-04   9.0202077e-05   3.6902702e-04   7.2804681e-04   1.2202526e-03   1.5134388e-03   1.9960907e-04  -1.5255879e-04   6.4846799e-06   1.4642326e-04   3.1663367e-05  -2.0018140e-04   3.6256065e-04   2.7111731e-04   2.0160683e-04   8.2732549e-05   5.2618171e-04   2.0105987e-04  -3.2067476e-04  -2.7188379e-04   1.5515143e-06   6.5795459e-05   2.8082714e-04   2.6676262e-04  -3.2973225e-04   8.8834982e-05   2.3312854e-05   7.6067273e-04   6.1339163e-04   3.2967981e-04   4.8868108e-04   1.2077513e-04   4.9245748e-04   5.2962161e-04
   1.9017087e-04   6.1327743e-04   2.8798121e-04   4.7621541e-04   1.1600507e-04   3.1317389e-04   1.7246240e-04  -2.2271968e-05   3.1398580e-04   1.2663179e-03   1.4594302e-04   3.5661532e-04   1.1877717e-05   7.1265807e-05  -2.3491618e-04   3.4662001e-04   9.5200201e-05  -3.1782667e-05   6.7113433e-04   5.7528337e-04   9.5509336e-04   1.3590193e-03   2.8885141e-05  -2.3873647e-04  -2.3338218e-05  -1.2541245e-05  -1.7434507e-04  -2.7912087e-04   2.6756761e-04   1.2563668e-04   9.7039461e-05  -1.5843363e-05   3.1785088e-04   2.7727260e-04  -4.8649358e-04  -4.5587553e-04  -1.9283933e-04  -1.0516161e-04   6.9144000e-05   1.4183052e-05  -7.3139003e-04  -1.0218608e-04  -1.4980660e-04   2.2691372e-04   3.8757155e-04   9.1816793e-05   2.3957829e-04   3.1308293e-05   3.3223446e-04   2.3300304e-04
  -9.9478246e-05   3.4942312e-04  -1.1424500e-04   1.5754995e-04  -5.3163509e-05   1.7252704e-04  -3.5650111e-05  -1.8068487e-04   1.7866807e-04   1.2875759e-03   1.0069103e-04   2.9322697e-04  -1.9867670e-05   7.1386380e-06  -2.8012696e-04   3.2321879e-04   4.9071357e-05  -2.4462170e-06   1.0989625e-03   5.8067968e-04   1.0463934e-03   1.3850733e-03   1.9411779e-04  -4.3424014e-05  -1.2836161e-04   8.3971681e-05  -6.9635993e-05  -2.8930555e-04   3.2966220e-04   2.1190355e-04   9.0579611e-05   4.9364604e-05   3.8162537e-04   1.7460911e-04  -3.5306724e-04  -3.7799252e-04  -4.6467721e-05   6.8670456e-06   2.2832310e-04   1.9046872e-04  -3.5224098e-04   1.6145545e-04   2.4117846e-05   7.5821503e-04   6.2724692e-04   3.0791521e-04   6.1090017e-04   2.7128312e-05   5.4085610e-04   4.6605294e-04
   2.7920678e-04   6.7200302e-04   4.0677100e-04   5.6754990e-04   2.4608706e-04   4.3409914e-04   2.3474077e-04   5.8676880e-05   3.6544426e-04   1.3667669e-03   2.5306642e-04   3.6215730e-04   7.5019438e-05   1.4444989e-04  -2.5301226e-04   4.6670655e-04   1.5098999e-04   2.9591949e-05   5.0559489e-04   6.4932322e-04   1.1134925e-03   1.3655680e-03   1.4236024e-04  -2.3361910e-04  -2.2825345e-05   1.3167126e-04  -6.5626002e-05  -2.5574342e-04   3.4700532e-04   2.4851324e-04   1.2579473e-04  -2.9266728e-05   2.7972643e-04   1.5140547e-04  -3.6690393e-04  -3.2611022e-04  -1.0070475e-04   1.9663876e-05   2.3008609e-04   2.3993761e-04  -4.5042465e-04   2.3115588e-05  -5.7769805e-05   7.6808548e-04   4.8918312e-04   5.9520872e-04   3.3278699e-04  -4.0277355e-05   5.8875640e-04   4.6634898e-04
   1.3942737e-04   5.3268456e-04   1.6233244e-04   3.5316919e-04   7.0918853e-05   2.0890156e-04   8.6398832e-05  -9.0779315e-05   5.0279073e-04   1.1410821e-03   9.9126933e-05   2.2764584e-04  -1.1540537e-04  -4.6917132e-05  -2.7100265e-04   2.7928691e-04   4.4218712e-05  -1.3369930e-04   1.5406546e-04   4.7646512e-04   8.2977803e-04   1.1291581e-03  -5.3412285e-05  -1.0052460e-04  -1.3689435e-04  -4.5601035e-05  -1.9601829e-04  -3.3284017e-04   1.9699498e-04   1.0606414e-04   8.4355532e-05  -1.8259346e-04   2.6166355e-04   1.4333245e-04  -5.1571464e-04  -5.6768779e-04  -2.7995842e-04  -1.6357259e-04   3.6697853e-05  -3.1751410e-05  -7.1851606e-04  -3.2020223e-04  -1.6648028e-04   4.2549614e-04   5.0006289e-04   5.6399382e-04   1.4059625e-04  -4.9758859e-05   5.4415083e-04   5.1544665e-04
   2.0232274e-04   5.6346320e-04   3.8953582e-04   4.9471651e-04   2.1867100e-04   4.2775206e-04   1.8637675e-04   4.5574006e-06   3.6480735e-04   1.3666152e-03   2.6384444e-04   4.3200079e-04   3.3761957e-05   1.0458600e-04  -2.3981398e-04   4.7379168e-04   1.2033105e-04   7.4967070e-06   8.2730700e-04   6.3800521e-04   1.0652008e-03   1.2651257e-03   1.5955279e-04  -1.8129846e-04  -3.3854183e-05   1.4388865e-04  -7.1020690e-06  -1.7320794e-04   3.0503754e-04   2.5945107e-04   1.2582513e-04  -2.5369985e-05   7.3021831e-04   2.1326046e-04  -3.1382270e-04  -2.4327575e-04  -1.0765575e-04   5.5895576e-05   2.4340078e-04   2.3168729e-04  -2.9514162e-04   1.0138297e-04  -2.8056861e-06   4.9362925e-04   4.6132610e-04   2.8335862e-04   4.8076865e-04   9.6521044e-06   5.4824690e-04   4.7069095e-04
   2.7211587e-04   6.3434045e-04   4.3357306e-04   5.5181485e-04   1.9207568e-04   3.9173636e-04   1.9604327e-04   4.9241902e-05   3.9685605e-04   1.2912182e-03   2.5718333e-04   3.9486380e-04   2.4946456e-05   9.8239238e-05  -3.0477621e-04   4.3828940e-04   1.3456316e-04   9.9540644e-05   6.8293368e-05   5.6583696e-04   9.8513381e-04   1.1880164e-03   1.3741413e-04  -3.8507543e-04  -9.2367991e-05   1.1040051e-04  -8.0702499e-05  -2.3301935e-04   3.4144195e-04   2.0801560e-04   3.5470897e-05  -7.2324037e-06   5.1789358e-04   2.1212656e-04  -3.9325532e-04  -3.4634545e-04  -2.1431947e-04  -4.2355339e-05   1.7120990e-04   1.3555805e-04  -5.8837561e-04  -1.1767670e-04  -7.9769670e-05   1.4474122e-05   4.9053243e-04   3.2878734e-04   1.7746988e-04  -4.3383407e-05   2.7114063e-04   4.3176679e-04
  -2.3433231e-05   4.1964697e-04  -3.8892354e-05   2.4576584e-04  -5.3938056e-05   4.7124417e-05  -1.1565669e-05  -1.9991843e-04   2.3795394e-04   1.0223339e-03  -2.3906981e-05   1.4619362e-04  -2.0650703e-04  -1.5286826e-04  -3.5228636e-04   1.8692252e-04  -3.4019038e-05  -1.6435716e-04   2.8483217e-04   3.4424508e-04   7.3514174e-04   1.0641603e-03  -1.2616934e-04  -5.5033448e-05  -1.3972272e-04  -3.3262146e-05  -2.8475811e-04  -4.1933931e-04   7.1026276e-05   5.1720162e-05  -8.2934921e-06   1.3214100e-05   1.5932808e-04   1.2154349e-04  -5.3272373e-04  -4.5901738e-04  -2.6358641e-04  -1.0604227e-04   8.4601183e-05   8.2418301e-05  -4.1659718e-04   6.2592677e-05  -5.7310717e-05   4.5700610e-04   4.2849348e-04   2.7634820e-04   3.2787112e-04   9.8650511e-05   6.9224538e-04   4.2937108e-04
   3.3024992e-04   6.7282829e-04   5.6724128e-04   6.4121309e-04   3.2430555e-04   5.0699769e-04   3.1737649e-04   1.6803744e-04   4.0362455e-04   1.4087573e-03   3.7216919e-04   4.7671728e-04   9.5734555e-05   1.4862805e-04  -2.3866654e-04   5.4045435e-04   2.1257397e-04   6.1968611e-05   9.1949664e-04   6.4715045e-04   1.1046934e-03   1.3747619e-03   1.5818504e-04   2.0494564e-04  -1.5121160e-05   1.7925465e-04   6.1446597e-05  -1.4950754e-04   3.6304150e-04   2.7851239e-04   1.9199433e-04  -8.9136265e-06   6.5680541e-04   1.5383295e-04  -2.9178357e-04  -1.8693795e-04  -6.8050096e-05   6.9013629e-05   2.7653316e-04   2.5668685e-04  -3.0697230e-04   1.6029106e-04   8.6648513e-05   5.3552049e-04   4.8163682e-04   2.9743940e-04   3.4397095e-04   6.8567781e-05   5.5758277e-04   5.7040510e-04
   3.2965146e-04   6.8465091e-04   4.6823063e-04   6.1791809e-04   2.5710787e-04   4.1606106e-04   2.5583859e-04   7.2198491e-05   3.6138826e-04   1.2510495e-03   2.9077567e-04   4.2449211e-04   3.0783478e-05   1.0466313e-04  -2.3270970e-04   4.6533466e-04   1.7054753e-04   6.3273357e-05   1.0035132e-03   6.2718685e-04   9.6594717e-04   1.2112822e-03   1.2948000e-04  -7.9764992e-05  -3.3907843e-05   1.4605321e-04  -6.9449197e-05  -1.9065522e-04   3.2139666e-04   2.1450185e-04   2.7318529e-04   1.1761531e-05   3.5133975e-04   1.9964103e-04  -3.5541714e-04  -3.0006259e-04  -1.6624648e-04  -1.4735339e-05   1.5603132e-04   1.3822493e-04  -5.7494495e-04  -9.4887611e-05   5.0127579e-07   8.7770930e-04   3.2247521e-04   3.3666327e-04   4.0682720e-05   3.9060829e-05   4.8544773e-04   4.2604937e-04
  -1.1920555e-05   4.1023508e-04   1.5903207e-06   2.3567412e-04  -2.2449904e-05   9.2050082e-05  -2.6780344e-05  -2.1412273e-04   3.1368583e-04   1.0454925e-03   4.3200653e-05   2.6913837e-04  -1.6888345e-04  -1.4784937e-04  -3.3219031e-04   2.4883065e-04   9.8131131e-06  -9.5389398e-05   5.2898721e-04   4.9634621e-04   9.5874578e-04   1.2075994e-03   1.4414177e-04  -2.1508263e-04  -7.5000724e-05   9.6250275e-05  -6.6704015e-05  -3.0660757e-04   3.7798090e-04   1.9211098e-04   1.1454175e-04   3.5466444e-05   6.0503685e-04   2.1017516e-04  -3.1078234e-04  -1.9771639e-04  -2.4006507e-05   3.9955034e-05   2.6209047e-04   2.0984285e-04  -2.5392097e-04   1.4333133e-04   9.8781071e-05   5.5809750e-04   7.6917658e-04   3.8208201e-04   4.2086537e-04   1.2290229e-04   6.3042709e-04   5.2094506e-04
   4.8954360e-04   8.1688486e-04   7.1460975e-04   8.0454058e-04   4.4039308e-04   6.1651773e-04   4.6722105e-04   3.3834967e-04   4.8440223e-04   1.4215950e-03   4.9147481e-04   5.0236518e-04   1.7514759e-04   2.7083358e-04  -1.7339813e-04   6.2724767e-04   2.8448895e-04   2.1540887e-04   8.6050562e-04   7.6815841e-04   1.1873652e-03   1.4332331e-03   2.9864113e-04   2.0913281e-04   1.0218855e-04   2.6460167e-04   8.0116319e-05  -7.5608157e-05   4.7490458e-04   3.1728833e-04   1.5712966e-04   1.9829423e-04   6.1746046e-04   2.3640189e-04  -1.9917061e-04  -1.1346992e-04   1.3963695e-05   1.3664243e-04   3.4581459e-04   3.9175959e-04  -2.5106041e-04   1.2753575e-04   1.8535502e-04   1.0206471e-03   8.0623478e-04   4.1630250e-04   3.8437321e-04   1.2502269e-04   5.3956563e-04   6.0036627e-04
   3.8449364e-04   7.4382103e-04   5.2950979e-04   6.8726001e-04   2.3581595e-04   4.5822578e-04   3.2941869e-04   1.2738179e-04   7.2405097e-04   1.2579723e-03   3.3697535e-04   4.7628247e-04   6.9480906e-05   1.4269815e-04  -2.3559833e-04   5.0785468e-04   2.4487273e-04   5.1997089e-05   2.6930752e-04   7.2882068e-04   1.0617961e-03   1.3639502e-03   1.5719133e-04  -2.5141553e-04   3.7525948e-05   1.2946544e-04  -7.0353555e-05  -2.1234115e-04   2.8313286e-04   1.8677695e-04   2.2745640e-04   1.8845484e-04   5.4731744e-04   3.3016287e-04  -3.5683540e-04  -3.5243141e-04  -1.0644771e-04  -3.6509453e-05   1.6727443e-04   1.1971550e-04  -5.6226371e-04   1.7414248e-05  -6.4030623e-06   4.3800761e-04   7.1455934e-04   2.7828931e-04   6.9849906e-05  -2.2993463e-05   4.1859667e-04   3.0636194e-04
   3.4305736e-05   5.0525100e-04   4.9529084e-05   3.2805876e-04  -4.9921226e-05   1.3919990e-04   5.4267930e-05  -1.9653208e-04   2.0474264e-04   1.0486370e-03   6.5377804e-05   2.6858144e-04  -1.3188583e-04  -5.8493399e-05  -3.2801472e-04   3.0436669e-04   9.3245479e-05  -2.1523270e-05   8.1381865e-04   6.3270639e-04   1.0346628e-03   1.2879753e-03   1.2934921e-04  -3.1667514e-04   2.6311347e-06   1.2173652e-04  -3.6893682e-05  -2.6122035e-04   3.3626158e-04   1.7578869e-04   1.8846567e-04   1.1400893e-05   5.9524871e-04   3.3208294e-04  -3.0298618e-04  -2.0922899e-04  -2.0564592e-05   3.9184251e-05   2.5413992e-04   2.6187795e-04  -2.0972975e-04   3.2383861e-04   1.3710937e-04   8.8118133e-04   8.2649174e-04   4.3816958e-04   3.9187440e-04   6.7163572e-05   6.1384327e-04   5.9057848e-04
   5.7872111e-04   8.7693532e-04   7.7252591e-04   8.6135149e-04   5.2659464e-04   6.3397957e-04   5.1143212e-04   3.0864307e-04   5.6538201e-04   1.4195298e-03   5.2944018e-04   5.3308642e-04   1.9256995e-04   2.9604067e-04  -2.0126806e-04   6.4094452e-04   3.5196709e-04   1.4240036e-04   6.5353117e-04   8.3231414e-04   1.2322055e-03   1.6036885e-03   2.8012236e-04  -2.9350744e-04   9.8566081e-05   2.4904098e-04   8.3769322e-05  -1.3254349e-04   5.0691451e-04   2.9996844e-04   2.8988655e-04   2.7843518e-04   5.8203837e-04   2.9459523e-04  -1.8915544e-04  -9.7471326e-05   2.1490305e-05   1.2750723e-04   3.2691695e-04   2.7719978e-04  -2.2154176e-04   3.3996927e-04   2.2470480e-04   8.0727052e-04   8.0018904e-04   2.6849823e-04   5.3312792e-04   5.9036007e-05   7.6370279e-04   5.5381504e-04
   4.4535848e-04   8.1309868e-04   5.6404847e-04   7.1505009e-04   3.5048483e-04   5.1934965e-04   3.6267165e-04   1.2674232e-04   5.8698701e-04   1.2599302e-03   3.9892938e-04   5.1693176e-04   1.0851277e-04   1.7722868e-04  -2.2694630e-04   5.4131506e-04   2.8557811e-04   1.6118742e-04   4.1159213e-04   7.8069029e-04   1.0518871e-03   1.4027454e-03   1.4698984e-04   1.4277268e-04   1.3517010e-05   1.7160937e-04  -7.3595802e-05  -2.1084955e-04   3.1514227e-04   2.0406683e-04   4.3174016e-04   2.4017021e-04   3.6464664e-04   3.3697367e-04  -3.5264608e-04  -3.7012846e-04  -1.2627542e-04   7.6434908e-06   1.7120120e-04   1.2454724e-04  -4.9405708e-04  -4.3800223e-06   8.7301407e-05   5.8758556e-04   6.9252879e-04   4.2115327e-04   1.3711120e-04  -2.7999658e-05   5.0458405e-04   4.4645020e-04
   1.0800792e-04   5.2175153e-04   9.8306205e-05   3.4731309e-04   1.9922310e-05   1.8424517e-04   1.1843871e-04  -7.8003235e-05   2.2836777e-04   1.0423847e-03   1.1624023e-04   2.6108380e-04  -9.0382935e-05  -4.3675154e-05  -3.2505160e-04   3.4228488e-04   1.4795430e-04   6.7373607e-05   3.1066741e-04   6.7648111e-04   1.0463640e-03   1.5257293e-03   1.8681605e-04  -4.0818679e-05  -2.9014460e-05   1.0888492e-04  -8.6950658e-06  -2.3870663e-04   4.0650988e-04   2.0523240e-04   2.0988716e-04   1.5365719e-04   3.8399879e-04   3.5698037e-04  -2.7554153e-04  -1.8931288e-04  -5.3262305e-05   5.5801287e-05   2.6730949e-04   2.7607035e-04  -1.6327716e-04   1.8081050e-04   2.1482432e-04   7.8372034e-04   7.8644394e-04   6.3579727e-04   4.0057162e-04   1.7300174e-04   6.1921042e-04   6.1559957e-04
   4.9436570e-04   8.6355075e-04   6.9135660e-04   7.9344143e-04   4.0564968e-04   5.9942633e-04   4.5644201e-04   2.1547692e-04   5.9971632e-04   1.3240934e-03   4.6479414e-04   5.2195438e-04   1.4462962e-04   2.5054693e-04  -2.5626968e-04   6.1126827e-04   3.4338282e-04   2.2213421e-04   6.3849462e-04   8.2337373e-04   1.2267553e-03   1.5742281e-03   2.8648408e-04   7.1450886e-05   1.7793932e-04   2.6207848e-04   7.1817456e-05  -6.8780028e-05   4.2567027e-04   3.0979500e-04   4.8171805e-04   5.3969732e-05   3.8039676e-04   3.8283193e-04  -1.6907284e-04  -1.3554103e-04   9.4917559e-06   1.2620715e-04   2.8726214e-04   2.9540565e-04  -1.9186724e-04   2.9873216e-04   2.1824385e-04   4.4988963e-04   7.1379449e-04   3.1250148e-04   3.7140070e-04   1.2883900e-04   5.9934199e-04   5.4048677e-04
   3.8174278e-04   7.7227084e-04   4.8830279e-04   6.5602892e-04   2.8767218e-04   4.4410460e-04   3.5400596e-04   3.6951013e-05   5.5342552e-04   1.1672900e-03   3.5377976e-04   4.3816899e-04   7.6513767e-05   1.5891700e-04  -2.4361208e-04   5.0257379e-04   2.7628863e-04   2.0911156e-04   6.8055914e-04   7.6905813e-04   1.0090991e-03   1.3446322e-03   1.4129028e-04  -1.6875424e-04   3.0858209e-06   1.5590490e-04  -7.9174853e-05  -2.1695081e-04   3.6030711e-04   2.3069656e-04   2.8712454e-04   9.7975593e-05   5.9067277e-04   3.0962756e-04  -3.0439856e-04  -2.8627660e-04  -1.3740473e-04  -1.2654245e-05   1.2618503e-04   1.4950552e-04  -4.9141783e-04  -1.5552752e-04   1.0434156e-04   6.8118208e-04   8.0735824e-04   1.9860902e-04   3.4068638e-04   5.4851575e-05   3.6505418e-04   3.5587998e-04
   5.4508102e-05   4.9430202e-04   1.3462265e-04   3.4709997e-04   1.2374544e-04   2.8210683e-04   1.5226734e-04  -6.4862303e-05   4.9065996e-04   1.2116235e-03   2.9281614e-04   4.3496629e-04   9.2338152e-05   1.2730298e-04  -2.8139396e-04   5.0124666e-04   2.4159938e-04   7.5239019e-05   7.6317921e-04   7.8085944e-04   1.1196213e-03   1.4382836e-03   2.7848632e-04  -2.0325923e-04   1.0970503e-04   1.9404256e-04   8.4553416e-05  -1.9130875e-04   4.1944114e-04   3.2842322e-04   1.5598295e-04   1.2462676e-04   7.0502545e-04   3.7354219e-04  -1.5019455e-04  -1.7283985e-05  -5.8095011e-06   1.3810546e-04   2.8843843e-04   2.9985580e-04  -8.9601694e-05   1.8243208e-04   2.9955685e-04   5.2908692e-04   7.3218619e-04   4.2620680e-04   3.5598807e-04   2.3856429e-04   6.4410944e-04   5.9384911e-04
   4.2884139e-04   8.0941792e-04   6.4505759e-04   7.3780434e-04   3.5933926e-04   5.5119110e-04   3.7505763e-04   1.6786459e-04   7.3691469e-04   1.2960006e-03   4.7972330e-04   5.3246424e-04   2.0376421e-04   2.7260859e-04  -2.1535845e-04   6.1890262e-04   3.6004398e-04   2.7352513e-04   5.2778941e-04   8.4201398e-04   1.1648934e-03   1.3943574e-03   2.8561283e-04  -3.7489255e-04   2.1563371e-04   2.6103153e-04   4.0517814e-05  -8.6544263e-05   5.3922681e-04   3.4191078e-04   3.5155800e-04   1.6979047e-04   6.5116928e-04   3.9200694e-04  -1.0619888e-04  -4.7485904e-05  -1.4057189e-05   1.3708296e-04   2.8645672e-04   2.7372420e-04  -2.1582795e-04   2.7298933e-04   3.2978356e-04   8.0912554e-04   8.1023475e-04   5.3342676e-04   3.2715942e-04   2.0702202e-04   5.6783808e-04   5.5934710e-04
   2.3542569e-04   6.6283002e-04   3.4500493e-04   5.2347960e-04   2.4890775e-04   3.1317241e-04   2.4988514e-04   1.5925963e-05   5.1594706e-04   1.0934902e-03   2.8200858e-04   4.1147080e-04   5.2358002e-05   1.0515019e-04  -2.2447937e-04   4.4237604e-04   2.1849058e-04   1.3442546e-04   5.9684756e-04   6.8353809e-04   9.1489212e-04   1.3044291e-03   1.3103726e-04  -1.7771100e-04   6.1662911e-05   6.2072766e-05  -1.3080638e-04  -2.2741388e-04   3.6236228e-04   2.0609058e-04   4.0450206e-04   6.0600272e-05   4.0934412e-04   3.7289810e-04  -2.9221640e-04  -3.6056136e-04  -1.5682128e-04  -3.5185887e-05   8.7783155e-05   3.5530065e-05  -5.6956348e-04  -1.7685808e-04   1.0341431e-04   3.6570735e-04   4.4468677e-04   2.7024912e-04   1.5755791e-04   1.4911671e-04   5.0067937e-04   4.3307646e-04
   1.3893197e-04   5.4919714e-04   3.3231929e-04   4.8159971e-04   2.5491478e-04   3.7691227e-04   2.6837134e-04   2.9231571e-05   4.1443500e-04   1.2607193e-03   4.0358008e-04   5.2153750e-04   1.6765766e-04   1.9038502e-04  -2.2091283e-04   5.6213111e-04   2.6988311e-04   2.3183427e-04   3.2384926e-04   7.4286520e-04   1.1088699e-03   1.3310759e-03   3.5187823e-04  -9.9514786e-05   1.8643041e-04   2.1815354e-04   1.5126474e-04  -1.1407675e-04   5.3402089e-04   3.4470702e-04   3.4780268e-04   1.0370473e-04   5.4907048e-04   3.5352726e-04  -9.5678937e-05   1.7289132e-05   8.5779844e-05   1.9263184e-04   3.4965872e-04   3.1998646e-04  -9.8054945e-05   2.7992119e-04   3.2787517e-04   7.0204138e-04   8.0760894e-04   6.9477397e-04   3.8632820e-04   2.8216478e-04   6.7252654e-04   6.3727214e-04
   4.6292896e-04   8.5066841e-04   7.2655518e-04   7.9306419e-04   4.2085286e-04   6.0235697e-04   4.9713341e-04   3.1939268e-04   7.5812446e-04   1.3091543e-03   5.3571200e-04   5.2749581e-04   2.6988046e-04   3.2939450e-04  -1.0455192e-04   6.5287412e-04   3.8851183e-04   2.9731862e-04   7.4581912e-04   8.8633294e-04   1.1767116e-03   1.4320081e-03   3.2225321e-04  -3.4528959e-04   2.8073162e-04   2.3475668e-04   1.3500477e-04  -4.4767083e-05   6.0161093e-04   3.5402187e-04   2.8846486e-04   1.7607454e-04   6.6642021e-04   4.4302238e-04  -1.2336372e-04  -1.3523670e-04   5.5242414e-05   1.5739945e-04   3.0283761e-04   2.8441002e-04  -2.3146355e-04   2.7588505e-04   3.6000210e-04   7.4073317e-04   6.8915705e-04   4.3981030e-04   3.8729381e-04   2.3714834e-04   6.1863440e-04   6.2371790e-04
   3.1401514e-04   6.9211621e-04   3.7378451e-04   5.6552509e-04   2.5463157e-04   3.7207949e-04   2.9495658e-04   5.1730010e-05   5.7795935e-04   1.0837881e-03   2.9040955e-04   3.5554115e-04   7.3720752e-05   1.2945599e-04  -1.8320310e-04   4.5415779e-04   2.5347032e-04   1.7501513e-04   5.2581867e-04   6.8617484e-04   9.5926895e-04   1.3907874e-03   1.7083281e-04   1.1331339e-05   1.8551761e-04   9.8534416e-05  -9.5854433e-05  -2.6237738e-04   3.5025339e-04   2.1176758e-04   4.5013634e-04   7.8446727e-05   4.5187189e-04   2.2977139e-04  -3.1966402e-04  -3.9480286e-04  -1.4903711e-04  -1.9005067e-05   1.1240976e-04   1.5946933e-05  -5.9841335e-04  -1.3728584e-04   1.5688635e-04   6.6677510e-04   7.7039300e-04   5.5278669e-04   3.5840753e-04   1.2788079e-04   5.0924404e-04   4.9118511e-04
   2.7132174e-04   6.7699718e-04   5.2913086e-04   6.1116443e-04   4.2355873e-04   5.3487497e-04   3.6727055e-04   1.9549274e-04   7.1391469e-04   1.3136776e-03   4.8826856e-04   5.3135731e-04   2.2831712e-04   2.5496533e-04  -1.4713749e-04   6.0177979e-04   3.3785286e-04   2.7693124e-04   9.9728268e-04   8.6501404e-04   1.1740804e-03   1.5537583e-03   4.0790485e-04   1.2766266e-04   2.5299311e-04   2.4342390e-04   1.7606237e-04  -4.1795254e-05   6.2247919e-04   3.8480511e-04   2.9908583e-04   2.6330160e-04   8.5704942e-04   4.3510922e-04  -5.4481683e-05   4.6204579e-05   9.0857735e-05   2.1949883e-04   3.8181676e-04   3.4179768e-04  -5.0555242e-05   2.8907903e-04   4.7005518e-04   8.4268750e-04   1.0077087e-03   4.6737943e-04   2.1135138e-04   3.3285233e-04   7.9639972e-04   7.3571887e-04
   5.4432993e-04   8.9908513e-04   7.8725425e-04   8.4791554e-04   4.5372071e-04   6.5051822e-04   4.9642252e-04   3.1034002e-04   7.8414817e-04   1.3516521e-03   6.0083339e-04   5.3906831e-04   3.3271610e-04   3.7440661e-04  -9.3367358e-05   6.7620771e-04   4.3158064e-04   3.2311995e-04   1.1484600e-03   9.0393843e-04   1.1951101e-03   1.5071150e-03   3.8317608e-04   1.0751642e-04   3.2387342e-04   2.9342048e-04   1.5870036e-04   1.1148081e-05   5.7625299e-04   3.8920966e-04   3.5434225e-04   8.6708227e-05   5.1400997e-04   4.3177945e-04  -5.3040232e-05  -4.0456500e-05   2.3933664e-05   1.9176197e-04   3.1725442e-04   3.2063553e-04  -1.9724247e-04   3.2223796e-04   3.9684743e-04   9.5347932e-04   7.9984195e-04   4.8789394e-04   3.7858234e-04   3.2577309e-04   5.9838279e-04   6.4759696e-04
   3.1522044e-04   7.0907571e-04   4.2247525e-04   5.7284773e-04   2.1607263e-04   3.4712156e-04   2.9985828e-04   3.7578255e-05   4.5780570e-04   1.1242974e-03   3.5149080e-04   3.4436191e-04   1.3271869e-04   1.0078471e-04  -1.6728298e-04   4.5380829e-04   2.8138919e-04   1.9748131e-04   8.8845438e-04   6.7753287e-04   9.1451214e-04   1.3363545e-03   1.9019985e-04  -4.3267259e-04   1.3364815e-04   1.2990703e-04  -1.2578008e-05  -1.7838698e-04   4.2985732e-04   2.3754721e-04   3.4772427e-04   6.5927394e-05   5.3753756e-04   3.1966312e-04  -2.5081553e-04  -3.2375215e-04  -1.2881594e-04   5.9699237e-06   1.0776301e-04   1.1544432e-04  -5.3880626e-04  -9.6411684e-05   2.2915126e-04   6.3404406e-04   6.3494011e-04   4.7494614e-04   1.9988205e-04   2.1772376e-04   6.2664127e-04   5.4844673e-04
   2.2063455e-04   6.0361082e-04   4.4664877e-04   5.3927134e-04   2.9455734e-04   4.5241253e-04   3.0600431e-04   5.8076588e-05   7.4641313e-04   1.3095934e-03   4.5685214e-04   5.0879398e-04   2.7501048e-04   2.4718596e-04  -1.3788450e-04   5.6502799e-04   3.2199363e-04   2.5081949e-04   9.3676208e-04   8.2785607e-04   1.0932615e-03   1.3657180e-03   4.4891081e-04   2.9209879e-04   3.0751619e-04   2.8601920e-04   1.0816550e-04  -5.7780275e-05   5.6016422e-04   3.6365146e-04   3.3070816e-04   2.1680279e-04   2.6950845e-04   3.7601849e-04  -7.4653028e-05   1.2985763e-05   9.2295173e-05   2.2871744e-04   3.6307253e-04   3.8981283e-04  -5.5259330e-05   3.1980613e-04   4.5917460e-04   6.3879770e-04   9.2865550e-04   5.9875444e-04   6.6654600e-04   3.7472163e-04   7.8416948e-04   7.6573680e-04
   5.9757370e-04   8.7447371e-04   7.8671792e-04   8.2286331e-04   4.9603236e-04   6.0096482e-04   4.9473328e-04   2.6594993e-04   8.4869389e-04   1.3469523e-03   5.7285908e-04   5.6179473e-04   3.4978020e-04   3.5671948e-04  -8.7287059e-05   6.3913362e-04   4.0972562e-04   3.8537144e-04   1.2746106e-03   8.9827378e-04   1.1413693e-03   1.4592649e-03   4.0666660e-04   6.5736946e-05   3.3257843e-04   2.4836091e-04   1.2323963e-04   5.0173323e-05   5.2217691e-04   3.7433373e-04   4.6149807e-04   2.5941929e-04   7.6000957e-04   4.9400196e-04  -8.3995859e-05  -6.2451567e-05   4.4311892e-05   1.8669981e-04   3.0244832e-04   3.5863274e-04  -2.0205416e-04   2.9197658e-04   4.4002265e-04   5.6230405e-04   8.3946867e-04   7.1830984e-04   3.0819356e-04   3.2783428e-04   7.2747702e-04   7.3399214e-04
   3.5934031e-04   7.0475525e-04   4.3560911e-04   5.5995648e-04   2.3262737e-04   3.5855590e-04   2.9312351e-04  -4.1871615e-05   5.6301459e-04   1.1107809e-03   3.3779471e-04   3.2433984e-04   1.4945620e-04   1.4253345e-04  -1.5304155e-04   4.0874185e-04   2.7058108e-04   1.3826446e-04   4.9290992e-04   6.6134910e-04   9.1169338e-04   1.2999686e-03   2.3761448e-04  -4.4938078e-04   2.3154805e-04   1.0667329e-04  -3.0618350e-05  -1.6431675e-04   3.8666933e-04   2.2539974e-04   2.0730188e-04   1.9076624e-04   7.1978074e-04   3.5892110e-04  -2.7972032e-04  -3.5822007e-04  -7.9368823e-05   1.0483243e-06   1.1840009e-04   1.7298899e-04  -5.5615109e-04  -6.9773530e-05   2.3815899e-04   3.6404075e-04   6.8128511e-04   4.7244265e-04   1.3860779e-04   2.6362538e-04   6.2531052e-04   5.9430493e-04
   2.4748096e-04   6.0992135e-04   4.5707982e-04   5.3406920e-04   3.4993020e-04   4.1808758e-04   2.8115191e-04   1.2254038e-04   7.4882014e-04   1.2838269e-03   4.2967079e-04   4.2545656e-04   2.7554930e-04   2.3313973e-04  -1.4968678e-04   5.4568233e-04   2.9582219e-04   2.5233458e-04   4.9818883e-04   7.6361897e-04   1.0445277e-03   1.2977655e-03   3.5923274e-04   1.1991242e-04   3.1239190e-04   2.2995958e-04   9.3585404e-05  -6.3855041e-05   4.6832804e-04   3.5548920e-04   3.9635994e-04   2.8128739e-04   6.8373885e-04   4.1118418e-04  -1.0860208e-04  -1.1645973e-05   5.8845966e-05   2.0890747e-04   3.3502906e-04   3.1320172e-04  -1.5072970e-04   1.8743653e-04   4.5405212e-04   1.1190822e-03   8.4586104e-04   8.3735544e-04   3.3416232e-04   3.6274191e-04   7.7126850e-04   7.6021528e-04
   5.1326031e-04   8.2970911e-04   7.1962230e-04   7.6293462e-04   4.5793370e-04   5.5943918e-04   4.5132777e-04   2.3928993e-04   6.2575191e-04   1.2764767e-03   4.8988155e-04   3.9165191e-04   3.1193541e-04   3.0754026e-04  -8.7589040e-05   5.8662979e-04   3.5771623e-04   2.4108264e-04   8.2199986e-04   7.8562112e-04   1.0459158e-03   1.3441585e-03   2.8716837e-04  -7.6482742e-05   2.3887570e-04   2.1691379e-04   5.4473516e-05  -6.3369321e-06   5.1093526e-04   3.4211818e-04   3.9770751e-04   1.5601110e-04   6.8155921e-04   4.5320435e-04  -1.2885848e-04  -8.4806801e-05  -1.0854116e-05   1.5561534e-04   2.6733486e-04   3.2611031e-04  -2.6650840e-04   9.9642704e-05   3.9628110e-04   7.8173977e-04   6.7562255e-04   6.0051732e-04   3.6055085e-04   3.0913547e-04   5.9603486e-04   6.3179934e-04
   2.8059064e-04   6.6641829e-04   3.5811344e-04   5.0987944e-04   1.6702327e-04   2.8456628e-04   2.4477826e-04   1.2288524e-05   4.9996306e-04   1.0448345e-03   2.4640403e-04   2.6385047e-04   1.0868607e-04   1.1993588e-04  -1.8536703e-04   3.6213413e-04   2.1174244e-04   7.0117123e-05   9.7926939e-04   6.5032247e-04   7.9922215e-04   1.2706631e-03   1.7136126e-04  -1.7180626e-04   1.2452618e-04   8.3825194e-05  -7.3700139e-05  -1.7821159e-04   3.2441292e-04   1.9131304e-04   2.4435259e-04   1.4751093e-04   2.9178592e-04   3.4455987e-04  -3.3641839e-04  -2.6766147e-04  -1.4058796e-04  -1.2139672e-05   9.5755582e-05   9.3799565e-05  -3.6194138e-04   1.2802359e-05   2.9026705e-04   4.6864065e-04   7.4513856e-04   4.1422402e-04   2.4765657e-04   2.2180275e-04   8.3228300e-04   6.8395457e-04
   4.9883273e-04   7.8642997e-04   6.9277588e-04   7.1835384e-04   4.2385820e-04   5.6164636e-04   4.7297968e-04   2.4615155e-04   5.7023403e-04   1.2859314e-03   4.5389074e-04   4.5206407e-04   2.8448729e-04   2.9026304e-04  -8.5655593e-05   5.9360755e-04   3.4043592e-04   1.9531058e-04   1.4590824e-03   7.7604444e-04   1.0330795e-03   1.3029984e-03   3.8664823e-04   2.7290778e-04   2.0025013e-04   2.4209256e-04   1.5076200e-04  -3.6609690e-05   4.8115067e-04   3.6983419e-04   3.6537694e-04   2.2472291e-04   8.2571601e-04   4.6323187e-04  -1.0380628e-04  -3.8582048e-06   3.0964209e-05   1.9518915e-04   3.2330016e-04   3.9123616e-04  -1.4099042e-04   2.2006959e-04   4.3770319e-04   7.8892993e-04   8.1156031e-04   5.2239606e-04   4.5044222e-04   2.3536201e-04   7.5009780e-04   7.9198385e-04
   4.7376368e-04   7.7702291e-04   6.4206129e-04   7.0419384e-04   3.9754933e-04   4.9864483e-04   4.2473112e-04   1.8048167e-04   6.0110557e-04   1.1944865e-03   4.2054380e-04   4.0172297e-04   2.5848349e-04   2.4483947e-04  -1.1957534e-04   5.1374052e-04   3.2845125e-04   1.1353481e-04   9.2610251e-04   7.3647709e-04   9.4534911e-04   1.2527646e-03   2.5807993e-04  -2.0904436e-04   1.6599978e-04   1.6339841e-04   4.4988898e-05  -9.0099871e-05   5.1021622e-04   3.1707031e-04   3.3704759e-04   1.6897135e-04   6.0999097e-04   3.6961847e-04  -1.6561926e-04  -1.1267701e-04  -2.6819873e-05   1.2415439e-04   2.1504676e-04   2.8828203e-04  -3.6875473e-04   7.4726770e-05   3.3523314e-04   3.6014087e-04   6.9506170e-04   4.6859434e-04   4.0172628e-04   8.0804908e-05   4.5442869e-04   5.9159059e-04
   1.5905006e-04   5.3779565e-04   1.6986355e-04   3.6166032e-04   1.2671090e-04   1.9788013e-04   1.9195328e-04  -1.0387617e-04   4.0475256e-04   9.3768863e-04   1.2993923e-04   2.9406723e-04   3.0861731e-06   1.2157774e-05  -2.2344693e-04   2.8966265e-04   1.4156534e-04   3.7250924e-05   9.1361592e-04   4.9753836e-04   7.1953447e-04   1.1155902e-03   6.3957537e-05  -2.9248747e-04   6.1231702e-05  -4.5953206e-05  -1.0422921e-04  -2.4438335e-04   3.5043058e-04   1.5577361e-04   1.6119736e-04   4.1665851e-05   4.7799040e-04   2.1991588e-04  -3.1379255e-04  -2.6790527e-04  -8.3905936e-05   7.3806273e-06   1.7473829e-04   2.1798578e-04  -2.0647174e-04   1.6851367e-05   3.1821389e-04   7.0385536e-04   9.7087002e-04   7.1010098e-04   3.9746190e-04   1.2051911e-04   7.1928115e-04   7.4510538e-04
   4.9710250e-04   8.2669820e-04   7.6415588e-04   7.9124811e-04   5.0064881e-04   6.2047131e-04   4.9670605e-04   3.0842650e-04   5.4931658e-04   1.3365200e-03   5.0707470e-04   4.5864366e-04   2.8720158e-04   3.4130848e-04  -1.5957958e-04   6.0129917e-04   3.6919041e-04   2.4520810e-04   8.7910134e-04   7.5574021e-04   1.0718883e-03   1.3387420e-03   3.9688090e-04   2.4445597e-04   3.1790868e-04   2.5111943e-04   1.4352320e-04  -1.6130040e-05   6.1389676e-04   4.0416908e-04   4.3393375e-04   2.0637673e-04   6.3538383e-04   4.9785338e-04  -6.1869599e-05   7.6255252e-05   9.7281569e-05   2.4862873e-04   3.7707665e-04   4.1209877e-04  -6.4483625e-05   2.0754807e-04   4.4391197e-04   7.7024993e-04   8.5519493e-04   8.7027188e-04   3.9481613e-04   2.2559403e-04   5.7105871e-04   7.8958331e-04
   5.1314686e-04   7.9591101e-04   6.8023324e-04   7.3116890e-04   4.4374430e-04   5.1970023e-04   4.4672890e-04   2.1896021e-04   6.6234363e-04   1.1787212e-03   4.0082651e-04   3.2565641e-04   2.1664069e-04   2.6504972e-04  -1.5362709e-04   5.4504059e-04   3.2567323e-04   2.5278874e-04   6.6512136e-04   6.6514267e-04   9.2994818e-04   1.2710325e-03   2.9294338e-04   2.1827113e-05   2.0759294e-04   1.8712853e-04   3.5981106e-05  -6.2543986e-05   4.7617703e-04   3.5173251e-04   3.4979646e-04   1.0580246e-04   5.5979658e-04   3.9639583e-04  -1.6446094e-04  -1.2655319e-04   1.4278292e-07   1.4874729e-04   2.4969224e-04   2.9759208e-04  -3.3234741e-04  -1.0039147e-04   3.2710543e-04   9.0335973e-04   8.6345593e-04   6.1524531e-04   1.4198093e-04   6.7511261e-05   4.7950356e-04   6.4073357e-04
   1.6201653e-04   5.3054391e-04   2.0556574e-04   3.8333767e-04   7.3987561e-05   1.7579843e-04   2.1285962e-04  -3.0904393e-05   2.8361386e-04   9.4015023e-04   1.0441225e-04   1.0948516e-04  -1.1998851e-05   3.2950502e-05  -2.0663867e-04   3.0775761e-04   1.4947765e-04   8.4031519e-05   8.2334981e-04   5.2489451e-04   7.9015119e-04   1.1724734e-03   2.4730372e-04  -5.2969135e-05   4.5691304e-05   1.0955193e-04  -3.2433392e-05  -1.5501383e-04   4.2209469e-04   2.7142465e-04   1.0449190e-04   9.2032511e-05   4.3207902e-04   3.0231866e-04  -1.3754734e-04   2.7969484e-06   3.7852020e-05   1.9050408e-04   3.1288140e-04   3.4287074e-04  -4.2671021e-05   1.8762305e-04   3.8891335e-04   6.8152434e-04   8.9783041e-04   6.5585779e-04   4.9920421e-04   2.2396455e-04   6.3705601e-04   7.2256831e-04
   5.9283560e-04   8.6539745e-04   8.6547359e-04   8.9102815e-04   5.9111859e-04   6.7781640e-04   6.4072810e-04   3.9775230e-04   7.3154649e-04   1.3317401e-03   5.4051599e-04   4.9733324e-04   3.3649598e-04   3.8393232e-04  -9.9563760e-05   6.7519222e-04   4.1110400e-04   2.7962407e-04   8.8443607e-04   8.3923241e-04   1.1163087e-03   1.2180967e-03   4.5874994e-04   2.5349480e-04   3.1096788e-04   2.8833965e-04   2.1132715e-04   8.1314342e-05   7.2780083e-04   4.4219082e-04   3.7229882e-04   2.6256565e-04   6.0632254e-04   4.7056083e-04   4.8760881e-05   1.6599352e-04   1.7721982e-04   3.2224206e-04   4.2188118e-04   5.1498966e-04   8.1361696e-07   2.2431325e-04   4.8237570e-04   8.3483895e-04   1.1105331e-03   6.5144198e-04   5.2125839e-04   2.1341888e-04   6.0328038e-04   8.4749644e-04
   4.7832835e-04   7.8338181e-04   7.0841535e-04   7.6766079e-04   4.7169818e-04   5.2529277e-04   4.7200819e-04   3.1583171e-04   6.8616960e-04   1.1649984e-03   4.2419482e-04   3.0381896e-04   2.4814354e-04   2.8210133e-04  -1.1001948e-04   5.7928101e-04   3.6751223e-04   3.0355464e-04   1.1572135e-03   7.1185193e-04   9.0801419e-04   1.1828594e-03   3.1179836e-04  -1.0970478e-04   2.4879840e-04   2.2340677e-04   9.9555102e-05  -5.9209444e-05   5.6208769e-04   3.7813472e-04   1.4977033e-04   1.6400324e-04   4.9630087e-04   3.2763602e-04  -9.5659052e-05  -1.3847703e-05   8.3912542e-05   1.7263666e-04   2.9322389e-04   3.2666393e-04  -2.7995309e-04  -6.7146349e-05   3.2295816e-04   5.9026107e-04   4.8900140e-04   8.1863161e-04   1.7069142e-04   1.6836003e-04   5.6359300e-04   7.3211896e-04
   1.6424006e-04   5.1855430e-04   2.1774875e-04   3.8343843e-04   1.3501881e-04   1.9568671e-04   1.8882930e-04  -4.9251476e-06   3.2966695e-04   9.1779209e-04   1.2792843e-04   1.5459491e-04   6.4838459e-06   4.1706680e-05  -2.0425406e-04   3.3367719e-04   1.9582963e-04   1.8526215e-04   7.8449392e-04   5.7418068e-04   7.9829851e-04   1.0547887e-03   2.6335023e-04   4.1656147e-04   1.4590725e-04   1.6765376e-04   6.0016580e-05  -3.7013019e-06   5.1770528e-04   3.3360696e-04   2.9178182e-04   3.0880503e-05   7.1995537e-04   4.4700847e-04  -4.9352813e-05   8.3206869e-05   8.5533226e-05   2.5858113e-04   3.6686476e-04   4.4285710e-04   1.4932458e-05   1.7678419e-04   3.8744693e-04   8.9231128e-04   8.6988043e-04   8.3860965e-04   3.1082603e-04   1.9793234e-04   7.0959871e-04   8.4833207e-04
   6.1850465e-04   8.3715428e-04   8.8422850e-04   9.0280821e-04   5.5465306e-04   6.5776141e-04   6.1476213e-04   4.0592279e-04   7.8327407e-04   1.3216531e-03   5.3646474e-04   4.5234262e-04   3.3415679e-04   4.0339053e-04  -9.1380680e-05   6.9481938e-04   4.3035264e-04   3.8278999e-04   1.1461157e-03   8.0638245e-04   1.0119221e-03   1.2053391e-03   4.0087351e-04   1.2276498e-04   3.0815639e-04   3.2165775e-04   2.6886055e-04   1.1935992e-04   7.1367063e-04   4.8720816e-04   4.6986618e-04   3.1492428e-04   7.6546235e-04   5.5120542e-04   7.6283446e-05   1.5985765e-04   1.9544481e-04   3.6759721e-04   4.4962022e-04   5.2645535e-04   1.9277493e-05   2.6380975e-04   4.1652174e-04   9.5911429e-04   9.2234509e-04   7.5875502e-04   3.5192296e-04   2.4827319e-04   6.8162219e-04   8.6061441e-04
   4.8887182e-04   7.3487853e-04   6.7522406e-04   7.4743369e-04   4.6571484e-04   4.8465159e-04   4.4338740e-04   2.2459736e-04   5.9412193e-04   1.1446135e-03   3.8191662e-04   1.9803087e-04   2.2686967e-04   2.7978298e-04  -8.8046239e-05   5.5314717e-04   3.7043932e-04   2.3260963e-04   1.0185512e-03   6.6398236e-04   8.6600555e-04   1.0147868e-03   2.7985772e-04   7.8185585e-05   3.2769184e-04   2.1712645e-04   4.6614892e-05   3.8689475e-05   5.6071946e-04   3.8337274e-04   2.8701572e-04   3.7443766e-05   6.3699222e-04   3.3513154e-04  -8.1575490e-05  -2.1757818e-05   5.0343118e-05   2.0532259e-04   2.7933944e-04   3.3469492e-04  -3.0995038e-04  -1.6261396e-04   3.1654470e-04   6.0475810e-04   6.6080823e-04   6.3927833e-04   2.3843531e-04   1.1109711e-04   5.4408959e-04   6.2281149e-04
   1.7317684e-04   4.6894955e-04   1.7534074e-04   3.6211044e-04   2.2521999e-05   1.4327846e-04   1.5215919e-04  -6.8939502e-05   3.8057880e-04   8.7844353e-04   1.0427147e-04   7.6833625e-05  -2.4534793e-05  -1.8182473e-06  -1.9360708e-04   3.0772117e-04   1.5419337e-04   5.8102905e-05   5.5185088e-04   4.5089264e-04   6.1380415e-04   9.9258218e-04   8.8559391e-05  -2.7843055e-04   1.3765242e-04   2.6095931e-05  -9.4018935e-05  -2.1429581e-04   3.5350156e-04   2.1687399e-04   5.6786772e-05   8.1805651e-05   3.4965013e-04   1.7231246e-04  -2.1066201e-04  -6.7007903e-05  -5.9066449e-05   1.0524080e-04   2.3182225e-04   2.5661162e-04  -1.4464238e-04   1.4674848e-04   2.6679365e-04   4.3083768e-04   8.9619734e-04   6.9362199e-04   2.9590886e-04   1.1343188e-04   6.5837678e-04   7.5216935e-04
   4.6794736e-04   7.0894876e-04   7.0766045e-04   7.3025515e-04   5.2956899e-04   5.4368901e-04   5.0479954e-04   3.3051654e-04   4.7299845e-04   1.2234253e-03   4.4241664e-04   3.6662346e-04   2.4394604e-04   2.7281855e-04  -1.1422444e-04   5.9925346e-04   3.2230254e-04   2.5527240e-04   7.4830052e-04   6.6309137e-04   9.3232986e-04   1.1588830e-03   3.5558190e-04  -3.5474508e-04   2.5877662e-04   1.8586987e-04   1.3158486e-04   1.2096511e-05   6.1735959e-04   4.3092473e-04   2.6305905e-04   1.3020028e-04   6.0681574e-04   4.0761489e-04  -4.5676104e-05   3.8921109e-05   1.3048510e-04   2.8868148e-04   3.8714043e-04   4.1649881e-04  -9.6949065e-05   1.9544484e-04   3.5399006e-04   8.6337200e-04   8.0377882e-04   5.7507632e-04   3.5584540e-04   1.4535572e-04   5.4466020e-04   7.3713268e-04
   3.8447161e-04   6.7328144e-04   5.8519799e-04   6.5719866e-04   3.6024390e-04   4.1064763e-04   3.6220011e-04   1.9611590e-04   5.3334422e-04   1.0961120e-03   3.4041566e-04   2.6129599e-04   1.8267166e-04   1.9387265e-04  -1.4786642e-04   5.1464787e-04   2.7185393e-04   2.7654096e-04   4.6298208e-04   5.6880701e-04   7.8001060e-04   1.0101488e-03   2.9144163e-04   3.0203492e-04   1.5234920e-04   1.0482713e-04   8.1717502e-05  -7.8188932e-05   5.3818035e-04   3.5503056e-04   1.5979481e-04   2.6345082e-05   4.5829295e-04   1.9352857e-04  -1.2261582e-04  -1.6853982e-04   5.1357463e-05   1.7926528e-04   2.8355126e-04   2.8616737e-04  -3.6939819e-04  -2.0125572e-04   1.7772829e-04   1.0302457e-03   7.8277022e-04   7.3403033e-04   2.7160783e-04   2.7772889e-05   4.3595539e-04   6.4644561e-04
   1.0973029e-04   4.1126434e-04   1.0836100e-04   2.9042669e-04   5.0398867e-05   1.0393091e-04   1.0420452e-04  -3.8089605e-05   2.8213047e-04   8.3656493e-04   4.6014004e-05   1.0222325e-04  -8.6417014e-05  -5.8401984e-05  -2.4075885e-04   2.8523107e-04   8.8736509e-05   6.7288631e-05   5.1406102e-04   4.2819360e-04   5.9792091e-04   8.4710977e-04   1.3483148e-04  -2.5342802e-05   5.1841576e-05   7.4176519e-06  -7.3777694e-05  -1.5140040e-04   3.9774532e-04   2.5502773e-04   5.0763450e-05  -5.5807996e-05   1.7780336e-04   2.5664095e-04  -1.8318374e-04  -1.2933913e-04   9.8903811e-06   1.7469354e-04   2.7420794e-04   2.8998277e-04  -1.5973210e-04   6.7170215e-05   1.6772008e-04   5.8049330e-04   8.0795924e-04   7.0016878e-04   3.3656592e-04   1.7812630e-05   5.6048861e-04   6.6261354e-04
   3.6542412e-04   6.5335550e-04   6.1277137e-04   6.7367399e-04   3.9326947e-04   5.0580251e-04   3.6969208e-04   3.0064181e-04   5.0042354e-04   1.1375203e-03   4.0368753e-04   2.7746925e-04   1.6977939e-04   2.4782578e-04  -1.5609874e-04   5.4624793e-04   2.6827227e-04   3.0460503e-04   3.0003054e-04   5.9659866e-04   8.4460032e-04   1.1169438e-03   3.1552330e-04  -1.0620191e-04   1.8868489e-04   1.4585092e-04   1.8746639e-04  -2.5879470e-05   5.3830800e-04   4.1150491e-04   2.2591393e-04   1.4826242e-04   4.7368248e-04   2.3953589e-04  -6.6904584e-05  -3.9307117e-05   8.0655627e-05   2.4835207e-04   3.7208054e-04   4.3589764e-04  -1.5390551e-04   2.6874850e-05   2.4230647e-04   7.7646773e-04   8.0413319e-04   6.0387712e-04   2.5499452e-04   3.2181255e-05   7.4216316e-04   6.3160766e-04
   2.5782440e-04   5.6860846e-04   3.9605849e-04   5.1669520e-04   2.2682833e-04   3.1439774e-04   2.1164217e-04   1.5679872e-04   4.6097167e-04   1.0017089e-03   2.6384537e-04   2.1288040e-04   8.8818822e-05   1.1894342e-04  -1.9118322e-04   4.3146336e-04   2.1026039e-04   2.2239785e-04   6.5342418e-04   4.5633162e-04   7.2905200e-04   9.7297091e-04   1.9370471e-04   2.4163639e-05   1.4058649e-04   5.6364166e-05   3.2399905e-05  -1.1990873e-04   4.4369153e-04   3.2575891e-04   2.5079405e-04   4.1238192e-05   1.8808283e-04   1.0127939e-04  -2.1331025e-04  -2.0809789e-04   4.1006220e-07   1.0769475e-04   2.2825108e-04   2.0986520e-04  -4.6493689e-04  -2.4042471e-04   9.1695423e-05   5.4779771e-04   9.1219845e-04   3.9047335e-04   9.0813250e-05  -8.6644664e-05   3.3796419e-04   4.2187484e-04
  -7.4966440e-05   3.0733063e-04  -1.0792974e-04   1.5613077e-04  -1.1081890e-04   4.6771452e-06  -1.2262757e-05  -1.1501337e-04   4.9193663e-05   8.3767337e-04   4.1366584e-05   8.0904414e-05  -6.0513132e-05  -5.3883879e-05  -2.6156855e-04   2.5091640e-04   6.1000304e-05   9.2087030e-05   6.1188859e-04   4.1390039e-04   7.5501302e-04   8.3042809e-04   1.8304263e-04  -1.7098313e-04  -2.9145072e-05  -8.7242224e-06   5.4354703e-05  -8.6170396e-05   4.5761376e-04   3.4099104e-04   1.8784973e-04   9.3420786e-06   4.5481304e-04   1.9920108e-05  -1.3723213e-04  -1.1715056e-05   8.5138759e-05   1.9703001e-04   3.2930577e-04   3.9643756e-04  -1.5064552e-04   1.4680490e-04   1.6923397e-04   5.9919129e-04   5.7329860e-04   5.6555402e-04   3.6944982e-04   4.6728153e-05   6.4053334e-04   6.2671432e-04
   3.3603338e-04   6.8202609e-04   5.5252144e-04   6.1894511e-04   3.2999195e-04   4.7352674e-04   3.5691666e-04   3.1882053e-04   4.8716183e-04   1.1070225e-03   3.7364132e-04   3.6787972e-04   1.9707807e-04   2.5612771e-04  -1.5405536e-04   5.3073157e-04   2.4884037e-04   2.0866528e-04   1.0463720e-03   5.3204241e-04   8.7672501e-04   1.0157505e-03   3.6279944e-04  -2.7445093e-04   1.8569986e-04   1.2326104e-04   1.1586128e-04   2.2969627e-05   5.4229883e-04   3.9859096e-04   8.8375105e-05  -3.2132313e-05   5.2859372e-04   2.5671156e-04  -1.0218276e-04   7.2970579e-06   7.3992800e-05   2.4049490e-04   3.8253231e-04   3.9013056e-04  -2.1163654e-04   2.0507799e-04   1.8492952e-04   7.9520716e-04   7.2795106e-04   4.8983237e-04   2.2856337e-04   1.1069272e-05   5.9658772e-04   5.8385567e-04
   1.8761802e-04   5.6001090e-04   3.0884446e-04   4.4685937e-04   1.9329430e-04   3.1253637e-04   2.0335393e-04   1.3569237e-04   3.7427753e-04   9.3677110e-04   2.6942592e-04   1.9401760e-04   5.6421359e-05   7.1007446e-05  -1.8566661e-04   4.0375273e-04   1.6829801e-04   1.1433163e-04   2.6642493e-04   3.8107237e-04   6.8578904e-04   1.0852410e-03   2.0332773e-04  -1.6780548e-04   4.4049499e-05  -7.9068623e-06  -5.0923620e-05  -1.0583073e-04   4.2332752e-04   2.8571460e-04   8.4676707e-05  -1.4852324e-04   1.5779849e-04   2.3093559e-04  -2.4420599e-04  -3.2052517e-04  -2.8681849e-05   7.0950533e-05   2.0114417e-04   1.7122109e-04  -5.5747735e-04  -1.1050267e-04   1.5151254e-05   5.9214461e-04   6.4104481e-04   3.0642550e-04   2.7111318e-04  -1.1343017e-04   2.6470877e-04   4.5312315e-04
  -1.7818967e-04   2.9830012e-04  -1.3633909e-04   9.9274992e-05  -6.7813424e-05   6.1148625e-05  -2.7865906e-06  -8.7033499e-05   4.0659599e-04   9.3192322e-04   1.6116718e-04   2.7005040e-04   5.1938016e-05   1.9106086e-05  -2.3800536e-04   3.4128159e-04   1.0526124e-04   9.0974158e-05   3.6808971e-04   4.7382867e-04   8.4435008e-04   9.8167080e-04   3.1616798e-04  -2.7603289e-04   6.4860273e-05   4.9940365e-05   1.3562904e-04  -1.0439149e-04   4.9262127e-04   3.5816489e-04   6.5840322e-05   2.3075376e-05   2.8127740e-04   1.5183180e-04  -1.2494867e-04  -4.8166105e-05   1.2912955e-04   1.8498415e-04   3.5770566e-04   4.0559811e-04  -1.5573062e-04   2.7670822e-04   2.0128493e-04   6.7761797e-04   7.1579003e-04   6.5798726e-04   3.8320830e-04   6.6425084e-05   6.5605115e-04   6.4540101e-04
   3.6794046e-04   7.2494335e-04   5.5243302e-04   6.2940770e-04   3.6923349e-04   4.9995130e-04   3.5251601e-04   3.3127275e-04   5.2118232e-04   1.1416181e-03   4.8750249e-04   3.4491974e-04   2.5678400e-04   2.9324077e-04  -1.4733194e-04   5.7303894e-04   2.7640289e-04   1.7428241e-04   5.3538545e-04   5.6879909e-04   9.2547270e-04   1.0237126e-03   4.1375711e-04   2.7095548e-06   2.5858681e-04   1.0248691e-04   1.7246448e-04  -6.3882057e-05   5.9965777e-04   4.2609771e-04   1.6100641e-04   8.2986466e-05   4.3335915e-04   3.1805487e-04  -6.7420035e-05  -3.5383491e-05   9.1964495e-05   2.4194429e-04   3.5764009e-04   4.0157526e-04  -2.6357090e-04   2.4685566e-04   2.4334002e-04   5.7841133e-04   7.2348141e-04   3.6027437e-04   4.0546217e-04   8.2518767e-05   5.6270353e-04   5.9175800e-04
   2.2354763e-04   6.1873929e-04   2.9494925e-04   4.3748942e-04   2.3748663e-04   2.9749464e-04   1.4446695e-04   1.3070658e-04   7.0473389e-04   9.6490694e-04   3.1144579e-04   2.6991245e-04   1.3754182e-04   1.1593185e-04  -1.9493757e-04   3.9379630e-04   1.8232051e-04   1.6533886e-04   9.0507441e-04   4.9430324e-04   7.5234764e-04   1.0525059e-03   2.7698622e-04  -3.1270531e-05   1.0098869e-04   4.0670784e-05  -2.9035518e-05  -1.1656635e-04   4.4721452e-04   3.0008168e-04   1.1683997e-04  -1.6853624e-05   2.7915742e-04   1.4829513e-04  -2.4028464e-04  -2.9329723e-04  -4.2022737e-05   3.9025985e-05   1.9450045e-04   1.6102672e-04  -5.5214280e-04  -1.6095648e-04   3.8648657e-05   3.8069821e-04   5.0385675e-04   3.0597969e-04   3.4415978e-04  -5.0570728e-05   3.8598545e-04   3.6103476e-04
  -1.2611636e-04   3.3189380e-04  -2.0082040e-04   4.9527534e-05  -1.1343369e-04  -1.5610396e-05  -1.0530937e-04  -1.3728629e-04   2.6022556e-04   8.3174667e-04   9.4837400e-05   1.0227065e-04   2.1109770e-05  -9.4681949e-05  -2.9043976e-04   2.4578322e-04   4.0955114e-05   8.4721592e-05   8.1532402e-04   3.9616588e-04   7.7088882e-04   9.7342354e-04   3.3721034e-04  -1.6338115e-04   3.6965070e-05   5.5241053e-05   1.0705234e-04  -1.1663460e-04   4.0204759e-04   3.1050897e-04   3.1893171e-05   8.8974295e-05   4.8336762e-04   2.5025127e-04  -1.6652361e-04  -7.2460913e-05   4.2691769e-05   1.5454348e-04   3.1495970e-04   3.2001251e-04  -1.6373848e-04   3.1909239e-04   1.8636878e-04   7.0889859e-04   5.9400831e-04   2.2569514e-04   5.7680404e-04   1.5231769e-04   6.3964608e-04   6.1856169e-04
   3.9977115e-04   7.6375291e-04   5.6245067e-04   6.0499209e-04   3.6337474e-04   5.1526650e-04   3.2561205e-04   3.3029114e-04   6.4807950e-04   1.1428973e-03   5.2544969e-04   4.3686249e-04   3.1325198e-04   3.0314471e-04  -1.3799073e-04   5.3622143e-04   2.4089694e-04   2.2680110e-04   3.6609353e-04   6.1089441e-04   9.6847402e-04   1.0053350e-03   4.0238196e-04  -2.1761644e-04   2.5128989e-04   1.4716465e-04   1.5293621e-04  -1.8590514e-05   5.0285232e-04   3.9839526e-04   2.3628505e-04   9.3765288e-05   3.7846094e-04   2.6658594e-04  -8.2018691e-05  -6.6061737e-05   9.7560820e-05   1.9942746e-04   3.4725107e-04   3.3943009e-04  -2.2932808e-04   3.7222178e-04   2.4952108e-04   9.0972986e-04   7.8167516e-04   5.8278983e-04   4.8502529e-04   2.5196915e-04   5.5630633e-04   6.2160136e-04
   2.4512922e-04   6.6275889e-04   3.3217450e-04   4.2830844e-04   1.7302283e-04   3.1763793e-04   1.7560454e-04   1.2397380e-04   3.3664724e-04   9.6720370e-04   3.7755008e-04   3.3254028e-04   2.2483605e-04   1.8374964e-04  -1.6514561e-04   4.0874429e-04   1.8135353e-04   1.6800925e-04   1.4804222e-04   5.3175015e-04   7.8327302e-04   9.3574839e-04   3.3199275e-04  -2.1856252e-04   1.3355160e-04   4.6934081e-05   2.4854862e-05  -5.9765629e-05   3.7110315e-04   2.8266414e-04   6.1863524e-05   1.1693453e-05   4.2276375e-04   4.1351370e-05  -2.1482978e-04  -2.1553382e-04   8.0676273e-06   3.8181923e-05   1.6672214e-04   1.7830257e-04  -5.7445030e-04   3.0574345e-05   1.0799351e-04   6.7208143e-04   4.8148382e-04   4.9221440e-04   3.5829702e-04   2.7181166e-05   4.9211213e-04   4.2161520e-04
  -5.3815183e-05   3.8321025e-04  -1.3684442e-04   6.2883526e-05  -1.0637937e-04   6.7891397e-06  -8.7304368e-05  -1.7233010e-04   1.5865988e-04   7.1644288e-04   1.0861793e-04   1.0599159e-04  -6.8704030e-05  -8.2149993e-05  -2.2926230e-04   1.3908715e-04  -2.5106645e-05  -6.9143600e-05   5.5334548e-04   3.1520921e-04   5.7948352e-04   8.7181706e-04   1.6699536e-04  -1.5750721e-04   8.5208463e-05  -1.2616861e-04  -2.5039626e-04  -3.1811689e-04   1.8403569e-04   1.2448148e-04  -7.4345160e-05  -9.6840260e-05   5.3755252e-04  -4.2709478e-05  -3.7581593e-04  -2.7810578e-04  -1.5042088e-04  -2.6160449e-05   1.1160070e-04   1.3134298e-04  -3.7411723e-04   2.3341452e-04   7.7436016e-05   2.7755788e-04   7.4802712e-04   1.7871421e-04   4.0060972e-04   1.7524998e-04   7.3380640e-04   4.8276171e-04
   3.1314034e-04   7.1038969e-04   4.6347990e-04   4.9112405e-04   3.4535420e-04   4.6724107e-04   2.1209721e-04   3.2541214e-04   7.1885803e-04   1.1241342e-03   4.8520503e-04   3.3608451e-04   2.6101244e-04   2.4237613e-04  -1.8348964e-04   4.4207319e-04   1.8240948e-04   1.0948729e-04   6.6941744e-04   5.2441028e-04   8.8811101e-04   1.0572644e-03   4.2747884e-04  -3.2132279e-04   1.4125228e-04   1.0513810e-04   5.5194076e-05  -1.2841527e-04   4.3000345e-04   3.0939473e-04   8.5917221e-05  -4.6614830e-05   5.2974012e-04   1.7418043e-04  -2.0277759e-04  -1.7922008e-04   1.7969443e-05   9.1950111e-05   2.7393032e-04   2.6277950e-04  -3.2700796e-04   4.5043824e-04   1.3230521e-04   7.2344986e-04   7.7151583e-04   5.0757348e-04   3.5477875e-04   2.5674506e-04   6.0436648e-04   4.7809980e-04
   2.9628698e-04   6.9337891e-04   3.5024277e-04   4.4144155e-04   2.1579188e-04   3.7985347e-04   1.5236430e-04   1.5262446e-04   6.7101244e-04   9.9997839e-04   3.8409769e-04   2.9200673e-04   2.1106953e-04   1.6986407e-04  -1.7164239e-04   3.6502624e-04   1.3843020e-04   9.4717085e-05   9.2211540e-04   4.6311389e-04   7.9452066e-04   8.9819392e-04   2.7496420e-04  -4.9461244e-04   1.4734591e-04   2.4005187e-05  -3.3168584e-05  -2.0027117e-04   2.7234131e-04   2.1969278e-04  -5.7355763e-05  -4.1351403e-05   2.7481007e-04   2.5066052e-04  -3.4349208e-04  -2.9803882e-04  -5.6425379e-05  -3.6691927e-05   1.2306691e-04   1.3332597e-04  -6.3759106e-04   7.1444338e-05   2.4414021e-05   4.6875200e-04   6.2388583e-04   5.0940964e-04   2.2060784e-04   8.1304068e-05   4.3405758e-04   3.0135902e-04
  -3.4622408e-05   4.4648335e-04  -1.1598389e-04   1.0518290e-04  -7.4244002e-05   4.5417277e-05  -6.2836152e-05  -6.4487504e-05   4.5768041e-04   7.2949374e-04   1.0410433e-04  -4.1001877e-06  -5.7284346e-05  -5.0692026e-05  -2.3734524e-04   1.1945596e-04  -3.8929269e-05  -1.0512629e-04   3.6635064e-04   2.8078925e-04   5.8121618e-04   8.0872781e-04   1.8144469e-04  -4.4628567e-04  -2.8155220e-05  -1.4992380e-04  -2.1459546e-04  -2.7660778e-04   5.4919958e-05   5.1241950e-05   1.4001298e-04  -1.1509313e-04   1.3449039e-04   7.8410274e-05  -4.6333909e-04  -3.7427826e-04  -1.1296622e-04  -1.0563674e-04   7.5121105e-05   5.7682348e-05  -4.8518187e-04   2.5081570e-04   5.0718951e-05   4.8934709e-04   5.7350297e-04   4.8384577e-04   3.6274895e-04   1.3905911e-04   5.2497681e-04   3.5574712e-04
   2.7839522e-04   6.8279373e-04   4.1449806e-04   4.3628152e-04   2.2234142e-04   4.2550606e-04   1.8788988e-04   2.2035082e-04   6.7352515e-04   1.0490643e-03   4.5463874e-04   2.5427292e-04   2.4029339e-04   2.4737327e-04  -2.1489448e-04   3.6987226e-04   1.3173893e-04   2.2790064e-05   6.3089369e-04   5.3953013e-04   8.6590101e-04   1.0316598e-03   3.3498165e-04  -2.0637143e-04   1.7318063e-04   5.4901218e-05  -6.5539707e-06  -1.3250114e-04   4.0130128e-04   2.4909014e-04  -1.9778457e-05  -7.5586337e-05   4.5715744e-04   1.5322281e-04  -2.7599232e-04  -1.8521989e-04  -4.2661136e-06   2.8854698e-05   1.8502989e-04   1.9990337e-04  -4.2015308e-04   3.2840302e-04   1.2273759e-04   8.5745816e-04   5.9327006e-04   4.8194104e-04   5.5637665e-04   1.6834018e-04   5.5656908e-04   4.5151156e-04
   2.1265326e-04   6.4501975e-04   2.7803800e-04   3.5582148e-04   1.8006991e-04   3.2567277e-04   1.0107669e-04   7.1237708e-05   5.7269906e-04   9.2187070e-04   3.4793303e-04   1.8770195e-04   1.4454075e-04   1.4946992e-04  -2.1894202e-04   3.0864243e-04   9.3326125e-05   1.3136353e-04   1.2610968e-03   4.4360122e-04   7.4776745e-04   8.7442779e-04   2.6705285e-04  -5.0107547e-04  -4.6713603e-06  -4.6797155e-05  -7.2106945e-05  -2.4914718e-04   2.8790266e-04   1.7522798e-04  -4.3242922e-05  -9.0378766e-05   3.0474487e-04   9.6359756e-05  -3.9863909e-04  -4.3121196e-04  -1.0602132e-04  -8.7053682e-05   5.8363599e-05   1.0025797e-04  -7.0193486e-04   8.6527005e-05   1.4744330e-06   4.0696887e-04   4.3929924e-04   2.6152335e-04   1.6079198e-04   1.1222446e-04   4.4800545e-04   2.8997651e-04
  -9.8158984e-05   3.8002475e-04  -1.9678414e-04   2.7558638e-06  -1.7671099e-04  -2.6147569e-05  -1.2015805e-04  -1.5520511e-04   4.2918767e-04   7.5841154e-04   8.9748915e-05   6.1563478e-06  -2.6067326e-05  -4.5811401e-05  -2.7472843e-04   1.3148125e-04  -2.5635038e-05  -9.8688935e-05   1.2713500e-03   3.6951553e-04   7.4172334e-04   9.3550712e-04   3.9061034e-04  -9.7532458e-05   2.8648645e-05  -4.1775369e-05  -3.4292043e-05  -1.9404566e-04   2.5292800e-04   1.8074649e-04  -4.5390803e-05  -1.1048156e-04   3.5726553e-04   1.3816850e-04  -3.2173994e-04  -2.5157747e-04  -8.5505009e-05  -2.4169514e-05   1.4817512e-04   1.3045249e-04  -3.9787500e-04   2.7046283e-04   7.8747173e-05   4.4222883e-04   5.6103291e-04   2.2834683e-04   5.1596679e-04   1.5941729e-04   5.6894287e-04   4.3721840e-04
   2.9229411e-04   6.6002441e-04   4.1404649e-04   4.2365820e-04   2.3903699e-04   3.8554729e-04   1.9107854e-04   1.5338749e-04   4.7475583e-04   9.8334998e-04   4.3104161e-04   2.1069434e-04   2.1378527e-04   2.2175880e-04  -1.8320687e-04   3.7189794e-04   1.1095712e-04   8.7582281e-05   6.1736011e-04   5.4111332e-04   8.0320914e-04   7.8811584e-04   3.7646576e-04  -3.7495629e-04   1.1698938e-04   5.4276021e-05   3.2581644e-05  -9.6030024e-05   3.5749032e-04   2.5475922e-04   5.9303806e-05   8.8548026e-05   4.3685516e-04   1.6824866e-04  -2.6435513e-04  -2.6848301e-04  -4.7872971e-05   3.4230648e-05   1.6997030e-04   2.3949509e-04  -4.5962949e-04   3.2788244e-04   1.0193450e-04   3.3470066e-04   5.7994906e-04   2.8198719e-04   3.6882976e-04   2.3066089e-04   5.5193133e-04   4.2413443e-04
   1.5015907e-04   5.4465095e-04   1.6113199e-04   2.5553364e-04   8.8108827e-05   2.0072622e-04   5.3174503e-05   2.7468486e-05   5.1145960e-04   8.2755787e-04   2.7486042e-04   7.8758501e-05   8.7177134e-05   5.8756625e-05  -2.2246357e-04   2.4023316e-04   5.4056887e-05  -5.2279709e-05   6.5492373e-04   4.2559789e-04   6.5692910e-04   7.7725708e-04   2.6252188e-04  -5.7343807e-04   6.7329871e-05  -8.0240738e-05  -1.5863602e-04  -2.3621997e-04   1.7659280e-04   1.4939466e-04  -7.9182624e-05   5.1988143e-05   1.2403788e-04   2.3375349e-05  -4.1936082e-04  -4.7647121e-04  -1.9448617e-04  -1.4840216e-04   8.2077850e-06   4.1589152e-05  -7.8915706e-04   6.5117558e-05  -2.9072191e-05   2.6559617e-04   1.9377044e-04   3.2046071e-04  -7.3361102e-06   1.5308859e-04   4.2565272e-04   2.9525961e-04
  -1.2392638e-04   3.6830769e-04  -1.3408443e-05   1.1592487e-04   2.0577205e-05   2.3576825e-04   1.0286408e-05   1.7822165e-05   6.5735762e-04   9.6363161e-04   3.1743530e-04   1.6045032e-04   1.6692051e-04   1.4668352e-04  -2.2907743e-04   3.1338134e-04   8.1753060e-05   2.3467077e-05   5.9617468e-04   5.1479327e-04   8.9176901e-04   9.4982691e-04   4.2691702e-04  -1.7641006e-04   6.3332285e-05   5.8294245e-05   6.9481684e-05  -1.4046430e-04   3.1332005e-04   2.7467179e-04   1.2672463e-04   1.9295660e-05   2.8643827e-04   3.2316180e-04  -2.5028316e-04  -1.8002023e-04  -2.9125053e-05   6.7187757e-05   2.2241859e-04   2.1384396e-04  -3.0462732e-04   5.7366648e-04   1.9062386e-04   5.6433253e-04   6.1667775e-04   4.4382477e-04   3.5304387e-04   2.6859134e-04   7.5743662e-04   4.9021724e-04
   3.3870744e-04   7.3046389e-04   5.3780759e-04   5.1510509e-04   3.4898263e-04   5.1100436e-04   2.9810378e-04   3.4206096e-04   5.4640381e-04   1.0293674e-03   4.9852533e-04   2.5681141e-04   3.0573321e-04   2.6959859e-04  -1.4405126e-04   4.6056780e-04   2.1755845e-04   8.9557354e-05   4.4910979e-04   6.3344365e-04   9.1979024e-04   9.3313761e-04   5.2703574e-04   6.2807812e-05   1.6925430e-04   1.2354969e-04   7.5463468e-05  -1.3974027e-04   4.4215869e-04   2.9349679e-04   2.4620153e-04   9.4264200e-05   4.0399903e-04   1.9030324e-04  -2.0673519e-04  -1.7359848e-04   1.9048393e-05   5.8474852e-05   2.1223404e-04   2.4000955e-04  -4.2891948e-04   4.2683718e-04   1.9601082e-04   2.7395750e-04   6.7317445e-04   2.7466644e-04   4.5355177e-04   1.6091274e-04   5.9422065e-04   5.2237901e-04
   2.1596675e-04   6.0379750e-04   2.4090290e-04   3.1921230e-04   1.6868701e-04   2.8140558e-04   1.1184582e-04   9.9251243e-05   5.0149753e-04   8.4598450e-04   3.2631002e-04   1.2154457e-04   1.3529052e-04   1.0714181e-04  -2.3255392e-04   2.7654783e-04   1.0799877e-04   1.8493896e-05   4.6151501e-04   4.6525133e-04   6.8645377e-04   9.0836786e-04   2.8911594e-04  -1.8890182e-04   9.4012910e-05  -3.0593677e-05  -1.4581499e-04  -1.7684198e-04   2.2076386e-04   1.5905155e-04   1.5689788e-04  -1.4976651e-04   2.1164700e-04   2.4209480e-04  -3.9638634e-04  -3.9859657e-04  -1.6451489e-04  -1.1491666e-04   5.3878766e-06   2.5865624e-05  -7.3292060e-04   1.7906837e-04   4.0038001e-05   4.3566513e-04   5.8310240e-04  -2.4256271e-05   2.3465147e-04   2.3585986e-04   7.6313235e-04   4.4574641e-04
   2.6867716e-04   6.5863522e-04   4.9492886e-04   4.7593904e-04   3.8595241e-04   5.0122809e-04   2.7863108e-04   2.4892227e-04   5.6454615e-04   1.0751182e-03   5.1570957e-04   3.0038218e-04   3.2837523e-04   3.2678377e-04  -1.4706748e-04   4.6714698e-04   2.2677862e-04   9.2464805e-05   1.1100845e-03   6.6458737e-04   1.0283734e-03   9.4502204e-04   5.3846271e-04  -7.8135228e-05   2.1896795e-04   1.6695910e-04   1.8774591e-04  -5.0103932e-05   3.9936765e-04   3.2857666e-04   9.4949566e-05   1.1857376e-04   7.6298829e-04   2.6939114e-04  -1.2814705e-04  -6.6162385e-05   7.4400938e-05   1.2600473e-04   2.6556515e-04   3.4884925e-04  -1.9047903e-04   7.0908177e-04   3.3592992e-04   6.3937332e-04   9.2418899e-04   5.0196075e-04   4.9678725e-04   4.5488749e-04   8.8408357e-04   6.9418311e-04
   5.0432974e-04   8.6938153e-04   7.1666302e-04   6.8760250e-04   4.1829419e-04   5.9972331e-04   4.2345058e-04   3.7190283e-04   7.9793419e-04   1.0813751e-03   6.2647980e-04   2.1052061e-04   4.4660349e-04   3.7218118e-04  -3.7077294e-05   5.5523281e-04   3.3587421e-04   2.0878803e-04   7.2027795e-04   7.5081753e-04   1.0170707e-03   1.0889384e-03   5.3823669e-04   1.6839451e-05   2.9351440e-04   1.9024004e-04   1.4243393e-04  -1.1330439e-05   4.1143908e-04   3.3596804e-04   4.6407920e-04   2.4954227e-04   3.5970280e-04   3.1975436e-04  -1.4365389e-04  -1.2065013e-04   7.4767733e-05   7.8458215e-05   2.2496129e-04   2.6801787e-04  -3.5515986e-04   6.6237187e-04   3.2818489e-04   3.6381962e-04   7.4467662e-04   2.7625405e-04   4.0874869e-04   3.8934575e-04   7.6553889e-04   5.3301296e-04
   2.7821315e-04   6.6993368e-04   3.5518120e-04   4.2091490e-04   2.1351303e-04   3.3134918e-04   1.8839746e-04   8.1908540e-05   5.6270760e-04   8.3147793e-04   3.7857550e-04   7.8256082e-05   2.2361072e-04   1.9282993e-04  -1.6828299e-04   3.3391415e-04   2.0232664e-04   1.9849233e-05   1.2328025e-03   5.6823704e-04   7.7107782e-04   9.7896578e-04   3.5942518e-04  -3.6640782e-04   1.4765165e-04   1.4579209e-05  -1.0163851e-04  -1.4356953e-04   2.8161181e-04   2.0409873e-04   1.5418937e-04   5.9319400e-06   5.1205867e-04   2.3793679e-04  -3.4234053e-04  -4.3143053e-04  -1.5821565e-04  -9.3793198e-05   4.4599972e-05   7.7050594e-05  -6.4690586e-04   3.7089677e-04   1.6177831e-04  -2.8302007e-05   5.3404982e-04   2.8565450e-04   3.5042738e-04   3.0037574e-04   8.4309501e-04   5.3095078e-04
   3.6626967e-04   7.4860995e-04   6.0364295e-04   5.9133337e-04   4.3871586e-04   6.0173421e-04   3.9265375e-04   3.0303260e-04   7.4516411e-04   1.0987540e-03   5.9193885e-04   2.5819390e-04   4.3244904e-04   4.0262422e-04  -1.0131533e-04   5.3622574e-04   3.0361715e-04   1.3694749e-04   9.2008285e-04   7.8298000e-04   1.0691305e-03   1.1465608e-03   5.9193518e-04  -1.5066547e-04   3.0498244e-04   2.5290268e-04   1.4052700e-04   3.2254513e-05   4.8703325e-04   3.6936739e-04   2.4482966e-04   1.6662567e-04   5.9612654e-04   3.7307278e-04  -8.8224449e-05  -1.2803867e-05   1.5532448e-04   1.4803106e-04   2.9286693e-04   3.7404412e-04  -1.4792162e-04   7.4630772e-04   4.0215882e-04   6.4237620e-04   8.8951638e-04   3.4398562e-04   4.5737269e-04   4.2740500e-04   9.9600048e-04   7.0525671e-04
   6.0237251e-04   9.2329388e-04   8.0728467e-04   7.8609691e-04   4.9221213e-04   6.6697248e-04   5.0296373e-04   4.6530919e-04   7.2770676e-04   1.0896954e-03   6.4972549e-04   2.6944434e-04   5.1014230e-04   4.5379854e-04  -1.7161123e-05   6.1763579e-04   4.2027116e-04   2.9899229e-04   1.4091433e-03   8.3918124e-04   1.0814457e-03   1.1882175e-03   6.4213108e-04  -2.9773999e-04   3.6878913e-04   2.5011020e-04   1.4051309e-04   5.1087067e-05   4.8378811e-04   3.5280074e-04   3.5249384e-04   9.3084469e-05   8.2486181e-04   3.7812220e-04  -1.1734699e-04  -8.4997038e-05   7.6056429e-05   1.0748196e-04   2.3207672e-04   3.1095845e-04  -3.1107097e-04   7.9128565e-04   3.9648288e-04   1.0035464e-03   9.1744901e-04   5.2425085e-04   3.4473921e-04   4.7573150e-04   8.4658101e-04   5.6635402e-04
   3.5894359e-04   7.2078261e-04   4.4595278e-04   5.1637593e-04   2.5253170e-04   4.2608738e-04   3.0717632e-04   1.4934427e-04   5.5237982e-04   8.3123881e-04   4.1449603e-04   9.9195677e-05   3.0180041e-04   2.4252517e-04  -1.1114634e-04   3.6395915e-04   2.5995626e-04   1.5710390e-04   8.5587002e-04   6.1013864e-04   8.6149952e-04   1.0290144e-03   4.4480525e-04  -2.1452011e-04   1.1742517e-04   7.9535042e-05  -2.8172883e-05  -7.3526950e-05   3.1895490e-04   2.0633252e-04   1.7296112e-04   5.6718127e-05   2.5951266e-04   2.7627495e-04  -3.1806194e-04  -3.6907254e-04  -1.1753755e-04  -1.0758032e-04   1.3205781e-05   1.1920705e-04  -6.8323198e-04   2.7884464e-04   1.9151816e-04   3.3008450e-04   6.2936492e-04   1.8173629e-04   2.0917083e-04   3.3008665e-04   7.7785639e-04   4.8963225e-04
   2.7069193e-04   6.3967973e-04   4.7369962e-04   5.2265241e-04   3.4487259e-04   5.3212885e-04   3.0149202e-04   2.3018150e-04   7.6391199e-04   1.0199399e-03   5.1765842e-04   2.1624796e-04   4.1116669e-04   3.5728110e-04  -6.8195499e-05   5.0034921e-04   3.0634453e-04   1.9997403e-04   1.3398626e-03   8.0334948e-04   1.0718367e-03   1.2175412e-03   5.7488179e-04  -1.9623023e-05   2.8253390e-04   2.2839275e-04   1.3818005e-04  -5.2247906e-06   3.8242829e-04   3.1293288e-04   3.1325617e-04   1.5713029e-04   6.2803546e-04   3.3907880e-04  -1.3848970e-04  -8.0479964e-05   1.1003762e-04   1.1344733e-04   2.6114561e-04   3.4137274e-04  -1.9407249e-04   6.8078778e-04   4.3197264e-04   3.4405966e-04   8.3997223e-04   5.0507480e-04   5.2669970e-04   4.5818731e-04   8.6397544e-04   6.9735566e-04
   5.6394073e-04   8.9049432e-04   8.0243353e-04   7.6549448e-04   4.8761111e-04   6.6142937e-04   5.1823270e-04   3.7765253e-04   8.6090708e-04   1.0392361e-03   6.1882386e-04   2.3397565e-04   4.7151919e-04   4.5785401e-04  -2.8036877e-06   5.8792339e-04   4.1518043e-04   2.4739455e-04   9.4052614e-04   8.2352618e-04   1.0616408e-03   1.3402379e-03   5.0841074e-04   2.6384963e-05   3.2920996e-04   2.3966860e-04   8.5996333e-05   1.7590715e-05   3.6083808e-04   3.2722208e-04   3.3205649e-04   1.7494679e-04   5.6367484e-04   5.0261867e-04  -1.4334760e-04  -1.2422520e-04   3.5807345e-05   9.3829956e-05   1.9414895e-04   3.3394599e-04  -3.2887544e-04   6.5345806e-04   4.0289221e-04   4.6100232e-04   8.3692488e-04   4.3269302e-04   4.2389834e-04   4.5322857e-04   8.4769254e-04   5.8794179e-04
   3.4828036e-04   7.2692102e-04   4.5070439e-04   5.3651282e-04   2.7266474e-04   4.1823930e-04   2.7227908e-04   2.2817486e-04   6.2982296e-04   8.1208127e-04   3.9663943e-04   7.2373317e-05   2.7791708e-04   2.8532522e-04  -1.0105826e-04   3.7755273e-04   2.9930082e-04   1.4545326e-04   9.8274648e-04   6.3392217e-04   8.7636721e-04   1.1614442e-03   3.4096773e-04  -3.0630306e-04   1.7105718e-04   6.8497728e-05  -2.8530081e-05  -1.0293289e-04   3.1079439e-04   1.9703839e-04   3.3466134e-04   2.1397759e-04   5.3685048e-04   3.1600430e-04  -3.1869003e-04  -3.5819167e-04  -1.2774135e-04  -9.7810873e-05   4.3464708e-05   1.4969625e-04  -5.5094209e-04   4.9249915e-04   2.4296268e-04   6.4254820e-04   7.6130341e-04   2.3137263e-04   3.1451974e-04   3.5792997e-04   9.0406631e-04   5.5442034e-04
   4.6691185e-04   8.4120588e-04   7.2934816e-04   7.1035471e-04   5.0341233e-04   6.5734732e-04   4.7814488e-04   4.0908920e-04   7.8514154e-04   1.0261791e-03   5.9388374e-04   2.5420182e-04   4.3528122e-04   4.2698279e-04  -7.3098883e-05   5.7665783e-04   4.0026751e-04   2.2639110e-04   9.4999996e-04   8.5661846e-04   1.1151528e-03   1.3070598e-03   5.6954019e-04   2.7767807e-04   2.8015295e-04   2.2718441e-04   1.3675659e-04   1.9263678e-05   4.3165861e-04   3.5536027e-04   1.7099484e-04   1.1746085e-04   5.5722211e-04   5.2171451e-04  -9.6465315e-05  -9.0283756e-05   1.0662089e-04   1.1309450e-04   2.7291238e-04   3.2002071e-04  -1.9081200e-04   7.7337743e-04   4.2201555e-04   6.4594398e-04   8.7818370e-04   2.2358223e-04   7.1185007e-04   4.9418438e-04   1.0064590e-03   6.4514368e-04
   5.5723265e-04   8.9630228e-04   7.6204556e-04   7.6572574e-04   5.1543320e-04   6.5844750e-04   5.0823658e-04   3.4503543e-04   8.7911240e-04   9.6068019e-04   5.6150492e-04   2.0061014e-04   4.2223377e-04   4.5267091e-04  -5.5522960e-05   5.6342687e-04   4.1286918e-04   2.3347908e-04   9.8769809e-04   8.1743335e-04   9.9174702e-04   1.2123400e-03   4.8190705e-04   1.3904009e-04   3.1851704e-04   2.1609836e-04   8.8462300e-05   9.4718434e-06   4.0700883e-04   3.3421756e-04   2.8236391e-04   1.8458843e-04   6.2106684e-04   3.5343607e-04  -1.5312360e-04  -1.6059501e-04   7.3394003e-05   5.8343569e-05   1.7214436e-04   2.8273041e-04  -3.8659465e-04   5.0083571e-04   3.8794539e-04   8.1944530e-04   9.1111439e-04   2.7175708e-04   4.1158387e-04   3.7690243e-04   9.6391764e-04   4.8702085e-04
   2.8375845e-04   6.7357579e-04   3.3425444e-04   4.4906934e-04   2.2558229e-04   3.3354358e-04   2.7479092e-04   1.2320625e-04   4.9772050e-04   7.0547225e-04   2.9937649e-04   4.6067194e-05   2.1488909e-04   2.0778607e-04  -1.3397228e-04   3.3579697e-04   2.5067030e-04   7.7896133e-05   8.8404876e-04   6.2942982e-04   7.6687295e-04   1.1309104e-03   3.2685534e-04  -1.7460214e-04   1.4887990e-04   1.4278009e-05  -6.1899911e-05  -1.5343798e-04   2.3990072e-04   1.7770672e-04   2.6593090e-04  -7.4883421e-05   5.3562562e-04   2.5101096e-04  -2.3631738e-04  -2.5529257e-04  -1.5247218e-05   2.6895566e-05   1.4970808e-04   2.4023493e-04  -2.1636386e-04   6.3092372e-04   4.1988885e-04   1.0427358e-03   7.2734477e-04   5.9135252e-04   5.1730563e-04   4.6866605e-04   1.1753581e-03   6.7076634e-04
   6.3308352e-04   9.2286844e-04   8.8311645e-04   8.3897653e-04   6.4524252e-04   7.9233345e-04   6.0363795e-04   4.8478445e-04   1.0925636e-03   1.0642927e-03   6.3397788e-04   2.9654428e-04   4.9762503e-04   5.6433433e-04  -2.0910586e-05   6.5788993e-04   4.5938141e-04   2.4103395e-04   1.0798783e-03   8.9607056e-04   1.0959405e-03   1.3501965e-03   5.6167127e-04  -1.3177632e-04   3.7415008e-04   2.7798692e-04   2.1945081e-04   6.4845670e-05   4.7352133e-04   4.2043024e-04   2.9641608e-04   2.1984623e-04   5.6031876e-04   3.7831403e-04  -2.6676233e-05   1.7819471e-05   1.4744198e-04   1.9663569e-04   2.9670945e-04   3.9317372e-04  -1.0585480e-04   6.8239012e-04   5.1985867e-04   7.6678890e-04   9.0926629e-04   7.0464268e-04   5.6729245e-04   5.2592455e-04   1.1015921e-03   7.3256332e-04
   6.0069835e-04   9.1409590e-04   8.1544655e-04   8.0329302e-04   5.0125958e-04   6.4768182e-04   5.5623258e-04   4.4398324e-04   7.8527554e-04   9.2853268e-04   5.5152428e-04   2.2691856e-04   4.4001034e-04   4.6344000e-04   1.7774108e-06   5.8113836e-04   4.5389138e-04   2.2757653e-04   8.5529103e-04   8.4931572e-04   9.9775684e-04   1.1762874e-03   5.2246358e-04  -2.1276825e-04   3.2857887e-04   1.7782747e-04   6.8398833e-05   3.9858511e-05   4.3536202e-04   3.4962685e-04   3.6389017e-04   2.5734046e-04   6.5309589e-04   4.5836248e-04  -1.0211821e-04  -1.1162911e-04   8.2408973e-05   9.4031013e-05   2.0418347e-04   2.9032931e-04  -3.5275600e-04   3.1981021e-04   4.1972511e-04   6.9371547e-04   8.6723041e-04   3.3742719e-04   4.2454450e-04   3.2524668e-04   1.0400837e-03   6.2725873e-04
   2.5551251e-04   6.4345292e-04   3.3356782e-04   4.6317076e-04   1.8985136e-04   3.3759605e-04   2.8122921e-04   7.5407930e-05   6.0764176e-04   7.1110344e-04   2.7579963e-04   4.6612422e-05   2.1952997e-04   2.6128502e-04  -7.6929253e-05   3.7875521e-04   2.9348137e-04   1.6429565e-04   1.1998740e-03   7.6922693e-04   9.0883841e-04   1.1309095e-03   4.9594411e-04  -3.3217145e-04   2.7252903e-04   1.4370339e-04   1.2082174e-04   3.4190190e-05   4.8067814e-04   3.4752092e-04   4.6383150e-04   1.4588084e-04   3.6700713e-04   3.4814121e-04  -2.3439316e-05   7.3692740e-05   1.8259288e-04   1.6489282e-04   2.9828030e-04   4.3176688e-04   6.8152854e-06   7.2243204e-04   5.7159265e-04   9.2447054e-04   9.7369106e-04   4.2738358e-04   7.7537424e-04   5.8094825e-04   1.3194054e-03   7.9238083e-04
   7.8487489e-04   1.0152245e-03   1.0660029e-03   1.0025477e-03   7.0563157e-04   8.5808180e-04   7.7625981e-04   5.4306834e-04   1.0287240e-03   1.1064704e-03   7.1427569e-04   3.4765582e-04   5.8937218e-04   6.2233704e-04   4.5827957e-05   7.4800587e-04   5.6961522e-04   3.8210963e-04   1.0905410e-03   9.7309210e-04   1.1373649e-03   1.4150512e-03   6.3182740e-04  -2.3155195e-04   4.8684943e-04   3.7657059e-04   2.9013384e-04   2.2642390e-04   6.7212322e-04   5.1330868e-04   7.4546668e-04   3.0013948e-04   6.2491494e-04   6.1536924e-04   1.0943100e-04   1.4772369e-04   2.7686352e-04   2.8832347e-04   4.0412907e-04   4.8992975e-04   2.5799653e-05   8.1576360e-04   6.5661193e-04   6.1245618e-04   9.2503807e-04   6.6786591e-04   5.3833635e-04   5.1021494e-04   1.1553754e-03   9.1019215e-04
   6.4586266e-04   9.4737083e-04   8.8451803e-04   8.8956131e-04   5.9507444e-04   7.3216064e-04   6.1088253e-04   4.1540744e-04   8.0140919e-04   9.3648303e-04   5.8810163e-04   2.0659871e-04   4.8419985e-04   5.3371466e-04   8.0666177e-05   6.6286162e-04   5.1190326e-04   3.8821835e-04   9.6216676e-04   8.9681410e-04   9.8527537e-04   1.3354113e-03   4.7673957e-04   1.1577852e-04   4.3009256e-04   2.6826744e-04   1.9119422e-04   7.9647885e-05   5.1212340e-04   4.1929516e-04   3.5515623e-04   2.1340727e-04   6.9841964e-04   5.3162355e-04  -3.5506466e-05  -9.5526448e-05   1.5265036e-04   1.6277243e-04   2.5620285e-04   3.4076962e-04  -2.6418720e-04   5.0952926e-04   5.0363311e-04   7.6151069e-04   8.3980022e-04   4.6638300e-04   3.9403763e-04   5.0013111e-04   9.1663748e-04   6.9277582e-04
   3.3596315e-04   6.6354196e-04   4.3719279e-04   5.5510091e-04   3.2240018e-04   4.4837676e-04   3.8345926e-04   1.2920560e-04   5.5501459e-04   9.1877923e-04   4.1682163e-04   2.1653267e-04   4.5525440e-04   3.9506386e-04  -5.2157375e-05   6.2218111e-04   4.4517228e-04   2.7055500e-04   1.2540316e-03   8.9306862e-04   1.0748901e-03   1.1876316e-03   6.1288971e-04   1.4492431e-04   4.0276907e-04   3.4293492e-04   2.5629360e-04   2.1931725e-04   6.7078782e-04   4.8689405e-04   7.2643714e-04   3.0489030e-04   6.0415489e-04   4.8380109e-04   1.2203425e-04   2.1331613e-04   2.8666478e-04   3.1224047e-04   4.2165708e-04   5.1575532e-04   1.4973919e-04   7.1288866e-04   6.4276851e-04   1.0671981e-03   8.8012888e-04   1.0121348e-03   9.3112426e-04   5.9383345e-04   1.2674553e-03   9.0019254e-04
   7.9374207e-04   1.0770726e-03   1.1392778e-03   1.0918428e-03   8.2508614e-04   9.5740129e-04   7.5328682e-04   7.4476731e-04   1.3008213e-03   1.1533496e-03   7.3952862e-04   3.0414449e-04   6.5034366e-04   6.5212685e-04   1.0399130e-04   8.5451949e-04   6.7483942e-04   4.9519440e-04   1.3513484e-03   1.0364914e-03   1.1710279e-03   1.3630150e-03   6.6304824e-04  -5.6258155e-05   5.3946313e-04   4.0455800e-04   3.6426020e-04   2.7375159e-04   7.1836053e-04   5.7402573e-04   5.1838084e-04   3.5626581e-04   1.0268294e-03   6.2570610e-04   1.6362118e-04   2.6432157e-04   3.8290588e-04   3.2708445e-04   4.3584913e-04   5.7831465e-04   5.6440367e-05   7.8757008e-04   6.2509469e-04   7.3651312e-04   1.0276536e-03   6.9985184e-04   6.9054199e-04   5.6674139e-04   1.1686429e-03   8.6237385e-04
   6.7328499e-04   9.3287235e-04   8.7285601e-04   9.1884076e-04   6.4167625e-04   7.3123898e-04   6.3265400e-04   3.7961185e-04   6.6633854e-04   9.6277008e-04   5.8034167e-04   2.8039154e-04   5.0110207e-04   5.0056452e-04   9.5208270e-05   6.6182629e-04   5.5968907e-04   4.2441394e-04   9.2580676e-04   9.2992949e-04   9.2170556e-04   1.3140588e-03   4.8315886e-04  -1.7740221e-04   4.6853622e-04   2.6271536e-04   1.7982154e-04   1.8833519e-04   5.4145273e-04   4.2082724e-04   5.0430733e-04   3.0797147e-04   6.4320746e-04   4.6066905e-04  -4.2396910e-05  -1.0279307e-04   2.0182379e-04   1.5189475e-04   2.6009383e-04   3.2902788e-04  -2.8447801e-04   3.0086780e-04   4.2342045e-04   1.0964805e-03   9.1567653e-04   6.1462773e-04   3.7064750e-04   5.6142284e-04   8.1091846e-04   6.1336666e-04
   3.8401788e-04   7.0787757e-04   5.8783754e-04   6.7906542e-04   4.7959978e-04   6.3774205e-04   5.4342992e-04   2.9213523e-04   8.2542875e-04   1.0327775e-03   5.3789595e-04   2.8250265e-04   5.1408453e-04   5.1410164e-04   4.6540285e-05   6.9848530e-04   5.2082015e-04   3.7020753e-04   1.0802554e-03   9.6951716e-04   1.0821425e-03   1.3891073e-03   5.7185267e-04   1.8175977e-04   4.6073759e-04   3.4101613e-04   2.9399627e-04   2.2116852e-04   6.8664900e-04   5.2443781e-04   5.1662081e-04   3.5941764e-04   9.5108576e-04   3.7748675e-04   1.1108716e-04   2.2542597e-04   3.3896373e-04   3.2760395e-04   4.7534495e-04   5.7747454e-04   1.2624630e-04   7.2347897e-04   5.8798265e-04   1.3012382e-03   1.0025060e-03   7.3792657e-04   6.2280335e-04   5.7732797e-04   1.1641282e-03   8.2154950e-04
   7.9621718e-04   1.0211942e-03   1.0460265e-03   1.0474700e-03   7.6688640e-04   8.6621131e-04   7.3950336e-04   5.7818164e-04   7.9404184e-04   1.1104036e-03   6.9002114e-04   3.7750605e-04   6.1034301e-04   6.7055877e-04   8.5658365e-05   8.2742062e-04   6.1810779e-04   5.4547237e-04   1.1484191e-03   1.0137158e-03   1.0645165e-03   1.4797761e-03   5.8206025e-04   3.4190761e-04   4.2755090e-04   3.2635889e-04   3.0082016e-04   2.6329607e-04   7.4086984e-04   5.5373023e-04   4.7818935e-04   3.3262858e-04   8.5444789e-04   4.9483747e-04   1.0732560e-04   1.4169444e-04   4.0075506e-04   3.1281033e-04   4.3845238e-04   5.5100583e-04  -1.2951064e-05   6.3699484e-04   5.6718756e-04   9.2654087e-04   1.1150354e-03   8.8073389e-04   6.5596210e-04   5.4103089e-04   1.1593339e-03   7.1852724e-04
   5.9077126e-04   8.4663811e-04   7.6516677e-04   8.3325966e-04   5.3179980e-04   7.0622057e-04   5.9177994e-04   4.2029662e-04   6.8592880e-04   8.9797698e-04   4.9344904e-04   1.6396967e-04   4.0884293e-04   4.4898962e-04   6.4120817e-05   6.2324625e-04   4.8844051e-04   3.5253903e-04   8.9447561e-04   8.0199837e-04   8.3930045e-04   1.3154121e-03   3.8941854e-04   2.5879825e-04   3.4436799e-04   1.8710707e-04   1.3447653e-04   1.5896949e-04   5.4962619e-04   4.3231301e-04   3.8340752e-04   1.7082368e-04   7.7155413e-04   3.6032792e-04  -4.8560749e-05  -1.3602681e-04   2.1709809e-04   1.4120659e-04   2.6825006e-04   3.1958474e-04  -2.7429796e-04   3.0982014e-04   4.1275649e-04   6.2715833e-04   9.7650994e-04   7.1656716e-04   5.5626302e-04   4.4449061e-04   1.0283077e-03   6.8113062e-04
   6.4475735e-04   9.1229629e-04   9.7317854e-04   9.6062757e-04   7.0895813e-04   8.5911626e-04   7.5156783e-04   6.4120878e-04   6.8573118e-04   1.0913571e-03   6.5910304e-04   3.2220731e-04   5.3842244e-04   5.8208971e-04   5.1696908e-05   8.0424285e-04   5.7135860e-04   4.7834142e-04   1.3847158e-03   1.0047037e-03   1.1026567e-03   1.4381680e-03   4.7875315e-04   3.4693710e-04   4.4567024e-04   3.2681474e-04   3.1497251e-04   2.6395096e-04   6.9064350e-04   5.7982618e-04   5.4346386e-04   2.9051342e-04   1.1036417e-03   6.3795724e-04   1.4091366e-04   2.4128742e-04   3.5026265e-04   3.3622838e-04   4.8135914e-04   5.7947007e-04   7.8339974e-05   5.8694155e-04   4.8966560e-04   1.0036137e-03   1.0424507e-03   7.9415279e-04   7.6086854e-04   5.4308050e-04   1.1010215e-03   8.0213160e-04
   7.1097456e-04   9.7364635e-04   9.8335557e-04   9.8331820e-04   7.3590956e-04   8.4545091e-04   7.4657629e-04   6.4694264e-04   7.0599106e-04   1.0119928e-03   6.2773889e-04   3.0605821e-04   5.2265712e-04   5.6352193e-04   4.8953119e-05   7.7028852e-04   5.7084474e-04   4.6097251e-04   1.1184715e-03   9.1099850e-04   9.7100326e-04   1.3310575e-03   4.9186370e-04  -2.0088710e-05   3.4626579e-04   2.5207439e-04   2.2580339e-04   1.7747676e-04   7.0273870e-04   5.3098984e-04   6.7048176e-04   2.4329301e-04   8.2726590e-04   4.7663559e-04   8.0712678e-05   1.7416931e-05   3.4055411e-04   2.7324501e-04   3.9543858e-04   5.2088773e-04  -1.1877414e-04   2.8741572e-04   4.2509910e-04   4.3939170e-04   1.0800539e-03   5.6056504e-04   4.8315336e-04   3.4334196e-04   1.0033374e-03   6.8344793e-04
   4.1334276e-04   7.4729131e-04   5.3386687e-04   6.7783752e-04   4.3272908e-04   5.0919241e-04   4.4408598e-04   2.6346289e-04   6.1888970e-04   7.9723919e-04   3.4067602e-04   1.2247537e-04   2.8800088e-04   3.3479143e-04  -3.6576235e-05   5.1319797e-04   3.7854645e-04   2.4766027e-04   4.5723855e-04   6.7286991e-04   7.4536656e-04   1.2057035e-03   2.9157309e-04  -1.3835441e-04   2.5908655e-04   9.4857249e-05   2.5464322e-05  -5.8515388e-06   4.7705235e-04   3.5201688e-04   4.2074881e-04   1.2476211e-04   6.4332975e-04   2.7333159e-04  -1.1481267e-04  -1.0027579e-04   1.4833473e-04   1.0405423e-04   2.4014100e-04   3.6787833e-04  -1.2236802e-04   3.2517384e-04   3.3994921e-04   1.0456380e-03   9.3865505e-04   5.7262124e-04   3.8296805e-04   3.1422320e-04   1.0339402e-03   6.9926918e-04
   6.6096935e-04   9.3937601e-04   9.4718311e-04   9.3966641e-04   7.2172325e-04   8.6434319e-04   7.6238596e-04   6.3950365e-04   7.4886624e-04   1.1458546e-03   6.6512986e-04   3.5844144e-04   5.3581165e-04   6.1628624e-04   1.5669957e-05   8.0673461e-04   5.3259358e-04   4.0637553e-04   9.1219280e-04   8.9324138e-04   1.1202758e-03   1.4034236e-03   5.5914116e-04   2.9408783e-04   4.3906891e-04   3.2907678e-04   3.1500112e-04   2.7201875e-04   6.1044731e-04   5.8103330e-04   6.4050825e-04   3.5762647e-04   9.3082292e-04   6.9413509e-04   1.4814831e-04   2.7444607e-04   4.0834211e-04   3.2907611e-04   5.2024587e-04   6.3887803e-04   1.0149965e-04   5.5349461e-04   4.7887053e-04   9.3094981e-04   1.0856311e-03   5.6312443e-04   7.4743840e-04   4.1396299e-04   1.0342905e-03   7.3254213e-04
   6.9878565e-04   9.8404428e-04   9.0744707e-04   9.5887861e-04   6.8510935e-04   8.4593613e-04   7.3330803e-04   5.2659202e-04   1.0218539e-03   1.0493426e-03   6.0342340e-04   3.0152505e-04   4.8816050e-04   5.4346240e-04   2.9930610e-05   7.4087497e-04   5.0649891e-04   4.3706159e-04   4.7728390e-04   8.5330202e-04   9.5050753e-04   1.3599406e-03   4.1504955e-04  -6.4906759e-05   3.3146612e-04   3.1375227e-04   2.9813254e-04   2.2751826e-04   6.6293776e-04   5.3184829e-04   5.2044541e-04   2.9317365e-04   8.5951027e-04   6.2404119e-04   4.6596841e-05   7.7847471e-05   3.5845919e-04   2.5486579e-04   3.9552481e-04   4.9490278e-04  -1.6253316e-04   2.8367824e-04   3.4119777e-04   1.1137679e-03   9.0055185e-04   4.3893867e-04   3.0176778e-04   2.7719175e-04   8.7381998e-04   5.7030603e-04
   3.8725755e-04   7.1714213e-04   3.9503200e-04   5.7938515e-04   3.3029451e-04   4.8861274e-04   3.8846908e-04   2.1514104e-04   6.8793318e-04   7.9296011e-04   3.3271936e-04   1.5054527e-04   2.4576718e-04   2.7797604e-04  -5.3581633e-05   4.8070998e-04   2.9694772e-04   2.7241578e-04   8.8477891e-04   6.6525233e-04   7.1877008e-04   1.0956266e-03   2.1242077e-04   4.4542390e-05   2.0579886e-04   9.8387660e-05   1.4844180e-05   7.4019968e-05   4.1590826e-04   3.4805556e-04   1.2366664e-04   1.5976331e-04   6.4641581e-04   3.3050723e-04  -1.9042222e-04  -2.3297161e-04   1.5337594e-04   5.2614763e-05   2.2929523e-04   2.9155085e-04  -1.7630274e-04   8.4394553e-05   2.2230698e-04   7.7592779e-04   1.1602169e-03   8.1631780e-04   6.1295880e-04   2.4410681e-04   9.4953889e-04   5.9458060e-04
   6.1827281e-04   9.2869636e-04   8.4156857e-04   8.7064021e-04   6.9017947e-04   8.7086821e-04   7.0655131e-04   6.3522253e-04   9.9599559e-04   1.1627220e-03   6.2808779e-04   3.7704178e-04   5.0027308e-04   5.7634816e-04   1.8874739e-06   7.5879321e-04   4.4813694e-04   3.9178552e-04   1.2784839e-03   8.5415656e-04   1.0467018e-03   1.3931649e-03   5.1807601e-04   3.4002014e-04   2.9916986e-04   3.4436377e-04   3.6685891e-04   2.2865686e-04   6.9915899e-04   5.9572578e-04   5.0756161e-04   2.0696945e-04   6.6969683e-04   5.9497077e-04   1.4493878e-04   2.1164147e-04   4.4309796e-04   3.2899817e-04   5.2936090e-04   6.0182245e-04   5.3561605e-05   5.5093603e-04   3.9305954e-04   7.6822739e-04   1.1316084e-03   8.4412500e-04   6.5994158e-04   3.1713492e-04   9.4584073e-04   6.2088523e-04
   6.7553122e-04   9.8721602e-04   8.3629787e-04   8.8286685e-04   6.6028297e-04   8.4490527e-04   6.5154501e-04   5.7280698e-04   8.4685482e-04   1.0831682e-03   6.0176622e-04   3.6063979e-04   4.8966875e-04   5.1703089e-04   3.2948526e-06   6.9355691e-04   4.5892014e-04   3.7355555e-04   1.0145389e-03   8.6284743e-04   9.2374382e-04   1.3582291e-03   4.4448540e-04  -2.9219256e-04   3.5748541e-04   2.8645922e-04   1.9254207e-04   1.4935339e-04   5.7820254e-04   5.1095436e-04   4.4070516e-04   2.1694880e-04   6.0389569e-04   3.6513113e-04   2.6165917e-05   5.7247093e-05   3.6340312e-04   2.2102916e-04   3.7556715e-04   5.2936678e-04  -1.8323536e-04   3.8941222e-04   3.3035933e-04   6.7632529e-04   8.7610882e-04   6.0074299e-04   4.2949760e-04   2.9085329e-04   5.9875473e-04   4.9572258e-04
   3.3821890e-04   7.3709752e-04   3.1655771e-04   5.1953649e-04   3.2304888e-04   4.7724778e-04   3.3675763e-04   2.9519090e-04   7.6285738e-04   8.1758731e-04   3.2207483e-04   1.2440553e-04   2.1758935e-04   2.6403289e-04  -1.0132005e-04   4.5442599e-04   2.3269141e-04   1.2826262e-04   8.9925760e-04   5.7369389e-04   7.0699467e-04   1.2360668e-03   2.2210270e-04   2.1222132e-04   2.0380963e-04   6.0775070e-05   1.0740658e-05   4.0342155e-05   3.7320185e-04   3.1386089e-04   2.5273536e-04   5.1753676e-05   6.3198013e-04   3.3313752e-04  -2.1587306e-04  -2.5294095e-04   9.3742092e-05   8.5202209e-06   1.8101964e-04   2.3545364e-04  -3.6258964e-04   1.4316513e-04   1.8829660e-04   8.7657158e-04   1.0997612e-03   4.9740967e-04   4.2150682e-04   2.1361695e-04   6.6016521e-04   4.8555012e-04
   5.1248341e-04   8.5846713e-04   6.9844996e-04   6.9763290e-04   5.4551422e-04   7.6579419e-04   5.3892564e-04   4.7980194e-04   9.4198307e-04   1.1405936e-03   5.8122462e-04   4.3661456e-04   4.1947656e-04   4.5930524e-04  -4.8520869e-05   6.4700050e-04   3.2654151e-04   2.8913651e-04   9.8799414e-04   8.0941577e-04   9.6065935e-04   1.4304805e-03   5.0479214e-04   4.5585388e-04   3.1005300e-04   2.9561328e-04   2.7121059e-04   2.1520129e-04   5.4555584e-04   5.3520012e-04   4.9350521e-04   1.4436620e-04   7.7695516e-04   5.9184217e-04   2.9236217e-05   1.4551751e-04   4.1552196e-04   2.4217577e-04   4.3409003e-04   5.3474179e-04  -2.9142835e-05   3.6871518e-04   3.5092619e-04   1.1413482e-03   9.4412180e-04   7.0436177e-04   5.6608487e-04   3.7304955e-04   8.1612077e-04   5.2391033e-04
   5.7801703e-04   9.2758698e-04   6.9959112e-04   7.5420021e-04   5.1459053e-04   7.6046592e-04   4.9980613e-04   4.7141779e-04   6.4930681e-04   1.0829043e-03   5.6672358e-04   3.0070887e-04   4.0999390e-04   4.4538893e-04  -2.5062736e-05   5.9189653e-04   3.2790654e-04   2.6204227e-04   9.2078169e-04   7.6936558e-04   9.0026145e-04   1.4098028e-03   4.2466505e-04   2.0018402e-04   2.5398430e-04   2.5288481e-04   1.6541239e-04   1.8297328e-04   5.3722598e-04   4.4959158e-04   5.5501703e-04   1.3149345e-04   8.4139226e-04   3.0627873e-04  -7.1477742e-05  -3.8774881e-05   3.0732120e-04   1.2770011e-04   3.2850759e-04   3.9175435e-04  -2.7907477e-04   1.5281652e-04   2.3863414e-04   7.7317737e-04   9.8387280e-04   3.8210105e-04   4.2633916e-04   2.6813778e-04   5.1139266e-04   4.2881264e-04
   2.4402956e-04   6.6073256e-04   2.5340798e-04   3.9410219e-04   2.0811208e-04   3.8516973e-04   2.2405671e-04   1.8767676e-04   5.6962919e-04   8.4117340e-04   2.8400420e-04   6.8695474e-05   1.5828959e-04   2.1317910e-04  -1.2510362e-04   3.3072964e-04   1.3825731e-04   1.2190454e-04   3.7902818e-04   5.3850265e-04   6.2880729e-04   1.1859565e-03   2.1065456e-04  -3.0538224e-04   1.5403067e-04   1.2315187e-04  -7.4805474e-05  -6.1810795e-05   2.5982433e-04   2.7076583e-04   1.5828686e-04  -9.9922836e-06   6.5618707e-04   2.4907273e-04  -3.0249584e-04  -2.7540696e-04   9.4043673e-05  -9.9722165e-05   1.1786399e-04   1.4749802e-04  -6.4330379e-04  -2.2468442e-04   4.3255874e-05   3.0731448e-04   6.1907759e-04   4.5572972e-04   2.6795079e-04   1.9320031e-04   4.6458785e-04   2.7786253e-04
   2.8042871e-04   6.8090903e-04   3.8755359e-04   4.6073896e-04   3.5833285e-04   5.6120864e-04   2.7153955e-04   2.7156711e-04   7.0177397e-04   1.0522892e-03   4.3126638e-04   2.3732077e-04   2.6091054e-04   3.1984563e-04  -1.5811872e-04   4.7715660e-04   1.7380703e-04   1.1739929e-04   8.7995827e-04   6.4339844e-04   7.8561564e-04   1.2329073e-03   4.3068585e-04   3.1014028e-04   1.9136102e-04   2.2797933e-04   1.6392507e-04   8.4487918e-05   4.7593322e-04   4.1057510e-04   1.7446336e-04   1.3337258e-04   6.7544967e-04   3.9601370e-04  -9.8599477e-05  -3.8952472e-05   3.1305928e-04   1.2769531e-04   3.5251048e-04   4.3846856e-04  -2.2910874e-04   1.3078700e-04   2.2772053e-04   1.0991680e-03   7.5641967e-04   3.3188972e-04   4.8494915e-04   2.2265851e-04   4.9544917e-04   4.4405932e-04
   4.0160146e-04   7.9617475e-04   4.9795303e-04   5.5969041e-04   3.7798754e-04   5.9008534e-04   3.5159607e-04   3.9561448e-04   7.9894514e-04   1.0368848e-03   4.5357153e-04   2.4451694e-04   2.8435825e-04   3.6024681e-04  -9.6348645e-05   4.7096660e-04   2.1386873e-04   1.2840725e-04   5.8024260e-04   6.1587984e-04   8.0037036e-04   1.2103014e-03   3.4377613e-04  -9.8383847e-05   8.9030647e-05   2.0189983e-04   7.4474017e-05   8.1479666e-05   3.7108184e-04   3.7562530e-04   3.3994159e-04   1.3120785e-04   4.7727398e-04   3.7296535e-04  -1.8562011e-04  -1.0688386e-04   2.0853362e-04   6.2362749e-05   2.6358847e-04   3.7102652e-04  -3.8776229e-04   7.1987124e-05   1.7801204e-04   9.6328551e-04   8.0114650e-04   2.6312933e-04   2.4124615e-04   1.1552213e-04   2.7114415e-04   2.5464961e-04
   1.2818949e-04   6.0301024e-04   9.3833827e-05   2.5310292e-04   1.1151182e-04   3.1601125e-04   8.8809415e-05   1.1104652e-04   4.4384357e-04   7.9818384e-04   1.8957372e-04   4.9439881e-05   4.0251074e-05   9.9501376e-05  -1.9906477e-04   2.3201798e-04   2.5117186e-05  -5.5919671e-05   8.6414465e-04   4.1332192e-04   5.1885832e-04   1.0965487e-03   1.5547014e-04  -2.6713160e-04   1.2674199e-04   3.5699686e-05  -1.2636361e-04  -9.4703282e-05   2.0567715e-04   2.0615548e-04   2.3607892e-04   3.4629153e-05   3.5302062e-04   1.0104572e-04  -4.2800512e-04  -3.8410808e-04  -1.4166097e-05  -1.4678430e-04   1.1474727e-05  -5.9133927e-06  -6.3800486e-04  -1.4526473e-04   5.1083778e-05   3.2732822e-04   8.5588027e-04   4.0132210e-05   1.7661299e-04   2.8626318e-04   4.7771996e-04   4.2445376e-04
   2.7111045e-04   4.9676705e-04   3.5516566e-04   2.5749172e-04   1.9281064e-04   3.2566584e-04   1.3689186e-04   1.8554254e-04   8.2159060e-04   8.4533222e-04   4.4371007e-04   8.2681276e-05   2.9728876e-04   5.0525065e-05  -8.7534618e-06   3.0287038e-04   7.1228164e-06   1.0851221e-04   5.9252221e-04   5.8299769e-04   5.7976693e-04   9.0692431e-04   4.4945438e-04   1.1019629e-04   3.8483739e-04   2.6665904e-04   1.2712319e-04  -1.9628684e-05   5.4216909e-04   4.3017790e-04   2.5779006e-04   3.5411576e-05   4.9284165e-04   2.7341262e-04  -1.8079212e-04   6.8710338e-05   1.8118287e-04   1.6392415e-04   2.7479551e-04   1.8415440e-04  -3.3433994e-04   2.8156026e-04   2.3611612e-04   9.8635186e-04   7.7811157e-04   4.1940276e-04   2.3753975e-04  -2.4787456e-04   5.6241761e-04   5.0564302e-04
   8.0601414e-05   4.3369524e-04   2.3643444e-04   1.6768635e-04   4.9924220e-06   2.4949398e-04   2.8654897e-05   7.3521085e-05   4.3209590e-04   7.8178575e-04   3.3318516e-04   1.5406700e-05   2.6061217e-04   3.7441299e-05   5.0097475e-05   2.8034716e-04  -1.0766968e-05   1.4148430e-04   6.6593400e-04   5.0485146e-04   5.3642358e-04   1.1458009e-03   3.1075763e-04   2.3202289e-05   3.9326088e-04   2.0442416e-04  -1.2972311e-06  -1.1969433e-04   4.1736491e-04   3.5244031e-04   7.0954673e-05  -4.2737553e-05   4.3007938e-04   2.6021290e-04  -2.9006513e-04  -1.2694290e-04   1.1351018e-04   4.7992718e-05   1.6632467e-04   1.2112045e-04  -5.4220157e-04   1.2483477e-04   1.3836498e-04   8.1027503e-04   5.1059469e-04   2.8124446e-04   3.0088617e-04  -4.2549681e-04   4.8171656e-04   3.8847193e-04
  -2.6906549e-04   1.1028835e-04  -2.7910556e-04  -2.0144574e-04  -2.5985704e-04  -9.4530653e-05  -2.4648861e-04  -1.8616414e-04   4.2480053e-04   5.0990988e-04   4.2409738e-05  -1.4355569e-04   2.2797607e-05  -1.5414017e-04  -2.4841856e-05   5.5096483e-05  -2.0070744e-04  -3.3956381e-05   3.4054241e-04   2.5999275e-04   2.9613334e-04   9.0912945e-04   1.1924787e-04  -3.7984384e-04   1.5474405e-04   3.4878689e-05  -2.1691718e-04  -2.5730944e-04   1.8496740e-04   1.9771606e-04   2.2731774e-05  -9.7892094e-05   2.6215415e-04   1.2989220e-04  -4.5372223e-04  -2.8024119e-04  -5.0427672e-05  -8.9787012e-05   2.8990844e-05  -9.9318502e-05  -4.7682441e-04   2.0947278e-04   8.5484360e-05   5.6871347e-04   5.4937956e-04   3.4442425e-04   2.9032349e-04  -3.5869499e-04   5.1419670e-04   4.4093322e-04
   4.9928472e-05   3.3576877e-04   1.8554846e-04   9.7771452e-05   4.5573808e-05   3.1345504e-04  -2.6980919e-05   1.5310790e-04   5.0730957e-04   9.0407539e-04   3.8699238e-04  -7.5899328e-07   4.0128388e-04   2.9990035e-05   1.4371426e-04   4.0364047e-04   3.2074928e-05   8.0954283e-05   5.1421847e-04   5.6604284e-04   5.7458243e-04   1.0510313e-03   4.2605962e-04   2.6110461e-04   5.8180880e-04   2.4095963e-04  -1.4675985e-06   8.1359849e-06   4.4093208e-04   2.7436597e-04   2.1511667e-04   1.0321887e-06   5.9649418e-04   4.5054647e-04  -3.6499568e-04   7.6959368e-05   1.5673827e-04   2.4634757e-04   3.9241373e-04   1.7007919e-04  -3.5452226e-04   4.2184023e-04   2.0086435e-04   9.3879271e-04   5.8016198e-04   5.1156362e-04   5.9640786e-04  -4.5115341e-04   3.1436561e-04   6.0291513e-04
   1.9067794e-04   3.9690625e-04   1.2472337e-04   5.3853055e-05   9.0863527e-05   5.1113655e-04  -4.4833039e-05   3.0015974e-05   6.8151404e-04   1.0972368e-03   4.6667404e-04  -1.1928830e-04   5.7425961e-04   6.6434543e-05   5.9757894e-04   4.7648710e-04   3.0249800e-04  -4.6014004e-05   3.0948195e-04   1.0319613e-03   3.8761826e-04   1.0104171e-03   2.6196192e-04  -4.9720460e-04   8.8060112e-04   9.8748067e-05  -2.4817514e-04  -9.5454103e-05   1.1520132e-04  -7.3947449e-05   9.0474445e-05  -8.0236467e-05   6.5338978e-04   1.5234489e-04  -6.5143383e-04  -8.7428532e-05   7.5109252e-05   1.2061648e-04   2.9260461e-04   4.4196589e-05  -6.0607953e-04   2.8514740e-04   1.2536003e-04   8.3939731e-04   7.0716674e-04   6.4014702e-04   4.1066486e-04  -7.5615803e-04   2.2148624e-05   6.2010129e-04
  -2.2819551e-04   1.0312296e-04  -5.4394727e-04  -4.6626653e-04  -2.5294302e-04   8.3705701e-05  -4.3504412e-04  -3.7276829e-04   4.9984280e-04   9.1385987e-04   9.1049784e-05  -2.1920590e-04   1.0418642e-04  -2.6026135e-04   1.8811812e-04  -4.7988731e-05  -1.7365897e-05  -2.5934257e-04   4.5686468e-04   5.3165609e-04   2.4461097e-04   9.3552243e-04  -6.0652284e-05  -1.8643119e-04   3.2463265e-04  -3.6256810e-05  -4.7937938e-04  -2.7369370e-04  -1.8339248e-04  -2.2805223e-04  -3.5151450e-05  -3.1116113e-04   3.2584911e-04  -7.2533192e-05  -6.4038677e-04  -1.6054965e-04   1.3387705e-05  -4.4921624e-05   1.4249761e-04  -4.5805460e-05  -4.5018236e-04   3.9728780e-04   1.1369370e-04   7.8335661e-04   7.0723495e-04   2.9469671e-04   5.2782032e-04   1.9489277e-04   2.9383626e-04   4.8454021e-04
   2.4722164e-04   4.6880831e-04   1.8336870e-04   3.7716138e-05   1.9652219e-04   5.1418901e-04  -4.3951633e-05   1.0062350e-04   6.4413116e-04   1.2511478e-03   4.4549571e-04   1.6938082e-04   4.3946083e-04   1.0744244e-04   8.4010811e-05   2.1952747e-04   2.0407699e-04  -5.5453362e-05   2.6606504e-04   7.4029615e-04   6.7559571e-04   1.1017160e-03   3.0621371e-04   2.8758339e-04   4.0343052e-04   2.1556341e-04  -1.6931331e-04  -7.2826879e-05   8.6957654e-05   3.1638010e-05   1.3326375e-04  -4.1055642e-05   5.9248926e-04   6.7232097e-05  -4.0186831e-04   7.4284391e-05   1.8737713e-04   1.0929404e-04   3.2105244e-04   1.8236844e-04  -3.1800265e-04   4.8517762e-04   1.8262964e-04   6.6832546e-04   7.5592741e-04   3.2125047e-04   4.8981409e-04   1.6376202e-04   3.1983419e-04   5.0950720e-04
   2.1112111e-04   5.2179734e-04   8.1068858e-05   3.8279588e-05   9.3709023e-05   4.4220412e-04  -5.6810324e-05  -5.1613365e-06   3.2042991e-04   1.2270864e-03   3.9342657e-04   1.8064411e-04   3.4139591e-04   1.6077234e-04   7.5281809e-05   1.9439118e-04   2.0911921e-04  -9.7535667e-06   5.0405716e-04   7.2753639e-04   7.1458705e-04   1.0638245e-03   2.4419551e-04   2.3824543e-04   3.5338549e-04   1.3397950e-04  -2.7097395e-04  -1.1491325e-04  -2.7187820e-05  -4.6077130e-05   5.4341781e-05  -1.4995795e-04   4.9001415e-04   8.4391839e-05  -4.4149740e-04  -2.3446127e-04   9.2764509e-05  -1.5512360e-05   1.7464328e-04   9.6289528e-05  -6.2329590e-04   1.8247619e-04   3.7496193e-05   4.0428963e-04   6.9929863e-04   1.5596805e-04   3.0950690e-04   2.1683781e-04   3.8962393e-05   3.0164723e-04
  -5.8015554e-05   2.9030963e-04  -3.8245312e-04  -2.4007527e-04  -1.8919091e-04   1.2344756e-04  -3.0826399e-04  -2.2704685e-04   5.1951024e-04   9.9646207e-04   9.9452882e-05  -6.0091399e-05   1.4044832e-04  -5.0305614e-05  -4.9802828e-05  -3.3515637e-06   8.4787032e-05  -2.3288690e-04   9.8089734e-04   6.3230266e-04   6.8330037e-04   1.1662469e-03   1.9404633e-04   1.1079475e-04   2.2017532e-04   1.0146260e-04  -1.8813257e-04  -7.9204248e-05  -7.5898846e-05  -4.9848582e-05   1.3516328e-04  -2.7008387e-04   5.3172803e-04  -5.9341824e-06  -4.2038845e-04  -8.6128828e-05   1.3966457e-04   2.2298549e-05   2.4596645e-04   1.5457139e-04  -3.5888556e-04   4.2154480e-04   1.2894231e-04   8.4981584e-04   5.4885400e-04   1.2377636e-04   4.9305084e-04   1.7377906e-04   4.9054041e-04   4.2271111e-04
   3.6697151e-04   6.5039482e-04   3.3585489e-04   2.6857693e-04   2.3500464e-04   5.4543430e-04   5.8092293e-05   2.0130473e-04   8.2080410e-04   1.2347593e-03   4.9148395e-04   1.8837965e-04   4.2937539e-04   2.5166245e-04   1.0773999e-04   2.5484472e-04   2.8752783e-04   9.7746502e-05   1.1374883e-03   9.3387469e-04   8.1612280e-04   1.3203019e-03   4.2192425e-04   2.5605896e-04   5.6486367e-04   2.5202765e-04  -6.2936997e-05   1.1157466e-06   1.9124239e-04   7.3809213e-05   1.6385448e-04  -4.9732273e-05   4.4476634e-04   1.9163670e-04  -3.8764623e-04  -4.5728269e-05   2.1158624e-04   2.3281817e-04   3.2874709e-04   8.0812169e-05  -3.8469283e-04   5.6076818e-04   2.2089235e-04   1.1216246e-03   7.3452422e-04   3.9343111e-04   4.7831156e-04  -3.3495136e-04   4.0529878e-04   6.8810047e-04
   2.6374348e-04   4.4920691e-04   1.5460937e-04   5.4100426e-05   9.1504939e-05   5.0442730e-04  -3.4641689e-05   4.0918185e-05   9.1053813e-04   1.1291903e-03   4.7692453e-04  -1.1195036e-04   6.0160103e-04   1.4086995e-04   6.3256634e-04   4.7115577e-04   3.9954172e-04  -4.0632025e-05   4.3809591e-04   1.3044146e-03   6.0275162e-04   1.3716655e-03   3.4183011e-04   4.5057757e-05   1.1685573e-03   1.7963535e-04  -2.6244536e-04  -6.2595413e-05  -4.4451313e-05  -2.8567360e-04   4.8215772e-04  -1.5924322e-04   8.9621497e-04  -2.9989242e-06  -7.5791008e-04  -2.6295584e-04   4.0189585e-05   1.1283255e-04   1.6776277e-04  -1.0447460e-04  -8.1920158e-04   2.8704779e-04  -2.5537374e-05   4.6482292e-04   6.0509762e-04   4.2911744e-04   4.5490800e-04  -6.3400780e-04   2.6235424e-05   5.5339362e-04
  -2.0928663e-04   1.4424400e-04  -5.8587553e-04  -3.9542583e-04  -2.4097571e-04   1.8001394e-04  -3.1389541e-04  -3.2541697e-04   5.3283037e-04   1.3100649e-03   1.9391713e-04  -6.2599916e-05   4.3213443e-04  -5.2001316e-05   2.9733774e-04   3.0827813e-04   3.4570880e-04  -2.4459889e-04   5.4680434e-04   1.2087469e-03   6.5643893e-04   1.5520155e-03   2.3242166e-04   4.0114357e-04   7.3526870e-04   1.1248131e-04  -3.3393706e-04  -7.6002216e-05  -8.7346460e-05  -2.9826222e-04   2.7586005e-04  -3.2849491e-04   9.2880643e-04   5.3788139e-05  -5.7815609e-04   8.4841240e-06   9.0917449e-05   9.6822914e-05   2.5040269e-04   1.0184413e-04  -4.5006783e-04   6.1500008e-04   1.0663574e-04   8.9556072e-04   8.1413833e-04   6.5395207e-04   6.0145161e-04   2.5980087e-04   2.1376106e-04   5.8420113e-04
   2.5880462e-04   5.3638330e-04   8.2162951e-05  -2.1415755e-05   1.8598516e-04   5.5601087e-04  -3.5830937e-05   4.5532564e-05   5.4389791e-04   1.4001341e-03   4.0713820e-04   1.9303577e-04   4.9938622e-04   2.0072961e-04   2.4383463e-04   2.9821155e-04   3.7016737e-04  -1.3323219e-06   4.5338963e-04   1.1814329e-03   7.6876325e-04   1.3748099e-03   2.9554777e-04   2.6768344e-04   5.3145713e-04   2.1351669e-04  -2.8945945e-04  -9.6363183e-05   1.2097704e-05  -2.1659095e-04   1.8068403e-04  -1.0369373e-04   7.7531021e-04   5.4177584e-05  -5.1187683e-04  -1.0671515e-04   1.1612172e-04   7.6045981e-05   2.2948961e-04   1.0910229e-04  -5.2659621e-04   3.5214290e-04   1.4562077e-04   6.8604329e-04   7.2133821e-04   5.2545301e-04   4.9071718e-04   2.2313315e-04   2.4761033e-04   5.7102053e-04
   1.5897006e-04   4.3090785e-04  -1.7339704e-04  -1.6531025e-04  -2.3586948e-05   3.1977982e-04  -1.8489009e-04  -1.3167705e-04   6.2262954e-04   1.2000875e-03   2.4628479e-04   7.7623423e-05   3.6578075e-04   5.7180117e-05   1.4540637e-04   1.3705016e-04   2.9038556e-04   1.0191595e-05   4.7203581e-04   9.5855969e-04   5.6275149e-04   1.4046035e-03   6.8461777e-05   2.7888638e-04   4.4936637e-04   8.1400765e-05  -4.2074334e-04  -2.2136250e-04  -1.6421742e-04  -2.9746981e-04   2.3172649e-04  -2.3290241e-04   7.1292266e-04  -6.8106056e-05  -6.2828191e-04  -3.4446799e-04  -2.5749374e-05  -1.2943278e-04   2.8878310e-05  -1.3393983e-04  -8.3718786e-04   1.7782176e-04  -5.2605876e-05   6.5874914e-04   3.5035645e-04   2.6150394e-04   1.9243000e-04   2.4064559e-04   1.2516115e-04   3.1322896e-04
  -8.1553524e-05   2.6057224e-04  -2.9071144e-04  -2.6528098e-04  -1.4768418e-05   2.8724133e-04  -2.0122019e-04  -1.3099328e-04   5.4438767e-04   1.2898565e-03   2.9026973e-04   1.2812219e-04   4.2291131e-04   1.1793130e-04   1.0819077e-04   1.9076622e-04   2.6993550e-04  -7.5312571e-05   7.6515588e-04   9.9030614e-04   7.1360928e-04   1.2993838e-03   2.1619174e-04   4.9631426e-04   4.7309077e-04   1.3788528e-04  -2.8109821e-04  -1.2896051e-04  -5.5672812e-05  -1.8100656e-04   3.1895321e-04  -1.6299983e-04   5.0397415e-04   1.0227702e-04  -4.5005328e-04  -6.0136856e-05   1.0363683e-04   2.5618101e-05   2.0356511e-04   7.0075512e-05  -4.5262711e-04   5.1447854e-04   1.3059413e-04   1.0240690e-03   6.9267856e-04   3.3649779e-04   3.5330933e-04   1.3279208e-04   2.7444409e-04   5.2940962e-04
   2.0875689e-04   5.2197819e-04   3.2578209e-05  -1.2995027e-06   1.2084984e-05   4.2203741e-04  -1.1445753e-05  -1.7349903e-05   6.3948723e-04   1.2585307e-03   3.3401942e-04   1.6293333e-04   4.1082688e-04   1.7975879e-04   8.1980630e-05   2.4292291e-04   3.2501679e-04   1.2250897e-05   6.2947511e-04   9.7052526e-04   7.1325724e-04   1.3566744e-03   1.7716778e-04   1.4485000e-05   3.7983665e-04   1.7751858e-04  -2.7487078e-04  -1.4483109e-04  -2.4801717e-05  -1.4430827e-04   2.2174689e-04  -1.1920807e-04   6.3310214e-04  -1.6128915e-04  -3.9366729e-04  -8.7786822e-05   8.2818857e-05  -1.1533631e-05   1.8984987e-04   4.5250734e-05  -5.6523230e-04   4.4181212e-04   5.0943723e-05   5.4340385e-04   9.4993238e-04   3.9566937e-04   3.9144728e-04  -7.2593793e-05   3.1523377e-04   4.0062162e-04
  -6.8654692e-05   3.4858723e-04  -3.4040146e-04  -2.3187406e-04  -1.0823503e-04   1.3159279e-04  -2.4994885e-04  -1.5632110e-04   2.5535637e-04   1.0136103e-03   8.2331389e-05   5.3073520e-05   1.8672671e-04   2.3621393e-05  -7.5407712e-05   3.2165470e-05   1.7184622e-04  -1.0255980e-04   6.7947770e-04   7.9011254e-04   4.7778495e-04   1.1714076e-03   3.4467881e-05  -1.8612658e-04   2.0662091e-04   3.1780037e-05  -4.8918830e-04  -3.2037197e-04  -2.8220998e-04  -3.0355033e-04   7.2390911e-05  -2.4289062e-04   3.8934094e-04  -1.8910028e-04  -6.0850685e-04  -3.6789317e-04  -1.1846436e-04  -2.1448336e-04  -1.6454620e-05  -1.4121257e-04  -8.3730824e-04   1.3928932e-04  -1.3700145e-04   6.0240889e-04   7.4202585e-04   2.0993927e-04   2.0464836e-04   2.1885191e-05   2.3502619e-04   3.1275948e-04
   3.6992242e-05   4.3296342e-04  -1.6607785e-04  -1.0074282e-04   3.8240993e-05   3.2078725e-04  -1.1158333e-04  -6.4411150e-05   3.6438042e-04   1.2069724e-03   2.1497207e-04   2.0268082e-04   3.1318443e-04   1.4092294e-04  -9.9026081e-05   1.4573039e-04   2.4117433e-04  -7.6692471e-05   8.7068317e-04   8.8163052e-04   7.4454892e-04   1.3241895e-03   1.4674813e-04   5.2235584e-04   1.9114379e-04   1.5163388e-04  -2.9458836e-04  -1.3688440e-04  -1.3484589e-04  -1.5082974e-04  -8.3067578e-05  -2.3448165e-04   5.0133927e-04  -4.7738180e-05  -3.8947081e-04  -2.0807168e-04   2.2370483e-05  -6.1782965e-05   1.4272264e-04   4.6610930e-05  -5.0977920e-04   5.1486254e-04  -3.4953551e-05   6.1777874e-04   7.6062488e-04   2.8063485e-04   2.8361080e-04   1.6946763e-04   1.9668150e-04   4.1131480e-04
   1.1486954e-04   5.2074133e-04  -7.8210738e-05   8.4094227e-06   2.4028257e-05   3.0375240e-04  -6.9667891e-05   3.2889413e-05   4.3495835e-04   1.0992250e-03   1.7806748e-04   1.0216972e-04   2.4072360e-04   1.5803408e-04  -1.3581401e-04   8.9901419e-05   2.2388405e-04  -3.7397913e-05   7.2366302e-04   8.2324707e-04   6.6223834e-04   1.1794943e-03   1.2459708e-04   1.6321319e-04   1.9123207e-04   1.0917553e-04  -3.5854959e-04  -2.9486656e-04  -1.3621393e-04  -1.8356832e-04   2.1029716e-04  -2.3178132e-04   4.5645246e-04  -9.1807906e-06  -4.2450742e-04  -2.4070461e-04  -1.7887874e-05  -1.4030565e-04   6.7356967e-05  -9.1311427e-05  -7.1226497e-04   2.6300456e-04  -3.6870824e-05   6.6051423e-04   5.6574866e-04   1.0277687e-04   7.9204263e-05   7.0449649e-05   8.2689818e-05   2.3861593e-04
  -1.8106627e-04   3.1476957e-04  -4.8496769e-04  -2.6921657e-04  -2.5044699e-04  -2.0265294e-05  -2.7594456e-04  -2.4179481e-04   4.1151729e-05   8.5468253e-04  -7.6956414e-05  -8.4489147e-05   9.0193598e-06  -8.7942557e-05  -2.0306288e-04  -1.3030486e-04   8.0633545e-05  -2.5201452e-04   4.7092547e-04   7.1341073e-04   5.9612008e-04   1.2137962e-03   7.5986114e-05   1.7443937e-04   9.8292963e-05   4.9631825e-07  -3.1792614e-04  -2.9175403e-04  -1.8035360e-04  -2.2538463e-04   8.3075211e-05  -1.9645627e-04   4.7206934e-04  -2.0182040e-04  -4.7512198e-04  -2.8197991e-04  -5.1085750e-05  -1.7108583e-04   6.3493382e-05  -7.9074824e-05  -5.4727041e-04   3.2546415e-04  -7.1027054e-05   2.3319974e-04   7.3597406e-04   7.1362709e-05   5.4663216e-04   1.5048114e-04   2.1956250e-04   2.7639116e-04
   9.0595015e-05   5.3763692e-04  -7.5808326e-05   1.1873393e-05  -7.9105930e-06   2.0951324e-04  -9.2956994e-05  -2.1560434e-05   3.2356262e-04   1.0514571e-03   1.3114810e-04   1.1991544e-04   1.6732552e-04   1.1054498e-04  -1.6361046e-04   1.7363565e-05   1.8236063e-04  -1.7879374e-04  -6.5801555e-06   7.2280684e-04   7.3107431e-04   1.2888218e-03   1.4061805e-04   3.4785824e-04   1.1673538e-04   2.3929364e-05  -2.5075203e-04  -2.1369848e-04  -1.5031616e-04  -1.4678229e-04   5.9558759e-05  -2.0237885e-04   4.4393985e-04  -1.7728029e-04  -4.0871656e-04  -2.8560215e-04   7.6024180e-06  -1.4367397e-04   4.1851552e-05  -4.7602767e-05  -6.0960435e-04   2.4984736e-04  -5.1214622e-05   5.4027146e-04   6.7913049e-04   1.0244271e-04   2.0307816e-04   1.9105742e-04   1.3083540e-04   2.1218926e-04
  -1.9688374e-05   4.2521165e-04  -2.5471661e-04  -1.0322464e-04  -1.0348239e-04   1.6280210e-05  -1.9683789e-04  -1.8077085e-04   3.8347524e-04   9.0119755e-04   6.2067297e-06  -8.8366514e-06   3.6479931e-05   6.2329668e-06  -2.2850299e-04  -1.1743732e-04   8.4036590e-05  -2.0703149e-04   1.7407886e-04   6.4227165e-04   4.9281027e-04   1.2009866e-03   4.4271434e-05   3.6957220e-04   8.2638355e-05  -4.8067821e-05  -4.0676905e-04  -2.8221353e-04  -2.1133463e-04  -2.1630658e-04  -4.0765164e-05  -1.4549738e-04   3.8791381e-04  -1.1745887e-04  -5.4058892e-04  -4.4575508e-04  -1.6146387e-04  -2.7584145e-04  -9.0142756e-05  -1.9547227e-04  -7.3768548e-04   1.5439976e-04  -1.6407522e-04   4.7641998e-04   5.3178100e-04   1.3186676e-04   6.4405787e-05   1.2658539e-04   1.1997914e-04   2.5014105e-04
   7.2286341e-05   5.0774717e-04  -2.3391251e-05   4.7829311e-05   8.5006934e-05   2.5073590e-04  -8.1970002e-06  -1.7371027e-05   3.9724086e-04   1.1230445e-03   1.8608976e-04   1.1706592e-04   2.0362574e-04   1.7152815e-04  -1.8821163e-04   3.2562381e-05   1.6437039e-04  -4.0183648e-05   2.3169983e-04   8.1824732e-04   7.0760277e-04   1.1363641e-03   2.2461181e-04   3.6613678e-04   2.3228530e-04   1.0073171e-04  -1.7741705e-04  -1.7703931e-04  -2.3262162e-05  -6.1115512e-05  -5.6759069e-07  -1.4126368e-04   4.5685717e-04  -1.0762921e-04  -3.3659683e-04  -2.4053207e-04   3.3066302e-05  -1.0161593e-04   7.5082928e-05  -4.7918747e-05  -5.2122056e-04   4.6610713e-04   1.8980514e-05   4.2179818e-04   5.6632049e-04   5.3806718e-05   2.0787667e-04   2.0372124e-04   2.7478667e-04   3.0280990e-04
   1.0534920e-04   5.2304607e-04  -2.3036700e-05   4.9706141e-05  -3.3096450e-05   1.9501284e-04  -2.2824179e-05  -1.3041173e-05   3.0751870e-04   1.0190484e-03   1.4636165e-04  -1.4212559e-05   1.6211516e-04   1.2647486e-04  -1.3824124e-04  -1.2348431e-05   1.5702467e-04   7.4917085e-07   8.7998301e-04   7.5554021e-04   6.2694371e-04   1.1712855e-03   1.6679075e-04   3.3386593e-04   9.4082650e-05   6.6350483e-05  -2.9706789e-04  -1.1839347e-04  -1.0758897e-04  -1.0274494e-04   1.4881707e-04   1.3546058e-06   6.2210346e-04  -1.0419776e-04  -3.9041397e-04  -3.1439011e-04  -9.2150673e-05  -1.4520831e-04  -2.2050959e-05  -9.1069000e-05  -7.1281294e-04   2.4741748e-04  -5.9615410e-05   3.3552982e-04   6.6295214e-04   1.1507528e-04   2.7697545e-04   1.6359639e-04   1.8098355e-04   1.6875175e-04
