   4.0897049e-04   2.2744316e-04   4.1767277e-04   2.4079636e-04  -2.3752201e-04  -1.0175105e-03  -4.4538319e-04   6.9817819e-04  -7.9135585e-04   9.9250441e-04   1.0941880e-03  -7.9042459e-04  -9.2984695e-04   4.7159946e-04   6.0338055e-04   5.4836419e-04   1.5106919e-03   3.5126053e-04   1.3531753e-03   3.8822269e-05   3.9094043e-04  -1.6923689e-03  -1.6923444e-03  -6.4610899e-04   1.5493110e-03  -9.3913195e-04  -4.7456913e-04  -2.4501543e-04  -1.3758400e-03  -8.8203931e-04  -6.9865881e-04   7.8499469e-04  -5.2763830e-04   6.6384749e-04   2.0486457e-04   9.8785770e-04   1.0791558e-03  -1.3097452e-03   1.0867598e-03   6.6855276e-04  -1.7010556e-03  -1.0223271e-03   1.3833399e-03   1.2192579e-03   5.1563571e-04   4.3186764e-03  -1.8526255e-03  -6.2196562e-04   3.0463852e-03   5.8796192e-03
   3.0208696e-04   5.0992428e-05   4.0752374e-04   1.4233815e-04  -7.7102108e-05  -1.3971339e-03  -5.3411658e-04   9.2905579e-04  -8.5815910e-04   9.1403874e-04   1.0199836e-03  -9.1379549e-04  -9.4783324e-04   5.6273874e-04   5.7854608e-04   5.0187117e-04   1.5268769e-03   2.9500874e-04   1.1289680e-03  -3.2612224e-05   2.9471991e-04  -1.8119533e-03  -1.5642382e-03  -7.1699836e-04   1.3951766e-03  -1.1701788e-03  -6.0415763e-04  -2.2563594e-04  -1.4012102e-03  -1.1284739e-03  -5.9293467e-04   7.7068410e-04  -6.9722539e-04   3.8250434e-04  -1.9284301e-04   6.8862532e-04   1.0908783e-03  -1.3866485e-03   9.6257741e-04   1.7515480e-04  -1.8601706e-03  -1.1014855e-03   1.2762635e-03   8.4942766e-04   2.9171741e-04   3.5723636e-03  -1.9695424e-03  -5.2963628e-04   2.7956462e-03   5.9080026e-03
   6.0460839e-05  -8.7195840e-05   2.2262725e-04  -5.2408366e-05  -1.5833107e-04  -1.4939710e-03  -6.9590699e-04   8.7716879e-04  -8.7831327e-04   8.3451485e-04   9.3104632e-04  -1.0164726e-03  -9.8124600e-04   4.0751937e-04   3.0471559e-04   5.3101883e-04   1.4894481e-03   5.4526259e-04   1.7677331e-03  -3.4335295e-05   3.2521202e-04  -1.8088818e-03  -1.7890304e-03  -6.0263282e-04   2.1428252e-03  -1.0072236e-03  -5.3183653e-04  -2.9919724e-04  -6.5406109e-04  -8.6130848e-04  -1.2060450e-03   8.5519394e-04  -5.9667893e-04   5.9671880e-04   1.0293879e-04   1.0812536e-03   1.2010325e-03  -1.1924364e-03   1.4600644e-03   7.1135384e-04  -1.6298537e-03  -8.7869569e-04   1.3175280e-03   1.2657283e-03   4.1938698e-04   4.2417464e-03  -1.8822857e-03  -3.0407909e-04   3.0518265e-03   6.6226963e-03
   4.2666961e-04   1.7191675e-04   4.7129669e-04   2.1376034e-04  -1.3330147e-04  -1.3851199e-03  -4.6110214e-04   7.5099932e-04  -6.5359648e-04   9.3625352e-04   1.0750080e-03  -9.5238647e-04  -9.1527769e-04   4.6900351e-04   9.8887773e-04   5.3211348e-04   1.5924413e-03   4.4047175e-04   1.8610898e-03   2.2368085e-05   4.0296742e-04  -1.7331361e-03  -1.8111038e-03  -5.7214213e-04   1.6730512e-03  -8.8157371e-04  -5.0938292e-04  -1.2583690e-04  -7.3531090e-04  -9.1780321e-04  -7.0672849e-04   9.2701492e-04  -1.8936871e-04   6.0163124e-04   3.6688588e-04   1.0043603e-03   1.6350092e-03  -1.3254075e-03   4.8457459e-04   6.9376803e-04  -1.4990602e-03  -8.4887620e-04   1.4356803e-03   1.3113869e-03   4.5082936e-04   3.9832867e-03  -1.9222390e-03  -3.3932933e-04   3.0432655e-03   5.7459120e-03
   2.6966419e-04   5.6266632e-05   4.1003028e-04   1.6011376e-04  -1.4881241e-04  -1.4119430e-03  -5.7805708e-04   8.2969526e-04  -9.4698457e-04   8.4866968e-04   9.6383318e-04  -1.0501727e-03  -9.6694345e-04   4.3409242e-04   6.2104251e-04   2.5413156e-04   1.6358416e-03   4.7166040e-04   1.3383273e-03  -7.1809744e-05   2.9150987e-04  -1.8976060e-03  -1.7413204e-03  -8.6070568e-04   1.6714400e-03  -1.0873602e-03  -3.3748805e-04  -1.4019820e-04  -1.1409333e-03  -9.9486555e-04  -7.8819424e-04   8.0693042e-04  -4.2177734e-04   3.1269508e-04   8.7532542e-05   1.2139633e-03   8.7027828e-04  -1.3777524e-03   9.2281500e-04   6.8454206e-04  -1.6323513e-03  -8.6745311e-04   1.2540072e-03   1.0566382e-03   2.5779926e-04   3.6578816e-03  -1.7500935e-03  -3.6057597e-04   2.7555826e-03   5.2218521e-03
   1.5696356e-04  -1.6741433e-04   2.0083577e-04  -4.9148584e-05  -6.1371640e-05  -1.4359531e-03  -6.0187542e-04   8.9048845e-04  -1.0030036e-03   8.0860802e-04   8.4803003e-04  -1.1600445e-03  -1.0460195e-03   4.3838410e-04   3.8920491e-04   4.5847840e-04   1.4448662e-03   3.3210512e-04   1.5823414e-03  -1.5085076e-04   3.4296836e-04  -1.8186820e-03  -1.7693633e-03  -6.8841618e-04   8.6535269e-04  -9.0291444e-04  -2.2850183e-04  -9.3303766e-05  -8.9451706e-04  -6.3932664e-04  -7.7744445e-04   6.7140552e-04  -3.4861706e-04   6.8488967e-04  -2.9155010e-04   1.0919275e-03   1.1848655e-03  -1.2328005e-03   9.9077658e-04   5.5443845e-04  -5.9555535e-04   5.9272890e-05   1.8494937e-03   1.0020931e-03   4.7738772e-04   4.1697496e-03  -1.0326628e-03   1.5321480e-04   2.8162589e-03   5.0734165e-03
   4.2194355e-04   1.3548684e-04   2.5020141e-04   3.3202444e-04  -1.0966273e-04  -8.4594468e-04  -4.7235106e-04   9.1161032e-04  -7.3596515e-04   9.9232700e-04   9.0926350e-04  -7.9541333e-04  -7.7723933e-04   3.7820291e-04   2.8437079e-04   4.8881694e-04   5.9980847e-04   8.4685315e-05   1.5874042e-03  -3.1160520e-04   3.7292315e-04  -1.3521129e-03  -1.3981116e-03  -3.7383023e-04   7.9519529e-04  -4.2626285e-04  -1.2968174e-03  -1.4601828e-05  -7.2402705e-04   5.7845865e-04   1.8883021e-04   4.0157326e-04  -2.4255348e-06   5.8432861e-04   4.2031801e-04   1.1770105e-03   8.5804908e-04  -1.1209572e-03   1.6729820e-03   5.3808122e-04  -1.5080627e-04   4.4622397e-05   1.5271890e-03   1.0587999e-03   4.6631001e-04   2.8726228e-03  -5.2821380e-04   3.8893195e-04   1.9117794e-03   4.4406783e-03
   1.9920911e-04   1.5678987e-04   2.1102992e-04   2.2572181e-04  -3.8489563e-04  -4.6100476e-04  -4.0103827e-04   2.3109572e-04  -2.6879896e-04   8.9673343e-04   5.4780813e-04  -7.5670867e-04  -5.5226806e-04   5.2375126e-05  -5.2566640e-05   2.4695453e-04  -4.5356122e-05  -3.5730659e-04   1.1037787e-03  -3.5717571e-04   3.1631821e-04  -8.9510257e-04  -5.9221633e-04  -3.9446715e-04   5.5028842e-04  -4.2013807e-04  -9.0925011e-04  -1.7013027e-04  -5.3837866e-04   5.5141398e-04  -2.0797581e-04   1.7967130e-04   1.7873413e-04   5.9716369e-04  -3.1840638e-04   3.0898640e-04   1.1397580e-03  -7.2396366e-04   6.6624727e-04   4.8145620e-04  -4.1421995e-04  -1.2255569e-04   6.6678890e-04   7.7843340e-04   3.8550684e-04   1.4302572e-03  -5.4378086e-04  -4.1802501e-04   1.2440615e-03   2.7766721e-03
   5.2929205e-05   8.5908097e-05   1.0307867e-04   2.4573330e-05  -1.3765490e-04  -4.7322022e-04  -3.2970007e-04   4.3316162e-04  -7.4392912e-04   8.0011535e-04   3.2279702e-04  -7.5549714e-04  -6.7018974e-04   4.9447772e-06  -8.1137754e-05   1.9863852e-04  -3.8428168e-04  -3.3777396e-04   7.7797391e-04  -3.9139367e-04   2.8681918e-04  -7.9792546e-04  -6.8205257e-04  -3.6143078e-04   3.4235397e-04  -3.6292890e-04  -9.5885887e-04  -2.4303321e-04  -4.1678734e-04   4.5627845e-04   2.1499697e-04   2.3282593e-04   5.8725593e-04   5.5484666e-04   1.6633114e-04   7.3742284e-04   1.4940269e-04  -7.2379276e-04   4.8177486e-04   5.5462972e-04  -1.3497159e-04  -9.0458911e-05   8.2843687e-04   9.5498259e-04   4.0685627e-04   1.6676484e-03  -5.3381990e-04  -5.6780380e-04   1.3156402e-03   2.8225495e-03
   2.7971450e-04   4.2167699e-04   2.9219888e-04   2.7730348e-04   2.0055010e-04  -2.5514807e-04  -1.4709191e-04  -4.7794889e-05  -2.0206641e-04   9.6274668e-04   4.6796093e-04  -5.5226585e-04  -4.5383911e-04  -2.6634007e-05   1.0721663e-04   3.3949001e-04  -4.6159877e-04  -4.6598457e-04   4.7177862e-04  -3.3896990e-04   3.7086749e-04  -4.4345247e-04  -5.8116019e-04  -1.7981601e-04   4.9334636e-04  -3.2723887e-04  -9.6589531e-04  -2.1731931e-04  -2.2762571e-04   3.9299997e-04   2.2178842e-04   1.5414842e-04   7.4423291e-04   5.3131644e-04  -3.6655638e-05   5.5086502e-04   1.0378420e-03  -6.5585750e-04   5.0072634e-04   9.3070918e-04  -3.1277462e-04  -1.7176996e-04   6.8394397e-04   8.4766367e-04   4.7218727e-04   1.3911588e-03  -5.2414741e-04  -6.3900673e-04   1.2599230e-03   3.0143622e-03
   1.9838086e-04   4.0204296e-04   2.5043482e-04   1.6798469e-04   9.9071134e-05  -3.1396747e-04   3.9813520e-05   3.7113679e-04  -2.2841696e-04   9.3470130e-04   3.5913661e-04  -5.8064162e-04  -4.7447582e-04  -2.1250446e-04  -1.5931955e-04   1.7936635e-04  -6.0328288e-04  -4.0257134e-04   6.1924377e-04  -4.1672515e-04   2.9670991e-04  -4.5491537e-04  -5.1307614e-04  -3.4741787e-04   5.6500355e-04  -3.0968702e-04  -1.6204839e-03  -1.3715996e-04  -3.1655328e-04   7.0261431e-04  -1.6885155e-05   2.9446906e-04   3.8722783e-04   5.5890344e-04  -3.3160869e-04   3.0306212e-04   4.5439356e-04  -3.8188513e-04   5.6957646e-04   5.8124855e-04  -4.3151819e-04  -3.6190115e-04   3.4096016e-04   5.7980395e-04   3.4400585e-04   1.1716919e-03  -6.2347442e-04  -7.7202014e-04   1.0089346e-03   2.4527898e-03
   1.1669654e-04   2.2884402e-04   1.0999102e-04   2.2826929e-05   2.6688472e-04  -4.3995125e-04  -2.7970216e-04  -3.8119595e-04  -6.0973671e-04   8.7225082e-04   1.8173085e-04  -7.2516315e-04  -5.1953585e-04  -1.4248774e-04   3.4001368e-04   8.5814900e-05  -7.2075066e-04  -4.5852509e-04   7.1582699e-04  -4.9583247e-04   2.1371599e-04  -5.3177419e-04  -5.3093419e-04  -3.9102053e-04   5.6782638e-04  -3.5581345e-04  -1.3315507e-03  -1.1250722e-05  -3.9027032e-04   6.1517250e-04  -2.5953920e-04   2.3333062e-04   5.5671984e-04   6.3467654e-04  -5.3228246e-04   4.3194665e-04   1.2803763e-03  -1.7183318e-04   7.3106220e-04   6.0652074e-04  -3.4766132e-04  -3.0051821e-04   6.0441333e-04   8.0410123e-04   4.4241027e-04   1.2338759e-03  -5.7752407e-04  -6.1883649e-04   1.1709285e-03   2.2475549e-03
   3.4744677e-04   5.5828912e-04   2.3830384e-04   2.5207092e-04   1.5508434e-04   7.0531649e-05  -1.9993873e-04   1.1379345e-04  -4.3357461e-04   1.0224601e-03   3.8379364e-04  -5.2457303e-04  -3.8986412e-04  -8.4328451e-05   2.5601560e-04   6.5851083e-05  -7.4035861e-04  -5.7237374e-04   5.6866958e-04  -4.3404137e-04   3.1248265e-04  -4.0222361e-04  -7.7869563e-04  -2.0485836e-04   2.8621312e-04  -3.6078240e-04  -1.2160889e-03   8.5431828e-05  -2.6382695e-04   6.3478167e-04   4.3632215e-04   3.4885600e-04   6.3422247e-04   6.5613264e-04   1.1698606e-04   4.1853686e-04   4.8166481e-04  -3.8065101e-04   6.4751290e-04   8.3279016e-04  -2.3927329e-04  -1.3888897e-04   5.1525549e-04   9.2407333e-04   5.1284471e-04   1.3531565e-03  -6.8484573e-04  -7.1835786e-04   1.1149247e-03   2.5866290e-03
   2.4971660e-04   5.1377213e-04   2.3086331e-04   2.1215063e-04   2.2103643e-04  -1.3269077e-04  -1.2699579e-04   2.5495561e-04   1.0667880e-05   9.8928227e-04   2.9993872e-04  -6.1077840e-04  -3.5582212e-04  -1.9925879e-04   2.9284268e-04   1.0021746e-04  -7.4609555e-04  -4.8172107e-04   3.6331464e-04  -4.4171760e-04   2.4194070e-04  -4.4915988e-04  -6.0656620e-04  -2.4493478e-04  -1.6573416e-05  -4.2342252e-04  -7.6716044e-04  -3.9998788e-05  -4.7025818e-04   7.2529254e-04   1.6131590e-04   2.3634978e-04   4.9238838e-04   4.0437680e-04  -5.5284137e-05   4.2693666e-04   6.3958904e-04  -4.1632363e-04   9.5858576e-04   4.9664208e-04  -4.3204182e-04  -3.1634589e-04   6.1372860e-04   5.7717180e-04   2.1710272e-04   1.0525712e-03  -7.5700204e-04  -6.0496689e-04   9.0273854e-04   1.5656967e-03
   1.2523969e-04   3.4240581e-04   1.3674598e-04   7.7922377e-05   2.0664826e-04  -1.4844906e-04  -1.4025939e-04   2.2526387e-04   2.1125899e-04   9.9970039e-04   3.0060284e-04  -5.3821871e-04  -3.2240790e-04  -2.3459454e-04   3.4969344e-05   1.1983687e-04  -7.8988908e-04  -5.7773909e-04   7.4054091e-04  -4.1469955e-04   2.9219955e-04  -4.7075085e-04  -1.8404279e-04  -4.0514706e-04   2.0855450e-04  -3.2428410e-04  -9.4652834e-04   1.3714787e-04  -4.9442664e-04   8.2733296e-04   2.4241643e-04   2.8139973e-04   1.1359487e-03   1.0175285e-03  -2.6137763e-04   5.7341211e-04   7.8109140e-04  -1.5115028e-04   8.0206123e-04   6.5433595e-04  -8.0945374e-06  -6.8030211e-05   7.4765529e-04   7.7746826e-04   4.5614812e-04   1.2480662e-03  -5.8842893e-04  -3.0002923e-04   1.2951087e-03   2.2474113e-03
   3.8219578e-04   5.5716955e-04   2.6787055e-04   2.5247768e-04   2.4126614e-04  -4.4082735e-05  -1.3483553e-04   2.0481726e-04   1.6348457e-04   1.0490507e-03   3.6529670e-04  -5.4889044e-04  -1.9994436e-04  -1.6980896e-04   6.9441152e-04   1.6486051e-04  -3.8072316e-04  -4.7364875e-04   8.7508111e-04  -2.3112829e-04   3.2213959e-04  -4.6585620e-04  -4.3007487e-04  -2.0804859e-04   3.2100486e-04  -1.9681116e-04  -1.3912970e-03   1.9738625e-04  -3.0850768e-04   8.5800601e-04   5.2308710e-04   3.9160583e-04   1.0647946e-03   9.1545773e-04   1.4886621e-04   3.3230320e-04   8.9636707e-04  -7.4999778e-05   8.3893188e-04   8.8135508e-04  -2.5833840e-05  -1.9625970e-04   7.2029332e-04   7.5042399e-04   3.7818670e-04   6.6676951e-04  -5.6750141e-04  -2.3815445e-04   1.0871610e-03   1.8225187e-03
   2.4458332e-04   3.9898424e-04   2.6196471e-04   7.1024791e-05   1.6155472e-04  -1.2650073e-04  -1.2048997e-04   3.0815936e-04  -1.9140086e-04   7.9104240e-04   2.6080769e-04  -7.4242434e-04  -3.0457694e-04  -1.0584801e-04   2.5472612e-04   1.8514920e-04  -1.2500340e-04  -2.5959677e-04   7.0050114e-04  -2.0858999e-04   1.8639198e-04  -6.0940435e-04  -1.8637006e-04  -4.3530736e-04   4.1993658e-04  -3.6233981e-04  -1.1868011e-03  -5.0705438e-07  -7.5603319e-05   7.7795767e-04   6.2076600e-05   3.1643131e-04   1.8278293e-04   8.3909289e-04  -5.7846226e-04   6.1032010e-06   6.2706554e-04  -3.8923556e-04   4.8125083e-05   6.4175465e-04  -3.2426009e-04  -5.3936796e-04   2.5179298e-04   6.7997118e-04   2.6329167e-04   1.1191312e-03  -8.5382536e-04  -4.1408176e-04   8.9370424e-04   1.2906045e-03
  -8.0630401e-05   1.3938046e-04   1.2447358e-04  -7.5762604e-05  -1.6279284e-05  -1.0256351e-05  -3.6797032e-04  -1.2625182e-04  -1.6784235e-05   7.0955534e-04   2.3279588e-04  -8.5664570e-04  -3.0469144e-04  -1.5251148e-04   2.7422726e-04   1.9648587e-05  -1.0615850e-04  -3.8637026e-04   3.0610457e-04  -1.8371051e-04   2.1207453e-04  -5.2540144e-04  -6.2722620e-04  -4.1801995e-04   2.8872516e-04  -2.0208927e-04  -7.2593248e-04   5.8436988e-05   2.6097425e-04   7.3764677e-04   2.1356162e-04   2.4977862e-04   9.1910869e-04   9.9397753e-04  -2.9596454e-04   4.2367232e-04   7.7154912e-04  -3.5305673e-04   4.0391606e-04   8.3665567e-04   1.6329742e-04   7.0567567e-06   8.8473281e-04   7.8842702e-04   3.3298385e-04   9.3462382e-04  -7.4869016e-04  -9.2474147e-05   1.1728589e-03   2.3255311e-03
   3.1882006e-04   4.5902247e-04   2.7638744e-04   2.9858737e-04   4.5474572e-04   3.7606200e-04  -2.8073278e-04  -2.6333460e-04  -5.1326224e-05   8.1738125e-04   2.8561559e-04  -3.7950411e-04  -4.9343736e-05  -1.0363169e-04   2.1862959e-04   5.6921308e-05   2.2722327e-04  -1.5476298e-04   6.4757874e-04   9.8766512e-05   3.1290742e-04  -3.1647997e-04  -1.1607759e-04  -3.0103759e-04   4.7101232e-04  -1.9401068e-05  -1.0888783e-03   3.4972120e-04  -7.7060322e-05   9.5521024e-04   1.8120496e-04   3.8162622e-04   7.8746589e-04   5.9464498e-04  -2.5799724e-05   5.3562742e-04   8.6193625e-04   1.6569125e-04   7.0210162e-04   7.3416356e-04   4.3790642e-05  -2.1347533e-04   6.0655159e-04   4.4835758e-04   3.2156426e-04   7.3550589e-04  -7.7048381e-04  -3.8772379e-04   9.7060570e-04   1.6770213e-03
  -9.1404167e-05  -1.2562072e-04   3.5190108e-04   1.7391644e-04   1.7774431e-04   2.6831042e-04  -5.5193272e-04  -9.5374744e-05  -2.2135676e-04   6.6229812e-04   2.0962763e-04   3.4451828e-04   4.2282267e-05  -3.7600007e-04   3.1242581e-04  -3.9412156e-05  -2.2939405e-04  -5.3687283e-04   9.8007999e-04  -1.2718717e-04   1.6563246e-04  -3.1438022e-04  -5.0164599e-05  -1.5918133e-04   3.2308867e-04  -4.8407792e-06  -1.4070086e-03  -2.9355902e-05  -6.8397867e-04   1.0172606e-03   1.6569797e-04   1.9368259e-04   6.4722780e-04   8.6052390e-04  -7.2555078e-05   5.3324742e-04   1.5439346e-04   3.9269120e-04   6.8425707e-04   7.9207506e-04  -4.6837249e-05   5.4816570e-05   5.2697433e-04   4.3829190e-04   2.5605937e-04   9.2165713e-04  -5.8168080e-04  -1.8346051e-04   1.1037504e-03   1.3524806e-03
  -1.4159532e-04  -1.2750782e-04   4.9924228e-04   4.2990057e-04   1.2220726e-04   6.2041718e-04  -3.1097428e-04   1.0222199e-04   2.8620340e-04   2.8232628e-04   5.6440535e-04   1.2830468e-03   2.1508324e-04  -2.4609422e-04   3.2139168e-04  -1.2070546e-04  -6.9532910e-04  -6.1979098e-04   1.2554594e-03  -6.3832893e-05   3.7889712e-04   1.8516034e-04   5.2450667e-04   3.3106195e-04   1.6784854e-04   2.8983611e-04  -9.8677597e-04   2.5105212e-04  -5.9262762e-04   1.2297999e-03   6.5207802e-04   2.1902903e-04   7.0865959e-04   1.0268366e-03   1.8357112e-04   1.1583724e-03   1.2273975e-03   5.1289896e-04   1.1539219e-03   6.9885713e-04   2.0950023e-04   2.3634452e-04   7.2378636e-04   7.1816315e-04   5.8524258e-04   1.2638061e-03  -4.6764564e-04   6.1973136e-05   1.1917766e-03   1.9687274e-03
  -1.0981376e-04  -2.7049074e-04   7.7733013e-04   4.1585029e-04   1.0139000e-04   6.4158102e-04  -3.0425430e-04   2.3160904e-04   3.0199264e-04  -4.5483006e-04   6.9629482e-04   1.2951931e-03   4.6459830e-04  -2.4933243e-04   2.9413958e-04  -1.9952922e-06   1.5868100e-05  -5.2627682e-04   1.2441927e-03   2.2745261e-04   3.8815086e-04   1.8370240e-04   5.8817083e-04   4.4071421e-04   5.8518071e-04   2.4668439e-04  -1.0899944e-03   2.4904287e-04  -6.2791303e-05   1.1073608e-03   5.3010025e-04   2.1675607e-04   6.1309343e-04   9.5358159e-04   9.7773744e-05   1.0115441e-03   1.4732238e-03   5.1030278e-04   5.5776484e-04   9.2317100e-04   2.5696453e-04   3.0511947e-04   7.4447651e-04   6.6552567e-04   5.2008755e-04   6.9799129e-04  -4.3126763e-04   2.6802981e-04   1.0735960e-03   1.4580047e-03
  -3.2547928e-04  -3.1500915e-04   6.1186636e-04   3.2712836e-04   7.8408026e-05   6.7074480e-04  -3.3412912e-04   1.3206589e-04   2.4846563e-04  -4.5903507e-04   7.7785255e-04   1.6929053e-03   3.9426456e-04  -1.7403299e-04   3.3805508e-04  -1.0696096e-04  -7.9145648e-05  -6.0714723e-04   7.4549508e-04   1.6636041e-04   4.2036676e-04  -6.9812384e-05   2.3933206e-04   2.8793656e-04   3.9991114e-04   1.8495717e-04  -6.8009977e-04   3.9585404e-05  -6.6450867e-04   7.7327492e-04   5.1730342e-04   1.5177527e-04   7.6524704e-04   8.6731999e-04   3.2518504e-04   5.7482015e-04   7.1871671e-04   3.5975638e-04   8.9339132e-04   6.9610472e-04  -2.4255271e-05   3.0358994e-04   7.7362161e-04   4.8600836e-04   5.5683049e-04   1.1765428e-03  -3.3335670e-04   1.8616271e-04   1.1569483e-03   1.6642147e-03
  -3.4440731e-04  -2.8349870e-04   5.7974656e-04   3.4697133e-04  -1.1799370e-05   5.3760386e-04  -1.8943330e-04  -7.9036086e-05   2.7105454e-04  -3.6919877e-04   8.6037535e-04   1.8867534e-03   4.3431230e-04  -2.3755409e-05   4.6957281e-04  -2.6047352e-05  -8.1976905e-05  -4.7376228e-04   6.9872872e-04   9.9554512e-05   6.0972362e-04   2.6284292e-04   6.3907914e-04   5.1292527e-04   8.4850000e-04   4.4441610e-04  -1.0082409e-03   3.9786549e-04  -1.0865361e-04   9.2120195e-04   7.2234607e-04   4.8053422e-04   5.7845598e-04   8.0042100e-04  -2.1250764e-04   8.3719223e-04   1.0807085e-03  -5.5729004e-05   1.2316478e-03   6.6324871e-04   5.0451647e-05   2.1579897e-04   1.1072105e-03   8.5843023e-04   7.9609413e-04   9.1047573e-04  -3.0402208e-04   5.1826006e-04   1.3054851e-03   1.9100502e-03
  -3.8862386e-06  -3.4639706e-05   7.0727675e-04   5.1623746e-04   2.2390910e-04   7.4820744e-04  -1.3765895e-04   9.7583688e-05   4.1798060e-04  -1.3752766e-04   9.4833714e-04   2.0418344e-03   4.1929298e-04  -9.2534654e-05   4.6266639e-04   2.7388884e-05  -4.5868638e-04  -7.0956245e-04   1.6456102e-03   4.5254761e-05   7.1983691e-04   9.5356976e-05   6.4595457e-04   5.9834763e-04   5.8455719e-04   3.7170717e-04  -7.3960354e-04   1.9148218e-04   8.5388228e-06   9.0388098e-04   8.2319585e-04   3.7593709e-04   5.1827537e-04   7.9537946e-04   2.6718530e-04   1.0545664e-03   6.5854052e-04  -1.2190255e-05   6.1402185e-04   8.3012652e-04   4.5160890e-05   3.4162897e-04   9.7355235e-04   5.5822538e-04   6.9350231e-04   1.1522146e-03  -9.9489531e-05  -1.5720555e-04   1.2136112e-03   1.9196752e-03
  -2.0516201e-04   1.7929515e-05   6.2810956e-04   4.1194554e-04  -1.2729543e-04   5.6096836e-04  -2.7672102e-04  -3.8303988e-06   4.3518486e-04  -1.1681376e-04   9.7020599e-04   2.1753414e-03   2.6767136e-04  -3.1757884e-04   4.7650200e-04  -1.2875373e-04  -7.9088425e-04  -7.7773642e-04   1.5018249e-03  -9.6991127e-05   7.3486409e-04   2.1173178e-06   4.2742825e-04   5.7543203e-04   4.3186574e-04   1.5058237e-04  -9.8768645e-04   8.3604667e-05  -6.0315029e-04   7.7271077e-04   3.0539057e-04   2.5454012e-04   7.0657837e-04   8.3757204e-04  -2.1758902e-05   8.4027415e-04   2.4476962e-04   3.8438538e-04   1.0932822e-03   1.0086671e-03   3.9066843e-05   3.7936409e-04   5.4376107e-04   6.2782364e-04   9.3001896e-04   9.3978422e-04   1.2938883e-04   3.8993315e-04   1.4493108e-03   1.8187470e-03
  -9.2888604e-06   2.8448383e-04   7.1094377e-04   5.4175413e-04   3.0480544e-04   7.5406529e-04   2.1902282e-05   6.8914254e-05   4.6443989e-04   1.1240756e-04   1.1457670e-03   2.3718183e-03   3.9651460e-04  -1.2375104e-04   8.3973608e-04   3.6556237e-05  -7.1386283e-04  -6.3370954e-04   2.0247784e-03   4.3995780e-05   9.6512167e-04   3.4860795e-04   6.2632427e-04   8.3828531e-04   8.3862495e-04   3.4364039e-04  -1.1552295e-03   1.5946261e-04  -6.4976478e-04   6.7439693e-04   6.2914175e-04   3.8989805e-04   9.3353458e-04   7.4407976e-04   5.4458750e-04   1.4497131e-03   1.6156002e-03   5.4112449e-04   1.2016817e-03   8.2871347e-04   7.6915050e-05   3.8382292e-04   5.6052551e-04   8.7087590e-04   1.0261530e-03   1.1661024e-03   2.1280310e-04   2.8716860e-04   1.3848729e-03   1.9574033e-03
   1.7077690e-04   4.2537614e-04   8.1619364e-04   5.7912117e-04   2.5048552e-04   9.2797040e-04  -5.0532195e-05   2.0666189e-04   5.4326007e-04   1.3250773e-04   1.0892096e-03   2.3681724e-03   3.6857938e-04  -1.5124977e-04   5.6294864e-04   1.5277635e-04  -6.2509126e-04  -6.2201120e-04   1.5181012e-03   6.0033362e-05   9.6075365e-04   3.7584529e-04   5.3273997e-04   9.0996019e-04   7.4960320e-04   3.4706778e-04  -1.0704331e-03   1.4589072e-04   2.4788527e-04   7.7433384e-04   5.5471843e-04   3.0083649e-04   7.2589377e-04   1.0149569e-03  -9.2104689e-05   1.0683347e-03   1.1161923e-03  -1.2807056e-05   2.2593475e-04   8.4717484e-04   3.2340016e-04   4.6246778e-04   6.5107690e-04   5.9462391e-04   8.3783024e-04   1.3027355e-03   1.6657496e-04   3.4542475e-04   1.2221585e-03   1.9390617e-03
   7.8246703e-06   2.9440754e-04   6.7399832e-04   4.5572355e-04   8.0186212e-05   5.8922928e-04  -9.1559144e-05   9.7632004e-08   4.5073166e-04   4.5685410e-05   9.6983754e-04   2.3923228e-03   3.0417132e-04  -2.3309722e-04   3.5850337e-04  -2.4739238e-05  -5.5802887e-04  -5.1572087e-04   1.9071260e-03   4.8060880e-05   8.3672273e-04   2.1461869e-04   5.7068473e-04   9.0321148e-04   4.1931056e-04   2.6102999e-04  -5.4826832e-04   9.3140798e-06  -3.6580177e-04   4.7989804e-04   6.6619110e-04   3.4410474e-04   7.7465712e-04   6.3414674e-04   1.0495992e-04   7.6541613e-04   5.1810761e-04  -4.3060389e-04   4.6535430e-04   8.8543777e-04   2.0652002e-05   4.5303203e-04   6.7385752e-04   6.5201119e-04   8.3163113e-04   1.1847082e-03   1.0901102e-04   3.9621105e-04   1.3515039e-03   1.8691872e-03
  -3.4425451e-05   3.5656424e-04   7.0613500e-04   4.7951110e-04   2.7721690e-05   2.5598120e-04  -1.1094069e-05   2.3235629e-04   3.8249601e-04   1.2970121e-04   1.0190054e-03   2.4425481e-03   3.3334695e-04   9.1387054e-05   4.4696577e-04   4.1342817e-05  -2.2871052e-04  -3.9813496e-04   1.6838149e-03   2.0632948e-04   9.8865922e-04   3.8062091e-04   6.3728640e-04   9.3953538e-04   7.2824402e-04   3.6328737e-04  -4.9176952e-04   4.1863392e-04   3.8745074e-04   6.1541144e-04   7.8848365e-04   4.8226112e-04   1.0521520e-03   8.0019637e-04  -2.1455598e-05   1.1037139e-03   1.1741980e-03  -1.0173998e-04   6.7091949e-04   8.0912246e-04   2.4072817e-04   5.0880166e-04   5.3590845e-04   9.0418145e-04   1.0164973e-03   1.2726196e-03   2.4339533e-04   2.2832669e-04   1.3760480e-03   1.9382262e-03
   1.7603170e-04   4.6559426e-04   7.6671207e-04   5.7246344e-04   1.1237918e-04   6.0000346e-04   1.6193890e-05  -1.2381718e-04   2.1064916e-04   2.3680431e-04   9.7933656e-04   2.5731786e-03   3.3009282e-04  -1.0126673e-04   6.1553577e-04   8.7502638e-05  -3.0713910e-04  -5.2050030e-04   1.5443664e-03   1.5816571e-04   9.2442200e-04   4.2783184e-04   6.9730572e-04   9.3616248e-04   4.7488339e-04   4.6188434e-04  -7.4674451e-04   4.2349083e-04  -5.3092925e-04   4.1699968e-04   1.0094409e-03   5.0851342e-04   8.7195268e-04   5.3593767e-04   2.8487289e-04   7.7388197e-04   8.9806633e-04  -4.4367269e-05   1.1154880e-03   6.5185537e-04   3.3985376e-05   3.4798851e-04   7.2924001e-04   7.4088242e-04   8.9215458e-04   8.9848600e-04   1.3633129e-04   8.0840575e-05   1.1009146e-03   1.1575464e-03
  -9.8610362e-06   2.6528770e-04   6.1295857e-04   3.7246695e-04   2.2710842e-04   2.1303559e-04  -2.5318467e-04   3.4501424e-04   2.4095018e-05  -7.8408011e-05   7.2912063e-04   2.2556230e-03   1.7701086e-04  -3.4252487e-05   9.1064017e-04   4.0162570e-04   3.7801388e-04  -2.2121449e-05   1.3187346e-03   3.1441727e-04   6.9521397e-04   2.2965221e-04   3.3599976e-04   4.5975536e-04   7.5079437e-04   1.2136846e-04  -6.1675929e-04   1.1643760e-04  -2.0134813e-04   4.4448781e-04   2.1225915e-04   3.6321318e-04   5.0882727e-04   7.3171634e-04  -2.3886378e-04   4.7770838e-04   8.2191918e-04  -4.1518226e-05   1.9229519e-04   4.5609096e-04  -1.7829391e-04   1.8614360e-04   3.8948792e-04   5.6624936e-04   6.8890280e-04   1.1048457e-03  -1.0703247e-04   2.8198300e-04   1.1542144e-03   1.7874436e-03
  -9.4367425e-07   2.7623674e-04   5.7771179e-04   3.1641999e-04   4.9250710e-05   4.9691659e-04  -1.1782306e-04   8.1366656e-05   3.8024952e-04   6.3533575e-05   7.0561684e-04   2.2233329e-03   1.5788835e-04  -1.4238759e-04   5.5697194e-04   1.3830228e-04  -2.5852367e-05  -3.2999556e-04   1.6556996e-03   1.9670873e-04   7.2286639e-04   4.0646110e-04   1.0038259e-04   7.7887386e-04   3.9430492e-04   2.9997752e-04  -7.6489191e-04   1.7094897e-04  -6.0627674e-04   6.1391620e-04   8.6612295e-04   3.9737494e-04   7.9070928e-04   6.1437942e-04   3.8088480e-04   1.1780256e-03   1.2417954e-03   1.3280592e-05   8.6700829e-04   8.3174359e-04   1.5314779e-04   5.2359834e-04   6.8201392e-04   8.5447531e-04   9.2698017e-04   8.7763340e-04   2.0962874e-05   1.8239583e-04   1.1980762e-03   1.1929137e-03
   1.6736596e-04   4.6748863e-04   6.3429115e-04   4.2259062e-04   2.3220248e-04   3.2738040e-04  -1.3715378e-04   4.4536355e-04  -6.5083434e-05   1.2767542e-04   6.8129238e-04   2.3568387e-03   5.1994426e-05   2.1743104e-05   6.0549087e-04   2.0278720e-04   3.5831024e-05  -2.6465140e-04   1.0416717e-03   1.6695747e-04   7.1440957e-04   4.0405756e-04   1.8365256e-04   6.6153647e-04   5.9452275e-04   1.3048947e-04  -8.9687941e-04   1.9518319e-04  -1.6070362e-04   4.7585022e-04   8.0833916e-04   3.9077349e-04   7.5399637e-04   9.9896337e-04   4.2938412e-04   6.9964310e-04   1.8334486e-04   4.5584087e-04   6.1827607e-04   6.0861872e-04   9.9768506e-05   4.5228927e-04   6.7802571e-04   8.1438827e-04   7.6523412e-04   1.3618134e-03  -3.4785106e-05   2.3005374e-05   9.0923178e-04   1.7233286e-03
  -6.6608045e-05   2.1692933e-04   4.8366463e-04   2.0773333e-04  -1.2551295e-04  -4.3035536e-05  -3.0651098e-04   5.4255780e-04  -6.4561631e-05  -1.3820286e-05   4.9521023e-04   2.1032421e-03  -2.1601394e-05   7.1631766e-05   6.1825383e-04   1.2617932e-04   4.0637347e-04   6.3468273e-05   5.4506940e-04   1.8464579e-04   5.4690253e-04   2.5660815e-04   1.4293705e-04   4.7304941e-04   7.1337260e-04  -2.5983378e-05  -8.0840918e-04   2.6295686e-04  -4.4381779e-04   2.7503129e-04   2.4055193e-04   3.6758694e-04   7.6512736e-04   8.7990775e-04  -5.7397143e-04   2.2669978e-04   2.2527891e-05  -1.2421174e-04   9.9861922e-05   6.7007233e-04  -2.6419316e-04   1.9582821e-04   5.6342821e-04   7.4256270e-04   5.9347047e-04   9.0295530e-04  -2.9065090e-04   4.0711268e-05   7.2845013e-04   9.8386663e-04
  -2.7731032e-04  -1.8979458e-06   3.6691985e-04   6.0982744e-05  -2.0353822e-05   1.3107010e-04  -4.2269327e-04   1.1356846e-04  -2.1883298e-04  -1.3854161e-04   3.2849677e-04   1.8624564e-03  -4.7918937e-05   2.7126005e-05   4.7601727e-04   1.7109932e-04   5.3628534e-04   1.3125678e-04   1.2428494e-03   1.9637716e-04   4.7877437e-04   3.3083366e-04   5.2747043e-04   2.5546068e-04   5.2288081e-04  -4.7522193e-05  -8.3695404e-04  -1.1123709e-04   7.4774049e-05   4.1470741e-04   4.1799556e-04   3.6088072e-04   2.8654860e-04   6.5405125e-04  -2.4055333e-05   7.4859132e-04   6.7144155e-04  -7.2510426e-05  -9.7074480e-06   8.3906995e-04  -4.0257745e-04   4.0126557e-05   4.4692043e-04   6.2821369e-04   6.3186092e-04   1.2052708e-03  -2.8094352e-04  -3.1727410e-05   8.9532277e-04   1.1500550e-03
  -1.4431312e-04   1.6411308e-04   4.2449875e-04   1.8827761e-04   1.0767241e-04   2.7554142e-04  -1.8586172e-04   6.8457525e-06  -7.2444782e-05  -6.4869630e-05   3.9566006e-04   1.8917846e-03  -1.8556751e-04   2.3865230e-05   4.7051260e-04   2.4642865e-04   2.7602311e-04  -3.4801760e-05   1.2041110e-03   6.5772940e-05   5.6182401e-04   1.1087237e-04   3.1863889e-04   5.6329952e-04   9.8377001e-04   1.8793920e-05  -8.1438507e-04  -2.1559992e-04  -6.4693182e-04   5.0723564e-04   4.9184113e-05   3.3135450e-04   5.2844896e-04   4.5637618e-04  -1.9073072e-04   6.7567534e-04   1.0762061e-03  -5.6337318e-05   3.1772972e-04   4.9321854e-04  -2.3644684e-04   7.7392287e-05   3.1493616e-04   6.0988986e-04   8.0210139e-04   1.0607218e-03  -3.3015598e-04  -2.5748633e-04   8.1279530e-04   1.1270905e-03
  -2.5267678e-04  -5.4202847e-05   3.3230754e-04   2.6750608e-04   9.4076138e-05   6.7686975e-05  -4.6082723e-04   6.3477572e-05  -6.5263805e-05  -2.6233948e-04   1.6356830e-04   1.9624911e-03  -1.3693952e-04  -2.4681663e-04   5.6280935e-04   1.1814637e-04  -5.0417497e-04  -3.9186983e-04   6.6321366e-04  -9.7700795e-05   3.2070457e-04   5.3211459e-04   6.1911670e-04   3.6493244e-04   2.9879677e-04  -3.8077626e-05  -3.9926273e-04   1.0542242e-04  -7.9095631e-04   6.0319185e-04   8.0665108e-04   7.3602918e-05   3.2165926e-04   4.2674036e-04  -1.1137402e-04   2.2116676e-04   1.9496593e-04   3.5518719e-05   4.3405720e-04   6.2254327e-04  -5.7802605e-04  -2.4488341e-04  -1.9404528e-04   5.1829626e-04   7.3953980e-04   8.5318112e-04  -4.9326662e-04  -2.7629291e-04   8.1548782e-04   1.1345660e-03
  -2.0220797e-04   1.4205161e-04   3.4077733e-04   4.2950021e-04   1.5364886e-04   6.1501336e-04  -2.3578966e-04   6.3375628e-04   5.1421343e-05  -1.2774979e-04   3.0276427e-04   2.2857566e-03  -1.5501071e-04  -2.0293804e-04   5.3075387e-04  -6.3580432e-05  -6.2873703e-04  -6.0363096e-04   1.1526750e-03  -1.3903882e-04   5.2339560e-04   6.1066815e-04   2.4041401e-04   6.1139435e-04   5.4301450e-04   1.0750959e-04  -7.9324091e-04   2.3239143e-05  -6.6712638e-04   8.3209533e-04   3.9621512e-04   1.6166689e-04   7.8065228e-04   7.5468741e-04   3.4785134e-04   6.1100430e-04   1.0959124e-03   5.0851732e-04   5.1645929e-04   7.4295112e-04  -2.6731493e-04   1.2465018e-04   5.5690802e-04   7.5259258e-04   8.0170529e-04   1.1990474e-03  -3.0914860e-04  -1.9308287e-04   8.3217653e-04   1.1810695e-03
  -8.0201360e-05   1.5654988e-04   5.8861682e-04   4.9685832e-04   1.4548162e-04   4.1408744e-04  -2.8707442e-04   6.8357540e-04   3.3072499e-04  -5.5852771e-04   5.8389804e-04   2.4173311e-03  -1.4678366e-04  -1.2078743e-04   2.6434043e-04   8.0636259e-05  -8.1935432e-04  -7.6135626e-04   9.9356344e-04  -1.7831349e-04   6.2833418e-04   7.6068944e-04   2.3485154e-04   8.1543013e-04   3.7657577e-05   1.6048600e-04  -3.8000604e-04   8.2761333e-05  -8.5104234e-04   8.3845254e-04   5.0354679e-04   3.8449408e-04   7.3743210e-04   7.3978660e-04   5.0421222e-04   5.8152626e-04   9.0252468e-04   4.4246187e-04   8.6218381e-04   6.7506393e-04   3.7348422e-05   3.6161277e-04   6.0395931e-04   7.3408172e-04   8.5892901e-04   1.2445793e-03  -1.5798864e-04  -2.9630579e-05   8.3702937e-04   1.0613974e-03
  -3.4475399e-04   1.0598512e-04   4.8018387e-04   3.2442625e-04  -8.2912768e-05   1.8263570e-04  -3.1917682e-04   3.0541758e-04   1.9811511e-04  -1.3961300e-03   5.7109346e-04   2.1650903e-03  -3.0649028e-04  -4.7276859e-04  -2.1810344e-04  -6.7031157e-05  -1.0044082e-03  -8.9501601e-04   1.9661860e-04  -2.6655462e-04   5.2199350e-04   5.5352622e-04   5.5227132e-04   8.7470631e-04  -1.9324840e-05   8.6587730e-05  -9.8517025e-04   1.6908240e-05  -8.6105801e-04   6.9492793e-04   1.2677215e-04   7.7126148e-05   4.2021659e-04   1.1596628e-03   7.0067582e-04   1.0450770e-03   5.0789758e-04   1.8921391e-04   6.8061636e-04   9.0183271e-04   3.9576189e-04   9.3120628e-04   5.4531358e-04   7.0814206e-04   1.0633162e-03   1.3486115e-03   3.4435824e-04   3.9867091e-04   1.1782525e-03   1.9807245e-03
  -3.3146454e-04   1.9692883e-04   4.4259033e-04   3.9178357e-04  -4.8327569e-05   6.9082319e-04  -2.2691429e-04   9.6482167e-05   2.5472956e-04  -1.3790535e-03   8.2455395e-04   2.2947337e-03  -2.4938720e-04  -3.8132421e-04   2.6943782e-04   2.7208676e-05  -1.0946471e-03  -9.7167154e-04   7.6844642e-04  -2.3526742e-04   7.6943508e-04   9.6043618e-04   3.4726836e-04   1.3776921e-03   3.4300538e-04   3.2618956e-04  -8.9612167e-04   1.8380498e-04  -1.4290701e-04   8.0782676e-04   8.9020515e-04   3.5543402e-04   9.8293449e-04   1.1688576e-03   4.8568854e-04   8.7800191e-04   8.0200675e-04   6.1489519e-04   5.6829973e-04   1.0984462e-03   6.5136520e-04   9.7286882e-04   5.6688610e-04   7.7184255e-04   1.2242725e-03   1.0970138e-03   4.7119704e-04   3.5039472e-04   1.2458171e-03   1.7335641e-03
  -1.5050880e-04   2.6652473e-04   4.6501835e-04   3.1649502e-04  -6.5505053e-05   2.5909100e-04  -1.0497669e-04   3.0669782e-04   1.7690113e-04  -8.4718730e-04   7.5910374e-04   2.1902213e-03  -2.2512209e-04  -3.3921134e-04   2.4908199e-04   1.6032116e-04  -9.7192597e-04  -8.6845714e-04   9.0554974e-04  -2.3787435e-04   7.3142425e-04   7.8336796e-04   3.6266021e-04   1.2473583e-03  -4.2793757e-04   3.2399906e-04  -6.1666506e-04   1.1766945e-04  -5.9717876e-04   9.7725086e-04   4.9877982e-04   2.3977946e-04   1.4033626e-03   8.8012713e-04   1.0345743e-04   1.2384419e-03   8.5359282e-04   2.0307860e-04   6.0152629e-04   7.9468242e-04   4.3694838e-04   9.4708637e-04   6.5594137e-04   8.8483025e-04   1.0345166e-03   7.5223541e-04   3.9816514e-04   2.9422587e-04   1.1877952e-03   1.3762132e-03
  -4.5118041e-04  -2.4021600e-05   3.4314313e-04   8.5863627e-05  -3.3690190e-05   9.0947826e-05  -5.2246719e-04   8.5831614e-04   9.3720664e-05  -8.9256157e-04   6.2523206e-04   2.1371464e-03  -2.1027443e-04  -2.3748154e-04   6.7529920e-04  -4.3057451e-05  -4.3674055e-04  -4.2209125e-04   1.1059891e-03  -1.0484225e-04   7.2419056e-04   3.8254866e-04   3.9717785e-04   1.1226727e-03   5.3135271e-04   2.0541120e-04  -5.6943705e-04   1.9611118e-04   8.8267414e-05   9.8929112e-04   5.3968438e-04   4.3548012e-04   1.1400875e-03   9.2068693e-04   6.8543479e-04   1.0702410e-03   1.1875251e-03   3.9684927e-04   1.0696365e-03   8.2403689e-04   5.1715405e-04   9.1649714e-04   5.5236655e-04   6.3446676e-04   1.3251401e-03   1.1826397e-03   4.4795620e-04   6.5054157e-04   1.3679267e-03   1.7781666e-03
  -2.4133634e-04   1.5018669e-04   4.6141061e-04   2.5225160e-04   5.6675704e-05   2.9729828e-04  -1.7439197e-04   2.6488156e-04   2.7385933e-04  -6.6386315e-04   8.3517138e-04   2.4499681e-03  -1.1524709e-04  -5.3913394e-05   5.1631837e-04   1.1962179e-04  -7.7310810e-04  -6.9499429e-04   1.1106554e-03  -1.3187737e-04   8.8082778e-04   6.6616299e-04   5.5713608e-04   1.3704745e-03   5.5167673e-04   4.8880116e-04  -6.0757744e-04   4.3029751e-04  -3.0464391e-04   9.3374931e-04   8.4455690e-04   3.8294209e-04   1.3407568e-03   8.7201054e-04   4.4448223e-04   9.5078466e-04   1.0792662e-03   8.5042900e-04   1.6547496e-03   1.0275516e-03   5.5573060e-04   1.1174297e-03   6.8557303e-04   8.4354571e-04   1.3608148e-03   8.3046342e-04   5.8875867e-04   5.6719407e-04   1.5719791e-03   2.1354458e-03
  -2.7516007e-04   1.2884039e-04   4.3602556e-04   1.7178885e-04   6.6049521e-05   2.2281201e-04  -2.0611502e-04   2.2878293e-04   1.4573337e-04  -6.6146260e-04   7.7105867e-04   2.3702020e-03  -1.5446011e-06   4.8812148e-05   8.8009908e-04   3.6373918e-04  -1.9726374e-05  -3.0766844e-04   1.1401412e-03   1.4458167e-04   8.7455934e-04   5.0386071e-04   4.2458001e-04   1.1230421e-03   2.6649167e-04   3.3298362e-04  -3.2339359e-04   2.4869165e-04  -5.5391208e-04   7.4760069e-04   6.0945028e-04   5.3177302e-04   1.0695748e-03   9.1729785e-04   7.7483972e-04   1.0650092e-03   1.5011807e-03   5.2098476e-04   1.0094172e-03   1.0341158e-03   4.8458826e-04   8.2603056e-04   6.7655783e-04   6.0110999e-04   1.1571953e-03   1.1296951e-03   4.6690911e-04   5.0933642e-04   1.2673264e-03   1.3966829e-03
  -3.2156814e-04   9.0555630e-05   2.8247118e-04   5.1522780e-05  -1.8276612e-04   2.1225082e-04  -3.3411759e-04   4.5592395e-05   7.9266429e-05  -6.6029222e-04   7.2171859e-04   2.4882935e-03  -1.6448091e-04  -1.2646199e-04   6.7573402e-04  -7.7094337e-06  -6.2645512e-04  -5.5319315e-04   9.5281261e-04  -9.8378485e-05   7.5016689e-04   4.3119234e-04   5.5225671e-04   1.0729961e-03   5.8411952e-04   2.6740183e-04  -7.2794565e-04   2.0423504e-04  -3.5430506e-04   6.4804114e-04   5.4213626e-04   3.4773754e-04   8.1010693e-04   6.8630464e-04   5.5834238e-04   4.9140397e-04   1.0314084e-03   3.4638238e-04   8.3010836e-04   9.6331927e-04   5.0757657e-04   7.6892873e-04   5.4643711e-04   7.0079538e-04   1.1955966e-03   7.2213105e-04   5.4853299e-04   7.4903388e-04   1.4614013e-03   1.7316963e-03
  -3.3847601e-04   1.5676432e-04   3.5867776e-04   8.8105866e-05  -1.5522828e-04   3.2356742e-04  -2.3846091e-04   4.0627760e-04   4.6948221e-04  -6.3311198e-04   8.0588338e-04   2.2663081e-03   3.9579263e-05   2.2519478e-05   1.1457183e-03   2.1716369e-04   1.4133914e-04  -1.8522605e-04   1.1071134e-03   2.4364023e-04   8.9758972e-04   5.3247449e-04   3.6049201e-04   1.1103590e-03   6.2831742e-04   4.6593245e-04   7.1048897e-05   3.1407905e-04  -3.3366916e-04   8.7753130e-04   9.7724516e-04   4.8577957e-04   1.2169167e-03   6.2125013e-04   6.4827973e-04   1.2904142e-03   1.5745417e-03   2.2089173e-04   6.8515085e-04   8.5009466e-04   5.4127350e-04   9.9134829e-04   8.5725845e-04   8.2642352e-04   1.2921137e-03   1.3760790e-03   7.4236223e-04   6.3448393e-04   1.6000973e-03   2.3312492e-03
  -2.3151367e-04   2.2507645e-04   3.8099571e-04   5.2489751e-05  -7.4236814e-05   5.4569227e-05  -3.1967164e-04   3.7008326e-04   2.6553991e-04  -5.5421202e-04   8.2580274e-04   2.4913186e-03   7.1674716e-05  -6.0144092e-05   8.0391805e-04   1.2951356e-04  -3.4590642e-04  -4.7263532e-04   1.0889268e-03   4.6601941e-05   8.3926326e-04   5.8168510e-04   2.4336438e-04   1.3300052e-03   5.6875515e-04   5.1608530e-04  -4.6702268e-04   2.8760656e-04  -1.7807477e-04   9.0083369e-04   4.9977575e-04   3.8300353e-04   1.0785295e-03   7.0194888e-04   4.0705738e-04   9.3434931e-04   8.9421833e-04   1.6348784e-04   1.1493926e-03   1.0323921e-03   5.9617497e-04   9.8469912e-04   8.0516748e-04   7.2919164e-04   1.3086350e-03   7.0745690e-04   8.2145870e-04   5.4294866e-04   1.4382204e-03   1.8113304e-03
  -2.6479884e-04   1.2457237e-04   2.2446472e-04   1.3401906e-05   1.9942187e-05  -1.5465547e-04  -4.6773665e-04   1.2358472e-04   2.1628986e-04  -6.0968305e-04   7.6312339e-04   2.5285974e-03   5.5342280e-05  -3.9916686e-05   6.6871208e-04   3.4954832e-05  -3.2173432e-04  -5.0578971e-04   8.0647890e-04   8.0253385e-06   7.3546567e-04   4.8196755e-04   3.3169202e-04   1.1683515e-03   3.9215392e-04   3.5331858e-04  -6.5481954e-04   2.7353945e-04  -5.9411948e-04   7.1029784e-04   7.1994425e-04   2.6664851e-04   6.8158080e-04   1.9178110e-04   4.7448970e-04   7.2799518e-04   6.1506120e-04   1.8748991e-05   4.5389016e-04   9.3728426e-04   5.5603252e-04   1.0041029e-03   3.5770307e-04   4.8915023e-04   9.5744024e-04   8.2560006e-04   8.6548727e-04   5.7177135e-04   1.4006305e-03   1.3462664e-03
  -3.0140401e-04   1.3629648e-04   2.4063760e-04  -3.7844318e-05   1.3649015e-04   3.6763606e-05  -1.0095876e-04   4.6626225e-04   1.6472087e-04  -5.2523310e-04   7.8919390e-04   2.3975035e-03   6.5367334e-05   3.6110378e-05   5.8923516e-04   1.4046744e-04  -2.5160442e-04  -3.3755440e-04   7.7259250e-04   1.2539452e-04   8.0766180e-04   4.8990571e-04   7.1907154e-04   1.2398027e-03   3.8425523e-04   5.0192914e-04  -1.8976498e-04   3.2209983e-04   5.0684379e-04   8.2626264e-04   7.8004581e-04   3.7495064e-04   1.0387241e-03   4.9651338e-04   5.5655924e-04   1.0314171e-03   1.3722125e-03   5.5209111e-04   1.0775988e-03   8.6864241e-04   4.7766636e-04   1.0384428e-03   8.1353582e-04   8.1602746e-04   1.1345741e-03   9.9692517e-04   8.9272123e-04   8.1858912e-04   1.3951636e-03   1.5122178e-03
  -1.0125123e-04   3.0452531e-04   2.8579109e-04   9.3619637e-05  -3.6269432e-04   8.5163862e-05  -1.6544422e-04   5.2341848e-04   1.4088670e-05  -4.1939714e-04   7.2018016e-04   2.5084883e-03   1.2126215e-04   8.3157720e-05   8.3039206e-04   1.8652172e-04  -2.8626699e-05  -8.2031467e-05   7.8380364e-04   2.2534134e-04   7.8388327e-04   3.7462189e-04   6.1148492e-04   1.2035541e-03   3.7618852e-04   3.2612609e-04  -6.8168790e-04   2.7363101e-04  -4.2914477e-04   7.1625394e-04   5.9153832e-04   2.3552224e-04   9.9684100e-04   7.2150188e-04  -1.8904702e-05   1.0249072e-03   1.7362806e-03   3.8314564e-04   5.8965373e-04   8.7602314e-04   4.6014512e-04   1.0291343e-03   6.5299764e-04   5.7020423e-04   1.0852061e-03   1.0549511e-03   9.4927242e-04   6.6444289e-04   1.2388095e-03   1.3468304e-03
  -2.5734096e-04   1.2585644e-04   2.3678328e-04  -4.2286949e-05  -6.1549625e-05  -2.3538661e-04  -2.5931443e-04   5.5521273e-04  -1.9898954e-04  -5.4948154e-04   5.9573696e-04   2.3468898e-03   2.4413699e-05   1.2457781e-04   8.8282052e-04   2.3456529e-04  -1.4352349e-04  -2.5874065e-04   3.9795638e-04   1.1569232e-04   6.5428158e-04   1.9901493e-04   5.6948251e-04   1.0238703e-03   4.7893910e-04   2.1941743e-04   2.6385213e-05   7.7232929e-05  -4.4258684e-04   6.5357646e-04   3.3429443e-04   1.7183255e-04   5.8587309e-04   5.5111916e-04   3.2697018e-04   6.8820064e-04   7.2236848e-04   1.8115730e-04   7.9432287e-04   7.1855920e-04   1.3562871e-04   6.6757278e-04   1.3923255e-04   6.2089949e-04   7.9860189e-04   7.7158923e-04   7.1859849e-04   6.4900541e-04   1.0240048e-03   1.5011287e-03
  -2.9521107e-04   3.7095804e-06   9.6819538e-05  -2.5353907e-04  -1.5688049e-04  -4.5089182e-04  -4.3064050e-04   1.0799221e-04  -2.0116560e-04  -1.0871316e-03   4.5477084e-04   1.7560881e-03  -1.0712440e-04   1.2187051e-04   7.4277050e-04   1.7192948e-04   2.6121404e-04   1.2152742e-04   4.8952724e-04   2.4147876e-04   6.1606284e-04   5.5375531e-05   1.6331366e-04   7.9695910e-04   5.8911584e-04   1.9302318e-04  -3.3898745e-04   2.9270235e-04  -6.3472532e-04   3.9090199e-04   1.4720557e-04   1.0595838e-04   7.7317155e-04   6.6184823e-04   6.8900175e-04   7.6939224e-04   8.1078877e-04   1.3768718e-04   5.9506821e-04   4.4369104e-04  -1.7049907e-04   1.8460945e-04   2.9478778e-04   5.9840159e-04   8.4378856e-04   1.1899200e-03   5.2457023e-04   4.8012828e-04   1.0923926e-03   1.2479129e-03
  -2.4261166e-04  -7.4061086e-06   2.1643097e-04  -1.5729635e-04  -2.3311963e-04  -3.4005183e-04  -3.0741966e-04   2.0662115e-04  -2.2328617e-04  -9.2934514e-04   4.9059058e-04   1.3993122e-03  -3.4804448e-06   3.4206762e-04   7.9343613e-04   1.8949740e-04   5.1468611e-04   1.4931618e-04   6.9219532e-04   3.6688044e-04   5.6912552e-04   3.4033521e-05   1.6486908e-04   4.8589468e-04   8.4388995e-04   1.7594988e-04  -1.8936468e-04  -2.8617929e-05   9.0436246e-05   2.2772276e-04  -7.0026916e-05   2.5282404e-04   4.0191857e-04   1.2323230e-04   3.7428879e-04   8.6099852e-04   4.6947086e-04   4.5461289e-05   9.0977369e-04   5.7001814e-04  -1.4909635e-05   4.3243080e-04   3.5465322e-04   5.1261194e-04   7.8340591e-04   4.7685110e-04   5.5005233e-04   3.7803510e-04   9.1468723e-04   1.1595675e-03
  -2.3590680e-04  -1.3500400e-05   7.2709066e-05  -2.8527956e-04  -3.8764898e-05  -3.3734459e-04  -4.0274119e-04   2.8456916e-04  -2.5797985e-04  -8.3889853e-04   4.3880584e-04   1.4738133e-03  -1.9798198e-04   7.3211013e-05   6.4944010e-04   7.9568545e-06  -1.0560894e-04  -2.8887077e-04   1.6334625e-04   5.2153617e-05   4.4018714e-04  -5.2760304e-05  -3.2691634e-05   4.9738883e-04   5.1949313e-04   5.7231962e-05  -7.3578447e-04  -1.4197738e-04  -5.1644092e-05   3.3146472e-04   5.5109395e-04   9.5363161e-05   1.4428742e-04   4.6002225e-04   3.2088181e-05   5.4002315e-04   3.6757434e-04  -1.9813507e-04   3.0794856e-04   3.8150998e-04  -1.9741543e-05   5.3889211e-04  -8.7182591e-05   3.8808881e-04   6.7169860e-04   8.8021165e-04   7.4302446e-04   5.2057591e-04   8.3200511e-04   1.0928510e-03
  -4.6202997e-04  -1.0870369e-04  -4.6264184e-05  -2.9765084e-04  -1.2415728e-04  -6.5428781e-04  -4.3383986e-04   1.8697963e-04  -4.8777304e-04  -7.1498775e-04   3.2420497e-04   1.4880536e-03  -2.6942062e-04  -2.4795841e-05   2.2694253e-04   1.4356081e-04  -3.5544927e-04  -2.2587422e-04   1.1256849e-04  -9.5197371e-05   4.5923292e-04  -6.1496667e-06   1.7645078e-04   6.6646759e-04   7.7720106e-05   5.0682680e-05  -5.6421827e-04  -1.1467141e-04  -5.9898401e-04   1.9616645e-04   4.6271336e-04   3.8748261e-05   3.2383742e-04   8.9832793e-05   4.1781593e-04   5.7451800e-04   6.7064201e-04   1.0403219e-04   3.2183068e-04   3.4392066e-04   5.8688009e-05   4.6140683e-04   1.9208790e-04   4.1435930e-04   7.5237331e-04   9.4550737e-04   8.4195420e-04   3.0257829e-04   1.0758458e-03   1.0989624e-03
  -9.3403396e-05   1.3750614e-04   1.5512753e-04  -6.3195381e-05  -1.3902971e-04   7.4900832e-05  -3.2220627e-04   2.8027204e-04  -3.0671831e-04  -4.6317696e-04   4.5464761e-04   1.5681834e-03  -1.5289667e-04   2.4424744e-04   4.1519222e-04   5.9489605e-05  -1.4490556e-04  -1.5514332e-04   7.9497037e-04   1.0984715e-04   5.4053328e-04  -1.1216005e-05  -6.8249719e-05   6.3427433e-04   6.4385956e-04   1.7678110e-04  -7.8194676e-04   5.2696464e-06  -1.0467682e-04   3.6236271e-04   2.5604854e-04   1.3901730e-04   4.6371162e-04   1.3070714e-04   1.6228949e-04   5.8933155e-04   8.2337344e-04  -1.2645748e-04   3.8131425e-04   3.5996060e-04  -4.1702166e-05   2.5275236e-04   1.2346257e-04   4.6531227e-04   6.9565594e-04   5.7667569e-04   7.0780376e-04   5.0092413e-04   9.4943948e-04   1.1605941e-03
  -1.9313623e-04   4.6860492e-05   2.0974907e-04  -1.8611821e-04  -1.3577250e-04  -3.9293247e-04  -3.6116829e-04   1.1579991e-04  -2.5164091e-04  -4.8653301e-04   2.7215772e-04   1.3422495e-03  -2.0021111e-04  -4.8025355e-05   1.6758908e-04   6.1939201e-05   1.7281534e-05  -8.6298569e-05   5.1929563e-04   7.0966533e-05   4.0486074e-04  -1.6065997e-04  -4.5285234e-04   3.1851401e-04   6.8755774e-04   3.2465839e-05  -4.6127164e-04  -2.2294830e-06   1.5122611e-04   1.7704928e-04   2.4850699e-04   7.0918577e-05   1.7135277e-05   4.8173772e-04  -2.5760406e-04  -3.2485994e-05   3.1107073e-04  -1.6113681e-04   6.0743565e-04   1.3601930e-04  -2.9682438e-04  -7.8554585e-06  -4.5306671e-05   4.8375607e-04   4.0938176e-04   6.8988668e-04   5.0023646e-04   1.7077137e-04   7.3402247e-04   1.1251952e-03
  -3.7397363e-04  -6.3814929e-05   1.1780156e-04  -2.5507691e-04  -3.1072859e-04  -3.1363196e-04  -3.8510203e-04  -1.8676929e-04  -4.2831982e-04  -3.8881126e-04   1.9697982e-04   1.2513835e-03  -2.1196109e-04  -1.3016470e-04   2.1334979e-04  -6.5929373e-05  -4.4512408e-04  -2.6425382e-04   2.4031058e-04  -6.3109859e-05   4.3492366e-04  -5.5898603e-05   4.5262474e-05   3.5987605e-04   7.2541261e-05  -6.1610467e-06  -2.1370419e-04   2.6548680e-05  -4.2407762e-04   2.3130086e-04  -1.7009857e-04  -4.2017222e-05   2.8187293e-04   8.7897606e-05   2.5447123e-04   7.8756094e-04   8.6197624e-04  -3.4168529e-04   8.1347425e-05   8.0491824e-05  -1.6551139e-04   1.6000100e-04   2.3586584e-04   4.6197709e-04   6.7198212e-04   2.3794836e-04   5.3531531e-04   3.1243262e-04   9.6260663e-04   1.4097895e-03
  -2.3315183e-06   2.3075526e-04   2.9614917e-04   9.2644121e-05   1.4902507e-04   1.2826442e-04  -5.5929107e-05   5.5796694e-04  -4.7502987e-04  -1.8810564e-04   2.9058370e-04   1.5145593e-03  -2.4723724e-04  -2.1366759e-05   3.1475729e-04   1.5040069e-04  -6.2355516e-04  -4.0360627e-04   3.5060060e-04  -4.1584957e-05   5.2218453e-04  -5.6785182e-05   9.7495147e-05   6.7767460e-04   3.5793104e-04   7.6952994e-05  -4.4922371e-04  -1.1820356e-04  -2.8498325e-04   3.1744022e-04  -5.2065683e-05   4.4240933e-05   3.8133140e-04   9.9686440e-04   2.5363002e-04   8.0999976e-04   4.3308953e-04   4.6841105e-05   3.3679098e-04   7.1476802e-04  -7.5162599e-05   1.0812534e-04   3.1409400e-05   5.2188255e-04   6.7678269e-04   1.7816416e-04   4.4958069e-04   2.3377662e-04   8.7106193e-04   1.0929529e-03
   1.5025129e-06   1.4877273e-04   3.2728582e-04   1.9840725e-05  -1.2136016e-04  -3.2044519e-04  -2.0330797e-04   1.7925971e-05  -5.2022311e-04  -2.7140556e-04   1.8166220e-04   1.3038861e-03  -2.1925528e-04  -5.8823203e-05   3.7496962e-04  -1.5740508e-05  -1.1017729e-04   2.8094506e-05   4.4117132e-04   1.0470259e-04   4.3188641e-04  -6.3862317e-05   4.1251245e-05   2.7269748e-04   5.2126037e-04  -6.9299349e-05  -3.7597329e-04  -6.8151741e-05  -3.6835685e-04   2.0629878e-04   1.9769403e-04   2.8376602e-05   2.1651636e-04  -1.6646933e-04  -1.5646749e-04  -6.8918183e-05  -1.7237804e-04  -4.9547415e-04   5.6936842e-04   2.8330009e-04  -3.0552052e-04  -1.1971109e-04   3.1372222e-06   3.2831373e-04   4.1246516e-04   8.5634791e-04   3.7158449e-04  -1.8044059e-04   7.0942525e-04   1.0415020e-03
  -2.3594315e-04  -8.2801846e-05   2.1256134e-04  -5.0837061e-05  -1.8277382e-04  -1.6023646e-04  -2.1324336e-04   4.4118473e-04  -4.3897703e-04  -1.4924767e-04   1.8082095e-04   1.3827387e-03  -2.9910344e-04   9.6415101e-07   1.5507100e-04   1.3891447e-05  -5.0850783e-04  -2.4367993e-04   5.4556789e-05  -9.5396237e-05   4.8340572e-04  -3.9390394e-05  -1.0919628e-04   3.6276420e-04  -1.3332276e-04   7.3508825e-05  -5.2344886e-04  -2.1464957e-04  -2.7786475e-04   1.1573907e-04   4.6783476e-05   1.2000044e-04   4.5471588e-05   1.4465765e-04   2.2755041e-05   5.8821845e-04   4.7616669e-04   7.3685100e-05   4.6163125e-04   6.9722423e-04  -2.4245624e-04   4.1075626e-05  -7.1527924e-05   6.3790329e-04   5.8284489e-04   2.7842325e-04   4.9570604e-04   1.6081952e-04   1.0246042e-03   1.0301262e-03
   7.6846743e-05   2.5940579e-04   4.4705617e-04   1.6612913e-04   1.5547789e-04  -1.8569018e-04  -1.1464494e-04   1.5684430e-04  -4.4353440e-04   1.4214162e-06   2.9205962e-04   1.5981561e-03  -2.1908538e-04  -2.8594426e-05   2.0964455e-04   6.8307010e-05  -6.8767497e-04  -3.1330495e-04   4.6379727e-04  -1.3254055e-04   5.7714578e-04   1.1396495e-04  -3.7324295e-04   6.6421635e-04   4.0463821e-04  -5.7526075e-05  -3.6386965e-04  -1.0676813e-05  -3.4387116e-04   2.9053644e-04   4.2154561e-04   4.5186986e-05   6.8869442e-04   7.8954751e-04   9.9897757e-04   9.5469330e-04   1.4853756e-03  -3.3931120e-04   7.7117863e-04   4.4663338e-04  -3.1010091e-05   1.5142265e-04   7.2621242e-06   3.9022454e-04   7.1794598e-04   4.3064696e-04   4.6075537e-04   2.7980548e-04   8.6105120e-04   8.9362857e-04
   6.4901687e-05   1.9702659e-04   3.6900156e-04   1.3904287e-04   4.6730995e-05  -2.1734530e-04  -1.7037614e-04   2.0641969e-04  -6.2201062e-04  -1.1493162e-04   2.6812218e-04   1.4291306e-03  -2.6660712e-04   5.3913536e-06   1.5655234e-04   2.1238497e-04  -5.5743370e-04  -1.3075292e-04   4.1638745e-04  -1.0576994e-04   5.1497918e-04  -2.9967823e-05  -1.5980381e-04   3.8070208e-04   6.4909202e-04  -1.6269203e-04  -4.1088468e-04   8.6211781e-05   6.0389786e-05   3.2514636e-04   8.5424777e-05   1.0820809e-04   4.0929561e-04   6.6114217e-04   3.4005192e-04   1.5672222e-04   2.7157197e-04  -8.3256818e-05  -1.9545165e-05   2.3390510e-04  -4.6659194e-04  -1.2136508e-04  -1.0404263e-04   2.4618779e-04   4.4365946e-04   4.9817649e-04   3.1206178e-04   1.4085427e-04   6.5629883e-04   1.1413057e-03
  -1.1505905e-04   2.4865971e-05   2.2632121e-04   2.8593131e-06  -1.0123502e-04  -3.5029554e-04  -1.4841204e-04   2.4726900e-04  -8.3648578e-05  -2.6116450e-04   1.2223319e-04   1.1508482e-03  -3.5544531e-04   4.8039714e-05   2.2660890e-04   9.1332535e-05  -4.4995910e-04  -1.4179882e-04   7.6019339e-04  -1.1120844e-04   4.8680935e-04  -7.0343718e-05  -1.4809602e-04   4.5396245e-04   5.1743223e-04  -9.4405383e-05  -3.5650219e-04   8.8443499e-05  -5.8706060e-05   7.5433345e-05  -2.1481508e-04   1.4641983e-05   2.3372113e-04  -3.1985259e-05   4.5236122e-04   3.5666933e-04   8.4621203e-04   1.0621145e-04   3.1557339e-04   4.4506186e-04  -1.7067904e-04   1.6475483e-04  -8.3369858e-05   3.2295508e-04   5.9934205e-04   4.3791614e-04   4.3370071e-04   2.8347145e-04   9.1703970e-04   1.0182429e-03
   2.5116253e-05   2.4122992e-04   4.3532834e-04   2.6346318e-04   1.2167227e-04  -5.4255966e-04   1.3634162e-04   4.5657123e-04  -3.8476431e-04  -1.6525525e-04   3.0278965e-04   1.1158930e-03  -2.3086336e-04   1.4103578e-04   1.2082242e-05  -1.8597747e-07  -5.6802720e-04  -1.1752810e-04   2.6909678e-04  -1.1736871e-04   5.8276718e-04   3.3291442e-05   4.3020646e-05   4.1120645e-04   6.0088671e-04   7.7234123e-05  -2.8991804e-04   1.3482623e-04  -3.3030377e-04   3.8398610e-04   9.8089816e-04   1.2391500e-04   4.5302001e-04   7.1050535e-04   6.1558111e-04   6.3302933e-04   5.7096005e-04   2.2255964e-04   4.5547655e-04   4.9733440e-04   6.4984733e-06   1.7082230e-04  -1.7627046e-05   6.2467827e-04   6.0243410e-04   4.5002505e-04   6.0421473e-04   4.0747298e-04   8.6089800e-04   1.1459423e-03
   5.4043694e-06   1.3675679e-04   3.7427965e-04   1.2955208e-04  -1.6602781e-04  -1.7493533e-04   1.9597283e-04   2.4225833e-04  -1.8147618e-04  -1.4101600e-04   2.7546138e-04   1.0069262e-03  -4.1508974e-04  -8.0651196e-05   5.5893750e-05   6.1191196e-05  -9.9714799e-04  -5.0643535e-04   6.1425997e-04  -3.1063097e-04   5.3244666e-04  -6.4707085e-05  -3.6358251e-04   3.6221935e-04   2.8728170e-04  -7.6740493e-05  -5.6672865e-04   3.2400229e-05  -9.5668860e-04   5.6855095e-04  -1.1651991e-04  -3.0906569e-05   6.3609815e-04   3.8683877e-04   6.4936851e-04   7.5294124e-04   4.3220507e-04  -3.9602415e-05   8.6147990e-04   6.7963667e-04   3.3590905e-04   6.6113786e-04   1.9439273e-04   4.1109609e-04   7.5985491e-04   3.0828695e-04   6.3474179e-04  -7.3172232e-05   7.8990072e-04   1.3657433e-03
  -2.4474683e-04  -7.6890668e-05   1.6949144e-04   3.6709931e-05  -1.2105428e-04  -3.1302345e-04  -9.1231806e-05   9.3315879e-04  -4.8609762e-04  -2.2865548e-04   1.8473371e-04   7.9993025e-04  -4.9781083e-04  -1.2384198e-04  -3.0284704e-04   1.1148040e-04  -8.0035679e-04  -2.5830543e-04   2.9377328e-05  -2.5031966e-04   5.0731498e-04  -2.7948024e-04  -7.4275595e-04   5.4487155e-05  -1.9289937e-04  -2.8100054e-04  -2.3592652e-04  -5.3765911e-05  -6.8149799e-05   1.5554641e-04   2.0205206e-04  -3.1093532e-05   5.1808846e-04  -1.6174332e-05  -2.7003844e-04   4.9606606e-04   1.9055737e-04  -1.5312730e-04   1.6791568e-04   2.1008894e-04  -7.7062294e-05   2.4561866e-04  -1.8198478e-04   3.4053365e-04   3.3815581e-04   2.3157541e-04   5.6462910e-04   3.9809369e-05   7.8531646e-04   1.0411338e-03
  -2.0627010e-04  -1.3213549e-04   1.7362044e-04   8.1061853e-06  -1.8608476e-04  -3.3726147e-04  -1.0437462e-04   3.2355066e-04  -4.2520571e-04  -2.9969244e-05   2.0754508e-04   2.5934351e-04  -2.9012901e-04   2.6898691e-04   1.3871559e-04   2.1688262e-04   3.6282776e-04   1.0873468e-04   6.3912658e-04   1.6583549e-04   5.2466372e-04  -1.8048889e-04  -2.9395710e-04   1.1580633e-04   5.1860616e-04  -8.4121879e-05  -2.7435493e-05   6.0657239e-05  -2.2895097e-04   2.8507638e-04   4.0515293e-05   2.9238907e-04   1.9820839e-04  -1.2195314e-04   1.3065127e-04   3.3577962e-04   6.0294720e-04   6.2871142e-05  -7.7677170e-05   2.6739493e-04  -2.6466845e-05   2.2346590e-04  -2.4056461e-04   5.2300596e-04   5.4052245e-04   5.9487898e-04   6.1470328e-04   8.0492660e-05   7.7945989e-04   1.1447305e-03
  -2.2645644e-04  -1.2086898e-04   1.3452955e-04  -6.5911532e-05  -2.6063769e-04  -6.6228490e-04  -2.0362395e-04   4.6679030e-05  -2.8658836e-04   3.0823252e-05   1.3881948e-04   2.3990008e-04  -4.3041041e-04   2.9196712e-05   1.3473797e-04   2.5978376e-04  -1.7254886e-05  -1.2250501e-04   6.8226951e-04   3.1000214e-05   4.1166920e-04  -2.6792975e-04  -3.8057537e-04   8.2468840e-05   1.9038613e-04  -1.2740066e-04  -4.5330339e-04   1.8983371e-04  -5.5377965e-04   2.8833494e-04   1.3506023e-04   1.8697050e-04   4.0002601e-04   3.2211587e-04  -2.7996203e-04   2.9220630e-04   4.5846449e-04  -3.0357888e-04  -1.0818254e-04   2.3240143e-04  -7.3050505e-05   1.7674587e-05  -2.5010979e-04   2.1647195e-04   4.0480559e-04   4.4138284e-04   4.3315807e-04   2.2074067e-04   5.6898285e-04   6.5346964e-04
  -3.7983368e-04  -2.9746618e-04   5.1527444e-05  -2.4693456e-04  -2.3680950e-04  -4.9461238e-04  -4.4201585e-04  -1.7060364e-04  -6.7188870e-04  -7.6621436e-05  -5.5758897e-05  -6.6835164e-05  -4.3598094e-04   8.1995342e-05   1.3054549e-04   1.1855068e-04   3.0732006e-04  -1.5167199e-05  -8.3927665e-07   5.1978768e-05   2.1707719e-04  -3.9744773e-04  -6.4591091e-04  -2.2221993e-04   1.6334146e-04  -3.4262051e-04  -4.3936286e-04  -1.5092257e-04  -5.2771886e-04  -7.0582377e-05  -1.4596482e-04  -1.0102677e-04  -3.2662228e-04   1.0304255e-05  -1.1246080e-04  -6.7344590e-05   5.1863672e-04  -4.7050189e-04  -1.2857975e-04   1.7030525e-05  -6.2085266e-05  -5.9269383e-05  -3.4568782e-04   2.3356979e-04   2.6417061e-04   2.4339871e-04   5.9464841e-05   4.7685928e-05   5.6522997e-04   1.2423112e-03
  -4.9270602e-04  -3.2189846e-04   3.9740364e-05  -2.7497922e-04  -5.1741557e-05  -6.1323721e-04  -3.1204193e-04   2.6886913e-04  -6.8832643e-04  -4.3948705e-05  -5.9022572e-05  -3.2554773e-04  -3.2951840e-04   1.2181063e-04  -7.4790740e-05   2.7148094e-04   8.7291742e-04   3.8980742e-04   1.1423979e-04   2.6297785e-04   3.0806611e-04  -2.5173076e-04  -5.2940543e-04  -3.1793182e-04   8.1573683e-04  -6.3938518e-05   1.3703501e-04   2.0846128e-04  -3.2073224e-04   2.7658069e-04  -4.3936138e-04   1.6316456e-04   3.9561820e-04   2.9473903e-04  -1.3490577e-05   1.5021810e-04   5.1656662e-04  -1.3572539e-04   3.9162906e-04   2.6699499e-04  -2.9043909e-04  -4.1872435e-04  -2.2397237e-04   4.6750161e-04   2.0165480e-04   2.2336836e-04  -1.9559684e-05  -1.3935410e-04   5.1818107e-04   1.0482686e-03
  -4.2720011e-04  -4.1484373e-04   3.8792008e-05  -3.2567335e-04  -2.2648419e-04  -7.6044037e-04  -2.6462786e-04  -1.9016578e-04  -4.9209577e-04  -4.2455198e-05  -1.9169686e-04  -5.4920017e-04  -3.8690443e-04   8.0074795e-05  -1.5216293e-04   3.3239197e-04   9.2961569e-04   4.4025641e-04  -5.7031080e-04   2.3761037e-04   1.1970583e-04  -4.2461022e-04  -7.2888687e-04  -4.7834293e-04   4.9477321e-04  -3.1062108e-04   2.3937678e-04  -4.5199176e-05  -2.9023804e-04   2.1382609e-04  -1.2396912e-04   1.2333000e-04  -1.1127207e-04   2.1578844e-05  -9.1193484e-05  -8.8375171e-05   6.1706646e-04  -3.1136908e-04  -3.1438035e-06   8.8158173e-05  -3.4311574e-04  -4.3491783e-04  -3.9625171e-04   1.8268925e-04   1.0796540e-04   4.7734554e-04  -1.5276190e-04   2.1297434e-05   2.9138566e-04   5.4321851e-04
  -7.4480311e-04  -6.3580781e-04  -8.7509987e-05  -5.7709828e-04  -3.9233954e-04  -6.5882277e-04  -5.3068594e-04  -7.2026305e-05  -8.5749925e-04  -1.6042200e-04  -3.9618000e-04  -8.0690434e-04  -4.4383266e-04   6.2164632e-05   1.9611910e-04   1.7029803e-05   7.3213084e-04   1.9539687e-04  -7.0993905e-04   4.8580816e-05  -8.8120745e-05  -5.1014742e-04  -7.7141100e-04  -7.1364921e-04   1.0690650e-04  -4.4286906e-04  -3.8770065e-04  -2.8581484e-04  -2.0187888e-04  -1.0224686e-04  -3.5473524e-04  -9.1040703e-05  -5.2496791e-04  -1.8300053e-04  -3.4957027e-04  -1.1298413e-04   4.7326419e-05  -2.3585795e-04  -5.4150930e-04   1.6624409e-04  -3.6424672e-04  -4.8615690e-04  -3.0838684e-04   2.9554460e-04  -5.0462528e-05   8.0193643e-04  -1.8138143e-04  -1.4306717e-04   2.8574094e-04   4.3623830e-04
  -6.8009796e-04  -4.8976624e-04  -6.5165666e-05  -4.7552734e-04  -5.4868613e-04  -3.7205761e-04  -2.3365278e-04  -4.2272385e-04  -4.4262322e-04  -3.2303651e-05  -3.1011557e-04  -6.4094155e-04  -4.4636521e-04  -7.5899647e-05  -2.8450451e-05  -7.2625589e-05   5.7614024e-04   1.8896910e-04  -2.2463295e-04   5.5068806e-05   4.7149692e-06  -2.7392092e-04  -1.0105105e-03  -5.3429394e-04   3.5704611e-04  -3.5081175e-04   4.9676700e-04  -1.7952871e-05  -5.0262897e-04   2.8992127e-04  -8.9989910e-05  -1.4390801e-04   2.8499571e-04   4.8999605e-04   5.2583193e-05   1.9134133e-04   5.0909730e-04   2.0145107e-04   4.5535876e-04   2.1596096e-04  -2.3447923e-04  -2.7861324e-04  -1.5851532e-04   3.0403174e-04   9.2575414e-05   4.9180712e-04  -1.2095023e-04  -1.2040573e-06   2.9987661e-04   3.7354406e-04
  -6.4861862e-04  -4.8199654e-04  -1.3448394e-04  -5.3378730e-04  -2.4286531e-04  -6.2440860e-04  -3.6306572e-04  -1.9890672e-04  -4.5709551e-04  -3.6407910e-05  -3.5788011e-04  -6.0629030e-04  -4.3732571e-04  -1.7175614e-04   1.9935259e-04   5.1818937e-05   4.5245088e-04   1.4006940e-06   3.2457079e-05   2.2918483e-05  -7.7006975e-05  -3.2440299e-04  -5.8935274e-04  -4.8495695e-04  -2.6354476e-04  -4.0291855e-04  -2.8093769e-05   3.0508758e-05  -2.7441539e-04   2.1544228e-04  -1.7128895e-04  -2.4652548e-04   8.1477461e-05  -7.3696319e-05  -5.9819256e-04  -2.4922148e-04   4.2655945e-04   3.3459812e-05  -1.0252766e-04   2.4622172e-04  -4.7412352e-04  -4.4735253e-04  -4.3734568e-04   2.0527231e-04  -1.7144908e-04   2.2761434e-04  -3.1446878e-04  -1.3142516e-04   8.1614671e-05   3.1092626e-04
  -7.6389767e-04  -6.6445768e-04  -2.0747626e-04  -6.6183362e-04  -5.6763244e-04  -7.5733982e-04  -6.4667576e-04  -2.9259050e-04  -9.6582324e-04  -1.2473926e-04  -5.2571378e-04  -7.9124392e-04  -5.5097742e-04  -1.7509674e-05  -6.3662206e-05  -7.1726427e-05   4.5730997e-04   3.0648716e-05  -4.8558158e-04   7.5780822e-06  -1.4862623e-04  -4.7881922e-04  -7.2651968e-04  -7.7898108e-04   2.8839317e-04  -3.9294886e-04  -1.3361576e-04  -1.9401175e-04  -7.5383607e-04   1.4752433e-04  -1.1221827e-04  -1.1573576e-04  -2.9845841e-04   2.4223092e-04  -2.1618621e-04  -1.6330605e-04   2.5647870e-04  -2.1403123e-04   4.5292513e-04   3.4980287e-04  -3.3052228e-04  -4.3664873e-04  -1.8738810e-04   1.9999711e-04   7.3973344e-05   1.5715823e-04  -1.1344373e-04  -2.0868907e-04   3.0991275e-04   6.5500307e-04
  -5.7680014e-04  -3.1971978e-04  -8.3018291e-05  -3.9369092e-04  -5.6930300e-04  -6.9354847e-04  -3.7172585e-04   5.7759738e-05  -6.7714904e-04   7.8496822e-05  -2.8242977e-04  -4.0889575e-04  -5.0548662e-04  -3.8042807e-04  -1.0219985e-04  -1.0274363e-04   4.3753655e-05  -1.2851939e-04   1.0359164e-04  -7.0326241e-05  -9.9852596e-06  -1.8398643e-04  -8.1616064e-04  -3.5156333e-04   1.5481333e-04  -1.7579326e-04   2.1770790e-04  -1.3329596e-05   9.0396330e-05   3.4323885e-04  -1.8901698e-04  -1.1886589e-04   2.9819939e-04   1.7944754e-04  -2.1995103e-04   1.3670749e-04  -6.3915824e-05   2.2880030e-04   2.7285915e-04   2.1060591e-04  -1.9848840e-04  -1.5726507e-04  -1.3012199e-04   1.1079522e-04   1.6186634e-04   9.5443560e-05  -5.7602614e-05  -1.4931271e-04   2.5000502e-04   4.1135913e-04
  -5.4607040e-04  -2.8287887e-04  -1.3569077e-04  -3.7697691e-04  -4.0145195e-04  -6.0653855e-04  -4.1552901e-04   3.6411177e-05  -3.6943806e-04   1.2759258e-04  -2.8781957e-04  -1.8601539e-04  -4.5461443e-04  -2.5532334e-04  -4.3237578e-05  -2.8311683e-06  -1.8561425e-04  -2.7938216e-04  -2.5389419e-04  -1.5440059e-04  -2.8237175e-06  -3.0692742e-04  -7.4198737e-04  -2.6966914e-04  -1.1668227e-04  -3.0463006e-04  -6.2768278e-04  -1.9846808e-05   8.3107145e-05   9.5116789e-05  -3.1521504e-05  -1.5823675e-04   3.6119047e-05   1.2179802e-04   2.4368806e-04  -1.2654031e-04  -7.6973287e-05  -9.4540810e-05   7.6110306e-04   6.7441340e-04  -2.9014671e-04  -2.0102113e-04  -1.4781326e-04   1.3493138e-04   2.9786997e-05   2.2244753e-04  -1.6147963e-04  -2.5690289e-04   1.7933929e-04   4.3015338e-05
  -6.7101372e-04  -3.8266688e-04  -2.1551370e-04  -5.4418790e-04  -4.6766506e-04  -8.8452263e-04  -5.4459105e-04  -5.8183965e-04  -4.4587356e-04   1.2947441e-04  -2.9577775e-04  -2.2258067e-04  -5.2269513e-04  -4.3476716e-04  -3.0327373e-04   5.7259022e-05  -3.4126363e-04  -3.5427386e-04  -3.8586356e-04  -2.1868800e-04   4.5275967e-05  -9.7179378e-05  -5.6366710e-04  -1.0060251e-04  -4.7399776e-04  -1.5503918e-04  -6.0676834e-05   1.7729210e-06  -5.8154418e-04   5.5769674e-04   2.8059317e-04  -1.0347805e-04   2.0848983e-04   6.8530359e-04   1.5610126e-04   2.2270127e-04   1.0699589e-03   1.0548384e-04   3.5031888e-04   5.4378534e-04   8.2952414e-05   4.5149376e-05  -1.9594436e-04   5.5329420e-04   3.7143045e-04   8.4004708e-04   1.2843698e-04   1.2421752e-04   3.7741225e-04   5.6168053e-04
  -3.2599314e-04  -2.0781883e-05  -6.5867891e-05  -2.1523504e-04  -2.7887180e-04  -5.4713653e-04  -3.6913212e-04   1.5890475e-04  -5.1211647e-04   2.8088674e-04  -6.7140543e-05   4.4545755e-05  -3.0897121e-04  -1.4457076e-04  -7.0086957e-05   3.6296726e-05  -1.0411211e-04  -1.0581929e-04   1.4781170e-05  -4.2325926e-05   1.5573596e-04  -1.6254327e-05  -4.2520885e-04  -6.7543515e-05   7.2955059e-05  -1.1527042e-04   3.3032536e-04   4.1029143e-05  -2.1169186e-04   5.5844127e-04   1.2306189e-04  -1.5355569e-04   3.5399466e-04   4.6061099e-04   3.6127298e-04   1.1295941e-04   5.4284837e-04   5.0281698e-04   2.4391169e-04   5.0734944e-04  -7.8901125e-05   1.0626734e-04  -1.8197707e-05   4.5557658e-04   2.1280974e-05   1.8019017e-04   4.7294183e-05   7.7553326e-05   3.3894289e-04   5.5775512e-04
  -3.6241076e-04  -1.5113968e-04  -9.1047645e-05  -3.5194642e-04  -2.8515610e-04  -3.9895897e-04  -4.0136883e-04  -7.6120334e-05  -6.1817677e-04   1.9037395e-04  -2.1569710e-04  -5.7607245e-05  -3.5463052e-04  -1.7619022e-04  -3.3888628e-04   8.7526212e-05   4.9055852e-05  -1.3115788e-04  -1.8150773e-04  -2.9188157e-05   5.7088379e-05  -1.9163458e-04  -5.8474526e-04  -2.5583885e-04   1.8108549e-04  -1.6609166e-04  -1.1801632e-04   6.3016589e-05  -5.6252454e-04   4.4832990e-04   1.0020273e-04  -3.7895457e-05   4.0168998e-05   2.4354344e-04  -2.1120904e-04   4.4649451e-06   1.1885900e-03   6.1364939e-05   9.3048344e-05   3.5434350e-04  -2.1988314e-04  -9.5368938e-05  -6.9774054e-05   3.8918381e-04   9.6310177e-05   1.1735540e-04  -7.0683040e-05  -1.2684865e-04   1.0497333e-04   3.1564408e-04
  -4.2229603e-04  -2.4845221e-04  -1.3273730e-04  -3.5697667e-04  -3.8654802e-04  -6.5566652e-04  -4.2237381e-05   1.8487973e-04  -5.6262797e-04   1.9114923e-04  -2.3024841e-04  -7.9719357e-05  -3.2306215e-04  -1.7745983e-04  -9.0418607e-06   4.9022958e-05   1.3615946e-04   1.2943403e-04   2.6416435e-04   1.0724243e-05   8.9820976e-05  -1.0923237e-04  -1.8118981e-04  -2.1347684e-04   5.7884790e-05  -4.2741649e-05  -2.5184502e-04   3.4308687e-04  -1.7488061e-04   4.2576232e-04   3.5944180e-05   1.0280209e-04  -5.2409861e-05   2.0694011e-04   8.0839753e-05   2.2422546e-04   1.3811559e-04   5.9172697e-04   8.4674131e-04   1.7077147e-04  -2.4262488e-04  -8.1137376e-05  -1.5384414e-04   2.1125098e-04   7.3027761e-05   4.8748063e-04  -9.8003336e-05  -7.3322124e-05   3.6622374e-04   4.3205958e-04
  -1.0822049e-04   3.9649658e-05   6.5420070e-05  -1.9383998e-04  -1.0277472e-04  -1.1287267e-04  -3.5918946e-04  -2.6308672e-04  -3.2095885e-04   2.6294304e-04  -1.0246696e-04   1.3198596e-04  -2.4574233e-04  -3.0309873e-04  -1.3543171e-04   3.0626281e-05  -2.7070142e-04  -8.7903842e-05  -3.3657174e-04  -8.0132049e-05   1.7570361e-04   5.9113492e-05  -3.7306160e-04   1.1655065e-04  -6.4681706e-05  -7.0768467e-05   1.2692688e-04   3.2714655e-05   8.2220453e-05   5.8768527e-04   1.9779497e-04  -1.5910783e-04   4.1729101e-05   1.8929727e-04  -1.9744437e-04  -6.1321894e-05   3.9708440e-04   3.2510824e-04   1.2186932e-04   3.4708143e-04  -3.7622856e-05   2.0453021e-05  -4.6675985e-05   2.1391927e-04   1.1017025e-04   3.0970754e-05   1.6726360e-04   1.1888283e-04   2.5410473e-04   6.9890224e-04
  -2.4570408e-04   2.3218503e-05   4.0187973e-05  -2.1737631e-04  -2.7311672e-04  -4.1941172e-04  -2.2311433e-04   4.0586721e-07  -6.6111196e-04   1.9527112e-04  -4.1649007e-05   1.4050702e-04  -2.7586444e-04  -1.2032584e-04  -4.7301696e-04  -5.9584585e-05  -5.8714801e-04  -3.7483903e-04  -5.3336460e-04  -1.9872939e-04   1.3317566e-04   7.1701994e-05  -5.2703469e-04  -1.9077231e-04  -3.6499562e-04  -8.5919324e-05  -5.4462219e-04  -1.6299549e-04  -3.5210210e-04   5.4906128e-04  -1.8226841e-04  -2.4696055e-04   1.6128749e-04   5.4959884e-05   4.3770912e-04  -1.7067659e-04   7.9618418e-05   2.2551735e-04   6.4063311e-04   2.8778444e-04  -6.4505024e-05  -7.4272852e-05  -3.2813763e-04   1.8700768e-04  -7.8636288e-07   4.0788532e-04  -2.4386645e-05  -1.4721313e-04   8.3594059e-05   2.4741934e-05
  -4.7403373e-04  -1.1740857e-04  -1.1987911e-04  -3.4830414e-04  -4.2429083e-04  -7.5502793e-04  -2.0713973e-04  -5.2660954e-04  -5.8532023e-04   1.0818588e-04  -1.1759407e-04   7.4318713e-08  -3.8336523e-04  -3.1184981e-04  -2.2924277e-04  -1.0920553e-04  -6.6534750e-04  -1.7447108e-04  -3.9296728e-04  -2.2778726e-04   1.8828201e-04  -7.5313328e-06  -4.4432926e-04   1.7658729e-05  -1.7540184e-04  -1.0661259e-04  -7.3207141e-04  -1.5871804e-04   5.8028195e-04   2.9967824e-04  -2.1688834e-04  -2.1413561e-04   1.4979532e-04   3.6151460e-04   1.2430598e-05   3.0764900e-04   5.9200309e-05   5.3054019e-04   2.6017157e-04   4.7599489e-04   1.3614554e-04   1.2035949e-04  -3.2418346e-04   3.3434416e-04   3.1539766e-04   3.6442740e-04   1.7650636e-04  -1.5236528e-04   4.0776262e-04   4.5381190e-04
  -9.2015052e-06   2.2919860e-04   1.0261565e-04  -2.5513702e-05  -1.2673557e-05  -4.9179583e-04  -3.1876149e-05  -3.5170688e-05  -1.8770726e-04   2.6402599e-04   1.0132683e-04   2.2399417e-04  -2.6000149e-04  -1.8378488e-04  -2.9441423e-04  -6.8345544e-05  -6.4445724e-04  -3.2701320e-04  -1.4850270e-04  -1.4506378e-04   3.2089773e-04   1.0550745e-04  -4.4026203e-04   2.8837257e-04  -1.0421459e-04  -9.3659219e-05   2.0781690e-05   3.1375661e-04  -7.8991806e-04   5.9706159e-04   1.9392649e-04  -1.5434809e-04   4.7546308e-04   4.4780652e-04   4.0055378e-04   2.0802578e-04   5.3076906e-04   6.8691850e-04   6.7277602e-04   5.3152954e-04   7.8494042e-05   1.2366589e-04  -1.2801807e-04   3.2754694e-04   3.1570319e-04   2.0293429e-04   2.9936558e-05  -6.5193308e-05   3.0090491e-04   3.6537336e-04
  -2.3054288e-04   1.3512818e-04   8.7036540e-05  -1.4110311e-04  -2.1679883e-04  -3.7424147e-04  -1.3570566e-04   1.8668205e-04  -3.2081647e-04   3.0351733e-04   3.7224203e-05   2.6772174e-04  -2.5597302e-04  -1.7827612e-04  -2.0575954e-04  -8.9923116e-05  -5.4270757e-04  -3.2029103e-04  -1.7888084e-04  -1.7069193e-04   2.2543894e-04   2.9076084e-05  -3.2726000e-04   7.2081653e-05  -1.4929473e-04  -5.6001929e-05  -2.1739441e-04  -2.7058885e-04  -2.1123617e-04   3.3127394e-04  -7.9735364e-05  -3.1591338e-05   1.1458767e-04   6.3813721e-05   4.0881621e-04   1.3837188e-04   4.6763016e-04   4.5565289e-04   8.0724456e-04   3.3315993e-04  -1.9076038e-05   3.4489236e-05  -2.1372319e-04   1.3410862e-04  -4.5775223e-06   2.7840576e-04   1.7151515e-05  -2.4253357e-04   1.7172519e-04   2.0886080e-04
  -3.7218671e-04  -9.1257476e-05  -4.4494100e-05  -2.5985000e-04  -2.5294843e-04  -4.8570347e-04  -2.8034014e-04  -7.7002078e-05  -6.9191202e-04   1.9665420e-04  -1.4490791e-04   1.4525502e-04  -3.6339954e-04  -1.7094461e-04  -2.8391764e-04   6.1293435e-06  -5.2795332e-04  -1.9919414e-04  -2.7437907e-04  -1.9034397e-04   1.4728917e-04   2.0933314e-05  -3.5151470e-04  -1.4214223e-04   2.3448613e-04  -1.7114875e-05  -4.9458828e-04   6.5961445e-05   2.7675039e-04   3.1385809e-04   1.6495472e-04  -2.0161117e-04   6.6148769e-04   3.1045158e-04   3.0915081e-04   4.4367046e-04   1.0692817e-03   2.6263203e-04   4.5504232e-04   6.3447515e-04   8.9176858e-05   2.0707712e-05  -3.5854147e-04   2.8098488e-04   5.0918010e-05   1.3387935e-04   3.6404537e-05  -8.9289810e-05   3.9117102e-04   5.3488609e-04
  -8.9374436e-05   1.5102554e-04   9.5319658e-05  -7.6697404e-05  -6.1428917e-05  -3.7834310e-04  -8.2666520e-05   2.4893152e-04  -4.9891148e-04   3.2828987e-04  -5.1010034e-07   1.5536080e-04  -1.9763291e-04  -1.2476277e-04  -1.9008855e-04  -3.4850153e-05  -3.4951750e-04  -2.9096717e-04   2.2531876e-04  -6.8145571e-05   2.8202150e-04   1.8531730e-04  -5.6994893e-04  -4.0187850e-05   4.3554214e-04  -5.8923550e-05   5.6974892e-05   2.4904907e-04   3.1739299e-04   7.2728697e-04  -1.1211333e-04  -7.5850265e-05   2.0793745e-04   4.6573483e-04   5.6853727e-04   4.3219014e-04   4.0500861e-04   4.7154175e-04   9.1873226e-04   4.2960633e-04   2.2438844e-05   6.5699161e-05   5.5314144e-06   1.2402206e-04   1.1434979e-04   3.0124569e-04   2.1953705e-05  -1.9730005e-04   2.7807825e-04   6.1094126e-04
  -1.5545874e-04   1.9615520e-05   9.2259696e-05  -2.2028542e-04  -1.2722703e-04  -2.8412399e-04  -3.9202616e-05  -1.0548106e-04  -5.4043304e-04   2.5955262e-04  -1.3567261e-04   1.2014636e-05  -2.4818958e-04   1.2388259e-04   1.0859166e-04  -1.6208083e-04  -1.0245379e-04  -2.2934642e-05  -1.0919397e-04  -5.4226781e-05   1.9458696e-04   1.0407580e-05  -6.1183213e-04  -1.9923272e-04   1.1388838e-04  -8.0580132e-05   6.0759117e-05   5.6704968e-05  -4.9514529e-05   2.7434443e-04  -2.8101282e-04   4.0200590e-05  -8.6252985e-05  -3.8834907e-05   1.6834665e-04  -3.4301498e-05   8.7331975e-04  -1.2616195e-04   2.6863781e-04   3.2468804e-04  -3.3303414e-04  -3.4505126e-04  -1.8062662e-04   1.0231054e-04  -1.0862853e-04   1.6888182e-05  -1.4921880e-04  -3.3743540e-04   1.5460655e-05   2.4086439e-04
  -3.8719538e-04  -2.0194275e-04  -4.7800691e-05  -4.1450525e-04  -3.5393471e-04  -3.9880836e-04  -3.8899589e-04  -2.6716067e-05  -8.9874759e-04   9.4929281e-05  -3.5750403e-04  -2.5236237e-04  -3.1289036e-04  -1.5106073e-04  -2.2193356e-04  -1.6002757e-04  -1.3590597e-04  -4.1318348e-05  -6.1917916e-04  -1.6692889e-04  -1.8856173e-05  -3.0489604e-04  -8.0524199e-04  -4.3986959e-04   2.7685330e-04  -3.4369188e-04  -2.8438313e-04  -6.8411631e-05  -5.8814907e-04   2.5380659e-04  -3.5743884e-04  -2.7172262e-04  -2.4214553e-04  -1.5949857e-04  -2.0994090e-04  -2.6730497e-04  -2.9013999e-04   4.0220250e-05   2.2527366e-04   1.3074584e-04  -2.5693016e-04  -5.0296035e-04  -4.0754362e-04   2.3004239e-04   2.6340105e-05   2.3513057e-04  -3.5860081e-04  -3.3175704e-04   1.2514323e-04   1.0717371e-04
  -2.7670045e-04  -8.7954904e-05  -1.0476198e-05  -2.7633671e-04  -9.5763527e-05  -4.7075792e-04  -1.9402214e-04  -1.9150965e-04  -6.8226160e-04   1.2235661e-04  -2.3972876e-04  -3.7988831e-04  -2.5628772e-04   1.1319255e-05  -1.0287744e-04   6.1674160e-05  -1.8571364e-04   9.1117479e-05  -6.6483062e-04  -5.2364987e-05   1.4868432e-04  -1.7286785e-04  -5.7688169e-04  -2.4967195e-04   1.8088213e-04  -1.0502215e-04  -2.0806800e-04  -9.1890979e-05   2.2486213e-04   3.9540831e-04   8.6318811e-05  -3.5463512e-05   2.3377437e-05  -1.6264885e-04   4.0130166e-04  -2.0867273e-04   2.8373182e-04   2.3609189e-04   1.9826269e-04   2.4611739e-04  -3.8069944e-04  -3.7095969e-04  -5.5386277e-04   7.9861493e-06  -1.9534289e-04  -7.3171694e-05  -2.6685008e-04  -5.0217548e-04   5.1136412e-05   3.3279479e-04
  -1.9563355e-04  -6.8854773e-05   6.6814900e-05  -2.8986798e-04  -5.6952882e-07  -7.7433046e-04  -2.0723717e-04  -7.1073132e-06  -7.0969865e-04   1.1289782e-04  -3.2335281e-04  -3.5983132e-04  -3.4449931e-04  -1.0351925e-04  -7.3078118e-05  -2.1633825e-04  -1.9734717e-04  -1.0183753e-04  -7.8874483e-04  -1.6682017e-04   5.4245742e-05  -1.4196566e-04  -1.0477605e-03  -4.1356630e-04  -9.5480413e-05  -2.4618546e-04  -5.2298926e-04  -7.1190603e-05   7.5786212e-04   1.8309738e-04  -4.5454351e-04  -2.7075715e-04  -4.6834644e-05  -5.2244424e-05  -2.6945776e-04  -5.2292075e-05   2.2565333e-04   3.8049050e-04   4.0413215e-04  -4.4106459e-05  -5.0852267e-04  -4.9770274e-04  -6.0912484e-04  -2.6465830e-05  -2.9665109e-04   2.5875311e-04  -3.6332442e-04  -5.2830362e-04  -2.0240883e-04  -2.6346897e-05
  -4.2576797e-04  -2.6749074e-04  -2.7531067e-05  -3.8671037e-04  -2.0011950e-04  -8.4434455e-04  -2.8221012e-04  -2.0534187e-04  -7.7068439e-04   2.7932600e-05  -5.3128676e-04  -5.6445634e-04  -4.3649966e-04  -2.4656172e-05   2.6231614e-04  -1.1838687e-04  -2.9620865e-06   1.4220309e-04  -1.1490526e-03  -1.7433823e-04  -1.2379557e-04  -3.5899124e-04  -1.1516556e-03  -6.7685120e-04  -4.8180427e-05  -3.8225474e-04  -4.3585309e-04  -2.2359156e-04   3.0775717e-04   2.1864870e-04  -2.5377868e-04  -2.8439093e-04  -1.5277043e-04  -1.8018775e-04  -8.7282366e-05  -1.1192686e-04   1.1409143e-05  -7.8112163e-05   9.2461421e-05   1.1930934e-05  -6.2975276e-04  -7.5069314e-04  -5.5323244e-04  -4.6407855e-05  -1.8023710e-04   5.5718656e-06  -4.6266810e-04  -5.0250738e-04  -6.5407592e-05   5.3824886e-04
  -4.1124891e-04  -1.7683898e-04   1.3021546e-04   6.3753905e-05   1.4665964e-04   6.7534391e-05  -1.9118082e-04  -2.1865952e-04  -7.3039933e-04   2.0731728e-05  -3.5172742e-04  -4.1769577e-05  -2.4731018e-04  -1.0930778e-04  -3.9585808e-05  -3.9390428e-04  -5.1691168e-04  -2.8382661e-04  -6.3244981e-04  -1.0595657e-04   5.0599690e-05   1.0373268e-04  -4.2117236e-04  -4.6254165e-04   1.7394387e-04  -4.7596011e-05  -6.1359788e-05  -1.2422890e-04  -1.8584330e-04   3.9514367e-04   1.4265226e-04  -2.8469879e-04   2.6778298e-04   4.4862242e-04   4.3577887e-04   5.2158706e-05   3.4687761e-04   1.5493493e-04   1.4015690e-04   3.2332350e-04  -5.0165155e-04  -4.3820031e-04  -3.8577532e-04  -1.6403718e-04  -3.0363738e-04  -1.8912955e-04  -4.5791618e-04  -4.7496540e-04  -7.5220240e-05  -8.0365375e-05
  -5.0148537e-04  -4.3694128e-04   1.5959839e-04  -2.0117634e-04   9.4870447e-05   1.9053297e-05  -3.5878376e-04  -4.1894210e-04  -9.7339827e-04  -5.1407700e-05  -5.4408330e-04  -2.1741173e-04  -3.2793407e-04   1.6004354e-04   7.2859431e-05  -7.9249439e-05   3.4827442e-04   2.4354251e-04  -1.1193729e-03   9.4210220e-05  -3.6991285e-05  -3.9717750e-04  -5.1388907e-04  -4.4009610e-04   3.9871261e-04  -2.3061280e-04  -3.2885706e-05  -1.4119782e-04   3.6368094e-04   2.5919505e-04  -1.7974322e-04  -3.0167885e-05  -2.2635228e-04  -1.2895091e-04  -2.6926611e-04  -4.4188206e-04  -2.5053023e-04  -4.4349516e-05   1.1781660e-04  -4.5945976e-06  -6.5852073e-04  -8.3349406e-04  -7.9304812e-04  -1.5968403e-04  -3.8591627e-04  -3.6281222e-04  -5.3897005e-04  -6.0571003e-04  -4.1466943e-04  -7.9591904e-05
  -6.3875370e-04  -5.4197316e-04  -4.5251818e-05  -4.8430494e-04  -2.1398749e-04  -7.1703340e-04  -2.8267980e-04  -2.5584901e-04  -1.0798188e-03   6.4349092e-06  -6.1772193e-04  -3.2732365e-04  -5.9533137e-04  -1.6327227e-04  -2.4398039e-04  -1.9709863e-04  -5.7665562e-05   1.6186007e-04  -4.4898273e-04  -2.2034683e-04  -1.6235719e-04  -3.7702918e-04  -6.4432673e-04  -4.2522029e-04  -2.3718704e-04  -3.5620396e-04  -1.1408637e-04  -1.0927527e-05   5.6531146e-04   1.1823716e-04  -2.3950452e-04  -8.7032480e-05  -9.7289412e-06  -1.8839005e-04  -3.8321005e-04  -1.7401116e-04   4.2964524e-04  -7.6895936e-05  -4.7437505e-05   4.6505735e-05  -6.2951806e-04  -6.7445351e-04  -5.3870300e-04  -1.3761719e-04  -3.2872835e-04  -1.8905684e-04  -4.2882055e-04  -4.2893781e-04  -9.5324191e-05   4.1042949e-04
  -2.1468302e-04  -1.7796710e-04   3.3544475e-05  -2.2597447e-04  -1.2131448e-04  -7.2867470e-04  -1.7549796e-04   3.6146099e-04  -7.0342660e-04   1.6107026e-04  -3.7383384e-04  -2.0749550e-04  -3.5964552e-04   1.9012226e-05  -1.1518285e-04   5.1990035e-05  -1.3512449e-04   5.1779098e-05  -5.3207600e-04  -1.3991741e-04   4.1365925e-06  -3.3712975e-04  -6.4338668e-04  -3.9826668e-04  -1.2153434e-04  -1.6830835e-04  -4.7461982e-04  -2.0703516e-04  -7.4823992e-04   4.3913032e-04  -2.1087560e-04  -2.0303357e-04  -2.4872550e-04   6.3792919e-05   1.7370789e-05   6.2255240e-05   7.9495524e-04   1.1364984e-04   7.3666719e-04   3.2606703e-04  -3.9866171e-04  -4.5463079e-04  -3.5064528e-04  -7.2402807e-05  -1.4241459e-04   1.7033931e-04  -3.0959267e-04  -4.0262804e-04  -8.7379762e-05   4.2133101e-09
  -2.3703386e-04  -2.1304390e-04   3.1683998e-05  -2.9517669e-04  -1.1389694e-04  -4.9410586e-04  -2.0508039e-04   2.1109766e-04  -8.5285754e-04   8.2536404e-05  -3.7230927e-04  -2.8367029e-04  -3.7021138e-04  -1.5907618e-04  -3.2255313e-04  -8.1226433e-05  -1.7569322e-04   8.9118199e-05  -7.7393791e-04  -1.6263974e-04  -1.5247776e-05  -3.7676253e-04  -8.9572283e-04  -7.0425682e-04  -3.2329530e-04  -2.1915606e-04  -6.7514234e-04   1.0352311e-04   2.5829289e-04   7.9587466e-05  -7.6382967e-05  -1.5809273e-04  -2.1030956e-04  -1.4190628e-04  -4.0084153e-04  -3.8330970e-04  -2.3275806e-04  -1.1476921e-04  -8.6339660e-06  -1.2907739e-04  -4.8677731e-04  -4.9929798e-04  -5.2780507e-04  -2.1799598e-05  -4.0015354e-04   2.9084520e-04  -2.5840278e-04  -4.2916898e-04  -4.2457704e-04   5.5785611e-05
  -3.3375030e-04  -3.3271161e-04  -5.9937491e-05  -3.9888592e-04  -2.2269388e-04  -6.2011590e-04  -2.4017463e-04   2.9239431e-04  -8.6057850e-04  -5.3466014e-05  -4.5500995e-04  -5.1914429e-04  -5.6867616e-04   2.9924784e-06  -3.2879278e-04  -1.2217516e-04  -3.4402829e-04  -5.9540496e-05  -3.7094695e-04  -2.7318730e-04  -5.4926637e-05  -3.8275268e-04  -7.1378145e-04  -1.4584328e-04  -1.9464259e-04  -2.9939503e-04  -4.7032684e-04  -1.1568073e-04   1.6081828e-04   2.6978468e-04  -3.8600594e-04  -9.5186479e-05   5.0899733e-05  -1.6074860e-04  -5.7536461e-05  -2.9701091e-04   6.6254033e-06   6.3669815e-04   6.7535433e-04  -2.6697979e-05  -4.5836405e-04  -4.5326879e-04  -6.2106573e-04  -8.1958460e-05  -2.3214366e-04  -3.8511749e-05  -1.1777980e-04  -2.3704699e-04   5.4203151e-06  -5.6572073e-05
  -1.1931179e-04  -4.2661035e-05   1.0720870e-04  -1.5211506e-04  -3.0002831e-05  -5.0249131e-04  -4.1817551e-05   1.6113830e-05  -5.6753022e-04   1.3543425e-04  -2.3086063e-04  -4.2066182e-04  -3.6570866e-04  -1.0334866e-04  -1.7649995e-04   2.1134236e-05  -3.2126071e-04  -3.1458741e-05  -1.1441513e-04  -1.5734737e-04   8.7211076e-05  -1.5155661e-04  -5.4132845e-04  -3.2589215e-04   1.7926517e-05  -1.7483969e-04  -2.1096606e-04   2.2557037e-05  -1.0663377e-04   2.5190538e-04  -1.6113232e-04   3.6527825e-05   5.8904330e-05  -2.4923461e-04   8.5137744e-04  -7.2958687e-06   8.7731481e-05   3.0148972e-04   5.9806556e-04   3.0627794e-04  -3.0292626e-04  -2.2412707e-04  -2.3159635e-04  -1.9827282e-06  -5.1794406e-05   1.2965831e-04  -1.0888406e-04  -5.1529164e-04  -7.9747944e-05  -1.0933522e-04
  -7.0875001e-05  -1.1132641e-04   1.4021981e-04  -1.3846339e-04  -2.4282467e-04  -7.0117239e-04  -1.4562257e-04  -1.1046642e-04  -8.4426627e-04   1.2671972e-04  -2.3528162e-04  -3.7582815e-04  -3.9777852e-04  -2.5858235e-05  -1.5921815e-04  -8.0663980e-05  -3.6559548e-04   2.0291871e-05  -2.1999583e-04  -1.9275553e-04   4.2892483e-05  -3.4673704e-04  -9.7363041e-04  -2.6952851e-04  -1.9658363e-04  -2.6497268e-04  -5.0156174e-04  -2.6622528e-04  -2.2781156e-04   1.3729723e-04  -8.0557234e-05  -8.6340828e-05  -7.5749209e-05  -6.2701176e-05  -2.9974504e-04  -1.6002974e-05   4.9280177e-04  -2.9737566e-04   1.6406110e-04   8.6307213e-05  -5.4084108e-04  -4.3539738e-04  -4.9433997e-04  -4.4980279e-05  -2.3259890e-04  -7.1993534e-05  -1.8939773e-04  -3.0317577e-04  -2.9651335e-04  -3.4556328e-04
  -2.0872260e-04  -2.3391984e-04   1.6689959e-05  -2.9145923e-04  -4.0992567e-05  -5.9498876e-04  -3.2110614e-04   2.0403450e-04  -8.5058587e-04   4.3547767e-05  -3.5489551e-04  -5.6465570e-04  -5.2138395e-04  -7.9864221e-05  -3.6612767e-04  -7.2208648e-05  -4.1989775e-04  -3.1261276e-05  -7.6012261e-04  -2.5794070e-04  -1.1278203e-05  -3.7755715e-04  -8.2475686e-04  -2.9910760e-04  -2.2841437e-04  -2.5953655e-04  -2.7731742e-04  -4.2290456e-05  -2.1492889e-04   2.9484488e-04  -1.9034575e-04  -4.4865003e-05   7.5569216e-05  -1.5745743e-04  -5.5952587e-05   2.7406488e-05   4.0063547e-04   2.7206945e-04  -6.3307867e-05  -7.9331418e-05  -2.2331666e-04  -3.6997354e-04  -2.5736340e-04  -4.6634257e-05  -1.7713854e-04   2.5824009e-04  -1.2675993e-04  -2.5282972e-04   1.4381490e-05   3.4576742e-04
   9.3547351e-06   1.3541438e-05   1.4720793e-04   4.5016955e-06  -6.4071872e-05  -2.4562347e-04   1.3202798e-04  -1.2323690e-04  -6.1766815e-04   1.9930048e-04  -1.1314456e-04  -4.0553822e-04  -2.8604816e-04  -1.3458816e-04  -1.5933509e-04   1.0611376e-04  -2.8909493e-04   1.6236691e-04   1.3618509e-04  -1.4481548e-04   1.5439453e-04  -1.5923585e-04  -7.3376979e-04  -1.1658188e-04  -1.3798870e-05  -3.8397597e-05  -1.4513818e-04  -1.1333741e-07   3.0536906e-04   2.2102584e-04   1.7361248e-04  -4.2472333e-05  -5.7029582e-05   1.4951055e-04  -3.8992913e-04   1.7307901e-04   6.9034979e-04   2.1319330e-04   2.1112598e-04   1.2294382e-04  -2.3331198e-04  -1.7798215e-04  -4.8633281e-04   3.2239208e-05  -1.3993878e-04  -1.1400225e-05  -8.0968930e-05  -1.2399341e-04  -2.8510465e-05  -1.8662193e-05
  -1.0642862e-05  -8.5985012e-05   1.8491907e-04  -5.1492112e-05   8.8461980e-05  -4.9736496e-04  -6.1253297e-05   1.2006855e-04  -7.2453794e-04   1.6535436e-04  -1.6858426e-04  -4.8146606e-04  -3.5246249e-04  -4.6227644e-05  -1.8669435e-04   8.5641041e-05  -2.3734223e-04   2.7154094e-05   3.6929585e-05  -1.3928497e-04   8.2253806e-05  -2.2245364e-04  -4.2810201e-04  -2.8157438e-04  -8.6346627e-05  -2.3026277e-04   8.8539229e-05  -8.3509360e-05   5.4990007e-05   8.3360777e-05  -4.9484271e-04   9.8886885e-05   3.4087265e-05  -5.7336211e-04  -1.6877810e-04  -2.5170142e-04   4.7319857e-04   1.7020381e-04   3.4096342e-04  -2.3329532e-04  -4.3966257e-04  -4.2704924e-04  -3.3122738e-04  -7.1344206e-05  -1.6070489e-04  -3.1142239e-04  -1.5404262e-04  -4.2703064e-04  -1.7557698e-04  -2.6871925e-04
  -1.8949618e-04  -2.8046124e-04  -1.8277507e-05  -2.0346616e-04  -1.5290489e-05  -6.6439499e-04  -2.9002764e-04  -5.5915178e-05  -9.3144568e-04   8.1709120e-05  -3.6423912e-04  -5.8678829e-04  -3.7754216e-04  -6.6723718e-05  -5.9872898e-05   6.2374282e-05  -7.0976748e-05   1.5688580e-04  -9.2762792e-05  -1.7502773e-04  -4.8883157e-05  -4.3381908e-04  -9.3001541e-04  -3.7316920e-04   2.2673947e-04  -4.8607503e-04  -1.6925292e-04  -1.7167974e-04  -6.8416109e-04  -6.6310946e-05  -1.2846854e-04  -1.1882266e-04  -7.1965391e-05  -2.5899117e-04  -4.0083524e-04  -3.4554181e-05   1.7829661e-05  -1.4411964e-04   2.5203190e-04  -2.2824841e-04  -5.1503029e-04  -3.9591451e-04  -3.6764212e-04  -3.9139104e-05  -1.8385856e-04  -2.7560652e-04  -1.1179316e-04  -2.4016650e-04  -9.9607816e-05  -1.3228199e-04
  -5.8722548e-05  -1.2342908e-04   1.2480926e-04  -5.8057714e-05  -3.2493954e-05  -4.5758864e-04  -9.2590279e-05  -3.7701387e-04  -5.0073618e-04   2.3678233e-04  -2.2644119e-04  -3.7719694e-04  -3.0929182e-04   2.6775579e-05  -2.6079908e-04   1.0726988e-04  -3.7432648e-05   2.1014671e-04  -2.5488395e-04  -1.1581784e-04   8.7278851e-05  -2.2640622e-04  -7.6876942e-04  -2.4575790e-04  -4.7098199e-04  -1.3468401e-04   2.4399592e-04   9.9142721e-07  -7.3231233e-04   1.7247470e-04  -2.2132836e-05  -4.2701427e-05   1.1932480e-04  -5.5714349e-07  -2.8866861e-04   4.1653497e-05   5.8515015e-04   3.9902476e-05   1.5580114e-04  -1.3916570e-04  -4.6661150e-04  -3.2964713e-04  -3.0658185e-04   9.4596027e-05  -1.5141744e-04   2.0773852e-05   9.8254613e-06  -1.6405058e-04   1.8754041e-05   1.4053761e-04
   5.3918875e-06  -1.5906000e-04   1.7598098e-04  -4.9225113e-05   5.7787016e-05  -3.6478057e-04  -4.4486431e-05  -6.5624872e-06  -7.9967739e-04   1.3372925e-04  -3.0940870e-04  -4.5073376e-04  -3.0476580e-04  -3.8208866e-05  -6.2591433e-05   6.8229805e-05   1.0289199e-04   2.6869724e-04  -7.0890375e-05  -7.4011201e-05   1.3656778e-05  -2.2152207e-04  -3.3214671e-04  -4.6026878e-04   1.9312027e-04  -3.3157752e-04   1.1190305e-05   3.2665098e-06   5.2058324e-04   1.2691654e-04  -1.3877044e-04  -7.7230805e-05  -2.9444401e-04  -3.0684416e-04  -7.2798610e-04  -2.3628939e-04  -3.6020117e-04  -3.9681286e-04  -1.4537970e-04   3.2476564e-06  -4.2330220e-04  -5.8240985e-04  -3.1398732e-04  -3.9737151e-05  -1.9531038e-04  -1.2213606e-04  -2.3162941e-04  -3.3279796e-04  -2.0503609e-04  -9.4991759e-05
  -2.1735755e-04  -3.0159325e-04   1.5514196e-04   4.9563172e-05   4.3161490e-05  -4.3068337e-04  -4.3429626e-04  -1.2002406e-04  -8.9796673e-04   7.5714619e-05  -4.4491203e-04  -4.8792880e-04  -3.7244859e-04  -2.6178369e-04  -4.6829609e-04  -2.7963886e-04  -4.1816832e-04  -1.2001481e-04  -4.3527730e-04  -2.5823398e-04  -8.8232729e-05  -2.9538185e-04  -5.8377616e-04  -2.8698548e-04  -1.6267352e-04  -2.4318678e-04  -1.2979464e-04  -9.6990421e-05  -3.3474530e-04   1.1393679e-04   3.1143124e-06  -2.1391199e-04  -1.4962973e-04  -1.7444896e-04   3.3144502e-04  -6.9140020e-05   3.5538233e-04   2.9888385e-04   5.4461590e-04   1.0811817e-04  -2.6161334e-04  -5.7821727e-04  -2.5260175e-04   4.2102536e-05  -1.7316092e-05   1.7472234e-04  -1.7593926e-04  -1.7660763e-04   1.4556656e-04   4.5598666e-05
  -1.1012423e-04  -9.5707299e-05   2.8188646e-04   2.4486161e-04   1.8868329e-04   1.7018866e-04   2.7372513e-05   3.9488874e-05  -4.0969581e-04   2.4170880e-04  -2.1726893e-04  -2.4727875e-04  -2.1433181e-04  -2.2146544e-04  -3.0065249e-04  -2.4270646e-04  -3.5382301e-04  -7.0313465e-05   6.4919303e-05  -1.4985855e-04   1.1974898e-04  -9.7415861e-05  -5.6838547e-04  -1.2437502e-04  -2.4996564e-04   3.6222791e-05  -4.1713388e-04  -2.9730098e-05  -1.2491405e-05   3.7806743e-04   5.2558553e-05  -1.3938030e-04   2.1008994e-04  -5.1855706e-05  -1.4769836e-04   2.4934555e-04   3.3111047e-04   8.9398214e-05   3.7348084e-04   1.6582443e-04   7.4542913e-05  -3.0769160e-04  -3.5363599e-04   1.0412812e-04   3.0613282e-05   2.6926963e-04  -6.9832800e-05  -4.7618410e-05   1.0324063e-04   3.1170380e-04
  -2.7471397e-05  -6.7608300e-05   2.4465483e-04   2.6008600e-04   1.7999327e-04  -4.6503104e-04   1.8216120e-05   3.5557844e-04  -5.5296411e-04   2.1157671e-04  -1.9357387e-04  -6.7133697e-05  -2.6831287e-04  -1.8801694e-04  -3.7107241e-04  -8.9514499e-05  -5.2974536e-04  -7.9275065e-05   9.4396186e-05  -1.6372239e-04   1.1654827e-04  -2.8566926e-04  -6.6691323e-04  -2.0900938e-04   3.0847997e-04  -8.4473453e-05  -1.4315519e-04   6.8888876e-05  -8.4258849e-05   2.7464100e-04   4.3516324e-04   6.1173188e-05   4.3552349e-04  -5.0443188e-05   1.5748432e-04   3.0450172e-05   1.4896056e-04  -1.7479162e-04   6.5024424e-04  -1.5205991e-05  -3.0884091e-04  -6.0054637e-04  -2.4074560e-04  -5.0521579e-05  -1.1780064e-04  -1.6187083e-05  -2.3593767e-04   3.7524027e-05  -1.9300955e-04   1.6457847e-04
  -1.7586547e-04  -1.9141068e-04   1.1359969e-04   4.5328910e-05   2.1589854e-05  -3.9534445e-04  -2.5469711e-04   4.3177590e-04  -7.7384268e-04   8.2438128e-05  -3.6962930e-04  -2.6938255e-04  -4.5841135e-04  -1.7404165e-04  -1.4022458e-04  -9.6289077e-05  -3.0739128e-04   9.4419105e-05  -4.3368582e-05  -1.6992308e-04   1.0477427e-04  -3.5397132e-04  -6.1106222e-04  -2.0852950e-04  -1.0082997e-04  -1.2167044e-04   1.0949081e-04   6.1972220e-05  -2.4329255e-04   3.0952701e-04  -9.1099297e-05   7.2882562e-05   1.1594568e-06  -2.2396148e-04  -5.7712093e-04   1.4197352e-04   2.3307824e-04  -5.2175412e-05   5.8964675e-04  -2.0265415e-04  -3.4431735e-04  -4.0197663e-04  -2.6019753e-04   7.3160372e-06  -3.7907968e-05   9.1776446e-06  -1.9652514e-04  -1.7270571e-04   8.6970242e-05   3.4547914e-04
   2.4501982e-04   1.3880234e-04   2.4702383e-04   3.6437484e-04   2.3796500e-04  -3.4975150e-05   4.7860936e-05   2.0419828e-04  -3.9330794e-04   2.6769508e-04  -8.5114923e-05   9.4874362e-05  -2.2636596e-04  -2.0690546e-04  -8.8483248e-06   7.6535107e-05  -5.1756733e-04  -1.3327591e-04   5.9097516e-04  -2.2185339e-04   2.8337722e-04  -1.8185853e-04  -7.8308198e-04  -5.0778224e-05   1.3353681e-04  -1.8084211e-05  -9.9837052e-05   1.3859312e-04  -1.9469281e-04   3.9133849e-04   3.7295798e-05  -2.5201691e-05  -2.4402498e-06  -1.9968113e-05   4.2849413e-05   9.3773378e-05   9.1568778e-05   4.5463577e-04   3.7366909e-04   8.5039355e-05  -7.4441064e-05  -2.3471384e-04  -1.4247339e-04   4.2473792e-05   2.0060789e-04   9.0216854e-05  -5.7876212e-05  -7.9120597e-05   5.0843544e-05   2.3381319e-04
   1.6537448e-04   1.3188396e-04   3.0119007e-04   3.0521661e-04   2.2405203e-04  -5.0516497e-05   4.9788501e-05  -1.5423550e-04  -4.3171781e-04   1.8616699e-04  -1.3588962e-05   5.7608799e-05  -2.2904656e-04  -1.8941214e-04   7.0297268e-05   1.0096879e-04  -7.4447732e-04  -3.2748803e-04   2.2037986e-04  -2.9188936e-04   2.3732567e-04  -1.0600579e-04  -3.1417538e-04  -1.9927957e-05  -2.9885984e-04  -9.6662669e-05  -6.5626919e-05   5.4938482e-05  -4.3924860e-04   3.8954313e-04  -1.2117634e-04  -3.1218391e-05   2.3596249e-04  -2.9015186e-04  -1.3948539e-04   2.9044843e-04  -5.3817709e-04   2.5350496e-04   1.0679695e-04  -8.9903107e-05  -1.2339998e-04  -3.0531734e-04  -2.3620536e-04   7.8036675e-05  -6.7028283e-05   1.2170447e-04  -1.3690336e-04  -1.5760999e-04  -1.6476320e-06   1.8818151e-04
   5.0658182e-05   4.5915127e-05   1.4768603e-04   1.6393338e-04   1.0350302e-04  -4.2054238e-04  -1.6506599e-05   9.9683311e-05  -5.8115675e-04   4.5330515e-05  -1.0850221e-04  -1.1324023e-04  -3.2137067e-04  -6.9274181e-05  -2.6534521e-04  -4.0442919e-05  -7.1473973e-04  -2.0177582e-04   2.0431721e-04  -2.8800042e-04   1.8121423e-04  -1.4688070e-04  -6.9323060e-04  -1.0529088e-04  -4.8021093e-04  -1.4443639e-05  -1.1265497e-04   1.4584376e-04  -3.6763660e-05   4.6626769e-04  -1.5166998e-04   1.4799512e-04   5.4061931e-04  -2.3792448e-04   3.2722301e-04   3.3146125e-04   5.2203907e-04   1.3796236e-04  -1.1388052e-04   9.3586663e-05   3.2018172e-05  -2.1694334e-04  -2.2525183e-04  -4.8031692e-05   1.3902866e-04   7.4536962e-05  -2.0151469e-05   1.5899974e-05   2.5166973e-04   5.8158202e-04
   2.7543804e-04   2.9367258e-04   2.9959233e-04   4.3466996e-04   2.8808901e-04   2.0198635e-04   1.7420658e-04   3.4677389e-04  -4.4642144e-04   1.6425621e-04   8.4926454e-05  -2.3136809e-05  -1.6463893e-04  -1.0834833e-04   1.3055198e-04   1.5892529e-04  -4.9632910e-04  -1.8730214e-04   1.5677547e-04  -1.3141913e-04   3.3716409e-04   7.6489785e-05   6.3595646e-05  -3.3574841e-05   2.8253160e-04   1.1427678e-04  -1.0710131e-05   3.1180069e-04   3.3155110e-04   4.3279605e-04   4.6367681e-04  -6.5720793e-05   2.1742898e-04   2.4757994e-04   9.4819057e-04   4.1543925e-04   4.0010078e-04   3.6751482e-04   8.1123115e-04   2.6544694e-05   3.0884441e-04  -3.3812557e-05  -1.9677766e-05   7.6428732e-05   2.3207533e-04  -1.0532351e-05  -3.1524010e-05   9.6218602e-05   1.5747914e-04   2.1378080e-04
   1.8934003e-04   2.3037683e-04   3.1131838e-04   3.1448374e-04   1.2653788e-04   1.2696239e-04   5.7084144e-05   2.6099570e-04  -2.7799653e-04   7.9714897e-05   5.0542490e-05  -1.1609586e-04  -1.0573148e-04  -2.4025817e-04  -1.7037239e-05   3.2800461e-05  -5.3383160e-04  -1.6767648e-04   9.0771740e-05  -1.7094563e-04   2.9246529e-04  -7.6528027e-05  -2.3903938e-04  -1.6456378e-04   6.9410858e-06  -4.9685200e-06  -5.5245131e-05   1.6766683e-04  -2.1138463e-05   3.4751600e-04   2.3044219e-04   1.1699898e-04   3.0587777e-04  -2.4396392e-04   4.8009542e-06   1.6960768e-04   1.9671449e-04   9.4894684e-05   4.6190468e-04  -2.3567623e-04   1.0677244e-04  -1.7058117e-04  -2.3878024e-04   2.1268064e-05  -1.5548943e-05   2.5685449e-04  -1.6295005e-04  -3.2597851e-05  -1.0607288e-05  -3.5289697e-05
   4.7817804e-05   5.8646383e-05   1.2616129e-04   1.8380670e-04   1.6564156e-05   5.9680751e-05  -1.9183648e-05   4.8082860e-04  -6.6265831e-04  -5.2773143e-05  -8.0109268e-05  -2.7749289e-04  -2.0571752e-04  -9.4818693e-05  -2.6570915e-04  -8.1653030e-05  -5.5155833e-04  -2.0127234e-04   3.7943075e-05  -2.8716936e-04   1.7145058e-04  -2.6262147e-04  -1.5971107e-04  -2.1582990e-04  -3.1042873e-04  -4.8610276e-05  -2.0722112e-04  -4.5351160e-05  -4.3672194e-06   4.4823502e-04  -4.3151911e-05  -1.0693949e-04   2.2586480e-04   6.8074216e-05   2.5019163e-04   1.9384509e-04   1.2349899e-04   3.6386662e-04   2.4636931e-04   1.5643057e-04   1.3567695e-04  -2.3915697e-04   1.1821170e-04   8.9109846e-05   1.3206039e-04   2.9135286e-04  -6.7027745e-06   7.8294608e-05   1.6832341e-04   4.2735616e-04
   2.9815390e-04   3.1640136e-04   3.4221660e-04   3.2887366e-04   7.3064912e-05   2.8049829e-04   1.8285608e-04   2.8794518e-04  -2.1588558e-04   8.5668180e-05   1.4042511e-04  -1.1959445e-04  -2.7115964e-06  -4.0609678e-04  -3.2340494e-04   3.1765763e-04  -4.4464416e-04  -4.8647707e-05   2.1219389e-04  -1.6171983e-04   3.3207732e-04  -3.0634998e-05  -5.0656404e-04  -1.0249112e-04  -1.8984813e-04   6.4847038e-05   1.6832270e-04   9.2525115e-05  -3.5478846e-05   8.5284252e-04   3.8961116e-05   1.1448471e-04   3.7774575e-04   1.0374423e-04   6.1209773e-04   1.8924533e-04   3.7003169e-04   1.7779322e-04   5.0687254e-04   2.1655511e-04   2.2342576e-04  -1.8004024e-04  -1.5375206e-05   3.7038670e-05   1.7979484e-05   1.7424604e-04   5.4873937e-05  -1.2748044e-04   1.2968056e-04   4.0588013e-04
   2.7828143e-04   2.9084482e-04   2.4591887e-04   2.4359315e-04   3.4246029e-04   3.5261596e-04   8.5903215e-05  -9.6603326e-05  -3.4882629e-04   8.0220183e-05   7.0534312e-05  -1.1925892e-04  -4.4075350e-05  -1.9329165e-04  -2.2699015e-04   2.7872383e-04  -3.1167263e-04  -7.3825620e-05  -1.3788728e-04  -1.9096366e-04   2.5379233e-04  -9.9401092e-05  -2.1443081e-04  -1.1698136e-04  -4.1249132e-04   5.1092204e-05   1.5810618e-05   1.0705879e-04   1.6374556e-04   2.1615482e-04   2.8463965e-04  -1.3917999e-05   3.1854110e-04   8.6141648e-05   2.9013667e-04   2.3615868e-04   5.9011055e-04   1.1274650e-04   2.9308235e-04   3.1345667e-06  -1.5299158e-04  -4.2329181e-04  -2.7094507e-05   7.3206334e-05  -1.8470164e-04  -1.5346684e-04  -1.2802308e-04   1.5140291e-04  -9.9795514e-05   4.3212721e-04
   9.3246119e-05   8.1911072e-05   1.1571030e-04   8.2128645e-05   2.1821137e-05  -3.3194304e-04  -7.1819784e-05   2.2701522e-04  -4.3741640e-04  -5.9737820e-05  -1.1444554e-04  -2.9810402e-04  -2.3632808e-04  -1.7061853e-04  -4.6552546e-04   1.5430259e-04  -2.6278006e-04   2.1438704e-05  -2.7268147e-04  -2.1603757e-04   5.7838693e-05  -4.8621232e-04  -7.2391285e-04  -5.0213479e-04   4.6203462e-05  -1.7200134e-04   9.8371580e-05   1.8928025e-05   1.6397824e-04   1.8562052e-04   1.4511481e-04  -6.8709094e-05  -4.0807959e-06  -1.6577849e-05   6.2806229e-04   1.6483462e-04   1.8923897e-04  -4.5907909e-05   3.9138875e-04   2.7778940e-04  -9.4780291e-05  -4.8812298e-04  -1.0546733e-04  -5.7178608e-05  -6.8836714e-05   4.3399297e-04  -1.4781683e-04   1.0022618e-05   4.4138007e-05   1.4813154e-04
   1.1451976e-04   1.7412589e-04   1.6004551e-04   1.3899927e-04   2.3121639e-04   2.0411888e-05  -4.1173589e-05   2.4119152e-04  -1.4930866e-04   4.9690530e-05  -2.9109144e-05  -2.7398096e-04  -1.4080400e-04  -1.6267803e-04  -7.3282135e-05   1.6215193e-04  -1.3377274e-04   1.5297449e-04  -3.1005020e-05  -1.4725560e-04   1.7510692e-04  -1.2131480e-04  -4.5675650e-04  -3.1675739e-04   5.6321156e-04   8.0422848e-05  -1.0041266e-04  -5.4469729e-05   2.1384441e-04   3.3855974e-04   1.6295058e-05   3.5654768e-05  -1.1465933e-04   2.2021955e-05  -1.2466979e-04   2.7605184e-04   1.4382809e-05  -4.9255650e-05   4.2515824e-04   4.0765099e-05  -6.5166838e-05  -3.7614600e-04  -1.6877899e-04   2.0416686e-05  -6.3427928e-05   1.4475691e-04  -7.7938719e-05  -4.9723010e-05  -3.0969782e-06   2.4241836e-04
   1.1697350e-04   2.0500997e-04   1.7858810e-04   5.5696510e-05  -9.0506173e-06   1.3308164e-04  -2.5545881e-04   5.0241989e-04  -5.4912496e-04  -1.9467083e-05  -9.0036025e-05  -3.1333367e-04  -2.0185382e-04  -2.0361409e-04   8.9524314e-05   3.8896775e-05  -3.1215523e-04  -9.1162052e-05   4.2120618e-04  -2.2209162e-04   8.1898703e-05  -3.0055913e-04  -4.3549386e-04  -2.9867570e-04  -2.7791545e-04  -9.4760158e-05  -2.2016106e-04   6.5262800e-05  -1.3953193e-04   3.0748715e-04   6.1478124e-05  -5.0496008e-05  -4.3738237e-06  -5.0882314e-04  -1.8741767e-04   2.8889279e-05  -1.8410287e-04   1.6182143e-05   5.7625759e-04  -1.4502822e-05  -1.5841152e-04  -3.9914867e-04  -9.9008212e-05  -1.6959141e-04  -1.0784996e-04  -1.9764362e-04  -1.7904369e-04   4.3850241e-06  -1.3032473e-04   3.1892158e-04
  -1.0569366e-04  -6.1856546e-05  -8.6863365e-06  -6.5032080e-05   4.3566150e-05  -5.1007041e-04  -3.7098307e-05  -1.5117576e-04  -7.8810164e-04  -1.2892853e-04  -2.3276382e-04  -3.9669723e-04  -3.8269887e-04  -3.5760133e-04  -2.4868009e-04  -4.5113877e-05  -3.3332087e-04  -7.3620693e-05  -3.2697330e-04  -2.8619877e-04  -4.5723089e-05  -4.9873971e-04  -7.4665132e-04  -5.6277169e-04  -1.0255765e-04  -2.5427266e-04  -4.4606213e-04  -1.4094260e-04  -4.1486978e-04   1.9557327e-04  -2.8508712e-04  -7.5214200e-05  -7.0232927e-05  -4.2581698e-04   1.8238238e-04   1.2360133e-04   7.6243792e-05   1.5889773e-04   2.0310748e-04  -4.2481520e-06  -2.2743069e-04  -3.2444281e-04  -6.2594523e-07  -9.1998641e-05  -3.2199023e-04   7.9006331e-06  -1.5110454e-04   3.9370116e-06   4.0913681e-05   5.3199659e-05
   3.3703109e-05   1.2289986e-04   4.1176911e-05   2.0177991e-05  -7.9777295e-05  -1.7279980e-04  -1.7397266e-04   2.6212342e-04  -3.3713007e-04  -9.3306189e-06  -6.8189962e-05  -3.2316588e-04  -2.4690595e-04  -3.3001645e-04   6.4965257e-05   1.1764574e-04  -1.9680816e-04  -4.2113221e-05   3.3416486e-04  -2.0406234e-04   7.4402706e-05  -2.1450606e-04  -3.1638288e-04  -3.0954788e-04  -2.4367383e-04  -5.7189873e-06   1.6930071e-04   1.3625006e-04   1.4725365e-04   2.9604990e-04  -7.9773803e-05   4.0317012e-05   2.1470319e-04  -2.4093351e-04   2.2919952e-04   3.9680078e-04  -2.5211077e-05   1.0403495e-04   3.4400928e-04   1.2652876e-04   2.6332589e-05  -2.5896321e-04   3.6652858e-05  -6.0893333e-05  -2.2505304e-04  -1.8405417e-05  -2.8215301e-05   1.6339135e-04   6.7815541e-05   3.8707567e-05
  -4.7926710e-06   8.3403342e-05   1.9470486e-05  -5.0572609e-05  -8.5896892e-05  -2.5544978e-05  -4.8955862e-04   4.1560066e-05  -2.7602480e-04  -5.9853428e-05  -1.5327163e-04  -4.0991369e-04  -2.4938915e-04  -3.2056784e-04  -2.1014710e-04   3.0049556e-05  -2.7323686e-04  -1.4296368e-04  -2.2474579e-04  -2.6302141e-04   2.8476097e-06  -2.6460973e-04  -8.5983891e-04  -4.8777720e-04  -3.3491020e-04  -1.4290848e-05  -3.7697371e-04  -3.2786911e-06  -2.8702061e-05   4.1263583e-04   1.9478514e-04  -2.9666277e-05   1.4463539e-05  -1.1790919e-04  -2.4499221e-05   2.4150545e-04  -6.1675359e-04   4.0998239e-05   7.8329147e-04  -1.9317442e-04  -8.8391702e-05  -4.4072131e-04  -1.5295508e-04  -3.1967484e-05  -2.3773151e-04   2.7295333e-04  -1.9047661e-04  -1.0159022e-04  -1.8078703e-04   2.4390656e-04
  -2.2755614e-04  -6.5662127e-05  -1.4741144e-04  -2.0088549e-04  -3.5077779e-04  -5.3579151e-04  -4.0072226e-04  -5.9187785e-04  -7.7352632e-04  -1.5297561e-04  -2.4955827e-04  -4.4530141e-04  -3.6611676e-04  -4.8428669e-04   5.0330957e-05  -1.9019496e-04  -4.8352318e-04  -1.6692604e-04  -4.5242158e-04  -3.5603574e-04  -1.0444730e-04  -3.9806464e-04  -3.8313650e-04  -2.1939700e-04  -5.2453426e-04  -1.2013579e-04  -9.1801558e-05  -1.4274527e-04   4.0041699e-04   3.1234272e-04  -2.1641851e-04  -1.3568468e-04   7.1475435e-05  -1.4585957e-04   1.5210951e-04   2.8076614e-04   1.3985806e-04  -1.4336976e-05   5.3139729e-04   2.0731542e-04  -8.3644791e-06  -1.4331710e-04  -4.4273774e-04  -1.1187386e-04  -1.8003221e-04   8.0529688e-05  -9.7162949e-05  -3.5838340e-04   1.0956231e-04  -1.0179437e-04
  -5.9202641e-05   1.6875884e-04   1.8358853e-05  -4.7155452e-05  -1.6867982e-05   1.1173013e-04  -9.6285454e-05  -6.7957392e-04  -1.9404136e-04   3.8753366e-05  -3.0933599e-05  -2.5258993e-04  -2.0572550e-04  -3.5654590e-04  -5.8250647e-04  -3.2250755e-05  -4.1349203e-04  -1.3632668e-04  -1.3124512e-04  -1.7769187e-04   7.8690791e-05  -2.5592724e-04  -5.7575211e-04  -4.7714691e-04  -2.2695673e-04   3.3074077e-05   1.3510912e-04  -6.5067383e-05  -4.1742812e-04   4.8085453e-04  -2.2352493e-04  -1.0099576e-04   5.0905230e-05  -6.7915360e-05  -2.5081891e-04   2.9852323e-04   1.4902033e-04   4.8611764e-05   5.2010028e-06   2.6590432e-04   1.1333374e-04  -2.7073256e-04  -1.4751223e-04  -7.9568570e-05  -1.4373036e-04  -1.2792434e-04   4.7622096e-05   4.5711709e-05   3.3605909e-05   1.4383616e-05
  -1.2153974e-04   1.7205144e-04   5.7177454e-06  -1.0678660e-04  -7.1275463e-05  -9.4845353e-05  -1.2069797e-04  -4.4432073e-04  -1.1608690e-04  -2.1829990e-06  -9.3578907e-05  -3.4539952e-04  -1.7366941e-04  -3.5579258e-04  -4.4817911e-04  -4.9590293e-05  -3.3604703e-04  -1.4741802e-04  -6.2134821e-04  -2.4300284e-04  -2.9453731e-06  -2.9528505e-04  -8.9663477e-04  -5.7013601e-04   1.1733239e-05  -6.7030749e-05  -1.5911630e-04  -9.4923635e-05   3.5384423e-04   2.0275950e-04  -1.2060774e-05  -3.6911562e-05  -3.5191901e-05  -2.4967393e-04   3.8680053e-04   2.2226775e-05   2.0475553e-04  -3.6820129e-04   3.7225883e-04   5.1828516e-05  -1.0474004e-04  -4.3122136e-04  -1.5638210e-04  -8.9112094e-05  -3.6861090e-04   5.5152599e-05  -1.8664674e-04  -2.4299370e-04  -1.7593475e-04  -1.4130317e-04
  -2.5335525e-04  -3.9803745e-05  -1.7884043e-04  -2.7693654e-04  -2.6631218e-04  -2.8554682e-04  -4.9172074e-04  -2.2653924e-04  -6.7620870e-04  -8.2309256e-05  -2.4214797e-04  -4.1472886e-04  -4.0995871e-04  -4.3520055e-04  -5.4238329e-04  -2.7397176e-04  -5.3456269e-04  -1.9180829e-04  -2.9282880e-04  -3.8851850e-04  -1.2481460e-04  -4.7585348e-04  -7.3544524e-04  -6.6509360e-04   1.8799989e-05  -3.3883320e-04  -2.9109884e-04  -2.1102668e-04  -1.9401264e-04   1.0818724e-04  -3.1291420e-04  -9.3582450e-05  -6.2716070e-05  -2.8270384e-04   6.5661402e-04   2.1127760e-04   1.8760863e-04   1.8429961e-04   3.2486088e-04  -7.0944581e-05  -2.6023836e-04  -3.4317811e-04  -1.0048495e-04  -7.9911551e-05  -1.1336254e-04  -1.1216367e-04  -1.3482556e-04  -2.5405100e-04  -1.0114886e-06  -2.1360106e-04
  -1.1824290e-04   1.8811843e-04  -3.1299976e-05  -1.2883033e-04  -6.5230823e-05  -2.5818311e-04  -2.5740417e-04  -3.5223167e-04  -3.3899481e-04   5.1763083e-05  -1.8264273e-05  -3.3331852e-04  -1.9910198e-04  -5.1951455e-04  -2.3493418e-04  -3.9770526e-05  -8.7764893e-05  -1.5682903e-05   3.7825858e-04  -7.9113910e-05   8.5950567e-05  -2.9462672e-04  -4.7048138e-04  -5.0442672e-04  -1.4436329e-04   2.7954095e-05  -2.8009273e-04  -1.2594578e-04  -2.4711984e-04   3.2536217e-04  -9.3025083e-05  -8.7396642e-05   1.2050834e-04  -4.3353942e-04   3.1534355e-04   3.5408951e-04   2.7082392e-04  -7.8165678e-05   3.1141622e-04   1.5117736e-04  -1.8781207e-04  -3.1033644e-04  -2.8506169e-04  -9.1288137e-05  -6.0632232e-05   2.0076601e-04  -5.5829456e-05  -4.5943405e-05   9.8302342e-05   1.8604932e-04
  -1.7851565e-04   9.2613072e-06  -5.5905955e-05  -2.8487068e-04  -1.7100960e-04  -1.3104569e-04  -3.9758914e-04  -5.3002115e-04  -3.9801703e-04  -2.5237383e-05  -1.6224280e-04  -4.3760764e-04  -2.3047972e-04  -3.6350513e-04  -2.2262294e-04   7.8221616e-05   2.7516549e-05   1.9882442e-05  -1.5566942e-04  -7.9653139e-05  -4.6821086e-05  -3.7450480e-04  -1.9433300e-04  -6.1297970e-04   1.5935411e-04  -1.1129247e-04  -2.9917320e-04   4.8510476e-05   2.2262994e-04   2.9250365e-04   1.2945627e-04  -4.0412917e-05   1.2033644e-05  -2.2514485e-04   4.1232481e-05  -1.8898466e-04   4.7969256e-04   8.3532526e-05   8.9953421e-05  -2.9137496e-05  -2.3728273e-04  -4.6944589e-04  -3.2502506e-04  -1.2623824e-04  -3.8080011e-04   6.8217167e-05  -1.3076318e-04  -1.9570329e-04  -1.2979678e-04   3.6562142e-05
  -3.8000295e-04  -1.6073955e-04  -2.1407609e-04  -4.6043078e-04  -2.3106654e-04  -6.5506453e-04  -3.2597547e-04  -5.8181153e-04  -3.4145036e-04  -1.0995950e-04  -3.1422341e-04  -5.0259993e-04  -3.7486732e-04  -4.1481468e-04  -2.6680599e-04  -2.1885392e-04  -1.0220613e-04   6.8428693e-05  -9.0467487e-04  -3.1676254e-04  -2.0076557e-04  -4.9083028e-04  -7.6960662e-04  -5.5031723e-04   1.7667530e-04  -3.1674383e-04  -1.7794775e-04  -1.8430423e-04   4.5628194e-04   2.3481970e-04  -3.1706790e-04  -2.3460056e-04  -2.0306336e-04  -4.8442671e-04  -1.1689613e-04  -2.9880324e-04   9.3161034e-05   2.4662985e-04   1.4713894e-04   6.2133549e-05  -2.7500856e-04  -5.7507184e-04  -2.8057548e-04  -2.4101656e-04  -2.3241465e-04  -5.4483733e-04  -1.7148639e-04  -1.4349032e-04  -5.4399898e-05   1.6030800e-04
  -2.7795820e-04  -2.3222216e-05  -2.3441661e-04  -3.6001371e-04  -4.7142940e-04  -2.6729921e-04  -3.1672022e-04  -1.0850188e-04  -2.0743656e-04  -9.9031204e-06  -1.2813580e-04  -3.9796100e-04  -3.2050311e-04  -4.1832851e-04  -3.6680821e-04  -1.7762704e-04  -3.2631709e-04  -1.0831176e-04  -1.6384882e-04  -2.2416757e-04   2.0342350e-05  -2.4915236e-04  -6.1578647e-04  -4.0592047e-04  -6.2784078e-05  -1.5975307e-05   1.0627851e-05  -1.0297823e-04  -2.4560641e-04   4.8393389e-04  -9.7051678e-05  -2.3493757e-04   2.9412645e-04  -3.1036086e-04  -7.5773591e-05   2.5526655e-04   4.5311695e-04   2.2071072e-04   5.6695030e-04   3.0108815e-04  -2.2927146e-04  -3.0124540e-04  -2.7208886e-04  -9.3594288e-05  -1.0457048e-04  -2.1959943e-04   1.7422716e-04  -1.7920895e-04   5.6593744e-05   8.5263229e-05
  -1.6776264e-04   9.7436467e-05  -9.5932170e-05  -2.4164520e-04   3.0159056e-06  -3.3456204e-04  -2.8879015e-04  -2.6097178e-04  -4.0397563e-04   7.5245378e-05  -5.6459256e-05  -2.7121865e-04  -2.9381193e-04  -4.0737446e-04  -2.4162349e-04  -9.6393327e-05  -4.8287818e-04  -1.6571212e-04  -3.5382818e-05  -2.8052018e-04   3.7307753e-05  -2.9842119e-04  -5.6972203e-04  -3.0211351e-04  -7.7522296e-04  -7.5375043e-05   2.9383873e-04  -2.2222515e-04  -5.0473234e-05   2.5052138e-04  -3.7168595e-04  -1.3998033e-04  -2.5248580e-04  -2.5794495e-04  -1.3253084e-04  -3.2222528e-05  -5.0192099e-05   4.4228797e-04   5.9024931e-04  -2.3729181e-04  -3.2973706e-04  -3.3642209e-04  -3.8447609e-04  -2.1905042e-04  -1.7705646e-04  -2.6620470e-04   1.3469056e-04  -1.5042927e-04  -1.3486271e-04  -4.7462381e-05
  -3.3285414e-04  -5.5213102e-05  -2.2079708e-04  -3.6233079e-04  -2.2616332e-04  -3.3178169e-04  -3.4841214e-04  -3.4727511e-04  -2.7701812e-04  -2.7418448e-05  -1.1709724e-04  -3.3975425e-04  -4.0960661e-04  -3.1641312e-04  -1.3269461e-04  -2.2319549e-04  -5.0810276e-04  -1.4596838e-04  -3.9653800e-04  -3.3147464e-04  -7.1670227e-05  -5.3277065e-04  -7.4406742e-04  -3.8583804e-04  -7.2976123e-05  -2.8712844e-04  -1.6960312e-04  -3.3852927e-04  -4.2039064e-05   2.9449395e-04  -1.8790255e-04  -2.8053363e-04  -4.4819832e-04  -5.6415593e-04  -1.6654626e-04  -3.0967424e-04  -3.5246398e-04  -2.2836630e-06   2.0810527e-04  -2.3317317e-04  -5.0311798e-04  -4.1790763e-04  -6.5654807e-04  -3.4397928e-04  -2.6819709e-04  -4.7716245e-04  -4.8486208e-06  -4.4357116e-04  -3.1847626e-04  -2.2450785e-04
  -5.2514340e-04  -2.8109882e-04  -3.2091633e-04  -4.7716248e-04  -2.8095525e-04  -3.4533077e-04  -6.3512282e-04  -2.0849775e-04  -4.5539989e-04  -7.6753109e-05  -2.0847896e-04  -4.3050435e-04  -5.1149458e-04  -4.4115665e-04  -5.2304909e-04  -2.0116993e-04  -5.7548174e-04  -1.3452204e-04  -9.7678974e-05  -3.7005194e-04  -5.3240990e-05  -5.2480778e-04  -5.7699456e-04  -2.4940359e-04  -1.3153658e-04  -2.4873976e-04  -1.0471285e-04  -2.0894560e-04   4.9343787e-04   2.0472109e-04  -2.6545842e-04  -2.3920379e-04  -2.9457090e-04  -3.7782540e-04  -2.3476293e-04   1.4153229e-04  -2.0311122e-04   9.2669565e-05   2.7173548e-04  -1.1335401e-04  -2.3056862e-04  -3.1404980e-04  -2.0305360e-04  -3.0411920e-04  -2.8776645e-04  -1.7736616e-04   6.5363092e-05  -1.7109662e-04  -1.3690180e-04   2.5361133e-04
  -1.6930560e-04   2.0993825e-06  -1.6544081e-04  -2.4915894e-04  -5.3961292e-05  -3.3477379e-05  -1.7832300e-04  -4.8810779e-04  -2.6924897e-04   2.2377712e-05  -8.8433451e-05  -4.5469491e-04  -3.4668134e-04  -3.5171048e-04  -3.0333787e-04  -2.3448288e-04  -3.0493064e-04  -1.4646084e-04  -4.6957549e-04  -2.2499332e-04  -3.7480899e-05  -4.4910764e-04  -5.4057781e-04  -4.4329217e-04   1.2082572e-04  -1.0080234e-04   1.4281872e-04   6.1949063e-06   9.0709720e-05   1.5067967e-04  -1.7572426e-04  -1.2658880e-04  -3.0400811e-04  -7.5219048e-04  -4.0370421e-04   2.6971899e-04   4.1826461e-05  -8.4222440e-05   1.4787687e-04  -2.3259297e-04  -2.1506785e-04  -4.7961375e-04  -3.5679524e-04  -3.8899222e-04  -2.0707402e-04  -4.5737653e-04  -6.3060121e-05  -3.9567932e-04  -2.1827324e-04  -6.7071982e-05
  -3.0487773e-04  -1.0147328e-04  -2.1594169e-04  -4.1289601e-04  -1.6958620e-04  -3.1329304e-04  -4.3379227e-04   3.6284243e-04  -7.2117103e-04  -5.4354707e-05  -2.0733367e-04  -6.6032517e-04  -3.5510838e-04  -2.2943498e-04  -4.2527751e-04  -5.2343676e-05  -2.1239772e-04   1.8104920e-05  -2.4582032e-04  -2.7007313e-04  -1.2288934e-04  -5.9266924e-04  -7.8414212e-04  -6.0273544e-04  -1.7334834e-04  -2.7888612e-04  -6.9944089e-04  -2.1332619e-04   1.4346674e-04   1.3092312e-04  -1.3180917e-04  -2.9692671e-04  -6.8933226e-04  -3.6465068e-04  -6.1131670e-04  -5.6402857e-04  -7.8360470e-05  -3.9496773e-04   3.5477284e-04  -3.2002147e-04  -4.9498392e-04  -6.9402123e-04  -3.4727415e-04  -3.7098245e-04  -4.7040745e-04  -5.8930722e-04  -2.2044011e-04  -4.0124642e-04  -4.5101950e-04  -2.0824446e-04
  -5.4246472e-04  -3.6170852e-04  -3.3395732e-04  -5.3834234e-04  -2.0623034e-04  -3.5331526e-04  -4.9460540e-04  -2.0648456e-04  -8.7424676e-04  -1.9544635e-04  -4.0343089e-04  -7.8526291e-04  -5.4751436e-04  -4.1164030e-04  -4.8398541e-04  -3.8318508e-04  -1.9039548e-04  -1.1991762e-05  -8.8136882e-04  -4.1113791e-04  -2.8980133e-04  -7.9140073e-04  -9.2567684e-04  -8.2748389e-04  -5.1168038e-04  -5.3438230e-04  -3.4411057e-04  -4.0230301e-04  -4.0741751e-04  -2.7515372e-04  -6.5219100e-04  -4.9996574e-04  -7.2443578e-04  -8.5080077e-04  -6.8131968e-04  -5.4948474e-04  -8.2694157e-04  -6.3679839e-04  -1.2296558e-04  -6.2626129e-04  -5.1021273e-04  -8.4587192e-04  -7.8187068e-04  -3.2305461e-04  -5.1847537e-04  -5.6264648e-04  -3.4787160e-04  -4.6063660e-04  -3.2836513e-04  -5.7638396e-04
  -4.8659061e-04  -2.2818193e-04  -2.9020748e-04  -4.9111969e-04  -3.1851948e-04  -4.0743372e-04  -4.6351613e-04  -1.9556013e-04  -4.3374847e-04  -1.1883141e-04  -3.2908522e-04  -7.6754030e-04  -4.7573689e-04  -2.4378519e-04  -4.1249112e-04  -3.5198766e-04  -2.9669341e-04  -9.2101283e-05  -3.5033125e-05  -3.5689774e-04  -1.6529675e-04  -6.1331177e-04  -8.8436727e-04  -6.2167848e-04  -7.1953371e-05  -2.9694426e-04  -3.5791832e-04  -5.0362054e-05   7.0047616e-05  -2.9745750e-05  -5.7864760e-04  -2.9247327e-04  -4.4007885e-04  -6.1033503e-04  -7.7783084e-04  -4.9909414e-04  -2.6773178e-04  -1.2446835e-04   2.8025548e-05  -2.4289427e-04  -5.2930356e-04  -5.0936936e-04  -4.8189287e-04  -3.7964227e-04  -3.5361378e-04  -3.7765622e-04  -1.6045436e-04  -3.9406319e-04  -3.8243382e-04  -4.2474866e-04
  -2.9650819e-04  -2.3042360e-04  -2.8472234e-04  -4.1942988e-04  -3.8243612e-04  -4.7759121e-04  -4.0435317e-04  -4.3494915e-04  -6.2779087e-04  -1.5058115e-04  -3.5199226e-04  -7.6104200e-04  -5.0045853e-04  -4.8711346e-04  -4.0239823e-04  -4.5473178e-04  -4.1097164e-04  -1.3548652e-04  -3.9842041e-04  -3.9147490e-04  -2.4381746e-04  -7.8035012e-04  -6.5587997e-04  -7.7613210e-04  -2.5341060e-04  -4.3016192e-04  -2.8985579e-04  -4.6454670e-04   4.9808586e-04  -2.0972647e-04  -3.8902517e-04  -4.3002755e-04  -7.6919596e-04  -9.1314182e-04  -5.5648515e-04  -5.1248062e-04  -7.6076406e-04  -6.1021699e-05   3.0026803e-04  -4.8287466e-04  -6.4621348e-04  -8.6381199e-04  -8.1362401e-04  -4.0572320e-04  -5.7769072e-04  -4.2593401e-04  -3.3376127e-04  -5.9275306e-04  -5.9346569e-04  -5.4822525e-04
  -5.8669737e-04  -4.1084387e-04  -4.0563088e-04  -5.9242442e-04  -1.0009969e-04  -6.9223222e-04  -3.3630771e-04  -4.0803447e-05  -7.2601449e-04  -2.5771128e-04  -4.6314116e-04  -8.8800752e-04  -5.9611280e-04  -5.1916653e-04  -7.4817560e-04  -4.4643294e-04  -4.8796053e-04  -1.9279806e-04  -1.0196576e-03  -4.8130465e-04  -3.7423425e-04  -8.4033347e-04  -7.5987104e-04  -8.9044211e-04  -5.8200571e-04  -7.1278278e-04  -4.8828853e-04  -6.3926884e-04  -2.6202141e-04  -1.6632526e-04  -7.7628810e-04  -4.0728526e-04  -7.8856951e-04  -8.6714956e-04  -9.2723110e-04  -8.1447192e-04  -8.9617475e-04  -2.3888655e-04  -1.2482100e-04  -3.7257577e-04  -4.6144694e-04  -8.7272160e-04  -9.0628624e-04  -6.9093896e-04  -6.1407732e-04  -5.4983050e-04  -2.3418920e-04  -5.5110152e-04  -4.9605209e-04  -2.0028664e-04
  -4.3789909e-04  -3.2890969e-04  -2.9422619e-04  -4.8395563e-04  -2.7545015e-04  -5.6810933e-04  -3.3465162e-04  -6.3005940e-04  -5.4066133e-04  -1.6623210e-04  -3.6299278e-04  -8.5881137e-04  -4.2357054e-04  -4.5914375e-04  -5.6391075e-04  -2.8754145e-04  -4.0882360e-04  -1.3520180e-04  -8.1147900e-04  -4.1388013e-04  -2.1737789e-04  -6.1449507e-04  -8.0831896e-04  -5.8700464e-04  -4.3604299e-04  -3.7521715e-04  -7.7031041e-04  -2.8078104e-04   3.9309738e-04  -2.0178777e-04  -4.7389872e-04  -1.1712849e-04  -4.0639593e-04  -5.5354706e-04  -5.3482986e-04  -2.7429889e-04  -5.8122381e-04  -1.2602254e-04   3.4141610e-04  -3.1572898e-04  -4.1095976e-04  -5.9387780e-04  -5.2745920e-04  -4.6554510e-04  -6.2781648e-04  -6.4614665e-04  -4.2021123e-04  -1.7703236e-04  -4.7217013e-04   2.9575560e-05
  -4.1405697e-04  -2.3214138e-04  -2.3613847e-04  -4.6873878e-04  -8.0862759e-05  -7.1823550e-04  -5.1135255e-04  -7.0294825e-04  -4.8525189e-04  -2.1445591e-04  -4.2629763e-04  -9.6180371e-04  -4.6202436e-04  -4.2927804e-04  -3.6993157e-04  -3.7568680e-04  -2.3483299e-04  -4.6332425e-05  -9.3951303e-04  -3.8331840e-04  -2.8307253e-04  -7.4291148e-04  -1.0047983e-03  -7.2892645e-04  -2.4420078e-04  -4.1252110e-04  -2.0930356e-04  -2.8705416e-04  -2.0059886e-04  -1.1476232e-04  -5.2903278e-04  -3.5916883e-04  -6.6764088e-04  -4.5603703e-04  -4.4600121e-04  -2.8839411e-04  -2.3186234e-04  -3.0774195e-04  -1.4042616e-04  -2.9602103e-04  -7.0431322e-04  -8.9071109e-04  -5.2746857e-04  -1.9463466e-04  -6.4645626e-04  -5.6504243e-04  -5.8685802e-04  -2.5166484e-04  -5.3493568e-04  -6.5616984e-04
  -5.0634122e-04  -4.2825082e-04  -3.4248378e-04  -6.3211651e-04  -3.8843084e-04  -2.7964081e-04  -4.3621269e-04  -3.9008455e-04  -9.0065104e-04  -3.2848862e-04  -5.3947163e-04  -1.1058884e-03  -5.6182360e-04  -5.7242997e-04  -4.3872072e-04  -7.5866806e-04  -2.9759511e-04  -1.9519698e-04  -7.5190706e-04  -4.3501289e-04  -4.1264485e-04  -9.8540122e-04  -7.9071999e-04  -6.3147908e-04  -7.1459368e-04  -5.9088122e-04   9.3874616e-05  -5.2204193e-04   9.5266834e-05  -1.9140413e-04  -7.5697526e-04  -5.2289106e-04  -5.3188414e-04  -8.0430234e-04  -5.0068100e-04  -5.0848036e-04  -5.1746593e-04  -2.7333814e-04  -4.3324442e-05  -5.1293173e-04  -3.3279264e-04  -7.1043806e-04  -2.5368252e-04  -3.2133682e-04  -6.4222026e-04  -4.6494059e-04  -5.0695759e-04  -2.3319828e-04  -4.5613418e-04  -4.0990612e-04
  -4.1780516e-04  -3.0119120e-04  -2.3258751e-04  -4.1483119e-04  -1.5569925e-04  -3.9309086e-04  -4.2980842e-04  -6.4628263e-04  -4.0411649e-04  -2.1089413e-04  -3.6077018e-04  -1.0029356e-03  -3.2476772e-04  -3.1806197e-04  -3.6838197e-04  -2.5080505e-04  -1.5667887e-04  -1.2191364e-04  -1.0605733e-03  -2.8535118e-04  -2.3937585e-04  -6.5561914e-04  -5.5725913e-04  -7.0317194e-04  -1.8292968e-04  -2.9286844e-04   3.2922992e-05  -1.9152352e-04   2.2073483e-04  -8.0826012e-06  -4.0087037e-04  -2.4817223e-04  -4.0380273e-04  -5.2877585e-04  -1.6812971e-04  -1.5013029e-04  -4.9478968e-04  -1.2830869e-04   8.9259192e-05  -3.3344710e-04  -1.6705460e-04  -4.8245009e-04  -1.0722110e-04  -2.8432347e-04  -5.3937174e-04  -3.1430932e-04  -5.2636175e-04  -7.3572635e-05  -2.9511680e-04  -8.1207755e-04
