  -5.2487343e-05   6.8906677e-04   2.1508653e-04   4.6007783e-04   6.4412173e-04  -2.5280510e-04   5.6173711e-04   1.3896464e-03  -9.8564873e-05   7.1606203e-04   1.2488731e-03  -2.4493265e-03   1.0047333e-04   8.6436230e-05   2.8664106e-05  -3.6781508e-05  -1.8163433e-03   4.2135397e-04   9.3100342e-04   1.6731657e-04   1.2345321e-03  -6.0973334e-04  -7.6520641e-04   1.7449650e-04   1.3380096e-03  -5.8112189e-04   1.4446069e-04  -4.7746225e-04   1.2886182e-03  -3.6734773e-06  -7.1807066e-04   1.3624481e-03   6.3647976e-04   1.8825936e-04   3.4598238e-04   3.2056286e-04   8.9328212e-04   2.6670023e-05   1.1272257e-03  -1.3881593e-04   6.3728425e-05   1.3694228e-03  -1.4133660e-04   3.9153677e-04   1.0288444e-03   8.4381973e-05   3.9854762e-03   2.2185538e-03   1.2798540e-03   7.1751745e-04
   2.0086426e-04   9.6664083e-04   3.5064589e-04   8.8691583e-04   3.1832847e-04   2.6562337e-05   5.3542102e-04   1.0305614e-03   1.4405000e-05   8.0227217e-04   1.4853382e-03  -2.2103484e-03   2.8970806e-04   4.8750010e-04   7.3167073e-05  -3.4786983e-06  -1.7530642e-03   4.5664635e-04   1.8389687e-03   2.9991029e-04   1.4357510e-03  -4.2703035e-04  -7.8269129e-04   2.4300841e-04   1.2903264e-03  -2.6492815e-04  -3.8044163e-04  -5.0473231e-04   5.5811595e-04  -7.3442738e-05  -7.1540801e-04   1.5348553e-03   1.0415104e-03   6.9342047e-04   2.4240650e-04   4.0959273e-04   2.8659342e-04   8.6665899e-04   1.0894000e-03  -2.8372699e-04   3.8694394e-05   1.4465372e-03  -3.7812386e-04   4.2838810e-04   9.6998201e-04   3.0066192e-04   3.9791502e-03   2.1478590e-03   1.2683512e-03   9.5351302e-04
   2.8489012e-04   9.2445896e-04   4.1452827e-04   7.6939433e-04   5.4376962e-04  -6.7621120e-05   5.3344399e-04   1.1557753e-03  -6.8921312e-05   7.8549981e-04   1.4553792e-03  -2.2220945e-03   2.2573781e-04   2.8243344e-04   5.4364667e-05  -2.5826404e-05  -1.7373197e-03   4.4154027e-04   1.3428897e-03   2.6475702e-04   1.3658825e-03  -6.0840725e-04  -6.9252076e-04   1.9646875e-04   1.2241990e-03  -4.0894304e-04  -2.0816023e-04  -5.6075893e-04   8.1109587e-04  -5.6865898e-05  -9.5902226e-04   1.4094088e-03   8.2853192e-04   3.5686218e-04  -1.0780292e-04   5.6046096e-04  -1.4520442e-04   1.3354864e-03   1.2182130e-03  -1.9567080e-04  -1.3275807e-04   1.4278474e-03  -1.4322832e-04   4.2652639e-04   9.5573661e-04   3.1991658e-04   3.8621100e-03   1.9831220e-03   1.1547300e-03   6.4111926e-04
   5.7921188e-05   7.4227760e-04   2.9910496e-04   5.7218183e-04   2.9172245e-04  -1.8074147e-04   4.7179757e-04   6.0527970e-04   5.6110024e-05   7.2702667e-04   1.2644309e-03  -2.4574525e-03   9.9182747e-05   3.0400531e-04  -7.8191821e-05  -1.2445072e-05  -1.7271929e-03   4.2057724e-04   8.0728100e-04   1.9886227e-04   1.2137719e-03  -5.9339381e-04  -4.0242917e-04  -1.2574971e-04   1.4205532e-03  -5.6740642e-04   1.7710285e-04  -5.3868222e-04   1.1721341e-04  -8.8431421e-05  -5.8156904e-04   1.3716196e-03   5.5318797e-04   4.5857564e-04  -2.2656142e-04   3.8862712e-05   7.2274153e-04   6.6788279e-04   1.1164355e-03  -2.6165848e-04   1.0207884e-04   1.4497869e-03  -3.4142402e-04   3.7743530e-04   1.0345699e-03   1.2607893e-04   3.9552874e-03   1.8301711e-03   1.3141413e-03   6.0926244e-04
   1.9660733e-04   9.0853026e-04   3.5597515e-04   8.0408814e-04   6.7892059e-04  -6.9658861e-05   8.9765660e-04   1.2162537e-03  -9.5514544e-05   7.4847904e-04   1.4642230e-03  -2.2547124e-03   2.6928063e-04   3.3410484e-04   2.5199002e-04   8.7430672e-05  -1.6769922e-03   4.7088164e-04   1.1727308e-03   3.0487348e-04   1.4473518e-03  -4.4664167e-04  -6.4328697e-04   2.8195034e-04   1.5581667e-03  -3.0601563e-04   1.0727603e-04  -2.0069189e-04   1.1354898e-03  -3.9472146e-05  -6.5100181e-04   1.4605138e-03   8.0089091e-04   4.3915564e-04   3.5400540e-04   4.6874493e-04   5.8389967e-04   2.6324514e-04   1.0102768e-03  -3.4227938e-04   1.9499581e-04   1.4316251e-03  -9.6674172e-05   5.7608314e-04   1.1168175e-03   5.1852915e-04   4.1150888e-03   2.0045594e-03   1.2971646e-03   9.1187085e-04
   2.5562229e-04   9.6059387e-04   4.8978865e-04   8.8594097e-04   4.1526213e-04  -2.0613635e-04   7.4233074e-04   1.0698511e-03  -8.6613050e-05   7.8076718e-04   1.4280154e-03  -2.1960072e-03   2.5187904e-04   2.8572665e-04   3.9385827e-04   1.9060163e-04  -1.7167646e-03   4.0861187e-04   1.3662210e-03   2.7922602e-04   1.3920502e-03  -4.5915940e-04  -5.4182933e-04   4.1976085e-04   1.2966610e-03  -1.8566404e-04   6.6945853e-05  -7.5807946e-04   8.7392249e-04  -9.0067399e-05  -6.8773254e-04   1.4523586e-03   1.0535337e-03   2.7509892e-04   4.1936437e-04   3.2895000e-04   5.3388305e-04   6.9366698e-04   1.4627682e-03  -3.4711283e-04   7.0647300e-05   1.3382946e-03  -2.4728631e-04   4.0476269e-04   1.1396331e-03   1.4167569e-04   4.0408634e-03   2.0909286e-03   1.2273845e-03   5.3591310e-04
   8.6805478e-05   7.7595469e-04   4.1719127e-04   6.2657427e-04   4.6415956e-04   1.9013869e-04   7.3308987e-04   8.5705292e-04   5.6453326e-05   7.0215337e-04   1.2677676e-03  -2.4441138e-03   6.5189466e-05   3.9412937e-04  -1.5711269e-04   5.4690154e-05  -1.6525710e-03   4.0092453e-04   1.3225438e-03   1.9507163e-04   1.2269263e-03  -5.7720172e-04  -7.8673172e-04  -1.2790040e-06   1.0988292e-03  -3.9138709e-04   4.0659547e-04  -5.3815951e-04   1.2074612e-03  -4.0642186e-05  -8.8994257e-04   1.3047771e-03   4.2897151e-04   4.7325515e-04  -4.0124397e-04   5.7137458e-05   6.8377837e-04   3.4274210e-04   1.1511771e-03  -3.6280174e-04  -1.0931577e-04   1.2999289e-03  -2.0654130e-04   3.8280568e-04   1.0293514e-03   3.0019481e-04   4.0782001e-03   2.1899156e-03   1.1956216e-03   7.6175644e-04
   1.8947225e-04   8.1280124e-04   4.0146353e-04   8.0446113e-04   4.5808815e-04  -1.3292255e-04   7.2270370e-04   7.8472501e-04   2.0138970e-04   7.4661715e-04   1.3360702e-03  -2.3144351e-03   2.7844679e-04   4.7970592e-04   5.2866260e-05  -1.3856532e-05  -1.5707011e-03   5.0257234e-04   1.5502202e-03   2.4915978e-04   1.3593178e-03  -5.3671742e-04  -7.3584373e-04   2.3247913e-04   1.5204473e-03  -1.9616076e-04   6.7718432e-04  -5.9990684e-04   1.5307454e-03  -2.2174932e-04  -8.2751206e-04   1.3913095e-03   5.7717884e-04   4.4994499e-04  -2.9058688e-04   3.7024581e-04   8.2412950e-04   1.1077409e-03   3.9303559e-04  -6.0077973e-06   3.9663695e-04   1.7090021e-03   2.3309900e-04   6.2196649e-04   1.0785924e-03   5.2603800e-04   4.2255754e-03   2.5901478e-03   1.2758174e-03   6.7486876e-04
   2.3777985e-04   8.1944163e-04   4.4098488e-04   7.9726847e-04   6.7317800e-04   2.1059424e-04   9.0651435e-04   8.3382847e-04  -1.1516483e-04   7.0677564e-04   1.3014161e-03  -2.4040632e-03   2.5144988e-04   3.5931959e-04   1.4686178e-04   2.2148466e-04  -1.2738063e-03   4.8911362e-04   1.1882173e-03   3.6784462e-04   1.2723828e-03  -5.6792080e-04  -5.6583050e-04   4.8122936e-05   8.8568084e-04  -1.8351420e-04  -2.5225007e-05  -3.4914369e-04   8.4941348e-05  -2.2198528e-05  -5.4094073e-04   1.2978297e-03   7.8284758e-04   3.0617238e-04  -4.0526607e-04   1.9957829e-04   1.3468166e-04   6.5718580e-04   1.1191006e-03  -9.6716547e-05   5.5531750e-04   1.5648756e-03   2.7489223e-04   5.4104510e-04   9.4620808e-04   5.8950396e-04   4.0646996e-03   2.2524695e-03   1.1592056e-03   7.2909635e-04
   8.1575323e-05   5.7642278e-04   4.0097811e-04   5.8257987e-04   3.0343252e-04  -1.9377268e-05   7.3716056e-04   6.9494842e-04   2.0501822e-04   6.7075808e-04   1.1558080e-03  -2.4827686e-03   1.5537621e-04   4.9920660e-04  -1.8627341e-05   2.0698523e-04  -1.3599950e-03   4.1217351e-04   1.0303747e-03   1.9600352e-04   1.1172680e-03  -7.3074183e-04  -5.7925592e-04   4.6588491e-05   1.1197450e-03  -3.6711653e-04   7.4147822e-05  -2.8086681e-04  -2.3267546e-04  -1.3794324e-04  -4.3902153e-04   1.2582928e-03   4.1747233e-04   5.3790945e-04  -3.5902529e-05   5.8016096e-05   1.9158327e-04   4.1944603e-04   1.2476062e-03  -1.3817198e-04   1.9830829e-04   1.5093089e-03  -1.1759777e-04   2.9525461e-04   8.3930779e-04   4.6751698e-04   3.8498407e-03   2.4421727e-03   1.0239651e-03   5.5635633e-04
  -8.8778237e-05   4.6610177e-04   2.8051171e-04   4.8858009e-04   4.4360026e-04   9.8163931e-05   7.4082956e-04   8.2558620e-04  -7.3004936e-05   6.2715064e-04   1.1262542e-03  -2.5552714e-03   1.6395193e-04   4.7426927e-04  -7.5083102e-05  -4.3291657e-05  -1.2349540e-03   5.1240751e-04   1.1728386e-03   2.6396572e-04   1.1166664e-03  -7.1117177e-04  -6.4629648e-04   5.5592707e-05   1.2063845e-03  -1.3085709e-04   2.6803068e-04  -2.6329971e-04   7.1589812e-04  -8.7745997e-05  -4.6161865e-04   1.3488033e-03   8.2637678e-04   4.8434977e-05   1.1563217e-05   6.8053411e-04   1.2176575e-04   5.7233585e-04   1.0234417e-03  -2.7345502e-04   7.8734860e-04   1.5517568e-03   3.1090018e-04   5.8132329e-04   8.9058449e-04   6.9021538e-04   3.9509102e-03   2.4914048e-03   1.2436154e-03   7.3535298e-04
   2.4026813e-05   6.3541328e-04   3.8732548e-04   6.2980270e-04   7.1519078e-04  -9.0185407e-05   7.6469773e-04   1.5731088e-03   1.5172413e-04   6.4498401e-04   1.0556276e-03  -2.4951652e-03   1.5707201e-04   3.3361520e-04   4.0958571e-04   2.2208699e-04  -1.1737244e-03   5.3924625e-04   9.8406977e-04   2.2619934e-04   1.1261717e-03  -4.1707262e-04  -4.3956359e-04   9.9909834e-05   9.6401345e-04  -2.1478516e-04  -2.9627664e-04  -4.1072333e-04   1.7309043e-03   2.2893021e-04  -6.8237225e-04   1.1366091e-03   8.3106913e-04  -1.2789431e-04  -5.5116951e-04   9.2326052e-05  -1.6731428e-04   5.7285832e-04   1.1747867e-03   1.3533267e-04   8.4454089e-04   1.7453516e-03   2.5738831e-04   4.5185682e-04   7.4424577e-04   2.8312777e-04   3.9306348e-03   2.1472359e-03   1.0714232e-03   5.6388532e-04
   5.3818376e-06   5.0409365e-04   3.1657558e-04   5.5260415e-04   3.4522809e-04  -1.5183834e-04   6.0846796e-04   5.2590779e-04  -2.6318614e-04   6.2448595e-04   9.6082536e-04  -2.4225549e-03   1.4581865e-04   3.6328947e-04  -1.8683051e-04   2.8218044e-04  -1.2812931e-03   4.2907387e-04   9.6188451e-04   1.3311279e-04   1.0325364e-03  -8.4171770e-04  -5.6150695e-04   7.2050752e-05   8.5666985e-04  -3.0744277e-04  -3.6440433e-05  -2.8488698e-04   1.0174083e-03   1.0659252e-04  -4.4350702e-04   1.2489758e-03   1.0738345e-03   2.7960254e-04   1.6722217e-04   5.2306692e-05   2.7478745e-04   2.4249767e-04   8.4934069e-04   1.3224084e-05   6.0230371e-04   1.5852909e-03   2.6847894e-04   4.6179228e-04   5.9821387e-04   5.7001022e-04   3.9807670e-03   2.0612152e-03   8.2110625e-04   3.5304684e-04
  -2.4485780e-04   3.9102737e-04   1.4958071e-04   4.2360398e-04   4.1564528e-04  -1.2894665e-04   4.3364786e-04   1.0691971e-03  -4.2455547e-04   6.3973962e-04   1.0158509e-03  -2.2619441e-03   1.4789272e-05   2.5935448e-04   1.5098504e-04   1.2364720e-04  -1.5333616e-03   4.1792740e-04   1.2105063e-03   1.0174909e-04   1.1095622e-03  -6.7619100e-04  -1.7960268e-04   1.0776962e-04   1.0260243e-03  -1.6041420e-04  -9.5953983e-05  -3.6817344e-04   7.3741307e-04   7.9972895e-05  -3.8183219e-04   1.2129715e-03   6.9629448e-04   3.6164888e-04  -6.7138550e-04   3.2243054e-04   8.2963385e-04   2.2038535e-04   1.0455051e-03  -2.7573577e-04   3.9980921e-04   1.7210047e-03   1.8362256e-04   6.3243363e-04   8.8968826e-04   6.6877255e-04   4.2100581e-03   2.5578400e-03   1.1775055e-03   8.5828820e-04
   2.0139937e-04   7.1829429e-04   3.7805917e-04   7.5838563e-04   3.9977042e-04   1.3971716e-04   6.9069839e-04   1.0171493e-03   5.6306711e-05   7.0729834e-04   1.1131609e-03  -2.1797207e-03   2.6192318e-04   3.1297505e-04   2.1964489e-04   2.1529407e-04  -1.3476068e-03   4.4145816e-04   1.1475076e-03   2.0192526e-04   1.1545372e-03  -6.3846773e-04  -5.2128802e-04   4.0306451e-04   8.1580959e-04  -1.8846887e-04   3.6465618e-04  -2.3080035e-04   1.7997959e-03  -1.1830707e-05  -9.5735060e-04   1.3015656e-03   5.1099405e-04   6.3210411e-04   3.2027380e-04   4.2725165e-04   2.3697696e-04   4.8622722e-04   7.8578648e-04  -4.0984747e-04   7.3938788e-04   1.7957535e-03   2.7135608e-04   6.5812015e-04   8.3529705e-04   8.6844957e-04   4.1332063e-03   2.1833556e-03   1.0434270e-03   7.1212795e-04
   3.1228377e-05   5.8714097e-04   4.2179486e-04   6.7841407e-04   3.9826325e-04  -4.6211039e-04   8.3238329e-04   9.4123499e-04  -2.7104254e-05   6.4728328e-04   1.0640483e-03  -2.2152008e-03   1.5087197e-04   3.5357210e-04   9.8803968e-05   1.5875993e-04  -1.3628833e-03   4.8944692e-04   4.9951416e-04   1.3743808e-04   1.0387133e-03  -6.3318852e-04  -7.4575236e-04   1.0114688e-04   6.9429295e-04  -3.0717187e-04   2.9661058e-04  -3.5365272e-04   1.6493956e-03  -3.2284664e-05  -2.4389560e-04   1.2146687e-03   5.2092090e-04   2.9955851e-04  -5.0792668e-04   1.7113076e-04   7.0968771e-04   4.6694552e-04   6.0324906e-04  -2.8033482e-04   5.8116065e-04   1.4738675e-03   6.7108165e-05   2.7021597e-04   7.3037093e-04   5.6380010e-04   4.0479912e-03   1.9825154e-03   9.1639411e-04   3.6650835e-04
  -1.3220195e-04   4.6970494e-04   2.5001043e-04   6.2739413e-04   7.3569099e-04  -6.9234986e-05   7.6508027e-04   1.0670670e-03  -4.0385028e-04   6.9598010e-04   1.0936538e-03  -2.1739982e-03   1.8658116e-04   2.4124181e-04   1.4095139e-04   2.6398558e-05  -1.4289798e-03   4.7773760e-04   8.8291243e-04   1.5262733e-04   1.1369581e-03  -7.1343634e-04  -6.4623437e-04   5.1376433e-04   7.7976804e-04  -3.0024661e-04   4.0799205e-04  -1.5885495e-04   4.5806947e-04   2.1351670e-04  -7.4083981e-04   1.4795073e-03   8.0900092e-04   5.8164785e-04   5.5360439e-04   4.5430209e-04   1.2224933e-04   1.7069340e-04   1.2407666e-03  -3.2354394e-04   5.7893753e-04   1.9591313e-03   2.3599094e-04   7.3734438e-04   9.2733331e-04   9.1280480e-04   4.2668353e-03   2.1879703e-03   1.1689640e-03   8.9654792e-04
   2.7042071e-04   7.6428859e-04   4.8340773e-04   9.4535778e-04   8.3032338e-04  -8.3886014e-05   9.8205649e-04   1.3983722e-03  -1.4690602e-04   7.6856761e-04   1.1952544e-03  -1.9155856e-03   3.2579878e-04   5.3602573e-04  -1.0862300e-04   1.3836911e-04  -1.3585797e-03   5.7332794e-04   7.8002829e-04   2.4570498e-04   1.2514548e-03  -5.2051456e-04  -5.5232516e-04   5.1028165e-04   1.1292108e-03  -1.0321605e-04   6.1020033e-05  -1.7129486e-04   7.6030195e-04   4.0983479e-05  -6.8384840e-04   1.4604131e-03   8.6522056e-04   6.1514199e-04   4.0888847e-04   4.1471465e-04   6.4850709e-04   4.8880366e-04   9.0799265e-04  -1.3121199e-04   7.1359210e-04   2.0014758e-03   3.3172616e-04   7.3421153e-04   9.6917339e-04   7.7253982e-04   4.2080572e-03   2.1738296e-03   1.0868857e-03   8.2355581e-04
   2.4110089e-04   6.9236715e-04   3.9645284e-04   8.3756173e-04   5.8452680e-04  -6.6345360e-04   8.9490629e-04   1.2765196e-03  -3.7655706e-04   6.8751833e-04   1.1052818e-03  -1.9960862e-03   2.4361763e-04   3.5894994e-04  -2.2176157e-04   2.9205001e-04  -1.3211819e-03   6.0843327e-04   8.4658928e-04   2.0957788e-04   1.1350136e-03  -7.0773414e-04  -5.0711882e-04   1.7102189e-04   8.9641334e-04  -2.2654742e-04   1.9639514e-04  -4.1212610e-04   1.5920968e-03   2.6076662e-04  -8.0902973e-04   1.4882516e-03   6.7844265e-04   3.2198266e-04   9.2820977e-05   4.0536121e-05   5.2843697e-04   7.6066219e-04   1.2412153e-03  -5.0429330e-04   4.6294293e-04   1.6126188e-03   1.6855434e-04   4.7502379e-04   8.1007514e-04   2.1479047e-04   4.1418956e-03   2.3284024e-03   9.7779033e-04   5.8342336e-04
  -1.0925815e-05   4.8318267e-04   3.1876669e-04   5.9385132e-04   5.1429146e-04  -3.8272823e-04   5.7395227e-04   1.0142762e-03  -3.1878662e-04   6.5504177e-04   1.0679595e-03  -2.0337228e-03   1.9697048e-04   4.3040953e-04   2.4667880e-04   1.6638607e-04  -1.2676609e-03   5.4850755e-04   9.0802449e-04   2.0538148e-04   1.1790718e-03  -6.3803833e-04  -2.3815161e-04   2.2642198e-04   1.0714369e-03  -8.1753707e-05   1.2503218e-04   1.2356283e-04   5.0955196e-04   1.4647152e-04   1.2277342e-04   1.4214852e-03   1.1785711e-03   1.0085424e-03  -1.4354207e-04   5.2541873e-04   4.2274804e-04   6.1009760e-04   8.9051633e-04   1.5963294e-04   7.5445184e-04   1.9056103e-03   2.8569475e-04   5.6786038e-04   1.0440496e-03   5.4574991e-04   4.2256550e-03   2.2391758e-03   1.2734624e-03   6.7664089e-04
   2.5355991e-04   8.0773304e-04   5.1104050e-04   9.8724430e-04   6.2403094e-04   2.5969281e-05   1.2142706e-03   1.1183673e-03  -2.0013809e-05   7.3012611e-04   1.2036039e-03  -1.9371463e-03   3.3146978e-04   4.5938880e-04   2.8770062e-04   4.3053654e-04  -1.1545696e-03   6.7755720e-04   9.3313213e-04   3.6547880e-04   1.2332582e-03  -5.8230857e-04  -4.6409748e-04   5.5448833e-04   7.8412873e-04  -1.7251172e-05   2.6797986e-04   1.8310655e-05   1.7091645e-03   1.6808850e-05  -4.0202713e-04   1.5624232e-03   9.8161912e-04   6.8092352e-04   2.9622923e-04   4.4733073e-04   5.4241990e-04   6.6458737e-04   1.0773228e-03  -3.9550776e-04   7.3736120e-04   2.1757185e-03   3.4226041e-04   7.9232384e-04   9.8544150e-04   6.8396225e-04   4.2170053e-03   2.5307429e-03   1.1810329e-03   1.1352403e-03
   1.7077675e-04   6.8052398e-04   5.2059250e-04   8.0421270e-04   6.0668361e-04  -1.7243509e-04   7.4914959e-04   1.1625830e-03  -1.6175691e-04   6.9294823e-04   1.0956142e-03  -2.0559810e-03   2.2905879e-04   4.6237552e-04   1.5247747e-05   3.1188075e-04  -1.0982736e-03   6.5577286e-04   6.0093560e-04   2.1766320e-04   1.1056643e-03  -5.9213775e-04  -6.6047121e-04   3.4140388e-04   7.9947757e-04  -1.0780551e-04   1.0383061e-04  -6.4439977e-05  -1.8025286e-04  -3.7257685e-04   3.5095043e-04   1.4658504e-03   8.1508025e-04   8.2395802e-04  -3.7584461e-05   2.5389501e-04   7.1241881e-04   4.4421945e-04   1.0230872e-03  -2.6501477e-04   6.3310884e-04   1.8218717e-03   1.9411150e-04   4.9073761e-04   8.8505412e-04   5.9530913e-04   4.1003367e-03   2.2318056e-03   1.0568745e-03   8.0351706e-04
   1.8938628e-04   4.8781588e-04   3.1902542e-04   5.6407484e-04   4.8075165e-04  -1.2994197e-04   5.5355422e-04   1.1158281e-03  -4.4653320e-04   6.2565668e-04   9.6166990e-04  -2.2273506e-03   1.4444074e-04   4.5153502e-04  -3.1478904e-04   1.7219991e-04  -1.1560112e-03   5.7834672e-04   4.9925980e-04   1.4586946e-04   9.5829275e-04  -8.1241596e-04  -6.8625098e-04  -5.5485343e-06   9.9068217e-04  -3.0514444e-04   1.0025547e-04  -1.6518294e-04   1.2512672e-03   3.3881137e-05  -1.4054694e-04   1.5455073e-03   6.8722246e-04   6.9780718e-04   3.6165706e-04   5.7784817e-04   9.1038761e-04   9.0288924e-04   7.6159765e-04   3.3922991e-04   6.2430179e-04   1.8288009e-03   3.6673379e-04   6.0703565e-04   8.8508060e-04   8.9120551e-04   4.0333932e-03   2.4609996e-03   1.2829042e-03   5.6946720e-04
   1.1150159e-04   6.4839679e-04   4.3010979e-04   8.9178700e-04   4.8428183e-04   1.8073670e-05   9.1183448e-04   1.3494864e-03   7.1737879e-05   7.1942440e-04   1.1370459e-03  -2.0817039e-03   2.8004643e-04   4.7476904e-04   1.3590780e-04   3.0222940e-04  -1.1305962e-03   6.6954986e-04   1.4771199e-03   2.8952304e-04   1.1650446e-03  -5.0577417e-04  -3.8390089e-04   6.4661657e-04   1.1421584e-03  -7.4329902e-05   2.2501634e-04  -8.3747633e-05   3.4475591e-04   2.2178004e-04  -6.7545462e-04   1.5566830e-03   7.1247312e-04   6.6039455e-04   8.5623891e-05   7.3402171e-04   8.4216672e-04   6.1704702e-04   1.3424656e-03   2.0844824e-04   7.5387623e-04   1.9600051e-03   4.8271939e-04   6.1810791e-04   9.3944470e-04   8.0839865e-04   4.1602743e-03   2.3846047e-03   1.2129610e-03   7.8871823e-04
   2.0244774e-04   6.7595026e-04   5.0074188e-04   8.8175980e-04   6.2638131e-04   4.1841082e-05   9.8344206e-04   9.7216823e-04  -2.6092443e-04   6.9921126e-04   1.0846241e-03  -2.0097792e-03   3.0157028e-04   4.3072327e-04   2.4441219e-04   2.7524677e-04  -1.2472093e-03   6.3524925e-04   1.1285361e-03   2.7660580e-04   1.1477482e-03  -6.4155873e-04  -5.4514932e-04   3.6646766e-04   1.0402311e-03  -1.7735861e-04   2.3423033e-04  -4.3828049e-04   1.2945486e-03   1.9005012e-04  -1.9969938e-04   1.5146250e-03   7.2495278e-04   5.9310981e-04   3.3000400e-04   5.9985113e-04   1.0770141e-03   1.1701332e-03   9.4363658e-04  -6.3211359e-05   6.7500403e-04   1.9104175e-03   3.6313536e-04   6.1062083e-04   8.1311550e-04   6.8306905e-04   4.0896605e-03   2.3008992e-03   1.0186801e-03   7.5305498e-04
   1.0703029e-04   5.6738965e-04   3.9020376e-04   6.7830918e-04   6.2151591e-04  -2.7474278e-04   6.2490348e-04   1.1174442e-03  -2.8550602e-04   6.2269194e-04   9.7954471e-04  -2.0277835e-03   1.2732299e-04   3.5371431e-04   1.2761999e-04   2.7542407e-04  -1.3186911e-03   5.7613885e-04   9.3097205e-04   1.9178813e-04   1.0084106e-03  -6.8826572e-04  -5.9035607e-04   2.8428642e-04   8.9358265e-04  -2.2609530e-04   6.0717104e-04  -1.2140783e-04   8.2216458e-04  -7.1097442e-05  -9.2419481e-04   1.3727903e-03   5.3331169e-04   2.5673691e-04   1.4361397e-04   3.6543500e-04   4.6734978e-04   5.7689234e-04   1.2535903e-03  -4.1757833e-04   3.3450415e-04   1.6770858e-03   2.9757351e-04   3.8210707e-04   7.3657109e-04   6.7459571e-04   4.1118884e-03   2.0543574e-03   9.9446264e-04   7.5506791e-04
   1.0905052e-04   6.0349028e-04   3.6298140e-04   8.2908530e-04   6.3788763e-04   1.7425208e-04   8.4459363e-04   1.0878594e-03  -4.5661538e-04   6.3777453e-04   1.0084090e-03  -1.9248802e-03   1.9926501e-04   3.9504268e-04   1.3491532e-04   1.7722468e-04  -1.4143167e-03   6.1964389e-04   7.6768454e-04   2.6012622e-04   1.1259808e-03  -5.0845550e-04  -5.7244668e-04   3.8655649e-04   8.7885791e-04  -1.9325607e-04   4.9619324e-04  -4.0768005e-05  -5.2444567e-04   3.8388831e-04  -5.7210610e-04   1.5886466e-03   1.2011459e-03   1.0252740e-03   5.8002485e-04   7.3129352e-04   9.0185925e-04   9.5987332e-04   9.2521752e-04  -2.5297087e-04   4.7563709e-04   1.7671484e-03   4.7892736e-05   4.5008038e-04   9.6294185e-04   8.5859222e-04   4.1614049e-03   2.1042572e-03   1.1621794e-03   5.8285502e-04
   1.3880877e-04   7.2098069e-04   4.1911550e-04   9.7807357e-04   7.7230640e-04   4.4026613e-04   7.2607503e-04   1.4182664e-03  -1.8633841e-04   6.5338460e-04   1.0361427e-03  -1.8955306e-03   1.8363481e-04   2.8339305e-04   3.2202981e-04   2.1130961e-04  -1.4103043e-03   6.1737170e-04   7.8412710e-04   1.9341106e-04   1.0946204e-03  -5.5918528e-04  -7.0365693e-04   3.2665645e-04   1.1707272e-03  -2.0669091e-04   4.5357933e-04  -2.0163838e-04   1.4030940e-03   3.2637067e-04  -2.7406917e-04   1.5196612e-03   9.6109096e-04   5.5765465e-04  -1.5113176e-05   9.8277131e-05   1.3944228e-03   8.6787774e-04   9.0451946e-04  -3.2918467e-04   3.3075310e-04   1.7044415e-03   3.5635190e-04   4.9357128e-04   8.2999346e-04   4.6802728e-04   4.1005365e-03   1.9758001e-03   1.0115167e-03   4.3655952e-04
   1.5997959e-05   5.7751965e-04   3.7639358e-04   7.6400203e-04   2.6998014e-04  -2.8956716e-04   6.3933438e-04   1.5473113e-03  -3.8161533e-04   5.8344787e-04   8.9794159e-04  -2.0208529e-03   9.4909738e-05   4.3245289e-04   1.1778613e-04   5.3176067e-05  -1.4184632e-03   5.4018374e-04   1.0694434e-03   1.3682000e-04   9.9545834e-04  -7.4104348e-04  -6.2513159e-04   1.5895616e-04   9.4528816e-04  -2.8466753e-04   8.1103860e-04   2.6753356e-05   1.5293462e-03   1.9667290e-04  -6.9859601e-04   1.4312449e-03   7.6259271e-04   7.7556638e-04   1.0395079e-05   1.9469250e-04   2.5271624e-04   6.0102250e-04   5.1467825e-04  -6.5859618e-05   3.3815260e-04   1.3774791e-03  -1.3554671e-04   1.8231881e-04   5.4209033e-04   2.4734269e-04   3.9936798e-03   2.0091210e-03   8.5179310e-04   5.0054531e-04
  -1.0478588e-04   4.1070647e-04   2.2744188e-04   6.1802246e-04   4.7183197e-04  -4.1310271e-04   9.3859492e-04   7.8021467e-04  -5.0768937e-04   5.9973449e-04   8.9764083e-04  -2.0296248e-03   7.1540875e-05   2.1348256e-04  -2.3510367e-05   6.8646958e-05  -1.4641455e-03   6.0783245e-04   6.3748989e-04   1.4685560e-04   1.0394878e-03  -6.5033598e-04  -1.2172920e-03   4.0038518e-04   7.9840480e-04  -1.7113102e-04  -1.5901873e-04  -1.9079393e-04   4.4977220e-04   1.4815097e-04  -5.7286775e-04   1.5293630e-03   7.9037488e-04   7.0563302e-04   4.0421993e-04   7.6084875e-04   1.9962083e-04   9.6258009e-04   8.5235859e-04  -4.0292594e-04   4.9559696e-04   1.7427396e-03   4.3857162e-04   3.8264383e-04   7.4801856e-04   6.9752673e-04   4.0599057e-03   2.1976822e-03   1.0977696e-03   8.3139673e-04
   7.5230404e-05   7.0080766e-04   4.0927323e-04   9.8087033e-04   6.0183462e-04  -1.1072711e-05   9.3788432e-04   1.2672220e-03  -2.1117811e-04   5.9559353e-04   9.6950936e-04  -2.0091655e-03   1.2002089e-04   4.7116488e-04   1.6829448e-05   2.5801687e-04  -1.3305739e-03   5.8501336e-04   3.6879233e-04   2.1822406e-04   1.0738041e-03  -5.9588172e-04  -7.9823902e-04   3.5204401e-04   7.4542669e-04  -1.3948546e-04   6.5638690e-04  -2.1006237e-04   3.6198436e-04   3.0547634e-04  -1.3416287e-04   1.5393076e-03   6.9831050e-04   2.4616957e-04  -2.5917261e-04   4.4653384e-04   3.0266037e-04   5.4488884e-04   6.8834494e-04   1.8322842e-05   4.4011031e-04   1.5838299e-03   2.8756316e-04   6.0170708e-04   6.6967489e-04   3.2045142e-04   3.9147423e-03   1.9684022e-03   1.0302860e-03   5.4650672e-04
  -1.5830670e-05   5.8470637e-04   4.0485695e-04   7.9478842e-04   6.7391415e-04  -6.8700218e-05   8.9614413e-04   1.1592326e-03  -1.2370755e-04   5.8595504e-04   8.7655778e-04  -2.1307145e-03   1.9856456e-05   3.6633879e-04   1.3644549e-04   2.2499106e-04  -1.3028638e-03   5.8107893e-04   8.2213234e-04   2.0959818e-04   9.4225392e-04  -7.1022636e-04  -3.7502885e-04   2.7778395e-04   1.1106658e-03  -3.0273775e-04   4.4110251e-04  -3.4160991e-04  -3.4969658e-04   4.0565879e-04  -6.5720233e-04   1.4701037e-03   7.9181185e-04   6.5857056e-04  -7.6201028e-04   2.1760748e-04   2.5295737e-04   6.2646769e-04   1.4443629e-03  -2.4577981e-04   3.7687260e-04   1.5724862e-03   2.5330797e-05   4.9480633e-04   5.4341910e-04   4.4639996e-04   3.8493576e-03   1.8806859e-03   8.3313166e-04   5.1158102e-04
  -2.3564899e-04   3.7081633e-04   2.1260754e-04   4.9229432e-04   4.4928578e-04   1.6925330e-04   6.4861181e-04   9.5533353e-04  -2.0454124e-04   5.4439798e-04   7.7617890e-04  -2.3331866e-03  -1.1350224e-08   4.0886240e-04  -2.0947716e-04   2.4611564e-04  -1.2296956e-03   6.7712524e-04   8.2441245e-04   1.7418904e-04   9.6213323e-04  -8.4039173e-04  -8.5811398e-04   1.7222055e-04   9.5253030e-04  -2.1299681e-04   5.5954041e-04  -2.7151849e-05   1.5201832e-03   3.3614572e-04  -5.2755629e-04   1.5184160e-03   8.3971256e-04   8.3095807e-04   1.2879896e-04   3.7087654e-04   3.9721798e-04   1.0573429e-03   1.2285548e-03  -4.2122065e-05   6.5519422e-04   1.5589697e-03   1.5524971e-04   6.0134724e-04   6.5848121e-04   4.8765520e-04   3.9223642e-03   2.3967775e-03   1.1603512e-03   7.9417095e-04
   1.4667232e-04   6.1677239e-04   4.2310922e-04   8.4477483e-04   8.1441615e-04   2.4778940e-04   9.0040051e-04   8.0665178e-04   2.1028281e-04   6.1808794e-04   8.5954519e-04  -2.3077684e-03   2.5495985e-05   3.1324936e-04   3.1055268e-04   2.7041975e-04  -1.0799605e-03   6.5430545e-04   8.6741062e-04   2.5956691e-04   9.8977576e-04  -6.3483923e-04  -6.0572673e-04   2.6954690e-04   1.0791097e-03  -1.7865888e-04   1.3787621e-04  -2.0463346e-04   4.2334237e-04   3.4563374e-04  -1.4313794e-04   1.6172803e-03   1.0454991e-03   6.7418849e-04  -1.5952451e-04   3.2972850e-04   8.0435752e-04   8.4569876e-04   1.2485129e-03  -3.0992931e-05   7.8541535e-04   1.7143519e-03   1.0390527e-04   5.7416403e-04   7.5696694e-04   4.9553934e-04   3.8331500e-03   2.2034780e-03   1.0487506e-03   5.8534194e-04
  -7.8238103e-05   4.5352950e-04   3.8032772e-04   6.9172436e-04   7.1591150e-04  -3.3221609e-04   6.1411620e-04   8.4893423e-04  -2.8755245e-05   5.7121890e-04   7.9742598e-04  -2.3495015e-03  -1.4751282e-05   4.5517393e-04  -6.2378080e-05   2.9108516e-04  -1.0819744e-03   6.4712070e-04   5.3579226e-04   1.9291238e-04   8.8442158e-04  -7.5522071e-04  -5.2791019e-04  -9.8478731e-06   8.8733283e-04  -3.4649690e-04   4.9233466e-04  -2.9776132e-04   5.8531179e-04   1.3645247e-05  -1.4794733e-04   1.4688780e-03   1.0280148e-03   3.7415858e-04  -1.9419548e-04  -6.1571404e-06   3.2481118e-04   3.9286877e-04   9.6261944e-04  -3.5925148e-04   8.2272053e-04   1.5819517e-03   4.3234840e-04   4.2622769e-04   5.7962543e-04   6.2268315e-04   3.7080764e-03   2.0089261e-03   8.7074126e-04   6.9833122e-04
  -3.4248835e-04   2.4795457e-04   1.8364689e-04   3.8778730e-04   2.9295727e-04  -7.1700325e-04   4.0641587e-04   1.8489256e-04  -3.9650005e-04   5.0825020e-04   6.5318804e-04  -2.4846212e-03  -1.3914265e-04   2.2556205e-04  -1.0751708e-04  -3.3283673e-06  -1.2402018e-03   5.7501480e-04   3.3765522e-04   6.9253423e-05   7.3993922e-04  -8.9664845e-04  -9.6095965e-04  -1.0391800e-04   5.6361401e-04  -4.9594935e-04   7.7680656e-04  -3.3083139e-04   1.0401926e-03   1.1677581e-04  -9.7311678e-04   1.4148143e-03   3.1322148e-04   1.0740731e-03   2.0329113e-04   2.8503750e-04  -1.0194806e-04   9.1488712e-04   7.3533494e-04   1.7821116e-04   7.7058718e-04   1.7982982e-03   1.0801064e-04   4.5886153e-04   5.7926768e-04   4.3654873e-04   3.8607589e-03   2.1990917e-03   9.9434261e-04   7.5976166e-04
  -5.0089820e-05   4.9885694e-04   2.2970239e-04   7.6769688e-04   4.7978255e-04  -2.2005974e-04   8.2954933e-04   1.2608435e-03  -2.7348011e-04   6.1521953e-04   8.4789953e-04  -2.1073399e-03   5.2680127e-05   3.3958888e-04  -3.7870862e-04   2.0826425e-04  -1.2990667e-03   6.1721576e-04   7.8372279e-04   1.3572491e-04   9.8448910e-04  -6.1519392e-04  -3.8082426e-04   1.9337819e-04   4.7694566e-04  -2.4802348e-04   2.7372537e-04  -1.0712034e-04  -4.9111858e-04  -4.0674029e-05  -7.5169007e-04   1.5591293e-03   6.8810972e-04   3.3894682e-04  -2.8366820e-04   3.9394991e-04   8.9872279e-04   8.6152868e-04   1.2808868e-03   2.0982945e-04   5.8673200e-04   1.8948267e-03   2.5113850e-04   4.5431964e-04   6.4515771e-04   4.2454692e-04   4.1942322e-03   2.2734206e-03   9.8366255e-04   7.9304300e-04
   1.9734887e-05   5.1375193e-04   2.8669852e-04   7.6799112e-04   7.8500633e-04  -7.0978329e-04   5.8689201e-04   9.4772462e-04  -7.4506672e-05   5.9291010e-04   9.2922337e-04  -1.8441905e-03  -4.2360816e-06   9.4634495e-05  -3.1628250e-04   1.5119977e-04  -1.3962033e-03   6.0963869e-04   8.0682203e-04   1.2531519e-04   9.6753158e-04  -7.3371251e-04  -3.9626230e-04   3.7369697e-04   5.6169252e-04  -2.9399988e-04   1.1210491e-04  -2.4121403e-04   5.2826764e-04   3.1772861e-04  -5.2956771e-04   1.4961404e-03   6.4655347e-04   4.8048416e-04   1.0303108e-04   1.2456320e-04  -6.1238279e-05   7.9659169e-04   1.1161985e-03  -2.6390533e-04   6.0797535e-04   1.7176403e-03   2.7550332e-04   3.5920180e-04   5.9738912e-04   2.9224390e-04   4.1730790e-03   1.9893947e-03   8.2049880e-04   6.2001025e-04
  -1.0938389e-04   3.5487671e-04   1.7608562e-04   6.1692513e-04   4.5460102e-04  -2.3959784e-04   4.9277948e-04   1.0694066e-03  -5.4013210e-05   5.8129418e-04   8.5121236e-04  -1.8548422e-03  -8.2511753e-05   2.3195628e-04  -1.6082168e-04   5.5780820e-05  -1.4751517e-03   5.0953112e-04   1.5900674e-04  -5.4433036e-07   8.6672779e-04  -1.0131707e-03  -6.9389679e-04   2.3350288e-04   3.2578863e-04  -6.3265726e-04   6.3245575e-04  -3.2490699e-04   7.7862339e-04  -1.9494421e-04  -7.9930224e-04   1.4550299e-03   4.2697185e-04   4.2532582e-04  -2.4270540e-04   9.9830198e-05  -6.7276007e-05   6.1344926e-04   9.6016069e-04  -2.4352757e-04   2.6426994e-04   1.4330607e-03  -2.6962490e-04   1.3271318e-04   3.0719710e-04   1.6123736e-04   4.0723360e-03   1.7101071e-03   7.5520785e-04   3.5442645e-04
  -1.0419499e-04   3.6395638e-04   1.3254586e-04   7.5103913e-04   5.2031787e-04  -5.7156390e-04   3.7321073e-04   7.9750136e-04  -1.0728642e-04   6.0622348e-04   9.2156953e-04  -1.8467385e-03  -3.4846321e-06   1.4399202e-04  -5.5464036e-05  -2.1503114e-05  -1.4775085e-03   5.4766046e-04   3.1392713e-04   1.0564288e-04   9.9073316e-04  -7.1208749e-04  -1.0428005e-03   2.8158075e-04   4.0942078e-04  -3.4174341e-04   6.1430864e-04  -3.6005504e-04   2.1191349e-03   1.8512548e-04  -4.3406020e-04   1.4542502e-03   8.3615282e-04   8.4273377e-04  -1.8506346e-04   4.4261126e-04   4.5278273e-04   6.8233808e-04   7.8560080e-04  -1.4062516e-05   5.9115503e-04   1.6917179e-03  -1.3572901e-05   3.6195089e-04   4.5710217e-04   1.4993531e-05   4.1296929e-03   1.8442775e-03   8.0776133e-04   4.4106814e-04
   1.1047754e-05   4.8325822e-04   2.6870560e-04   8.5329771e-04   5.4611790e-04  -3.1685497e-04   7.9316372e-04   7.4932672e-04  -2.5760496e-04   6.6605269e-04   9.9120394e-04  -1.8067952e-03   7.1988674e-05   8.6948487e-05   7.3612660e-05   9.5353447e-05  -1.5506861e-03   4.5050180e-04   1.2420738e-03   8.2989507e-05   1.0275082e-03  -7.6615950e-04  -8.1312231e-04   3.6873695e-04   5.8081606e-04  -4.1586036e-04  -3.9173066e-04  -2.2428164e-04   1.0397843e-03   2.0721347e-04  -6.4814516e-04   1.4599393e-03   5.3694932e-04   1.4509872e-04   1.1817367e-04   1.8522855e-04   6.8952248e-04   3.0648918e-04   1.1885990e-04  -2.9763233e-04   4.3487138e-04   1.5587209e-03   1.8377927e-05   2.4988726e-04   4.9083866e-04   2.4361488e-04   4.0857992e-03   1.8043208e-03   8.2276063e-04   5.0653180e-04
  -4.8323727e-05   3.6408109e-04   1.6078929e-04   5.8207364e-04   4.7001618e-04  -4.1613518e-04   6.6151348e-04   7.4621214e-04  -1.3949924e-04   5.9039675e-04   8.3776214e-04  -2.2127770e-03  -9.1710965e-05   1.5487349e-04  -1.5064639e-04  -3.0371561e-05  -1.4576650e-03   4.8788884e-04   4.9071992e-04   9.1938255e-06   8.6096727e-04  -7.9041958e-04  -8.8908477e-04  -8.8330868e-05   7.6665863e-04  -5.6335813e-04  -6.5036867e-05  -2.8655276e-04   7.4563944e-04   6.2521918e-05  -7.2060700e-04   1.4121043e-03   5.0339499e-04   3.7250029e-05  -7.7951082e-04   9.7717282e-05   9.1515962e-05   7.1923953e-04   8.5451722e-04  -3.9650235e-04   1.4385978e-04   1.2055218e-03  -8.1512335e-05   9.3699440e-05   3.5713872e-04   7.4978067e-05   3.8934217e-03   1.8029606e-03   6.6162623e-04   2.1645892e-04
  -4.1888451e-04   1.6478842e-04   2.9210634e-07   3.3346159e-04   2.9748987e-04  -8.9809520e-04   2.0877241e-04   9.9509803e-04  -1.2875930e-04   5.2890979e-04   7.4804050e-04  -2.1737812e-03  -1.2164869e-04  -5.0698905e-05  -3.3673336e-04  -2.5087091e-04  -1.5650018e-03   4.8614529e-04   2.4370603e-04  -5.3967680e-05   8.6258835e-04  -8.0050738e-04  -8.0601964e-04  -7.6077363e-06   5.8966986e-04  -3.8771154e-04   6.3074593e-05  -4.8984587e-04   1.0763984e-03   5.7771734e-07  -6.9893664e-04   1.2961857e-03   3.8533521e-04   6.0520327e-04  -8.9825204e-05   2.9583991e-04   3.8182694e-05   4.7190214e-04   8.1249402e-04  -3.2543699e-04   2.9840629e-04   1.3865180e-03  -2.1057208e-04   1.4350050e-04   5.4421916e-04   2.2799017e-05   3.9957874e-03   1.6341096e-03   8.1646111e-04   3.0153972e-04
  -6.8714537e-05   4.9224199e-04   1.1779982e-04   7.4718049e-04   5.6541822e-04  -1.1713826e-04   7.4405590e-04   4.5313255e-04   6.6879133e-05   6.5337872e-04   9.7777322e-04  -1.8710110e-03  -3.9601557e-05   2.2583292e-04  -2.2566557e-04  -1.4609356e-04  -1.7533539e-03   5.1471981e-04   8.4903499e-04  -7.7867044e-06   9.9074515e-04  -7.1984984e-04  -1.2584709e-03   2.9391344e-04   8.6042652e-04  -5.9206097e-04   7.6741180e-06  -4.1419617e-04   9.5948420e-04  -2.5109699e-04  -1.3165305e-03   1.5063315e-03   6.5195397e-04   7.1028923e-04  -4.2678963e-04   4.4652994e-04   1.3659407e-04   6.1849027e-04   9.3780027e-04  -5.4403301e-04  -6.5642620e-05   1.3053676e-03  -8.4787002e-04   2.2101239e-04   5.0666049e-04  -1.2712851e-04   3.9878632e-03   1.7811684e-03   7.9617643e-04   4.3062677e-04
  -1.1998568e-04   4.4002660e-04   1.0077876e-04   6.4471021e-04   4.3987305e-04  -2.7074013e-04   6.1092846e-04   9.9134957e-04  -2.3956715e-04   6.0278102e-04   9.5931499e-04  -1.9546521e-03  -9.9591940e-05   1.5731278e-04  -2.7009402e-04  -2.1232683e-05  -1.6905183e-03   4.7248005e-04   3.6170764e-04  -7.3987881e-05   8.5433346e-04  -8.6081651e-04  -5.1585824e-04  -1.4074229e-05   6.1014266e-04  -5.6769169e-04   2.2891269e-04  -5.3750118e-04   9.9199999e-04  -3.0086990e-04  -8.1140979e-04   1.4369985e-03   5.1782740e-04   1.0959775e-04   1.3455475e-04   1.3977075e-04   2.0067184e-04   5.3373503e-04   7.1100640e-04  -6.5032573e-04  -2.8286196e-04   1.1161256e-03  -8.8519417e-04   4.9273669e-05   4.3574258e-04  -5.6520781e-05   3.8886452e-03   1.6051703e-03   6.1092182e-04   1.7037822e-04
  -2.7891542e-04   2.7718520e-04  -1.9927083e-05   4.3616971e-04   2.6716967e-04  -8.8247826e-04   1.6573202e-04   6.3257961e-04  -3.5421149e-04   5.7929958e-04   8.5933617e-04  -1.9970080e-03  -1.9033006e-04  -1.5780035e-05  -1.5405990e-04  -2.0785638e-04  -1.9278781e-03   4.0877954e-04   6.7314465e-04  -9.2614311e-05   8.8330125e-04  -9.3648699e-04  -9.8790997e-04  -7.3927877e-06   8.7398326e-04  -5.9616956e-04   5.5668690e-05  -6.1598764e-04   7.0289517e-04  -1.2686879e-04  -5.9589272e-04   1.3597384e-03   1.0461914e-03   2.4930181e-04   1.3733572e-04   1.5767536e-04   4.4363632e-04   1.7939376e-05   3.7094238e-04  -5.2138162e-04  -4.6248340e-05   1.2590272e-03  -9.5899327e-04   1.9985621e-04   4.9837830e-04  -2.5391028e-05   4.0829000e-03   1.6543628e-03   8.8857062e-04   3.5297222e-04
   7.1417977e-05   5.3558755e-04   1.1604734e-04   8.2008011e-04   4.6182767e-04   1.6743670e-05   5.7142990e-04   5.2597700e-04  -2.2226601e-04   6.3877593e-04   1.0160133e-03  -1.8718006e-03  -1.7298677e-05   1.2493032e-04  -2.3000021e-04  -4.2987140e-05  -1.7991595e-03   4.1251307e-04   1.0599298e-03   1.8923789e-05   1.0098360e-03  -8.0989278e-04  -1.1956019e-03   1.7457355e-04   9.4605947e-04  -5.3406943e-04  -1.0985300e-04  -4.9956661e-04   4.3408887e-04  -1.6051876e-04  -4.7177146e-04   1.4087738e-03   5.6920323e-04   4.2865449e-04   3.2260352e-05   3.2400613e-04   7.6328201e-04   5.4205651e-04   7.2566501e-04  -1.6596880e-04  -6.7094174e-05   1.4180357e-03  -6.3747732e-04   1.0065391e-04   5.6018267e-04   2.1859953e-04   3.9949589e-03   1.7742398e-03   8.0781174e-04   4.3470590e-04
   7.2456853e-05   4.8914721e-04   1.6668852e-04   7.3233410e-04   2.9450448e-04  -4.1233405e-04   6.3744775e-04   3.7168615e-04  -2.1739952e-04   6.4182008e-04   9.4495417e-04  -2.0070034e-03  -2.0930624e-05   1.0841085e-04  -4.9526663e-04  -1.7434423e-04  -1.6679603e-03   5.5642857e-04   8.3286408e-04  -4.0023115e-05   9.2716422e-04  -7.8399613e-04  -8.5477292e-04   1.4837863e-04   8.1644085e-04  -7.4065337e-04  -6.6493310e-05  -5.5179815e-04   1.0120681e-03  -3.4131660e-04  -1.0331924e-03   1.3764608e-03   8.9231052e-04   2.4450533e-04  -3.2129686e-04   1.4456188e-04   6.1779167e-04   1.0781018e-03   8.1264245e-04  -3.0434181e-04  -1.4788007e-04   1.2095248e-03  -7.1587303e-04   2.5082473e-04   5.0387305e-04   1.7694671e-04   3.8601400e-03   1.5981658e-03   6.5646332e-04   3.2269303e-04
  -3.0958801e-04   2.9912323e-04  -6.0028756e-06   4.3851434e-04   3.5782892e-04  -2.9967949e-04   2.0631416e-04   8.5887761e-04  -2.3192944e-04   5.6306354e-04   7.7393546e-04  -2.2645968e-03  -1.4503425e-04   8.2912142e-05  -2.2608093e-04  -2.7921589e-04  -1.6661303e-03   4.8637428e-04   8.6282194e-04  -2.2954478e-05   9.1157685e-04  -8.0551207e-04  -1.1208080e-03   1.2555315e-04   9.2177268e-04  -4.9663143e-04   2.1502239e-04  -3.8241889e-04   6.0218683e-04  -6.3327680e-05  -8.8391936e-04   1.2576050e-03   5.3804839e-04   8.3790052e-05  -1.0647596e-04   1.1321164e-04   4.2912085e-04   4.2945865e-04   8.9389179e-04  -2.8049020e-04   6.1673447e-05   1.2973484e-03  -1.5400283e-04   3.5346195e-04   7.1512401e-04   9.5627729e-05   4.0892898e-03   2.0288532e-03   9.4084162e-04   2.5196743e-04
  -4.9388633e-05   5.9346843e-04   1.5367904e-04   8.6250127e-04   3.4916282e-04  -2.4262369e-04   8.8711578e-04   5.0297444e-04  -1.0253202e-04   6.9204881e-04   1.0019804e-03  -2.0017310e-03  -3.2989588e-05   9.4091592e-05   4.0692728e-05  -1.1404416e-04  -1.6391589e-03   4.9270142e-04   6.0977775e-04   1.0046931e-04   1.0268629e-03  -5.7085115e-04  -5.8905670e-04   1.7887681e-04   9.8849845e-04  -3.7548941e-04  -1.5109463e-04  -3.5492054e-04   7.4778951e-04  -2.4739822e-04  -6.7260425e-04   1.4534955e-03   5.6919159e-04   4.5503140e-04  -1.0357104e-05   7.7886179e-05   2.3669311e-04   5.1866501e-04   8.0488028e-04  -8.8934576e-05   1.0387125e-04   1.3776181e-03  -4.8191359e-04   3.8480927e-04   6.9865910e-04   1.3571738e-04   4.0126997e-03   1.9491904e-03   8.7740552e-04   2.5446079e-04
  -1.8343075e-04   5.2326400e-04   1.6825553e-04   7.0865935e-04   2.5754716e-04  -1.6559150e-04   5.1937695e-04   9.7892457e-04   8.1174992e-05   6.6203222e-04   8.9456438e-04  -2.1068037e-03  -3.3101500e-05   1.8440827e-05  -1.4042119e-04  -3.9260140e-05  -1.5156035e-03   4.4171338e-04   8.3492976e-04  -5.0813592e-06   9.4159786e-04  -5.8390049e-04  -6.6276477e-04  -4.1867686e-05   4.5366696e-04  -6.3153845e-04  -2.6625328e-04  -8.2467374e-04   8.0792181e-04  -7.8378755e-05  -8.5543777e-04   1.3819251e-03   7.4301148e-04   7.2261662e-04  -3.4161501e-05  -1.2727201e-04   5.4756943e-05   4.7053385e-04   3.9238197e-04  -2.2393072e-04  -2.0876976e-05   1.2167180e-03  -4.2652048e-04   3.9325189e-04   6.7974615e-04   1.2272292e-04   3.9315699e-03   1.8660341e-03   7.1274536e-04   9.7038006e-05
  -2.2235690e-04   3.8512566e-04   2.8603134e-05   4.3739934e-04   4.5348841e-04  -7.6636439e-04   3.7969893e-04   7.9825276e-04  -5.2965572e-04   5.8428658e-04   7.5381383e-04  -2.2001336e-03  -1.4162010e-04  -3.1981195e-05  -2.8165165e-04  -1.5494842e-04  -1.6591266e-03   4.2449561e-04   9.6782204e-04  -8.9873924e-05   8.7956106e-04  -7.8298600e-04  -4.4357640e-04   3.1232394e-05   1.0834822e-03  -6.7075458e-04   2.0614239e-04  -4.2876072e-04   5.6249002e-04  -1.9482612e-04  -1.0158431e-03   1.3479894e-03   5.9569033e-04   3.7523505e-04  -5.3763832e-04  -1.1338777e-04   6.9034635e-04   4.0315886e-04   7.8855408e-04  -6.2532507e-07   2.8391997e-04   1.4016581e-03  -4.7858859e-05   4.5317013e-04   7.2453707e-04   1.5623990e-04   3.9812122e-03   2.1264204e-03   9.8562974e-04   7.9600007e-04
   2.7124781e-05   5.2773836e-04   1.7437300e-04   8.5142389e-04   7.0210471e-04  -6.4283807e-04   7.8525831e-04   6.8109110e-04  -6.8797694e-05   6.8311690e-04   9.5542578e-04  -2.0069848e-03  -3.7461828e-05   8.0247519e-05  -2.7144904e-04   1.1372045e-04  -1.6237582e-03   4.8505209e-04   1.0504939e-03   8.8588553e-05   1.0850810e-03  -4.4786063e-04  -4.4895479e-04   1.5255369e-04   9.1406849e-04  -4.1960206e-04   1.0513928e-04  -4.3213496e-04   1.1195173e-05  -3.7370282e-05  -6.9196371e-04   1.3418139e-03   7.2176504e-04   8.0914237e-04  -4.2561640e-04   6.3700340e-05   2.5411806e-04   3.9119617e-04   1.0752308e-03  -1.0387680e-05   2.4897675e-04   1.4752067e-03  -7.5477910e-05   3.9298227e-04   8.0764649e-04   3.3927028e-04   4.0315287e-03   2.1541833e-03   9.4610336e-04   5.3456583e-04
  -9.9824269e-05   5.9000350e-04   2.2132693e-04   7.5136381e-04   4.2841453e-04  -2.2237255e-04   5.5120816e-04   7.5763365e-04  -4.2268777e-05   6.5516104e-04   9.0653874e-04  -2.0048367e-03  -1.9084118e-06   1.5189691e-04  -3.5188359e-04  -8.0166901e-05  -1.5587811e-03   4.6355571e-04   5.4786145e-04   1.2464735e-04   1.0402913e-03  -4.5774103e-04  -8.6810131e-04   1.6032186e-04   1.0896755e-03  -6.6927489e-04   2.8052693e-04  -2.9737403e-04   7.2595035e-04  -4.3012478e-04  -6.5600796e-04   1.3605711e-03   7.9392304e-04   7.2805944e-04  -4.7079672e-04  -7.2920797e-05   2.8441334e-04   6.9123140e-04   1.1221853e-03  -1.6131841e-04  -1.4987877e-05   1.2790718e-03  -4.1340172e-04   3.1852379e-04   6.7767181e-04   2.8544196e-04   3.8993789e-03   1.7726587e-03   8.6359464e-04   5.2057541e-05
  -1.4771352e-04   3.6525898e-04   4.5889708e-05   5.6779903e-04   2.8505930e-04  -7.6638424e-04   3.0964660e-04   2.6321088e-04  -2.4565851e-04   5.6084018e-04   7.8721915e-04  -2.1298102e-03  -1.4426184e-04   1.7631905e-04  -3.2039877e-04  -1.6471012e-04  -1.6955952e-03   4.3126999e-04   1.7862424e-04  -4.7210571e-05   9.4139372e-04  -8.2093326e-04  -6.1528798e-04  -3.4016532e-05   1.0274682e-03  -6.9757720e-04  -4.6542892e-04  -3.9241926e-04   9.1861142e-04  -7.8387866e-06  -1.2879893e-03   1.3926517e-03   5.7666254e-04   3.3960975e-04  -5.7050976e-04  -2.7595437e-04   2.0146972e-04   1.5771356e-04   6.3758058e-04  -3.6834981e-04   4.3155655e-05   1.2587783e-03  -6.2942365e-04   4.1045816e-04   7.4950856e-04  -1.4127152e-04   3.9595761e-03   1.8428419e-03   8.8776200e-04   3.5707324e-04
  -1.1298739e-05   5.0539512e-04   1.1017085e-04   7.9890498e-04   4.8300312e-04  -7.3993782e-05   4.7340128e-04   2.7191883e-04   7.4885342e-05   6.2691310e-04   8.6465088e-04  -2.1072500e-03  -1.2005406e-04   1.6783140e-04  -4.7557606e-04  -6.5147600e-05  -1.6232756e-03   4.7869279e-04   1.0514224e-03   8.6180873e-05   1.1116997e-03  -5.1443942e-04  -8.1534474e-04   7.7351644e-05   1.0816159e-03  -4.3376820e-04  -1.9646836e-04  -4.2235738e-04   4.7529428e-04  -1.5627565e-04  -5.4506189e-04   1.4148196e-03   6.4867188e-04   3.5128393e-04  -4.2438234e-04   2.3419877e-04   4.5078824e-04   5.8699434e-04   1.1709735e-03  -4.6238088e-04   1.5019305e-04   1.4604396e-03  -2.7088838e-04   4.3045331e-04   7.7429094e-04   2.5534516e-04   3.9644851e-03   1.9885872e-03   9.7605219e-04   4.5983915e-04
  -2.4757774e-05   6.3410460e-04   2.3519775e-04   8.2754967e-04   6.0632877e-04   5.9188729e-05   6.1798806e-04   7.2584202e-04   1.8014970e-04   6.0106214e-04   8.5404835e-04  -2.1136485e-03  -4.1956486e-05   1.4665365e-04  -2.8709357e-04   2.4140700e-05  -1.5079868e-03   4.8225507e-04   1.1605353e-03   8.0441605e-05   1.0656179e-03  -5.0794170e-04  -8.0786837e-04   3.8207105e-05   9.6060877e-04  -6.1520474e-04  -1.7306300e-05  -6.6095236e-04   1.4022789e-04  -5.0454175e-05  -1.0176430e-03   1.2635480e-03   9.1793376e-04   3.2491636e-05   1.1041622e-04   1.2721398e-04   5.9738493e-04   3.8950390e-04   1.2467469e-03  -2.7141916e-05   1.8347384e-05   1.3564876e-03  -3.7887710e-04   4.0204727e-04   7.4092607e-04  -1.1984132e-04   3.8908133e-03   2.0270767e-03   8.3171338e-04   2.4280213e-04
  -1.0571280e-04   4.4168023e-04   6.2222112e-05   6.1920809e-04   5.2600988e-04  -4.9885688e-04   4.0510081e-04   7.5521000e-04  -3.3335228e-04   5.7107431e-04   7.7007897e-04  -2.1610290e-03  -1.0450453e-04   2.0927787e-04  -2.7310185e-04  -1.7652613e-04  -1.5521501e-03   4.4487472e-04   1.1137193e-03  -3.6082529e-06   9.5381949e-04  -5.9288699e-04  -9.6408080e-04  -1.4781686e-04   1.0359829e-03  -6.6178432e-04   8.9364468e-05  -3.3235789e-04   4.2674408e-04  -1.1939107e-04  -8.8748545e-04   1.3233430e-03   4.6516347e-04   1.4506337e-04  -1.7096192e-04  -1.0333565e-04   9.9855060e-05   3.2611951e-04   3.7165551e-04  -7.7579980e-04  -2.4265963e-04   1.2243597e-03  -2.8582779e-04   3.4804508e-04   6.3034060e-04   3.2460081e-05   3.7811412e-03   1.6620819e-03   7.2641578e-04   1.9654383e-04
  -1.9127864e-04   3.9219458e-04   7.3823991e-05   6.6799461e-04   4.6374276e-04  -4.1200916e-04   6.6928653e-04   9.2701230e-04  -1.5096873e-05   5.6510599e-04   7.6339854e-04  -2.2340829e-03  -9.3342962e-05   8.9032270e-05  -3.0865346e-04  -1.8257616e-04  -1.6350482e-03   4.3075698e-04   4.6755924e-04   7.4636578e-06   1.0029289e-03  -6.0819596e-04  -6.0246955e-04   1.3507251e-04   8.4268476e-04  -5.6300062e-04  -7.5396580e-05  -4.3910666e-04   2.1889785e-04  -1.7718622e-04  -6.0213410e-04   1.3285734e-03   6.9701223e-04   4.7475036e-04   2.6121585e-05   1.4456100e-04   4.9162935e-04  -7.5031909e-05   7.6760066e-04  -7.7578065e-05  -4.4332801e-06   1.2878530e-03  -1.5310242e-04   3.6852821e-04   7.0963398e-04   3.2354187e-04   3.9065802e-03   1.9252169e-03   9.3157159e-04   3.7566526e-04
  -1.2453082e-04   5.5658392e-04   1.7189721e-04   7.8261318e-04   4.2099110e-04   4.9070910e-05   8.7414694e-04   7.6535821e-04  -1.1520855e-04   5.6288618e-04   8.1117632e-04  -2.2543983e-03  -5.0379873e-05  -1.1856128e-05  -1.1210635e-04  -1.0637212e-04  -1.5757669e-03   4.0717216e-04   1.0534420e-03   7.5626231e-05   9.9730573e-04  -4.5436891e-04  -5.5317505e-04   1.6131956e-04   9.2454063e-04  -5.5563304e-04   4.7609399e-05  -7.4313401e-04   1.2347433e-03  -1.1694218e-04  -9.2277245e-04   1.2938534e-03   6.7445129e-04   5.0930504e-04  -2.8626842e-04   1.9863081e-04   7.2347344e-04   3.2597678e-04   3.1848706e-04  -1.4662599e-04   3.9809878e-04   1.2907806e-03  -2.1317255e-04   4.8379722e-04   6.8636355e-04   1.1118071e-04   3.8384148e-03   1.9223510e-03   8.3145051e-04   4.2767439e-04
  -1.9496429e-04   4.9737131e-04   1.5286224e-04   6.3189876e-04   4.3278831e-04  -2.9058720e-04   3.7452020e-04   7.1861182e-04  -4.6983099e-04   5.4905569e-04   7.1504759e-04  -2.3876533e-03  -1.7100181e-04   7.6362645e-05  -2.9055186e-04  -9.4277828e-05  -1.5793783e-03   3.7338556e-04   6.0682965e-04  -2.7531752e-05   8.6353626e-04  -5.6563830e-04  -6.7915907e-04  -1.3033493e-04   8.7943114e-04  -6.8677514e-04   1.6078733e-04  -6.7305728e-04  -3.0547832e-05  -1.8121874e-04  -1.1576965e-03   1.2105996e-03   6.0434127e-04   5.2280953e-05  -1.1704351e-04   5.4748169e-05   3.4409136e-04   5.2141506e-05   1.5690922e-03  -1.1979556e-04  -1.6240228e-04   1.2906675e-03  -3.0010674e-04   3.2258217e-04   4.8593426e-04  -1.3339856e-04   3.6537126e-03   1.6667224e-03   6.3877914e-04   1.8684348e-04
  -2.9952152e-04   3.2487590e-04  -4.2461714e-05   4.7141063e-04   5.2929885e-04  -3.6095519e-04   4.9820176e-04   1.1092304e-03  -1.5648504e-04   5.3404144e-04   7.0996943e-04  -2.4708728e-03  -1.5133817e-04   1.1346991e-04   7.7985118e-05  -3.5291418e-05  -1.6203574e-03   4.1688027e-04   1.0799583e-03  -4.2875989e-05   9.4618165e-04  -4.6472502e-04  -4.2705541e-04  -3.6591537e-05   8.8520779e-04  -5.7346409e-04   3.0018782e-04  -5.5802468e-04   6.7047781e-04  -1.3235812e-04  -8.8134437e-04   1.2338223e-03   7.4309984e-04   5.3735432e-04   1.5697448e-04   2.2527228e-04   4.6192596e-04   4.3260501e-04   5.2447163e-04  -3.3715449e-05   1.1939812e-04   1.3835359e-03  -3.1400632e-04   3.9427914e-04   7.7205535e-04   3.1354273e-04   3.8364890e-03   2.1826660e-03   9.1792340e-04   5.2103790e-04
  -9.4160881e-05   5.7827530e-04   1.1600182e-04   8.2059589e-04   6.5433432e-04  -4.1726459e-04   5.4353575e-04   5.0473836e-04  -1.1355292e-04   5.8192847e-04   7.7599287e-04  -2.3659260e-03  -1.1085313e-05   9.0665169e-05  -3.3309768e-04  -5.5890690e-05  -1.5202181e-03   3.4463787e-04   1.2138212e-03   9.4435403e-05   9.8367326e-04  -5.4313941e-04  -5.7488168e-04   2.7266980e-04   7.5418327e-04  -5.0467922e-04   1.4306654e-04  -6.4423255e-04   6.1483751e-04  -9.6503318e-05  -3.6600561e-04   1.3298587e-03   8.0808392e-04   2.6241335e-04  -3.3698307e-04   1.0377905e-04   8.1394991e-04   4.8095558e-04   9.9546614e-04   2.0724881e-04   8.1744074e-05   1.3969049e-03  -1.4064980e-04   4.3802461e-04   7.4298168e-04   3.2587306e-04   3.8492228e-03   1.9648797e-03   8.7769836e-04   4.5678020e-04
  -1.2599013e-04   5.2396517e-04   1.2583575e-04   6.6641450e-04   5.0978269e-04  -6.4434088e-04   4.9331051e-04   7.0018298e-04  -2.9779709e-04   5.4998504e-04   7.4281276e-04  -2.3684318e-03  -9.9713950e-05   6.8064495e-05  -7.5005781e-05  -4.0376544e-05  -1.5342725e-03   3.9132326e-04   6.3364155e-04  -1.3663423e-05   8.9117710e-04  -6.5901817e-04  -5.4239825e-04  -8.3748848e-05   5.9687544e-04  -6.0460926e-04   2.1069543e-04  -5.0305255e-04   8.2064793e-04  -2.9145792e-04  -8.6106011e-04   1.2575311e-03   7.5768010e-04   2.6151270e-04  -1.1432512e-05  -1.8618141e-04   3.8321680e-04  -1.1700340e-04   1.6270209e-03  -2.1660037e-04   1.8531329e-04   1.1888624e-03  -5.8678546e-05   3.6821578e-04   5.1829248e-04  -4.9240218e-05   3.7218041e-03   1.9194264e-03   7.3082215e-04   7.2185598e-05
  -3.0476996e-04   3.6266673e-04  -8.1318794e-06   4.4023953e-04   9.6577060e-05  -2.4866773e-04   4.3737693e-04   3.2118245e-04  -2.1163942e-04   5.3895346e-04   6.9519097e-04  -2.4560837e-03  -7.3699186e-05   1.6919227e-04  -1.9432067e-04   5.6639394e-05  -1.5777819e-03   3.3253012e-04   8.9369772e-04  -2.5854850e-05   9.3018723e-04  -4.1653533e-04  -1.0019720e-03  -8.5181739e-05   1.0886658e-03  -5.0241424e-04  -3.3247218e-04  -2.9477186e-04   3.9336627e-04   1.1025141e-04  -4.6928835e-04   1.2501072e-03   5.2339461e-04   9.0769894e-04  -4.3402444e-05   4.1619581e-04   1.0678094e-04   8.1931800e-04   1.2646306e-03  -2.9214425e-04   2.2429583e-04   1.4755670e-03  -2.7511278e-04   5.6893931e-04   8.6758920e-04   2.6536160e-04   3.8891579e-03   2.0593281e-03   9.5850643e-04   2.9023745e-04
  -3.5975780e-05   6.3503702e-04   2.8196943e-04   8.3850464e-04   5.2112137e-04  -1.8874342e-04   6.1676244e-04   7.5847970e-04   7.9249316e-05   5.9360935e-04   8.7123230e-04  -2.3335184e-03   1.3392179e-05   2.3010239e-04  -5.8660142e-05   7.0010087e-06  -1.4527793e-03   3.7537701e-04   6.0635392e-04   5.4127860e-05   1.0184656e-03  -3.0413133e-04  -3.3724747e-04   2.1820114e-04   8.0320810e-04  -3.9269339e-04  -8.3149891e-05  -7.0188858e-04   4.7607656e-04   8.5940635e-05  -6.8153813e-04   1.3540421e-03   9.7476086e-04   7.9556595e-04  -4.9331022e-04   1.6821844e-04   5.4779212e-04   7.7853249e-05   1.1754407e-03  -7.7209741e-05   3.5547224e-04   1.4117060e-03   1.7968399e-04   5.0192018e-04   8.1901322e-04   4.5109738e-04   3.8830123e-03   2.2723598e-03   9.0445613e-04   3.5911408e-04
  -6.4488479e-05   6.3231454e-04   1.8336618e-04   6.9280632e-04   4.4722055e-04  -2.0556769e-04   5.5577990e-04   4.7712692e-04  -2.2880019e-04   5.5488461e-04   8.5353176e-04  -2.3816586e-03   3.0837229e-05   1.1595585e-04   3.9803384e-05   6.3739767e-06  -1.4777429e-03   4.4955238e-04   4.9354573e-04   4.7683294e-05   9.2179643e-04  -3.5778977e-04  -8.3963946e-04  -5.9494720e-05   1.2175998e-03  -5.3178828e-04  -1.4500975e-04  -5.2019139e-04  -3.6463316e-05  -1.4556745e-04  -1.1487566e-03   1.2054306e-03   4.3053765e-04   4.5981642e-04   1.3161263e-04  -1.1079843e-04   4.1627363e-04   4.6870645e-04   9.8597782e-04   2.1275815e-04   3.5804146e-04   1.3533157e-03  -3.5618650e-04   6.1599037e-04   6.7509623e-04   2.0753266e-04   3.7435591e-03   2.0419871e-03   7.2408584e-04   2.4945292e-04
  -2.2351221e-04   4.4416793e-04   5.7564412e-05   4.8139336e-04   3.2697001e-04  -3.2480125e-04   2.9758512e-04   5.6739233e-04  -3.8549566e-04   5.0875306e-04   6.7559787e-04  -2.4934921e-03  -8.7346605e-05  -1.6926258e-06   8.4451553e-05  -2.1234559e-04  -1.5346881e-03   4.4401031e-04   6.4186362e-04  -5.2421932e-05   7.7757298e-04  -5.8008725e-04  -7.8100536e-04  -8.9674970e-05   7.5023290e-04  -7.0549489e-04  -2.5704646e-04  -5.9543573e-04   8.7539462e-04  -2.5362850e-04  -6.2974793e-04   1.2418497e-03   7.4601918e-04   7.1432214e-04   2.4542859e-04   2.8128910e-04   2.8945075e-04  -2.7234689e-04   1.3075358e-03  -5.8371665e-05   2.1164100e-04   1.3001262e-03  -5.6003941e-05   3.6890191e-04   6.5267802e-04   1.4807766e-04   3.9070151e-03   2.1924204e-03   9.2119299e-04   4.4639819e-04
   4.5601242e-05   6.4667722e-04   1.2296511e-04   7.9638272e-04   5.7643646e-04  -4.0544954e-04   3.7633497e-04   5.3690496e-04  -2.5190835e-04   6.4652757e-04   8.8778476e-04  -2.3772707e-03   2.7931543e-05   6.1191742e-05   3.1362579e-04  -1.4973791e-05  -1.4434463e-03   4.2222303e-04   1.2373057e-03   4.7049067e-05   9.7995659e-04  -5.0193310e-04  -4.7820332e-04   1.8240820e-04   1.0675753e-03  -3.9969670e-04  -4.2880449e-05  -3.3248775e-04   4.1010839e-04   2.4499115e-05  -1.2009609e-03   1.3448143e-03   9.9706114e-04   5.3297955e-04   1.8851696e-04   5.0397497e-04   9.7724807e-04   4.6599895e-04   9.9852018e-04  -6.6455847e-05   3.9176727e-04   1.3938285e-03   1.1207238e-04   5.3122541e-04   7.2023919e-04   1.8734075e-04   3.9857686e-03   2.2342438e-03   8.9194934e-04   3.9867300e-04
  -2.1417292e-05   6.1449583e-04   1.8189618e-04   7.7517121e-04   5.7360611e-04  -3.0521298e-04   8.1935973e-04   1.3444819e-03   2.5246991e-05   6.0825492e-04   8.6564274e-04  -2.3858913e-03   3.6886024e-05   2.0974559e-04   1.5173240e-04  -8.4151550e-05  -1.4192520e-03   4.4815693e-04   1.3359474e-03   3.7934096e-05   9.3146128e-04  -3.7613185e-04  -7.7305897e-04   1.0019593e-04   1.0805952e-03  -3.4420777e-04   2.9574460e-04  -5.0068414e-04   8.3032047e-04  -4.8909278e-05  -1.0410454e-03   1.2119556e-03   4.4085531e-04   6.0275820e-04  -8.6237349e-05   3.7315537e-04   4.5356319e-05   7.2157267e-04   7.4164791e-04  -4.1578667e-05   1.2106354e-04   1.3785708e-03  -7.5220094e-05   3.3153570e-04   6.5639411e-04   8.7713102e-05   3.8304350e-03   2.1126287e-03   7.0337189e-04   3.1295462e-04
  -1.5490327e-04   4.8850424e-04   1.0966144e-04   5.1518128e-04   3.1080478e-04  -1.2954885e-04   5.3829327e-04   5.1928242e-04  -5.3764589e-04   5.2139669e-04   7.2873919e-04  -2.5410389e-03   3.4818622e-06   2.1389505e-04  -2.2777377e-04  -2.2414953e-05  -1.3965052e-03   3.9355116e-04   8.0291450e-04  -2.9006515e-05   7.8001857e-04  -4.8975489e-04  -9.9280511e-04  -1.5310963e-04   8.2558166e-04  -7.1089267e-04   1.9982540e-04  -4.2378186e-04   7.4549526e-04  -5.1521489e-05  -8.9273183e-04   1.2766647e-03   3.7690045e-04   6.6314876e-04  -6.0707354e-04  -1.5007505e-04  -6.7237452e-06   9.4017317e-04   6.5589172e-04  -2.0201188e-04   1.4756082e-04   1.2015897e-03  -3.5486059e-04   2.9168554e-04   4.3943772e-04   1.6647688e-04   3.6781963e-03   2.0385412e-03   5.2821013e-04   1.1926284e-04
  -3.1588451e-04   2.7260883e-04  -1.5540792e-04   2.4711504e-04   3.8980285e-04  -6.8880123e-04   2.6835248e-04   5.1381643e-04  -4.4068802e-04   4.8221301e-04   6.5068406e-04  -2.6419901e-03  -9.2954077e-05   1.1583033e-04  -3.5549750e-05  -1.4424919e-04  -1.4507587e-03   4.0110212e-04   6.7885255e-04  -5.3560740e-05   7.9131051e-04  -5.8595609e-04  -7.3594652e-04   1.4869390e-04   8.6696644e-04  -6.0498487e-04   9.3808521e-05  -5.2666751e-04   4.3287262e-04  -2.7043602e-04  -5.5221503e-04   1.2420567e-03   5.6854700e-04   2.4630770e-04  -7.2812749e-05   2.0295246e-04   4.8973807e-04   5.5916910e-04   1.0917154e-03   1.7152521e-04   8.3719940e-05   1.4183428e-03   1.0544882e-04   3.0723453e-04   7.0014119e-04   1.3161299e-04   3.8553677e-03   2.3059237e-03   7.9777982e-04   3.7818091e-04
  -5.5775181e-05   5.6411291e-04   1.1462164e-04   7.1503641e-04   5.0611759e-04  -1.9122077e-04   4.0834572e-04   1.0568179e-03  -5.3499104e-04   5.5154244e-04   7.4683008e-04  -2.5456604e-03   3.2483345e-05   1.9213418e-04  -1.7588699e-04  -1.6207209e-04  -1.4994100e-03   3.8680353e-04   1.2840311e-03   3.8868675e-06   8.5207442e-04  -5.1115721e-04  -2.8519394e-04   1.7140611e-04   8.0029736e-04  -3.9151407e-04   2.1819757e-04  -4.1824102e-04   6.6312804e-04  -2.8156542e-04  -1.2000476e-03   1.2550133e-03   7.6525757e-04   1.0288093e-03  -1.6407315e-04  -2.3813720e-05  -2.9380042e-05   2.4678561e-04   8.8364910e-04   1.0494585e-04   2.4130559e-04   1.2366838e-03  -1.1052330e-04   3.2837130e-04   4.6698161e-04   1.0198315e-04   3.8521015e-03   2.0334765e-03   7.0839142e-04   4.2010532e-04
  -2.1235495e-04   4.8321500e-04   6.7955370e-05   5.4954580e-04   1.8461268e-04  -3.7279062e-04   2.7813166e-04   5.5973924e-04  -4.9321371e-04   5.2473973e-04   6.8842998e-04  -2.6098837e-03  -1.6644342e-05   9.4676892e-05  -2.3315164e-04  -1.9954490e-04  -1.4958861e-03   4.7657467e-04   9.1344671e-04  -9.3758499e-05   7.7315781e-04  -5.4496259e-04  -8.0955180e-04  -1.6329194e-04   8.3306630e-04  -6.1703706e-04  -6.6661922e-04  -2.6895967e-04  -4.3922194e-04  -1.8893367e-04  -8.7974570e-04   1.1795749e-03   4.7819284e-04   5.7073496e-04  -3.2529689e-04  -1.1103595e-04  -2.5557610e-04   5.2087322e-05   8.5034128e-04  -8.4004736e-05   1.3219529e-05   1.0426271e-03  -4.7422809e-04   2.4055385e-04   3.4657211e-04   3.0254909e-05   3.7142725e-03   1.8655265e-03   5.0004356e-04   8.8886509e-06
  -4.2138228e-04   2.8588498e-04  -4.5203298e-05   2.8745134e-04   3.9454887e-04  -7.4652501e-04   2.3058997e-04   6.6498073e-04  -4.3285685e-04   4.7294455e-04   5.2773400e-04  -2.6824798e-03  -1.3035594e-04  -3.5814723e-05  -3.1941655e-04  -1.6094584e-04  -1.5659281e-03   3.6786537e-04   5.7673932e-04  -1.5056005e-04   6.4804062e-04  -8.3763967e-04  -7.4194238e-04  -2.1787890e-04   7.9049094e-04  -9.6053118e-04  -1.2655644e-05  -4.4661251e-04   6.3859217e-04  -3.4936142e-04  -1.4076701e-03   1.1995229e-03   6.7873631e-04   5.4376334e-04  -4.9326260e-04  -4.2236110e-04   1.5750708e-04   6.3219672e-04   1.1791789e-03  -3.4130982e-04  -1.2338982e-04   1.0856586e-03  -5.0091615e-04   1.6114644e-04   2.2499262e-04   3.7824022e-05   3.8243660e-03   1.9192008e-03   6.3955237e-04   2.3953522e-04
  -4.3956818e-05   4.7149410e-04  -8.5299638e-05   5.5625930e-04   5.2824628e-04  -3.7751757e-04   5.5059692e-04   8.6228951e-04  -6.8748568e-04   5.6043296e-04   6.8267941e-04  -2.5724210e-03   5.5587843e-06   8.1952989e-05  -1.4559529e-04  -1.5626055e-04  -1.6053218e-03   4.2044517e-04   1.0375645e-03  -8.9579109e-05   8.2830427e-04  -5.6999858e-04  -4.3860485e-04  -6.0830196e-05   8.7827508e-04  -5.7308126e-04   2.2080472e-04  -3.2514698e-04   1.2411253e-03  -9.8861638e-06  -9.3082385e-04   1.2393796e-03   4.7828912e-04   3.4936529e-04  -2.4139463e-04   3.6682202e-05  -1.0654785e-04   5.8722316e-04   9.8483497e-04  -1.3445798e-04   9.4798652e-06   1.1529083e-03  -1.6908057e-04   1.2199124e-04   5.4273260e-04  -3.7216471e-04   3.8436602e-03   1.8851566e-03   6.1304896e-04   1.5545165e-04
  -6.4965112e-05   5.1966781e-04  -3.1886208e-05   5.8097544e-04   1.6589096e-04  -4.9266295e-04   4.4069963e-04   7.4600469e-04  -3.5945492e-04   5.4738269e-04   6.3020474e-04  -2.5306898e-03  -6.4995227e-05   1.4404800e-04  -3.6131922e-05  -2.5774949e-04  -1.6886714e-03   3.2408349e-04   9.4160269e-04  -1.2146399e-04   7.9104444e-04  -5.7780376e-04  -8.6005416e-04  -1.6977108e-05   7.5864251e-04  -6.5869087e-04   6.6767832e-05  -7.5433735e-04   1.3074321e-03  -1.2516783e-04  -4.7083967e-04   1.2298413e-03   1.0140501e-04   4.3053689e-04  -3.5791568e-04  -2.8657165e-04   3.8316156e-04   3.2495765e-04   8.3671091e-04  -1.6161591e-04  -1.7040440e-04   1.1700750e-03  -6.2800862e-04   7.4728625e-05   2.0869100e-04   4.9078199e-06   3.7137249e-03   1.8622328e-03   4.6241769e-04   1.1071432e-04
  -2.4550321e-04   3.8866745e-04  -1.5594900e-04   3.6688789e-04   3.8198312e-04  -4.6772609e-04   1.7827211e-04   8.3357090e-04  -7.9910277e-04   4.9631624e-04   5.0620362e-04  -2.6013847e-03  -1.8435247e-04   6.1284487e-07  -1.7190541e-04  -2.6727136e-04  -1.7336828e-03   3.4289676e-04   5.1783922e-04  -2.1807718e-04   6.5878552e-04  -7.9788640e-04  -1.2421041e-03  -1.6350945e-04   6.3646829e-04  -8.4119133e-04   3.1128008e-04  -4.6864263e-04  -4.0559951e-04  -2.5140503e-04  -1.1093653e-03   1.1972031e-03   3.0185774e-04   3.8477575e-04  -6.0043079e-05  -3.3967893e-04  -4.0707539e-05   1.1483500e-04   1.2605996e-05  -6.1446970e-04  -3.3727544e-04   1.1393717e-03  -8.8441389e-04  -1.4618915e-04   2.9962196e-04  -2.1851959e-04   3.8236699e-03   1.7332771e-03   5.2123767e-04   6.6342356e-05
  -9.6310810e-05   4.7121514e-04  -9.0022550e-05   6.3224067e-04   3.5321710e-04  -3.9741313e-04   4.1883509e-04   5.6343322e-04  -5.1625964e-04   5.4671831e-04   6.5216987e-04  -2.4711017e-03  -4.3728076e-05  -6.3034429e-05  -3.7857288e-04  -1.6800247e-04  -1.7916489e-03   4.1785170e-04   5.7404186e-04  -1.0746175e-04   8.6592225e-04  -5.2787812e-04  -8.1382948e-04   1.0968510e-04   9.3470787e-04  -6.0706452e-04  -6.1079008e-05  -4.2321460e-04   9.1628701e-04  -3.1234225e-04  -6.5355923e-04   1.1349324e-03   6.0534826e-04   3.2314091e-04   3.2879517e-04  -2.5857182e-04  -2.8524621e-05   2.6518165e-04   8.9092308e-04  -3.8319471e-04  -2.9863676e-04   1.1743365e-03  -4.4954737e-04   2.1825817e-04   3.3610928e-04  -1.1163109e-04   3.9234376e-03   1.6567565e-03   5.7628134e-04   1.0245004e-05
   8.2401370e-05   6.4764055e-04   2.4788071e-05   6.9820829e-04   4.2698090e-04  -3.9722020e-04   4.5777878e-04   8.1911235e-04  -3.7253063e-04   5.7371252e-04   6.4851576e-04  -2.3886410e-03  -1.7272672e-05   1.0852534e-04  -2.6767657e-04  -3.1312427e-04  -1.7446321e-03   3.9240360e-04   9.8540529e-04  -7.0535782e-05   8.5898722e-04  -5.3576526e-04  -8.8958209e-04   2.2056606e-04   7.0525939e-04  -6.5236294e-04  -5.9445723e-05  -5.2717590e-04   1.3426746e-03  -1.3600539e-04  -6.2154926e-05   1.2585293e-03   5.8617396e-04   7.6062977e-05  -4.5260752e-04  -1.7788568e-04   4.8552582e-04  -1.1678344e-04   6.4819370e-04  -8.4753112e-05  -2.4652429e-04   1.2601444e-03  -6.7077123e-04   7.6043158e-05   3.1075921e-04  -2.6572109e-04   3.9441139e-03   1.6925768e-03   4.1471372e-04  -1.4226516e-05
  -1.1331608e-04   4.6879248e-04  -3.4033921e-05   5.6966639e-04   2.4632018e-04  -6.8577938e-04   4.2750602e-04   6.1958446e-04  -5.3885579e-04   5.5004592e-04   5.6366285e-04  -2.4371187e-03  -1.3189082e-04  -1.0407055e-05  -4.8034650e-04  -2.6962988e-04  -1.7650175e-03   3.2009199e-04   3.6543235e-04  -1.5305467e-04   7.7565631e-04  -6.8038399e-04  -1.0705441e-03  -9.4615461e-05   5.9570553e-04  -8.2247623e-04  -7.1068280e-05  -6.3691760e-04   2.3313254e-04   2.0904256e-05  -1.0963370e-03   1.1662119e-03   2.2899068e-04   2.4963720e-04  -5.8609952e-04  -1.7859119e-04   2.3556576e-04   1.2045534e-04   4.6307759e-04  -9.5454097e-04  -3.8127316e-04   9.8781672e-04  -7.3325145e-04   8.9433315e-06   3.3115069e-04  -4.0179113e-04   3.8743624e-03   1.7489597e-03   4.9531943e-04   1.6453187e-06
   5.3230950e-05   5.9449469e-04   3.9642280e-05   7.3014724e-04   5.5262254e-04  -4.2847308e-04   1.7874649e-04   6.4550602e-04  -2.7727772e-04   5.7764479e-04   6.5359357e-04  -2.3846989e-03   8.0852242e-06   1.0192709e-04  -3.6758580e-04  -1.8924072e-04  -1.7748547e-03   3.3001904e-04   8.8982744e-04  -2.9579343e-05   9.2259643e-04  -5.1540096e-04  -7.5575459e-04   3.0996020e-05   9.6728466e-04  -5.8504328e-04  -2.0382008e-04  -4.6183428e-04   1.0107742e-03  -8.4575506e-05  -8.6198212e-04   1.3105141e-03   7.6305936e-04   1.0400325e-04   5.9913960e-05  -7.6156699e-05   3.3522933e-04   4.8848690e-04   4.2324237e-04  -3.2468836e-04  -2.5276133e-04   1.2631643e-03  -6.6080171e-04   5.5223445e-05   4.0249128e-04  -1.4167737e-04   4.0020524e-03   1.7896867e-03   6.2107504e-04   1.8056402e-04
   1.3170496e-04   6.4439460e-04   1.8067576e-04   8.7903423e-04   3.5367580e-04  -1.7986499e-04   4.7995438e-04   7.2846177e-04  -5.9461017e-04   5.9548853e-04   7.1242230e-04  -2.3502540e-03  -3.1483996e-05   1.4172670e-04  -2.1359128e-04  -2.2020315e-04  -1.6928251e-03   3.9674353e-04   8.2737330e-04  -1.4061456e-05   9.4452396e-04  -3.7349414e-04  -7.4309559e-04   5.0065548e-05   8.0114446e-04  -7.3951419e-04  -2.2152859e-04  -6.0505699e-04   9.6139428e-04  -3.3209860e-04  -1.1474994e-03   1.2524197e-03   5.4260890e-04   3.7082715e-04   6.4488180e-05  -2.2448759e-04   1.7428669e-04  -2.8963425e-04   8.0861681e-04  -3.4126267e-04  -1.6602609e-04   1.1164872e-03  -5.6321075e-04   1.8652034e-04   4.2777092e-04  -1.8961754e-04   3.8779795e-03   1.9397587e-03   4.4916582e-04   6.9095127e-05
  -3.6146394e-06   5.4167915e-04   6.5657550e-05   6.7608961e-04   4.3019693e-04  -6.7547709e-04   5.8479822e-04   5.6600379e-04  -5.4607686e-04   5.3461659e-04   5.7466957e-04  -2.4908588e-03  -7.9897654e-05   1.0290449e-04  -2.0386005e-04  -1.0507066e-04  -1.6641472e-03   4.3518064e-04   6.5324275e-04  -6.8410736e-05   8.1526424e-04  -5.6193070e-04  -9.1656926e-04  -2.0632321e-04   9.1124495e-04  -7.3714269e-04  -3.6328935e-04  -6.7290966e-04   2.9164017e-04  -2.9090469e-04  -8.8253018e-04   1.2467833e-03   1.3147776e-04   1.0793457e-04  -3.7500370e-04  -2.7977498e-04   5.3916057e-04   5.9170160e-04   6.4336578e-04  -5.0195347e-04  -5.9025816e-04   9.1679813e-04  -8.9460373e-04   3.2676817e-05   2.9886095e-04  -4.9471733e-04   3.7490607e-03   1.8402066e-03   3.9525083e-04   9.0050606e-05
  -1.8124458e-04   4.5339586e-04   4.3848580e-05   6.2142767e-04   5.3569657e-04   3.5360674e-05   4.9298175e-04   9.4905117e-04  -2.5933207e-04   5.4320681e-04   6.1907747e-04  -2.5341781e-03  -2.8136707e-05   4.3963428e-05  -2.0620281e-04  -3.0651575e-04  -1.6416589e-03   4.4504969e-04   9.9433097e-04  -3.2335764e-05   8.6375506e-04  -4.7171174e-04  -5.5209285e-04  -4.2141557e-05   8.1265555e-04  -4.8305612e-04  -3.0141948e-05  -6.0560287e-04   8.7319250e-04  -1.0933246e-04  -5.1479490e-04   1.2445160e-03   8.8752480e-04   5.4003455e-04   7.2457762e-05  -2.2079544e-04   7.5039838e-04   1.7764694e-04   6.9734856e-04  -5.2979693e-04  -2.1389029e-04   1.1530475e-03  -4.6681560e-04   1.5441283e-04   4.2992309e-04  -3.6794678e-05   3.8665417e-03   1.8067677e-03   6.2142854e-04   1.0347636e-04
   6.0786755e-05   7.4558699e-04   2.2870796e-04   8.5440784e-04   4.0972602e-04  -1.7384415e-04   4.6556725e-04   4.4518919e-04  -3.7156689e-04   5.6917407e-04   6.7758193e-04  -2.5512311e-03  -1.8672365e-05   1.6336513e-04  -2.3944069e-05  -1.8482270e-04  -1.5111206e-03   3.3895372e-04   9.5200702e-04   5.7616166e-05   9.1291638e-04  -3.0721354e-04  -5.0564361e-04   6.9155547e-05   1.0529229e-03  -5.3613802e-04  -2.2407349e-04  -4.3415918e-04   4.5468082e-04  -2.6667089e-05  -9.2584407e-04   1.2508330e-03   9.5106126e-04   1.1429099e-04  -1.1331846e-04  -2.4883627e-04   3.2204893e-04   4.8004976e-04   9.2048908e-04  -7.0133572e-04  -2.2737979e-04   1.2228045e-03  -6.2348775e-04  -1.0225346e-05   4.3862985e-04  -1.3920080e-04   3.7583029e-03   1.9154534e-03   6.2985218e-04  -1.6217427e-04
   3.2427626e-05   6.6311652e-04   1.9296134e-04   7.2804029e-04   2.8558823e-04  -2.9299851e-04   5.4778764e-04   4.0126921e-04  -2.3437642e-04   5.5481127e-04   5.7893206e-04  -2.6645297e-03  -1.0494795e-04  -1.4410463e-04  -1.4837853e-04  -2.7369289e-04  -1.4937926e-03   4.2625749e-04   2.5759151e-04  -3.9144219e-05   7.8156986e-04  -4.2224821e-04  -5.2662910e-04  -1.1587777e-04   7.7177869e-04  -6.3560263e-04  -1.3134054e-04  -4.2972749e-04   8.8314258e-04  -5.5188849e-04  -6.9751445e-04   1.0821037e-03   6.0079875e-04   2.8363129e-04  -2.1365148e-04  -1.5348964e-04  -3.7395643e-04   5.8405043e-04   3.8817499e-04  -4.5897212e-04  -3.9081616e-04   6.9982861e-04  -4.6666741e-04   1.7705906e-04   3.5910436e-04  -1.9036264e-04   3.6490392e-03   1.9588580e-03   5.1010540e-04   1.7325778e-05
  -2.0449745e-04   4.5090969e-04   2.2262671e-05   4.7645636e-04   4.1438357e-04  -4.7643523e-04   1.5873782e-04  -1.1384896e-04  -5.4026482e-04   4.4132446e-04   4.4653754e-04  -2.7598161e-03  -1.5934565e-04   1.2083033e-04  -3.0842682e-05  -3.0527019e-04  -1.5715141e-03   4.0634535e-04   8.8968966e-04  -1.0505718e-04   7.2656025e-04  -4.3729800e-04  -5.8749371e-04  -1.1468891e-04   6.5643451e-04  -6.0855679e-04   3.5573903e-05  -4.3985652e-04   4.5781102e-04  -1.4205906e-04  -1.2595603e-03   1.2199312e-03   3.3291848e-04   5.3301727e-04  -3.3680745e-04  -1.7185380e-04   2.2157756e-04   1.3675062e-04   8.3185022e-04  -2.7272321e-04  -2.7573531e-04   1.1219101e-03  -5.6964514e-04   1.3468055e-04   4.7232426e-04  -3.2279670e-04   3.6648908e-03   1.7591784e-03   6.6559826e-04   1.8248761e-04
   6.9902766e-05   7.1094173e-04   2.5336107e-04   8.8249013e-04   3.7319327e-04  -4.2622647e-04   4.5456988e-04   4.1635821e-04  -2.5949330e-04   5.2691967e-04   6.2388199e-04  -2.5766287e-03   7.4082604e-06   4.4819863e-06   1.2014934e-04  -8.6177897e-05  -1.5523172e-03   4.6021509e-04   8.3811342e-04   4.9038525e-05   8.6124253e-04  -4.0377968e-04  -9.9638407e-04   5.7478799e-05   8.3854294e-04  -5.1798671e-04  -1.4418626e-04  -4.6442566e-04   5.6069810e-04  -1.4959334e-04  -4.9153372e-04   1.3156090e-03   1.0302425e-03   8.7222498e-04  -4.7229760e-04  -6.1211475e-05  -3.6207228e-05  -1.4460654e-04   3.4952816e-04  -6.7138014e-04  -8.9735819e-05   9.6699334e-04  -5.5053260e-04   3.1825615e-04   5.7072815e-04  -1.0998340e-04   3.8368437e-03   1.9388769e-03   6.7074498e-04   8.5378073e-05
   1.5985614e-05   6.8655517e-04   2.2655296e-04   8.1078470e-04   4.0814237e-04  -5.8627973e-04   5.2432396e-04   6.7741057e-04  -2.3127803e-04   5.2250299e-04   5.9249793e-04  -2.5281261e-03  -6.4825268e-05   1.3937239e-04   4.7480131e-05  -4.7043126e-05  -1.5316694e-03   4.5917349e-04   5.9698313e-04  -4.3863718e-05   8.2284986e-04  -4.3517372e-04  -9.7267219e-04   2.8887098e-05   8.2933513e-04  -5.6374999e-04   2.1668433e-04  -3.7355066e-04   5.5304024e-04  -1.9752893e-04  -1.5364885e-03   1.2776983e-03   3.3761829e-04   3.7723480e-04  -3.9144873e-04   4.0771916e-05   5.5620814e-04   1.1968795e-04   8.6304895e-04  -5.5388705e-04  -2.1090268e-04   1.0084528e-03  -5.1056209e-04   1.4019111e-04   3.0377254e-04   7.7882891e-05   3.7132809e-03   1.9537823e-03   5.4519885e-04  -4.1567728e-05
  -1.4570099e-04   6.0143636e-04   9.8606855e-05   6.0029933e-04   4.3614779e-04  -2.4056465e-04   3.7271134e-04   2.1914676e-04  -3.9402852e-04   4.6562121e-04   4.7339703e-04  -2.6244128e-03  -1.6651777e-04   8.9065761e-05  -2.1762178e-04  -6.8834779e-05  -1.5451780e-03   4.7577941e-04   3.6559769e-04  -9.7615593e-05   6.9168030e-04  -6.3419685e-04  -8.5773057e-04  -3.2626250e-04   6.3254236e-04  -6.5139047e-04   1.3511459e-04  -6.8325456e-04   9.5097802e-04  -3.8620556e-04  -6.6816778e-04   1.2258663e-03   8.0450269e-04   2.5034157e-04  -1.3506491e-04  -4.7760847e-04   2.0063893e-04  -5.8980152e-04   2.4792380e-04  -4.9004419e-04  -3.7668232e-04   9.0614462e-04  -4.2987027e-04   1.3939035e-04   4.6431183e-04  -1.8223640e-04   3.6388673e-03   1.7426072e-03   6.1324326e-04   1.7789206e-04
   6.8037094e-05   7.1185554e-04   1.8001870e-04   8.8857795e-04   4.6601624e-04  -4.7575141e-04   4.6967561e-04   5.7445629e-04  -1.7313010e-04   5.0167483e-04   5.9419725e-04  -2.5679341e-03  -3.6163528e-05   2.3231133e-04   5.9569233e-05   1.0441447e-04  -1.5634656e-03   3.9918345e-04   5.7372235e-04  -7.7001769e-06   8.6159527e-04  -2.0508286e-04  -8.6217560e-04   4.5565081e-05   9.1264205e-04  -5.4064044e-04   2.6438542e-04  -4.5276058e-04   9.3410606e-04  -2.3126772e-04  -7.2261377e-04   1.2759580e-03   9.5027557e-04   3.9478848e-04  -1.8916685e-04  -2.1435837e-04   1.0768984e-04   3.4236914e-04   8.3764538e-04  -5.4024748e-04  -2.2696833e-04   1.0333635e-03  -5.5272161e-04   1.9528648e-04   3.9064896e-04  -2.2163273e-04   3.7289942e-03   1.9133675e-03   6.7500136e-04   2.5310853e-04
   2.8469467e-05   7.0802408e-04   2.5304081e-04   8.8216580e-04   6.3725404e-04  -2.6908534e-04   5.1780546e-04   4.8292222e-04  -3.3451841e-04   5.0292898e-04   6.0364715e-04  -2.5445416e-03  -1.0988815e-04   4.2213924e-05  -3.1963241e-04  -1.1763539e-04  -1.5591544e-03   4.7219553e-04   1.0970975e-03   2.6987209e-05   8.1458298e-04  -3.6986414e-04  -6.8023155e-04   1.1332254e-04   8.5221417e-04  -4.2001507e-04   9.5069983e-05  -6.0155150e-04   3.6058067e-05  -3.9468444e-04  -7.6610950e-04   1.2662549e-03   3.6916140e-04   5.0366565e-04  -3.5739573e-05  -1.7195352e-04   6.0566078e-04   8.3986175e-04   5.6497706e-04  -7.9240411e-04  -2.9232874e-04   8.2631665e-04  -8.1305351e-04   1.3289749e-04   4.6432563e-04  -2.5204004e-04   3.6512329e-03   1.9465276e-03   5.3086440e-04   1.9731959e-04
  -2.0848303e-04   6.1571301e-04   1.1211354e-04   6.9137331e-04   4.0661421e-04  -8.7322219e-04   1.9569181e-04   8.9086208e-04  -4.9282395e-04   4.5807791e-04   4.9260684e-04  -2.7162663e-03  -1.8078205e-04   5.9419370e-05  -2.0795637e-04  -1.7964130e-04  -1.4934273e-03   3.6783505e-04   5.9265562e-04  -5.3005751e-05   6.7539589e-04  -6.3293974e-04  -1.0722093e-03  -1.5515181e-04   9.5471868e-04  -7.6390745e-04  -3.5511929e-04  -5.8172090e-04  -5.2700572e-05  -7.9104408e-05  -5.8835250e-04   1.2275710e-03   3.8921839e-04   3.4245258e-04  -6.0408161e-04  -5.0820014e-04  -8.7898654e-05   4.9985718e-04  -4.6456717e-05  -5.4610067e-04  -2.7882101e-04   8.9513656e-04  -6.3049223e-04   2.8220416e-04   4.4644365e-04  -1.0052331e-04   3.5988046e-03   1.8750087e-03   6.9073820e-04   1.4163037e-04
  -5.9216294e-05   7.0957153e-04   1.9181504e-04   8.6568063e-04   3.9378644e-04  -1.6403159e-04   6.5657834e-04   9.8260725e-04  -1.9585021e-04   5.0992682e-04   6.4781058e-04  -2.6452939e-03   3.0344147e-05   5.3349697e-05   7.8288416e-05  -1.6120808e-04  -1.4713740e-03   4.7413810e-04   1.0941508e-03   3.7018224e-05   8.4849412e-04  -3.1760614e-04  -8.2301733e-04   1.0485941e-04   8.5007097e-04  -4.0620691e-04   3.8800013e-04  -3.5158981e-04   1.1103336e-03  -1.8043414e-04  -3.9951093e-04   1.3443059e-03   8.2621531e-04   1.8256118e-04   4.1356261e-04   2.7532556e-05   6.7372381e-04   3.5405264e-04   5.3996709e-04  -4.8213574e-04  -1.7065697e-04   1.0238559e-03  -3.5918516e-04   4.3792129e-04   5.3231895e-04   1.2886676e-04   3.7921073e-03   1.7124633e-03   7.4790994e-04   1.5900748e-04
   2.7306854e-05   8.7360782e-04   3.0622861e-04   9.6402090e-04   5.3923047e-04  -9.1109527e-05   5.2002544e-04   5.9804955e-04   2.5317491e-05   5.3192105e-04   6.9441349e-04  -2.5453006e-03  -9.5606811e-05   1.9334230e-04  -2.8375577e-04   4.3528074e-05  -1.4397608e-03   3.9237781e-04   6.7963614e-04   5.7591791e-05   8.2305283e-04  -3.0974665e-04  -8.3608925e-04   1.1050970e-04   1.2027120e-03  -4.4385716e-04  -3.0192395e-04  -2.5097630e-04  -2.1911964e-04  -8.1248902e-05  -8.9867110e-04   1.3074430e-03   1.1196064e-03   3.4616070e-04  -4.3779789e-04  -1.4181211e-04   2.3876305e-04   7.0389023e-04   2.3780219e-04  -3.6341342e-04  -3.7040323e-04   1.0939802e-03  -4.2047177e-04   2.1798709e-04   5.4203870e-04  -5.1104780e-05   3.6121078e-03   2.1416582e-03   6.7012745e-04   1.4890087e-04
  -7.8025507e-05   7.3575741e-04   2.7795541e-04   7.7363919e-04   4.2315957e-04  -2.7814860e-04   6.0157536e-04   4.5491906e-04  -1.6139765e-04   4.5508251e-04   6.3147466e-04  -2.5901140e-03  -1.2348557e-04   2.6612370e-05   1.0023075e-04  -2.3531089e-04  -1.4695898e-03   5.0316978e-04   1.0474772e-03  -8.3420164e-06   7.3063438e-04  -5.0961232e-04  -8.6637755e-04  -7.8500030e-05   8.5573056e-04  -4.7323047e-04   9.8555742e-05  -1.1640320e-04  -2.6085906e-04  -2.0235118e-04  -2.8581914e-04   1.2349576e-03   5.9750164e-04   1.8365306e-04  -1.4566797e-04   1.9982494e-06  -2.5186990e-05   3.7832159e-04   3.7924713e-04  -6.4858753e-04  -1.7933942e-04   9.6453074e-04  -3.3526577e-04   4.3574249e-04   6.0034834e-04   2.5336224e-06   3.6702503e-03   1.8781646e-03   8.1629382e-04   3.0184473e-04
  -3.0266077e-05   8.1919221e-04   2.7603359e-04   9.2858833e-04   2.9509942e-04   4.4224718e-05   7.2353921e-04   6.7446858e-04  -1.4043001e-04   5.6246860e-04   7.6167512e-04  -2.6074769e-03  -1.2428689e-05   1.5657395e-04  -1.1912185e-04   2.5280920e-04  -1.3308565e-03   5.7822122e-04   1.0935620e-03   8.3663224e-05   8.9814886e-04  -1.5362073e-04  -8.0234499e-04   2.1350608e-04   9.1874239e-04  -4.1622511e-04   1.6739183e-04  -2.4504337e-04   4.9000583e-04  -3.6621699e-05  -6.6331087e-04   1.3342669e-03   9.8856515e-04   9.2481298e-04   4.7945429e-04   2.8233445e-04   1.5072784e-04   6.4716971e-04   7.5220846e-04  -2.6300366e-05   1.5152975e-04   1.1315845e-03  -4.3947563e-05   6.6563959e-04   8.3606044e-04  -6.0067749e-05   3.6976705e-03   2.0772193e-03   9.4698585e-04   4.3585364e-04
   5.9641079e-05   9.4936893e-04   3.6116972e-04   1.0305337e-03   3.6748190e-04  -1.0442475e-04   8.5701037e-04   6.0938823e-04   4.0447911e-05   5.5270072e-04   7.6689280e-04  -2.5556867e-03  -1.1083749e-05   3.6908884e-04   1.6539673e-04   9.9025339e-05  -1.2074644e-03   5.1783031e-04   8.7828946e-04   1.6132249e-04   8.5601659e-04  -3.2556808e-04  -6.5347896e-04   1.2211686e-04   9.3065028e-04  -2.7171191e-04  -1.3228496e-04  -5.0206605e-04   9.1053598e-04  -2.2168866e-04  -6.1403558e-04   1.3358742e-03   9.2650368e-04   5.1203312e-04   3.1171661e-04  -1.7817460e-04   8.0451480e-04   6.9824496e-04   5.1794050e-04  -3.8981435e-04   1.7705349e-04   9.9186273e-04  -1.8270627e-04   5.6747138e-04   6.5249851e-04   5.2728050e-04   3.6488096e-03   1.9102150e-03   7.9571502e-04   2.5452784e-04
   3.9891165e-05   7.5055985e-04   3.4955447e-04   8.0063404e-04   6.3501246e-04  -1.4709543e-04   6.1807770e-04   1.0677081e-03  -4.1621935e-04   5.2998797e-04   6.3279073e-04  -2.6265169e-03   1.0051284e-05   1.5062965e-04   1.1324292e-04   1.6662278e-04  -1.2371596e-03   5.3812115e-04   3.3203771e-04   6.8075598e-05   7.3547993e-04  -5.1147939e-04  -7.9662999e-04  -4.5169945e-05   8.5075811e-04  -3.8190818e-04   1.0554043e-04  -3.1051025e-04   6.5144902e-04  -5.4067506e-05  -4.0770415e-04   1.3354450e-03   8.4859406e-04   1.9160488e-04   7.8024765e-05  -2.0921582e-04   2.8290384e-04   4.9618079e-04   7.8321988e-04  -3.6267817e-04   2.8360521e-06   8.6046569e-04  -1.0641689e-04   3.4268593e-04   4.0734638e-04   2.1800997e-04   3.5292420e-03   2.2825573e-03   7.6229783e-04   9.8318515e-06
  -2.0136441e-04   7.1050815e-04   2.5971024e-04   8.2093402e-04   2.9737919e-04  -3.1315308e-04   3.3775577e-04   1.3064053e-03  -7.9509191e-06   5.4383522e-04   6.6679902e-04  -2.6415028e-03  -1.9778718e-05   2.7564471e-04  -1.8486645e-04   2.0833690e-05  -1.1819719e-03   5.4387678e-04   5.1123596e-04   1.1494668e-04   8.2733686e-04  -2.1499359e-04  -6.1337266e-04   1.2047702e-04   1.1028737e-03  -2.4981692e-04   6.0994283e-04  -7.3657770e-06   1.7063558e-03  -1.1173519e-04  -2.5355077e-04   1.3329965e-03   8.1664498e-04   5.5729185e-04   1.0960590e-04   2.3613984e-04   4.9652479e-04   4.7588025e-04   1.1299259e-03  -3.7400270e-04   2.3556096e-04   1.0779444e-03   3.5563798e-04   5.6410878e-04   7.2315813e-04   4.3520171e-04   3.6882581e-03   2.2506879e-03   9.7136019e-04   3.4052038e-04
   5.9588160e-07   9.3174650e-04   4.1619610e-04   9.3267311e-04   6.8109931e-04   2.4272232e-04   8.8726077e-04   1.0277093e-03  -2.9248232e-04   5.8595557e-04   7.0512417e-04  -2.5970258e-03   8.1552171e-05   3.4822267e-04   2.1089078e-04   2.1837847e-04  -1.0847731e-03   5.6916632e-04   1.3616921e-03   1.5110936e-04   8.1973866e-04  -1.5569727e-04  -4.6229409e-04   1.3204945e-04   1.0261758e-03  -2.4184021e-04   5.3133245e-04  -2.5764306e-04   8.4497919e-04   2.6313905e-05  -3.7484479e-04   1.3362350e-03   9.7152643e-04   4.7638052e-04   5.1072348e-05   2.6742092e-04   7.5860642e-04   2.4975892e-04   5.1996380e-04  -2.1417787e-04   2.9957382e-04   1.0263558e-03   2.0182951e-04   5.3064339e-04   7.0316577e-04   1.5620400e-04   3.6329329e-03   2.0495146e-03   8.6742610e-04   4.6169045e-04
  -1.1467307e-04   8.2210929e-04   2.7828422e-04   7.6091819e-04   3.6262878e-04  -3.3437353e-04   6.3144619e-04   3.2898708e-04  -6.1019434e-04   5.1691610e-04   6.2971940e-04  -2.5946482e-03  -1.1543278e-07   2.2672262e-04  -5.8288293e-05   4.3258638e-05  -1.1199458e-03   5.5443740e-04   7.5395743e-04   4.4942764e-05   7.1159995e-04  -3.4361129e-04  -4.6168009e-04   8.8467248e-05   1.0735401e-03  -4.7660139e-04   1.4650382e-04  -5.4853292e-05   5.6685717e-04  -1.9482279e-04   2.9134090e-04   1.4619522e-03   5.0219876e-04   4.7256335e-04  -2.8611449e-04  -3.3177359e-05  -2.1837605e-04   5.8646715e-04   1.2650463e-05   7.1922000e-06   2.2054126e-04   9.8109362e-04   4.1800835e-05   4.2177201e-04   5.7204132e-04   2.1985716e-04   3.4226310e-03   1.8342364e-03   7.3178159e-04   1.3314726e-04
  -2.4944311e-04   6.2785047e-04   1.6426291e-04   5.0849462e-04   6.6712254e-04  -3.9913101e-04   2.9337755e-04   7.7185500e-04  -3.9686266e-04   5.2019220e-04   5.0324644e-04  -2.6759554e-03  -3.5256700e-05   1.1924242e-04  -2.3651161e-05   8.6879401e-05  -1.2448078e-03   5.4871582e-04   5.3798390e-04   3.7851853e-05   6.8800058e-04  -1.6317522e-04  -8.3278381e-04   6.7754001e-05   1.1164123e-03  -3.2424595e-04   7.9583166e-05  -2.5049105e-06   3.1627995e-05  -1.1663073e-04  -1.3145527e-05   1.3338209e-03   7.9813728e-04   6.5107242e-04  -3.1515920e-05   4.2693460e-04   4.2096330e-04  -6.7065703e-05   3.5204660e-04  -5.6454788e-05   2.3653496e-04   1.0129944e-03   1.9551587e-04   6.9266680e-04   6.7142519e-04   1.8356171e-04   3.5268711e-03   2.1125455e-03   9.1432902e-04   6.5196719e-04
   5.1556210e-05   9.0825255e-04   3.3917098e-04   8.8890939e-04   5.7338754e-04   1.4507941e-04   7.2184904e-04   7.7031786e-04  -3.0349329e-04   5.8664504e-04   6.5727247e-04  -2.5069444e-03   8.0424506e-05   3.4455719e-04   1.0906968e-04   2.0896859e-04  -1.1057698e-03   6.1485649e-04   1.2844292e-03   1.3155724e-04   7.7003409e-04  -2.2142468e-04  -5.1500549e-04   2.0119411e-04   9.4237301e-04  -2.8533395e-04   5.2007358e-04  -2.8464079e-04   8.7426038e-04   8.8986257e-05  -6.8306254e-04   1.4049859e-03   1.1841236e-03   6.5041584e-04   3.8453474e-04   2.1028896e-04   3.8104411e-04   5.2052859e-05   1.6880711e-04  -3.3720728e-04   3.1337462e-04   9.9232676e-04   2.7934930e-04   5.6765706e-04   6.3563534e-04   2.6987868e-04   3.5884765e-03   2.0962972e-03   8.4911293e-04   5.1255058e-04
  -1.2182997e-04   7.7376491e-04   2.3151822e-04   7.5230130e-04   4.7950473e-04  -1.5664236e-04   7.3420687e-04   7.9286966e-04  -2.9065841e-04   5.2098103e-04   5.7332317e-04  -2.5702280e-03   4.2744767e-05   1.1979617e-04  -3.4969841e-04   1.5424304e-04  -1.1783212e-03   4.8318692e-04   8.4883603e-04   9.8704317e-05   6.6456216e-04  -2.5495861e-04  -5.2894827e-04  -2.3728756e-04   7.0203107e-04  -3.2058690e-04   6.9653749e-04  -2.0801490e-04   1.0373547e-03  -5.7502886e-05  -3.0250297e-04   1.3110174e-03   1.0037328e-03   6.2438962e-04   1.0739106e-04   7.9858102e-05   1.2383207e-03   2.8013051e-04   6.4707501e-04  -3.9458103e-04   1.6961400e-04   9.6784474e-04  -4.7327651e-04   3.3984115e-04   6.1328639e-04   2.6655474e-04   3.4898429e-03   2.0268515e-03   6.5691530e-04   2.7255117e-04
  -3.3818497e-04   5.8241980e-04   1.1441670e-04   4.6496160e-04   3.5167430e-04  -2.6266288e-04   1.4889716e-04   4.7337305e-04  -5.6415488e-04   4.7352928e-04   4.2342668e-04  -2.7442365e-03  -1.3409935e-04   2.2976581e-04  -1.1615094e-05   6.6182554e-05  -1.1756408e-03   4.9837021e-04   7.1869133e-04  -2.6618793e-05   4.9530307e-04  -4.5987760e-04  -6.9339154e-04  -3.9701990e-04   1.0075425e-03  -5.8576872e-04   3.8067726e-04  -6.0585409e-04   4.2484337e-04  -9.8645920e-05  -8.0033136e-04   1.2093898e-03   5.4623111e-04   3.7406548e-04   5.3152075e-04  -1.2577296e-05   3.4071054e-04  -1.0362989e-04   5.6227361e-04  -4.9695757e-04   2.1982446e-04   9.4818772e-04  -1.6273599e-04   2.5993813e-04   5.7221804e-04  -2.8590628e-05   3.3813347e-03   2.0831793e-03   7.4743637e-04   9.1526221e-05
  -1.6263257e-04   7.1621872e-04   9.6203388e-05   6.2626757e-04   7.9202134e-04   1.9926279e-04   5.4966676e-04   8.7479345e-04  -6.0858007e-04   5.2249059e-04   5.2301673e-04  -2.6797035e-03  -4.0101419e-05   1.8704224e-04  -7.5559969e-05   9.6729469e-05  -1.1753642e-03   5.2411901e-04   1.2792909e-03   1.7840415e-05   6.4714445e-04  -2.9764895e-04  -4.7593919e-04  -6.5117238e-05   1.1382274e-03  -3.2631634e-04   5.1141984e-04   1.5882225e-04   1.6059684e-04   1.2329638e-04  -6.5323699e-04   1.3305160e-03   8.0236548e-04   6.1701814e-04  -5.0036501e-06   2.6031671e-04   3.9831398e-04   3.3896064e-04   1.2856842e-03  -2.2027649e-04   5.4442533e-04   1.0453040e-03  -9.3672621e-05   4.9939874e-04   6.1391952e-04   2.0439657e-04   3.5104745e-03   2.1977082e-03   6.8218866e-04   1.4464783e-04
  -4.7250211e-05   7.2068360e-04   1.4028908e-04   6.3865568e-04   4.3149749e-04  -2.7449083e-04   5.9377111e-04   1.0316937e-03  -5.9454312e-04   5.0496322e-04   4.5762875e-04  -2.6771661e-03  -1.5798518e-05   2.4068206e-04  -1.0413725e-04   5.3170883e-05  -1.1484047e-03   6.0494780e-04   3.8368907e-04  -2.4191619e-05   5.5369036e-04  -3.9458874e-04  -5.9162948e-04  -2.1741318e-04   9.0183574e-04  -4.5589192e-04  -3.4734268e-05  -4.3126749e-04   1.0253796e-03   1.4011775e-05  -5.5045844e-04   1.2222601e-03   6.8617152e-04   3.0467048e-04  -1.4636484e-04   2.3204229e-04   4.4217054e-04   7.1423897e-04   8.1801030e-04  -4.1200905e-04   3.5106903e-04   8.7197067e-04   8.6804343e-05   3.1341988e-04   4.5811950e-04   1.1708598e-04   3.3409304e-03   1.9843201e-03   5.6219299e-04   1.1889049e-04
  -3.9672377e-04   5.1874603e-04   3.5717896e-06   3.2823996e-04   5.1840045e-04  -3.3280184e-04   7.2274684e-05   1.0071871e-03  -9.0848585e-04   4.7063816e-04   2.9886773e-04  -2.7840489e-03  -1.5322038e-04   2.6304269e-04   1.3798999e-04  -1.2899053e-04  -1.1619506e-03   5.4547924e-04   2.4945015e-04  -1.0118560e-04   3.8085665e-04  -6.6471373e-04  -7.4190873e-04  -4.3507727e-04   1.0653400e-03  -5.6626229e-04   6.7850301e-04  -3.5215568e-04   3.9342951e-04   6.2955980e-05  -9.7279460e-04   1.0769772e-03   4.2603980e-04   1.6559201e-04   1.6948456e-05  -7.0920714e-06   7.4946664e-05  -2.4263770e-04   4.4550755e-04  -4.4088360e-04   1.0071186e-04   7.4123236e-04  -1.4862702e-04   9.1430476e-05   3.8888541e-04   1.4889395e-04   3.2537195e-03   1.7304962e-03   5.5272016e-04   3.4723032e-04
  -2.8643204e-04   5.7450437e-04  -4.7076781e-05   4.9263856e-04   4.4589760e-04  -6.0882635e-04   5.3635827e-04   1.2193075e-03  -3.9282106e-04   4.9945916e-04   3.1707145e-04  -2.7176286e-03  -7.4299824e-05   5.8615024e-05  -1.8329445e-04  -4.7404959e-05  -1.2457242e-03   4.9463467e-04   3.6622101e-04  -6.4430351e-05   5.0811638e-04  -5.1931490e-04  -4.4571311e-04  -3.1934300e-04   8.4753288e-04  -3.3362323e-04   7.8348501e-04   8.5004263e-05   3.9027751e-04   3.4603469e-05  -4.5952832e-04   1.1774714e-03   7.9003494e-04   7.2598067e-04   5.1341303e-05   1.0514320e-04   6.1253586e-04   5.3761591e-04   9.1950275e-04  -5.4580957e-04   2.3390884e-04   9.9779526e-04   7.1273265e-05   3.5000118e-04   5.0581835e-04   1.1406249e-05   3.3320957e-03   1.7584374e-03   6.6064118e-04   2.4433638e-04
  -2.2926518e-04   7.1431062e-04   4.9335893e-05   5.6065072e-04   2.5667311e-04  -9.5848183e-05   4.5639463e-04   1.3086837e-03  -3.0833902e-04   5.4621976e-04   3.7075690e-04  -2.6031481e-03  -8.3352934e-05   2.7000299e-04  -1.8849422e-04  -5.9757076e-05  -1.2147777e-03   5.2941311e-04   2.5981007e-04  -4.8795846e-05   4.9970910e-04  -5.0619640e-04  -6.7493715e-04  -2.4361181e-04   5.3968251e-04  -3.1583445e-04   3.0706899e-05  -1.5859811e-04   8.4675307e-04  -1.1700129e-04  -5.2734779e-04   1.1526552e-03   4.1271377e-04   5.8182544e-04   1.9869441e-04   1.0161427e-04   4.2375299e-04   9.2280726e-04   7.3299301e-04  -3.3036570e-04   1.4577105e-04   1.0113202e-03  -1.2150833e-04   2.0447440e-04   3.4044997e-04   2.9596933e-06   3.2753129e-03   1.7909551e-03   4.5452456e-04  -1.3719786e-05
  -3.3341130e-04   5.3612108e-04  -1.9077152e-05   3.2998883e-04   3.7075829e-04  -2.4908807e-04   3.1766563e-04   3.2887238e-04  -6.3247804e-04   4.8190955e-04   2.6790236e-04  -2.6754527e-03  -1.5664077e-04   1.0770750e-04  -1.8568613e-04  -7.5916047e-05  -1.2149456e-03   4.9746071e-04   2.2273039e-04  -1.1370765e-04   3.6925275e-04  -7.6096109e-04  -8.2508888e-04  -3.6688993e-04   8.1480003e-04  -5.2779535e-04   2.7982570e-04  -2.4088261e-04   1.2933552e-03   2.0992213e-05  -7.9240830e-04   1.1247989e-03   4.2905309e-04  -9.5734613e-05   9.7762306e-05  -3.5780383e-04   5.7169830e-04   1.1675830e-04   6.5037771e-04  -2.7818320e-04   1.6761149e-04   6.4725050e-04   3.8785424e-06   1.2190716e-04   1.6386287e-04  -2.4430669e-04   3.1824149e-03   1.6088008e-03   3.4830064e-04  -1.0382679e-04
  -4.2814994e-04   5.1045080e-04  -3.2453339e-05   3.7793821e-04   1.5717994e-04  -3.2461999e-04   2.9188360e-04   9.2968869e-04  -3.8940908e-04   5.2126136e-04   2.8768572e-04  -2.6655030e-03  -1.0393776e-04   5.5961347e-05  -1.0959897e-04  -1.3397379e-04  -1.2434917e-03   5.0513505e-04   2.7459962e-04  -1.0245867e-04   4.5658028e-04  -6.3784001e-04  -9.4062451e-04  -3.7153688e-04   8.5106882e-04  -3.0346893e-04   4.0899307e-04   6.1271458e-05  -3.8575206e-04   1.7931389e-04  -3.3754253e-04   1.2304678e-03   5.8902759e-04   3.0261585e-06   7.1581750e-04   2.1271427e-04   7.4883945e-05  -2.3810503e-04   9.9613692e-04  -2.8292896e-05   4.9054844e-04   1.0202135e-03   1.9487589e-04   3.1186480e-04   3.2364877e-04  -1.3663163e-04   3.3531238e-03   1.8484659e-03   6.0675439e-04   5.2019750e-05
  -1.7541074e-04   6.5977208e-04   9.0349749e-05   4.5971281e-04   4.4297896e-04  -2.1490193e-04   2.9976750e-04   3.4460027e-04  -6.3237903e-04   5.7000935e-04   3.5472587e-04  -2.5476154e-03  -5.1180810e-05   1.8529438e-04   2.1956229e-04  -5.5513738e-06  -1.1469382e-03   5.8316794e-04   4.2031580e-04  -4.2812055e-05   4.3475858e-04  -5.4750970e-04  -7.4145233e-04  -2.1728233e-04   7.0903508e-04  -3.8689576e-04   2.7334076e-04   1.9425392e-05   1.3957018e-03   3.7257164e-06  -8.3990366e-04   1.2128586e-03   6.5740506e-04   2.2081776e-06   1.6125310e-05   2.4933650e-04   4.8912026e-04   4.2788312e-04   7.2525756e-04  -1.3438376e-04   2.7775162e-04   1.0104678e-03   2.2165476e-04   3.3096009e-04   3.4884442e-04   1.0517137e-04   3.2346516e-03   1.9414012e-03   4.4612205e-04  -3.3048692e-04
  -2.9297583e-04   5.6432321e-04  -1.0861439e-04   2.2269880e-04   2.4823251e-04  -3.0454452e-04   3.4756394e-04   3.6213509e-04  -5.3746602e-04   5.5583776e-04   2.3733263e-04  -2.5911396e-03  -1.6836610e-04   1.2657083e-04  -3.4342040e-04  -1.2187124e-04  -1.2107703e-03   5.5561290e-04   3.2772491e-04  -1.4831794e-04   3.6266228e-04  -7.6311512e-04  -1.3513266e-03  -1.1195003e-04   6.5521389e-04  -5.2426476e-04   2.1948533e-04  -7.7253157e-05   2.1965176e-05  -1.7196269e-04  -1.3061716e-03   1.1570863e-03   4.7937929e-04   1.9647581e-05  -2.4132621e-04  -2.7777709e-04   4.5280383e-04   7.7688962e-04  -7.0645707e-05  -8.3545288e-05   1.6439044e-04   8.6878199e-04  -4.2168394e-05   1.3580841e-04   2.7955836e-04  -1.6258733e-04   3.1238666e-03   1.7493693e-03   2.8402905e-04  -3.2002418e-04
  -5.8384932e-04   3.2065934e-04  -2.4006284e-04   2.7520678e-06  -1.0336895e-04  -7.6359103e-04   4.8862028e-05   5.9396657e-04  -7.8704872e-04   4.7663058e-04   1.2890311e-04  -2.6763207e-03  -3.2104671e-04   9.8804587e-05  -1.6984784e-04  -1.2749375e-04  -1.2049518e-03   5.2297360e-04   4.0095104e-04  -2.0378309e-04   3.2787988e-04  -7.5694668e-04  -1.0299163e-03  -2.1844097e-04   7.8788993e-04  -4.5567256e-04   7.1064447e-04  -1.2590218e-04   8.2970242e-04   8.3220289e-07  -6.9213129e-04   1.1056522e-03   5.0236227e-04   2.2954296e-04   5.5053948e-05   6.8381960e-05   5.5883732e-04   4.8239174e-04   8.8089443e-04  -2.5147592e-05   3.4882640e-04   8.4189931e-04   3.2951694e-04   1.9592380e-04   2.8487676e-04  -2.0966090e-04   3.2809076e-03   1.8066327e-03   5.1843224e-04   9.3623472e-05
  -2.7492471e-04   6.1346765e-04   8.3803752e-06   3.6839183e-04   1.7069302e-04  -1.4806780e-04   4.4828889e-04   1.1588639e-03  -5.2499492e-04   5.8380119e-04   3.1654094e-04  -2.5445712e-03  -9.8457363e-05   2.8583751e-04  -1.6356076e-04  -1.7561794e-04  -1.1523549e-03   4.8758413e-04   9.2524810e-05  -7.6706710e-05   4.0557270e-04  -5.5118877e-04  -4.5485402e-04  -1.1078008e-04   7.8514160e-04  -4.1187528e-04   6.4730330e-04  -2.6633707e-04   4.3512654e-04   1.5404701e-04  -5.0371065e-04   1.1974877e-03   8.3868206e-04   8.2222548e-05  -1.2094612e-04   7.5662516e-05   4.7015690e-04  -2.3478481e-04   1.1777653e-03  -4.5804871e-04   3.7939567e-04   8.8824239e-04   1.4985871e-04   2.7294585e-04   3.0392373e-04  -4.0778852e-04   3.2879219e-03   1.7526745e-03   4.4257721e-04  -1.6104772e-04
  -4.0793643e-04   5.7847815e-04  -1.3756394e-05   2.7955475e-04   5.1746063e-04  -2.6321728e-04   4.0403820e-04   4.1089996e-04  -7.6506968e-04   5.5628282e-04   2.6221905e-04  -2.5246011e-03  -2.1085082e-04   1.0449863e-04  -2.6234158e-04  -1.4977097e-04  -1.1334023e-03   5.4601341e-04   3.3959429e-04  -1.4821862e-04   3.0708098e-04  -6.8920798e-04  -1.2060804e-03  -3.2422281e-04   7.6251588e-04  -4.7154000e-04   2.5532875e-04  -2.5440790e-04   4.0190984e-04  -4.8954869e-05  -5.3408556e-04   1.1089109e-03   3.9998887e-04  -1.5939189e-04  -4.0757246e-04  -1.7957097e-04   2.6528913e-04   2.3335620e-05   5.8755034e-04  -2.9146537e-04   6.9485970e-05   7.3873647e-04  -1.9527752e-04   3.7654463e-06   1.0948821e-04  -4.0297830e-04   3.1229469e-03   1.7007211e-03   2.8760350e-04  -1.8955434e-04
  -6.1258033e-04   3.8304529e-04  -2.2340765e-04   1.7735259e-05   3.7523144e-04  -7.1089232e-04  -1.0658869e-05   1.1033514e-03  -8.2351681e-04   5.1399181e-04   1.0253405e-04  -2.6628771e-03  -2.7442721e-04  -9.4235575e-06  -4.1741712e-04  -2.1461328e-04  -1.2106951e-03   5.0662697e-04   9.3119335e-05  -2.3748775e-04   1.6051123e-04  -7.5474981e-04  -1.0146652e-03  -4.0316608e-04   6.3950423e-04  -6.5365137e-04   4.8171997e-04  -2.2335607e-04   9.8293251e-04  -6.6072971e-05  -1.2549043e-03   1.0395456e-03   2.6340300e-04   5.2213454e-05  -1.2953776e-04  -2.6869826e-04  -3.2180952e-04   2.5151149e-04   1.0393282e-03  -5.2416680e-04   2.2137302e-04   7.3101500e-04   2.8692824e-05   7.0566406e-05   2.0166562e-04  -4.5430262e-04   3.1632872e-03   1.7117707e-03   3.9494041e-04  -2.1773412e-04
  -5.0682359e-04   4.3178839e-04  -8.2358354e-05   2.5444492e-04   3.0766777e-04  -6.9281209e-04   3.5209596e-04   1.0989376e-03  -7.0139871e-04   5.5347994e-04   1.8734367e-04  -2.5317913e-03  -1.7538868e-04   5.5148990e-05  -3.7418367e-04  -1.4770259e-04  -1.1217820e-03   5.5192865e-04   1.9290157e-04  -1.3991598e-04   3.1047926e-04  -6.9951551e-04  -6.9610489e-04   3.4769098e-05   7.7375205e-04  -4.2220528e-04   3.1872795e-04  -3.2672283e-04   7.5597165e-04   1.6691600e-04  -8.5581234e-04   1.1180979e-03   4.5580012e-04  -1.1007510e-04   4.4807119e-05   3.9638221e-04   3.7496633e-04   4.9082673e-04   8.0761343e-04  -2.3331051e-04   3.9864259e-04   8.0839789e-04   2.9609760e-04   1.9123321e-04   2.0008738e-04  -2.0793568e-04   3.1727720e-03   1.6636234e-03   4.6917575e-04  -1.6328365e-04
  -4.0489229e-04   4.7270241e-04  -4.4401557e-05   2.7269879e-04   2.6961966e-04  -3.1246111e-04   8.8006833e-05   7.6120923e-04  -7.2883640e-04   6.2406692e-04   1.6522419e-04  -2.5136368e-03  -1.5401465e-04  -3.4061257e-05  -4.6067141e-04  -2.1856026e-04  -1.0435567e-03   4.8687839e-04   2.6394866e-04  -1.2438915e-04   2.6914326e-04  -7.6827180e-04  -1.2734589e-03  -3.4438985e-04   6.4867764e-04  -5.3631107e-04   8.9534902e-04  -3.9880147e-04   1.7844694e-03  -2.7443257e-05  -1.4529837e-03   1.0022142e-03   2.9698006e-04   3.2549756e-04   2.6898709e-04  -7.3748779e-05  -1.0717510e-04   7.0217263e-04   6.5767433e-04  -3.9271047e-04   4.0495480e-04   9.8890031e-04   1.1203936e-04   3.6351317e-05   5.8697853e-05  -2.8885706e-04   3.0967710e-03   1.6502491e-03   2.9131531e-04  -4.6620486e-04
  -6.7600457e-04   3.4784293e-04  -2.0554151e-04   2.3749584e-05   1.5200075e-04  -4.4583075e-04  -4.4976885e-05   4.8551729e-04  -7.7971397e-04   5.6464842e-04   3.8494814e-05  -2.6140660e-03  -3.1664205e-04   1.3736621e-05  -5.8749085e-04  -2.9740279e-04  -1.1514243e-03   5.2195881e-04  -2.4816973e-04  -1.9691506e-04   1.4108201e-04  -8.8398566e-04  -8.9426187e-04  -3.8765586e-04   6.5557583e-04  -6.4600731e-04   5.7106192e-04  -2.6772180e-04   1.9504850e-03  -2.6040859e-04  -6.5844547e-04   9.4758644e-04  -1.4752331e-04   1.2842770e-04  -3.9055079e-04  -3.0003733e-04   2.8812976e-04   1.9690003e-04   9.7650255e-04  -4.9126329e-04   2.9624471e-05   6.5554189e-04  -1.0241742e-05  -6.0105624e-05  -1.1329252e-04  -3.3838896e-04   2.9289920e-03   1.4356509e-03   1.9148870e-04  -4.1087755e-04
  -7.4289623e-04   1.9527179e-04  -3.1404011e-04   9.9861409e-06  -7.5185919e-05  -1.0246866e-03   7.1496775e-05   4.1437635e-04  -7.1841764e-04   5.8275805e-04   5.6428624e-05  -2.6084452e-03  -2.7436102e-04   4.2046409e-05   1.4088061e-04  -4.3794382e-04  -1.1411036e-03   5.3982442e-04   4.7403335e-04  -2.1466860e-04   1.6286568e-04  -9.1933418e-04  -1.2732105e-03  -5.0591095e-04   5.9489469e-04  -5.2277133e-04   4.5369021e-04  -6.8545900e-04   1.0411585e-03  -3.5012406e-05  -4.0371349e-04   1.0030105e-03   4.1413464e-04  -2.8417766e-04  -2.1001499e-04   2.1030918e-04   4.6329218e-04   1.1163980e-03   9.6918258e-04  -6.1555585e-04   5.0182466e-04   7.6484244e-04   1.4151185e-04   1.2723487e-04   2.2509905e-04  -1.5818610e-04   3.0418362e-03   1.4835598e-03   3.9236870e-04  -8.6242908e-05
  -5.1531731e-04   4.7267950e-04  -1.6051871e-04   2.4896095e-04   3.7321553e-04  -6.0170400e-04   2.9023807e-04   1.8214231e-04  -6.0806022e-04   5.9612322e-04   1.3688969e-04  -2.5298267e-03  -2.4014256e-04   1.3849619e-04  -2.3505332e-04  -3.4265747e-04  -1.1566099e-03   4.9348263e-04   3.3935893e-04  -1.6471921e-04   2.0908983e-04  -8.1990066e-04  -1.0691679e-03  -4.8380441e-04   7.1892201e-04  -5.7056890e-04   5.6123163e-04  -2.6683352e-04   1.0835668e-03  -9.6982898e-05  -1.0101957e-03   9.9887373e-04   7.9351950e-05  -2.3434624e-04   1.7729923e-04  -2.3908979e-04   5.2475132e-04   5.3757953e-04   1.9568803e-04  -5.1574054e-04   1.7918793e-04   7.2273880e-04   2.3718383e-04   1.9246057e-04   1.2112899e-04  -2.0718717e-04   3.0508635e-03   1.5534469e-03   3.6708688e-04  -4.5899556e-05
  -5.3645991e-04   3.6486058e-04  -1.3241879e-04   1.3501606e-04  -2.3261115e-05  -5.0845975e-04   1.7290222e-04   7.2998798e-04  -5.9656147e-04   5.6178856e-04   6.2579827e-05  -2.5584903e-03  -3.3837502e-04  -1.0459252e-04  -3.6424116e-04  -1.7959518e-04  -1.1049890e-03   4.9671548e-04   2.0993999e-04  -2.0261625e-04   1.0921119e-04  -8.6657761e-04  -1.2542403e-03  -4.3753741e-04   6.0417998e-04  -6.5799954e-04   6.7129871e-04  -5.3304550e-04  -4.4702334e-05  -3.0416806e-04  -8.1201718e-04   9.4182708e-04   2.0247769e-04  -2.1829794e-04  -1.2101592e-04  -2.4530612e-04   2.4240947e-04  -1.0687079e-04   2.4149407e-05  -2.3381213e-04   2.3346285e-04   5.5340392e-04  -1.1646953e-04   4.9378439e-05  -4.6260204e-05  -5.3447840e-04   2.8742540e-03   1.5214882e-03   2.0405557e-04  -4.9682980e-04
  -9.1293338e-04   2.1452823e-04  -2.5633667e-04  -1.1467855e-04   2.2828643e-05  -6.0841336e-04  -1.5495779e-04   4.0377010e-04  -7.6045137e-04   5.1964744e-04  -3.9828417e-05  -2.6119358e-03  -3.9330273e-04  -6.8542889e-05  -3.9846625e-04  -2.5660114e-04  -1.2032574e-03   5.5075210e-04  -3.0140547e-04  -2.8721851e-04   1.0869682e-04  -1.0691877e-03  -1.4217775e-03  -3.2761035e-04   6.5215584e-04  -5.9673050e-04   5.8144034e-04  -5.3683156e-04   7.7877112e-04  -1.4480652e-04  -1.1913879e-03   9.3388988e-04   2.2290714e-04   5.3855365e-05  -8.0230056e-05   6.3884632e-05   2.6920444e-04   2.1663855e-04   5.1180820e-04  -2.1820764e-04   4.2392386e-04   6.5600866e-04   1.2145319e-04  -1.8647270e-05   1.4264109e-04  -3.1492952e-04   3.0760127e-03   1.5769437e-03   4.7118065e-04  -6.2192135e-05
  -4.8266753e-04   5.5130676e-04  -7.6195065e-05   3.7239416e-04   6.3980874e-06  -2.6604498e-04   1.9892307e-04   4.6453078e-04  -3.8738648e-04   6.4374757e-04   2.0945017e-04  -2.4435467e-03  -1.9274805e-04   1.6507745e-05  -6.4095846e-05  -2.7766620e-04  -1.1770256e-03   4.7105315e-04   3.3937811e-04  -8.6443215e-05   2.4487780e-04  -7.8848208e-04  -5.9954857e-04  -2.8165555e-04   9.8918926e-04  -4.7936424e-04   9.2975859e-04  -4.2495647e-04   9.5415971e-04  -1.0050840e-04  -7.5268751e-04   9.2879857e-04   7.2427771e-05  -3.2188604e-05   2.0468503e-04  -4.8538594e-05   2.0731389e-04   1.1490757e-04   4.2779499e-04  -4.9326074e-04   2.6674371e-04   9.0451451e-04   1.8052991e-04   1.2190067e-04   1.9982659e-04  -7.8150297e-05   3.1499213e-03   1.6217552e-03   4.0030974e-04  -1.0646531e-04
  -4.7903636e-04   5.0921709e-04  -4.6360183e-05   2.5377082e-04   3.9121132e-05  -4.2599672e-04   3.1761275e-04   4.4637299e-04  -6.2063709e-04   5.8641547e-04   1.5781751e-04  -2.4716365e-03  -1.4653521e-04   8.1612357e-05  -2.1230747e-04  -3.1084698e-04  -1.1405252e-03   4.3319858e-04   2.4869294e-05  -1.5733014e-04   1.6315932e-04  -7.5272453e-04  -8.8626321e-04  -3.6872851e-04   5.4240663e-04  -5.1414210e-04   8.0222948e-05  -2.9863970e-04   8.0329983e-04   1.6127258e-05  -9.5884153e-04   8.1961765e-04   2.1906316e-04  -2.2739593e-04  -3.2535641e-04  -6.1771847e-05   3.8581039e-04  -1.8633409e-04   7.9091726e-04  -8.0654630e-04   1.2467439e-04   5.7212968e-04   1.2254222e-04  -6.0943690e-05   9.1587113e-05  -2.1047956e-04   2.9330894e-03   1.3627040e-03   3.4126846e-04  -3.6107106e-04
  -6.4982282e-04   3.6329386e-04  -1.6934986e-04   5.0482846e-05  -1.3583319e-04  -8.1405911e-04  -1.3928650e-06   1.8089819e-04  -8.6677627e-04   5.5720430e-04   3.5564306e-05  -2.5631946e-03  -3.9567152e-04   5.3260021e-05  -2.8752335e-04  -2.3533175e-04  -1.1532643e-03   4.4288280e-04  -2.4442479e-04  -1.9239516e-04   1.2337013e-04  -9.6815400e-04  -1.0764581e-03  -4.4222680e-04   7.9892087e-04  -5.0818908e-04   2.0808614e-04  -2.7919465e-04   2.0295212e-03  -2.8936774e-04  -1.2044013e-03   9.1161812e-04   5.1658705e-04   1.7944894e-04  -9.4449686e-05   1.7214821e-04   1.3471597e-04   2.7222900e-06   5.5725942e-04  -4.2927393e-04   3.7374216e-04   7.9172791e-04   2.9010657e-04   1.3543975e-04   2.0989281e-04  -1.3837304e-04   3.1279637e-03   1.5473262e-03   5.5781408e-04  -2.3652163e-05
  -3.6283134e-04   7.0994685e-04   7.3167561e-05   4.6988085e-04   3.6299412e-04  -2.4945190e-04   3.5959046e-04   2.4911694e-04  -4.3258315e-04   6.7374704e-04   3.2472561e-04  -2.3058979e-03  -6.2274368e-05  -6.6735214e-05  -5.9449212e-05   1.3845320e-05  -1.0371911e-03   5.5309752e-04   1.7040322e-04  -1.5840786e-05   2.8761206e-04  -5.7558052e-04  -5.7158613e-04  -6.2222643e-05   6.9815060e-04  -3.1451436e-04   7.8737154e-04  -2.1703207e-04   6.2459818e-04   6.7738714e-05  -1.1624882e-03   1.0203607e-03   4.5846525e-04   3.7236910e-05  -5.1655382e-04  -1.8252500e-05   3.0608676e-04   3.4741411e-04   9.5182151e-04  -1.0367388e-04   6.9580483e-04   9.5751981e-04   3.5657999e-04   1.2677723e-04   3.3734829e-04   1.1535124e-04   3.2248504e-03   1.8090616e-03   5.7423551e-04   2.3401806e-05
  -4.4259074e-04   6.3030835e-04   7.7871904e-05   3.8581438e-04   8.5976695e-05  -6.0874259e-04   2.2580130e-04   4.9504155e-04  -3.4713277e-04   6.9838361e-04   2.8382422e-04  -2.3252657e-03  -7.1052491e-05   9.1420450e-05  -3.4343266e-05   1.0766506e-04  -9.9035166e-04   4.8277047e-04  -8.1562015e-05  -4.2152467e-05   2.5907889e-04  -6.7155180e-04  -8.4711669e-04  -2.4525478e-04   7.6986291e-04  -4.4630445e-04   4.5755765e-04  -3.2465332e-04   1.2177331e-03  -1.3348596e-05  -7.0741429e-04   1.0345391e-03   4.6515345e-04   6.1394305e-05   2.1375308e-04  -3.4180866e-05   2.0754409e-04   1.0150760e-04   8.8135392e-04  -2.0741290e-04   4.2359659e-04   7.1279827e-04   9.4455885e-05   2.2352982e-04   3.0374917e-04   1.9463667e-04   3.1795523e-03   1.6272429e-03   5.6081644e-04  -1.3095120e-04
  -4.7622679e-04   5.2292307e-04   3.5521502e-05   1.9998675e-04   1.9055021e-04  -5.7257997e-04   2.3158248e-04   5.7508110e-04  -1.3473829e-04   6.3083053e-04   1.7437829e-04  -2.4122398e-03  -1.6617918e-04   1.3464899e-04  -1.5293453e-04  -2.1497086e-04  -1.0561129e-03   4.6982209e-04  -3.1789321e-07  -1.2678262e-04   1.3926107e-04  -7.1474916e-04  -1.2089915e-03  -4.8251494e-04   5.5735174e-04  -6.8752462e-04   6.8303576e-04  -4.2000753e-04   7.3174026e-04  -9.5316413e-05  -8.4476912e-04   9.2643296e-04   2.8240657e-04   1.7757525e-04  -5.5545318e-04   5.4791242e-05  -4.0759455e-06  -3.6457999e-04   3.7927902e-04  -6.7157811e-04   5.0170696e-04   9.9242327e-04   9.5666779e-05   2.8027280e-04   4.2414517e-04  -1.8004811e-04   3.2699625e-03   1.5771068e-03   6.4740260e-04   2.3457201e-04
  -2.9065055e-04   6.9503684e-04   9.0329697e-05   5.0617271e-04  -3.8075792e-05  -1.0462228e-04   2.9891232e-04   5.2990712e-04   3.4881130e-05   7.0622202e-04   3.7542227e-04  -2.2312780e-03   7.9300538e-05   1.3578398e-04  -6.5741995e-05  -1.2582155e-05  -9.1300398e-04   5.0427188e-04  -1.8571473e-05   5.1737188e-05   3.9183829e-04  -5.2774214e-04  -5.3671363e-04  -1.9361427e-04   1.0391815e-03  -5.0584767e-05   5.3878379e-04  -2.6672406e-04   1.1060849e-03   7.9274869e-05  -5.7512621e-04   1.0410578e-03   7.0940290e-04   1.6910670e-04   8.3727689e-05   2.6771950e-04   6.3583138e-04  -2.2000316e-04   5.2575639e-04  -5.1354669e-04   7.4743375e-04   9.1824000e-04   4.8264558e-04   2.4809971e-04   3.8227535e-04   2.0954513e-04   3.3330817e-03   1.9790272e-03   7.3507789e-04   1.0371485e-04
  -3.3958454e-04   7.6863432e-04   2.3403513e-04   5.3330587e-04   1.4460202e-04  -5.0985481e-04   3.7668919e-04   4.7703148e-04  -3.9731403e-04   7.2805182e-04   3.7808326e-04  -2.2176947e-03   7.6113865e-05   1.9191629e-04   3.0260661e-04  -7.7662415e-05  -8.8815240e-04   5.7167531e-04  -6.0578815e-05   9.0879832e-05   3.4367479e-04  -4.1692401e-04  -6.2721130e-04  -2.5864292e-04   5.7736854e-04  -2.8487836e-04   2.3651181e-04  -3.6764483e-04   5.9780129e-04  -6.4280750e-05  -5.6990795e-04   1.0850730e-03   5.2445463e-04   1.5287118e-05  -1.8958299e-04  -1.1019434e-04   1.8999107e-04  -9.1753929e-05  -1.6012389e-04  -4.9421290e-04   8.7128254e-04   1.0044001e-03   2.1031429e-04   3.8540017e-04   2.3438102e-04   5.5984553e-04   3.2306497e-03   1.8271655e-03   6.3661020e-04   3.7482509e-04
  -3.6519818e-04   6.4837717e-04   1.0929334e-04   3.3456236e-04   4.5382127e-04  -8.1851095e-04   1.2863222e-04   2.6283207e-04  -5.3666765e-04   6.8250520e-04   2.7855704e-04  -2.2998929e-03  -2.9634322e-05   1.6169265e-04   9.8921919e-05  -2.2913046e-05  -9.5356436e-04   5.2220072e-04   1.8530032e-04  -3.9832641e-05   2.3289249e-04  -6.0698600e-04  -7.5264240e-04  -1.6653605e-04   7.0357806e-04  -4.8407033e-04   4.3456526e-05  -2.6146529e-04  -8.9601049e-04  -4.4810987e-04  -7.1483932e-04   1.0424375e-03   2.7791492e-04   6.9138310e-05  -1.1002261e-04  -1.5509066e-04   4.4009386e-04  -1.2011599e-04   2.1362418e-04  -1.1802144e-04   3.9406249e-04   7.6976744e-04   1.5897320e-04   1.9886442e-04   2.7721774e-04   1.1778674e-04   3.1155255e-03   1.4414540e-03   5.8747543e-04   1.4025123e-04
  -5.8602105e-04   5.6626217e-04   9.8230681e-05   3.7267309e-04   4.2229504e-04  -3.5800564e-04   3.2608674e-04   2.6918232e-04  -2.8581082e-04   7.1525038e-04   3.0416326e-04  -2.2767368e-03   2.1081149e-05   2.3854700e-04  -3.2247257e-04   7.0117821e-05  -9.7196182e-04   5.9682649e-04  -2.7626831e-04   3.6452562e-05   3.5349376e-04  -4.5397479e-04  -6.1868527e-04  -1.0927511e-04   7.6296862e-04  -1.6721028e-04   4.0395689e-04  -3.3935971e-04   7.3332933e-04   8.6774642e-05  -5.7810178e-04   9.9796313e-04   9.0704433e-04  -7.8320627e-05  -2.1164707e-04   3.7025343e-04   5.7396723e-04  -3.9436440e-05   1.1823360e-03  -1.7411188e-04   8.9143595e-04   9.2644012e-04   6.0117844e-04   2.8094443e-04   5.7825953e-04   1.6980727e-04   3.3880684e-03   1.9248165e-03   8.0655847e-04   3.6193983e-04
  -1.9633303e-04   9.1291871e-04   3.0638571e-04   5.9476099e-04   3.5265696e-04  -5.1719195e-04   6.0385000e-04   7.0217211e-04  -2.1359320e-04   7.2048826e-04   4.0354164e-04  -2.1563135e-03   1.0706925e-04   2.3223530e-04   1.6445044e-04   2.8991871e-04  -9.0032129e-04   6.1038526e-04  -2.7429700e-05   1.6273044e-04   4.1566580e-04  -4.5934384e-04  -4.8634148e-04  -1.0780671e-04   1.1614428e-03  -3.2609471e-04   7.5172645e-04  -3.8856934e-04   9.4252429e-04  -9.0698108e-05  -4.6298871e-04   1.0530308e-03   6.9252506e-04   5.2651503e-06   4.3165794e-04   2.4766408e-04   7.2816372e-05  -3.1261478e-04   9.0562523e-04  -4.1868375e-04   6.7884661e-04   1.0764856e-03   1.2095123e-04   2.2008954e-04   5.8198458e-04   1.4781332e-05   3.3319676e-03   1.8989528e-03   7.4753183e-04   6.5053559e-05
  -1.7869339e-04   7.5622031e-04   1.7099318e-04   4.0145451e-04   7.8783240e-05  -4.4986085e-05   5.0328113e-04   3.1776476e-04  -3.8116492e-04   7.1492215e-04   3.4849430e-04  -2.2059707e-03   2.8682642e-05   2.2047866e-04  -1.5329792e-04   5.7060031e-05  -8.7752816e-04   5.6079298e-04   1.5126873e-04   6.7083252e-05   3.1035423e-04  -5.1531033e-04  -6.1272550e-04  -3.1797425e-04   1.0605652e-03  -4.0143321e-04   6.1435305e-04  -2.4693535e-04   8.9398510e-04  -1.2636009e-04  -6.1577617e-04   9.2239119e-04   3.3496864e-04  -2.7112465e-04   9.9326926e-06  -1.3647412e-04  -3.6517601e-04   3.9145609e-05   4.4225311e-04  -3.5014216e-04   3.7396577e-04   9.1633154e-04   4.4107376e-04   1.3018535e-04   4.2343306e-04   3.2055873e-04   3.1381862e-03   1.8709362e-03   6.0104998e-04   1.3316554e-04
  -5.6030613e-04   5.0205109e-04   8.8343753e-05   1.2791365e-04   1.6584848e-04  -3.0159616e-04   3.6982086e-04   5.4406619e-04  -4.9934693e-04   6.4502441e-04   2.2093265e-04  -2.4026940e-03  -6.1689650e-05   1.1212620e-04   1.3708731e-04  -1.4273335e-04  -9.1292185e-04   6.0815649e-04   2.6853947e-04  -1.1214057e-06   3.2200248e-04  -6.1632867e-04  -4.4505412e-04  -2.8471815e-04   7.3633716e-04  -1.8628981e-04   1.6087478e-04  -1.4283265e-04   1.6721004e-03  -1.0027571e-04  -7.3658011e-04   1.0712341e-03   4.4743970e-04   5.5380013e-05   3.6011383e-04   9.9939723e-05  -3.3286223e-04   1.4912682e-04   4.2228907e-04  -2.1075789e-04   7.2791893e-04   8.0494973e-04   2.8163128e-04   3.7196281e-04   5.2540377e-04   5.1017501e-04   3.3651614e-03   1.9085883e-03   9.1682147e-04   2.5914347e-04
  -2.1814081e-04   8.1558275e-04   2.6348984e-04   5.5318116e-04   1.6666968e-04  -3.7731140e-04   2.5823072e-04   5.1626842e-04  -2.5388980e-04   6.8017741e-04   4.0740924e-04  -2.2684028e-03   9.5198186e-05   2.2933712e-04   5.2699619e-05   3.0957912e-05  -7.9609104e-04   5.4820022e-04   9.8262957e-05   1.4198899e-04   3.9303870e-04  -2.7230539e-04  -7.2228076e-04  -7.4868629e-05   1.1044947e-03  -1.8969621e-04   8.4195868e-04  -3.3319273e-04   8.6086342e-04  -1.1714076e-04  -4.8532433e-04   1.0547668e-03   6.6980429e-04  -1.7728886e-04   1.8088255e-04   1.9421724e-04  -8.1977865e-05   2.1955339e-04   9.4483042e-04  -4.9105630e-04   8.5411861e-04   1.0217145e-03   3.3619281e-04   3.5716614e-04   5.3904235e-04   3.0745447e-04   3.2845212e-03   2.0912585e-03   8.8207220e-04   2.6901680e-04
  -2.6709211e-04   7.6599116e-04   2.0087996e-04   4.3846466e-04   3.2146339e-04   3.2456388e-04   2.3543170e-04   9.9372026e-04  -6.0430192e-04   6.7727966e-04   3.5363113e-04  -2.3160113e-03   2.2728582e-05   4.8614798e-05   5.4935957e-05   1.2299929e-04  -8.3608174e-04   5.9277948e-04   6.8194827e-04   8.1724378e-05   3.2086301e-04  -5.8775616e-04  -8.1785867e-04  -4.0693057e-04   8.8288862e-04  -3.1433252e-04   6.5734278e-04   8.3699655e-05   1.0395847e-03  -4.0570827e-05  -8.1437750e-04   1.1239552e-03   3.4987406e-04   1.2471256e-04  -4.4034177e-04  -1.7564624e-04   3.2731677e-05   4.3854359e-04   8.0471742e-04  -3.6924385e-04   5.3737435e-04   8.3459419e-04   1.7843235e-04   4.2968625e-04   3.6911346e-04   2.2870711e-04   3.1814005e-03   1.7004674e-03   7.1719725e-04  -2.9898432e-05
  -5.6951155e-04   5.7595019e-04   1.2468941e-04   1.9506624e-04   2.5473547e-04  -4.0782578e-04  -2.4445362e-05   7.2654645e-04  -4.2035987e-04   6.2260416e-04   1.9613891e-04  -2.4514906e-03  -9.1238770e-05   7.6961704e-05  -3.1596405e-04   4.5001689e-05  -9.0491667e-04   6.1700388e-04  -2.4252180e-05  -1.1925412e-05   2.5365694e-04  -6.0363184e-04  -8.9828606e-04  -1.0294486e-04   5.4131972e-04  -3.4911957e-04   2.6844733e-04  -3.9449081e-04   9.6261175e-04  -1.6896306e-04  -4.6557782e-04   9.8092062e-04   5.5020669e-04   1.0991679e-04  -1.9474942e-04   1.9119905e-04   1.9592141e-04   7.3689257e-04   1.0764570e-04  -1.4941223e-04   6.4230815e-04   1.0571659e-03   2.4494104e-04   4.3025325e-04   5.4405519e-04   6.1291619e-05   3.2979567e-03   1.9672627e-03   8.1383350e-04   3.4386036e-04
  -1.1317176e-04   8.4805535e-04   2.7345243e-04   6.0460030e-04   6.5662613e-04  -2.2891766e-04   5.7990861e-04   5.7936687e-04  -1.1197162e-05   7.0668652e-04   3.9377608e-04  -2.2547313e-03   1.1017860e-04   2.9576081e-04  -3.2142329e-05   1.4347366e-04  -8.9178432e-04   5.9201987e-04   3.0844595e-04   1.5174964e-04   4.1121620e-04  -5.0311099e-04  -6.3402543e-04  -2.8675341e-04   7.7029376e-04  -2.5223059e-04  -4.8766233e-04  -1.1206209e-04   3.8310990e-04   1.4590636e-04  -4.0579340e-04   1.0897070e-03   5.9796619e-04   4.3131271e-04   1.6785909e-04   4.7587516e-04   3.5346358e-05   1.1432158e-03   6.3289062e-04  -1.4495129e-04   7.5660530e-04   1.1458361e-03   6.8411493e-04   5.2391837e-04   6.2558963e-04   4.5860451e-04   3.3239312e-03   2.0890196e-03   8.8410632e-04   4.7654845e-04
  -1.6264645e-04   7.8742130e-04   3.2499866e-04   5.0304527e-04   2.0681642e-04  -1.2615770e-04   4.7608782e-04   2.4866121e-04  -2.2332376e-04   6.4464280e-04   3.3417199e-04  -2.3158251e-03  -8.9015875e-06   7.1226059e-05  -1.7831569e-04  -1.5245796e-06  -8.6551282e-04   4.9764465e-04   3.6711516e-04   1.0565152e-04   3.4020407e-04  -5.5996439e-04  -8.8046776e-04  -3.9221093e-04   6.0418528e-04  -3.1381947e-04   6.4657431e-04  -3.3935378e-04   1.1762308e-03  -2.2521609e-04  -6.9548201e-04   9.1808016e-04   5.0622009e-04   5.4447381e-05  -1.6825052e-04   4.0817822e-04  -4.0689245e-04   9.4110277e-05   4.5360270e-04  -1.8914945e-04   8.3966315e-04   1.2216397e-03   4.0490943e-04   3.6921364e-04   4.7714953e-04   1.4364463e-04   3.2489183e-03   1.6219937e-03   7.9079432e-04   1.7910288e-04
  -4.7962790e-04   5.1301764e-04   8.8250228e-05   2.0835568e-04   1.8322044e-04  -7.9835398e-04   6.2015584e-05   2.5607998e-04  -4.3429638e-04   5.5830961e-04   2.2808430e-04  -2.4771325e-03   4.2304005e-06   7.0085378e-05   9.5100317e-05   7.3305448e-05  -8.1512943e-04   6.8831950e-04   1.0027890e-04   3.3462242e-05   3.4780742e-04  -5.3956395e-04  -4.4258317e-04  -2.3812715e-04   7.5200107e-04  -2.3010657e-04  -8.0348218e-05  -2.6382261e-04   3.5251625e-04  -1.0049748e-04  -1.0481895e-03   1.1710145e-03   4.8497287e-04   5.7982201e-05   7.5984671e-04   3.0331392e-04   6.0261949e-04  -1.9656886e-04  -7.1662187e-05  -6.9509260e-05   6.7516952e-04   1.2394792e-03   9.6389049e-05   4.0489077e-04   5.9485459e-04   7.5316679e-04   3.4274030e-03   1.9734537e-03   1.0049099e-03   6.0927006e-04
  -7.6120406e-05   7.7572610e-04   3.7834767e-04   5.7010417e-04   3.2011027e-04  -2.7907925e-04   4.4807317e-04   2.9418123e-04  -1.0183462e-04   6.0455641e-04   4.3067543e-04  -2.3792842e-03   1.5191235e-04   3.6542086e-04   6.4508662e-05   2.9968895e-04  -6.3028652e-04   6.8230613e-04   5.1420729e-04   2.1017264e-04   4.6562232e-04  -3.5691494e-04  -6.9865346e-04  -1.6519606e-04   8.6158025e-04  -1.9581238e-04   5.9050013e-04  -3.4871799e-04   6.2329555e-04  -1.1524375e-04  -3.0942116e-04   1.3385462e-03   2.2692494e-04   4.2036152e-04   1.9020967e-04   3.0330743e-04   1.1113855e-03   9.5917901e-04   5.1506882e-04  -4.5839383e-04   6.9440843e-04   1.2238114e-03   9.4488729e-05   4.6402530e-04   6.4399396e-04   4.9871037e-04   3.4533048e-03   1.9373230e-03   1.0109860e-03   7.0878735e-04
  -3.1221786e-04   6.7161769e-04   3.7741143e-04   4.1378191e-04   1.3608547e-04  -4.5685921e-04   1.6972303e-04   9.0497435e-04  -1.3264621e-04   5.6913617e-04   3.3999438e-04  -2.4846790e-03   6.9906666e-05   4.5189587e-04   3.0316997e-04   2.3229935e-04  -6.1191269e-04   7.9411856e-04   2.8521090e-04   1.7517451e-04   3.7995086e-04  -3.7037590e-04  -4.8115404e-04  -2.0185266e-04   9.6195244e-04  -3.4935202e-04   3.8131623e-04  -3.4118563e-04   5.8124185e-04  -9.0050955e-05  -2.5783642e-04   1.2758898e-03   7.2898599e-04   6.9515896e-05   1.3970355e-04   3.1329601e-04   7.3314784e-04  -2.5329160e-04   4.0001041e-04   1.0057945e-04   7.5403863e-04   1.2796045e-03   4.4822163e-04   3.5207978e-04   5.4272328e-04   2.7687060e-05   3.2139334e-03   1.7245702e-03   8.7522971e-04   4.2362453e-04
  -4.2391859e-04   4.6549912e-04   2.2033595e-04   1.8259774e-04   8.5581509e-05  -5.9374468e-04   2.3988503e-04  -1.1256150e-04  -1.8792530e-04   5.2184961e-04   2.7410241e-04  -2.6119498e-03  -2.6047383e-05   1.2463902e-04  -1.3777807e-04   2.9377241e-04  -7.5071969e-04   6.5527088e-04   7.3874043e-04   1.2819887e-04   3.6593428e-04  -3.5063046e-04  -4.5987312e-04  -1.3533069e-04   8.5601525e-04  -1.6369477e-04   5.9226592e-04  -9.3285722e-05   1.0188455e-03  -7.1171016e-05  -4.1643670e-04   1.1781055e-03   7.3039421e-04   5.7400618e-04   5.8476493e-05   5.5594457e-04   6.9601677e-04  -1.4618006e-04   6.6520524e-04  -1.4690298e-05   9.9283387e-04   1.5974524e-03   7.1883271e-04   6.6339190e-04   8.5842761e-04   6.8412290e-04   3.3916442e-03   2.2019972e-03   1.1833066e-03   7.3860859e-04
