   8.8125322e-05  -1.0838925e-04  -3.5573241e-05  -8.2695093e-05  -1.6194250e-04  -1.3110948e-04  -1.2686204e-04  -2.6158738e-04   2.2837735e-04   1.8844708e-04   3.4349179e-04  -2.7156554e-04   1.2687758e-05  -2.5245111e-04  -5.6096580e-04  -1.9982026e-04  -4.3839257e-04  -1.1275474e-04  -6.7925881e-05  -5.8414973e-04   4.4036842e-05  -1.3664251e-04   2.1510484e-04   1.7373747e-04  -3.8636776e-04   2.8596913e-05  -2.5905896e-04  -3.8984700e-04  -1.0694031e-03  -5.2620273e-04  -7.2846469e-04   1.5802619e-04  -4.6097211e-05  -7.6020056e-05  -2.5668097e-04  -2.2342986e-04  -6.2810950e-04  -7.5516138e-05  -2.5468311e-04  -1.2968930e-04   6.8083114e-07   2.9309947e-04  -1.9707684e-04  -2.1957701e-04  -7.6944372e-05  -1.4344581e-04   4.0892573e-05   1.3266585e-04   2.6431069e-05  -2.5450331e-04
   1.7857512e-04  -1.0612250e-04  -4.3315817e-05  -1.3095806e-05  -4.8797717e-04   2.5611065e-04  -2.7126962e-04  -2.4455230e-04   4.8106169e-05   1.3709503e-04   3.6443947e-04  -2.7122430e-04  -6.7762448e-06  -4.8312909e-06  -3.9827049e-04  -2.6868572e-04  -4.6962572e-04  -7.1257935e-05  -7.7827681e-05  -4.8603507e-04   4.2928023e-05  -1.7505897e-04   5.5662615e-05   2.9921903e-05  -2.8432041e-04   6.5822656e-05  -2.4285450e-04  -3.7371361e-04   2.0334386e-04  -4.1401200e-04  -3.1565179e-04   4.2114954e-04  -1.9160338e-05  -8.0033130e-04  -6.1550025e-05  -3.4197760e-04  -2.2752614e-04  -9.7803969e-04   1.9483037e-04  -2.9492783e-04  -1.3763079e-04   3.9059273e-04  -3.3009332e-04  -2.2946592e-04  -1.0951817e-04  -2.0294890e-04   4.9770741e-05  -3.1718861e-05  -3.9314247e-05  -1.2280252e-04
   1.5564183e-04  -1.2805477e-04  -2.7281665e-05  -6.2527841e-05  -4.4778819e-04  -1.0636433e-04  -2.6812451e-05   1.3921642e-06   1.3290571e-04   1.6186232e-04   3.3146833e-04  -2.7284955e-04   3.7928989e-05  -6.6937719e-05  -4.9436558e-04  -3.8125978e-05  -4.2330599e-04  -5.1030540e-05  -1.2753416e-04  -4.7119602e-04   5.6084449e-05  -1.5628297e-04   1.4652607e-04   7.3434792e-05  -2.3696879e-04  -9.2658956e-05  -2.9341003e-04  -4.0100430e-04   4.5670517e-06  -4.4289324e-04  -2.8350452e-04   2.7544843e-04  -3.3205861e-04  -2.9685121e-04   3.1779101e-04  -2.2683077e-04  -6.5052480e-04  -1.0008679e-03   1.3916734e-04  -6.3514168e-04   7.2888935e-05   2.9720250e-04  -5.5388649e-05  -1.4232243e-04  -1.8353919e-04  -2.8352765e-04   4.2261894e-05   2.4873251e-04  -3.4162225e-05  -2.6359112e-04
   2.1765936e-04  -7.1343158e-05  -9.1637732e-05  -6.9609727e-05  -4.5135393e-04  -8.0089856e-05  -6.3683692e-05  -4.3254264e-04   2.4718593e-04   1.7602877e-04   3.7800605e-04  -3.1616955e-04  -1.8939258e-05  -1.8530521e-04  -6.8909454e-04  -1.4445993e-05  -4.5426283e-04  -5.3072134e-05  -1.8537771e-04  -4.8552977e-04   3.6592926e-05  -3.0196647e-04   1.7577807e-04   1.0789885e-04  -2.2508885e-04  -6.0525643e-05  -3.0377967e-04  -3.9503339e-04   7.4542093e-04  -2.7862078e-04  -1.4996089e-04   2.6669152e-04  -2.7197148e-04  -4.0333581e-04  -3.0578181e-04  -4.4724857e-05  -1.5300930e-04  -6.4598350e-04  -2.5488398e-04  -3.4553715e-04   7.7918143e-05   2.1230215e-04  -8.9905305e-05  -2.0769687e-04   3.7123562e-05  -3.5314381e-04   4.0836421e-05   4.7186008e-05   4.7453970e-05  -3.2777258e-04
   1.5341850e-04  -9.1230264e-05  -5.5077599e-05  -9.1590482e-06  -3.0523326e-04   2.3067313e-04   1.4330761e-04   1.4124058e-04   2.8312235e-04   1.9166952e-04   3.8469862e-04  -2.5494071e-04  -2.3761433e-05  -3.7514696e-05  -5.8301643e-04  -1.1076230e-04  -4.1009596e-04  -1.0823574e-04   1.1176695e-04  -4.5856580e-04   5.1363641e-05  -1.6983268e-04   1.2478966e-04   2.9699964e-05  -2.8307395e-04  -8.2138969e-05  -4.4811185e-04  -5.1082950e-04  -2.1582859e-04  -3.6713065e-04  -2.3143151e-04   2.8474745e-04   4.4586057e-05  -3.8935593e-04  -2.5104647e-04  -4.1806753e-04  -4.9424724e-04   2.2583274e-04   4.7343512e-04  -1.2426040e-04   1.5427095e-04   3.6913296e-04  -4.1241772e-04  -4.5838977e-05  -9.8248340e-05  -5.5926685e-05  -8.8673796e-06   1.0611862e-04   2.9821429e-06  -8.9028588e-05
   1.3123057e-04  -1.0703976e-04  -4.9278904e-05  -3.8308026e-05  -3.7519689e-04  -1.9509791e-04  -3.2680997e-04  -3.1552149e-04   2.4333036e-04   1.9440796e-04   3.6914935e-04  -2.6161704e-04   2.7416429e-06  -1.8953286e-04  -2.4269627e-04  -1.8048372e-04  -4.4686630e-04  -9.4051196e-05   2.5271057e-04  -5.0428277e-04   5.5502631e-05  -2.2298048e-04   9.7270153e-05   3.2614309e-05  -1.9600880e-04  -6.1655534e-05  -1.5852424e-04  -8.2239060e-04   3.8151492e-04  -3.7600074e-04  -3.0727530e-04   2.6988468e-04  -3.0605984e-04  -3.7591837e-04  -8.7833367e-05  -1.8495930e-04  -4.6260451e-04  -4.2441598e-04  -5.2019608e-05  -5.2624685e-04   1.2042873e-04   1.8620589e-04  -2.0582380e-04  -2.1901019e-04  -6.0556067e-05  -1.1446748e-04  -6.3198888e-05   3.3983504e-04  -2.8326665e-05  -5.2325679e-05
   2.6075359e-04  -8.6182510e-05  -5.1485524e-05  -3.8898244e-05  -2.9832887e-04  -2.0731142e-05  -3.1166495e-05  -1.7982314e-04   1.3404439e-04   1.6395825e-04   3.6204956e-04  -2.6363740e-04   8.1825885e-05   3.1334857e-05  -5.4146640e-04  -1.7501631e-04  -4.5310301e-04  -4.0556206e-05   1.7403210e-05  -4.3378718e-04   7.8196492e-05  -1.7835021e-04   2.4309574e-04   1.5437757e-04  -3.4656390e-05   3.0570625e-06  -7.0539874e-04  -3.5260752e-04   5.5230339e-04  -4.0702859e-04  -5.7749258e-04   2.9890434e-04   4.0417051e-04  -4.8389620e-04  -5.7375084e-05  -7.5117692e-05  -9.6958980e-04  -2.8163634e-04   2.9755267e-04  -4.8419004e-04   1.1972858e-04   2.4658770e-04  -1.5182822e-04  -2.0343441e-04   1.1637409e-05  -1.1319845e-04  -3.7852245e-05   9.7579432e-05  -2.1574564e-05   1.2600147e-05
   2.2915383e-04  -9.8357472e-05  -8.6157226e-05  -2.5190096e-05  -5.4502347e-04   4.9516326e-04   8.8002373e-05  -9.9094723e-05   4.8095209e-04   1.8626214e-04   3.6709846e-04  -2.7089284e-04   5.3983971e-05   5.3634853e-05  -2.1140090e-04   7.5177988e-05  -4.4288053e-04  -5.4686308e-05  -2.5800779e-04  -4.8392225e-04   7.7866156e-05   1.2132958e-05   5.0840114e-05   6.2102648e-05  -5.8121583e-04  -7.6977609e-05  -1.4097161e-04  -5.5192655e-04   6.7111407e-04  -4.7229169e-04   7.1451665e-05   3.1973462e-04  -1.2330950e-04  -8.3282194e-04   1.3284788e-04  -1.7283481e-04   1.6966235e-04  -4.4949865e-04  -4.6199307e-04  -5.2347063e-04   5.6859830e-05   1.7390316e-04  -2.7812952e-05  -2.5453081e-04   2.2187305e-06  -1.0022693e-04   3.6116653e-06   1.1571361e-04  -7.8521683e-05  -5.9866015e-06
   1.7854325e-04  -8.9906833e-05  -8.3440580e-05  -9.2246109e-06  -9.6335549e-05   2.4108481e-04   6.5924796e-05  -5.0103682e-04   1.3276134e-04   1.6643624e-04   3.4056872e-04  -3.0096434e-04   1.3068988e-04  -1.6147237e-04  -4.6425921e-05  -3.9424671e-05  -3.1409878e-04   1.5715018e-04   2.8267523e-04  -2.8560290e-04   5.9830738e-05  -7.7725585e-05  -4.0120063e-05   4.3435026e-05  -3.3048246e-04  -2.0570598e-04  -3.7797181e-05  -2.3909559e-04  -2.0703234e-04  -3.8283083e-04  -2.9740151e-05   7.8107120e-04  -7.3646013e-05  -3.8932293e-04  -5.1565690e-04  -1.0148765e-04  -3.6511387e-04  -6.8396091e-04  -1.2929525e-04  -4.5225900e-04  -7.4515206e-06   8.7895613e-05  -3.7036228e-04  -1.4031163e-04  -5.6751345e-05   1.0465131e-04  -6.2966355e-05  -2.4653165e-04   1.7023056e-06  -3.3654400e-05
   2.0179787e-04  -1.5197053e-04   5.9651297e-06  -1.7275379e-05  -1.5583662e-04  -4.1621973e-04  -1.6631682e-04  -9.8944409e-05  -2.7671418e-05   1.1993699e-04   2.9701207e-04  -3.6288102e-04   2.5537898e-04  -1.1124693e-04  -1.3146271e-05   1.8154486e-04  -3.3115849e-04   3.0339972e-04   1.9240196e-04  -2.6386022e-04   8.4888154e-05  -2.9125379e-04  -2.1896049e-04   2.4089734e-04  -2.2271532e-04  -1.8733452e-04  -1.9054544e-04  -2.6600625e-04  -6.2668312e-04  -1.8667536e-04   6.3928332e-05   7.5447478e-04   3.8211411e-04   1.4826272e-05  -2.7465951e-04  -2.2164147e-04  -4.2250706e-04  -6.9128338e-04   3.7424259e-05  -1.2416524e-04   2.9445355e-05   2.1841199e-04  -4.4539649e-04  -1.6490709e-04  -3.5450259e-05  -2.1774140e-04  -2.1063590e-05  -6.4505748e-06  -8.0170568e-05  -2.8814518e-04
   4.7883746e-05  -1.3227324e-04  -4.7516252e-05  -3.6767467e-06  -2.2889138e-04  -2.3595784e-04   6.5790620e-05  -9.6127798e-05   2.7620577e-04   1.4008190e-04   2.6267138e-04  -3.4274059e-04   2.8061296e-04  -4.7908947e-05  -2.0578137e-04  -6.9459944e-05  -2.9746542e-04   2.6367075e-04   5.5100118e-05  -3.0482275e-04   6.3938140e-05  -2.0865016e-04   8.1115213e-05   6.8667505e-05  -6.9588190e-05  -1.5311240e-04  -2.5774853e-04  -3.8411905e-04   1.8301399e-03  -3.7166008e-04  -5.2759895e-04   4.7009636e-04  -2.6257511e-04  -5.2356318e-04  -4.4759191e-04  -1.3703402e-04  -6.0555962e-04  -3.7436729e-04   3.9794709e-04  -4.7252318e-04   1.8233270e-04   3.0432630e-04  -2.3431498e-04  -1.3113228e-04   3.9345323e-05  -1.2308883e-04   1.9307186e-05   6.6704531e-05  -3.7068098e-06  -2.7844176e-04
   1.7803277e-04  -1.7324835e-04   3.7360128e-06  -2.1883659e-05  -3.4959245e-04   2.0214111e-04  -2.3111058e-06  -3.2899174e-04   2.6219583e-04   1.4791888e-04   3.3134565e-04  -3.1254676e-04   1.1847117e-04  -3.1423886e-05  -1.1359232e-04  -5.3466880e-05  -5.0401333e-04  -7.6235236e-05   9.3226809e-05  -5.0112477e-04   8.5690292e-05  -1.3046949e-04   9.0424561e-05   1.0862054e-04  -2.9376012e-04  -1.2708743e-04   1.8360626e-05  -6.5322273e-04  -1.0077088e-03  -3.9393781e-04  -5.8758177e-04   1.1495752e-04  -1.4221480e-05  -3.0503824e-04   3.3465959e-04  -1.8777582e-04   3.2676751e-04  -4.8537448e-04  -6.9932407e-06  -5.5960706e-04  -1.6402411e-04   2.1325723e-04  -7.3699579e-05  -2.8129542e-04  -6.7211709e-05  -2.7557433e-04  -9.5270107e-06   1.6861448e-04   3.0946961e-05  -1.6839195e-04
   1.7217598e-04  -1.4740179e-04  -2.2116523e-05  -1.6841470e-06  -3.7959029e-04   4.6745728e-04  -1.3848986e-04  -4.1953957e-04   2.8492606e-04   1.8438410e-04   3.6999266e-04  -2.9593747e-04   5.9396323e-05  -1.0735231e-04  -3.0969360e-04  -2.3661467e-05  -4.6646694e-04   9.0543344e-06   3.2858559e-04  -3.7954713e-04   1.1580083e-04  -1.3632803e-04   4.3139493e-04   1.2931935e-04   9.1322276e-05   6.3010724e-05  -3.0607361e-04  -3.7888758e-04  -5.2514643e-04  -4.3013549e-04  -1.7341290e-04   4.2968689e-04  -3.9636128e-04   4.2184044e-04  -2.1142868e-04  -1.4098559e-04   3.1360480e-04  -3.1885378e-05  -5.6529610e-04  -3.6987854e-04  -2.4299101e-05   1.5015384e-04  -2.7095550e-04  -2.6997371e-04  -5.1347168e-05  -1.3119934e-04  -3.6824553e-05   2.4263440e-04   2.4941020e-05  -3.7324519e-04
   1.9250746e-04  -1.0505523e-04   1.0796558e-06   2.6568860e-05  -2.5936242e-04  -1.2845003e-05  -3.6120644e-05  -6.7340827e-04   2.6387500e-04   1.4800187e-04   3.5770351e-04  -2.7039892e-04   1.0823173e-04   6.0653882e-05  -3.1411820e-04  -1.0387705e-04  -4.6429655e-04   5.1389479e-06   7.1514973e-05  -3.7478859e-04   1.0463996e-04  -3.3722701e-04  -7.3536175e-05   1.9593969e-04  -1.1870029e-04   7.6317061e-05   6.8621077e-05  -8.8226145e-05   2.2120327e-04  -1.1279781e-04  -1.9296077e-04   2.7232952e-04   5.4838209e-05   3.2371911e-04   9.7419317e-05  -1.0983222e-04  -3.8243419e-05  -4.2444619e-04  -1.6655281e-04   4.6106481e-07   3.9238679e-05   3.8909898e-04  -2.5460325e-04  -2.8946932e-04   4.1624233e-05  -9.6433971e-05  -2.4015695e-05   3.6385757e-04  -2.8688764e-05  -6.4641637e-05
   1.6333441e-04  -8.9591536e-05  -1.7414128e-05   1.6568656e-05  -3.4687422e-05  -5.5231055e-04  -6.0582697e-05  -3.8590305e-04   1.1598774e-04   1.5224886e-04   3.2624535e-04  -2.7919779e-04   1.1232423e-04  -4.9616265e-05  -2.1356161e-04  -5.4764379e-05  -4.6707987e-04  -8.9831039e-05   2.9373044e-04  -4.3558032e-04   1.1433267e-04  -6.6296430e-05  -4.8016780e-05  -3.4362496e-05  -4.1558288e-04  -1.1654275e-04  -1.1494205e-05  -5.6262116e-04  -1.4409678e-03  -2.4736248e-04  -9.2308954e-05   1.4540786e-04   1.1538670e-04  -2.5848008e-04  -1.2523534e-04  -2.2649804e-04  -5.7695986e-04  -1.0383587e-03   1.8488997e-04  -6.1990978e-04   9.5981277e-06  -2.4813755e-05  -6.7883440e-05  -4.3199914e-05  -6.2035222e-05  -3.0612465e-04  -9.8926968e-05   2.1589285e-04  -1.5169087e-05   6.1078092e-05
   9.8652767e-05  -1.1858590e-04   2.1290036e-05   3.6141028e-05  -1.9312413e-04   1.1641421e-05  -2.7539791e-04   3.4403373e-04   2.8715882e-04   1.5554599e-04   3.0484464e-04  -3.0333680e-04   5.5483048e-05   5.4703072e-05  -1.0995420e-04   3.6933914e-06  -4.8093137e-04  -7.8018231e-05   1.4227942e-04  -4.4900409e-04   1.0013405e-04  -1.1283174e-04   2.3780472e-04   1.5165524e-04  -2.6703571e-04  -1.2047872e-04  -1.8154237e-04  -1.0224187e-04  -7.3512737e-04  -3.7659399e-04   1.9103642e-04   2.8241499e-04   4.8649771e-04   2.3058595e-04  -5.0906395e-04  -2.6378885e-04   4.3473733e-04  -3.2259666e-04   7.3399882e-05  -3.3625704e-04   3.8985323e-05   1.7761120e-04  -2.0806601e-04  -4.6850499e-05  -2.6808593e-05   4.1841959e-06  -1.4989456e-04   2.3686139e-04   3.9381659e-05  -4.8565413e-05
   8.1996470e-05  -8.9822279e-05   3.1831438e-05   5.6171175e-05  -3.0693950e-04   1.2150621e-04   4.7212261e-06  -8.8203626e-05   2.4021057e-04   1.5429313e-04   3.0750522e-04  -2.7851286e-04   1.4478812e-04   5.4028074e-05  -2.8066602e-04   5.6989073e-05  -4.4649601e-04   2.4810824e-06   1.6602685e-04  -3.7708727e-04   8.2237078e-05  -4.0880750e-05   1.9443958e-04  -1.8085466e-05  -1.1565061e-04  -8.9371752e-05   3.2074799e-04  -7.1666473e-05  -2.5316523e-04  -2.8657939e-04   4.5682889e-05   3.8646866e-04  -3.1977226e-05  -7.1686154e-05  -6.7599869e-04  -5.2696928e-06   1.4200293e-04  -7.2579831e-04  -2.5361331e-04  -7.8792521e-04   7.2150619e-06   1.7173388e-05  -2.2108929e-04  -2.5311782e-04   3.6554527e-05  -6.3661544e-05  -6.1286904e-05   2.0714616e-04   9.8735363e-06   1.9791654e-04
   1.7089049e-04  -1.4019484e-04   5.1112220e-05   6.4833795e-05  -2.1573211e-04   1.7773701e-04   8.3297426e-05  -3.0478672e-04   2.6091636e-04   2.0858539e-04   3.0357129e-04  -3.2068256e-04   5.4582470e-05  -2.9897760e-04  -4.5932524e-04  -1.9662161e-04  -4.5193330e-04   4.9219441e-05  -2.5099335e-04  -4.4870676e-04   9.9480734e-05  -5.8613510e-05   1.1715794e-04   7.3073102e-07   1.3713606e-04  -7.6500815e-05  -1.2873395e-04  -1.3947654e-04  -2.1746321e-04  -2.6099244e-04  -5.0546427e-04   3.5641581e-04  -7.6402219e-05  -2.9156759e-04  -4.7896858e-05  -2.1437278e-04   2.4149595e-04  -3.2443914e-04  -7.0406662e-05  -5.3763099e-04  -8.7303735e-05  -2.2040389e-05  -1.1738754e-04  -1.0657853e-04  -1.5127387e-04  -5.2512792e-04  -5.8334146e-05   4.7136415e-05  -2.4425495e-05  -1.9246330e-04
   1.8994001e-04  -9.4686569e-05   1.8023282e-05   6.6733475e-05  -1.5920748e-04   4.6214122e-05  -7.4446660e-05  -4.7821182e-04  -5.6050194e-05   1.7089555e-04   3.3373959e-04  -2.8853933e-04   2.0098982e-05  -1.9318637e-04  -3.6106660e-04  -1.4401470e-04  -5.5146083e-04  -6.0560542e-05  -6.6670917e-05  -5.3042552e-04   1.1874507e-04  -3.0916545e-04   1.4630097e-04   7.9803212e-05  -1.8531615e-04  -7.8377372e-05  -7.0718554e-05  -4.4069046e-04   5.2292645e-04  -4.3563489e-04  -3.6814850e-04   3.0808896e-04  -1.8477533e-04   1.2201766e-04  -4.9376528e-04  -1.1048701e-05  -2.7238743e-04   2.7514227e-05   6.5263746e-05  -3.9875048e-04  -5.4487096e-05   3.2483571e-05  -6.9563795e-04  -2.8537906e-04  -6.5097178e-05   6.5276094e-05  -2.7084263e-05  -1.3429942e-04  -7.0031347e-05  -1.7607659e-05
   3.1259522e-04  -1.4152919e-04  -3.0344325e-05   6.2144034e-05  -3.9320457e-04   4.4041542e-05  -1.4539181e-04   7.5402226e-05   7.1789604e-05   1.5262634e-04   3.5202320e-04  -2.4605935e-04   3.5870613e-05  -1.3966647e-04  -1.8380155e-04  -3.1352050e-05  -5.3368823e-04   5.9680656e-06   5.6890363e-04  -5.4282555e-04   1.2609130e-04  -1.4940415e-04  -2.4492474e-05  -1.3416434e-04  -4.7798059e-04  -6.5907830e-06  -4.0978219e-04  -8.7179251e-05   9.2172524e-04  -1.9737327e-04   2.4784563e-04   4.3663968e-04  -9.4212201e-06  -2.0854839e-04   2.0191772e-04   3.4335324e-05  -6.6219567e-05  -4.5359699e-05  -3.7390058e-04  -5.3371396e-04  -6.5755936e-05   1.1806106e-04  -4.7085609e-04  -9.3605588e-05   5.9482933e-05   3.3323780e-05   3.9777176e-05  -3.6703161e-05  -4.2992298e-05  -1.3556372e-04
   2.5257512e-04  -8.1750622e-05   4.1815474e-05   6.2018902e-05  -3.1051823e-04   1.2257129e-04  -2.8755047e-05  -3.4673684e-04   1.8374326e-04   2.4065221e-04   3.5874706e-04  -2.3413613e-04   2.5292111e-05   4.5525325e-05  -3.2290485e-04  -7.3404663e-05  -5.3216284e-04   2.9244316e-05   7.2234478e-05  -5.9450441e-04   1.2628136e-04  -2.4543211e-04   2.7621718e-05  -4.9971230e-05  -1.0500753e-04   1.8278726e-05  -2.2662125e-04  -9.7501892e-05  -6.6514162e-04  -4.2432535e-04  -4.4006959e-04   4.4096838e-04  -1.0310318e-05  -8.0225233e-05   5.3952099e-04  -1.8093208e-04  -1.8442144e-04  -8.5030537e-05   9.6330099e-05  -7.2967273e-04  -1.0329143e-04  -3.7753002e-06  -1.7251039e-04  -8.2894840e-05   6.1911676e-05  -3.3487109e-04   8.4516840e-05  -1.1188692e-04  -6.2516607e-05  -2.1662629e-05
   1.0380734e-04  -5.4940261e-05   2.4521243e-05   4.1485357e-05  -3.0628525e-04  -1.3301830e-04  -6.9996036e-05  -1.8181701e-04   2.4270495e-04   1.8230514e-04   3.4540388e-04  -2.1672597e-04   2.2986236e-05  -6.4986474e-05  -1.3879690e-04  -1.7219993e-04  -4.9396104e-04   1.8288842e-05  -1.9064955e-04  -5.6119822e-04   1.1021594e-04  -2.5492703e-04  -1.0496977e-04   6.5237604e-05  -8.0460683e-05  -1.0577186e-04   1.8859514e-04  -2.5557092e-04   1.1792403e-04  -2.1396998e-04  -5.0274113e-05   4.2708404e-04  -4.2023436e-05  -4.1434480e-04  -3.4981323e-04  -5.2730200e-05   1.0640294e-04  -7.0487201e-04  -4.4748557e-04  -5.9571204e-04   8.2412633e-05   2.1484263e-04  -4.4340000e-04  -4.0456474e-05  -6.4233638e-05  -2.8326840e-04   1.5604297e-05   1.0123109e-04  -7.3482392e-05  -1.0004871e-04
   8.0785336e-05  -8.4856845e-05   1.7654427e-05   3.2743108e-05  -3.0027743e-04  -6.9565605e-05  -1.1152520e-05  -2.9399732e-04   1.4490519e-06   1.8892884e-04   3.1390658e-04  -2.6488386e-04   5.3107720e-05  -2.2333872e-06  -4.7197100e-04   7.2622628e-05  -4.5747112e-04   1.0396797e-04  -1.7567383e-05  -4.5148534e-04   8.1977712e-05  -2.6056753e-04  -2.1810547e-04  -6.5597505e-06  -4.0259147e-05  -4.9527538e-05  -3.2976364e-05  -3.4157204e-04   3.8945593e-04  -3.3636770e-04  -2.9179751e-04   5.4140214e-04  -2.8590456e-04   1.8833726e-04   1.8398307e-04  -3.4955145e-05   3.0199168e-04  -1.0647201e-04  -1.9100910e-06  -5.4296548e-04  -1.4076897e-04   7.0575543e-06  -7.4551033e-04  -3.2614099e-04  -7.0226611e-06  -3.9463566e-04   2.9368099e-05   8.6069404e-06   7.5266985e-06   2.5478897e-05
   2.6461874e-05  -1.1325223e-04   2.1575535e-05   3.8380287e-05  -3.3139688e-04   2.8017917e-04  -1.6534988e-04   4.3096345e-05   2.1169381e-04   1.7521791e-04   3.3164531e-04  -2.4596139e-04   1.6024428e-04  -1.0936667e-04  -1.4295449e-04  -1.2222237e-05  -4.9591920e-04   1.3772267e-04  -5.1294704e-04  -4.8060683e-04   9.6175405e-05  -2.0280806e-04  -1.8368263e-04   1.2132902e-04   1.2948606e-04  -1.1760880e-04  -2.2541168e-04  -2.9799138e-04  -1.0540982e-03  -2.7829548e-04   5.5840489e-04   5.1434408e-04  -1.3646852e-04  -6.4021733e-06  -4.0347961e-05  -1.1079390e-04   3.6693990e-04  -4.9429765e-04   3.7908463e-05  -1.3098752e-04  -4.8792546e-05   1.9623881e-04  -3.9608308e-04  -1.2025652e-04  -1.6521088e-04  -1.9814626e-04   4.5021952e-05   5.4164243e-06  -5.8588601e-05  -8.2062674e-05
   1.6463111e-04  -7.8987265e-05   4.9693605e-05   6.7330497e-05  -2.7469025e-04   2.2035360e-04  -1.8748025e-04  -3.0047219e-04   1.9227355e-04   1.8059500e-04   3.2633211e-04  -2.0854513e-04   6.2251624e-05  -8.9879366e-05  -2.8948372e-04  -2.2808096e-04  -5.1918399e-04   7.1854141e-05   5.5521130e-05  -5.5393070e-04   9.1848044e-05  -1.2124483e-04  -8.6906795e-05   4.4858698e-05   1.1320523e-04  -4.5497221e-05  -1.9352265e-04  -4.7225301e-05  -4.4043126e-04  -1.8963381e-04  -2.6047206e-04   4.0814327e-04   2.9011784e-04   4.4992983e-05  -1.6048585e-05   7.3038747e-05  -1.8919935e-04  -1.0040789e-04   1.6161807e-04  -5.2784009e-05  -1.2544452e-04   6.4505271e-05  -4.9414911e-04  -1.5884914e-04   1.5955111e-04  -1.5856158e-04   2.9750681e-05   9.3285264e-05  -1.0618225e-04  -3.1024590e-04
   1.2298129e-04  -7.3360388e-05   4.2317442e-05   1.1678834e-04  -2.6024933e-04  -5.4806027e-05   1.9126962e-04  -5.5218092e-04   2.1565956e-04   1.9858085e-04   3.4370564e-04  -2.0073722e-04   5.2348882e-05  -6.1302577e-05  -4.4710367e-04  -1.3902815e-04  -5.3141807e-04   2.5464467e-05   2.5033526e-04  -5.0290115e-04   8.7250832e-05  -1.5059375e-04   1.9859830e-04  -3.4714485e-05  -3.1115062e-04  -7.2582319e-05  -3.5063617e-04  -3.1420760e-04   5.9266953e-04  -2.4654166e-04  -5.1720166e-05   4.1287972e-04   6.5437765e-05  -4.8155550e-04   7.5499265e-05   1.6843599e-04  -9.9609613e-05   1.4307302e-04   1.7488559e-04  -5.9384340e-04   5.9278473e-06   1.2699678e-04  -5.4096291e-04  -7.3025811e-05   1.2175005e-04   1.6958727e-05   4.8018451e-06   2.2335984e-04  -1.0645045e-05  -1.5158637e-04
   1.4980356e-04  -6.1146595e-05   2.2560067e-05   7.3687486e-05  -2.7000072e-04   3.6945770e-04  -2.0434341e-04  -2.6489591e-04   1.7940065e-04   2.0495641e-04   3.6506305e-04  -1.6856020e-04   6.3399923e-05   9.0380026e-06  -4.6125897e-05  -1.7352065e-06  -4.6199062e-04   5.7844194e-05   8.8363915e-05  -5.6294410e-04   8.2298240e-05  -2.3511876e-04  -8.3092797e-05   1.1488837e-04  -5.6608460e-06  -4.5775483e-05   2.2703510e-04  -1.8979263e-04   1.3102208e-04  -1.9665011e-04  -6.4766908e-04   4.2116171e-04   4.8978673e-05   4.7172140e-04   5.3841143e-04   2.1660511e-04  -1.4557435e-04  -3.2494916e-04   2.2255701e-04  -1.3128662e-05   7.0725058e-05   2.1720269e-04  -4.4382946e-04  -1.4965638e-04  -4.1146188e-05  -2.2582355e-04   9.7983779e-05   1.2613743e-04  -5.5529857e-05  -2.0821730e-04
   2.1122770e-04  -1.0331532e-04  -1.8005430e-05   9.1777736e-05  -4.9074844e-04   4.8563923e-04  -1.3815171e-04  -1.3477166e-04   2.3426568e-04   2.0394556e-04   3.6134629e-04  -1.2974456e-04  -5.7043777e-05   2.6399018e-06  -3.8185573e-04  -1.3494689e-04  -5.3694891e-04   4.9931863e-05   1.8230373e-04  -5.8891805e-04   9.5663505e-05  -2.4974105e-04   3.2104275e-05   5.1413292e-05  -7.6837881e-05   3.3292992e-05   1.1946221e-05  -1.5290243e-04  -5.4266802e-05  -3.0629168e-04  -2.4945301e-04   4.2738998e-04   1.8346695e-04  -2.6257843e-04   3.1725306e-04   3.6926529e-05  -2.8953576e-04  -5.2372849e-05   4.1899318e-04  -1.7678308e-04   3.2735068e-05   2.9818008e-05  -3.8957305e-04   5.2732762e-06  -1.6545680e-05  -3.0984532e-04   9.9246798e-05   2.2777932e-04  -1.3031528e-04  -3.3841253e-04
   1.3672524e-04  -7.4845433e-05  -9.4647239e-06   4.8725207e-05  -2.7165201e-04  -5.4137822e-04   6.5446075e-05  -2.8333026e-05   3.1290670e-05   2.0629686e-04   3.3489621e-04  -1.5813128e-04   1.0799583e-04  -1.2094087e-04  -2.9151232e-04  -2.0358393e-05  -5.1763956e-04   7.2539959e-05   3.5394219e-04  -4.7842311e-04   8.6859451e-05  -3.0817513e-04   1.1649809e-04   1.0778985e-04   9.1587499e-06  -2.2801632e-05  -1.5892506e-04  -2.0110029e-04   1.2956144e-03  -5.1503779e-05  -6.3518068e-04   3.7857288e-04   1.7255215e-05  -4.6434754e-04   4.6455571e-05  -1.4568819e-04  -5.6956086e-04  -1.7670087e-04  -9.4264069e-05  -6.1393611e-04   4.7118407e-05   5.2092664e-06  -3.0148946e-04  -2.7858896e-05   6.2808526e-06  -5.6133972e-04   6.5820313e-05  -1.8006416e-05  -5.9932376e-05  -3.4554815e-04
   9.2295813e-05  -5.9299418e-05  -1.6595659e-05   8.6566884e-05  -4.1586411e-04  -9.9735713e-05  -8.0939630e-05  -1.1398429e-05   4.0395814e-04   1.7394494e-04   3.8036448e-04  -1.2042503e-04   8.4226660e-05   9.9202822e-05  -4.1449053e-04   8.2746636e-05  -4.9125258e-04   7.7976394e-05  -4.6229825e-04  -5.2933785e-04   9.4752701e-05  -3.0104551e-04  -6.0979841e-05   5.5336051e-05   4.0479208e-06  -1.3280573e-04   1.5652287e-04  -1.9335966e-04  -3.3205783e-05  -1.3630775e-04  -2.3733990e-04   3.6471130e-04  -1.8221403e-04   2.0249828e-04  -4.4833920e-05  -2.2755291e-04   4.3890686e-04   2.9750488e-04   1.1621790e-04  -2.0282596e-04   1.1071983e-04  -1.9603458e-05  -4.7186200e-04   4.9696842e-05   3.9700801e-05  -3.5956307e-04   3.9506060e-05   1.3903889e-04  -7.8855977e-05  -2.2240514e-04
   1.8542355e-04  -5.1460094e-05  -4.3519849e-05   7.2624061e-05  -1.7887965e-04   4.4135860e-04  -4.9008202e-05   2.8250404e-04   3.4980616e-04   1.6308916e-04   3.9041002e-04  -8.9767607e-05   2.4117064e-05  -3.2080381e-04  -3.9011924e-04  -2.2573385e-04  -5.8643246e-04  -4.6684486e-06  -4.5711178e-05  -5.3145888e-04   9.6442724e-05  -1.7828433e-04   2.2853649e-04  -1.9422356e-05  -4.2757735e-04   3.4718021e-05  -5.7260558e-04  -1.6742454e-04   5.6873285e-04  -2.2501893e-04  -4.4211690e-04   3.2580807e-04   1.1552752e-04   1.9590369e-04  -1.9318024e-04   1.4405359e-05  -2.8202910e-04   2.0852171e-04   4.3550512e-04  -1.3485822e-04   9.1950562e-05   1.7591561e-04  -2.7596913e-04  -7.1033093e-05  -2.1140129e-04  -3.5322827e-04   2.4008885e-05   2.3742954e-04   4.9178467e-05  -2.0168193e-04
   1.3963673e-04  -6.2235144e-05  -3.2386743e-05   1.3973021e-04  -2.0318880e-04   1.1497100e-04  -3.6707755e-05   4.4696729e-04   3.7043093e-04   2.3132448e-04   3.8666825e-04  -1.2203734e-04   5.5698325e-05   8.1191822e-05  -2.8687759e-04  -4.7104691e-05  -4.8199564e-04  -2.2395017e-05  -1.4170333e-04  -4.0586121e-04   3.3917269e-05  -2.1687183e-04   1.9506844e-05   1.2953860e-04  -3.6617526e-04   4.2595908e-05   8.5700151e-05  -5.1273080e-05  -1.4693063e-04  -3.5510908e-04  -2.9566375e-04  -2.4855817e-05  -2.0541028e-04  -1.3349124e-04  -5.4543413e-04   8.5190404e-05  -2.1639944e-04  -1.9290560e-04   3.7869604e-04  -3.3903911e-04  -9.6494805e-05   1.3542270e-04  -3.9849366e-04   1.4462025e-04  -1.0466434e-04  -3.7848082e-04  -9.5378491e-05  -1.7865856e-06  -8.4107298e-05  -1.2934019e-04
  -3.8149833e-06  -8.9971290e-05  -5.8447349e-05   1.6834492e-04  -3.3298804e-04  -2.1529868e-05   9.1012116e-05   1.9270141e-04   2.9250764e-04   1.3317619e-04   3.6376549e-04  -7.7703749e-05   1.1447841e-06  -5.4451262e-05  -3.4972446e-04  -1.0695680e-04  -4.3004163e-04  -1.6557149e-04   2.3122460e-05  -3.7402342e-04   1.0890782e-05  -4.0011517e-05   3.2858882e-04   7.1457107e-05  -4.8739137e-04   1.8663834e-05  -1.2957194e-04  -5.7381537e-04   6.1239133e-04  -2.2901937e-04  -3.4456310e-04  -1.0582034e-04  -3.7800989e-04  -2.1437967e-04  -1.0611287e-04   7.5349133e-05  -4.0518269e-05   2.6062457e-04  -6.1949875e-05  -1.2943755e-04   1.3579107e-04   3.9635452e-05  -1.4676389e-04  -3.9438961e-05   1.1683033e-04  -2.3609740e-04  -1.2166989e-04  -8.6306027e-05  -5.9407801e-05  -1.6501140e-04
   3.9648046e-05  -1.1844259e-04  -5.9222046e-05   1.3948693e-04  -3.3377868e-04  -6.8198220e-05  -6.1872895e-05   2.0734922e-04   3.4845763e-04   6.5539418e-05   3.3091562e-04  -6.7840236e-05   3.6966835e-06   6.4168911e-05  -5.0012191e-04  -1.2081711e-04  -4.8326733e-04  -1.7653097e-04  -2.5618958e-04  -4.0501659e-04   3.5113764e-05  -4.8859954e-05   3.3706299e-04  -1.2163903e-05  -3.0858297e-04   1.0388863e-05  -6.7433430e-05  -1.4969561e-04  -1.0090182e-03  -1.7454654e-04  -4.4141524e-04  -1.5027057e-04  -2.2818991e-04  -1.0463510e-04  -5.2260089e-04  -4.5639518e-07  -1.7278384e-04   2.0981707e-04   2.9087311e-04  -4.1669945e-04   1.6020839e-04   5.5908207e-05  -1.2191042e-04  -4.3410309e-05   8.9821806e-05  -1.6917025e-04  -8.3606683e-05   1.8834289e-04  -8.9457579e-05  -3.0548818e-04
   1.6020470e-04  -6.6042419e-05  -3.5340239e-05   1.5641979e-04  -4.2823164e-04   1.6800364e-04   5.4447741e-05  -3.2366480e-04   5.7963893e-04   9.2800088e-05   3.6029509e-04  -3.8182228e-05   1.7750432e-05  -2.4154046e-05  -5.1721680e-04  -3.0400537e-04  -4.7452605e-04  -2.1326209e-04  -5.5361023e-05  -4.3720694e-04   4.2984782e-05  -6.1648127e-05   3.5532395e-04   2.3521588e-04  -4.1214647e-04  -4.0076766e-06   2.3234143e-06  -3.5921758e-04   9.7498771e-05  -2.2784447e-04   4.7725701e-04  -1.5148350e-04  -3.4396633e-04   3.6889905e-04  -1.0308110e-04   2.7443377e-05   2.1247155e-04   3.2171363e-04  -9.2165620e-04  -4.7792852e-04   8.7116088e-05   1.8981828e-04  -4.2803722e-04   1.3584444e-04  -1.1737447e-04  -2.9626873e-04  -1.2349738e-04   1.5989006e-04  -9.4790397e-05  -1.4465823e-04
   1.6212980e-04  -4.8677128e-05  -5.4305987e-05   1.4657146e-04  -3.8363712e-04   1.6681991e-04  -2.6526832e-04   2.9190033e-04   4.4707939e-04   8.2196711e-05   3.9350759e-04  -1.5063119e-05   1.1106926e-05  -1.8384334e-04  -5.4020318e-04  -6.3298459e-05  -4.6295067e-04  -1.4468862e-04   3.6859469e-04  -3.9524215e-04   7.0159782e-05  -1.3539068e-04   2.8314124e-04   7.5186355e-05  -3.7751324e-04   1.3160543e-05   8.6634158e-05  -9.4145136e-05  -5.6304329e-04  -3.7447340e-04   1.4268416e-04  -3.8828814e-05  -2.4647091e-04  -1.1327224e-04   1.9313861e-04   1.1522273e-04  -1.8730934e-04   7.2267547e-04  -2.8537179e-04  -3.9486907e-04   4.1418658e-05   1.3153064e-04  -3.7812861e-04   2.0458181e-05  -2.6536880e-05  -4.9637159e-04  -4.2462561e-05   4.8405516e-05  -1.1626685e-04  -4.2023643e-05
   1.1253523e-04  -2.6322003e-05  -5.2051113e-05   1.7760410e-04  -3.2392028e-04   2.8972780e-05   1.4901915e-04  -2.6767829e-04   3.7257216e-04   1.2200650e-04   4.3529540e-04  -1.3818038e-05   1.6729577e-05  -4.6181041e-05  -2.2209111e-04  -1.4796031e-04  -3.9159556e-04  -1.6313423e-04   7.1175775e-05  -3.5796894e-04   7.7234698e-05  -9.9685109e-05   3.9977572e-04   1.2571378e-04  -3.1249408e-04   7.2614057e-05   1.5357765e-06  -2.3817753e-04  -3.1966731e-04  -3.4215793e-04   1.3560342e-04  -1.2178859e-04  -2.5410107e-05  -1.8155841e-04   3.3862900e-04   2.3631299e-05  -5.7920034e-04   2.9518516e-04   1.1740126e-05  -6.5704819e-04   1.6723698e-04   1.6586873e-04  -6.8428519e-05  -5.8686335e-05   1.9995594e-05  -1.6377693e-04  -6.6061919e-05  -1.5577082e-07  -5.1689454e-05  -2.3418772e-05
   2.2360780e-04  -5.6879044e-06  -8.3412436e-07   1.9643831e-04  -2.0461819e-04   1.2328339e-04  -5.0033777e-05   2.5080654e-04   3.9865047e-04   9.6152100e-05   4.2792229e-04  -7.3724455e-05   2.3240702e-05  -1.8934301e-05  -2.4879814e-04  -1.6322454e-04  -4.0085826e-04  -1.4377852e-04   2.6682133e-04  -3.5996721e-04   8.3838138e-05   1.7828750e-05   4.7164521e-04   1.0356699e-04  -1.6543042e-04   2.2834345e-05  -1.7173743e-04  -1.2095396e-04   1.4595051e-03  -3.3131844e-04  -2.1953274e-04  -8.8920526e-05   5.6372123e-04   4.6641350e-04   2.8828974e-04  -8.7557455e-05  -8.1187428e-04  -1.8446187e-04  -1.2421320e-04   3.4456429e-05   7.2107854e-05   2.3485234e-04  -2.6718256e-04   5.6548011e-05  -2.9615352e-05  -1.0435205e-04  -6.9536654e-05   8.6588425e-06  -5.1647461e-05  -3.6722241e-04
   1.7634651e-04  -4.5500910e-05  -4.1191273e-05   1.3581183e-04  -1.3971061e-04   4.8839266e-04   7.3650175e-05   6.3383894e-04   2.5507371e-04   8.8646651e-05   3.8385441e-04  -3.7850474e-05   2.5853555e-05   1.0327211e-05  -5.3501211e-04  -5.4911587e-05  -4.4828447e-04  -5.8990281e-05   4.1386756e-05  -3.8868899e-04   8.4821695e-05  -1.1118643e-05   2.5636924e-04   1.2248727e-04  -8.3118146e-05   1.6975102e-04  -6.3280546e-05  -2.4483513e-04   3.3680705e-04   2.0734049e-04   4.0949500e-04  -1.2886063e-04  -1.2790317e-04  -1.5034619e-05   2.9819264e-04   9.5998214e-05  -1.5340233e-04   6.5446587e-04  -3.0513672e-04  -2.5425132e-04   3.4868957e-05   2.9469034e-04  -2.8129722e-04   1.0871810e-04   1.0601684e-04  -4.6124111e-04  -4.2451364e-05   2.0785180e-04  -3.7964703e-05  -1.7004690e-04
   2.2489480e-04  -4.8549709e-06  -4.6175082e-05   1.5769784e-04  -3.0652137e-04   2.1447337e-04   8.5880769e-05  -1.0696211e-04   2.8560893e-04   1.0979146e-04   4.3129371e-04  -4.8946851e-05   6.1628023e-05   3.8675917e-05  -2.0586822e-05  -1.6570071e-04  -4.4733865e-04  -1.4988199e-04   3.3568506e-04  -3.6111145e-04   1.1611199e-04  -4.8538037e-05  -4.4479653e-05   1.9201917e-04  -3.6602555e-04   6.0564456e-05  -1.0158609e-04  -3.5833640e-04   1.1072786e-03   1.0762737e-05   5.4120040e-04  -1.8529939e-04  -8.0123071e-05   2.6609545e-04   6.2780025e-05   1.6377881e-04  -5.9094024e-04  -6.7294022e-05   1.8387048e-04  -6.0172374e-06  -2.2610748e-05   1.8041972e-04  -2.3597172e-04  -1.5813454e-04   1.4644813e-04  -3.7499215e-04  -2.0138006e-05   4.3636066e-04   1.5090724e-05  -3.0033482e-04
   1.3763655e-04   3.9648789e-05  -5.6789704e-06   1.7975429e-04  -2.1322480e-04   2.9816109e-04   3.4621380e-06   9.4664347e-04   5.7785452e-04   9.1666894e-05   4.5814167e-04  -2.6914848e-05   6.4718108e-05   1.2008445e-04  -3.8171400e-04  -4.5119403e-05  -3.7725808e-04  -1.0452177e-04   1.0080372e-04  -3.4832061e-04   1.3924863e-04  -1.2820865e-05   4.6206298e-04   1.5099405e-04   1.2571893e-04   1.8874083e-04  -2.4964675e-04   8.3396899e-06   9.6040964e-04  -1.6605532e-04   2.0338118e-04  -1.6759873e-04  -3.0082599e-06  -2.8273002e-05   3.1124044e-04  -2.5088733e-05  -1.0106442e-04   4.5769048e-04   3.5371914e-04  -1.5499620e-04   1.6126920e-04   1.9260963e-04  -4.5381541e-05   2.1321759e-05  -3.3947628e-05  -2.4728724e-05   5.0274343e-06   3.0981543e-04   1.1074341e-05  -2.5563926e-04
   2.1547647e-04   1.3380963e-05   4.2279509e-05   2.1662629e-04  -3.4178243e-04   3.5894022e-04   5.5223700e-05   2.0005931e-04   3.8628813e-04   9.7287608e-05   4.3268365e-04  -2.2722596e-05   3.4140499e-05   1.8418934e-04  -4.0860928e-04  -1.3458550e-04  -4.1832952e-04  -1.2078246e-04  -2.0500156e-04  -3.7649280e-04   1.6263375e-04  -8.9141991e-05   1.2867131e-04   1.7945618e-04  -2.6390946e-04   1.5603808e-04   4.1095307e-04  -4.2583277e-05   1.0574185e-04  -2.2463909e-04  -7.3924050e-05  -6.8885791e-05   2.2093968e-04   7.2530944e-05  -2.6315363e-04   9.4309245e-05  -1.6846368e-04  -1.3779099e-04   5.7765224e-04  -1.1377628e-04   8.7198088e-05   2.8344113e-04  -2.1279593e-04   1.1319284e-04   4.1021023e-05  -3.1693137e-04  -2.9362154e-05   1.6719346e-04  -5.3902186e-05  -2.2878875e-04
   2.5181696e-04   6.3260748e-05   8.2101535e-05   2.1517872e-04  -2.6843417e-04   4.3266072e-04   1.3391594e-04   3.0681191e-04   4.4648928e-04   1.2944272e-04   4.4704476e-04  -6.5478393e-06  -6.7136798e-06   3.1571026e-04  -4.3559042e-04  -3.3076602e-05  -4.0998028e-04  -1.2857925e-04   2.4179222e-05  -3.7175012e-04   1.7451638e-04   4.4107015e-05   3.9774238e-04   1.2702985e-04  -4.5333680e-05   2.0518090e-04   1.5179496e-04  -5.5700537e-05   7.0028158e-04  -3.8384181e-04   6.2796957e-04  -1.1401922e-04   1.1673666e-04   1.7224396e-04   1.9633149e-04   2.3781899e-05   1.0710389e-04   5.1186339e-04   3.3063657e-04  -6.6204957e-04   3.5030727e-04   1.3239404e-04  -3.5506245e-04  -6.3508902e-05   1.7306117e-04  -2.6048816e-04   8.5386228e-06   3.0599380e-04  -7.2704584e-05  -3.7185313e-05
   2.3674189e-04   2.2546481e-05   5.5183300e-05   2.3785324e-04  -2.8978265e-04   4.6206077e-04   2.1314307e-04   4.9516710e-04   5.8468408e-04   1.5862036e-04   4.8291119e-04  -1.9996585e-05   5.3437314e-05   2.0228142e-04  -2.2515800e-04  -8.0737533e-05  -4.4335562e-04  -1.1467270e-04   5.3939840e-04  -3.7784863e-04   1.7354937e-04   1.1701710e-04   3.5293784e-04   3.1343653e-04  -1.4864553e-04   9.5224925e-05  -3.1475858e-05  -8.8525296e-05  -3.0196289e-04   6.1837909e-07  -4.1311112e-04  -5.7207213e-05   1.5031401e-04   2.5366462e-04   1.6367769e-04   1.6658341e-05   8.5543172e-05  -2.0695760e-04  -3.1636507e-04  -2.1808062e-05   3.7731261e-05   4.2333358e-04  -2.8577508e-04  -3.2223099e-05   1.8234925e-05  -2.8308545e-04   5.3129294e-05   3.2218773e-04  -2.3936987e-05  -1.4533446e-04
   2.1411035e-04   1.0583589e-04   4.6378071e-05   2.4324752e-04  -3.8527211e-04   4.2908883e-04   5.4783035e-05   5.7563413e-04   5.0866033e-04   1.2362338e-04   4.4768001e-04  -8.4317699e-06   5.0266917e-05   7.3859723e-05  -3.7688264e-04   2.8756580e-05  -5.0109788e-04   1.1825699e-05   3.4971838e-04  -4.0041876e-04   1.8330602e-04  -2.7448591e-06   1.5941184e-04   1.9593356e-04   1.5824288e-04   1.5938072e-04  -2.1889075e-04  -9.4058618e-05  -6.5695518e-04  -1.5703937e-04   3.2103638e-04   2.7804947e-04  -1.1518922e-04   2.1431681e-04  -5.1493000e-04  -6.5179032e-05   4.2003582e-04   5.1789888e-04  -1.2515015e-04  -1.0840674e-04  -1.7232439e-06   2.2149633e-04  -2.0236516e-04   8.1593271e-06   6.9841990e-05  -2.8639147e-04   4.0903309e-05   2.8788485e-05  -7.7531826e-05  -2.4478632e-04
   2.0435784e-04   1.0474079e-04   6.0706327e-05   2.4158083e-04  -9.7922712e-05   2.1297709e-04  -2.1168691e-05   4.6137936e-04   4.3392810e-04   9.6216965e-05   4.6355493e-04   1.2609182e-05   1.6035998e-05   2.2230283e-04  -5.9489248e-04   8.4893363e-06  -4.6067126e-04   1.0072361e-04   2.5364215e-04  -3.9042489e-04   2.0921964e-04   5.3866661e-06   1.7419083e-04   1.2145003e-04  -1.7062892e-04   1.9648674e-05  -4.1882147e-05  -2.5238009e-04   1.3050677e-03  -6.7683752e-05   3.8947089e-04   4.3139377e-04   1.2214640e-04  -1.6699347e-04  -7.7237433e-05   7.9916310e-05  -5.0072072e-07  -3.3531801e-04  -5.3087766e-05  -1.6211467e-04  -1.3512703e-05   3.0797007e-04  -2.8753666e-05   2.2879361e-04   9.0548638e-05   1.6854073e-04   2.6987445e-05   1.6980102e-05  -6.9861497e-05  -1.3059165e-04
   2.9906569e-04   5.9322290e-05   3.4236091e-05   2.2223452e-04  -2.8777707e-04   2.0551370e-04   1.1037200e-04   2.7592934e-04   6.1881478e-04   8.8739645e-05   4.8010226e-04   4.2517608e-05   9.2741038e-06   7.4152340e-05  -9.0033456e-05   8.2815659e-06  -4.5181203e-04   1.5020551e-04   2.9854686e-04  -3.8209205e-04   2.1736884e-04  -1.0714000e-04   1.8745549e-04   2.8294386e-04   6.7844790e-05   4.6886114e-05   5.4581993e-04  -1.3063499e-04   1.4089840e-04  -5.7340844e-04   1.5548662e-04   4.1655262e-04   9.0065674e-05   3.2391652e-04   4.4707919e-04   7.1864408e-05   5.8445340e-04   1.7043784e-04   7.3412572e-05  -2.0968365e-04  -1.0223543e-04   2.4632449e-04  -3.3744497e-04  -8.1200640e-05   3.9518214e-05  -7.9416124e-05   1.5916796e-04   2.6030233e-04  -1.1257021e-04  -1.0809600e-04
   3.4527128e-04   1.2214636e-04   1.2450278e-04   2.5252259e-04  -2.9082366e-04   1.4734217e-04   1.3045354e-04   7.6151569e-04   5.6512142e-04   1.5386280e-05   5.0412811e-04   6.8670975e-05   2.0089119e-05   1.4907451e-04   2.7823073e-04   3.4628547e-06  -4.4902542e-04   5.5773056e-05  -1.0000057e-04  -4.2881811e-04   2.0373326e-04   1.1329309e-04   1.2860827e-04   1.5250393e-04  -1.1778162e-04   2.8555231e-05   1.4553292e-04   1.9574049e-04   1.5147331e-03  -2.4635630e-04  -1.2176087e-04   4.3397499e-04   6.1456856e-05  -1.0340482e-05   3.6670687e-04   3.5717723e-05  -2.3501011e-04   1.8183995e-04   1.4590737e-04  -1.1735292e-04   9.7867007e-05   8.6051157e-05  -3.9792297e-04  -2.3307995e-05   1.0918034e-04  -2.9861621e-04   1.5204116e-04   3.5334562e-04  -1.2673884e-04  -1.5196067e-04
   2.6354831e-04   6.9108610e-05   6.3106942e-05   2.8653105e-04  -1.4658114e-05   3.5314439e-04  -6.0692029e-05  -4.3177544e-05   2.6193418e-04  -1.3471267e-05   4.7727695e-04   6.6815621e-05   3.8039267e-05  -1.0904694e-04  -1.5428147e-04  -1.3299995e-04  -3.8388319e-04   1.3872857e-04   8.4994710e-05  -3.7586823e-04   1.9102100e-04   9.3588314e-05   3.9659289e-04   2.1823922e-04  -1.5491908e-04   1.6433805e-04   3.3993929e-04  -1.7113428e-04   6.6907640e-04  -1.3283490e-04  -2.5524194e-05   4.6774576e-04   1.1399690e-04   4.3456457e-04   2.3863038e-04   5.8525184e-05   8.6695090e-04  -2.1702086e-04   2.2504643e-04  -6.2212121e-04  -6.2985899e-05   1.4593305e-04   9.0663252e-06   4.5479475e-05   9.0669768e-05  -3.2007613e-04   7.3812276e-05   8.1003272e-05  -1.3953590e-04  -1.7581403e-04
   1.8379246e-04   3.8849164e-05   6.6200242e-05   2.5868270e-04  -2.4321140e-04   1.5546402e-04   1.8538558e-04   5.5389322e-04   5.2917376e-04  -1.0524457e-04   4.5408035e-04   6.6766988e-05   7.6256765e-05   7.9228470e-05  -2.8924400e-04   5.8411941e-05  -4.1650288e-04   1.5928545e-04  -6.4043830e-05  -2.9840932e-04   1.5061966e-04  -5.5208253e-05   2.5694424e-04   2.4748687e-04  -4.2853851e-05   1.1074919e-04  -1.4716559e-04  -5.8158741e-05  -1.9300148e-04   1.2860358e-04  -2.8041480e-04   6.1653124e-04   3.5510719e-04  -1.1313346e-04   5.4715283e-04   2.0021851e-04   4.0960111e-04   6.0342791e-05   1.2169767e-04  -8.1024606e-05   4.9932794e-05   1.2226324e-04  -2.8008409e-04   8.6354878e-05  -6.9988751e-06  -4.1293754e-04   4.8493890e-05   2.1351449e-04  -2.6912496e-05   4.3967088e-05
   2.2347359e-04   6.3583016e-06   1.2643887e-04   2.0872943e-04   1.7485145e-04   5.3118833e-04  -6.2329978e-05  -2.1060229e-04   3.2948400e-04  -1.6443865e-04   3.9916564e-04   2.7525197e-05   1.4277415e-04   1.1080701e-04  -2.0151924e-04   6.7512541e-05  -3.5620970e-04   1.1208864e-04  -1.1371910e-05  -2.6794267e-04   1.7070978e-04  -2.5236522e-04  -2.2099937e-05   1.8012777e-04  -3.1687797e-04   9.1789319e-05  -9.0637805e-06  -2.5300993e-04   6.2339188e-04  -1.5947779e-04  -2.7652775e-04   4.4455926e-04   3.0783084e-04   5.5599401e-05  -9.2022119e-06   1.3089131e-04  -2.4926802e-04  -1.9788115e-05  -8.3206134e-05  -1.4431629e-04   1.9113682e-04   1.7708322e-04   1.4447803e-05  -6.3843727e-05   7.6405027e-05  -3.3374701e-04  -3.1707037e-05   5.9479727e-05  -6.0518105e-06  -1.2668033e-04
   2.6019485e-04  -8.7279848e-05   1.3271571e-04   2.3127362e-04   3.0717070e-05  -9.0076850e-05   3.8431626e-05  -2.0311453e-04   4.1921306e-04  -2.3753000e-04   3.6595389e-04   1.0696152e-05   2.2350547e-04  -1.9318393e-05   1.0146623e-04   3.2363223e-05  -3.8108308e-04   1.7267741e-04  -1.1708736e-04  -2.5664215e-04   1.4613991e-04  -2.2141145e-04  -1.1215751e-05   2.2822421e-04  -4.5467743e-05   1.7277445e-04  -6.9557536e-05   1.7194415e-04   7.1726198e-04  -1.0069395e-04  -5.6259788e-04   4.6836637e-04  -2.4820643e-05  -4.6062219e-04   2.2340720e-04   1.8439020e-04  -1.6892880e-04   3.2585487e-04  -4.8217521e-04  -1.6061467e-04   8.3207757e-05   3.0258924e-04  -1.2337748e-04  -4.5900313e-05   8.2984458e-05  -1.0707059e-04   3.7730922e-05   2.1606812e-04   3.2172643e-06  -5.6194618e-05
   1.8871366e-04  -4.7268957e-05   1.2260380e-04   2.2876008e-04  -1.3003869e-04   6.2441401e-04   7.6323275e-05  -3.1083968e-04   2.2467934e-04  -3.3403348e-04   2.7593022e-04  -2.4973680e-05   2.9581736e-04   1.0995150e-04  -1.7066236e-04   3.3683547e-05  -2.5942468e-04   2.5948882e-04   2.2156787e-04  -1.6559170e-04   1.3264839e-04  -1.6550451e-04  -8.0499762e-05   1.5647718e-04  -4.8842634e-05   1.6262043e-04   3.9093418e-04  -1.9583624e-04   9.4782311e-04  -2.2941254e-04  -2.5531914e-04   3.8052007e-04   2.1464011e-04  -1.2817577e-04   5.0945032e-06   2.8338996e-04  -2.4020523e-04  -5.1242965e-05  -1.2481488e-04   2.6184001e-05   6.0887607e-05   5.5268360e-05  -5.0016151e-05   9.3767718e-05   5.8814501e-05  -3.0147255e-04   4.4109951e-05   3.7331882e-04   6.2813218e-05  -1.7200993e-05
   3.4865283e-05  -7.3084346e-05   1.7457799e-04   2.0461231e-04  -2.1808568e-05   9.7973074e-04   1.4445157e-04   8.1953051e-04   3.6577435e-04  -3.3460962e-04   2.9262606e-04  -2.7139000e-05   3.2252082e-04   1.6434457e-04  -2.9348224e-05   4.7976569e-05  -1.7325967e-04   3.3687279e-04   1.0946616e-05  -5.6007138e-05   1.5652337e-04  -5.5494653e-05   3.2158921e-04   2.7686535e-04   2.4340425e-05   1.9389491e-04   8.0859743e-04  -5.8656318e-05   6.2481157e-04  -2.4633078e-05  -2.8492149e-04   7.3130126e-04   6.3308037e-04   1.6813289e-04   1.6890843e-04   2.2330729e-04  -2.1218491e-04  -1.5281167e-04  -9.0538713e-05  -4.3460521e-05   3.9616298e-06   8.6139196e-05  -2.1970585e-04   1.4119456e-05   8.2860279e-05  -3.5745991e-04   1.5899092e-05   3.5936595e-04   1.4613437e-05  -6.3458509e-05
   9.9062359e-05  -9.7101933e-05   1.9843629e-04   2.3863112e-04   4.0234510e-05   2.3845962e-04   1.6046403e-04   3.9404133e-04   3.0576077e-04  -3.5777607e-04   2.7787124e-04  -5.3585747e-05   3.2871927e-04   2.4230759e-04   6.4111686e-05   2.0980110e-04  -1.6313382e-04   2.4414965e-04   3.1651746e-04  -9.1370792e-05   1.5978052e-04  -1.1182089e-04   3.2885591e-04   3.0098017e-04   3.0569799e-04   1.2425271e-04   4.3287507e-04   7.7043609e-05   1.6736768e-03   2.7776705e-04  -8.0805155e-05   4.7319065e-04   3.6305710e-04  -2.5371819e-06  -1.2761434e-04   1.9192990e-04  -1.8576338e-04   4.2052343e-04   1.3724153e-04  -1.1958367e-04   6.7551300e-05   1.5092228e-04  -1.5026312e-04   1.3901987e-04   1.6620404e-04  -1.1504124e-04   4.6580255e-05   2.2158938e-04   9.0883754e-05   6.6366818e-05
   6.4712869e-05  -9.4248593e-05   1.4982854e-04   1.9525814e-04   1.0937798e-04   1.6581464e-05   1.4791163e-04   6.9197395e-04   3.5398232e-04  -3.2077997e-04   2.8040042e-04  -4.5016146e-05   3.0373471e-04   7.2813062e-05   5.5114477e-05   9.0427930e-05  -2.1804073e-04   1.3772515e-04   1.1089909e-04  -1.0630558e-04   1.5004793e-04  -1.0173312e-04   2.7038945e-05   2.0923920e-04   1.5099134e-04   5.9012313e-05   6.8811828e-04  -1.2909579e-04   1.2694788e-04   2.2731644e-04   3.5926545e-04   2.7920204e-04   1.7642090e-04  -3.1023941e-04   3.0189459e-04   2.6804453e-04  -6.9170281e-05   7.3588779e-04   2.3091777e-04  -1.2424658e-04   7.6471704e-05   1.6546506e-04  -1.2987855e-04  -9.1670645e-06   2.3757897e-05  -1.2315271e-04   3.2875596e-05   1.8028365e-04   8.5884036e-05  -1.8067512e-04
   3.8844755e-05  -7.9175108e-05   1.6124392e-04   1.9787390e-04  -2.0774616e-05   4.6093142e-04   3.7223176e-04   6.3307222e-04   3.5641534e-04  -3.4393847e-04   2.3418464e-04  -1.4251375e-05   2.8673813e-04   1.5878239e-04  -4.9093201e-06   2.6057841e-04  -1.3783234e-04   2.6716219e-04   1.8181709e-04   1.5487303e-05   1.4842834e-04  -8.3708292e-05   3.2300368e-04   3.0143681e-04   2.5343127e-04   1.9891059e-04   2.2397943e-04  -1.9931176e-05   9.5378421e-04   2.3577959e-04   8.8873101e-05   4.4179641e-04   1.3659768e-04   1.7763212e-04   1.8049056e-04   2.1193497e-04   2.4788993e-04  -1.1270575e-03   5.0205635e-05  -2.0432928e-04   1.5251990e-04   2.5243522e-04  -3.2350123e-05   7.6487231e-05  -3.5592539e-06  -1.0588111e-04   2.5769343e-05   3.6563462e-04   1.1821493e-04  -6.2575295e-05
   9.0415313e-05  -1.2566701e-04   1.4945606e-04   2.2241402e-04   1.8640397e-04   5.5892969e-04   5.5865693e-04   5.6281013e-05   3.0664573e-04  -3.3175939e-04   2.0227236e-04  -7.6035612e-06   2.6939329e-04   1.3784290e-05   2.8188815e-04   2.2855520e-04  -2.0416269e-04   2.0208713e-04   2.7224861e-04  -3.5401908e-06   1.1906173e-04  -1.5313966e-04  -1.4070811e-04   1.2160958e-04   2.3720774e-04   8.9017711e-05   6.3286170e-05  -3.4868335e-05   4.4756630e-04   2.6462568e-04   1.4177665e-04   3.4302226e-04  -1.3526678e-04  -3.5439161e-04  -9.1177797e-05   1.8982888e-04   2.6901087e-04  -2.9867099e-04   5.8497071e-06  -5.4448974e-05   4.3463191e-05   4.2270633e-05  -3.3126370e-04   3.2412013e-04   4.9545917e-05  -2.6821508e-04  -2.1312158e-05   2.8784334e-04   8.9063891e-05   1.4530515e-04
   1.2297227e-04  -1.3253272e-04   1.9802523e-04   1.8723194e-04   3.9685889e-05   5.3311349e-04   3.2412625e-04   5.2456849e-04   4.5659210e-04  -3.5859822e-04   1.8424424e-04   1.0761984e-05   3.1151919e-04   3.5315046e-05  -3.0748244e-05   9.1432130e-06  -1.5532103e-04   1.3001314e-04   5.5309600e-04  -1.9124957e-06   1.1900325e-04  -6.4721564e-05   3.9868767e-04   1.2680667e-04   2.3832627e-05   1.2977497e-04   4.8316517e-04  -2.2229935e-05  -1.0456878e-04   2.6254897e-04  -6.1336189e-04   1.9824508e-04   6.0940740e-05   6.2548352e-05  -2.9571122e-04   3.5482101e-04   4.5468245e-04   1.9150889e-04  -3.9644973e-04   3.7645565e-05   1.4303957e-05   1.6275732e-04  -5.1549036e-05  -8.7023272e-06   1.2823020e-04  -8.1129474e-05   1.9186182e-05   3.9076249e-04   1.4373421e-04   2.8556795e-04
   9.1613656e-05  -8.7409266e-05   1.9854319e-04   2.5285853e-04  -1.1003949e-05   6.9988985e-04   4.4100013e-04   8.1284437e-04   2.0062746e-04  -3.2797788e-04   1.6222263e-04   2.8777633e-05   2.3150208e-04   2.5219086e-04  -1.1826577e-04   2.1301399e-04  -2.5923844e-04   6.6765824e-05   1.3800368e-04  -9.8306118e-05   1.3369342e-04   1.0759660e-05   3.1613270e-04   2.3422584e-04   5.2649866e-05   1.6377888e-04  -1.8639387e-04   1.6091290e-06   3.9490827e-04   1.5960934e-04   7.3159696e-05   1.6762305e-04   2.4434921e-04  -4.3107950e-04  -3.5423276e-05   2.0408109e-04   3.9586725e-05   1.7241058e-04   7.1791554e-04  -3.2125716e-04   8.8303786e-05   1.1314669e-04  -2.6607452e-04   2.7623610e-05  -4.8739912e-06  -3.0464194e-05  -3.2195687e-05   1.7187024e-04   1.3582611e-04   1.3087053e-04
   9.3748917e-05  -9.5229450e-05   1.4437988e-04   2.2543252e-04  -1.3619586e-04   5.4866006e-04   3.5751844e-05   9.2761451e-04   5.2495260e-04  -3.4918365e-04   1.5570864e-04   3.3585507e-06   2.4068954e-04   9.8654156e-05   1.4987944e-04   1.6472820e-04  -2.1246924e-04   1.2246614e-04   7.2058254e-05  -4.3958378e-05   1.1621761e-04  -8.7485241e-05   1.9338263e-04   2.5816293e-05   6.2442368e-06   8.6847205e-05   1.3596794e-04   3.3695160e-05   1.5741825e-04  -3.1839428e-04  -4.4842315e-04   2.5106699e-04   2.3842424e-04   1.3720818e-04  -1.7302911e-04   1.7831734e-04  -7.7952762e-05  -2.7733727e-04   2.9040594e-04  -1.4931670e-05   4.5827503e-05   1.0173107e-04   5.9720980e-05  -1.8700455e-05   6.1777078e-05  -4.2895761e-05  -9.9975105e-06   2.9014566e-04   1.6016081e-04  -9.5918498e-05
   5.7484714e-05  -1.1795985e-04   1.7597528e-04   2.0231535e-04   2.6628817e-04   2.4401442e-04  -7.4524314e-06   2.4994605e-04   4.2732965e-04  -3.6673149e-04   1.0544521e-04  -7.2281553e-05   2.9388419e-04   1.0141728e-04  -4.5875020e-04   1.1376397e-04  -6.0334944e-05   2.1081582e-04   9.8200915e-05   5.3348387e-05   1.2657956e-04  -1.3270015e-04   6.2760089e-05   6.4556778e-05   6.8454385e-05   6.7071167e-05  -9.5460338e-05   1.5358657e-05   3.5085858e-04   3.2882108e-05   4.0695033e-04   3.8862630e-04   3.5383913e-04  -4.7214900e-04  -2.4956907e-04   1.6641930e-04   4.1209080e-04  -1.2160490e-04   3.8484589e-04  -1.2636889e-04   1.3771685e-04   2.3587118e-04  -3.2467462e-04   1.6780240e-04   2.2091105e-04   4.9229835e-05  -4.5956062e-05   2.1757417e-04   1.5474565e-04   8.0132559e-05
   1.0971334e-04  -1.0373584e-04   1.5063754e-04   1.8336784e-04   1.4413754e-04  -1.8923984e-04   1.4697984e-04   5.7740055e-04   3.6944207e-04  -3.7062733e-04   1.0086962e-04  -7.0879272e-05   2.8264098e-04   1.1301398e-04   4.8420756e-05   1.9647756e-04  -4.1635751e-05   3.0904624e-04   4.3279835e-04   8.6895547e-05   1.0072579e-04  -8.1503327e-05   2.4917480e-04   9.1652300e-06   5.9085985e-05   1.3101427e-04   1.3768839e-04  -4.2008462e-05   8.1935531e-04   4.9828839e-05   5.9352594e-04   4.6370781e-04  -2.0860283e-04  -1.2715814e-04   3.3079934e-05   7.5400800e-05  -1.5634544e-04  -4.7055288e-05  -5.1116815e-05  -3.5072284e-04   9.4278737e-05   2.6418711e-04  -1.7738016e-04  -9.8368837e-05   3.8020371e-05   5.1760901e-05  -1.7822731e-05   7.6228534e-05   1.4839247e-04   1.1878139e-04
   5.6536319e-05  -1.1367555e-04   1.5591187e-04   1.7324180e-04   1.7343342e-04   6.8772258e-04   2.6922012e-04   2.5765423e-04   5.1554496e-04  -3.9181966e-04   1.3655798e-04  -8.1780090e-05   3.0868655e-04   1.3189609e-04   5.8972582e-06   2.1402887e-04  -1.6727833e-04   2.0357470e-04  -9.5729929e-06  -3.5156787e-05   1.1047644e-04   4.6406449e-06   3.4068722e-05   2.3124166e-04  -8.1204133e-05   9.0681307e-05   3.7233575e-04   1.4505802e-04  -5.1824638e-04  -2.8327800e-04  -4.9564318e-04   3.0909121e-04  -5.6859102e-05  -1.9199868e-04   1.9800467e-04   1.4730584e-04   3.4805757e-04   1.6747015e-04   1.1972970e-04  -3.4049465e-04   2.9725698e-04   1.5528389e-04   1.8473752e-04   2.5607439e-04   4.2436277e-05  -8.0039274e-05  -7.0359150e-05   3.9131034e-04   1.0557611e-04   5.5057204e-05
   1.2934365e-04  -9.0580790e-05   1.8662366e-04   2.1537021e-04   1.1871448e-04   4.3256127e-04   2.2568110e-04   7.9936220e-04   2.8029378e-04  -3.9408318e-04   1.5256944e-04  -5.4442477e-05   2.6885926e-04   1.5354899e-04   7.0937531e-05   2.5233472e-04  -1.7327309e-04   2.2922079e-04   8.3792656e-05  -1.6751790e-05   1.1038149e-04  -9.8132907e-05   2.1168393e-04   1.3427781e-04  -2.3009619e-05   2.8470762e-05  -2.6511404e-04   1.8665522e-06   2.0299897e-04   1.7312793e-04  -2.0684494e-04   3.8221577e-04  -1.5609877e-04  -9.4459829e-05   5.0392392e-04  -7.4306896e-05   1.4366118e-04   9.7429234e-05   8.7903034e-05   7.1077979e-05   9.2024282e-05   1.6523361e-04   1.0219643e-04  -3.4626060e-05   3.3141148e-06  -1.0137386e-04   3.0936994e-07   1.5087325e-04   9.9313489e-05   6.6782777e-05
   6.6105640e-05  -1.0934092e-04   1.8005614e-04   2.1808129e-04   9.7986551e-05   4.2684446e-04   1.7276675e-04  -3.5700999e-04   4.0208589e-04  -3.7763920e-04   1.6964886e-04  -6.8449161e-05   2.5580736e-04   4.3139551e-04   1.6989236e-04   2.5532118e-04  -8.9063564e-05   2.6310357e-04   5.1588996e-04   1.9059729e-05   1.0313642e-04  -1.9563625e-04  -5.3986383e-05   8.2694030e-05  -1.3712468e-04   6.5963992e-05   3.7141913e-04   2.5896064e-04   3.4421001e-04   8.2080420e-05  -1.6565141e-04   3.7178167e-04   1.7581899e-04   1.6093503e-04   2.9519666e-04   7.3693343e-05   4.1744678e-04   1.5633136e-04  -7.2285868e-05  -6.9399201e-04   1.0932388e-04   7.5275806e-05  -1.2418948e-04  -5.8838203e-05   1.7392536e-04   1.0995281e-04  -6.6799235e-05   1.4181725e-04   1.0724572e-04  -6.5543900e-05
   9.9803423e-05  -1.1283416e-04   1.7138301e-04   1.6641528e-04   1.2787079e-04   1.2884747e-04   4.3846449e-04   8.5117284e-04   4.4749543e-04  -4.0685723e-04   1.1772753e-04  -9.9108125e-05   2.8072239e-04   2.0117349e-04  -1.1181622e-04   7.9747653e-05  -1.4907250e-04   2.4726088e-04   5.8989308e-04  -2.0813211e-05   8.9598347e-05  -1.7628314e-04  -1.0931189e-04   5.9367478e-05   2.5729794e-04   7.7479490e-05   3.8051844e-04   4.8493421e-05   7.2821608e-04   1.5231664e-04  -1.7328997e-05   2.7731684e-04   5.0637059e-06   3.1032567e-04   2.6173266e-05   5.1096420e-05   4.1445292e-05   8.0976177e-05   2.4169283e-05  -3.0499170e-04   1.9643363e-04   1.3444472e-04  -1.9939257e-04   2.8175275e-05   4.4050765e-05  -2.7194485e-04  -7.2597970e-05   2.7337982e-04   9.9743687e-05   8.4560546e-05
  -2.0431520e-05  -1.0823525e-04   1.2991510e-04   2.3036009e-04   1.0723530e-04   4.7020314e-04   2.8616225e-04   9.5823940e-05   3.2034377e-04  -4.0552553e-04   1.5764819e-04  -8.5651009e-05   2.6283099e-04   1.8842141e-04   1.0978833e-05   2.3487590e-04  -1.2791104e-04   1.8263455e-04   2.8745196e-04  -9.5359355e-06   1.0428284e-04  -1.0371789e-04   2.4766207e-04  -1.0327642e-05   1.4450768e-04   1.0484929e-04  -2.6111127e-04   4.9387585e-05   1.7345443e-03  -1.3404613e-04   2.6871936e-04   2.9059785e-04  -1.3107583e-05  -8.3664047e-05  -1.0619743e-04   4.0229165e-04  -2.8503101e-04   6.6739792e-04  -2.4947318e-05  -1.9713826e-04   1.9562223e-04   6.3483756e-05   4.1420131e-05  -1.0893264e-05   2.0926818e-04   2.6252350e-05  -1.9650728e-05   2.7163359e-04   1.0421728e-04   7.5192205e-05
   1.3587702e-05  -3.5021287e-05   2.1070727e-04   2.0756556e-04   1.9071785e-04   7.0323155e-04   2.4784598e-04   4.4157804e-04   2.9210249e-04  -3.8578137e-04   1.4432492e-04  -8.0526246e-05   2.4161396e-04   3.4186858e-04   3.0843416e-04   2.2881829e-04  -1.0938474e-04   2.7743258e-04   5.5468426e-04  -2.7778577e-05   8.5871790e-05  -1.8025287e-04   1.3046856e-04   9.7994098e-07   1.3694323e-04   1.4616596e-04   3.2880271e-05  -2.8536622e-05   9.0620463e-04   2.9913732e-05   5.2454659e-05   3.0726907e-04   1.3795357e-04  -5.0649276e-05  -2.3600158e-04  -2.1380803e-04   4.2888051e-04   4.3610940e-05   3.2066440e-04   7.9781224e-05  -9.5773335e-05   1.0780763e-04  -1.1081405e-04   9.2403599e-05  -5.4901077e-05  -6.2132669e-05  -6.1649633e-05   1.0340103e-04   1.4056478e-04  -1.2409526e-04
   4.1505096e-05  -7.3364747e-05   1.5802386e-04   1.9164117e-04   1.9560599e-04   2.8942013e-04   4.2690174e-04   7.0352724e-04   1.8803703e-04  -4.1025845e-04   1.3883581e-04  -9.6988377e-05   2.1588581e-04  -8.4125233e-05  -2.5689814e-04   2.6724569e-04  -1.6520092e-04   2.2106059e-04   3.3274695e-04  -1.6212103e-05   6.5878245e-05  -7.2054492e-05  -5.1536237e-05  -2.8123612e-05   2.2844574e-04  -3.5789635e-05   4.6818116e-04  -2.2827813e-05  -3.7066653e-04  -9.4783034e-05   1.8681600e-04   2.9512891e-04  -1.1476989e-04  -3.6427239e-04  -3.6639040e-06   6.5289052e-05   2.0009682e-04  -2.0893827e-05  -1.0479489e-04   3.9295403e-05   8.0336205e-05   8.4787018e-05  -1.4082916e-04   1.6300596e-04   1.8020803e-05   3.6298530e-04  -1.2050517e-04   3.3500660e-04   1.3966710e-04  -8.5925989e-05
   3.4338042e-05  -4.4908498e-05   1.5022431e-04   1.8408609e-04   2.9088955e-04   3.2138935e-04   2.2954808e-04   2.1411289e-04   3.5162031e-04  -4.2834476e-04   1.1628382e-04  -1.0934796e-04   2.8965352e-04   3.1606801e-04  -1.5201396e-04   5.9969247e-05  -6.6395987e-05   1.4384775e-04   2.4275003e-04  -1.4865004e-05   1.0075115e-04  -2.5389885e-04   5.4611501e-05  -2.5159799e-04   2.3063716e-04  -6.1541607e-05  -1.4176128e-04  -2.3690352e-04  -4.6358127e-04  -1.5364357e-04   1.0470415e-04   2.8060764e-04  -5.3973457e-05   1.7408933e-04  -3.1073039e-05  -6.9531467e-05   3.4689985e-04   3.9032983e-04   1.4588673e-04  -7.7964387e-06   1.1398693e-05   1.8375451e-04   1.5668623e-04   1.2342913e-04   1.1193924e-04  -2.1270297e-04  -1.2018866e-04   2.1080300e-04   1.0516066e-04   5.3015515e-06
  -5.5331078e-05  -4.6580502e-05   1.6295197e-04   2.2532410e-04   1.2525010e-04   3.3054275e-05  -3.9227994e-05   2.8680731e-04   3.5559337e-04  -3.9492358e-04   1.0014492e-04  -1.2153502e-04   2.5406701e-04   1.2939394e-04   1.4132993e-04   1.0489504e-04  -5.0634622e-05   2.6252362e-04   2.6798554e-04   2.7891503e-05   8.2591781e-05  -1.3541461e-04   1.8397569e-04   4.3250566e-05   2.3334249e-04   7.5467287e-05   1.4941156e-04  -4.1813386e-05  -5.7167071e-04  -8.8983950e-05  -1.4589602e-04   3.0919359e-04   1.4071790e-05   2.4959820e-04   7.2772120e-05  -4.8195019e-05   6.5141672e-04   8.4300700e-04  -3.8147712e-07  -3.2821757e-04  -6.0157883e-05   5.5908793e-05   4.9371945e-05   1.2734492e-04   1.1211562e-06  -2.6021122e-05  -9.4303527e-05   9.2522707e-05   1.3479806e-04  -6.3077438e-05
   1.8586756e-05  -4.7575570e-05   1.7591655e-04   2.5341121e-04   2.6403202e-04   5.8265246e-04   1.0452679e-04   1.8236540e-04   3.7338381e-05  -4.0307071e-04   8.1740589e-05  -1.4761373e-04   2.3472897e-04   8.7000379e-05  -1.4700591e-05   1.1273436e-04  -8.0216239e-05   2.3689927e-04   3.8367165e-05   3.1933039e-05   9.9453493e-05  -3.4006163e-05   9.0894828e-05   3.3148754e-05  -5.3710406e-05  -2.2812441e-05  -2.0252840e-04  -6.2202707e-05  -1.9924036e-04  -1.3897914e-04   2.8578882e-04   3.0800558e-04   3.5593001e-04  -3.5595478e-04  -4.0897256e-04   6.3442909e-05   5.0228578e-04  -3.1537027e-04   3.1162577e-05   1.3702073e-04  -1.6054594e-04   2.5740648e-05   4.0169532e-05   9.2575749e-05   3.7802212e-05   7.5344476e-05  -6.3498344e-05   2.2521096e-04   1.2822528e-04   1.9928497e-04
   2.9219820e-05   7.7848408e-06   1.7029145e-04   1.6889838e-04   7.9494806e-05   3.0703814e-04   2.1218423e-04   2.2424202e-04  -1.2425180e-06  -4.3923571e-04  -4.1085627e-06  -1.6521697e-04   2.3425352e-04   2.2886042e-04   1.4584830e-04   6.4189066e-05  -3.9760977e-05   1.9029483e-04   7.8555261e-04   1.0857252e-04   6.0984810e-05  -1.6246372e-04   6.6602377e-05  -8.0151171e-05   2.2624026e-04  -3.4744873e-05   5.7366010e-06  -8.8660236e-06   5.6081364e-04  -5.1545238e-05   5.4781866e-04   1.5374273e-04  -6.5125241e-05  -2.0765429e-04  -1.4164919e-04   5.8473575e-05   3.9477416e-04  -2.3070435e-05   4.3280423e-04   1.6865671e-04  -1.0917217e-05   2.8918088e-05   1.7439414e-04   3.0436614e-04  -3.1671756e-05  -1.5731035e-05  -3.9594317e-05   1.6923517e-04   1.2608051e-04  -3.8346898e-05
  -8.7035078e-05  -6.5774817e-05   1.4610901e-04   2.0122614e-04   3.9012276e-04   8.0812926e-04   2.2383146e-04   4.5155652e-04   7.3846873e-05  -4.5856071e-04  -1.6823431e-04  -1.5015982e-04   1.9150217e-04   1.3046118e-04  -3.7293870e-05   1.5352467e-04   1.1627172e-04   1.4699144e-04   5.6121300e-04   1.5963093e-04   2.5792455e-05  -8.4085434e-05   2.5657164e-05  -1.6741708e-04  -2.5324977e-04  -5.7370053e-05  -6.4328953e-05   2.2182884e-04   3.4748856e-04  -1.2688238e-05   1.0979540e-03  -1.4708679e-04  -2.4435789e-04   2.6695218e-04  -2.6784008e-04   2.9854213e-05   2.9350678e-04   2.7554928e-05   3.7490609e-04   8.7207722e-05   8.5788532e-05   1.2682949e-04  -5.2304818e-05   8.0487225e-05  -7.3821458e-05   7.9088983e-05  -6.6577675e-05   5.4480133e-05   7.9842896e-05  -1.9298350e-04
  -2.1700875e-05  -6.8597561e-05   1.7392251e-04   1.6985150e-04   3.4274414e-04   2.0155948e-04   4.4166006e-04   4.2617947e-04  -2.6378105e-04  -4.4705457e-04  -2.2240449e-04  -1.2701721e-04   1.9159984e-04   2.5699902e-04   1.1301278e-04   1.9970055e-04   2.1566117e-04  -2.6667848e-07  -3.1330780e-04   2.5771130e-04  -7.8290213e-06  -8.1065926e-05   1.4636944e-04  -1.0631971e-04  -1.2105741e-04   3.9653682e-05   3.0370030e-04   2.6973174e-04   2.5500762e-04  -9.1308557e-06   8.5617314e-05  -2.8879175e-04  -3.7348265e-05  -4.0078597e-04  -9.6932250e-05  -5.0770755e-05   3.8292087e-04  -9.9802208e-05   7.1136066e-04   3.8457388e-04  -1.0109964e-05  -3.2627762e-05   1.9571646e-04   2.0158873e-04  -3.8697770e-05   8.8489971e-05  -5.8926275e-05   2.2708267e-04   1.5708002e-04   3.3793298e-05
  -1.3051256e-04  -5.4596960e-05   1.0685919e-04   1.5313663e-04   3.8047126e-04   4.8860162e-04   9.8206379e-05   8.0997578e-04  -1.7663033e-04  -4.6822696e-04  -2.3397722e-04  -9.0262423e-05   1.6909798e-04   7.3140138e-05   2.7462756e-04   8.4137733e-05   1.9970928e-04  -6.6624630e-06   4.3417423e-04   2.3402918e-04  -1.8555527e-05  -1.7953367e-04   1.1884273e-04  -1.2188301e-04  -1.0088729e-04   1.8011977e-05  -3.6211676e-04   2.1123305e-04  -1.5022767e-04   1.0658414e-04   2.9268215e-04  -1.6877336e-04   3.7629272e-06  -2.5218393e-04   2.3661374e-05  -6.7090782e-06  -1.1869881e-05   1.1538371e-04  -1.6462225e-04   1.1211353e-04  -2.2769671e-06   1.7299587e-04   3.7832439e-04   2.8285078e-05   1.0191527e-05  -1.4891700e-04   1.0955173e-04   5.4136352e-05   9.8309254e-05   9.7560041e-05
  -1.1471710e-04  -1.1017347e-04   1.3225671e-04   1.1224177e-04   1.8446588e-04   2.5671145e-06   3.3837005e-05   2.4099310e-04  -8.8000357e-05  -4.4703443e-04  -1.7275402e-04  -6.8400157e-05   1.5267248e-04   1.8395029e-04   5.9832906e-04   7.4576281e-05   1.1224455e-04   4.6003170e-05   2.4199078e-04   1.5748403e-04   2.2752118e-05  -2.1552177e-04  -4.0665029e-05  -5.1964627e-05   8.4537154e-05  -3.4032295e-05  -4.5193403e-04   1.0280176e-04  -3.8525675e-04  -8.4304877e-05   3.3463428e-05  -9.6862466e-05   3.2599666e-04   3.6471715e-04   2.4555932e-04   1.9104825e-04  -1.9332547e-04   1.1066072e-04   3.7465108e-04  -6.4559994e-05  -2.2505007e-04  -2.2636406e-04  -6.1500163e-05   4.2160889e-05   3.0568961e-05   1.7667388e-05   2.9284227e-05   1.1690900e-04   1.1363771e-05  -7.7099241e-05
  -1.2966266e-04  -5.7260490e-06   1.6722995e-04   1.2996553e-04   2.5966659e-04   2.3019238e-04   5.0300179e-04   3.3383688e-04   1.3913101e-05  -4.5280936e-04  -1.3033857e-04  -7.2506882e-05   1.0017530e-04   2.2443997e-04   1.0517488e-04  -1.3933977e-05   4.2074094e-05   2.5785748e-05  -1.9494850e-05   1.1961842e-04   3.7752816e-06  -9.6756492e-05   1.6469094e-04  -4.1731138e-05   8.4805746e-05  -6.3236243e-05   1.4427151e-04   2.9864808e-04   8.9642539e-04   1.4914082e-04   5.3828530e-04  -1.0593065e-04   1.4357769e-04   7.0301729e-05  -3.6704334e-04   3.7198236e-06   6.4648577e-04  -2.1281205e-04  -7.2925945e-04   1.2630966e-04   1.0693297e-04   5.0923019e-05  -3.1167656e-05   4.3434069e-05  -7.3322753e-06   4.1040428e-05   2.6662634e-05  -3.8447513e-05   1.0798033e-05  -1.8485295e-04
   8.8776316e-05  -2.7975622e-05   1.5080217e-04   1.8084164e-04   1.8566770e-04   3.7881490e-04   7.6606251e-05   5.6194846e-04   1.6170881e-04  -4.4197566e-04  -1.0954362e-04  -5.2204054e-05   1.7528114e-04   3.0953484e-04   1.0629169e-04   1.4964143e-04   4.1688552e-05   4.4184173e-05   3.0288368e-04   1.1844651e-04   2.3667033e-05  -1.5995813e-04  -2.0359992e-05   6.1204555e-05   9.9972589e-05   1.8093140e-05   2.8143646e-04  -1.2630621e-04   4.0410244e-04  -3.5786798e-05   3.4535848e-04  -5.9687831e-05  -1.3088084e-04  -2.3543213e-04  -2.0361457e-04  -1.5443063e-04   1.2368891e-04   2.4840873e-04   2.0512933e-04   1.0319348e-04   1.6369268e-05  -4.7151218e-05  -8.0299842e-06   3.7631795e-05   1.0317223e-04  -2.9659757e-04   1.1880982e-04   1.5649610e-04   6.0164435e-05  -1.0502010e-04
  -1.0931340e-04  -3.6386748e-05   1.0810511e-04   1.4736589e-04   3.1309252e-04   1.4273454e-04   3.0966641e-04   5.6342647e-05  -1.7144898e-04  -4.2485460e-04  -1.1797932e-04  -2.2455466e-05   1.7660839e-04   2.2781419e-04   2.7271439e-04   1.3352036e-04   8.4106250e-05   1.1226798e-04   3.7535300e-04   1.4785802e-04   2.0508434e-05  -4.4943572e-05   3.8418981e-05  -1.0837311e-04   3.7171395e-04   8.7353052e-05   2.2095830e-04  -9.5549200e-05   9.8456256e-04  -2.5187666e-05  -1.0927498e-04   1.1207387e-04  -3.5288362e-05   4.6139042e-04  -2.7244864e-04   1.8868686e-04  -2.8090455e-04  -4.5809810e-04  -2.3626373e-04  -8.4646097e-05  -1.1502609e-04   2.2215470e-05  -2.0896470e-05   2.8401497e-04   1.0173041e-04  -1.4717634e-04   1.1582063e-04   5.1801431e-05   5.1858769e-05  -1.8361848e-04
  -3.1412619e-05   9.1560041e-06   1.3502392e-04   1.5228160e-04   3.0046966e-04   3.3544429e-04   2.4104405e-05   8.4107922e-04  -3.7671407e-04  -4.7652135e-04  -1.0007033e-04  -6.4364620e-05   1.5680367e-04   2.0202158e-04   8.4715197e-05   1.2419625e-04   4.9586717e-05   1.7926628e-04   1.1670028e-04   1.4623243e-04   3.1733009e-05  -1.0249484e-04  -8.3783925e-05   2.4740109e-05   1.7460965e-04  -1.8078841e-05   3.6131547e-04   1.5000282e-04   7.9570262e-04   3.3661810e-05   1.6534256e-04   1.0903793e-04   9.3362774e-05  -3.3748292e-05  -4.9221149e-04  -7.2611336e-05   2.2809113e-04   5.2277389e-04   2.6491398e-04   8.4638068e-06  -1.7984179e-04  -1.7051023e-05   1.7452962e-04  -1.6366127e-04   8.8940425e-05  -3.2655234e-04   4.7047768e-05   4.8951366e-05   4.1720934e-05   8.5599480e-05
  -3.3352404e-05  -2.2865197e-05   1.4410017e-04   1.5617385e-04   1.1842550e-05   3.4253698e-04   3.5607340e-05   3.1267267e-04  -2.4208771e-04  -4.3790220e-04  -8.6059161e-05  -7.4039825e-05   6.3729218e-05   3.0026986e-04  -2.1027419e-04   6.7523899e-05   5.9985981e-05   3.1153329e-05  -2.1193978e-07   1.2670235e-04   1.8169449e-05   1.9829928e-05   5.3940199e-05   1.0449212e-04  -1.5626074e-05  -5.5805882e-05   3.6866980e-04  -7.7074394e-05  -5.3920975e-04  -2.3205874e-04   1.0244689e-04   9.0363983e-06   4.9854955e-04  -7.3995492e-05   1.0365176e-04   1.6713217e-04  -4.0090858e-04  -1.4096027e-04  -1.5955933e-04  -2.6535679e-05   6.4426645e-06  -1.1799809e-04  -2.8585416e-06  -4.1193023e-05   9.9041601e-05  -2.6589460e-05   5.5203134e-05   1.3080747e-04   6.4697291e-05  -3.8781665e-05
  -8.9532929e-05  -2.6972879e-05   1.0541479e-04   1.3636379e-04   2.0433350e-04   3.8619002e-04   6.2451196e-05   9.8176277e-04  -3.8410231e-05  -4.2593232e-04  -7.6311138e-05  -4.0930488e-05   1.0026664e-04   3.8331610e-04   3.8798575e-04   9.6380987e-05   4.3267915e-05   1.3804581e-04   1.8885547e-04   8.6550797e-05   3.0155381e-05  -2.0444983e-04   1.4204496e-04  -5.7632704e-05   2.9886660e-05   1.0193311e-04  -1.0975908e-04  -1.2623046e-04   3.2110009e-04  -1.6720996e-04  -4.7149725e-04  -9.8329598e-05   3.5468765e-04   2.4305881e-04   3.9597167e-04   2.1127005e-05  -1.6765180e-04   1.3475084e-04  -4.4209429e-04  -2.3938746e-04   3.8761471e-05  -3.3209282e-05   9.7242904e-05   9.3041330e-05   1.0232036e-04  -8.1953309e-05   3.8882536e-05   9.2746217e-05   3.5215457e-05  -2.7347688e-04
  -2.1058435e-05  -9.7402808e-06   1.0364738e-04   1.5053735e-04   2.2119655e-04   2.5045063e-04   1.0987244e-04   6.0607825e-04  -2.9203767e-04  -4.3344323e-04  -9.1068046e-05  -5.2153249e-05   9.3481533e-05   3.3669651e-04   2.2689356e-04   6.4938438e-05  -1.1942424e-05   8.3800958e-05   4.5859485e-04   6.1405131e-05   3.7163427e-05  -1.0266088e-04   2.2712715e-04  -1.7632248e-05   2.4857774e-04   1.0373168e-04   8.6615139e-05   8.3309693e-05  -3.3169630e-04  -1.1967925e-05  -3.8518020e-04   2.0797106e-05   2.9716367e-04   4.5554611e-05   2.8986615e-05  -9.7323591e-06   5.5864215e-04   2.2956329e-04   1.7277362e-04   6.5018365e-04  -2.9817958e-05  -4.3556640e-05  -1.6889976e-04  -4.0804143e-06   1.2705523e-04  -3.4900967e-04   1.5566124e-05   1.1128126e-04   8.8277171e-05  -5.4502154e-05
  -1.0021138e-04  -1.3444828e-05   1.7848550e-04   1.5340725e-04   1.7324577e-04   1.3308546e-04   4.7421519e-04  -3.4228433e-04  -4.5097182e-05  -4.2055262e-04  -1.0974114e-04  -5.3660711e-05   1.3807221e-04   2.4297163e-04  -1.1061786e-04   1.3281140e-05   3.1791846e-05   5.6429893e-05   1.4385791e-04   1.5269037e-04   3.7075872e-05   1.5158618e-05  -3.0802606e-05  -8.6590291e-05  -1.3975568e-04   3.8180107e-05   3.0701776e-04   2.3945491e-05   7.7095043e-05   2.0044083e-05  -2.2890081e-05  -1.7779920e-04   9.5686584e-05   2.4989393e-04  -3.2689673e-04   1.0043083e-04   6.7496562e-04   2.8066486e-04   7.8736217e-04   4.9794762e-04  -1.8105562e-06  -3.0695548e-05   2.5924720e-04   5.2146479e-06   1.1048191e-05  -8.6577609e-05   1.9641393e-05   1.3658166e-04   1.3920828e-04  -1.9479483e-05
  -6.6186280e-05  -7.9906997e-05   1.4457095e-04   1.4238759e-04   8.1015514e-06   3.0250810e-04   3.1787629e-04   8.2564203e-04   1.9859081e-05  -4.3843922e-04  -1.1976384e-04  -8.7834749e-05   1.8751748e-04   3.9368391e-04   4.5848559e-04   1.9269623e-04   1.6007823e-04   1.4321864e-04   2.3455429e-04   1.7561014e-04   4.6494679e-05  -1.8697365e-05   1.2536821e-04   7.0589444e-06   5.0996812e-05  -7.6128803e-05   1.5413461e-04   1.4202688e-04  -1.0319751e-03  -1.3803756e-04  -1.3471984e-04   7.7043151e-05  -5.9975795e-05   1.8638151e-04   4.1258181e-04   1.6994453e-04   2.5868535e-04   8.2751249e-05  -2.0315083e-06   2.2691337e-04   4.0570914e-05   2.9537992e-05   2.1425077e-04   3.4508301e-04   3.5554829e-05   5.6853449e-05  -3.9465140e-06   1.2167857e-04   1.2059343e-04   1.1403600e-04
  -1.5060649e-05  -1.8372706e-05   1.4018247e-04   1.7541651e-04   3.0163856e-04  -7.3016738e-05   3.1536876e-04   1.8433874e-04  -8.0162659e-05  -4.3763139e-04  -1.1292212e-04  -7.1314818e-05   1.5512577e-04   1.7197606e-04   8.5142587e-05   7.6878241e-06   5.2836353e-05   1.3038878e-04   1.6402231e-04   1.8172104e-04   2.5296449e-05  -1.3708849e-04   2.2594898e-04   7.6213379e-05   1.5237639e-04  -1.2293250e-04   2.3592987e-04   2.1231777e-04   6.7559880e-04  -4.3788934e-04   6.4820086e-04   3.0177127e-05   1.3480855e-04  -7.6334327e-05  -1.4851447e-04   2.1627815e-04   3.2499077e-04  -1.9043521e-04   4.6773971e-04  -2.3721752e-05   1.8578478e-04  -8.4439002e-05  -1.8823790e-04   3.7889349e-05   6.1919927e-05   8.8766938e-05   5.2529453e-05   1.1047613e-04   1.0643493e-04   1.8858725e-06
  -5.9178561e-05  -4.8036374e-05   8.1878708e-05   1.9652897e-04   1.7151629e-04   4.0808145e-06   4.9400482e-05   4.0999355e-04   1.8024165e-04  -4.6284185e-04  -1.1560985e-04  -5.7249246e-05   1.7230360e-04   3.0592739e-04   2.8188401e-04  -9.6476842e-06   1.4281191e-04   6.5711160e-05   3.3026218e-04   1.3142561e-04   1.4698194e-05  -3.1718359e-05   1.4059144e-04   1.3226381e-05   6.5209169e-05  -2.8665504e-06   4.0517162e-04   5.3828491e-05   2.1181627e-04   3.8553091e-05   2.4617909e-04  -4.1687323e-05   1.0185014e-04  -1.0515554e-04   1.3221710e-04   9.6616757e-05   4.0621252e-04  -7.7105453e-04  -2.9773253e-04  -4.3558844e-04  -6.1007686e-05   6.7845867e-05   3.3269498e-05   5.7757017e-05   8.8099885e-05   7.9159159e-05   3.7048845e-05   1.0281037e-04   1.6690941e-04  -1.3342881e-05
   7.8705634e-05  -3.7979539e-06   1.8806530e-04   1.5859691e-04   4.4183656e-05   3.5976397e-04   4.0152218e-04   8.2179438e-05  -2.2612425e-04  -4.2456825e-04  -1.3908902e-04  -7.1719951e-05   1.9974886e-04   2.7509406e-04  -1.7237778e-04   2.3728247e-04   1.2031666e-04   2.3315682e-04   3.8627689e-04   2.0442902e-04   4.0049432e-05  -1.1168559e-04   2.6464398e-04   1.2501537e-04  -2.6079115e-07  -8.1517232e-05   1.4442037e-04   1.1346720e-05  -8.5690344e-06  -1.4242317e-04  -3.2155658e-04   5.3975662e-05   7.7115350e-05  -9.1033566e-05  -1.9624140e-04  -8.2268416e-05  -6.7397178e-04  -5.0515367e-04  -1.0149661e-04   1.2673851e-04  -1.4138910e-04   2.3447988e-05  -3.5127439e-05  -6.4466080e-06   8.4818574e-05  -4.9057759e-05   8.1797436e-05   1.8447397e-04   1.1457858e-04   5.0762439e-05
  -1.6838437e-04  -1.1075850e-04   1.2306268e-04   1.3732284e-04   3.5673720e-04   3.5941676e-04   4.9953487e-05   3.4722936e-04   1.0319024e-04  -4.1362090e-04  -1.3499717e-04  -6.3066989e-05   2.4091096e-04   1.1668166e-04  -1.0106211e-04   8.8649242e-05   9.6527983e-05   2.8337468e-05   4.2294012e-04   1.6698227e-04   1.5850832e-05   1.0569239e-04   8.7988781e-05   1.3084414e-04   1.7299522e-04   1.1996613e-04   4.4935499e-04  -1.8471370e-06  -8.1160024e-04  -4.6452646e-05   7.2297122e-04  -2.8494484e-04   4.1829597e-04   7.5199379e-05  -2.7699277e-04  -5.6548954e-05   3.5068518e-04   2.1271796e-04  -1.5112588e-05   2.8509647e-04  -1.1006928e-05  -1.0768120e-05   2.7316349e-04   1.6743287e-04   1.3070347e-04  -3.8989983e-05   5.3830616e-05   2.5532555e-04   1.5106944e-04  -3.7587601e-05
  -1.2743307e-04  -1.5436770e-05   1.7388919e-04   1.8463975e-04   6.7670902e-05   5.4120581e-04   1.9279421e-04   2.1463650e-04  -1.4699674e-04  -4.0654279e-04  -1.1286007e-04  -6.1401464e-05   1.5033860e-04   2.0892384e-04   4.5924549e-04   1.1297486e-04  -1.6253492e-06   8.8230321e-05   3.4967699e-05   1.1028784e-04   3.2423759e-05   5.7937403e-05  -3.0485442e-04   1.1510587e-04  -1.8042431e-04   8.4015941e-05  -1.4162915e-04   1.8357515e-04   1.6741970e-04   8.0578808e-05  -5.8048587e-05  -1.4687728e-04   1.9459847e-04  -3.4017932e-05  -4.4152657e-05   9.6885713e-05  -3.3448584e-04  -4.5887029e-04   3.5245411e-04   1.4869271e-04  -1.7061371e-04  -7.8381250e-05   1.0870952e-04   9.8045522e-05   1.7606829e-04  -2.1543330e-05   5.1366223e-05   1.6480626e-04   1.8359248e-04  -1.5691372e-05
  -7.7214354e-05  -5.0363342e-05   1.3254309e-04   1.8817652e-04   1.7221707e-04   8.1935716e-05   1.7051224e-04   3.4596215e-04  -2.0032492e-04  -4.1379538e-04  -1.0771021e-04  -7.6172400e-05   1.3584204e-04  -6.8947287e-07  -1.7093400e-08  -2.3714130e-05   6.0572835e-05   3.1342943e-06   4.8336608e-04   1.0832034e-04   3.5346140e-05  -3.4071014e-05  -3.0490634e-04  -2.8708688e-05  -1.2835534e-04   7.0841372e-05  -1.8266957e-04  -1.6240912e-04   2.0981845e-04  -1.5796776e-04   2.3023992e-04  -3.5301756e-04   2.0052589e-04   2.3691390e-04  -7.9720976e-06   1.2823028e-04   2.3101024e-04   2.7053087e-04  -3.9394389e-04  -7.0462054e-05   3.9657200e-05   2.5736509e-04   9.7107681e-05   1.9384443e-05   1.9743637e-04  -2.2264547e-04   4.6625759e-05   1.7543288e-04   1.8020337e-04   2.8767859e-05
  -1.2580912e-04  -1.1805495e-05   1.2502178e-04   1.6009589e-04   3.7717179e-04   4.7005710e-04   4.8957154e-04   2.1966726e-04   7.6615615e-05  -4.0553440e-04  -1.1479898e-04  -7.9862897e-05   1.6709264e-04   3.4810629e-04   3.0503378e-04  -1.9321709e-05   1.2927709e-04  -5.3790191e-05   4.4243125e-04   1.5272204e-04   2.1250686e-05  -1.0575241e-04  -5.8118145e-05  -1.0398502e-05   5.2472471e-05   4.8650054e-05   4.1440521e-06   7.0565540e-05   1.1359086e-04  -1.9490269e-04  -4.6106926e-04  -3.6771351e-04   9.5469564e-05   7.6155857e-07   2.9130519e-04   2.0874546e-04  -4.2141552e-04   4.1870320e-05   1.6590807e-04   2.3298532e-04   5.3625008e-05  -7.8722209e-05   1.5796434e-04   2.0149477e-04   7.4381605e-05   9.9085242e-05   1.1046971e-04   4.9890295e-05   1.5725878e-04   1.5976936e-04
  -1.1376436e-04  -1.7048833e-05   8.5237749e-05   1.7442719e-04  -2.1623939e-05   4.4343589e-04   4.0552852e-04   4.3669320e-04   9.4790717e-05  -3.9936844e-04  -8.7307752e-05  -7.5440934e-05   1.5902462e-04   4.8495317e-04   1.8643281e-04  -6.2091685e-06   1.1216192e-05   1.1039689e-05   1.0020965e-04   6.2370411e-05   4.9261169e-05  -6.5615684e-05  -3.8572180e-04   2.9376222e-05   1.8760264e-04   1.2669461e-04   3.9020425e-04   2.3571786e-04   5.1793526e-04  -1.1569099e-04   7.0975737e-05  -2.2866264e-04   2.9106456e-04  -3.4362856e-05   2.1158045e-04   6.7993031e-05  -3.3988006e-05  -6.0350416e-05   5.7399186e-04   5.2307028e-04   1.0883443e-04   3.9963503e-05   1.1362944e-04   2.0832256e-04  -2.2395348e-05   8.5059131e-05   1.0011359e-04   1.1611933e-04   1.9662162e-04   4.6559941e-04
  -7.2972936e-05   4.8331954e-06   1.6151535e-04   1.9501381e-04   1.4536698e-04  -5.2249634e-05  -4.1125290e-06   3.2002977e-04  -4.2496387e-07  -3.7741876e-04  -1.0945800e-04  -1.0757194e-04   7.3877840e-05   2.1443801e-04  -6.8560926e-06   6.5857430e-06   7.1158531e-05   1.8283679e-05   4.7744921e-04   1.5755900e-04   3.9516257e-05   2.0593963e-05   8.5945074e-05   6.4973443e-05   1.3560048e-04   1.0973404e-04  -3.0434356e-04   2.9586209e-04  -5.3969142e-04   2.8293935e-04   1.6890676e-04  -3.3047359e-04   3.5623647e-04   2.0842093e-04  -1.2549161e-04   2.0142260e-04   2.1123901e-04   2.9657708e-04   1.3245495e-04   1.1797911e-04   7.9475773e-05   1.1510460e-04   7.0888804e-05   1.4459272e-04   1.2404111e-05   2.3975950e-05   3.0984189e-05   6.9221125e-05   2.2770373e-04   5.4269294e-05
  -5.7295936e-05   1.4451854e-05   1.4416101e-04   1.6926246e-04   1.5989628e-04   4.0174715e-04   4.7375710e-05   3.0657422e-04  -2.7564231e-05  -4.0801530e-04  -1.0238606e-04  -9.2609036e-05   1.6018411e-04   2.7744300e-04   1.5014992e-04   3.8279202e-05   1.0881512e-04  -2.0276399e-05   1.5700076e-04   2.0574476e-04   5.2781332e-05   1.7888982e-04   9.5707210e-06   1.4024178e-04   1.0169593e-04   7.6583186e-05   1.3712636e-04  -5.9744325e-05  -2.8490779e-04  -3.5788758e-05  -1.8840248e-04  -2.8211705e-04   5.1974959e-04  -2.4176481e-04   2.8365457e-06   8.9047673e-05   2.3298305e-04  -1.9965648e-04   2.3827376e-04   1.2379314e-04   1.6285405e-05  -3.2426091e-05   1.1199038e-04   4.2027584e-04   6.8188405e-05  -1.0376732e-04   6.1321101e-05   2.0676845e-05   2.6000247e-04   1.3225543e-04
  -1.6164602e-04  -2.4922208e-05   2.0101550e-04   8.5983229e-05   1.3713386e-04   2.0872931e-04   4.2927635e-04   4.1477859e-04  -6.0029070e-05  -3.8651709e-04  -1.3791778e-04  -1.2529785e-04   2.0950832e-04   3.0040689e-04   1.1616773e-04   9.8647201e-05   2.2325433e-04   3.3165616e-06   1.1656024e-04   2.2557940e-04   5.9613241e-05   8.9604371e-05  -1.8068994e-04   3.5179553e-05  -1.8921247e-04   3.0320266e-04   3.0422717e-04   1.1511421e-04  -2.7470847e-04   7.7665733e-05  -6.9543155e-04  -2.5031451e-04   4.9387541e-04   2.1725617e-04  -6.2149113e-05   1.6643688e-04   1.0514192e-03   1.9424652e-04   8.5025880e-04   4.7663278e-05   6.8375330e-06   1.7464484e-04   4.4219312e-04   1.0881512e-04   9.0421374e-05  -1.8692936e-04   4.4515858e-05   1.6805621e-04   1.7486772e-04   3.5432333e-04
  -8.4830179e-05  -1.3664847e-05   1.1593314e-04   1.3019633e-04   1.7339620e-04   4.0063739e-04   3.1955750e-04   8.9942667e-05   3.4344866e-05  -3.7405721e-04  -1.3606375e-04  -9.6897245e-05   2.1154441e-04   2.7939849e-04  -1.4903549e-05   9.4050214e-05   2.4939940e-04   1.2848963e-05   3.9880141e-04   2.0710076e-04   3.4822293e-05   1.1180689e-04   2.2669033e-04   4.8530044e-05   6.0560047e-05   7.6860641e-05   2.4571767e-04   4.0664847e-04   7.8375428e-04   6.2057763e-05  -4.4160080e-04  -2.5642588e-04  -4.2812782e-05   1.5928620e-04   4.1374762e-04   3.6369957e-04   5.5746263e-04  -2.7648441e-04  -1.3305430e-04  -3.0136074e-05   4.8799666e-05   2.6209371e-05   1.5111762e-04   2.0858783e-05   1.5977224e-04   8.8333436e-05   1.0806244e-04   2.8433706e-04   2.4423629e-04   1.7776726e-04
  -9.6197451e-05  -1.2050104e-05   9.7519041e-05   1.5224081e-04   2.7884130e-04   1.0292249e-04   2.6961634e-04   5.0747668e-04   2.7137843e-05  -3.8099874e-04  -1.2159247e-04  -1.0149861e-04   1.7222823e-04   2.6704528e-04  -2.2190228e-07  -4.2989646e-05   2.6569251e-04   4.8690865e-05   6.7502586e-04   2.4566145e-04   3.6523797e-05   2.9833787e-05   1.1684873e-04  -1.8677503e-04   1.5786281e-04   9.8452700e-05   4.9453694e-04   2.2727804e-04   9.8002158e-05   6.8033820e-05  -9.1788970e-05  -1.1150002e-04   4.2535068e-04   3.2652522e-04  -3.2051492e-05   1.7666227e-04  -2.2562822e-04  -3.9289027e-04  -1.0172924e-04   2.0643452e-04  -2.2889408e-05  -4.0643572e-05   3.1264123e-04   5.7967911e-05   1.4775799e-04   2.7862660e-04   1.1671947e-04   5.7958565e-05   2.5065066e-04   3.1279190e-04
  -6.2396597e-05  -1.2402544e-05   1.4972143e-04   1.9083059e-04  -8.7457527e-05   1.1474787e-04   1.9843536e-04   1.7420235e-04  -7.6101664e-05  -3.3662259e-04  -1.2354481e-04  -7.8855825e-05   2.0793942e-04   2.1511680e-04   4.7075353e-04   1.0920763e-05   1.7714301e-04   7.6617114e-05  -6.7572582e-05   2.0991069e-04   5.6979534e-05   1.1954665e-04   1.4374118e-04  -4.4454140e-05   2.6841287e-04   8.0279104e-05  -5.4332783e-04   8.0166952e-05   4.2439025e-04   1.0004164e-04   5.4317602e-04  -1.5100813e-04   4.8486335e-04  -1.4313211e-04  -2.8342856e-04   4.2448923e-04   2.0731233e-04  -2.8692675e-04  -1.1701731e-04   4.1302377e-05  -9.0708127e-05   7.4838332e-05  -1.0444586e-04   4.4234850e-05   4.1775958e-05   1.7030486e-04   5.1773241e-06   1.9872110e-05   1.4859908e-04   1.5932303e-04
  -7.4293617e-05  -4.7540916e-06   1.8221159e-04   1.9306375e-04   1.4537886e-04   5.1198859e-04   5.8408425e-04   3.7334202e-04   5.5358309e-05  -3.8044283e-04  -1.3829595e-04  -7.2606963e-05   1.5287365e-04   3.1392940e-04   3.6190124e-04   1.1339855e-05   1.5093565e-04   5.5696881e-05   2.1710464e-04   2.5079626e-04   9.4487594e-05  -3.1899996e-05   4.7042151e-05   5.2804047e-05  -6.4309927e-05   1.0023083e-04  -1.6649619e-04   3.1762340e-04   9.1415539e-05   8.8683584e-05   4.2446543e-04  -1.5849054e-04   4.8463244e-04   1.4413022e-04  -1.8444775e-04   3.0247506e-04   2.1486878e-04  -1.5838342e-04   3.6228704e-04   2.5961670e-04   1.5700849e-04   8.0528562e-06   3.9116104e-04   1.4596267e-04   3.6472302e-05  -1.8345230e-04   4.3618817e-05   1.4987560e-04   1.9368043e-04   3.4546692e-04
  -3.5247154e-05   4.8697031e-05   1.5930476e-04   1.6873496e-04   2.3645829e-05   2.6212822e-04   2.5599069e-04   3.9282703e-04   4.2995227e-05  -3.5548260e-04  -1.8833202e-04  -1.0048570e-04   1.5460527e-04   3.4936712e-04   3.2760031e-04   5.4678923e-05   2.1396930e-04   2.1568028e-05   1.5745900e-04   2.4819977e-04   2.7034846e-05   9.4394942e-05  -1.2090769e-04   1.4284058e-06   6.8275709e-05   1.3167644e-04   1.3379595e-04   3.3090930e-04  -4.9080822e-04   8.3896979e-05   9.2994043e-05  -2.2015756e-04   5.8039936e-04   2.7667667e-04   7.9453799e-05   3.3517092e-04   6.1901330e-05   2.5721028e-04   4.6140945e-04   1.3315972e-04   8.5059519e-06   4.5349257e-06   3.9905889e-04   9.6275573e-05   2.6564702e-04  -1.0118318e-05   5.8544505e-05   2.8875630e-04   2.2561385e-04   4.5095125e-04
  -9.4215990e-05   6.1539336e-05   1.3545471e-04   1.6510431e-04   4.0632853e-04   4.0938469e-04   8.7682252e-05   5.5184343e-04  -3.2026310e-05  -3.6347299e-04  -1.3631249e-04  -8.3907609e-05   1.4540307e-04   2.3437597e-04   5.2053377e-04   1.5642449e-04   1.7578856e-04  -3.8479939e-05   6.9225888e-04   2.0816366e-04   6.6139917e-05   7.4219470e-06  -1.1750696e-04   2.4480201e-05  -6.7454232e-05   1.0085849e-04  -1.2339241e-04   2.6915548e-04   5.6212104e-04   2.0361657e-04   2.9226328e-04  -1.8905749e-04   1.8651113e-04  -2.9469671e-04   2.0658194e-04   2.4898845e-04  -3.9576489e-04   4.7490242e-04  -4.7027916e-05  -1.7557191e-04  -6.3630250e-06   4.5454392e-05   1.3292533e-04   3.3328900e-04   2.5886691e-05   4.0178708e-04   2.6318970e-05   1.0761496e-04   1.9492111e-04   4.7311868e-04
  -3.7569600e-05   6.0464037e-05   1.4021376e-04   2.0622519e-04   2.7519511e-04   5.4408860e-04   1.1291701e-04   6.0603663e-04  -7.7504392e-06  -3.4826607e-04  -1.6093082e-04  -1.2371541e-04   7.7178469e-05   2.5371680e-04   3.8354957e-04   1.8035434e-04   1.3308335e-04  -1.7811961e-05   5.0460623e-04   1.5222486e-04   6.3710133e-05  -6.9371620e-09   1.5090228e-04  -9.7287106e-05   2.2518732e-04   1.2067225e-04  -1.2574474e-04   2.3666031e-04   9.3829830e-04   2.3614339e-04  -7.3002899e-05  -1.8090030e-04   1.1831032e-04   1.2978715e-05   3.3563742e-04   1.8310276e-04   7.8946425e-05  -1.8155368e-04   3.0574407e-05  -2.1803191e-04   1.0588037e-04   2.9954590e-05   2.5963655e-04   3.7410806e-04   1.0780088e-04   3.0765499e-04   3.0369467e-06   7.6386481e-05   2.1374325e-04   2.3061082e-04
  -1.6718705e-05   6.6275912e-05   1.7794930e-04   1.8821353e-04   3.6448851e-04   3.2126863e-04   3.7665555e-04   3.3070662e-04   6.9461479e-05  -3.9413135e-04  -1.4025370e-04  -1.3174016e-04   1.2360947e-04   1.6941833e-04   1.4031475e-04   1.0111779e-04   1.5657771e-04  -3.4077035e-05   2.5709393e-04   1.5672894e-04   7.0391368e-05   3.2405667e-05  -6.7639892e-05  -2.1156244e-04   2.6207883e-04   2.2514767e-05  -1.2844651e-04   1.3219594e-04  -2.2034508e-05   1.4324649e-04   8.7987937e-05  -2.1377641e-04   2.3635873e-04   2.9275400e-04   3.6443752e-04   2.6457489e-04   4.4972732e-04   3.7791047e-04  -5.0784025e-04  -1.4353161e-04  -8.8787965e-05   7.6380798e-05   2.3290112e-04   3.1577254e-04   1.5731849e-04  -1.7519393e-04   7.5937038e-05  -9.7861819e-05   1.5060359e-04   3.2400887e-04
  -1.4778411e-04   1.6643113e-05   2.2559936e-04   1.8397153e-04   2.1494691e-04   1.9970894e-04   2.8301158e-04   2.7889741e-04  -1.2646487e-04  -3.4751490e-04  -1.0992658e-04  -1.1739753e-04   9.3465445e-05   2.9125425e-04   7.4852229e-05   1.4078665e-04   1.1595510e-04   6.9741945e-05   3.5811073e-04   1.2414092e-04   8.4817395e-05   6.0346392e-05  -5.8247631e-05  -5.0256867e-06   3.2045355e-04  -9.5462463e-05   4.4726589e-04  -1.0471855e-06   7.2903867e-04   3.2994113e-04  -3.7244713e-04  -2.1036257e-04   2.9002153e-04   2.2721551e-04   3.2866734e-05   4.3624986e-04   8.0948591e-04   1.9747094e-04  -3.1486474e-04   2.1651061e-04   2.0625035e-05  -1.6660289e-05   2.6594577e-04   3.9064529e-05   1.6973719e-04  -7.7111436e-06   8.2759332e-05   1.4335716e-04   2.5011343e-04  -2.1191345e-06
   4.0513361e-05   1.0033732e-04   1.6568156e-04   2.1187674e-04   3.8460869e-04  -6.3110136e-05   4.3549822e-04   2.7733779e-04  -1.6151306e-04  -4.0145760e-04  -1.2811724e-04  -1.3168361e-04   7.3206291e-05   1.0848259e-04  -3.9857488e-05   8.6494692e-05   9.0679263e-05  -7.9035035e-06   5.1575946e-04   1.2446796e-04   6.8173598e-05   3.9805087e-05   9.3432049e-05  -3.4939116e-05   7.5555479e-05   1.4725135e-04  -2.9405550e-04   1.2135012e-04  -1.0890133e-04  -1.2292388e-04   2.3033329e-04  -1.7225341e-04   6.4411975e-04  -3.8515100e-06  -8.7866989e-05   8.1641869e-05  -4.6386733e-05   1.0278587e-04   3.2644634e-06  -1.9498022e-05  -1.0166880e-04   6.8795845e-05   2.1514361e-05   2.2409097e-04   1.3210501e-04   1.0979786e-04   4.9673388e-05  -7.5418786e-05   1.7138969e-04   3.9766997e-04
   8.3865874e-05   6.0718576e-05   2.0844489e-04   1.8905735e-04   1.8061821e-04   3.5345106e-04   1.4220212e-04   5.7025758e-05  -5.2090189e-05  -3.9649112e-04  -1.1537450e-04  -8.1723854e-05   1.2528076e-04   1.7661123e-04   3.6439576e-04   9.4723531e-05   7.4045391e-05   3.6128811e-05   1.7247196e-04   1.3739592e-04   7.8610072e-05   6.1792205e-05   2.1279772e-04  -1.5268165e-04   1.2004157e-05  -1.2300287e-05   1.8396304e-04   1.2730090e-04  -5.2243687e-04   2.0305610e-04   5.5091089e-04  -1.9225407e-04  -2.2212871e-04   2.0831019e-04   2.6530350e-04   1.1326345e-04   2.3741431e-04  -1.0205137e-04  -1.6328285e-04   3.5516711e-04   1.6514322e-04  -1.6344841e-04   2.0849574e-04   9.5274576e-05   1.4532324e-04   1.0303655e-04  -2.8969339e-06   1.2832970e-04   2.0552197e-04   2.3608378e-04
  -7.7314297e-05   7.2952069e-05   1.6249770e-04   1.8160052e-04   2.1083224e-04   2.8454410e-04   2.8716473e-04   2.6502027e-04  -1.4235478e-04  -3.9055242e-04  -1.0955279e-04  -9.1532231e-05   1.7062121e-04   2.3814518e-04   3.6697368e-06   1.7908440e-04   7.4949079e-05   6.6889275e-05   4.2371388e-04   1.7065740e-04   4.8004789e-05  -2.2108847e-05   3.5341922e-04  -5.2980482e-05   2.3543820e-04   1.3093169e-04   1.9114067e-04   1.0096321e-04   3.3456960e-04   2.0748290e-04   8.7987290e-05  -2.8546984e-04  -2.1388476e-04   4.2840507e-04   3.9196192e-04   2.1916853e-04   8.5581187e-04   2.5990503e-04   7.2455652e-05   2.8972994e-04  -4.0338044e-05  -2.7182045e-05   6.5654858e-05   5.2114425e-05   2.9890944e-04  -1.2172246e-04   1.8693368e-05   2.1741212e-04   2.2013771e-04   1.6990340e-04
  -6.3174077e-05   1.1310442e-04   1.7406739e-04   2.1995697e-04   4.6370932e-04   1.4689108e-04   2.1172047e-05   6.4143032e-04   8.7778040e-05  -3.8430464e-04  -1.0765986e-04  -1.3523390e-04   8.1399856e-05   2.7324754e-04   3.6274214e-04   9.0274923e-05   1.0782031e-04  -3.1358781e-05   4.5120620e-04   1.8593138e-04   5.2468455e-05   1.7761237e-04   1.2821190e-04  -1.5461662e-04   4.9679722e-05  -1.6577129e-05   2.4760055e-04   1.6283919e-04  -8.4064188e-05  -2.1847730e-04   2.2504653e-04  -3.1347992e-04   3.2293450e-04   2.7931010e-04  -3.0434452e-05   6.9021487e-05   7.8274810e-04   2.6349316e-04   3.2659573e-04   2.6658163e-04  -1.2560352e-05  -5.7452067e-05   2.3271074e-04   4.3362498e-04   8.2511338e-05   1.1842843e-04   1.6349517e-05   6.3669890e-05   2.5417795e-04   2.8193733e-04
  -2.2636357e-05   1.0146216e-04   1.3071316e-04   1.8327111e-04   3.0268545e-04   2.0262611e-04   2.2108988e-04   1.0325134e-04  -3.4615339e-05  -3.7268907e-04  -1.2163795e-04  -1.3349374e-04   1.0670495e-04   1.6197779e-04   2.3129384e-04   9.8376213e-06   1.2782757e-04  -2.7392403e-05  -1.8165098e-04   1.4680119e-04   6.9959235e-05   4.6714333e-05   2.5815694e-04  -1.2831928e-04  -1.5379698e-04   4.8580932e-05  -1.3571272e-04   2.1678906e-04   9.7799304e-05   1.9800469e-04   5.7827315e-04  -3.2532698e-04  -9.0879621e-05  -2.7320086e-04   7.0836575e-04   9.3892580e-05   3.3707111e-04  -1.7190828e-04  -4.7533944e-05   4.9214327e-04  -1.6011191e-04   6.6210064e-06   1.6087834e-04   1.0326076e-04   5.3424792e-05   1.8173720e-04  -2.1935923e-05  -4.5105849e-06   1.4729005e-04   1.9631852e-05
  -8.3644227e-05   7.9532503e-05   1.6480980e-04   1.5556761e-04   2.6020478e-04   1.9020542e-04   1.2967896e-04   7.7094400e-04   1.7671466e-04  -3.4760500e-04  -1.1632685e-04  -7.9564663e-05   1.2241898e-04   2.4720008e-04   2.3778275e-04   1.3571528e-04   2.0786849e-04  -1.0909478e-05   3.2348969e-04   1.6599767e-04   5.0315673e-05  -2.7869984e-07   1.6939387e-04  -3.6191035e-05  -1.2180733e-04  -3.3587494e-05   3.3322553e-04   5.2278330e-05   1.0549808e-03   1.9731520e-04   2.3824716e-04  -3.1913331e-04  -1.1486664e-04   5.7830155e-04   4.9147219e-04   1.7207389e-04   9.2627764e-05   6.3950843e-05   1.3015878e-04   4.5809938e-04   5.7563349e-05  -1.8220895e-05   3.6810094e-04   2.1824274e-04   6.8598340e-05   1.5181326e-05  -6.4289430e-05   3.2193231e-04   2.3902106e-04   3.5958170e-04
   1.9131423e-05   7.4031268e-05   1.8701304e-04   2.0965700e-04   3.8989479e-04   1.6261058e-04   2.7976086e-04  -1.2838584e-04  -5.6116271e-05  -3.6064198e-04  -1.3685993e-04  -8.4773041e-05   1.3043421e-04   3.6558139e-04   4.7161285e-04  -3.0532824e-06   1.9994685e-04  -4.7492820e-05   2.0856892e-04   1.8875873e-04   5.1264979e-05   6.7604698e-05   2.2546052e-04  -9.7926961e-05  -4.3598546e-05  -2.3016644e-05   3.4779013e-04  -3.4046334e-05   1.5891116e-04   1.8613020e-04  -9.1319540e-05  -3.5322734e-04   3.8583379e-04   5.9262483e-04   3.9417652e-04   2.4108808e-04   6.0438993e-04   3.7122416e-04  -2.2826863e-04   7.9658355e-05   9.4835690e-05   3.9358823e-05   2.9439689e-04   1.4861839e-04   8.7361899e-05   7.4192344e-06  -2.8755700e-05   4.8821439e-05   1.8768673e-04   2.2183289e-04
  -6.1555162e-05   4.5146375e-05   1.7706084e-04   1.7704084e-04   1.7896051e-05   1.1922053e-04   3.4730198e-04   4.4263975e-04  -1.3677182e-04  -3.6961815e-04  -1.4124099e-04  -1.1101239e-04   1.2429210e-04   2.8180741e-04   4.4237386e-04   8.6290187e-05   1.8173744e-04   1.0290935e-05   8.6344349e-05   2.1375743e-04   2.6436106e-05   1.3703361e-04  -2.4548644e-04   6.8399182e-05   2.6205034e-04   1.1794524e-04  -3.4189667e-05  -4.4326887e-05  -3.0506539e-05   1.3280819e-04   4.4980369e-04  -3.6538084e-04  -5.6902412e-05   2.8122606e-04  -1.8388251e-04  -2.2276068e-05   3.6215430e-04  -4.0823780e-04   3.9269810e-04   4.2519957e-04   7.8804827e-05   1.1502712e-04   1.7120499e-04   3.6511963e-04   1.5612823e-04   2.1710001e-04  -3.7679118e-05   3.3000921e-05   2.0578221e-04   2.5548518e-04
  -3.5139936e-05   9.9020908e-05   1.5775165e-04   1.5051894e-04   3.0757530e-04   2.3472458e-04   8.5443258e-05   7.8571925e-04  -2.2470838e-04  -3.4346996e-04  -9.5314659e-05  -8.5421569e-05   4.9479197e-05   3.7577373e-04   3.3494565e-04   6.3270418e-05   2.2434922e-04   2.2323647e-05   2.3761719e-04   2.2075188e-04   5.5787197e-05   1.1229786e-04  -5.4127726e-05  -6.5741187e-05   3.7960705e-04   4.2854667e-06   5.3760642e-04   4.1820190e-04   1.3385579e-03  -5.2366727e-06   2.9542600e-04  -2.2938497e-04   2.8034605e-04   4.2533583e-04   1.2072905e-05   3.4391994e-04   1.6626720e-04   4.4733391e-04   1.7486307e-04   2.5351357e-04  -4.7243780e-06   3.4427470e-05   1.6156954e-04   3.1727026e-04   1.7058307e-04   1.6533742e-05  -7.7521261e-05   6.1019560e-05   2.7294437e-04   3.9164856e-04
  -7.9600446e-05   1.3147567e-04   2.2107054e-04   1.9652193e-04   2.4370792e-04   2.1229408e-04   2.9559701e-04   3.9188721e-04  -9.8196775e-05  -3.5542939e-04  -1.1230848e-04  -7.5778931e-05   5.1988274e-05   3.4498359e-04   1.2292020e-04  -4.1680123e-05   1.9234417e-04   2.5386433e-05   6.3083775e-04   1.9476002e-04   6.2616302e-05   1.2518489e-04  -2.2862561e-05  -1.0007439e-04   3.3219758e-04   1.3610616e-04   8.7044886e-05   4.7582449e-04   6.9237745e-04   1.6224234e-04  -2.0617830e-04  -2.8192578e-04  -1.8655375e-04   5.0066726e-04   4.8942183e-04   2.3850905e-04   3.5065640e-04   1.8708385e-04  -4.9888581e-04   1.9462162e-04  -2.2828250e-04   1.2787407e-04   1.9818675e-04   4.1331438e-04   1.4867888e-04   2.5808759e-04  -3.1078919e-06   1.8953776e-04   2.6972764e-04   9.9157034e-05
   1.2430366e-05   1.1976530e-04   2.0023782e-04   2.0946734e-04   1.7255486e-04  -2.3737448e-05   1.3246578e-04   5.1390566e-04   2.7339765e-06  -3.1981029e-04  -1.2657385e-04  -8.2440376e-05   5.6957997e-05   2.8966871e-04   1.6577025e-04   3.3680943e-05   1.3243796e-04   1.3846142e-05   3.5829016e-04   2.0287897e-04   5.0395349e-05   1.3099135e-04  -4.7483009e-05  -1.2787923e-04   3.1685998e-04   1.2881207e-04   1.8257844e-04   3.1746458e-04   7.1962446e-04   7.3288349e-05   5.7147280e-04  -3.1805626e-04   5.3295423e-04  -3.3441262e-04  -3.2530668e-05   6.5383344e-04   3.4712288e-05   8.3083805e-04   4.7466077e-04   4.4178567e-04   3.0131534e-05  -9.6515141e-05   2.5110718e-04   4.0699777e-04   1.7789211e-04  -4.6882484e-05   3.0341784e-05   4.6283647e-05   1.9798907e-04   3.0432732e-04
  -6.7734516e-05   1.0593036e-04   1.6320024e-04   1.7351755e-04   3.1742721e-04   1.5617971e-04   1.5132119e-04   2.6636155e-04  -1.3244669e-04  -2.9788137e-04  -1.0045502e-04  -9.1958442e-05   1.3479673e-04   2.4489957e-04   3.9925418e-04   1.0628084e-04   1.5245457e-04  -1.5391237e-05   8.9334215e-05   1.7118121e-04   5.5297100e-05   1.7209548e-04  -8.0539714e-05  -6.2834733e-05  -7.6886761e-05  -3.0075995e-05  -1.4153548e-04   2.4322038e-04   3.5701909e-05   2.5478506e-04   6.6624233e-04  -3.4823373e-04   2.4681710e-04   1.0286570e-04   6.3669788e-05   2.6439692e-04   3.6301633e-04   6.4173655e-04   6.2210142e-06   2.4662590e-05  -3.3933149e-05  -3.2910131e-05   3.2294390e-04   2.7447220e-04   2.3957989e-04   9.0428941e-05  -1.8262243e-05  -1.4617239e-04   2.1317878e-04   2.8886163e-04
  -1.9320332e-05   1.0657471e-04   1.9472711e-04   1.7654874e-04  -2.8382266e-05   1.9480099e-04   4.4378216e-04   3.3048150e-04   1.6033050e-04  -2.9595089e-04  -9.3394643e-05  -8.0214719e-05  -5.7301895e-06   2.3705834e-04   4.0848053e-04   1.8196723e-04   8.0856291e-05  -4.0648378e-05   5.2383461e-04   1.6423907e-04   7.8837023e-05   7.5667900e-05   1.6872637e-04  -8.3101775e-05   2.1337312e-04   1.2121833e-04   3.0510323e-04  -1.2196434e-05   4.3881289e-04   1.8495614e-04   1.7691252e-04  -2.6048627e-04  -1.4619452e-05   7.4003576e-05   4.8757959e-04   2.1394891e-04   2.1537721e-04  -2.8533276e-04  -9.6292890e-05  -4.5752706e-05   3.3133940e-05   9.2768583e-05   2.7769225e-04   1.6150718e-04   1.4868447e-04  -3.7523765e-05   2.8821236e-05   7.1691044e-05   2.3414663e-04   2.6900158e-04
   1.2967742e-05   1.1436487e-04   2.0504693e-04   2.4052727e-04   2.2460626e-05   3.2122992e-04   2.1024753e-04   6.6236236e-05   4.3497239e-05  -3.1104055e-04  -1.1699124e-04  -5.7558449e-05  -5.2025307e-06   2.2548372e-04   2.8809629e-04   7.5341006e-05   3.5172423e-05   3.7586738e-05   7.5996701e-05   1.4185318e-04   8.5135114e-05   8.2559643e-05   6.2236504e-06   3.1782947e-05   9.0865879e-06   1.1666973e-04  -1.0733330e-04   1.6265454e-04  -8.9925603e-04   1.5137716e-04  -1.3025127e-04  -2.6759805e-04   4.3541603e-04  -8.0467296e-05  -1.9679460e-04   6.2161266e-06   8.7017933e-04  -8.4987655e-04   1.6505405e-04   3.6098642e-04   4.3219592e-05  -6.5901178e-05  -8.8177931e-06  -3.7260241e-05   1.5594704e-04   1.3080689e-04   6.3792431e-05   2.4839194e-04   1.7035032e-04   9.6124175e-05
  -5.4887016e-05   1.1704372e-04   1.4504963e-04   2.3100032e-04   2.1985864e-04   1.0545408e-04   1.3071398e-04   4.6590090e-04  -3.4367229e-05  -3.1338489e-04  -9.9150988e-05  -9.1542010e-05   4.9060349e-05   2.1656770e-04   4.6980229e-05   4.4177003e-05   1.2876984e-04   9.3162216e-06   5.1110564e-04   1.5753128e-04   1.0177332e-04   1.6968972e-04  -1.0398786e-04   1.2578955e-05   1.5545118e-04  -6.1839824e-06   3.5847642e-04  -2.1284242e-05  -4.0062275e-04   1.1744843e-04   2.4461362e-04  -1.5620950e-04   3.4595613e-04   6.2909391e-04   3.6124661e-04   1.6242609e-04   5.5897859e-04  -3.0435645e-05  -2.3584730e-04   1.6881228e-05  -1.2694243e-05  -3.4593511e-05   1.1436191e-04   2.0935196e-04   2.7827083e-04   2.0878846e-04   1.1594540e-05   2.4281416e-04   1.8101810e-04   1.6130428e-04
   4.9709051e-05   9.1185109e-05   2.0752472e-04   2.2224741e-04   2.5747559e-04   5.6839833e-04   2.2396035e-04   7.8021968e-04  -4.6552563e-05  -3.1893834e-04  -1.2469405e-04  -9.4343661e-05  -4.3217160e-06   1.6177812e-04   1.4775501e-04   1.0212157e-04   5.8454872e-05   6.8426416e-05   3.1814192e-04   1.3903793e-04   9.1788912e-05   2.1477554e-04   1.4950632e-05  -7.6671546e-05  -1.3285864e-04   8.4582527e-05  -5.1756081e-04   1.4709977e-04   1.0409040e-03   7.9514120e-06   1.9550807e-04  -2.2697626e-04   1.0670862e-04   4.0147113e-04   6.5712142e-05   1.9170874e-04   7.3507096e-04   3.1590837e-04  -3.6696080e-04   2.6784081e-04   1.2897020e-04   4.7730526e-05   2.9617152e-04   1.4509611e-04   1.3618043e-04   1.5207045e-04   5.2350675e-05  -8.5919062e-05   1.1640343e-04  -3.8896524e-05
  -8.8105162e-06   1.1588876e-04   1.4179620e-04   2.3369190e-04   2.5972290e-04   9.1016183e-05   1.8721477e-04   4.7742249e-04  -2.5238203e-05  -3.3831073e-04  -1.4296944e-04  -9.3909432e-05  -2.2735689e-05   1.3021304e-04   1.0722578e-04   1.0962083e-04   1.0288518e-04   2.0874013e-05   1.7454065e-04   1.4556621e-04   7.1999108e-05   1.1245693e-04   2.0083275e-05  -9.9709141e-05   1.0435564e-04  -2.4713006e-05  -5.4571374e-05  -1.4571722e-04  -3.0692841e-04  -1.8865505e-05   1.3318434e-04  -2.2049386e-04   5.0436187e-04   4.4264409e-04   6.5690087e-04   1.7525328e-04   8.3696499e-04  -5.0109468e-04  -2.3587953e-04   3.9046590e-04   4.2603367e-07  -5.9299626e-05   1.7838363e-04   1.9177760e-04   1.8092841e-04   4.1730633e-05  -1.6456826e-05  -2.9091396e-05   1.5557758e-04   1.9044688e-04
  -8.5863894e-06   1.1374089e-04   1.6296556e-04   1.9393075e-04   1.1117623e-04   9.4461335e-05   3.0539781e-04   2.0051563e-04  -2.9975490e-04  -2.9219376e-04  -1.1306610e-04  -9.3420094e-05   4.8704042e-05   2.7107168e-04   3.8066917e-04   2.0034988e-04   6.8874091e-05   1.7523822e-05  -2.1009069e-04   1.4696721e-04   4.7764428e-05   6.7066823e-05  -2.0708010e-04  -8.5597276e-05  -1.3346098e-04   3.9632290e-05   2.5476652e-04   1.6037269e-04  -2.4391973e-05   6.6959394e-05   1.2267831e-04  -2.0173934e-04   1.7099304e-04   2.7076676e-04   1.7733441e-04   9.6127136e-05   4.4173584e-04   5.4227130e-05   2.1035163e-04   1.5559091e-04  -9.8839133e-05  -1.6504266e-05   2.7194311e-04   3.0000054e-04   2.1572078e-04   5.7283014e-05   2.3956722e-05  -3.5702971e-05   2.2469649e-04   1.1824466e-04
   4.8960651e-06   1.0625200e-04   1.6246494e-04   1.7567293e-04   2.6454669e-04   2.6512885e-04   1.0633773e-04   2.2440305e-04  -1.6323494e-04  -3.1499786e-04  -1.4282297e-04  -7.1257564e-05   4.2873522e-05   3.9208145e-04   5.4851110e-04   1.0186381e-04   4.5277557e-05   1.2545166e-06   5.6172453e-04   1.3551439e-04   6.3520762e-05  -5.1474708e-05  -3.2927428e-04  -6.9821894e-05  -1.7947513e-04   3.5279962e-05   3.1110767e-04   2.1254616e-04   5.7072408e-04   8.8096429e-05  -1.1883215e-04  -1.6671547e-04  -2.6600529e-04   6.1067389e-05   3.0310560e-04   1.0072641e-04   3.7319792e-04   1.8805271e-04  -4.3262891e-04   2.8483002e-04  -1.2900586e-04  -1.7121703e-04   6.0125035e-06   8.9975416e-05   6.7655827e-05   1.5504815e-04   5.9267386e-05  -3.3977281e-05   1.7237075e-04   1.1144485e-04
   2.1101164e-06   1.0412472e-04   1.4146998e-04   2.0160116e-04   1.5534389e-04   3.4653826e-04   3.0257393e-04   9.4492745e-05  -2.0143396e-04  -2.9703841e-04  -1.2949732e-04  -9.1081565e-05   4.3586293e-05   2.0576778e-04   1.6111268e-04   3.0878491e-05   6.9096874e-05   2.7546037e-05   4.1246676e-04   1.0684120e-04   6.1170074e-05   1.2097555e-04  -1.5166622e-04   8.2301221e-06   4.8938062e-04   4.7826663e-05   4.8215274e-04   3.9576404e-04   1.5975650e-04   3.5329314e-04   3.8419577e-04  -7.7589008e-05   2.6117437e-04   2.7761504e-04   5.1708979e-04   1.9193986e-04   1.6344116e-04  -1.3453944e-04  -1.8589837e-04   2.1395781e-04  -2.9170868e-04  -8.5968808e-05  -5.7547699e-05   1.3057803e-04   1.2365432e-05   2.4753989e-04   7.4672294e-05   6.4425927e-05   1.0666363e-04  -2.3852805e-04
  -9.7423072e-05   1.8825867e-04   8.8754954e-05   3.1520921e-04   1.6547006e-04   7.2215516e-05   8.3769941e-05   8.6521177e-04   5.5206809e-05  -3.2317682e-04  -9.8240322e-05  -4.5663379e-05   8.8631023e-05   2.1604933e-04   1.3171030e-04   1.0893997e-04   4.9697617e-05  -4.7594940e-06   3.1118735e-04   8.0483580e-05   3.5727920e-05   2.2798787e-04   2.1743622e-04   7.8714002e-05   3.9704578e-04   2.4232708e-05   1.3718058e-05   4.5861576e-05   2.4805526e-04  -1.3092026e-04   4.9434119e-04  -1.8893467e-04   3.3424661e-04   4.9041805e-04  -3.3286796e-04   1.3125215e-04   5.8801510e-05  -6.8990877e-05   1.6375534e-04   1.3742373e-04  -1.6071580e-04   5.9405911e-06   1.1495479e-04  -8.2860672e-05   5.5340090e-05  -3.1581696e-04   4.8216098e-05  -3.4907480e-05   5.0058497e-05   6.5627864e-05
  -4.4077668e-05   1.3942232e-04   6.8753136e-05   2.9390556e-04   3.7804642e-04   2.9624708e-04   1.7712585e-04   4.5926333e-04  -1.7389987e-04  -3.1138284e-04  -8.0061065e-05  -2.5042378e-05   1.5111978e-04   1.6811849e-04   3.4486391e-05  -1.5991491e-05   6.8025423e-05  -1.0023860e-05  -1.1172957e-04   1.3276524e-04   1.9681618e-05   1.2584921e-04  -1.0127758e-04   3.5678477e-05   4.3750773e-04   7.8196113e-05   3.1515650e-04   1.4575111e-04   5.7050359e-04   9.8198223e-05   1.7954218e-04  -2.5021032e-04   4.7606393e-04   3.2274122e-04   8.1716897e-04   9.6638178e-05  -2.5196842e-04  -2.6778924e-05  -2.2178009e-04   6.7682224e-05   2.6533598e-05  -1.4921589e-04   1.2587916e-04   1.2785636e-04   2.1035400e-04  -2.1969361e-05  -2.6638196e-05  -4.3334723e-05   7.1002476e-05   1.1815648e-04
  -3.0699768e-05   1.4556648e-04   2.0437928e-05   2.9178773e-04   1.5138795e-04   1.6804120e-04   6.2599240e-05  -3.6628556e-04   3.5612611e-05  -3.0893635e-04  -8.3408187e-05  -2.7989627e-05   7.8542376e-05   1.9346288e-04   3.0713814e-04   2.2430295e-05   9.3221839e-05  -4.6268383e-06  -1.1074493e-05   1.3328639e-04   9.3695216e-06   1.9779628e-04   6.8519257e-05   9.8292148e-05   6.0883372e-05   6.1136081e-05   2.9342633e-04   3.9830414e-04   3.7024225e-04   2.1497937e-04   7.2672126e-05  -1.7590726e-04   1.5772096e-04   5.4387896e-05   1.1957883e-04  -5.6216079e-05   5.8358579e-05   7.0500327e-04  -2.5984595e-04  -4.8730271e-05  -2.6254804e-04  -8.3869782e-05   5.7099736e-05   2.5341020e-04   6.6562876e-05   2.1189982e-04  -5.3493590e-05  -1.0865169e-04   6.3011277e-05  -1.4417047e-04
   2.4159435e-06   1.6897943e-04   2.2855013e-05   2.7412106e-04   3.3807868e-04   4.0275260e-04   1.2347358e-04   5.4071267e-04   1.1518351e-04  -2.7393649e-04  -8.3534709e-05  -1.7449593e-05   6.1686442e-05   2.3699217e-04   1.8913273e-04   2.5854708e-05   8.6567466e-05  -5.0453258e-05  -3.3725330e-06   1.4950873e-04   1.8441315e-05   1.1411154e-04   1.1361087e-05   3.1276435e-05   4.8219619e-05  -5.1003724e-05   4.0987034e-05  -8.5787258e-05   9.5476222e-05  -7.5909971e-05   9.3467190e-04  -2.2879198e-04  -1.6948779e-04  -5.4195392e-05   1.4374345e-05   2.2152947e-04   5.6523911e-04  -3.1004378e-04   4.1601306e-04   1.0272686e-04  -1.8711984e-05  -8.5660729e-05  -1.0261368e-04   2.6510080e-04   1.5779275e-04  -3.6246875e-05   2.1532903e-06  -1.9013289e-04   8.8526562e-05  -1.3013209e-04
   1.2865580e-05   1.4254820e-04   7.0095513e-05   2.4266372e-04   1.5265514e-04   4.7231038e-04  -9.3048227e-05  -3.1060834e-05   8.2122642e-05  -2.8533285e-04  -7.3695461e-05   2.8322007e-05   1.7324559e-04   1.4334172e-04   2.3333312e-04   1.0190198e-04   1.3138114e-04  -4.7496698e-05   1.2506986e-04   1.8242659e-04   4.2219770e-05   1.9220868e-04  -1.6736856e-04  -3.1623000e-05   5.4743643e-05   1.9162924e-05   4.3499106e-04   2.0769534e-04   5.9246016e-04  -3.0458397e-05   2.9664021e-04  -1.7066664e-04   2.3260083e-05  -3.2406442e-05  -8.6771455e-05   1.2776580e-04   3.8309800e-04  -2.1204415e-04  -2.7319571e-04  -1.0052182e-04  -1.1737041e-04  -5.9842373e-06  -1.6276578e-04   1.4672022e-04   9.5873023e-05   1.7540275e-04   8.2455481e-06   6.8478199e-05   7.7326833e-05   1.6961445e-04
   8.8989027e-06   1.3257399e-04   2.9942366e-05   2.1601409e-04   2.6026228e-04   6.8155176e-05   1.6029921e-04   5.0106290e-04  -1.8770734e-04  -3.0255257e-04  -5.1380768e-05  -2.7987931e-05   8.7627886e-05   1.5588875e-04   5.1244289e-05  -2.0448759e-05   1.5008346e-04  -2.7421318e-05  -1.9549354e-05   1.6460882e-04   4.7039688e-05   2.6142525e-05  -1.9823322e-06   1.3470600e-04   3.8232171e-04   3.2440472e-05   6.0487288e-04   1.3558473e-04   1.2998867e-03   1.2340234e-04   2.7165361e-05  -2.3150949e-04   4.6347277e-04   1.8612853e-04   5.0973191e-05   2.5810787e-04   1.2816742e-04  -3.3931338e-04  -1.8934494e-04  -1.5857707e-04   1.4928945e-05  -1.1150318e-04  -2.8230704e-04   8.5120097e-05   2.7138114e-04  -1.1571938e-04   1.4376556e-05  -2.1368335e-04   6.6050699e-05  -3.9613083e-06
  -1.4829941e-05   1.3859382e-04   1.1330091e-04   2.6917402e-04  -4.6205845e-05   2.1425385e-05   2.0282868e-04   4.0576493e-04   4.2237234e-06  -2.6005160e-04  -7.1658731e-05  -1.0446139e-05   1.3401832e-04   2.1887897e-04   1.8608467e-04   5.5895711e-05   1.3004428e-04  -5.0469265e-05   1.1193138e-04   1.7948773e-04   7.0716058e-05   1.0159546e-04  -1.9620285e-04   7.9896738e-05   3.6790004e-04  -2.3506822e-05   4.3498955e-04   1.0689870e-04  -3.1749494e-04   2.5107525e-04   1.4469173e-04  -2.4416810e-04  -1.0565168e-04   1.4988289e-04  -4.9681988e-05   9.9024925e-05  -1.0241906e-04   2.2965115e-04  -1.6773977e-04   2.4769394e-04   1.2760876e-04   1.9203332e-04   3.8214630e-04  -2.8993762e-05   1.6492962e-04  -5.0116760e-05   1.7861570e-05   1.0521775e-04   5.7798465e-05   6.2469144e-06
   2.4026414e-05   1.6682295e-04   4.6049299e-05   2.3805545e-04   2.9247982e-04   1.7862041e-04   2.7617725e-04   1.0089456e-03   1.8953599e-04  -2.4897751e-04  -1.2087206e-05   8.6211810e-07   9.5847179e-05   1.6195301e-04   1.9099539e-04   6.7627647e-05   1.1100334e-04  -4.2900792e-05   2.5516670e-04   1.7156613e-04   8.3725310e-05   2.2557881e-04  -8.3315608e-05   1.0086464e-05   1.7124394e-04  -2.3219927e-05  -2.7205297e-04   1.1807933e-04   7.0132337e-05   2.9252862e-04   2.2382075e-04  -2.9207399e-04   3.8778674e-04   4.9774960e-04   5.2647258e-04   6.7963134e-05   2.2548939e-04   1.0164784e-05  -1.2760256e-04   2.1624708e-04  -7.3754949e-05  -1.2000782e-04   1.7460792e-05   1.7250809e-04   8.1514008e-05   2.3871227e-05   5.8113517e-05   4.9140977e-05   6.2871950e-05  -1.3225693e-04
   2.0521555e-05   1.9565679e-04   1.3989469e-04   2.3503967e-04   5.5243127e-05   1.1398321e-04   7.6542259e-05   6.8437931e-04  -6.6948691e-05  -2.5801899e-04  -5.9911836e-05   1.0950110e-05   7.6295881e-05   2.7727956e-04   1.2735493e-04   8.6240281e-05   9.4972209e-05  -5.0308539e-05   4.1992610e-04   1.9714175e-04   8.6990665e-05   1.5173714e-04   2.0788333e-04   9.3445502e-05   2.0801245e-04   1.6161604e-04   7.4248353e-04   3.3083724e-04  -6.7306985e-04   4.9766837e-05   3.7760714e-05  -2.2337791e-04   3.1448397e-04   2.1053445e-04   8.2677562e-04   1.3752839e-04   4.2771333e-04   4.4275803e-04   9.3609260e-06   3.9174195e-04   7.3096402e-05  -2.8694740e-05  -5.8272737e-05   1.0546642e-04   2.3065921e-04   2.6006468e-05  -2.2815386e-05  -4.9343922e-05   6.4243897e-05   6.3323925e-05
  -5.0681811e-06   1.6610064e-04   1.4234164e-04   2.2273579e-04   2.5260309e-04  -7.2346433e-05   1.0966412e-04   5.3660991e-04  -1.6159074e-04  -2.5977998e-04  -3.9157232e-05   1.4861293e-05   1.2022274e-04   8.6410764e-05   1.2781570e-07  -5.7450401e-05   9.4867501e-05  -5.5717908e-05   3.6160121e-04   1.6031218e-04   7.5740463e-05   2.8222988e-04   1.8730304e-04   8.2542647e-06   5.7266053e-04  -1.4797609e-05   4.3982649e-04   3.3511860e-05   8.5015729e-04  -1.9354660e-04   5.0398643e-04  -2.1022053e-04   2.6374677e-04   5.6101901e-05   2.0993878e-04   2.1894785e-04   5.1889755e-04  -1.8149016e-04   3.4781595e-05   7.2861469e-04  -2.4619243e-05   7.9022007e-05   1.1498926e-04   6.5142540e-06   1.5574766e-04   1.9733455e-04  -2.1292453e-05   1.1444432e-04   1.5498757e-04   7.1514718e-05
   1.0673518e-04   1.4500307e-04   8.4573447e-05   1.7591582e-04   2.0362056e-04   4.1339292e-05   6.2435414e-05   3.3911428e-04   9.4747447e-05  -2.6071109e-04  -1.4371763e-05   2.2074937e-05   9.7001481e-05   3.2620906e-04   3.6766793e-04   2.8306496e-05   1.0432804e-04  -9.1111469e-05   2.4510676e-04   1.6347406e-04   1.0393183e-04   1.4381304e-04   2.2356705e-04  -3.2016931e-05   4.1246763e-04   8.0658378e-05   4.7144777e-04   2.3804231e-04   9.9637976e-04   8.8409521e-05   6.2221941e-04  -2.3377768e-04   5.9647045e-05   8.6078271e-06   4.1576179e-05   3.5484471e-05   5.4340804e-04   9.3351287e-04   8.4220478e-04   1.5714497e-04  -2.0487116e-04   5.7245707e-06  -1.1378639e-04   1.5033495e-04   8.4070089e-05  -8.6379718e-05   9.3376120e-06   3.6111964e-05   1.4591975e-04  -1.0135660e-04
   3.4948927e-05   1.7691140e-04   7.1854709e-05   2.1601484e-04   9.5900126e-05   2.2194035e-04   3.2332077e-04   9.5902261e-04   2.3471133e-05  -2.5919374e-04  -4.0752806e-05   2.2491880e-05   4.2741256e-05   1.9456404e-05  -3.1136940e-05  -1.5397229e-05   8.3443392e-06  -9.1201327e-05   3.4098927e-04   9.2443348e-05   1.0091441e-04   8.7436965e-05   9.6291726e-05   5.1349049e-05   1.9079297e-04   1.2807403e-04   8.1287028e-04   1.7725423e-04  -2.3157090e-04   1.4913797e-04  -1.3545665e-04  -2.2804402e-04   5.9266656e-04   3.1758242e-04  -2.5245676e-05   2.7056478e-04   9.1028669e-05   2.1807231e-04   6.8627822e-04   4.5117366e-04  -2.1062992e-04   1.3560038e-04   2.8247870e-05   3.6941579e-05   1.5152106e-04  -2.7855096e-04   8.2073449e-05  -1.2707908e-04   7.1140472e-05  -1.8920506e-04
   5.4992484e-05   1.9786967e-04   9.3371127e-05   2.5429821e-04   3.3641138e-04   2.6020466e-04   2.3702865e-04   7.6789438e-05  -1.9939376e-04  -2.7447296e-04  -3.0772044e-05   6.6418106e-05   1.6087464e-05   1.0743710e-04  -3.5643461e-05   4.9864466e-05   5.2701821e-06  -4.2530621e-05  -7.8040772e-05   1.0227648e-04   1.0268916e-04   1.6525750e-04   1.5308513e-04  -5.7357222e-05   1.8145860e-04   7.3792935e-06   4.3688540e-04   4.0405238e-04   2.5861457e-04   2.9885030e-05   2.8861075e-04  -1.6794565e-04   3.4415376e-04   5.2900089e-07   6.2012281e-05   2.4169221e-04  -4.8360882e-05   3.5206912e-04   1.9911387e-05   5.6289820e-05   1.1858842e-04   1.7145343e-05   2.3039404e-04   2.1119164e-05   1.0356116e-04  -2.1656242e-05   7.1910108e-05   2.5797690e-05   1.3280338e-04   6.7188012e-05
   6.0459210e-05   1.4694991e-04   7.1252623e-05   2.1628695e-04   7.9908641e-05   4.0539546e-04  -1.1481384e-05   3.8111876e-04   6.0216735e-05  -2.2431885e-04  -1.1525606e-05   6.2732244e-05   5.3972424e-05   2.5583527e-04   3.7382264e-04   5.1051778e-05   2.3470006e-06  -1.8398139e-05  -1.3152823e-04   4.4916305e-05   9.8871562e-05   1.1911849e-04   1.4641757e-04  -2.1036001e-05   1.7222429e-04  -1.0596361e-04   4.2899215e-04   9.1334288e-05   1.3686586e-04   5.5733137e-05   6.4913169e-05  -8.3292703e-05   3.6166282e-04   4.8516347e-04   4.7282231e-04   1.3020130e-04   4.9180165e-04   7.0373164e-05   1.2903062e-04   2.1024275e-04  -8.4321066e-05   1.3264253e-05   2.8084381e-05   2.9575409e-04   1.9879194e-04   3.8515095e-04   4.9415241e-05   7.7869045e-05   8.9881127e-05   3.7792980e-04
  -5.4024495e-05   1.7730038e-04   1.1866867e-04   2.3838616e-04   5.4564276e-05   1.8730896e-05   4.9413386e-04   5.0313532e-04  -6.3973166e-05  -2.1684017e-04   8.1247399e-06   6.2815619e-05   3.8875631e-05   2.6075894e-04   3.4296684e-04  -1.0333792e-04  -4.3829124e-05  -2.2995100e-05  -1.7074271e-04   5.3133390e-05   1.1878344e-04   1.1654541e-04   2.9547189e-05  -3.3910605e-05   1.0744012e-04  -2.4041290e-05   4.4115997e-04   1.4988318e-04  -2.0118484e-04  -1.9362899e-04  -9.9642530e-06  -7.2202878e-05   2.9700117e-05   6.4814597e-04   5.3199433e-04   1.9242046e-04   4.4067742e-04   3.2310642e-04   2.0365886e-04   6.6253277e-05  -1.4962061e-04  -1.0711142e-05   3.9188270e-04   3.5692842e-04   1.5370155e-04  -6.5803797e-05   6.6069151e-05   1.3795853e-04   6.4093845e-05  -2.5567468e-04
   1.1999641e-04   2.0927707e-04   1.0707618e-04   1.9498022e-04   1.0273806e-04   6.7318674e-06   3.8332350e-04   5.6981086e-04  -3.6629797e-05  -2.0172163e-04   3.6963265e-05   5.7488243e-05  -2.4365620e-05   1.8417556e-04   8.4599124e-05   7.4279553e-05  -3.5511021e-05   1.4666612e-05   1.9632860e-04   4.6036046e-05   1.1176235e-04  -5.3775806e-05  -1.3780262e-04   9.0882349e-05   2.2768439e-04   2.2435937e-05   1.6305706e-04  -4.4416709e-05  -1.8812645e-04  -1.2773070e-04  -1.8116600e-04   8.6995497e-06   2.2124470e-04   2.4938356e-04   6.2570139e-04  -1.2019540e-05   2.7385820e-04   5.4099748e-04  -3.2814426e-04   8.7811219e-05  -1.8291596e-04   1.4179161e-05  -5.4427575e-05   7.0237642e-05   1.9993525e-04   4.8668746e-05   1.1294456e-04  -7.6727076e-05   6.7393186e-05  -6.4372660e-05
  -8.1539140e-05   1.9755955e-04   1.2907019e-04   1.7022333e-04   1.5989749e-04   2.9824933e-04   6.8520800e-05   4.4360972e-04   1.7633844e-04  -1.7025517e-04   6.1353123e-05   4.6619316e-05   1.4744771e-05   2.9172347e-04   1.2078658e-04  -3.7581220e-05  -7.7718534e-05  -3.2718101e-06   1.0869079e-04   2.3069817e-05   1.3192199e-04   2.0349176e-04  -1.5226529e-04  -6.5737004e-05   1.3487403e-04   3.1569365e-05   6.4411073e-04   8.7241788e-05  -1.2528278e-04  -7.1528048e-05   3.4343125e-04   1.6910790e-05   1.2901545e-04   1.8142555e-04   2.9951433e-04  -8.0341451e-05  -2.7147689e-05   6.6297164e-04   9.4288080e-05   1.9934983e-04   2.9554860e-05   7.3004274e-05   2.6959253e-05   6.9074602e-05   2.6425143e-04  -2.7146885e-05   5.8385151e-05   3.2288015e-05   8.3547995e-05   1.7888172e-04
   5.8805719e-05   1.8790271e-04   1.4538459e-04   1.5982008e-04   2.8326552e-04   1.5453134e-04  -9.9298550e-06   1.2624587e-04   2.9318835e-04  -1.5659952e-04   5.4961878e-05   6.1556180e-05  -4.2098382e-06   2.1787107e-04   1.0606223e-04   1.0168859e-04  -9.0620459e-05  -2.5360463e-05   2.8689377e-04   2.3199440e-05   1.4616072e-04   7.0222006e-05   9.2066446e-05  -9.6222269e-05   3.5142093e-05   8.1471524e-05   7.1534590e-04   5.8686124e-05  -5.1585579e-04   2.2161510e-04   5.6512648e-04   2.8489847e-05   2.6705785e-04  -1.2924473e-04   4.3960637e-05  -9.5268806e-05  -4.1673769e-04   1.3778101e-04  -2.0369547e-05   3.1172452e-04  -1.1726136e-04   7.2012876e-06   5.8760568e-05   6.0751663e-05   2.9253261e-04  -1.6866834e-04   2.7553810e-05   1.3116642e-04   3.8062499e-05  -1.2724596e-04
   7.9318204e-05   2.0448350e-04   1.0818031e-04   2.0358943e-04   1.9508883e-04   8.4550316e-05   1.9426960e-04   5.4756913e-04   3.2899543e-04  -1.7782734e-04   4.4350749e-05   5.5883946e-05   2.8298837e-05   2.4939401e-04   3.8167657e-04  -7.5715143e-05  -3.7689231e-05   1.1215275e-05  -1.4065272e-04   6.6529778e-05   1.3144645e-04   1.9380264e-04   1.9778544e-04  -9.2401453e-05   1.7780032e-04  -4.5327895e-05  -4.1008112e-05   5.8580885e-05   3.2262848e-04   1.6213559e-04  -3.9939082e-04   4.4134973e-05   5.6194252e-04   4.2745392e-04   2.0102726e-04   5.6565139e-05   3.6760070e-04   1.2553595e-04   5.1062868e-04   1.8531793e-04  -1.0234119e-04   1.0391795e-05   1.1983683e-04   2.6083094e-04   1.8583321e-04   1.2037061e-04   7.2509261e-05   1.6457708e-04   1.4672519e-04   4.0919986e-05
   1.0321343e-04   1.8116644e-04   1.0148813e-04   1.7897692e-04   2.4498848e-04   1.2472051e-04   1.7124637e-04   7.0595786e-05   2.9036497e-05  -1.6682653e-04   4.2013336e-05   2.3425962e-05   7.3567870e-05   2.1208976e-04   2.3136180e-04   9.7141332e-05   6.0142200e-05  -4.8660258e-06   2.0744326e-05   1.5002779e-04   1.2505117e-04   2.1139956e-04   3.0425572e-04  -3.4459790e-05   2.5729716e-04   1.2848139e-04   5.8801222e-04   2.7197241e-04  -3.7608112e-04   2.8072653e-04   1.0345635e-05   5.0360682e-06   9.1173883e-05   4.7947519e-04   1.5162380e-04   3.2871943e-05   5.4170808e-04   8.7101194e-05   2.1601890e-04  -9.8646626e-05  -1.2889456e-04  -6.3137872e-05  -8.2123079e-05   2.3185620e-04   2.0988708e-04   9.8835189e-05   1.0967482e-04  -3.2905569e-05   6.3822510e-05   2.3958134e-04
   1.8009696e-05   2.1491596e-04   1.4597416e-04   1.9248114e-04   3.4942038e-04   3.2764301e-04   2.7411288e-04   1.1030562e-04   9.1626396e-05  -1.6380135e-04   7.2421957e-05   4.1814917e-05   6.8889043e-05   3.2096572e-04   2.6988986e-04   4.6772177e-05  -2.8144597e-05   5.1191262e-05   3.2599852e-04   9.4448289e-05   1.4559804e-04   1.7088362e-04  -7.4666670e-05   3.8295551e-05   3.6307596e-04  -3.0064170e-05   3.7332467e-04   4.3467252e-04  -9.1489688e-05   3.1797739e-04   5.0324615e-04   3.5055826e-05   5.0080416e-04   6.9556438e-04  -1.2698306e-05   2.3851296e-04   1.5660080e-05  -4.0654113e-04   4.2885393e-04   3.9644892e-04   3.3859415e-05   1.2598229e-04   2.7066225e-04   9.6530821e-05   9.6127034e-05  -5.0786319e-05   1.1887781e-04   8.2700732e-05   1.0279054e-04  -1.5752771e-06
   1.1670495e-04   2.3474832e-04   1.3515212e-04   2.0109904e-04   9.1760565e-05   2.8270058e-04   2.6338946e-04   1.7731961e-04   9.9582730e-06  -1.4100540e-04   2.2251781e-05   6.4138323e-05   6.0851176e-05   3.0172712e-04  -1.2970807e-04   1.7916040e-05  -6.8884699e-05   3.4102526e-05   5.5618532e-04   6.4755848e-05   1.2651803e-04   1.2771806e-04   1.1294130e-04   6.9907379e-05  -8.6751876e-05  -2.4414443e-05   2.5838107e-04   2.6781019e-04   1.0695573e-03   4.2652795e-05   1.0542355e-04   7.8330944e-05   4.1856919e-04   5.4466393e-04   4.3405118e-04   4.5669949e-05   6.6151243e-04   2.2818372e-04  -1.9947441e-04   3.6658742e-04   3.8517596e-06   2.5382104e-05  -2.4863377e-05   1.6481259e-04   8.5810127e-05  -1.7110984e-04   1.6020217e-04   2.9262778e-04   9.5351570e-05   1.3123032e-04
