  -3.1744697e-04  -4.6242881e-04  -4.7272877e-04   1.2418849e-04  -4.2965135e-04  -1.1367803e-03  -5.3258892e-04  -6.3266256e-05  -5.2484340e-04  -1.5098535e-04   5.5564410e-04  -3.0234180e-04  -2.4523013e-04   9.3047085e-05   1.9053224e-04  -1.7726609e-04  -4.0125664e-04   2.5843453e-04   1.6391641e-04   4.5208749e-04   5.7394191e-04  -9.4803819e-04  -3.6237563e-04   3.4418883e-04   2.0513046e-04  -3.1432210e-04   1.3516346e-04  -7.3749339e-05  -6.4203446e-04   4.6830261e-05  -7.4033561e-04   7.0420865e-05   3.7758093e-04   1.4435800e-04   2.9380887e-04   4.0202664e-04   6.6704495e-04   2.1521770e-05  -1.9590325e-04  -5.7665136e-04  -1.5945357e-04   2.9314819e-04   4.2582874e-04  -1.1433985e-05   4.3503393e-04   9.5100136e-04   7.0454791e-04   1.3252627e-03   1.0578212e-03   1.5123554e-03
  -4.7032427e-04  -5.4669066e-04  -5.1985774e-04   7.4526477e-05  -3.2587512e-04  -9.0652955e-04  -3.9062765e-04   1.7255981e-04  -2.8549196e-04  -1.5455356e-04   5.9477298e-04  -2.7828853e-04  -2.7209346e-04   1.0636087e-04   3.1576958e-04  -2.0966107e-04  -4.1534918e-04   2.0912614e-04   9.5824647e-04   5.2354968e-04   6.4651115e-04  -8.1426790e-04  -3.8801646e-04   5.5750931e-04   5.6467077e-04  -5.3742438e-05  -3.0024734e-04  -2.9536083e-04   3.1722934e-04   4.7404719e-05  -1.0403713e-03   4.8879901e-05  -1.2245738e-04   7.7850009e-06  -5.4695825e-05   9.4942487e-04   1.2170614e-03  -4.7322872e-04   3.1933215e-04  -4.0751538e-04   2.3409972e-04   5.8310514e-04   6.5422175e-04   2.7118338e-04   6.9398008e-04   1.1891610e-03   9.2255085e-04   1.5959740e-03   1.3970770e-03   1.8427037e-03
  -2.1680085e-04  -2.1885328e-04  -2.9474837e-04   2.9165266e-04  -5.7774385e-05  -7.1558781e-04  -5.4613978e-04   9.3997960e-06  -1.9127365e-04  -3.6959729e-05   7.2639273e-04  -5.1373172e-05  -1.1257365e-04   1.0775746e-04   5.5300398e-04  -1.8902711e-04  -3.6820213e-04   3.0374978e-04   7.2270789e-04   6.3463277e-04   7.7033910e-04  -5.1968038e-04  -2.5168285e-04   6.2271551e-04   4.1110336e-04   1.6623503e-04  -1.1437981e-03  -6.2057581e-05  -2.0105892e-04   3.5430593e-04  -7.3186308e-04   2.1598311e-05   5.0799153e-04   1.4132705e-05   2.3390097e-04   9.5987011e-04   6.3010986e-04  -2.6273136e-05   3.0578807e-04  -2.5170500e-04   3.8747911e-04   7.0583500e-04   6.9785264e-04   3.6361872e-04   6.7111291e-04   1.3800323e-03   9.2486583e-04   1.4709801e-03   1.4126886e-03   1.8463879e-03
  -2.5469190e-04  -2.5113273e-04  -3.1502213e-04   3.0053261e-04   1.6294951e-05  -7.4817566e-04  -3.2478684e-04  -1.9906991e-04  -3.7535015e-04  -1.1925936e-04   6.5431744e-04  -1.0064877e-04  -2.0602223e-04   2.1452500e-04   1.1310103e-04  -2.9202718e-05  -3.3359873e-04   2.6632339e-04   7.6854014e-04   5.3866266e-04   6.8809825e-04  -6.4234529e-04  -4.1582089e-04   5.3057546e-04   2.6808705e-04   8.1607839e-05  -1.7371187e-04   1.1942118e-05   8.6016888e-05  -5.6016474e-05  -8.4435061e-04   6.5395594e-05   5.7510991e-04   2.5539368e-04   4.0533583e-04   6.4470939e-04   7.6657673e-04  -2.9332907e-04   1.7723578e-04  -3.5722350e-04   3.1280125e-04   5.4393453e-04   5.8137230e-04   2.5431550e-04   6.2817911e-04   1.3235137e-03   8.4112986e-04   1.5485900e-03   1.4439098e-03   1.7200317e-03
  -2.2579050e-04  -3.0182622e-04  -2.7527253e-04   3.0555879e-04   9.0508065e-06  -6.0331344e-04  -3.4002666e-04   2.3668954e-04  -2.0298897e-04  -8.6344116e-05   7.3701446e-04   3.1837935e-06  -1.0348767e-04   2.9693122e-04   4.8438599e-04   1.1134649e-04  -3.6587068e-04   3.0571409e-04   9.2596002e-04   6.6816498e-04   7.8714115e-04  -4.9299182e-04  -1.1582527e-04   7.5263332e-04   4.5151514e-04   4.4332969e-04  -3.6801968e-04  -1.1933976e-04   2.2613045e-04   4.2246433e-04  -1.4434413e-04   1.2015330e-04   8.1907329e-04   2.2523416e-05   8.2978600e-04   1.3775462e-03   9.9810970e-04   6.1420047e-05   3.4277057e-04  -5.5325765e-04   4.7660683e-04   8.6585805e-04   7.1379129e-04   5.1055237e-04   9.9217240e-04   1.2103607e-03   1.1323419e-03   1.9271622e-03   1.6234627e-03   1.9153318e-03
   1.6401067e-06   2.7614606e-05  -7.8082354e-05   5.0688104e-04  -1.0825797e-04  -7.6805643e-04  -2.0448542e-04   3.5764714e-04  -4.8064656e-05  -6.0456936e-05   8.2100398e-04   1.5486511e-04  -2.7024623e-06   2.8363432e-04   2.8079670e-05   3.0953070e-05  -2.4811126e-04   2.6126771e-04   5.9064117e-04   7.2058995e-04   8.6023094e-04  -3.8794804e-04  -1.1945863e-04   8.2365808e-04   4.6739142e-04   4.5574977e-04   1.6505335e-05   7.4187119e-05   3.7027936e-04   3.7842095e-04  -5.6674052e-04   1.0868642e-04   6.7995879e-04   2.8947691e-04   1.0137819e-04   1.1833397e-03   1.2066106e-03   1.9231952e-04   3.0783817e-04  -6.4181554e-04   5.1271223e-04   7.5345230e-04   8.4869092e-04   4.4183503e-04   9.4763853e-04   1.2575281e-03   1.0732311e-03   1.8292407e-03   1.5835828e-03   2.1181460e-03
  -1.7696794e-04  -1.3757437e-04  -1.5506339e-04   3.9165135e-04  -1.4933363e-04  -1.0719638e-03  -3.0806518e-04  -1.6343586e-04  -3.2113161e-04  -1.6855757e-04   7.0431049e-04   5.7629051e-05  -4.6350975e-05   3.2666739e-04   6.2433176e-04   7.2900235e-05  -1.6194439e-04   3.6213367e-04   8.2485127e-04   6.2208303e-04   7.1745995e-04  -5.4566463e-04  -1.8912596e-04   8.4592379e-04   7.0929126e-04   1.5976006e-04  -1.8267683e-04   1.6595944e-04   4.5267167e-04   3.3456698e-04  -7.6223043e-04   1.3695357e-04   7.0927222e-04  -3.4888224e-05   6.3119113e-04   8.7318796e-04   9.2014601e-04  -8.9824462e-06   1.1210018e-04  -3.2655546e-04   2.5943891e-04   5.2915432e-04   6.7183282e-04   3.6358868e-04   7.3946593e-04   9.6270314e-04   7.8158249e-04   1.5864215e-03   1.3711251e-03   1.7179199e-03
  -2.9493999e-04  -2.6703655e-04  -2.2966546e-04   3.1304237e-04  -1.1430184e-04  -5.9965794e-04  -1.0417400e-04   3.4944073e-04  -1.0981203e-04  -2.2887583e-04   6.7587325e-04   2.2836135e-05  -5.6117482e-05   2.7739929e-04   4.4406077e-04   7.3881529e-05  -1.9731287e-04   4.5380802e-04   3.3329162e-04   6.6290644e-04   7.5105228e-04  -3.3486157e-04  -1.3565751e-04   9.5741346e-04   4.5229771e-04   3.3168291e-04   8.0518388e-05   8.9749934e-05   4.2706408e-05   4.3554525e-04  -9.9476241e-04   5.3855943e-05   1.0455700e-03   1.9626426e-04   1.2244330e-03   1.1926688e-03   1.2504873e-03  -1.2411211e-05   9.6269615e-04  -2.4067874e-04   6.3689204e-04   8.2966109e-04   8.7889534e-04   4.9818080e-04   1.0573779e-03   1.2957368e-03   9.8952313e-04   1.6445700e-03   1.6045125e-03   1.6625146e-03
   1.3554047e-05  -5.4942488e-05  -2.4057706e-05   5.2441453e-04   1.1952141e-04   8.4592917e-05  -3.3126117e-04  -6.2536048e-05  -1.3749198e-04  -2.2919881e-04   7.8463339e-04   8.4713698e-05  -3.0632609e-06   2.6546002e-04   7.3486194e-04   1.6251839e-04   1.1810002e-05   4.8909412e-04   8.7457971e-04   7.1195682e-04   8.0315041e-04  -4.2923761e-04  -3.0705775e-04   1.0018242e-03   6.0186681e-04   4.0384303e-04  -1.6713077e-04   1.4960942e-04   7.7282719e-04   6.1777519e-04  -7.2302722e-04   1.3536705e-04   8.6674135e-04  -6.4685060e-05   4.4705087e-04   1.0179238e-03   7.9388486e-04  -5.3123344e-04   3.6475356e-04  -2.9125632e-04   6.0361851e-04   8.2148705e-04   9.4424462e-04   4.0063733e-04   9.1384439e-04   1.3944742e-03   9.2308939e-04   1.5698974e-03   1.5268041e-03   1.8523040e-03
  -1.8131052e-04  -1.0754995e-04  -8.3681218e-05   4.0445951e-04  -2.3262817e-05  -3.4661914e-04  -1.2911034e-04   7.6735261e-05   1.6337239e-05  -3.7952737e-04   6.7549013e-04  -5.2206462e-05  -1.0016200e-04   2.9690427e-04   2.6073764e-04   6.3988336e-05  -3.0709831e-05   4.8776445e-04   5.0854351e-04   6.2043994e-04   6.5605599e-04  -5.4396642e-04  -1.5818741e-04   7.8457833e-04   4.7452343e-04   2.1562958e-04  -7.0866488e-05  -1.3492237e-04   4.4173643e-04   1.3637847e-04  -8.4282644e-04   7.8751407e-05   4.6092342e-04  -4.2405637e-04   3.7171665e-04   8.7205297e-04   2.9718719e-04  -3.2970792e-04   3.1681528e-04  -4.6436398e-04   2.4619958e-04   5.9004972e-04   4.8643880e-04   2.5124499e-04   7.3918182e-04   1.1540960e-03   7.4639887e-04   1.3414196e-03   1.2800512e-03   1.3517727e-03
  -2.7809382e-04  -3.6046861e-04  -2.7061871e-04   2.5150832e-04   5.9457179e-05  -6.0289557e-04  -3.8692387e-04  -3.4201753e-04  -3.3008363e-04  -5.2295928e-04   5.3376093e-04  -1.1448145e-04  -3.2787074e-04   1.9180162e-04   3.7021824e-04  -7.3314390e-05  -2.0324567e-04   5.3663732e-04   2.5935922e-04   4.7299458e-04   5.8650074e-04  -4.1510831e-04  -2.9152591e-04   9.8269235e-04   4.0142541e-04   6.0315742e-05  -4.2611707e-04  -3.8954273e-05   1.1405960e-04   2.5960468e-04  -6.9843512e-04   1.8025152e-05   5.1480043e-04  -2.5714017e-04   5.5535772e-04   1.1665458e-03   8.4332761e-04   2.3924884e-04   1.8122050e-04  -2.7772418e-04   4.1738406e-04   7.0609845e-04   6.0497504e-04   1.1134942e-04   7.6835015e-04   1.1141493e-03   8.2466548e-04   1.2676166e-03   1.4134315e-03   1.8683115e-03
  -1.2345506e-04  -1.4486759e-04  -1.4504461e-04   4.4849992e-04   4.0935116e-05  -4.0863382e-04  -3.9896800e-05  -6.6473498e-05  -1.6844727e-04  -4.2894643e-04   6.9225382e-04   9.8318451e-05  -1.3311599e-04   2.1990843e-04   3.6451960e-04  -5.0797717e-05  -3.5232335e-04   4.1680332e-04   4.3127660e-04   5.4828322e-04   6.9830712e-04  -4.5824170e-04  -4.2212388e-04   8.8089937e-04   2.6147420e-04   1.8181888e-04  -1.6373584e-04  -3.7947379e-04   4.6415860e-04   1.5768483e-04  -4.6718368e-04   1.6520759e-04   4.8177512e-04  -1.7609238e-05   4.8250688e-04   8.3952863e-04   5.5483339e-04  -1.3501808e-04   3.0003922e-04  -2.0509744e-04   1.1375947e-04   7.7989796e-04   5.7598529e-04   1.8381712e-04   6.9442525e-04   1.3719940e-03   7.4724382e-04   1.2985996e-03   1.2539575e-03   1.5238002e-03
  -1.8256498e-04  -1.5741040e-04  -1.4180207e-04   3.3619703e-04   1.4104236e-04  -4.9561245e-04  -2.4445212e-04   6.9332018e-05  -4.1617858e-04  -5.5511540e-04   6.3862541e-04  -4.9196144e-05  -2.5992261e-04   1.2929554e-04   3.3489468e-05  -8.6187083e-06  -2.4475102e-04   4.4212464e-04   2.8566850e-04   4.5990499e-04   5.6223670e-04  -5.1164994e-04  -3.3265719e-04   7.5168972e-04  -3.7082227e-06   6.7888461e-05  -4.7521520e-04  -3.0718578e-04   7.3147916e-05   2.0653199e-04  -8.8825601e-04   5.4906777e-06   3.3565308e-04  -7.4941789e-05  -3.7250386e-05   6.9995341e-04   6.1136659e-04  -2.7081242e-04  -3.9775568e-05  -1.0536462e-04  -1.1024500e-04   4.0085727e-04   4.4244603e-04   1.8405585e-04   5.7909836e-04   9.1195200e-04   5.8519503e-04   1.1940650e-03   1.0509694e-03   1.2171825e-03
  -4.2503423e-04  -4.1134932e-04  -2.9387788e-04   1.5955936e-04  -2.8064323e-04  -1.0278643e-03  -1.6994431e-04   1.4938870e-04  -4.5511202e-04  -6.2563387e-04   5.4100278e-04  -2.3056963e-04  -3.5119051e-04   1.2320287e-04   2.1118246e-04  -7.4704876e-05  -2.7542634e-04   4.2699542e-04   4.4640212e-04   4.3640332e-04   5.5484899e-04  -5.4868893e-04  -2.1604419e-05   8.7356841e-04   2.8127970e-04  -2.3784232e-05   9.2711060e-05  -2.3727142e-04   6.9398216e-06   1.1609279e-04  -6.1153789e-04   7.6807592e-06   6.3871464e-04  -3.6717152e-05   5.1133631e-04   8.7033102e-04   8.5291959e-04  -1.6139334e-04   1.2650745e-04  -4.2027142e-04   8.5706808e-05   5.7659642e-04   2.9548851e-04   3.1544693e-04   6.9295976e-04   9.3670719e-04   7.0859079e-04   1.2354805e-03   1.2522105e-03   1.4967513e-03
  -2.4167771e-04  -1.9761801e-04  -1.1802367e-04   3.8588219e-04  -8.5012340e-05  -4.0961665e-04   6.8634261e-05  -5.8304809e-05   6.3423089e-05  -5.4932717e-04   6.8750768e-04  -1.1522620e-04  -2.4547437e-04   1.1843441e-04   6.5977394e-04   6.0300870e-05  -2.9474997e-04   5.3312938e-04   5.8229093e-04   4.7130702e-04   6.1872654e-04  -5.0491095e-04  -5.2515109e-04   8.0102682e-04  -3.5929323e-05   3.2980464e-05  -4.3895596e-04  -2.4794386e-04   6.4530800e-04   1.8430741e-04  -6.8030844e-04   1.7181206e-05   4.9451709e-04  -3.6837788e-05  -1.6662178e-05   9.0795005e-04   7.2218070e-04  -5.3386600e-04   5.3411629e-04  -5.2749290e-04   2.3541540e-04   5.4532295e-04   4.6045208e-04   2.4111882e-04   5.3960306e-04   9.5880247e-04   5.7965075e-04   1.0804037e-03   1.1191436e-03   1.4964014e-03
  -2.7969922e-04  -3.0356925e-04  -1.9926523e-04   2.3423387e-04  -2.5058654e-04  -7.8871782e-04  -1.8768376e-04   3.2095457e-04  -1.7128771e-04  -6.3315092e-04   6.0064899e-04  -2.2492606e-04  -4.3975766e-04   6.0954037e-05  -8.0394544e-05   1.1701016e-05  -2.1198839e-04   5.2037707e-04   3.9919215e-04   3.5989561e-04   4.9276452e-04  -8.5454481e-04  -2.9546086e-04   5.8607687e-04   2.3603207e-05  -2.1596842e-04  -2.8602759e-04  -2.7669786e-04   1.0572442e-04   2.4217536e-04  -1.3876861e-03  -1.5131405e-06  -4.6324374e-05  -2.2915569e-04  -1.7989980e-04   3.4127524e-04   2.6971646e-04  -3.3793470e-04   2.7067974e-04  -7.7978917e-04  -2.0236711e-04   2.7808890e-04  -6.4974185e-05  -2.8871282e-05   4.3490404e-04   8.3952147e-04   4.4567310e-04   7.8237243e-04   8.5912104e-04   1.2126380e-03
  -4.6332410e-04  -4.9547339e-04  -4.0421693e-04   1.8643907e-06   2.6182368e-05  -7.1814022e-04  -4.1604985e-04  -1.2897789e-04  -4.8227224e-04  -6.8468694e-04   4.5948676e-04  -3.9150959e-04  -5.1271776e-04  -6.4445212e-06  -1.3028986e-04   7.1500588e-05  -3.8332050e-04   4.5766321e-04   3.9349761e-04   3.3658667e-04   4.8058946e-04  -6.8938138e-04  -8.0335664e-04   7.0745597e-04  -8.0127429e-06  -1.3945064e-04  -2.2800842e-04  -2.0296975e-04   1.8946246e-04   1.9077802e-04  -1.0620169e-03  -9.3110270e-05   4.3750371e-04  -1.7148445e-04   2.1971858e-04   7.0751732e-04   4.0558112e-04  -5.0191279e-04   1.5447869e-05  -2.7019312e-04  -1.4460454e-05   4.8512191e-04   2.4340591e-04  -2.3418948e-05   5.4515147e-04   7.9825864e-04   5.8781094e-04   8.6265069e-04   1.1288060e-03   1.4273871e-03
  -2.6293300e-04  -2.2381426e-04  -2.0366999e-04   2.6672866e-04   1.3283342e-04  -5.1176234e-04  -2.5982401e-05  -2.8073986e-05   4.5076325e-05  -5.5200252e-04   6.3785422e-04  -3.2436912e-04  -3.7364528e-04   6.0560535e-05   4.5103059e-04  -2.3801980e-05  -4.6758389e-05   5.7605270e-04   8.7480730e-05   4.0806073e-04   5.2593049e-04  -7.0687896e-04  -4.0151706e-04   5.6875608e-04   6.7401474e-04  -1.4327839e-04  -3.3316016e-04  -3.7541380e-04   4.9709337e-04   1.1353051e-04  -5.4652034e-04  -2.2921092e-06   2.0364532e-04   2.2455657e-04  -1.4262326e-04   7.1484549e-04   7.3663064e-04  -3.4224251e-04   7.3246210e-04  -6.4006122e-04  -8.0945341e-05   3.4068490e-04   2.6449491e-04   3.3087483e-05   4.1591466e-04   9.0323703e-04   3.9642720e-04   7.8587519e-04   1.0046533e-03   1.3998320e-03
  -4.4994676e-04  -3.8309538e-04  -3.5157334e-04   9.9940567e-05  -1.0798379e-04  -7.7591813e-04  -9.9918128e-05   1.9392010e-05  -2.2780211e-04  -5.8313826e-04   5.4557057e-04  -4.5800855e-04  -5.3900707e-04   5.8413832e-05  -3.5733030e-06  -2.8523369e-05  -1.3687329e-04   6.1866280e-04   1.3228138e-04   2.6638558e-04   4.1587246e-04  -7.8428764e-04  -5.4142944e-04   4.9365585e-04   1.2368099e-04  -2.9323061e-04   1.0537438e-04  -2.6303253e-04  -2.2140831e-04  -8.3353792e-05  -1.1639181e-03  -4.1306415e-05   6.4297456e-05  -1.0902062e-04   3.4095123e-04   4.1632945e-04   5.4534391e-04  -9.0731264e-05   6.4514315e-05  -7.5777096e-04  -3.1553590e-04   9.0359521e-05  -8.5758102e-06  -2.1822368e-04   2.9253925e-04   8.2803785e-04   2.1462700e-04   8.7356317e-04   8.5778633e-04   1.0469445e-03
  -6.6982012e-04  -5.9709093e-04  -4.8118015e-04  -1.2012087e-04  -2.1981489e-04  -1.1073172e-03  -4.4663134e-04  -2.7244480e-04  -3.2253683e-04  -6.7880965e-04   3.7738355e-04  -6.1292818e-04  -7.3390803e-04   6.6452878e-05  -9.8687604e-05  -1.5648403e-04  -2.5053020e-04   4.8606016e-04   4.7439951e-04   1.4305493e-04   2.4753498e-04  -1.0984199e-03  -8.1016548e-04   8.7050677e-05   1.7382563e-05  -5.0744397e-04  -3.1950205e-04  -5.1826093e-04  -1.0177321e-05   1.0476461e-04  -5.9438468e-04  -2.1393446e-04  -6.9602742e-04  -6.1373384e-04   7.9228033e-05   9.1826303e-05   3.1400567e-05  -1.4864399e-04  -5.3610005e-05  -5.0076336e-04  -3.8934057e-04   2.0365542e-05  -2.2344037e-05  -2.5264232e-04   2.0497636e-04   7.3848868e-04   3.6509973e-05   7.2228542e-04   8.6868508e-04   1.1174463e-03
  -6.5643090e-04  -5.8705889e-04  -6.0145563e-04  -9.8526631e-05  -3.0172899e-04  -1.1525756e-03  -2.2392199e-04   2.3957207e-04  -1.0484042e-04  -5.4638612e-04   4.2544829e-04  -5.1796692e-04  -5.7428412e-04  -9.3048038e-06  -3.3404285e-05  -3.6845384e-05  -2.9289987e-04   4.4833019e-04   3.5095020e-04   2.0850712e-04   4.1665396e-04  -8.8775443e-04  -5.4066000e-04   4.7448263e-04  -1.2070831e-04  -2.7029053e-04  -7.6396979e-04  -4.1836331e-04   5.0736964e-04   1.0805231e-04  -8.1958942e-04  -1.1935745e-04   2.2039370e-04  -1.8290301e-04   2.0268212e-04   4.2685098e-04   7.7874283e-04  -4.3637582e-04   4.7211413e-04  -6.4940646e-04  -3.6315629e-04   1.9379886e-04   5.0989282e-05  -2.9401531e-04   2.0711048e-04   9.1505377e-04   1.9331060e-04   8.8585034e-04   9.3216164e-04   1.1829517e-03
  -5.4149743e-04  -4.3890820e-04  -5.0597638e-04  -7.1709305e-06  -2.0444066e-04  -9.7138732e-04  -3.9278483e-04   3.4434386e-04  -3.0803628e-04  -4.5611884e-04   4.8322728e-04  -4.3990801e-04  -5.8863248e-04  -3.3037832e-05  -2.0346670e-04  -1.1016695e-04  -2.3632801e-04   5.0402869e-04   8.8657274e-05   2.2121768e-04   4.0397685e-04  -8.3353213e-04  -6.0281419e-04   1.7072767e-04   3.4281187e-04  -4.4141311e-04   2.7603992e-05  -3.9809209e-04   1.1492758e-04  -2.6915144e-05  -1.0447197e-03  -1.2473729e-04  -1.2438210e-04  -9.8842880e-05   1.3841194e-04   3.1058161e-04  -1.6628938e-04  -5.6776765e-04   3.2226424e-04  -6.5119320e-04  -2.0225563e-04   2.1549492e-04   2.2489799e-04  -1.6258429e-04   2.4038264e-04   6.5098202e-04   1.6152688e-04   8.8673137e-04   8.0092461e-04   7.0111110e-04
  -7.2591862e-04  -5.2839465e-04  -5.3192338e-04  -1.5972926e-04  -1.3532402e-04  -1.0633079e-03  -2.7706323e-04   1.1871591e-04  -4.5151851e-04  -5.3390802e-04   3.8035531e-04  -5.8408489e-04  -7.2576798e-04  -2.1804361e-04  -2.3875911e-04  -2.7567957e-04  -3.0918786e-04   4.5170588e-04  -1.5217099e-04   1.0802553e-04   2.7533667e-04  -1.0510258e-03  -6.0084881e-04   1.3653131e-04   2.4285293e-05  -5.6373083e-04  -3.6105231e-04  -5.9714168e-04   3.4229312e-04  -6.8704780e-05  -1.4523831e-03  -1.0356158e-04  -1.8326694e-04  -4.9503444e-04  -4.2612027e-04  -4.9547511e-05   9.5537807e-06  -5.9719878e-04   2.1685289e-04  -1.0231852e-03  -4.7262094e-04  -1.2621513e-05   8.3464925e-05  -4.0286622e-04   8.1333746e-05   6.9038675e-04   6.6948851e-05   7.0396671e-04   6.1048311e-04   6.1022118e-04
  -7.7038683e-04  -7.2446838e-04  -7.5009477e-04  -3.3716331e-04  -2.0462307e-04  -1.2362973e-03  -3.4987187e-04  -5.2356120e-04  -6.0444709e-04  -5.9511064e-04   2.2355137e-04  -6.6482573e-04  -8.8246318e-04  -2.4787075e-04  -2.6210581e-04  -6.2426314e-04  -4.3247876e-04   3.9087536e-04  -3.6366525e-04  -2.0318292e-05   1.1085353e-04  -1.3425236e-03  -6.1789824e-04  -5.1372779e-05   4.3328539e-05  -7.5880438e-04   2.3236775e-04  -6.1272609e-04   4.3632498e-04  -2.6720259e-04  -1.4047570e-03  -3.4932379e-04  -1.9569174e-04  -4.4024779e-04  -6.0341001e-04   1.5370741e-05   3.0637722e-04  -3.2372074e-04  -7.7414632e-05  -5.4060214e-04  -5.2687660e-04  -5.9512051e-05   1.6091994e-04  -1.5634272e-04   1.6845467e-04   5.2376260e-04   9.6999378e-05   8.7569264e-04   7.6649530e-04   1.3633069e-03
  -6.4856018e-04  -5.2603264e-04  -6.5815676e-04  -1.7134658e-04  -2.9494136e-04  -8.4624602e-04  -3.1946646e-04  -3.4178962e-04  -4.1996143e-04  -4.0146674e-04   4.1785679e-04  -5.4281252e-04  -7.8281446e-04  -2.2704416e-04  -3.8698068e-04  -3.1882984e-04  -4.5165062e-04   3.8264762e-04   2.5335228e-04   8.1752885e-05   3.3851955e-04  -9.7372028e-04  -5.9562211e-04   2.8496847e-04   1.3352944e-04  -4.4475985e-04   2.1110200e-04  -5.7121989e-04  -3.9536308e-04  -2.6381109e-04  -7.3084928e-04  -2.5257110e-04  -2.1510337e-04  -5.1700301e-04   1.4154566e-04   7.0253205e-05   5.0453248e-04  -2.0687809e-04  -1.3386870e-04  -7.8105036e-04  -4.3936883e-04   1.7628787e-04   2.3457309e-04  -4.1449041e-04   1.4749507e-04   4.8654986e-04   1.3892924e-04   8.9400786e-04   8.0156809e-04   1.1774801e-03
  -6.5198285e-04  -5.2778557e-04  -6.5592868e-04  -2.1131583e-04  -3.5972870e-04  -1.3747367e-03  -3.5161388e-04  -1.1143462e-04  -3.5522712e-04  -4.1128875e-04   3.9793129e-04  -5.7898619e-04  -7.4451539e-04  -2.1811396e-04  -7.0154318e-04  -3.4584303e-04  -4.9950834e-04   4.1621295e-04  -2.0823859e-04   7.2765884e-05   2.4553610e-04  -1.0820174e-03  -5.1931635e-04   1.4478853e-04   2.2195173e-04  -5.3392118e-04  -2.6407812e-04  -7.3815766e-04   4.1834044e-04  -5.2830653e-04  -1.2437877e-03  -2.1847388e-04  -5.3832441e-04  -4.5010154e-04  -5.2471337e-04  -6.5915367e-05  -1.3219990e-04  -5.9955101e-04  -2.5413526e-04  -7.0400513e-04  -5.1578728e-04   3.9931638e-05   2.1902968e-04  -2.9649076e-04   1.0210300e-04   7.6964946e-04  -4.8814567e-05   7.2562246e-04   6.1633135e-04   7.8606413e-04
  -8.4157434e-04  -6.6989003e-04  -7.9198234e-04  -3.6619059e-04  -4.5989692e-04  -1.3453565e-03  -5.4920826e-04  -4.0611639e-04  -3.2165187e-04  -5.0291920e-04   2.6760713e-04  -6.8703655e-04  -8.1203697e-04  -1.2862527e-04  -3.8394009e-04  -4.5693133e-04  -4.3824568e-04   3.4297889e-04   1.9852951e-04  -3.5352903e-05   1.0159003e-04  -1.0288780e-03  -1.1997457e-03  -2.1659565e-04   1.5412678e-04  -8.0279127e-04  -2.9496223e-04  -5.1549397e-04  -1.6855789e-04  -3.5366317e-04  -1.1841105e-03  -2.7925632e-04  -7.6246000e-04  -7.5150141e-04  -8.1432110e-04  -2.7951133e-04  -6.7747962e-05  -5.0836738e-04   1.4782383e-05  -1.0396870e-03  -7.3676481e-04  -1.0601887e-04   2.4542911e-04  -4.1983349e-04   1.8679895e-05   8.5864984e-04  -2.3686541e-04   8.1925339e-04   6.5568928e-04   6.7490432e-04
  -8.0953975e-04  -6.6880981e-04  -7.4226968e-04  -3.3997183e-04  -5.5387494e-04  -1.1241036e-03  -6.0749863e-04  -4.0621453e-04  -5.0049304e-04  -4.2888889e-04   2.6622892e-04  -6.5254630e-04  -8.1062870e-04  -3.0218970e-04  -2.9639940e-04  -3.7904887e-04  -4.7083350e-04   2.7875300e-04   1.3994559e-04  -7.7248014e-06   1.9446079e-04  -1.1075730e-03  -7.3630863e-04  -3.1230975e-06  -9.6438947e-05  -4.7552554e-04   1.1812489e-06  -6.1289105e-04   5.6506891e-04  -1.9795870e-04  -1.0853071e-03  -2.5126786e-04  -1.6243676e-04  -4.1570171e-04  -4.4337346e-04   1.5627667e-04   2.5216641e-04  -7.1481161e-04   4.1628367e-04  -5.3722522e-04  -4.3477429e-04   2.7938268e-05   1.8707948e-04  -3.7797051e-04   2.0063636e-04   4.3675496e-04  -9.8630517e-05   8.0045848e-04   7.4923161e-04   9.2764967e-04
  -6.9747958e-04  -5.3542136e-04  -7.1634329e-04  -2.9914439e-04  -2.9904925e-04  -1.2381492e-03  -5.0257897e-04  -1.7407691e-04  -5.0788914e-04  -3.7120699e-04   3.0249899e-04  -5.9400866e-04  -7.9369784e-04  -1.3290181e-04  -3.7177431e-04  -5.9274666e-04  -6.1373040e-04   3.4101497e-04  -2.8378144e-04   1.8877367e-05   1.9631193e-04  -1.0687711e-03  -8.1354310e-04   1.0353476e-04   3.6162455e-04  -6.1040866e-04  -7.7219331e-04  -7.1822607e-04   3.7773687e-04  -2.8700550e-04  -9.4789889e-04  -3.0954147e-04  -2.2380806e-04  -7.9392380e-04  -2.2538117e-04   1.3563412e-04  -1.9709612e-04  -6.9463585e-04   7.2162625e-06  -1.0368659e-03  -5.1779946e-04   1.1994934e-04  -1.4116526e-05  -4.3965608e-04   5.0007900e-05   9.3766989e-04  -2.6761141e-04   6.8128092e-04   6.8957225e-04   6.4139027e-04
  -8.6246466e-04  -6.7497196e-04  -7.6893606e-04  -4.1089224e-04  -6.4722484e-04  -1.3468352e-03  -7.3322828e-04  -4.7631079e-04  -9.0041832e-04  -4.3323409e-04   1.6339603e-04  -6.7603454e-04  -8.6294831e-04  -3.7355014e-04  -3.9061572e-04  -4.5947038e-04  -4.3480186e-04   2.0799966e-04  -2.6359517e-04  -1.4106504e-05   1.9484291e-05  -1.1782531e-03  -1.0124341e-03  -2.2904166e-04  -1.7772401e-04  -7.9919997e-04  -8.1480498e-04  -7.9025415e-04   5.4371758e-05  -2.0837496e-04  -1.8751479e-03  -4.1479428e-04  -5.2640284e-04  -7.2143192e-04  -8.2992989e-04  -5.1483483e-04   1.5187482e-04  -9.2918135e-04   1.3501610e-04  -8.7914948e-04  -4.8363171e-04  -1.4011294e-04   8.5237531e-05  -3.0385406e-04   1.7085164e-04   4.8598138e-04  -3.1889387e-04   8.1100321e-04   7.3737337e-04   1.0171612e-03
  -8.7948644e-04  -6.2042766e-04  -7.7304104e-04  -4.2579489e-04  -6.8671122e-04  -1.5207329e-03  -3.9055839e-04   1.1134156e-04  -6.1982294e-04  -3.7778923e-04   1.7282505e-04  -6.4621179e-04  -7.7491259e-04  -2.5819635e-04  -2.4854633e-04  -3.9153887e-04  -3.3044774e-04   2.8056488e-04  -6.4556400e-05   7.2886549e-05   1.6004925e-04  -1.0688801e-03  -5.1164936e-04   2.8535894e-06   3.5086938e-04  -4.9058237e-04  -2.7219078e-04  -4.1916964e-04   2.0641238e-04  -4.2408930e-05  -1.4458289e-03  -3.2690054e-04  -5.8778131e-04  -2.1196158e-04  -9.2906528e-05   2.7336730e-04   4.8021635e-04   1.7113773e-04  -7.6054981e-05  -7.4690254e-04  -1.4132056e-04   7.6369637e-05   1.0357916e-04  -2.4609052e-04   3.3802344e-04   1.0960425e-03  -1.9094978e-04   1.0000307e-03   9.4995886e-04   1.3651174e-03
  -6.8490492e-04  -4.4562999e-04  -6.2320422e-04  -2.8816753e-04  -6.8641198e-04  -1.1908351e-03  -6.3257175e-04  -2.2590511e-04  -5.0244766e-04  -2.8618655e-04   2.3633987e-04  -5.6909490e-04  -7.2636612e-04  -3.7664335e-04  -6.8876085e-05  -4.8412941e-04  -4.4480554e-04   3.6052373e-04   2.1929050e-05   9.5682117e-05   2.1204675e-04  -1.0899924e-03  -6.6029315e-04  -2.5969410e-05   2.3391015e-04  -5.9308653e-04  -1.3399063e-04  -5.7141238e-04   2.4460832e-04  -3.0648138e-04  -9.4792468e-04  -2.7885678e-04  -2.5680702e-04  -4.0343640e-04  -3.7551651e-04   7.2022867e-06   3.1722107e-04  -3.1749217e-04   1.3214712e-04  -1.0396922e-03  -4.8779533e-04   1.3558098e-04   1.4090791e-04  -3.4572274e-04   3.3604514e-04   8.4196962e-04  -7.4531767e-05   7.2464353e-04   7.3666713e-04   7.8588643e-04
  -5.9712242e-04  -4.4690620e-04  -6.8268919e-04  -2.9053210e-04  -4.5898202e-04  -1.1417512e-03  -7.0449873e-04  -1.0720869e-04  -5.7856878e-04  -2.8570427e-04   2.3803841e-04  -4.7317462e-04  -7.2410813e-04  -1.1997747e-04  -1.9904970e-04  -4.2223348e-04  -5.8913411e-04   3.3866544e-04  -4.3555794e-04   1.3937230e-05   1.6640607e-04  -1.1892102e-03  -7.1740162e-04   7.2215487e-05   9.9676159e-05  -5.3766352e-04   1.3546518e-04  -7.2781451e-04  -1.2343690e-04  -2.7628741e-04  -1.7749249e-03  -3.6320661e-04  -6.0050387e-04  -5.2427739e-04  -7.6536939e-04  -3.9933412e-04  -2.4865172e-04  -7.9202733e-04  -4.7393097e-04  -1.2887428e-03  -7.6584029e-04  -2.6542609e-04  -9.9148216e-05  -3.2230702e-04   1.6082116e-04   6.7016203e-04  -3.8632649e-04   5.8968709e-04   7.7314279e-04   5.8830966e-04
  -8.0349488e-04  -5.1491952e-04  -5.5002258e-04  -3.4733120e-04  -2.6178881e-04  -9.2312484e-04  -3.4869745e-04   1.7425691e-04  -3.8652512e-04  -3.1361647e-04   1.5158512e-04  -4.3947514e-04  -6.6697015e-04  -2.8882283e-04  -4.0742685e-04  -4.6388528e-04   1.4082369e-05   3.9554798e-04  -1.3051540e-04   1.3372499e-04   1.9140787e-04  -8.5638522e-04  -8.0534269e-04   3.5875433e-05  -1.2707043e-05  -3.2423792e-04  -6.5013178e-04  -4.4502312e-04  -4.6220128e-05  -1.7114386e-05  -5.7438324e-04  -2.0190496e-04  -1.2649335e-04  -9.7529621e-05  -4.6399015e-05   1.6188165e-04   1.9164869e-04  -5.4815726e-04   9.0396745e-05  -2.7308922e-04   3.1278990e-04   4.6956926e-04   7.0447009e-04  -1.0441579e-04   4.6389815e-04   8.6409855e-04  -9.0439949e-05   7.5068686e-04   9.2134468e-04   1.2124332e-03
  -5.3028541e-04  -3.2013268e-04  -4.6842132e-04  -1.5579215e-04  -4.4758932e-04  -1.1690141e-03  -3.4130167e-04  -2.3053271e-04  -3.1986841e-04  -9.3496645e-05   1.7778926e-04  -2.0655425e-04  -4.7167161e-04  -1.0947918e-04  -2.9289967e-04  -2.8436870e-04  -1.6006983e-04   3.1642939e-04  -2.6549803e-04   2.2305839e-04   3.3797143e-04  -7.2109769e-04  -6.2811864e-04   1.9116455e-04  -1.4701442e-04  -3.2848396e-04  -2.6101424e-04  -1.2852106e-04  -2.7190745e-04   1.5601370e-04  -1.1558274e-03  -1.1168403e-04  -1.4555585e-04  -2.0102714e-04   7.0747505e-05   3.3386168e-04   2.2480260e-04  -1.4302094e-04   1.8856807e-04  -3.6251280e-04   6.1966648e-04   4.9223175e-04   1.0006309e-03  -1.2033359e-04   3.3551076e-04   9.6405920e-04  -1.8343327e-04   7.6619931e-04   9.7364624e-04   1.0295198e-03
  -6.5578707e-04  -5.4904417e-04  -3.8869670e-04  -2.4487928e-04  -2.2822439e-04  -1.0938408e-03  -4.0019772e-04  -2.4325262e-04  -3.8411681e-04  -1.6484974e-04  -4.5673671e-05  -1.9927981e-04  -5.5834779e-04  -2.4599134e-04  -1.6587721e-04  -3.3073055e-04  -7.5191114e-05   2.1385455e-04   1.7860784e-04   1.7588795e-04   2.1046597e-04  -7.9613127e-04  -4.1992980e-04   3.1329701e-06  -2.3674480e-04  -3.2518173e-04  -1.0083885e-03  -1.3794749e-04  -3.7245871e-04  -6.3458356e-05  -1.2958053e-03  -1.6150730e-04   6.3409020e-06  -3.2114290e-04  -1.3559127e-04  -2.3451391e-04  -1.9137314e-04  -6.1306497e-04   1.0136313e-04  -7.0042443e-04   7.8067381e-04   8.6907996e-04   1.1413906e-03  -9.8384560e-05   3.2763142e-04   7.0266507e-04  -5.6531302e-05   9.5821329e-04   7.0044806e-04   9.5772278e-04
  -7.6570775e-04  -6.1508571e-04  -5.2958401e-04  -2.7898673e-04  -5.6465005e-04  -1.0918378e-03  -5.6599296e-04   1.5508142e-04  -6.1808818e-04  -6.8262678e-05   9.1748123e-05  -7.2315779e-05  -5.5161654e-04  -1.2710628e-04  -1.9334155e-04  -2.2397553e-04  -6.1281672e-04   2.2484435e-04   1.6118241e-04   1.5187764e-04   3.4777066e-04  -7.6723081e-04  -6.8114535e-04   3.2959704e-04  -4.2026406e-04  -2.2012764e-04  -4.6530395e-04  -2.7439272e-04   1.1118248e-05  -2.5252358e-04  -8.4583642e-04  -1.0538294e-04  -7.2630493e-05  -3.2583994e-04   7.7835808e-04   4.0639899e-04   4.4668932e-04  -5.8475224e-04  -1.3374317e-05  -2.6092798e-04   9.7099692e-04   1.1259682e-03   1.1446628e-03  -1.0320294e-04   5.3785084e-04   1.0977667e-03   4.3899444e-04   8.8523090e-04   1.0315357e-03   1.1932073e-03
  -3.2760974e-04  -2.2866347e-04  -2.5095322e-04   5.7683261e-05  -4.8665580e-04  -9.2254241e-04  -2.0655096e-04  -4.1030277e-04  -3.0696896e-04   1.8573955e-05   2.4883071e-04  -4.2400887e-05  -3.0297693e-04  -4.6761012e-05   4.0592939e-05   4.9464429e-06  -2.9784272e-04   2.8382073e-04  -3.3438500e-05   2.9368736e-04   4.6918759e-04  -5.5089081e-04  -1.6314570e-04   4.1510008e-04  -2.5054961e-04  -8.5482076e-05  -4.7324470e-04  -9.2617542e-05   6.0703802e-05   1.4850011e-04  -4.3797435e-04   4.9652270e-05   5.7721703e-04  -1.3205025e-04   3.8109938e-04   2.5779926e-04   2.0453121e-04  -1.2703644e-04   3.0169118e-04  -3.9915764e-04   9.0148323e-04   1.2246681e-03   1.0890991e-03  -6.5290093e-05   5.8396434e-04   8.1539311e-04   5.5090670e-04   7.5359561e-04   9.4832096e-04   1.4251629e-03
  -2.9302179e-04  -2.2717424e-04  -1.7146042e-04   4.5771383e-05  -2.9284816e-04  -9.7437587e-04  -2.3018417e-04   2.3563731e-05  -1.9256842e-04   6.2976364e-06   2.5695830e-04   9.1157628e-05  -3.0401626e-04  -1.0775960e-05  -7.7325567e-05  -6.1646148e-05  -4.4071276e-04   3.3562942e-04   2.2406851e-04   2.7493914e-04   4.5488263e-04  -6.5337843e-04  -4.8275932e-04   3.0124729e-04   1.4049615e-04  -1.1573455e-04  -3.0576272e-04  -1.5474438e-04   2.2777541e-04  -7.5912983e-05  -6.2068109e-04  -1.4595628e-04   7.0561108e-04  -4.9455393e-05  -7.0543174e-04   2.7658645e-04  -1.0461602e-04  -6.3159439e-04   1.1502570e-04  -9.1605791e-04   5.2368158e-04   1.1032713e-03   9.1269665e-04  -2.0187143e-04   5.1132200e-04   6.0959626e-04   5.5529573e-04   6.4146600e-04   7.9511653e-04   9.9256041e-04
  -3.9962603e-04  -3.4369808e-04  -2.0781611e-04  -5.9206399e-05  -2.7116609e-04  -1.1180968e-03  -4.7875207e-04  -5.0979102e-04  -6.8092736e-04  -1.3789169e-04   1.6608565e-04  -1.5941272e-04  -3.8908047e-04   4.5460329e-05   7.3694668e-05  -2.9344499e-04  -3.9731947e-04   2.6242717e-04   3.9948434e-05   2.3333089e-04   3.1507347e-04  -7.3627866e-04  -3.6590028e-04   9.6146548e-05  -2.5906245e-05  -2.8429917e-04   2.0988291e-04  -4.0711777e-05  -1.1174601e-03  -2.0181517e-04  -4.8618019e-04   5.2899463e-06  -7.7705343e-05  -4.2612868e-05   1.3848954e-04   1.2407168e-04   1.7791128e-05  -1.0215563e-03  -1.7885322e-05  -2.8503998e-04   4.8092377e-04   8.8633504e-04   7.5085397e-04  -1.3123083e-04   5.3008704e-04   7.9324516e-04   3.8071687e-04   8.0110657e-04   1.0298169e-03   1.1169745e-03
  -3.2871799e-04  -2.2417054e-04  -4.7511166e-05   1.4985612e-04  -2.3079960e-04  -9.0048759e-04  -5.3148560e-05   1.8152497e-04  -2.3919728e-04  -5.9463928e-05   3.2695360e-04  -1.3259519e-04  -1.8624919e-04   1.3111714e-04   1.0516640e-04  -5.3353131e-05  -1.1671354e-04   3.7842532e-04   2.6977051e-04   4.0463137e-04   5.2249769e-04  -3.9369229e-04  -1.7049961e-04   4.1675568e-04   2.5626186e-05   2.6009198e-05  -7.7383243e-04  -6.4739202e-06   1.1782342e-04   1.0276077e-04  -7.2345239e-05  -2.6653463e-05   2.1493668e-04   1.6887314e-04   2.6622807e-04   3.7568764e-04   3.9678439e-04  -8.3605097e-05   1.2811125e-04  -6.3542381e-04   7.8109058e-04   1.0502638e-03   8.4804848e-04  -1.3074502e-06   6.7392294e-04   8.9103641e-04   4.5475140e-04   7.3323678e-04   1.1333150e-03   1.3573328e-03
  -2.1721277e-04  -1.3636425e-04  -2.2793032e-05   1.1995606e-04  -1.6827100e-04  -1.0422085e-03  -1.0807872e-04  -5.6391355e-04  -2.5940765e-04  -9.5145166e-05   2.8152062e-04  -1.7586657e-04  -2.9345561e-04   1.4074107e-04   4.2627944e-05   8.3472878e-06  -2.7639084e-05   2.5706380e-04   3.6690399e-04   3.7939067e-04   4.5571104e-04  -4.9883651e-04  -1.9305498e-05   3.6852332e-04   9.4495474e-05  -6.0892955e-05  -2.1885784e-04   1.5951662e-04  -3.5349083e-05   1.0115866e-04  -3.3169764e-04   1.2769891e-04   7.2430226e-04   1.5566620e-04   3.8762070e-04   2.8135121e-04   2.6852501e-04  -9.9052244e-04   7.0755841e-04  -6.3010777e-04   7.8707963e-04   9.3310332e-04   9.2938723e-04   1.8320705e-05   5.4922758e-04   5.4909516e-04   3.2236811e-04   7.2540704e-04   9.7312144e-04   1.2944802e-03
  -4.4978660e-04  -2.6866590e-04  -1.0837391e-04   1.7111921e-05  -5.7499259e-05  -9.3800819e-04  -5.3139549e-05   1.4250832e-04  -3.2589835e-04  -2.0417449e-04   1.6097429e-04  -2.3441533e-04  -3.3738129e-04   2.6925401e-05   7.6854794e-06  -7.8468125e-05  -9.0692833e-05   3.1479221e-04   5.2579540e-05   2.5055755e-04   3.2572824e-04  -6.4328470e-04  -2.5808637e-04   4.8439590e-05  -2.1829504e-04  -1.5637191e-04  -5.8674788e-05   2.1594376e-04  -1.6057927e-05   5.4586089e-05  -1.9606728e-04   1.4143832e-05   1.0877564e-04  -9.4938419e-05  -1.1152583e-04   8.4589890e-05  -1.6732705e-04  -7.0967810e-04   8.0759499e-05  -6.0394208e-04   5.2795815e-04   7.9791452e-04   1.0104774e-03  -1.2470844e-04   4.0826769e-04   4.4537036e-04   1.2711241e-04   6.9920905e-04   8.3217066e-04   1.1849895e-03
  -4.4922391e-04  -4.0809435e-04  -1.6457427e-04  -2.6222740e-05  -3.8689401e-04  -5.5292592e-04  -9.1155460e-05  -9.1527516e-05  -3.9205150e-04  -2.3024956e-04   1.3988296e-04  -2.8241891e-04  -3.2476222e-04  -3.2721905e-06   1.6138972e-04  -8.9166475e-05  -8.3930056e-05   2.7830337e-04   2.0968923e-04   2.8860080e-04   3.6727556e-04  -5.3382327e-04  -1.5694130e-04   2.2614159e-04   1.0283765e-04   3.6902689e-05  -3.5012039e-04   1.4032607e-04  -6.9378395e-05  -3.3484077e-05  -6.6659995e-04   9.8074179e-06   2.2023750e-04   7.0346864e-08   3.3312163e-04   5.3082890e-04  -1.0958716e-04  -1.5768853e-04   5.2987254e-04  -3.4953287e-04   8.4341562e-04   9.1607275e-04   9.7939430e-04  -9.9743056e-06   6.9769018e-04   7.1107136e-04   2.8286118e-04   7.3837064e-04   1.0605170e-03   1.5764420e-03
  -3.3869484e-04  -2.7423623e-04  -6.5213200e-05   1.2084546e-04  -1.3967058e-04  -9.7907858e-04  -2.3052526e-04  -3.2099072e-04  -1.9944094e-04  -1.7590509e-04   1.9277082e-04  -2.0258523e-04  -2.9188718e-04  -2.7342066e-05   1.8480737e-04   1.8608029e-04   7.1787963e-06   3.1119093e-04   4.1024192e-04   3.2498635e-04   4.0132581e-04  -3.2957544e-04  -1.3424034e-04   4.3756710e-04  -1.4769030e-04  -1.8828905e-05  -2.7988301e-04  -1.1301855e-04  -2.2721521e-04   2.1968705e-04  -6.3481205e-04   1.4189862e-04   4.1171163e-05   1.5473782e-04   2.8867836e-04   6.0202373e-04   1.2561104e-04  -1.3709757e-05  -1.4485135e-04  -2.3432550e-04   7.9719466e-04   9.2998537e-04   9.4225776e-04   1.3802735e-04   6.4116926e-04   1.1415438e-03   2.0074323e-04   8.8854303e-04   1.0039636e-03   1.1496524e-03
  -4.7647461e-04  -3.4334348e-04  -9.7551980e-05   3.4373284e-06  -1.5331071e-04  -7.5375341e-04  -4.0150640e-04  -4.0143688e-04  -2.6221291e-04  -2.7402793e-04   8.8645444e-05  -3.0394612e-04  -3.4610645e-04  -9.1291018e-05  -1.4608954e-04  -2.1799229e-05  -1.3349329e-04   1.9985602e-04   1.6315523e-04   2.4214259e-04   2.8976047e-04  -5.0521578e-04  -5.9597986e-04   8.0037869e-05   1.6748380e-04  -1.2312080e-04  -7.6108183e-05  -5.3314572e-05   2.9916593e-04   4.4764136e-05  -3.5186901e-04   7.1403942e-05   1.0371855e-04  -3.7768863e-05  -1.0665043e-04   2.6894960e-04   1.8408841e-04  -2.8956382e-04   3.6355603e-04  -3.7957271e-04   6.8186625e-04   7.6493813e-04   1.0301615e-03   1.9811506e-04   5.5507402e-04   6.6937029e-04   2.7214515e-05   5.0674751e-04   9.0157014e-04   1.2651832e-03
  -5.2911212e-04  -4.2913153e-04  -1.5523810e-04  -1.8277013e-05  -8.1279359e-05  -6.0512108e-04  -2.4051280e-04  -1.7816026e-04  -4.5726445e-04  -2.7372531e-04   8.6995802e-05  -3.0725615e-04  -2.9386044e-04  -5.4609522e-05   1.4873073e-04   1.9373283e-04  -7.8707497e-05   2.6630182e-04   5.1891379e-04   2.9149823e-04   3.4679109e-04  -3.5472764e-04   8.5127736e-05   3.3865965e-04  -2.1776509e-04   9.5899493e-05   7.7532408e-05   4.9587998e-05  -1.9106080e-04   2.9154992e-04  -6.7402580e-04   9.1140930e-05   2.2477546e-04  -2.3796234e-05   7.7886920e-04   8.3335862e-04   5.0191645e-04   1.3389433e-04   5.8046488e-05  -1.2021394e-04   1.1800181e-03   9.7515108e-04   1.3942140e-03   2.4399628e-04   6.3869439e-04   1.0680127e-03   1.3602916e-04   8.2112814e-04   1.1287567e-03   1.6237936e-03
  -3.5994925e-04  -3.0677929e-04   3.4217024e-05   8.5374733e-05  -4.9159586e-05  -6.0582079e-04  -1.0690374e-04   3.2175414e-04  -2.0929771e-04  -2.0149087e-04   1.5748253e-04  -2.4789496e-04  -2.5728618e-04  -1.3272604e-05  -1.7045144e-04   6.0377977e-05   1.6477790e-04   2.7290173e-04   3.6889297e-04   3.3811553e-04   3.8504184e-04  -2.9252877e-04  -1.6228977e-04   1.0649579e-04  -1.7088381e-04   4.7345820e-05  -6.9699978e-05   2.6135149e-05   1.0599544e-04   2.9342005e-04  -2.4863170e-04   1.1334098e-04   4.2359263e-04  -8.0874288e-06   1.3004655e-04   6.2139391e-04   7.4888964e-04   1.2387960e-04   5.3107343e-04  -2.1291224e-04   1.2427296e-03   1.0209589e-03   1.3632743e-03   1.2412126e-04   5.4766127e-04   1.2240378e-03   1.6049927e-04   6.6417822e-04   1.0567901e-03   9.9764555e-04
  -5.5306224e-04  -4.1625040e-04  -8.4294908e-05  -3.1879281e-05  -1.3424073e-04  -7.6199579e-04  -1.5734178e-04  -6.4499640e-05  -3.8079303e-04  -2.7091790e-04   1.8075327e-05  -3.1479614e-04  -4.3106868e-04  -4.5521534e-05   1.0723351e-04  -1.0523113e-06   1.1852216e-04   2.6155391e-04   3.9253139e-04   2.4084999e-04   2.6468435e-04  -4.9201673e-04  -3.4752896e-04   1.3873262e-04  -3.6961751e-04  -3.4038712e-05  -2.5596158e-04  -7.2991199e-05   3.2000290e-04   3.1637002e-04   9.1267560e-05   4.3973712e-05   3.2473297e-04  -2.8635917e-04   6.6732033e-04   5.6377263e-04   3.7663599e-04   1.9763828e-04  -2.5629846e-05  -1.1576991e-04   1.2392091e-03   8.4373099e-04   9.6002559e-04   2.2555827e-04   4.6089498e-04   7.7285431e-04  -3.4116390e-05   6.6664384e-04   8.3510176e-04   1.0147766e-03
  -6.9949235e-04  -5.0289847e-04  -1.6681294e-04  -1.2730707e-04  -1.8436569e-04  -7.2184688e-04  -2.3786594e-04  -1.8811921e-04  -2.3921119e-04  -2.8191588e-04  -4.5759443e-06  -3.4008909e-04  -4.1807015e-04  -2.6454311e-04  -1.4975342e-04   7.7707693e-05   1.9667325e-04   2.4773888e-04   2.8734995e-04   2.9192871e-04   3.1429480e-04  -3.9017244e-04  -4.3052854e-04   4.0752886e-05   5.5910634e-05   1.5967073e-04  -3.2231715e-04   2.3958091e-05  -6.2772114e-04   5.5577728e-04  -2.8374657e-04   1.3189101e-04   3.4106892e-04   5.7845772e-04   7.7819510e-04   7.2637253e-04   6.6620886e-04  -8.0079644e-06   7.2091341e-04  -1.2886499e-05   1.5073965e-03   1.1070223e-03   1.1455774e-03   3.3969418e-04   6.7515112e-04   8.7835948e-04   8.5207837e-05   7.9156645e-04   1.2046898e-03   1.5797508e-03
  -4.8878556e-04  -2.9802942e-04   3.3722499e-05   1.1318659e-04  -1.4338750e-04  -5.2336149e-04  -8.2536360e-05   1.0820499e-04  -1.8971310e-04  -1.6119426e-04   1.2879843e-04  -2.1360315e-04  -3.0617852e-04  -2.0218188e-06  -1.0144856e-04   5.9401596e-06   6.1102401e-05   2.9487794e-04   3.0542101e-04   4.4160133e-04   4.0915521e-04  -1.9146556e-04  -4.0305086e-04   2.1518051e-04  -4.5581549e-04   1.0831967e-04   2.5174339e-05  -1.5678863e-05   4.1701828e-04   4.2496901e-04   8.9564666e-05   1.6031535e-04   6.3131214e-04   3.5722242e-04   6.8246620e-04   7.9847581e-04   4.6049125e-04  -2.6958270e-04   6.1283173e-04   3.8222955e-05   1.3997224e-03   1.0329864e-03   1.0840363e-03   3.5618441e-04   5.5665785e-04   1.2485338e-03   1.0453550e-04   7.5525080e-04   1.0642034e-03   1.2853644e-03
  -4.8384446e-04  -3.6711642e-04  -4.5421544e-05   1.6289081e-05  -1.9307391e-04  -8.5984753e-04  -2.4910818e-04   1.3157200e-04  -5.6320586e-04  -2.3336468e-04   4.0700015e-05  -2.3532285e-04  -3.7039584e-04  -3.9394119e-05  -5.2755709e-05   2.7853333e-05   1.6346674e-04   2.5443340e-04   2.2968618e-04   3.0805892e-04   3.1428420e-04  -5.1605754e-04  -2.6115309e-04   1.3814331e-04   1.4999897e-05   8.0418256e-05  -4.7641050e-04   1.7719550e-04  -2.4397613e-04   3.3480185e-04  -7.6302985e-04   9.7848933e-05   2.9942419e-04  -1.2403402e-04   1.2694795e-04   9.3299814e-04   4.0915850e-04   1.9558024e-04   1.1492508e-04  -3.9130238e-05   1.1251916e-03   8.8995363e-04   9.5715682e-04   2.8583454e-04   4.9957732e-04   9.2846534e-04   1.6926901e-06   6.5606995e-04   9.3099364e-04   1.0521446e-03
  -7.2641595e-04  -5.6858419e-04  -1.9227101e-04  -1.6240547e-04  -3.1670419e-04  -7.4075203e-04  -4.5704248e-04  -1.0406017e-04  -9.2621753e-04  -3.2569861e-04  -1.1770766e-04  -3.5479901e-04  -4.1687387e-04  -6.0239407e-05  -2.8062286e-04   1.1972859e-04   3.9768493e-05   3.0775744e-04  -1.0682557e-04   1.6966277e-04   2.1851064e-04  -6.3927815e-04  -3.4988782e-04   2.5146178e-04  -4.5947995e-04  -2.5608369e-05  -4.7782596e-05   4.3434997e-05   4.9237278e-04   4.8606729e-04  -6.5760303e-04   1.6505124e-05   6.4297445e-04   1.2499737e-04   9.0576243e-04   7.7035930e-04   1.1819364e-03  -2.6636536e-04   9.6979103e-04  -2.2698409e-04   1.4076243e-03   1.0216628e-03   1.1221581e-03   3.6616795e-04   5.1224593e-04   1.1086320e-03   8.5977961e-05   7.1505841e-04   1.1416996e-03   1.6000966e-03
  -3.5947480e-04  -3.3676074e-04  -6.1047198e-05   7.4419026e-05  -1.0200284e-04  -4.7708245e-04  -1.2239961e-05  -3.6138052e-05  -8.4860876e-05  -1.6254174e-04   1.1878266e-04  -2.2306526e-04  -3.0603836e-04  -2.6445050e-05  -7.7446763e-05   5.8601250e-05   1.1029940e-04   2.8594345e-04   5.6826288e-04   3.8247826e-04   4.2843132e-04  -2.5941196e-04  -2.8073197e-04   3.2023035e-04  -3.0635163e-04   1.9097480e-04  -3.0029292e-04   2.6062242e-04  -3.7697487e-04   5.5665703e-04  -5.5124605e-04   1.8211281e-04   3.5191965e-04   4.4534834e-05   9.1280998e-04   1.0157687e-03   8.7159075e-04   1.8644849e-04   6.9030712e-04   3.6204452e-04   1.4527163e-03   1.0747842e-03   9.9489617e-04   4.2239166e-04   6.4644706e-04   9.0413494e-04   1.6326556e-04   8.9531095e-04   1.0619153e-03   1.3815041e-03
  -4.7207734e-04  -3.7330709e-04  -4.7169458e-05   2.9421844e-06  -2.7591304e-04  -4.9479096e-04  -5.9524697e-05  -5.3762593e-05  -4.0876138e-04  -2.1420271e-04   2.5609876e-05  -2.8368985e-04  -3.6844448e-04  -2.8863984e-05  -2.0948378e-04   2.7752382e-04   1.5569305e-04   3.2514194e-04   1.5974653e-04   2.9419374e-04   3.6601553e-04  -2.8149554e-04  -4.1623987e-04   1.4912149e-04  -1.2286939e-04   7.1713068e-05   2.6841168e-04   1.3726453e-04   7.0892915e-05   5.3624267e-04  -4.8300496e-04   6.8182038e-05   1.2992322e-04   5.4946831e-05   8.2126918e-04   7.9579564e-04   1.0507411e-03   4.4443167e-04   4.7065417e-04   3.1740931e-04   1.4200163e-03   9.1560226e-04   1.0947969e-03   3.9045434e-04   4.8875605e-04   1.1345271e-03   1.7910988e-05   8.9715759e-04   9.2965452e-04   1.2239694e-03
  -7.0635736e-04  -5.8553135e-04  -1.9748884e-04  -1.8827956e-04  -3.9155039e-04  -1.1736144e-03  -2.8994321e-04  -3.1983713e-04  -5.3634553e-04  -3.2628997e-04  -1.5263652e-04  -4.1933742e-04  -5.1779102e-04  -2.0765890e-04  -4.2554663e-04   5.8636520e-05   2.2560648e-04   3.0602940e-04   1.7350007e-04   1.6499776e-04   1.8592933e-04  -5.1713496e-04  -3.7111031e-04  -1.0624060e-04  -2.2539767e-04  -1.0626289e-04  -1.7321996e-05   5.4393608e-05   1.8942720e-04   4.5586241e-04  -2.1259376e-04  -3.5073728e-05   1.5028137e-04   2.3897066e-04   1.7807793e-04   6.5147545e-04   5.4409885e-04  -5.6289346e-04   6.7317329e-04   8.9523375e-05   1.1007597e-03   7.0845295e-04   9.2381064e-04   8.8100576e-05   3.5674247e-04   8.2150253e-04  -1.6535816e-04   7.4012106e-04   8.5354596e-04   1.3564519e-03
  -7.0644054e-04  -5.9696496e-04  -2.3038003e-04  -2.4722776e-04  -1.5416119e-04  -5.1558606e-04  -1.2262470e-04   2.1963305e-04  -4.2577781e-04  -3.0219462e-04  -1.9141694e-04  -4.6440880e-04  -4.9780944e-04  -2.4905204e-04  -4.3430823e-04  -2.0482812e-05   2.5143751e-04   2.9662854e-04   4.6165244e-04   2.1339701e-04   2.6918610e-04  -4.6234782e-04  -5.0087058e-04  -7.1969962e-06  -7.2175765e-04   3.9761988e-05   3.5251731e-05   5.1526673e-05   1.6237091e-04   6.3441438e-04  -8.4641820e-04   6.8253219e-05   3.6013842e-04   1.7883303e-04   5.7570136e-04   9.3284453e-04   9.2083559e-04   5.0740753e-04   4.8882433e-04   1.6076588e-04   1.4073267e-03   9.2586805e-04   1.3668899e-03   4.3972360e-04   4.8436853e-04   9.3376567e-04  -1.8114541e-04   6.3866441e-04   1.0336388e-03   1.2105848e-03
  -5.8664841e-04  -4.8647815e-04  -1.5919449e-04  -1.7439942e-04  -1.4507753e-04  -7.5266242e-04  -1.8502527e-04   3.6830770e-05  -6.2120502e-04  -2.6916584e-04  -1.9245839e-04  -3.7773172e-04  -4.2723844e-04  -2.9075734e-04  -1.7251253e-04   1.3239278e-05   4.0424717e-04   2.4305000e-04   1.9796050e-04   2.6214294e-04   2.3399126e-04  -3.3651089e-04   6.6925953e-05  -1.4681196e-04  -6.8109768e-04   8.4067597e-06  -2.9351356e-04   2.5346244e-04  -6.7875156e-04   8.4051577e-04   1.7427684e-04   1.6146907e-05   3.4216774e-04   5.2891532e-04   2.7810611e-05   6.9159112e-04   8.5776020e-04  -4.0403803e-04   7.4070285e-04   3.4872358e-04   1.4889924e-03   9.6846779e-04   1.0185983e-03   4.4433126e-04   4.9889187e-04   1.1763599e-03  -1.6404757e-04   6.5525441e-04   8.8895421e-04   1.1846540e-03
  -7.2453805e-04  -6.1893434e-04  -2.4394316e-04  -3.6272279e-04  -1.6709523e-04  -9.9451619e-04  -2.2502009e-04  -2.9820640e-04  -5.8416405e-04  -3.0039437e-04  -3.5723578e-04  -4.3600585e-04  -5.1381625e-04  -4.1924932e-04  -1.9164107e-04   4.7616126e-05   2.0044144e-04   2.9474151e-04   2.7036201e-04   8.2176935e-05   1.3789481e-04  -5.8489619e-04  -2.9996922e-04  -1.6558349e-04  -6.2465458e-04  -9.3314149e-05  -2.7522375e-04   1.2700427e-05  -1.8123232e-04   6.3127594e-04  -5.1861487e-05   2.4565297e-06   6.2005900e-05   1.3752477e-04   3.9454788e-04   2.2529619e-04  -2.5266392e-05  -4.7454360e-04   3.5400709e-04   1.2661210e-04   1.1676445e-03   8.4835547e-04   9.7075466e-04   3.2002412e-04   3.3059632e-04   8.0882368e-04  -3.7798285e-04   3.1905103e-04   7.0036721e-04   8.9253293e-04
  -9.8079396e-04  -7.4222963e-04  -3.4473854e-04  -4.9368781e-04  -2.4845294e-04  -7.5620040e-04  -4.7202903e-04  -8.9100213e-05  -1.0698556e-03  -3.9437317e-04  -4.7406153e-04  -5.2129518e-04  -6.0605298e-04  -3.5291322e-04  -5.0040358e-04  -1.7548048e-04   7.5103148e-05   2.2292003e-04   2.5332754e-04   1.8946657e-06   7.7182791e-05  -5.7273207e-04  -4.5497125e-04  -3.4726766e-04  -7.3189341e-04  -1.7763212e-04  -7.3088573e-05  -2.3326687e-04  -6.1002134e-05   4.1071040e-04  -4.2949154e-04  -4.5041375e-05   3.2134474e-05   4.2857460e-04   5.8728142e-04   5.3553958e-04   6.0186547e-04   2.2448984e-04   7.3841756e-04   9.3959316e-05   1.2686899e-03   9.4012980e-04   7.1710948e-04   2.8662052e-04   5.3580973e-04   8.6911872e-04  -2.2809654e-04   4.7567641e-04   9.1410999e-04   9.8818890e-04
  -6.9229421e-04  -4.9408362e-04  -2.6347692e-04  -2.5278388e-04  -4.3350493e-04  -6.4352562e-04  -2.4112326e-04  -6.0883100e-05  -5.0546398e-04  -2.6170455e-04  -2.9602961e-04  -4.1030996e-04  -5.1379559e-04  -3.9584757e-04   1.2946191e-04  -7.4906209e-05   1.1237384e-04   1.0406211e-04   1.1987710e-04   4.1288335e-05   1.8739354e-04  -4.9643847e-04  -5.1694544e-04  -1.8142734e-04  -7.0740998e-04  -1.5678567e-04  -7.7655481e-05  -7.6024357e-05  -1.6183608e-04   5.3749519e-04  -9.6883261e-05  -4.0422488e-05   1.6374132e-04   2.4475044e-04   2.8095182e-04   4.1157033e-04   6.0232787e-04  -1.5091199e-04   7.2425418e-04   3.1177042e-04   1.1924172e-03   9.1508753e-04   9.9744427e-04   2.2805705e-04   4.0601814e-04   8.2969881e-04  -3.2474505e-04   3.6292840e-04   8.4346556e-04   1.1529773e-03
  -7.1819330e-04  -5.4007478e-04  -3.3963454e-04  -3.6118069e-04  -2.8102729e-04  -8.5046852e-04  -1.2211119e-04  -1.3858934e-04  -5.8436015e-04  -2.6208640e-04  -3.7212312e-04  -4.3883614e-04  -5.9158198e-04  -3.7415672e-04  -3.8374195e-04  -1.6225420e-04  -2.0607496e-05   2.7316355e-04  -3.8476792e-04  -4.9406732e-05   1.6538934e-04  -5.4599874e-04  -2.9685043e-04  -2.6427105e-04  -7.5236964e-04  -2.7571572e-04  -1.5790279e-04  -5.3392914e-06   3.2521618e-04   2.2040114e-04  -3.2037677e-04   2.3130347e-05   1.2919719e-04  -5.3077657e-04   3.5188851e-04   1.3200988e-04   6.0098333e-04  -1.1554112e-04   5.8787281e-04   4.8644397e-05   1.0017150e-03   7.6859473e-04   9.3165599e-04   4.5350491e-05   3.2847130e-04   4.3350720e-04  -3.7733253e-04   4.3265457e-04   6.4518396e-04   8.6999289e-04
  -8.8296796e-04  -6.8608619e-04  -4.2465547e-04  -4.6119880e-04  -3.7771335e-04  -8.2956819e-04  -4.2178022e-04  -2.1105264e-04  -7.2152901e-04  -3.6399186e-04  -4.8769329e-04  -5.5424770e-04  -6.5649638e-04  -4.2089593e-04  -4.0731535e-04  -2.0345217e-04  -9.8954850e-05   1.1567252e-04  -1.0462476e-04  -8.8047134e-05   3.4491022e-05  -7.3889922e-04  -2.2561010e-04  -1.5074010e-04  -3.4131639e-04  -4.1086820e-04  -1.8243182e-04  -3.4187362e-04   4.4402876e-04   3.1116145e-04  -3.0577779e-04  -9.3314411e-05   1.4010554e-05  -1.4278421e-04   2.7224972e-04   2.4335989e-04   9.3374221e-04  -2.9698369e-04   9.1150106e-04   2.1109721e-04   9.7534759e-04   7.2537770e-04   9.4575091e-04   7.7055331e-05   3.9488208e-04   4.3143146e-04  -2.7848096e-04   3.6948099e-04   7.9405599e-04   1.0088626e-03
  -6.6497031e-04  -4.5734146e-04  -2.7014446e-04  -2.4407393e-04  -2.7741771e-04  -7.9224363e-04  -9.4721298e-05  -6.0022870e-05  -4.3926275e-04  -1.6635886e-04  -2.6349831e-04  -3.3284942e-04  -4.5192544e-04  -3.1680477e-04  -1.6815093e-04  -2.3060046e-04  -1.3443653e-04   1.8033372e-04   4.4809796e-05   3.0989711e-05   2.8229906e-04  -3.5441248e-04  -2.7995216e-04  -4.0787814e-05  -7.2854408e-04  -1.2359835e-04  -8.7791332e-04  -7.6012526e-05   9.2329632e-05   2.8329241e-04  -8.3333856e-05  -1.3291408e-04   3.3897292e-04  -1.3399415e-04   3.0242308e-04   1.7227943e-04   8.8358519e-04  -6.8845792e-04   7.3513592e-04   3.7138959e-04   1.0362868e-03   9.0971560e-04   7.5560244e-04   7.2240749e-05   3.5416652e-04   7.8175642e-04  -2.6139993e-05   5.0448999e-04   8.1249804e-04   9.6374244e-04
  -4.2813204e-04  -3.3283734e-04  -2.3926991e-04  -2.2190987e-04  -4.1852175e-04  -7.3196506e-04  -8.2762359e-05  -2.7928196e-04  -4.2645624e-04  -1.3414664e-04  -2.5322326e-04  -2.7038608e-04  -4.4564006e-04  -3.6621740e-04  -2.9422023e-04  -1.9077581e-04  -2.3252414e-04   2.4173480e-04  -7.0837741e-05   3.6586491e-05   2.2895230e-04  -5.5960956e-04  -2.1778849e-04  -1.0031948e-04  -3.6787096e-04  -3.2035157e-04  -7.2301409e-05   9.9986974e-05   1.6953019e-05   2.5520631e-04  -1.2221656e-04  -6.3469466e-05  -2.8149242e-04   6.5994020e-05   2.1831811e-04   1.4366975e-04   2.5463235e-04  -6.5458420e-04   2.7883879e-04  -5.7932986e-05   6.3014188e-04   6.9599063e-04   9.5058407e-04  -1.0490015e-04   3.3672404e-04   3.3625567e-04  -5.6164292e-05   3.5320505e-04   6.5242406e-04   8.1921852e-04
  -5.9788837e-04  -4.4699278e-04  -3.2785145e-04  -3.6102632e-04  -3.6647983e-04  -8.7778742e-04  -3.8357970e-04  -6.7743682e-04  -6.7453727e-04  -2.3727724e-04  -3.4121648e-04  -3.7224343e-04  -5.0809101e-04  -4.1225500e-04  -8.1183546e-04  -2.7771731e-04  -2.6591599e-04   2.5088555e-04  -5.1409501e-04  -1.0015588e-04   8.2657891e-05  -7.2952680e-04  -6.4075150e-04  -2.4801397e-04  -6.6919497e-04  -4.7364502e-04  -3.7239731e-04  -1.3624255e-04  -3.2628918e-04   2.3850735e-04  -6.8795151e-04  -1.3805008e-04  -1.1799516e-04  -5.1896105e-04   3.6934660e-05  -1.1259594e-04   4.4843971e-04  -6.2366715e-04   4.2333762e-04  -5.2228750e-04   6.8972871e-04   5.4982299e-04   5.3178205e-04  -2.9285304e-04   1.0308735e-04   5.2702782e-04  -1.1376711e-04   1.9863622e-04   5.8760023e-04   7.2716986e-04
  -6.5711187e-04  -4.8036364e-04  -3.3122426e-04  -3.7110111e-04  -3.5364710e-04  -1.0250831e-03  -3.8754451e-04  -4.6342926e-04  -5.2156101e-04  -1.6370375e-04  -2.7446199e-04  -3.4175729e-04  -4.5935612e-04  -3.7163444e-04  -2.5895357e-04  -3.1913148e-04  -2.5902560e-04   7.2497212e-05   1.8524246e-05  -2.9165160e-06   2.5698933e-04  -5.8070256e-04  -3.0017286e-04   4.7339140e-06  -3.0475340e-04  -3.1017003e-04   9.3977569e-06  -7.8897501e-05  -1.4642296e-04   1.3239788e-04  -4.9003854e-04  -6.1917250e-05   2.7689611e-04  -1.5256950e-04   3.5799021e-04   3.0366753e-04   6.2851695e-04  -7.3986885e-04   2.0226160e-04  -2.3628166e-04   8.5716206e-04   8.9348562e-04   9.1561198e-04   1.0581920e-04   3.6373737e-04   5.0513592e-04   1.3219002e-05   2.8527720e-04   7.0987787e-04   9.9815684e-04
  -3.2466665e-04  -2.6284799e-04  -2.0205192e-04  -1.3889221e-04  -3.0613551e-04  -6.1468472e-04  -2.9410305e-04  -4.0237198e-04  -2.6046473e-04  -5.7485802e-05  -1.3862067e-04  -2.1443385e-04  -3.8678304e-04  -3.7599733e-04  -3.9171861e-04  -2.7786897e-04  -3.1714782e-04   1.9737144e-04   3.2708654e-06   2.9098666e-05   2.9189757e-04  -6.3531916e-04  -2.2358849e-04   1.2187730e-04  -2.5775400e-04  -2.3923768e-04  -5.5098854e-04  -2.8990849e-04   2.7559610e-04   5.0736544e-06  -4.9504172e-04  -2.2123766e-04   1.0389143e-05  -3.8174877e-04   8.7490720e-05  -1.3981221e-05  -1.2149886e-05  -4.5960929e-04   2.8384081e-04  -4.7979518e-04   6.1928539e-04   8.2299352e-04   6.3481502e-04  -4.6117559e-05   4.4669540e-04   3.9790969e-04   1.1931106e-04   3.4735337e-04   6.3715404e-04   8.6678565e-04
  -4.2521179e-04  -3.5656078e-04  -1.9766013e-04  -2.7152483e-04  -1.7506118e-04  -7.8032044e-04  -3.2502439e-04  -1.5849949e-04  -3.3154237e-04  -1.7543451e-04  -2.2928325e-04  -3.5252792e-04  -4.0369874e-04  -3.0763171e-04  -6.1798008e-04  -3.2348908e-04  -1.8831769e-04   1.2122625e-04  -2.2677382e-04  -2.6921360e-05   1.8141487e-04  -6.0517294e-04  -2.5863282e-04  -1.5162952e-04  -3.9063903e-04  -3.8606842e-04  -4.7672758e-04  -9.7920398e-05  -7.9722406e-04  -1.5748945e-05  -5.5761065e-04  -1.0109533e-04   4.3532382e-05  -3.9630786e-06  -1.5687347e-04  -4.7751592e-04   1.4140313e-05  -5.2164018e-04   1.9711151e-04  -7.0781796e-04   4.2169093e-04   7.2410493e-04   8.5177633e-04  -1.9877034e-05   2.6795635e-04   4.7424607e-04  -8.6818247e-05   4.2498895e-04   4.9855147e-04   6.2371360e-04
  -7.0050545e-04  -6.0043484e-04  -3.9724165e-04  -5.2396930e-04  -4.7639522e-04  -7.9229585e-04  -4.0482669e-04  -3.3452921e-04  -8.2791824e-04  -3.1753886e-04  -4.1352728e-04  -5.2126864e-04  -5.4117118e-04  -2.7146182e-04  -5.7329034e-04  -3.3636138e-04  -2.1221981e-04   1.1606878e-04  -6.0322019e-04  -1.9604695e-04  -5.4802898e-05  -9.4298919e-04  -7.4392423e-04  -1.0647270e-04  -5.7535700e-04  -4.7162216e-04  -9.1846858e-04  -4.4801633e-04  -4.4620287e-04  -8.4129802e-05  -8.0303918e-04  -2.3987501e-04  -2.5052254e-04  -6.0960214e-04   1.2438574e-05  -4.2647932e-04  -9.0351226e-05  -2.6851051e-04  -3.2776723e-05  -5.5002008e-04   6.1942940e-04   5.6515855e-04   7.6630601e-04  -1.7090287e-04   2.0368797e-04   4.4251035e-04  -7.8643527e-05  -3.1338689e-06   6.4731191e-04   9.7365666e-04
  -4.5345112e-04  -4.0908321e-04  -2.3070593e-04  -3.3270329e-04  -2.9042916e-04  -1.0207512e-03  -4.8972532e-04   9.3175407e-07  -5.3087360e-04  -1.5860819e-04  -1.9206057e-04  -4.1174816e-04  -3.5548504e-04  -1.3217056e-04   1.4869112e-04  -3.1871800e-04  -1.4459519e-04   1.0160812e-04  -3.9938168e-04   2.7615872e-05   1.7469689e-04  -4.8757374e-04  -2.8940753e-04  -1.2865680e-04  -1.2281119e-04  -2.8996423e-04  -1.3530276e-05  -3.9512181e-04  -2.8777565e-04  -4.9559734e-05  -3.6030414e-04  -1.5495777e-04   8.9864152e-05  -2.5825057e-04   7.4192591e-04  -1.1890794e-05  -4.4695289e-06  -7.1297596e-05   2.5554595e-04  -2.6167170e-04   6.8683823e-04   6.9819274e-04   8.0237084e-04  -3.0598258e-05   2.9720546e-04   8.4787473e-04  -5.6318771e-05   2.8064963e-04   6.7916774e-04   9.6471171e-04
  -4.7091316e-04  -3.8651211e-04  -1.7334102e-04  -3.2429185e-04  -2.8481625e-04  -1.1099073e-03  -3.3257547e-04  -3.3571100e-04  -4.1687104e-04  -1.9158612e-04  -2.3656600e-04  -4.1988128e-04  -3.8499665e-04  -2.4805884e-04  -3.4557213e-04  -2.2590042e-04  -4.9537895e-05   1.5780394e-04  -1.9795846e-04   2.5407580e-05   1.2624162e-04  -6.7056459e-04  -4.9233553e-04  -1.6470470e-04  -5.1141169e-04  -3.1187790e-04  -4.6246126e-04  -1.1949203e-04  -3.3104394e-04  -1.0515978e-04  -6.3177123e-04  -1.7713841e-04   7.5697012e-06  -1.8340543e-04   4.4668146e-04  -2.2686055e-04   5.7795052e-05  -5.3941680e-04   5.1206636e-04  -1.8264867e-04   5.0055800e-04   3.2066874e-04   7.1125390e-04  -9.7927572e-05   2.4556232e-04   5.6905695e-04  -2.1115807e-04   3.2968025e-04   6.2951748e-04   9.7388757e-04
  -6.7297171e-04  -5.2491098e-04  -3.1684301e-04  -5.1950058e-04  -3.6325667e-04  -1.3962984e-03  -4.3960722e-04  -2.8372064e-04  -6.1889249e-04  -3.0674451e-04  -3.4530988e-04  -5.4767757e-04  -4.5418882e-04  -3.3531687e-04  -2.4686620e-04  -3.2715156e-04  -1.7117110e-05   1.6491466e-04  -8.2187471e-04  -9.7599106e-05  -2.7820442e-05  -8.5435854e-04  -6.1471789e-04  -3.1207988e-04  -1.2503588e-04  -4.7188782e-04  -3.6970712e-04  -3.3605215e-04  -2.0224096e-04   4.2934453e-06  -6.4258027e-04  -2.0209013e-04  -5.2907353e-04  -5.2843406e-04  -2.5863948e-04  -3.8617160e-04  -1.1592030e-04  -2.2289922e-04  -9.5666328e-05  -8.2516135e-04   2.1927517e-04   3.3422702e-04   7.4079860e-04  -3.6366691e-04   1.9400935e-05   4.3679439e-04  -3.9184981e-04   1.3199820e-04   4.1535890e-04   4.6239683e-04
  -6.3101971e-04  -6.7241222e-04  -3.7239605e-04  -5.7827303e-04  -2.2646248e-04  -9.4477180e-04  -4.2907638e-04  -3.6455272e-04  -6.0618256e-04  -2.7478574e-04  -3.4884302e-04  -5.1686651e-04  -4.7870894e-04  -2.3609103e-04  -7.0573681e-04  -3.4637714e-04  -1.8486902e-04   1.3535864e-04  -2.9664356e-04  -5.6920861e-05   2.4068449e-05  -7.0086168e-04  -3.8963585e-04  -1.5505645e-04  -1.4725802e-04  -4.3793904e-04   6.6718203e-05  -3.6806823e-04  -4.4197711e-04  -8.0841628e-06  -7.8732130e-04  -7.8966557e-05   7.8724646e-05  -3.6716074e-04  -1.8371661e-04   2.6220900e-05  -5.5267947e-04  -4.8414874e-04   4.1437670e-04  -2.5367312e-04   5.9166044e-04   5.3748355e-04   7.5527607e-04   1.3782178e-05   1.4317577e-04   4.4828185e-04  -1.7146190e-04   2.9330392e-04   5.8470678e-04   6.2492955e-04
  -3.9766746e-04  -3.8116507e-04  -2.4664577e-04  -3.4852370e-04  -5.0270022e-04  -9.0516073e-04  -4.5781818e-04  -5.6147540e-04  -4.2354615e-04  -1.9542516e-04  -2.5874627e-04  -3.6442812e-04  -4.0784248e-04  -2.8349948e-04  -4.6254881e-04  -3.0325961e-04  -1.4752591e-04   1.8392439e-04  -1.2321083e-04  -2.4577306e-05   9.2956245e-05  -6.9952908e-04  -2.2581340e-04  -9.9846715e-05  -4.7652365e-04  -2.7155210e-04  -2.9717092e-04  -5.9703427e-05   1.0025096e-03  -3.1140778e-05  -4.9468153e-04  -1.0661488e-04  -2.4736248e-04   1.2470208e-05   1.9844803e-04   6.3166684e-05  -1.1844930e-04  -8.1075740e-04  -2.2032943e-04  -6.2322040e-04   4.6065578e-04   5.0428486e-04   7.8268518e-04  -3.3762702e-04   1.1709632e-04   3.8668347e-04  -9.0196998e-05   2.9111287e-04   4.9375102e-04   6.5349427e-04
  -4.4226751e-04  -4.7390407e-04  -2.7869511e-04  -3.7932521e-04  -2.4478839e-04  -1.1837368e-03  -5.7205348e-04  -1.4686226e-04  -5.8033067e-04  -2.2323450e-04  -3.1603579e-04  -3.4908092e-04  -3.8974374e-04  -3.6830886e-04  -4.7216477e-04  -1.3782730e-04  -3.9904815e-04   5.9335125e-05  -4.9375329e-04  -1.5606664e-04   1.5914138e-05  -7.0743461e-04  -5.9965294e-04  -2.3701134e-04  -5.1104173e-04  -5.1378337e-04   1.7774172e-04  -2.0986731e-04   6.6634449e-05  -1.2371723e-04  -2.5252550e-04  -1.6510011e-04   6.4808126e-05  -2.1721171e-04   3.2564413e-04  -5.0638797e-04  -1.5918065e-04  -7.1858702e-04  -2.6929239e-04  -5.2723166e-04   2.3834084e-04   4.7683271e-04   5.2911055e-04  -3.1462181e-04  -6.8352630e-05   3.3674913e-04  -2.0491534e-04   1.5911783e-04   3.5001145e-04   3.8012065e-04
  -6.3362421e-04  -6.5515091e-04  -4.3414862e-04  -5.8327086e-04  -1.2681626e-04  -1.1532910e-03  -6.5386068e-04  -1.7129254e-04  -6.6386332e-04  -3.0896062e-04  -4.0512130e-04  -4.8878422e-04  -5.3981104e-04  -4.0800415e-04  -2.6019578e-04  -4.3259497e-04  -3.5758995e-04   8.8681787e-05  -5.3032057e-04  -1.5580385e-04  -8.3606110e-06  -8.8428264e-04  -3.5160556e-04  -1.3867517e-04  -4.0196540e-04  -2.7091301e-04  -4.4483488e-04  -1.3483624e-04   2.9546771e-05  -1.3905256e-04  -6.8193214e-04  -1.1889506e-04   1.9191355e-05  -5.2225211e-04  -2.4333464e-04  -1.9008988e-04   1.0769553e-04  -6.8436289e-04   1.2916882e-04  -7.7860052e-04   5.3399423e-04   6.8146217e-04   5.9074868e-04  -3.0909636e-04   1.5070189e-04   6.1877968e-04  -1.2014534e-05   2.3204120e-04   5.9019512e-04   8.8691193e-04
  -3.3652160e-04  -4.0725875e-04  -2.1752836e-04  -3.3834885e-04  -1.0343612e-04  -6.0251786e-04  -3.3791902e-04  -3.4149009e-04  -5.5010139e-04  -2.3422285e-04  -2.6950688e-04  -3.8614622e-04  -4.3073052e-04  -3.0354582e-04  -6.0835975e-04  -2.9624367e-04  -1.1853580e-04   1.0301278e-04  -5.3850899e-04  -6.9203204e-05   8.7022701e-05  -7.2818232e-04  -2.6263035e-04  -9.2157432e-05  -2.2843691e-04  -2.3015379e-04  -4.8995676e-04  -2.0122217e-04  -1.3200163e-04  -1.0828362e-04  -1.0411752e-03  -4.8030062e-05   1.9042217e-04  -7.2746177e-04  -1.3012737e-04   4.3702737e-05   3.7336317e-04  -8.8645919e-04   2.9108585e-05  -5.7840312e-04   7.1842480e-04   5.9579004e-04   1.0111873e-03  -1.6231414e-05   2.2721234e-04   4.3325787e-04  -1.3815275e-04   4.4373801e-04   6.0831750e-04   8.0439803e-04
  -5.0414557e-04  -5.0333340e-04  -1.8554341e-04  -4.3216717e-04  -4.9526535e-04  -1.0230570e-03  -4.6640422e-04  -7.2629809e-05  -6.8938464e-04  -3.0576871e-04  -3.3618452e-04  -5.2084477e-04  -3.8437845e-04  -1.7247950e-04  -1.7156314e-04  -2.6693827e-04   3.0983963e-05   4.8907277e-05  -5.0229474e-04  -8.2620420e-05  -5.4218555e-05  -6.2773773e-04  -5.7305407e-04  -2.1275762e-04  -3.0657894e-04  -2.4202125e-04  -2.4968496e-04  -1.6736246e-04  -6.0243334e-04   1.6145545e-05  -2.0968444e-04  -2.4310591e-04  -8.6364082e-05  -2.5761971e-04   1.4827301e-04  -2.4217361e-04  -9.4757721e-05  -6.0938852e-04   7.6264041e-06  -4.1495956e-04   8.2450651e-04   6.3400279e-04   7.7317352e-04  -1.3534115e-04   6.8040963e-06   4.7569623e-04  -2.8280637e-04   3.7470236e-04   5.1332032e-04   4.7616626e-04
  -7.6972815e-04  -7.1268692e-04  -3.6827225e-04  -6.3633797e-04  -4.2529631e-04  -9.1453886e-04  -5.7741738e-04  -3.0118367e-04  -6.8270613e-04  -3.6990031e-04  -4.9791409e-04  -5.8687804e-04  -5.3183845e-04  -3.0031212e-04  -1.7432361e-04  -1.8915323e-04   1.5582082e-04   1.0999811e-04  -4.5984305e-04  -1.1794653e-04  -5.7776138e-05  -6.8499701e-04  -4.6309346e-04  -2.1859257e-04  -6.6987035e-04  -7.7327029e-05  -3.7180044e-04  -8.5838728e-05   6.4333341e-05  -7.2922674e-05  -7.1705342e-04  -1.4683243e-04  -2.5174339e-04  -4.7383819e-05  -1.2083379e-04   1.7765127e-04  -1.0646624e-04  -3.5195510e-04   2.3913133e-04  -3.4340849e-04   9.4506220e-04   7.3772651e-04   9.5882296e-04   1.4954800e-04   2.1393249e-04   7.8987511e-04  -1.4340180e-04   4.3624631e-04   8.3055120e-04   1.2807826e-03
  -3.5595038e-04  -4.0846562e-04  -1.0803386e-04  -3.6923081e-04  -3.4039665e-04  -1.0373865e-03  -2.7595385e-04  -1.2777376e-04  -4.7523482e-04  -2.2017439e-04  -3.1951445e-04  -4.1244910e-04  -2.8921306e-04  -1.3075536e-04  -1.0481678e-04  -2.9440585e-04   2.4907253e-04   1.4337545e-04  -3.3686828e-04   2.7712966e-05   6.0024493e-05  -4.9709209e-04  -4.4801086e-04  -1.5336149e-05  -2.0947243e-04   9.9802792e-06  -4.6964680e-05   1.4267102e-04  -1.7332190e-04   1.7376615e-04  -3.6792559e-04   9.3890216e-05   3.3342952e-04   7.4236232e-05   2.9781947e-04   5.3168356e-04   2.1854951e-04  -3.1422119e-04   1.9014512e-04   8.9269561e-05   1.0380736e-03   8.9031860e-04   1.1686827e-03   1.5075672e-04   3.5643281e-04   7.5897842e-04  -1.4214151e-04   6.8250793e-04   7.9205958e-04   9.8727504e-04
  -5.2035192e-04  -4.9317023e-04  -1.1727941e-04  -4.4939935e-04  -5.1062671e-04  -6.6153886e-04  -3.7232708e-04  -2.5603149e-04  -5.5820035e-04  -2.4197715e-04  -3.5918242e-04  -4.2718719e-04  -3.5372551e-04  -1.5096566e-04  -8.0669070e-06   1.5106315e-05   3.8948539e-04   1.7339340e-04  -3.4532274e-04   1.4896533e-05  -1.3482274e-05  -6.8717130e-04  -3.1923226e-04  -1.8807645e-04  -5.0217548e-04   3.0877243e-05   3.9349266e-04  -9.2486269e-05   2.5664020e-04   1.1325266e-04  -9.4331379e-05  -1.4710421e-04   1.2814588e-04   3.1838546e-05   3.2829253e-06   2.9692566e-05   5.3633983e-05  -8.0418889e-04  -2.4385282e-04  -5.2935327e-04   1.0768878e-03   8.4911211e-04   9.9481212e-04   8.6929547e-05   8.8548230e-05   4.5284673e-04  -2.0719867e-04   6.7679229e-04   6.7971763e-04   9.4595802e-04
  -6.9315173e-04  -6.4132386e-04  -2.4776493e-04  -6.1375997e-04  -3.8146417e-04  -1.3829478e-03  -4.0579375e-04   5.9715899e-06  -6.8347895e-04  -3.4066671e-04  -4.9809448e-04  -5.0559419e-04  -4.4735082e-04  -1.7693332e-04  -5.2829948e-04  -2.1928953e-04   2.4661736e-04   2.6035879e-04  -8.6710742e-04  -1.1372967e-04  -1.7382235e-04  -8.1453723e-04  -3.0821620e-04  -2.0646970e-04  -2.5376491e-04  -1.9606194e-04  -7.1838446e-04  -1.8768113e-04   2.8892397e-04   1.9756990e-04  -9.0167805e-04  -4.4477962e-05  -1.0358405e-04  -1.6481341e-04   7.3817850e-05   1.9429270e-04   4.1100939e-04  -7.0142141e-04   4.0828087e-04  -4.8410796e-04   1.1833447e-03   8.8163558e-04   1.1295737e-03   2.5442321e-04   2.1287201e-04   8.5285073e-04  -1.1612485e-04   6.5246306e-04   7.8488217e-04   1.2537456e-03
  -4.4200025e-04  -4.1403671e-04  -1.0730785e-04  -3.6114577e-04  -2.6741289e-04  -7.0423854e-04  -3.7301207e-04  -1.0231351e-04  -2.8642523e-04  -1.8850373e-04  -2.3958668e-04  -3.0399437e-04  -2.1284870e-04  -4.7982590e-05  -2.3441347e-04  -2.2147951e-06   3.8819906e-04   2.4387315e-04   1.3446738e-04   9.3705057e-05   1.0597781e-04  -3.9495979e-04  -1.0174604e-04  -1.4205700e-06  -3.1953838e-04   1.6629488e-04  -2.8988346e-04   1.2091655e-04  -2.0153560e-04   4.4565817e-04  -3.6794035e-04   1.1084666e-04   3.2254489e-04   3.0987379e-05   4.6178317e-04   4.7076348e-04   6.0118380e-04  -1.0069846e-04   6.9548341e-04  -1.6719296e-05   1.3186861e-03   1.0362695e-03   1.2646749e-03   3.1786374e-04   4.0043565e-04   9.1013691e-04   2.6136770e-05   8.0867589e-04   9.4475120e-04   1.1867727e-03
  -3.8993184e-04  -3.3890281e-04   2.4233259e-05  -3.5693837e-04  -1.4315019e-04  -4.9576646e-04  -2.6910432e-04  -3.8182325e-04  -4.9361278e-04  -2.1224731e-04  -2.8263780e-04  -3.0575422e-04  -2.3974299e-04  -2.0185606e-04  -9.4814441e-06   7.6475495e-05   4.4405332e-04   2.1177279e-04  -4.7376147e-04   4.8290993e-05   7.3827636e-05  -4.1829300e-04  -5.2788819e-06   6.0181894e-05  -2.2192425e-04   5.1324991e-05  -3.0105538e-04   3.8147333e-05  -5.0082093e-04   3.7404403e-04  -2.1732507e-04   3.3458306e-05   1.6697918e-04   8.8811874e-05   2.5685571e-04   3.8624409e-04   5.1828154e-04  -3.3097557e-04   8.5972286e-05   1.3008151e-04   1.2619235e-03   1.0970802e-03   1.3156512e-03   1.9234716e-04   2.6135292e-04   1.1430831e-03  -6.1099316e-05   6.9974235e-04   8.0252736e-04   1.1687418e-03
  -5.5702106e-04  -5.1785971e-04  -1.3901228e-04  -4.5848003e-04  -2.2940138e-04  -7.6283480e-04  -4.7216588e-04  -3.0812333e-04  -1.7733026e-04  -3.0899417e-04  -3.8283874e-04  -3.8117066e-04  -2.6951279e-04  -2.5598856e-04   1.7364208e-04   4.0525472e-05   3.5611191e-04   2.3261366e-04  -6.3704757e-04  -7.1307135e-05  -6.0154765e-05  -5.0182152e-04  -1.3225504e-04  -1.6406289e-04  -3.3326860e-04   7.5382857e-05  -8.8706736e-05  -4.2742013e-05  -3.9823164e-04   1.3638297e-04  -7.6589460e-04   6.1569881e-06  -2.6536240e-05  -1.9360850e-04   4.1858639e-04   2.2686768e-04   6.4891559e-04  -2.6556282e-04   2.3550428e-04  -2.6171858e-04   1.1782564e-03   8.8298938e-04   8.1393059e-04   5.3183172e-05   1.0121716e-04   5.8527204e-04  -1.5366402e-04   7.5885165e-04   7.9268945e-04   1.0467463e-03
  -6.1812141e-04  -5.3831260e-04  -1.2290345e-04  -4.7796775e-04  -1.9130910e-04  -6.2839058e-04  -2.0695517e-04  -4.3752094e-04  -5.0540350e-04  -2.8592499e-04  -3.5120558e-04  -4.1713283e-04  -2.8391537e-04   4.0431445e-05   6.9567497e-05  -1.4703980e-04   3.4457914e-04   3.4276178e-04  -4.9677084e-04   5.8820242e-05   5.3466629e-05  -4.3400557e-04  -5.6771340e-04  -2.2147084e-05  -3.4107198e-04   1.8390063e-04  -1.8380726e-05   2.3386755e-04   2.0597497e-04   4.4949763e-04  -7.4697105e-05   6.6545064e-05   2.3972330e-04   1.5185273e-04   7.2419195e-04   3.2718855e-04   3.1673160e-04  -3.2049866e-04   3.6595771e-04  -1.1396072e-04   1.3811475e-03   1.1231706e-03   1.2012185e-03   3.6140298e-04   3.7389438e-04   7.9780223e-04   5.5502114e-05   8.5244561e-04   9.8361191e-04   1.2238732e-03
  -2.7241022e-04  -3.2023108e-04   6.8060697e-05  -2.9003818e-04  -3.6319185e-04  -1.1257791e-03  -2.3326559e-04  -4.0442662e-04  -2.8013755e-04  -2.2081449e-04  -2.5191618e-04  -2.6541264e-04  -1.6020231e-04  -1.8444048e-04  -6.1896508e-06   8.0203376e-05   5.2535563e-04   3.5913911e-04  -2.1787857e-04   1.1221693e-04   1.1775803e-04  -3.7241090e-04  -9.8033634e-05  -9.4075724e-05   1.8115685e-04   1.8249257e-04  -1.3908358e-04   1.6231231e-04   4.4458498e-05   4.3972890e-04  -1.9801522e-04   1.2488557e-04   1.6511543e-04   1.2578096e-04   4.8126720e-04   4.9102248e-04   4.3046486e-04  -5.0888123e-04   1.3424573e-04  -2.2835917e-04   1.3823302e-03   1.2114410e-03   1.3662877e-03   3.7057156e-04   3.2583284e-04   6.1786408e-04   6.3011663e-05   7.4260985e-04   9.0688729e-04   1.2412285e-03
  -3.9207959e-04  -4.6419009e-04   7.7616955e-05  -3.7085087e-04  -4.7031612e-04  -1.1699169e-03  -2.0563039e-04  -1.4897846e-04  -4.0218447e-04  -3.4116875e-04  -3.5509371e-04  -4.2187129e-04  -2.3161546e-04  -9.4684146e-05  -1.8102911e-04   1.2616304e-04   5.5957207e-04   2.7200062e-04  -5.0160044e-04   2.4040781e-05   1.0750773e-06  -5.6591252e-04  -2.0874484e-05  -1.0585460e-04  -3.9762305e-04   6.4699852e-05   1.8178206e-04   4.8711743e-05  -7.2890671e-04   4.9764867e-04  -2.0341505e-04   1.6357086e-04   1.1087654e-04   6.8821209e-05  -1.0825487e-04   1.6174042e-04  -2.4695232e-04  -2.8203859e-04   1.3244389e-04  -2.1842441e-04   1.2738742e-03   8.0428680e-04   1.3880301e-03   2.6640645e-04   2.2422979e-04   6.3742988e-04  -1.2838219e-04   6.9382222e-04   7.4531836e-04   1.0283751e-03
  -6.8399060e-04  -7.0054957e-04  -1.3440938e-04  -6.1752315e-04  -4.1541908e-04  -6.6818442e-04  -3.6297794e-04  -2.1292857e-04  -6.9163722e-04  -4.6755411e-04  -5.4022874e-04  -5.5370346e-04  -3.1259086e-04   5.9747003e-06  -9.0324284e-05   1.8885296e-05   6.2655116e-04   2.6225945e-04  -8.2908297e-04  -8.6936716e-06  -9.6124924e-05  -5.4432958e-04  -4.1796674e-04  -2.6088735e-04  -3.0450310e-04   1.3597324e-04   2.4998482e-04   2.2661476e-04  -9.1500470e-04   2.2934804e-04  -5.8406038e-04   1.6903187e-04   1.4053787e-04  -1.5914375e-04   2.8264482e-04   3.4377040e-04   7.2697381e-05  -2.7815183e-04   9.5435083e-05  -7.6244601e-06   1.6004331e-03   1.1322002e-03   1.1188444e-03   4.4258143e-04   3.8270041e-04   1.1141212e-03  -1.1508259e-04   8.2812499e-04   9.1702573e-04   1.3120328e-03
  -4.3663842e-04  -4.8660938e-04   2.7477374e-05  -4.3988452e-04  -2.5762658e-04  -1.0752965e-03  -7.3783915e-05   2.8299553e-05  -4.6923317e-04  -3.3537109e-04  -4.1530060e-04  -4.1302355e-04  -1.7996799e-04  -1.1854793e-06   1.9177927e-04   1.0121497e-04   6.7656132e-04   3.4085521e-04  -4.9339196e-05   4.8752565e-05  -5.3617136e-06  -4.5415296e-04  -2.1203299e-04  -1.3060955e-04  -5.2898232e-04   2.3564557e-04  -7.2463918e-05   2.5199633e-04   6.7018766e-05   4.7901433e-04   2.3407674e-04   1.8017442e-04   2.1222059e-04   2.1479477e-04   5.4407446e-05   6.7296228e-04   5.2436092e-04  -1.6869526e-04   5.0383946e-04  -1.1040143e-04   1.6050766e-03   1.2853676e-03   1.2557835e-03   3.0127968e-04   2.9843312e-04   9.4587018e-04  -2.0847407e-04   8.7492197e-04   8.5060787e-04   1.2159126e-03
  -5.2147353e-04  -5.5792677e-04  -2.3883209e-05  -5.1715958e-04  -5.7523802e-04  -7.5938267e-04  -1.7937306e-04  -1.9205055e-04  -6.4996717e-04  -3.4504678e-04  -5.1006541e-04  -4.2303678e-04  -2.4483810e-04  -3.9245083e-06  -6.7743844e-05   1.8085244e-04   6.9156260e-04   2.7758826e-04  -3.2251034e-04  -1.8469107e-05  -9.0626927e-05  -5.4762536e-04  -9.4528856e-05  -1.8129397e-04  -4.2512474e-04   1.0566032e-04  -5.9812795e-04   4.5409898e-04  -1.4917972e-04   4.5627524e-04   1.2440357e-04   1.3985233e-04   2.5473104e-04   4.0863888e-04   1.8540331e-06   3.0470645e-04   1.6252518e-04  -1.8066968e-04   6.5293838e-04  -1.8183222e-05   1.5307475e-03   9.8032830e-04   1.1032305e-03   4.4481564e-04   2.3732404e-04   7.6246989e-04  -2.2330305e-04   7.8151911e-04   7.5646245e-04   9.7448798e-04
  -7.7002530e-04  -7.8066962e-04  -1.8731708e-04  -6.9098914e-04  -5.1562325e-04  -9.5059414e-04  -2.8943905e-04  -2.4276314e-04  -8.1695692e-04  -4.5026399e-04  -6.5566791e-04  -5.5156933e-04  -4.0148140e-04  -1.9644269e-04  -2.4387012e-04   8.2990235e-05   4.8774484e-04   2.6573247e-04  -2.9085070e-04  -1.0744602e-04  -2.1407448e-04  -5.8581418e-04  -6.2707206e-04  -3.1104570e-04  -3.8546370e-04  -6.7864780e-06  -1.6255456e-04   5.0878381e-05  -2.2965576e-04   3.9297296e-04   9.3404051e-05   1.3824082e-04   1.1590088e-05  -3.0948472e-04   5.1548454e-04   3.7042989e-04   3.3748476e-04   6.2316496e-05   7.3103023e-05  -3.5909837e-04   1.4094568e-03   1.0557568e-03   1.1184887e-03   3.9454983e-04   1.2886769e-04   8.6108065e-04  -1.0154262e-04   7.0828653e-04   9.2400401e-04   1.2644298e-03
  -5.4965261e-04  -5.4802699e-04  -5.0130096e-05  -4.6164446e-04  -3.0970250e-04  -7.1743008e-04  -1.4204076e-04  -1.1669585e-04  -4.5405625e-04  -2.8583306e-04  -4.4739991e-04  -3.9425513e-04  -3.0742527e-04  -9.2957882e-05  -7.9980797e-05  -2.4862265e-06   5.8624661e-04   3.1503203e-04  -1.1382831e-04   7.8412144e-05  -2.1507582e-05  -3.8363406e-04  -2.5511306e-04  -7.1692171e-05  -4.6069783e-04   2.5067056e-04   6.7229652e-05   3.2640273e-05   3.9766578e-04   6.9165800e-04   6.7152840e-05   1.7245150e-04   2.1732434e-04   4.1624249e-04   9.3114359e-04   7.2741869e-04   5.6782662e-04  -3.1800399e-05   6.9519487e-04   4.1754090e-04   1.5812232e-03   1.0504867e-03   1.3852648e-03   6.5590610e-04   3.4740433e-04   8.4465212e-04  -1.0736026e-04   8.5442123e-04   9.0242270e-04   1.1243961e-03
  -6.1666581e-04  -5.7374511e-04   1.0916860e-05  -5.0940033e-04  -3.2291596e-04  -9.8275812e-04  -2.4578764e-04  -1.3329182e-04  -8.1755855e-04  -3.2646378e-04  -5.1917153e-04  -4.0859601e-04  -3.7028111e-04  -1.7977667e-04  -4.5167617e-04  -1.0937136e-07   5.8808480e-04   3.1137565e-04  -3.9773353e-04   3.3437041e-06  -1.0259393e-04  -4.9382600e-04  -3.3557400e-04  -3.0582017e-04  -6.4096187e-04   5.9640053e-05  -1.5578693e-04  -7.9324062e-05  -5.5167216e-05   6.1043457e-04   7.2641917e-05   2.1592669e-04   1.5406532e-04  -1.0530543e-04  -1.0745762e-04   3.1859777e-04   4.6744430e-04  -1.3611800e-04   1.7140359e-04   3.1679001e-04   1.4649618e-03   1.0503375e-03   1.3297463e-03   3.2812273e-04   1.7771902e-04   9.3565806e-04  -2.3142173e-04   5.8962585e-04   6.8472396e-04   1.0633821e-03
  -7.3713181e-04  -7.2016771e-04  -1.7328460e-04  -6.4424239e-04  -3.2809615e-04  -8.7781210e-04  -1.0840326e-04  -7.1807495e-05  -6.6693337e-04  -4.1510508e-04  -6.6097733e-04  -4.7585671e-04  -4.3721628e-04  -1.8796381e-04   3.5161494e-05   4.1626750e-05   4.8377912e-04   2.9173846e-04  -2.7232966e-04  -9.2984592e-05  -1.9611519e-04  -4.9728568e-04  -9.5891803e-05  -3.5958193e-04  -3.8251802e-04   5.5245255e-05   7.0805225e-04   2.6289930e-04  -2.1019210e-04   4.6876070e-04   2.6859064e-04   8.3117993e-05   3.4282813e-05   1.2318527e-04   4.7758007e-05   5.1141356e-04   6.1396806e-04  -2.7045934e-04   4.5117320e-04   5.3502229e-04   1.4838233e-03   1.0578292e-03   1.0870602e-03   1.6759975e-04   2.1197132e-04   6.7084900e-04  -1.7813168e-04   4.7810763e-04   8.6994527e-04   1.2237112e-03
  -4.8232943e-04  -5.2678154e-04   1.0945167e-06  -4.2549544e-04  -1.1296200e-04  -3.7535414e-04  -1.5188460e-04  -1.2689302e-05  -2.8565218e-04  -2.4682964e-04  -4.4832480e-04  -3.5470253e-04  -2.1573598e-04  -7.5162759e-05  -2.7903606e-04   2.3408685e-04   6.1243161e-04   3.5290734e-04  -5.5216253e-04   7.7878365e-05   2.3906421e-05  -3.1700401e-04  -1.9846960e-04  -2.9513330e-04  -3.9514113e-04   1.6850387e-04  -5.4320152e-04   6.9443304e-05  -9.3307113e-04   7.9350511e-04  -6.8246227e-06   2.8315742e-04   2.8254744e-04   2.5540398e-04   5.5949111e-04   4.6578626e-04   6.5227383e-04   1.4289431e-04   8.5039181e-04   5.9857190e-05   1.5222885e-03   1.1852364e-03   1.3930546e-03   4.9445970e-04   3.5223665e-04   9.9040125e-04  -6.8239897e-05   7.4088853e-04   9.5175405e-04   1.0221108e-03
  -5.2398047e-04  -4.9769471e-04   3.4110206e-05  -4.5783754e-04  -2.0039493e-04  -7.1548618e-04  -2.0673213e-04  -6.4450738e-05  -5.2407727e-04  -2.5655064e-04  -4.9827760e-04  -3.1210907e-04  -2.7685222e-04  -5.9131860e-05  -1.0832995e-05   1.8005389e-04   6.0849887e-04   3.1254979e-04  -5.4123288e-04  -3.4423138e-05  -3.6542999e-05  -4.6868151e-04  -1.0912029e-04  -2.3220881e-04  -3.6578724e-04   1.1428205e-04  -2.9287452e-04   7.6705444e-05  -8.2296622e-04   4.9341528e-04   2.7416891e-04   2.1267064e-04   2.8503145e-04  -1.5484527e-04   4.5754456e-05   5.8419304e-04   5.3939817e-04   1.8106482e-05   2.9815990e-04  -6.3713314e-06   1.3812958e-03   9.1350882e-04   1.3644148e-03   5.0683535e-04   1.5016955e-04   8.8539987e-04  -1.3076096e-04   5.4473744e-04   7.3301949e-04   1.1352894e-03
  -5.5045856e-04  -6.4289192e-04  -1.1180771e-04  -5.7453767e-04  -3.7211290e-04  -7.7754352e-04  -3.4866109e-04  -3.7672831e-04  -4.9350905e-04  -3.3600585e-04  -6.5811304e-04  -4.0794903e-04  -4.4925735e-04  -1.6659006e-04  -2.8896061e-04   5.7867368e-05   5.1171269e-04   3.3728656e-04  -4.7570220e-04  -9.5432202e-05  -1.5482705e-04  -4.9015036e-04  -5.6287611e-04  -5.3193030e-04  -5.5075786e-04  -3.8478956e-05  -2.4270921e-04   2.6967662e-05  -2.0840520e-04   3.2962425e-04  -4.5680173e-04   1.6735561e-04   3.4886030e-05   5.6574143e-05  -4.1285378e-04   8.4073472e-05   5.7821864e-05  -3.5501720e-04   3.7663770e-04  -1.0322397e-04   1.2878492e-03   9.4740756e-04   1.1524485e-03   1.8328759e-04   9.8107783e-05   5.0759088e-04  -1.5381744e-04   6.1996368e-04   7.3707878e-04   8.8951254e-04
  -5.7469564e-04  -5.9108809e-04  -9.5056195e-05  -5.4219662e-04  -1.4405019e-04  -7.7945285e-04  -2.0590190e-04  -3.2480475e-05  -5.9725402e-04  -2.6353355e-04  -5.5448030e-04  -3.4137972e-04  -2.9453504e-04  -2.2368951e-04   4.0116356e-05   6.6587359e-05   4.7317703e-04   3.3308016e-04   1.6869355e-05   7.3805029e-07   3.3538046e-05  -3.1890091e-04  -3.6244481e-04  -1.4695870e-04  -6.3839543e-04   2.2234880e-04  -2.1573594e-04   3.2924951e-04  -1.3697651e-04   5.7302904e-04   3.7670627e-04   2.2811838e-04   7.8452649e-05   3.9293026e-04   4.0133984e-04   6.3202367e-04   2.9717380e-04  -8.0653364e-05   5.4417091e-04   3.3637800e-04   1.4290658e-03   1.0336329e-03   1.2672411e-03   1.5426676e-04   2.4899235e-04   9.1316586e-04  -6.3415493e-05   6.7910162e-04   8.7701151e-04   9.3222852e-04
  -4.3493669e-04  -4.6170497e-04   3.3103959e-05  -4.1659197e-04  -2.2542798e-04  -7.5718871e-04  -4.8189067e-05  -2.1333029e-04  -3.1599583e-04  -2.1093563e-04  -4.9633958e-04  -3.1714232e-04  -2.9325506e-04  -1.0289129e-04   6.1743602e-05   1.9228093e-04   5.6769879e-04   3.1145930e-04  -5.2550930e-04   6.0161699e-05   1.7734073e-05  -3.5188152e-04  -3.6299662e-04  -2.3525146e-04  -7.5258879e-04   1.4469126e-04  -2.6730745e-04   1.3565896e-04  -5.1022286e-04   5.0685927e-04   1.1130217e-04   2.5433995e-04   1.9019580e-04  -4.1181280e-05   2.5804600e-04   2.2065986e-04   1.4917478e-04   1.9006652e-04   7.7915238e-04   9.1036163e-05   1.5321492e-03   9.7840896e-04   1.3203517e-03   3.4824471e-04   1.8937474e-04   1.0343903e-03  -1.3143392e-04   8.5885299e-04   7.6326245e-04   1.0385109e-03
  -6.2775391e-04  -6.2353618e-04  -8.2846265e-05  -5.8708101e-04  -5.6032895e-04  -7.8170240e-04  -1.6110840e-04  -3.5486537e-05  -7.0508436e-04  -3.2729059e-04  -6.4783404e-04  -4.0209581e-04  -3.3736526e-04  -9.4262898e-05  -3.4495658e-04   6.7838781e-05   5.6852814e-04   3.3925928e-04  -5.2906782e-04  -6.1462728e-05  -1.2315076e-04  -5.3210079e-04  -4.6334727e-04  -3.1815810e-04  -4.9583107e-04  -1.2135874e-04  -5.4432705e-05  -1.6620640e-04   3.8624308e-05   5.2668049e-04   2.4929206e-04   1.3425593e-04  -1.1200165e-04   7.3725489e-05   1.6051825e-04   3.5198944e-04   1.4290477e-04  -1.5957674e-04   7.4794446e-04   3.8893806e-04   1.2744367e-03   9.7935845e-04   1.0794229e-03   1.8593238e-04   1.4245747e-04   8.1566168e-04  -3.9780128e-04   6.7510124e-04   5.9629348e-04   6.0186756e-04
  -8.1701047e-04  -8.5980666e-04  -2.7289739e-04  -8.0141210e-04  -5.1026698e-04  -9.8609866e-04  -4.6680580e-04  -9.5251220e-05  -7.9366239e-04  -4.2073632e-04  -8.5103436e-04  -5.5148645e-04  -4.8534691e-04  -3.3361165e-04  -3.0459670e-04  -6.4097512e-05   5.0373614e-04   2.8514460e-04   6.3100073e-05  -1.3819383e-04  -2.1025326e-04  -5.8690057e-04  -7.1076880e-04  -5.3801562e-04  -7.9056277e-04   6.0945167e-06  -7.0375012e-05  -1.9785881e-04   1.9238294e-04   5.7301554e-04  -3.0824944e-04   4.3522428e-05  -2.0818425e-04  -1.8772316e-04   2.9441202e-04   4.1332381e-04   7.1188569e-04  -1.8383986e-04   9.9319429e-04   5.6966119e-06   1.3321929e-03   8.9793047e-04   9.3400234e-04   2.1826981e-04   1.6161318e-04   6.3470640e-04  -2.0294933e-04   4.7247735e-04   8.6722954e-04   1.1746460e-03
  -5.7838199e-04  -5.6936545e-04  -2.7908147e-05  -5.3257809e-04  -3.2414455e-04  -7.2531396e-04  -1.0591092e-04   1.7960640e-04  -7.8497594e-04  -2.4538997e-04  -6.0971855e-04  -3.6322867e-04  -3.3685094e-04  -1.7873273e-04  -1.7877795e-04  -4.4288531e-06   6.3715072e-04   2.9236209e-04  -2.6524710e-04  -1.2781067e-05  -1.7814913e-05  -3.6911442e-04  -2.8085490e-04  -3.1023187e-04  -5.9888070e-04   6.8947229e-05   3.2512585e-04  -8.0545891e-05   4.2020317e-04   5.1496801e-04   1.2964355e-04   2.0050303e-04   7.5420721e-05   1.0962663e-04   4.0059330e-04   2.8897065e-04   3.5399673e-04  -3.0556927e-04   5.5144116e-04   4.3174849e-04   1.5405100e-03   8.7677169e-04   1.2304320e-03   3.1202496e-04   1.8063329e-04   8.3576719e-04  -2.6776429e-04   6.0647004e-04   7.6657359e-04   9.8114077e-04
  -6.2758173e-04  -6.3442654e-04  -6.7906432e-05  -6.1712076e-04  -3.6975351e-04  -5.4333761e-04  -1.2564409e-04  -2.0080847e-04  -7.5371133e-04  -2.9221212e-04  -7.3413207e-04  -4.2951404e-04  -3.9894058e-04  -1.0636585e-04  -4.9848034e-04  -7.6418168e-05   5.1904964e-04   2.3283732e-04  -5.2168162e-04  -8.8856992e-05  -1.1172679e-04  -4.9961556e-04  -1.6560577e-04  -3.8889944e-04  -6.0014444e-04  -3.4523346e-05  -3.8999366e-04  -1.3168759e-04   1.9262104e-04   4.5951505e-04  -1.7700627e-04   5.2551371e-05   7.6766810e-05  -8.9409601e-05   9.6560289e-05   3.3551297e-04   3.6093238e-04  -2.7980981e-05   1.0180838e-03   4.8760569e-04   1.2113542e-03   8.2252786e-04   9.2237594e-04   1.3036752e-04   1.9008639e-04   7.8642095e-04  -3.4684734e-04   5.5496197e-04   5.4122403e-04   7.7627646e-04
  -7.1149092e-04  -8.2376401e-04  -2.2917941e-04  -7.6709263e-04  -5.4729666e-04  -1.1491252e-03  -5.0851330e-04  -3.4419348e-04  -9.4911142e-04  -3.4639382e-04  -8.2833541e-04  -4.9515214e-04  -5.6770211e-04  -2.7395444e-04  -2.9313625e-04  -1.4389347e-04   4.1394433e-04   1.8835155e-04  -3.7690499e-04  -2.0600416e-04  -2.2984456e-04  -6.9393893e-04  -4.4595110e-04  -5.0623686e-04  -6.8537472e-04  -1.2284743e-04  -1.8753085e-04  -2.4110003e-04  -2.9095134e-04   3.8881254e-04  -4.5455134e-05  -4.9615162e-05  -2.8838377e-04  -3.7709743e-04  -2.5548588e-04  -3.4823539e-04   3.6749383e-04   4.3879012e-05   7.6378009e-04   1.4288505e-04   7.6400826e-04   5.0810928e-04   9.6721319e-04   3.8891547e-05  -8.5394597e-05   4.1373688e-04  -4.3617230e-04   2.5008369e-04   4.7416188e-04   8.1383309e-04
  -7.9230720e-04  -7.9859945e-04  -3.3410761e-04  -7.4838381e-04  -2.0080597e-04  -8.6949015e-04  -3.9645509e-04   2.0453548e-04  -7.1004697e-04  -3.2351346e-04  -8.1125018e-04  -4.8050281e-04  -5.2304735e-04  -1.8243544e-04  -2.3325934e-04  -4.0098894e-04   3.8049024e-04   1.8155218e-04  -4.5302667e-04  -1.9599126e-04  -1.4160812e-04  -7.3263567e-04  -7.4280385e-04  -3.7474418e-04  -7.1902742e-04  -1.8594724e-04   1.1620700e-04  -1.7110215e-04   3.2348875e-05   4.1032920e-04  -4.8668013e-04  -8.5104308e-05   1.1609235e-05  -3.7355188e-04  -3.1752509e-06   2.6149195e-04   3.6328380e-05  -2.6378394e-04   6.3812005e-04   1.3639410e-04   1.1135464e-03   7.5702742e-04   8.6111546e-04   3.3786052e-04   9.2696522e-05   5.3374330e-04  -2.6987819e-04   3.4979469e-04   5.7004351e-04   7.8839768e-04
  -7.1261654e-04  -7.3442206e-04  -1.7599540e-04  -6.4574950e-04  -3.1669543e-04  -5.9929281e-04  -1.4740591e-04  -1.1935244e-04  -8.5819064e-04  -2.8990957e-04  -7.4169814e-04  -4.8457232e-04  -4.8692894e-04  -2.1701478e-04  -3.0958248e-04  -2.1583863e-04   3.7005139e-04   8.0108497e-05  -6.3563493e-04  -1.5223942e-04  -1.4568349e-04  -6.2288134e-04  -2.7080034e-04  -4.2516505e-04  -7.0132525e-04  -5.7512530e-05  -8.1706804e-04  -3.0949866e-04  -5.0755130e-05   3.9629280e-04  -3.0351404e-04  -1.4181381e-04  -1.5506615e-05   1.2566814e-04   4.5434540e-04   1.0092105e-04   4.2729650e-04  -2.7505844e-04   6.6144951e-04   9.1720060e-05   1.0463404e-03   6.1363948e-04   8.1528840e-04   7.6396245e-05  -4.8500879e-05   5.8724411e-04  -3.8872933e-04   2.8711461e-04   4.9263047e-04   7.9903909e-04
  -7.6423265e-04  -8.4955286e-04  -3.3610500e-04  -8.2257669e-04  -5.2976306e-04  -1.0673857e-03  -1.7227947e-04  -1.1371457e-04  -9.7900187e-04  -3.6978663e-04  -8.5211557e-04  -5.6938408e-04  -5.7685591e-04  -3.0067613e-04  -2.2732884e-04  -2.8392591e-04   2.8884684e-04   1.1944297e-04  -8.7294343e-04  -2.5648344e-04  -2.6940432e-04  -7.2258990e-04  -4.6340353e-04  -5.8250787e-04  -7.3979399e-04  -2.6147682e-04  -3.3233079e-04   1.9083700e-05  -5.0587929e-04   2.9624157e-04   1.0256826e-04  -1.5326582e-04  -5.6535919e-04  -3.6068977e-05   4.0341934e-04  -3.1681344e-04  -1.9018099e-04  -7.7831035e-04   2.0410366e-04  -2.0696488e-04   8.9158997e-04   5.7002413e-04   5.8896851e-04   5.4589003e-05  -1.2705305e-04   5.7869451e-04  -6.0995389e-04   1.7159454e-04   4.0910277e-04   5.6466309e-04
  -9.6881512e-04  -9.1430341e-04  -3.7161884e-04  -8.6976489e-04  -4.8290956e-04  -9.8710845e-04  -2.6659874e-04   6.4866275e-05  -7.7092554e-04  -3.9514387e-04  -8.2625548e-04  -5.8737566e-04  -4.9230020e-04  -2.6703352e-04  -3.5962451e-04  -2.7226051e-04   3.0303450e-04   1.1281436e-04  -3.0579796e-04  -2.5117159e-04  -1.8088229e-04  -6.0604507e-04  -5.8555166e-04  -5.5431150e-04  -7.5232534e-04  -1.6538239e-04  -2.4212050e-04  -3.2595886e-05   5.3414833e-06   3.5719937e-04   1.4772346e-05  -4.7725891e-05  -6.1246588e-05  -7.5883239e-05   1.7281256e-04   2.7904139e-04  -4.2193118e-04   3.7615665e-04   6.8102387e-04  -8.6976499e-05   1.0092539e-03   6.9325953e-04   1.0439600e-03   3.0347743e-04   6.1815663e-05   6.7572243e-04  -3.9643759e-04   3.8576222e-04   5.7872746e-04   8.5439935e-04
  -7.0938066e-04  -6.5930031e-04  -1.7994270e-04  -6.5940584e-04  -4.9307774e-04  -6.9756579e-04  -2.4458722e-04  -1.6609061e-04  -6.8874267e-04  -2.6445885e-04  -7.3088473e-04  -4.8880291e-04  -4.2914166e-04  -2.3375520e-04  -3.9325323e-04  -2.8182517e-04   3.6533078e-04   5.9238362e-05  -3.6612764e-04  -2.0064838e-04  -1.1381711e-04  -6.8280241e-04  -5.3382386e-04  -3.9063106e-04  -3.6066992e-04  -2.4208375e-05  -3.7429697e-04  -2.5746014e-04  -3.7377758e-04   1.9610979e-04  -6.3582760e-04  -9.1813868e-05  -2.6575892e-04  -6.8707464e-05   6.8337155e-05   2.3528691e-04  -1.6644303e-04  -2.7785983e-04   5.2230217e-04   2.1300149e-04   1.0345657e-03   5.8875361e-04   8.1993954e-04   1.4123663e-04   8.9263449e-05   8.3637674e-04  -3.6519268e-04   4.3756477e-04   5.8410323e-04   8.0482860e-04
  -8.0997625e-04  -7.9618674e-04  -2.4830349e-04  -8.0195890e-04  -6.1364210e-04  -1.2508050e-03  -4.1063604e-04  -4.0228488e-06  -9.1895898e-04  -3.5373177e-04  -8.2413346e-04  -5.3384970e-04  -6.0407008e-04  -4.2243727e-04  -6.5184239e-04  -2.8431436e-04   3.8691255e-04   4.8937825e-05  -6.3696876e-04  -2.6975537e-04  -2.4414208e-04  -9.2664070e-04  -4.8851338e-04  -7.1136246e-04  -9.1540907e-04  -1.9026735e-04  -8.2225550e-04  -6.8852234e-05  -1.1425142e-04   3.8859589e-04  -4.9797987e-04  -4.3342778e-05  -5.9842516e-04  -2.0639715e-04  -6.3645345e-04  -2.7934069e-04   1.8182503e-04  -4.2756362e-04   4.9830042e-04   9.1859438e-05   8.6770317e-04   4.6555098e-04   8.8376814e-04  -1.6648450e-05  -1.1350027e-04   6.0167979e-04  -5.0423085e-04   2.9898211e-04   4.0596665e-04   6.5199134e-04
  -9.1891392e-04  -9.5288706e-04  -3.6621155e-04  -9.1184583e-04  -6.5718003e-04  -9.1485656e-04  -4.1784023e-04  -2.5844417e-04  -8.9958112e-04  -3.4436540e-04  -8.4069092e-04  -5.5504084e-04  -5.6147738e-04  -3.3460560e-04  -5.0847826e-04  -3.2434874e-04   2.9817139e-04   1.7010747e-04  -4.4898069e-04  -2.5077540e-04  -1.5965993e-04  -7.5508264e-04  -4.9284071e-04  -4.4193384e-04  -6.5058633e-04  -1.4815286e-04   9.2312963e-05  -1.6287348e-04  -5.7748420e-04   4.1976862e-04  -1.0606545e-06  -1.1346786e-04  -8.7582746e-05  -2.0682099e-04   3.9092745e-05   6.0923870e-05   2.3825374e-04  -3.7252207e-04   7.0535531e-04   1.8933472e-04   9.3756977e-04   6.5809995e-04   9.7658054e-04   2.9440620e-05   1.5664472e-04   3.0676328e-04  -3.0443753e-04   4.2289222e-04   6.6376693e-04   8.8751048e-04
  -4.7379584e-04  -5.8394455e-04  -1.0475775e-04  -6.2724168e-04  -1.8596739e-04  -9.9576579e-04   2.5355101e-05  -2.4396500e-04  -6.2512478e-04  -1.9646740e-04  -6.8829319e-04  -3.6973541e-04  -3.6343338e-04  -1.9380540e-04  -3.7255409e-04  -1.5351061e-04   3.8928824e-04   1.8770077e-04  -1.1866867e-04  -1.4870625e-04  -1.7321910e-05  -5.3720019e-04  -3.0391448e-04  -2.4093276e-04  -6.2290143e-04  -1.3510881e-04  -3.8942296e-04  -2.7926065e-04   1.2575276e-04   5.0553877e-04  -5.8610167e-04  -6.3632579e-05   1.2704519e-04  -1.2607042e-04   2.0042651e-04  -8.8210232e-05  -1.9387939e-04  -2.3556105e-04   1.1778649e-04  -1.7554114e-05   9.8397315e-04   6.8377005e-04   9.3071529e-04   1.2224268e-04   1.1024175e-04   4.8938498e-04  -2.2711363e-04   3.7443254e-04   5.7721179e-04   7.1586331e-04
  -4.8161121e-04  -6.1480491e-04  -1.5304265e-04  -6.8533514e-04  -2.1587209e-04  -8.4874226e-04  -4.7217644e-04  -3.8829309e-04  -8.2097959e-04  -1.7832399e-04  -6.8870035e-04  -3.5966065e-04  -4.0895585e-04  -2.6647717e-04  -2.6198721e-04  -1.8847283e-04   3.2648427e-04   1.0878660e-04  -4.7363425e-04  -1.9393660e-04  -1.2620575e-04  -6.0495228e-04  -5.2207743e-04  -3.1013068e-04  -5.4973469e-04  -2.5262206e-04  -5.0559564e-04  -8.2288105e-05  -5.0543586e-04   2.0966952e-04  -5.4435711e-04  -1.5636653e-04  -1.3025654e-04  -3.6838389e-04   4.7800659e-05   6.7527922e-06  -3.1158060e-04  -6.8057113e-04   2.0492655e-04  -5.4684795e-05   7.1203773e-04   5.0712662e-04   1.0691043e-03   3.1675889e-05  -6.1963008e-05   2.8270829e-04  -3.6411558e-04   7.2714975e-05   4.4869227e-04   5.2724179e-04
  -7.7738758e-04  -7.5009681e-04  -2.5566050e-04  -8.1608375e-04  -5.2626629e-04  -1.0139932e-03  -4.7552006e-04  -1.8521535e-04  -9.9251536e-04  -2.7240897e-04  -8.2039111e-04  -4.2499974e-04  -5.0803466e-04  -2.4400045e-04  -6.2485161e-04  -3.1422806e-04   2.1727971e-04   2.1011109e-04  -7.8779919e-04  -3.7046615e-04  -2.4936369e-04  -8.1209536e-04  -8.7244221e-04  -6.1218237e-04  -7.6054892e-04  -2.6405690e-04  -6.4753264e-04  -1.6693314e-04  -6.7129784e-04   1.7254781e-04  -1.2245453e-04  -1.2652110e-04   4.9417860e-05  -3.4418982e-04   2.0067785e-04  -2.9505751e-04  -2.1307221e-04  -5.2654365e-04   3.5810284e-04   5.6386914e-05   8.7800302e-04   6.8887527e-04   8.3416473e-04  -2.0989793e-05   1.5209564e-05   5.0246797e-04  -2.1170879e-04   1.3949112e-04   6.5957021e-04   8.5095403e-04
  -4.3113274e-04  -5.5396702e-04  -1.1933197e-04  -5.7016045e-04  -1.1333627e-04  -5.0161593e-04  -1.7073021e-04  -2.8096405e-05  -4.9871724e-04  -8.7641842e-05  -5.4028514e-04  -2.5674721e-04  -2.7768069e-04  -1.8053918e-04  -1.4379891e-04  -4.3279084e-04   4.1807594e-04   2.4105287e-04  -4.9479294e-04  -1.1320905e-04   1.6350776e-05  -5.2648905e-04  -4.9818243e-04  -1.7717203e-04  -3.7317944e-04  -5.4932898e-05  -1.9305064e-04  -1.3931052e-04  -1.0881914e-03   2.7035832e-04  -4.8167098e-04  -1.2133063e-04   3.3976007e-04   5.2579657e-05   3.0254465e-04   3.3379643e-04  -1.0526508e-07  -1.6954746e-04   3.5185600e-04   3.5953897e-05   9.2806941e-04   6.2199042e-04   1.0334866e-03   2.2911020e-04   2.2217201e-04   5.1658822e-04  -2.5126632e-04   6.0622382e-04   7.1795727e-04   8.2510634e-04
  -4.5968988e-04  -5.1362265e-04  -1.3286366e-05  -6.0848187e-04  -1.3226645e-04  -8.6097856e-04  -2.8577185e-04   1.4036956e-04  -7.3786982e-04  -1.2582469e-04  -5.5915228e-04  -3.1251769e-04  -2.9251730e-04  -7.8737721e-05  -1.6305034e-04  -2.2030217e-04   4.0177850e-04   9.6655196e-05  -6.3026289e-04  -1.2908444e-04  -4.4313976e-05  -4.6228588e-04  -3.9976550e-04  -3.8531123e-04  -1.9031866e-04  -1.2783959e-04  -4.0809403e-04  -1.0181369e-04  -7.9527439e-04   3.2394272e-04  -3.3612020e-04  -3.1411735e-05  -1.8919751e-04  -4.6263725e-04   2.9493969e-05   2.2115877e-04  -1.9817190e-04  -2.9952466e-04   6.6150926e-05  -2.6156582e-04   9.9428522e-04   5.6449004e-04   8.7749574e-04   1.3183982e-05   3.4978504e-05   5.1072624e-04  -3.0480686e-04   4.3693351e-04   5.9134676e-04   7.3402439e-04
  -5.8388838e-04  -6.6928775e-04  -1.8138050e-04  -7.4325438e-04  -6.1061187e-04  -8.8577805e-04  -5.0979987e-04  -2.7503731e-04  -5.6566240e-04  -2.0655207e-04  -6.8388606e-04  -3.7724094e-04  -3.5406734e-04  -2.5309258e-04  -5.0808216e-04  -1.7727996e-04   2.8547470e-04   1.1700046e-04  -6.4878148e-04  -2.7496571e-04  -1.8359267e-04  -7.5883011e-04  -6.0280116e-04  -4.6792906e-04  -3.7457302e-04  -2.6838045e-04  -3.2834124e-04  -1.2770058e-04  -4.4570974e-04   1.4758142e-04  -6.8329921e-04  -1.4890359e-04  -4.5900047e-04  -3.4715293e-04   2.4310249e-04  -4.2101229e-04   6.1178929e-05  -7.3704886e-04  -2.1380861e-04  -2.6621352e-04   6.5244635e-04   3.4865574e-04   7.5794663e-04  -6.2557083e-05  -9.1841772e-05   4.5362848e-04  -4.1020798e-04   2.6852376e-04   4.8718057e-04   7.0924568e-04
  -6.7896547e-04  -6.5266958e-04  -1.6170877e-04  -7.1630446e-04  -4.4616061e-04  -1.1086505e-03  -2.5319311e-04   8.6348278e-05  -9.0414844e-04  -1.9047658e-04  -6.3610816e-04  -3.8144988e-04  -3.1655002e-04  -1.9086797e-04  -2.7289294e-04  -1.6099447e-04   3.7795186e-04   1.2429318e-04  -3.2726678e-04  -2.0049437e-04  -6.2388295e-05  -6.4513547e-04  -4.1997604e-04  -3.5592326e-04  -4.4610223e-04  -1.5869141e-04   2.6872696e-04  -6.2100902e-05  -5.7508762e-04   2.0380957e-04  -6.7495962e-04  -7.8695353e-05   2.4179093e-05  -4.0956515e-05  -1.3148253e-04  -1.0804414e-04  -3.8265702e-04  -3.3099466e-05   2.2877165e-04   2.8359684e-05   8.3343219e-04   5.9938012e-04   8.9765544e-04   1.4311040e-04   2.2034560e-04   6.6455541e-04  -2.2516047e-04   5.7983171e-04   6.9059967e-04   8.2635402e-04
  -3.6669377e-04  -4.6775935e-04  -2.2530035e-05  -5.4587953e-04  -4.5017421e-04  -2.2769751e-04  -2.5165372e-04   1.7264251e-04  -6.3292729e-04  -1.0254350e-04  -5.4909958e-04  -2.4758457e-04  -2.0234517e-04  -2.2204635e-04  -1.6431144e-04  -1.5224906e-04   3.6916914e-04   1.5206813e-04  -5.4063811e-04  -1.1734621e-04  -1.5892598e-05  -5.9889490e-04  -9.0701338e-05  -3.1877431e-04  -5.6892302e-04  -2.0296423e-04  -1.4887385e-04   1.8314493e-04  -5.4551475e-04   2.5852950e-04  -1.6302723e-04   3.1686759e-05   1.8117910e-06   1.0818113e-04   3.8309704e-04  -3.3035496e-04  -1.7626995e-04  -4.2605941e-04   9.4106756e-05   3.3347879e-04   8.3427224e-04   6.9989043e-04   1.0864381e-03  -1.5636993e-05   6.8424481e-05   3.4362698e-04  -3.3260052e-04   5.1911769e-04   6.5844465e-04   6.4273382e-04
  -5.4782192e-04  -5.7355576e-04  -7.8338468e-05  -6.7724218e-04  -4.5085358e-04  -7.6833210e-04  -2.8443904e-04  -6.3406309e-04  -7.0776755e-04  -2.0572306e-04  -6.1974971e-04  -3.1365489e-04  -3.7191799e-04  -6.3914867e-06  -2.1886076e-04  -1.6766171e-04   3.9453135e-04   1.4794650e-04  -4.3857281e-04  -2.5682064e-04  -1.4709627e-04  -7.3942926e-04  -2.4468175e-04  -5.0589041e-04  -8.9956709e-04  -2.6016557e-04  -4.6210270e-04  -2.1740141e-04  -7.1079854e-04   7.8121215e-05  -2.8617304e-05  -2.1288566e-05  -1.4745457e-04  -8.5884109e-05  -7.1001472e-05  -1.0465092e-04  -3.0670236e-04  -1.8279895e-04  -6.5157561e-05  -5.6560215e-04   6.4425834e-04   4.7388603e-04   8.1860495e-04   2.3796809e-05  -3.8420458e-06   4.2454529e-04  -4.3557372e-04   5.8249949e-04   4.1627325e-04   6.3551718e-04
  -8.0622203e-04  -8.1070344e-04  -2.1663072e-04  -8.7415380e-04  -3.4602222e-04  -9.5589162e-04  -3.0191001e-04  -4.3702498e-04  -9.0474350e-04  -3.2028905e-04  -7.7979302e-04  -4.7155246e-04  -3.5746113e-04  -2.6795559e-04  -2.4670115e-04  -2.0584020e-04   3.8178838e-04   1.0954495e-04  -5.3313805e-04  -3.2119770e-04  -2.1792830e-04  -7.0028676e-04  -6.1986747e-04  -3.8560759e-04  -9.0132694e-04  -3.4435216e-04   8.4895226e-05  -1.7689666e-04  -9.0229296e-04   1.0604000e-04  -7.5082258e-05  -1.6497255e-04  -6.9210721e-05  -1.3267936e-04   1.9713877e-04  -3.3934437e-05  -1.7104944e-04  -3.1992682e-04   1.7503243e-04  -3.5110215e-04   9.5918245e-04   6.0428429e-04   8.0332096e-04   2.5897374e-04   5.2682364e-05   5.1211246e-04  -3.2680569e-04   4.0186604e-04   6.5126008e-04   4.7451138e-04
  -6.1228959e-04  -5.4840208e-04  -3.9895072e-05  -6.4743974e-04  -4.0763378e-04  -3.1205066e-04  -1.6993367e-04  -3.2357691e-04  -6.5836270e-04  -2.1726695e-04  -6.0486200e-04  -3.2195318e-04  -2.6015058e-04  -7.0299371e-05  -4.6009489e-04  -1.6071678e-04   3.8816762e-04   1.1161558e-04  -5.3375127e-04  -2.1769549e-04  -1.3460519e-04  -6.0041196e-04  -4.5581665e-04  -3.3049189e-04  -6.0323445e-04  -6.9774593e-05  -5.9270678e-04  -2.9834040e-05  -6.2291737e-04   1.3696206e-04  -3.8106265e-04   4.1707804e-05  -5.8217131e-05   3.0893027e-06   2.2691616e-04  -5.4207835e-06   3.4665506e-04  -7.0965081e-04   2.0931315e-04   1.2468066e-04   9.7326329e-04   6.5217429e-04   1.1383111e-03   2.8150668e-04   2.2718562e-04   4.9478858e-04  -3.4400867e-04   4.8509592e-04   6.0538901e-04   6.4099464e-04
  -6.5530417e-04  -6.4470602e-04  -6.6084620e-05  -7.4536481e-04  -3.1894798e-04  -1.0145741e-03  -2.4614087e-04   1.5573704e-04  -8.9813501e-04  -2.7167224e-04  -6.6495599e-04  -4.2837448e-04  -3.1087830e-04  -2.0765445e-04  -4.8587710e-04  -1.0286373e-04   5.1673432e-04   1.2927197e-04  -6.4077927e-04  -2.4518775e-04  -2.1675580e-04  -6.0171523e-04  -7.7195914e-04  -5.7022914e-04  -6.5957010e-04  -3.1822702e-04  -1.8654886e-04  -2.0732848e-04  -1.3693112e-04   1.3333256e-04   1.7433760e-05  -1.9412768e-05  -8.0604506e-05  -3.2296623e-04   1.5417907e-04  -3.4259478e-04   2.1834967e-05  -6.8531476e-04   1.5880835e-04   5.0065126e-05   8.2514324e-04   4.6244063e-04   9.1706414e-04   2.9251605e-05  -5.0020637e-05   2.9974213e-04  -4.3167861e-04   4.1282192e-04   4.3511330e-04   5.2979152e-04
  -9.0910180e-04  -8.8953442e-04  -2.6481203e-04  -9.0951961e-04  -5.9070636e-04  -9.7148679e-04  -4.2359246e-04  -1.4989347e-04  -1.0944129e-03  -3.4644944e-04  -8.1398437e-04  -5.1850057e-04  -3.4747669e-04  -1.5951184e-04  -2.1662151e-04  -3.1451261e-04   4.1518061e-04   1.2788601e-04  -9.7045046e-04  -2.8470764e-04  -2.8844006e-04  -7.4718270e-04  -6.6017464e-04  -4.3515692e-04  -6.0103269e-04  -3.6682514e-04   1.2888343e-04  -2.7590347e-04  -4.2713570e-04   2.4943653e-04  -4.7194882e-04  -8.3067425e-06  -3.5496478e-04   3.3394201e-04   1.4612336e-04  -2.8283463e-04   3.8382766e-04  -4.5180434e-05   2.9761012e-04  -2.0776535e-04   1.0191564e-03   5.3427235e-04   8.7742368e-04   2.2614661e-04   2.9765572e-05   3.0144135e-04  -4.1168067e-04   5.9344555e-04   6.7139289e-04   8.1419072e-04
  -5.3587958e-04  -5.7390105e-04  -1.1133363e-04  -6.4051105e-04  -3.3914493e-04  -8.0097350e-04  -2.5132054e-04  -8.3545128e-05  -7.4387447e-04  -1.8080139e-04  -5.7233451e-04  -3.1797052e-04  -2.0565611e-04  -1.4531880e-04  -4.9639458e-04  -2.1486334e-04   3.9227260e-04   1.4608256e-04  -4.4362262e-04  -1.8037020e-04  -1.3993746e-04  -5.4396957e-04  -2.9119247e-04  -2.5466573e-04  -7.6883991e-04  -1.4741742e-04  -4.5436894e-04  -5.4391323e-05   2.9031819e-04   2.6128569e-04  -4.7404060e-04   1.2437195e-05  -5.5329208e-05  -2.7211098e-04   5.6192931e-04  -9.2904374e-05   4.6324887e-04  -4.4579784e-04   1.3572563e-04   3.8176833e-05   8.3740515e-04   6.6126435e-04   8.6646079e-04   1.0520045e-04   7.5784134e-05   7.3353580e-04  -3.3432205e-04   4.5831405e-04   6.0080341e-04   8.7724114e-04
  -6.3792610e-04  -5.7601481e-04  -1.0923445e-04  -7.3183025e-04  -3.2962041e-04  -5.9025182e-04  -4.4861130e-04  -3.7601308e-04  -7.4331462e-04  -2.0229581e-04  -6.2269031e-04  -3.2709487e-04  -2.2594750e-04  -2.3196844e-04  -1.6751610e-04  -9.3948656e-05   4.1389535e-04   1.4313462e-04  -9.1453502e-04  -2.1823027e-04  -2.1614179e-04  -7.2768948e-04  -2.7936173e-04  -4.0072275e-04  -3.7745148e-04  -2.5657320e-04   2.6610872e-04  -1.7430694e-04   5.3321663e-04   3.3191466e-04   9.8856086e-05   3.8397298e-05  -3.1163177e-04  -2.2689643e-04   4.6700909e-04  -1.1366856e-04  -3.5082537e-04  -4.6310655e-04   1.0944633e-04  -2.3418474e-05   9.0469164e-04   5.9781899e-04   8.7913219e-04   1.0732226e-04   3.7019239e-05   4.6487828e-04  -5.0027191e-04   3.5749187e-04   4.5331064e-04   3.5868934e-04
  -8.0272340e-04  -8.0293551e-04  -2.1281771e-04  -8.7778439e-04  -3.8165099e-04  -7.3142088e-04  -3.3207634e-04  -3.6441645e-04  -1.0874168e-03  -3.0450424e-04  -7.9454260e-04  -4.2785573e-04  -4.0485145e-04  -3.9171853e-05  -2.2242199e-04  -1.2071066e-04   3.8714748e-04   1.4973890e-04  -7.0635509e-04  -3.5532235e-04  -3.6039652e-04  -8.2831760e-04  -3.4488371e-04  -4.5857357e-04  -4.9323554e-04  -2.7438323e-04  -3.0529985e-04   5.8283560e-05  -4.0099182e-04   1.4191258e-04  -5.6045491e-04   9.5330382e-05  -2.7163772e-04  -5.9032498e-04   3.5347778e-04  -3.4157126e-04  -2.7163903e-04  -6.9864147e-04  -9.8632918e-05  -1.1621927e-04   6.2293623e-04   5.5810966e-04   9.4501046e-04   5.5343284e-05   4.0355910e-05   7.2128075e-04  -4.7924282e-04   3.9633102e-04   6.6031265e-04   6.6854409e-04
  -6.0869911e-04  -5.7526096e-04  -5.7443372e-05  -6.7176844e-04  -4.2799176e-04  -6.7985454e-04  -1.6286939e-04  -4.9746002e-05  -5.6330004e-04  -1.6664570e-04  -5.3866918e-04  -2.7283133e-04  -1.6795842e-04  -2.0496789e-04  -7.8970892e-04   4.5899458e-05   4.6214843e-04   2.3330121e-04  -5.1837473e-04  -1.6035675e-04  -1.3647896e-04  -5.0815253e-04  -5.3197838e-04  -2.1017296e-04  -4.0938941e-04  -1.7974980e-04  -1.4447232e-05  -3.3867967e-05   4.6768071e-04   2.1960537e-04  -5.6117610e-04   1.0597349e-05  -4.2735697e-05   1.1555073e-04   5.5516104e-04   1.4249758e-04   2.0911836e-04  -2.0141432e-04   1.2927003e-04  -3.6704855e-04   8.8900252e-04   6.5841631e-04   1.1069278e-03   3.6569935e-04   5.0384970e-05   4.6297419e-04  -3.4035524e-04   3.6233148e-04   6.4297428e-04   6.1814708e-04
  -5.8876642e-04  -5.4737384e-04  -1.3384846e-05  -6.3132803e-04  -5.2372529e-04  -5.2127230e-04   7.7765717e-06  -6.2883744e-05  -7.1047351e-04  -1.2726776e-04  -5.9765711e-04  -2.2267523e-04  -1.8815801e-04  -6.0778046e-05  -2.4775692e-04   1.2014722e-04   5.0540105e-04   2.0911888e-04  -6.8584492e-04  -1.8814877e-04  -2.0683474e-04  -5.3543953e-04  -5.7101401e-04  -2.8105520e-04  -4.9914088e-04  -2.0018955e-04  -3.9989129e-04  -2.9546116e-04  -6.1513879e-04   2.5503614e-04  -4.3943306e-04   1.1334501e-04  -9.6772885e-05  -7.4572956e-05   1.5545549e-04  -1.8213200e-04  -1.2975284e-04  -8.2159000e-05   2.0666151e-04  -1.6749042e-04   7.1199320e-04   6.6068635e-04   9.4379397e-04   2.6409121e-04   7.4102318e-06   4.5748951e-04  -4.7277380e-04   3.2349571e-04   4.9268280e-04   5.6872913e-04
  -6.6459138e-04  -7.6095364e-04  -1.3240454e-04  -8.7959005e-04  -2.9465451e-04  -9.9546742e-04  -3.0436830e-04  -4.9402576e-04  -7.2639470e-04  -4.2304382e-04  -6.8017404e-04  -3.4518609e-05  -2.9380087e-04  -2.2540077e-04  -3.9324639e-04  -1.7742487e-04   2.4817680e-04   1.8877126e-04  -4.6442574e-04  -3.3799311e-04  -3.5169674e-04  -6.4523134e-04  -5.5688282e-04  -4.7293969e-04  -6.1210309e-04  -3.3215299e-04  -6.5836747e-04  -1.2518831e-04   3.0294337e-04   1.2282244e-04   6.3020534e-06   1.4040542e-05  -3.2959689e-04   6.1960754e-06  -1.2420811e-04  -5.0546118e-04   3.2601201e-05  -8.6556625e-04  -4.3724341e-04  -4.4080478e-04   5.3004274e-04   3.6080627e-04   6.3787482e-04  -2.4702267e-05  -2.4765226e-04   2.1138805e-04  -4.9628131e-04   2.3116139e-04   3.5106306e-04   4.9630681e-04
  -7.2740362e-04  -7.5979618e-04  -1.7448083e-04  -7.7935791e-04  -6.1960274e-04  -7.7632652e-04  -2.8008033e-04  -3.1109439e-04  -6.6986115e-04  -2.4207433e-04  -6.4336194e-04  -8.6554581e-05  -2.2651392e-04  -1.2999690e-04  -5.4350076e-04  -1.6704020e-04   3.9708248e-04   2.7408506e-04  -8.0712384e-04  -2.2181765e-04  -1.9298623e-04  -3.5382484e-04  -3.3702745e-04  -2.5819775e-04  -5.8779534e-04  -1.7866328e-04  -1.7127923e-04  -3.7360453e-05  -3.4627752e-05   3.5733930e-04  -6.1223318e-04   7.3348026e-05  -2.1711118e-04  -1.7848289e-04   2.0079590e-04  -1.9913692e-04   1.3426074e-04  -1.9906691e-04   7.6563556e-05   1.0208558e-04   8.0476695e-04   6.8324915e-04   9.2315365e-04   2.1200806e-04   1.0429834e-04   2.8862266e-04  -3.3044411e-04   3.4280319e-04   5.7793700e-04   7.5140793e-04
  -5.6950276e-04  -5.9652037e-04  -1.6020464e-05  -5.5547099e-04  -1.6056717e-04  -3.1346804e-04  -1.3235993e-04  -6.2243678e-05  -6.9546228e-04  -6.3235537e-05  -5.7384768e-04  -4.8937596e-05  -1.8726733e-04  -2.1676259e-04  -1.2748201e-04  -1.0692004e-05   4.6965751e-04   3.2218074e-04  -7.1775372e-04  -1.8601370e-04  -1.4126643e-04  -5.0407019e-04  -4.9652113e-04  -1.6499966e-04  -6.5472571e-04  -1.3209406e-04  -2.1512817e-04  -1.3819823e-04   5.4167329e-05   2.7437165e-04  -5.2557478e-04   5.3240197e-05  -1.4577497e-04  -1.2468767e-05  -9.2866459e-05  -2.4389972e-04  -4.5445628e-05  -9.0382696e-04  -1.5126032e-04   1.8754316e-04   6.5502763e-04   7.7879918e-04   9.5490692e-04   3.3351291e-05  -5.6764922e-05   3.6824378e-04  -3.1330163e-04   3.1692590e-04   4.3885547e-04   5.3786422e-04
  -5.8089854e-04  -6.9083920e-04  -1.1599444e-04  -6.8906968e-04  -6.1682565e-04  -2.8981574e-04  -3.8690935e-04  -2.3435822e-04  -4.7135251e-04  -1.4930825e-04  -6.5263658e-04  -2.2778765e-04  -2.4688404e-04   1.1842875e-05  -4.5024292e-04  -1.8768247e-04   4.8712725e-04   3.2780631e-04  -6.3923659e-04  -2.5185695e-04  -2.9134777e-04  -6.8662968e-04  -6.6417735e-04  -3.7274137e-04  -4.9313408e-04  -3.4957594e-04   1.9854047e-04  -8.2341823e-05  -1.9793368e-04   2.8005408e-04   9.9150777e-05  -1.9589441e-05  -1.0114882e-05   2.9583321e-06   2.6428403e-04  -4.1557229e-04  -6.4553833e-04  -5.5542344e-04  -2.3621923e-04  -2.8287133e-04   8.3533209e-04   5.2209303e-04   7.1879668e-04   1.8592158e-05  -2.6691181e-04   1.1697535e-04  -4.7777256e-04   1.9348128e-04   2.4528310e-04   5.1632209e-04
  -8.8798942e-04  -9.5072889e-04  -2.5934607e-04  -9.4895629e-04  -4.8837345e-04  -1.1786405e-03  -5.0603901e-04  -8.6362647e-08  -9.7726099e-04  -2.8108765e-04  -8.1409432e-04  -4.3184307e-04  -4.3751067e-04  -1.7874502e-04  -2.4275029e-04   1.1141160e-05   4.4327712e-04   2.2138622e-04  -7.7961513e-04  -3.3561743e-04  -3.7020986e-04  -7.2743738e-04  -7.6551316e-04  -5.0908217e-04  -6.4916472e-04  -3.5457642e-04  -1.6373377e-04  -1.9488466e-04   6.9078925e-04   2.7803230e-04  -5.4066506e-05  -7.8587036e-05   3.0887222e-05  -3.3247631e-04   1.5790349e-04  -4.2425859e-04  -3.2664489e-04  -6.3320989e-04   2.0341502e-06   5.5225715e-05   8.5257919e-04   5.8445166e-04   6.7041843e-04   5.0747174e-05  -2.6985712e-04   2.7233281e-04  -3.5893981e-04   2.8314034e-04   4.7038804e-04   5.8020768e-04
  -6.8885810e-04  -6.8217749e-04  -1.0237227e-04  -6.9969142e-04  -7.2331593e-04  -4.4285823e-04  -1.6015074e-04  -2.9764036e-05  -5.9819606e-04  -1.7536915e-04  -6.6227169e-04  -2.7932439e-04  -3.3451754e-04  -1.0910691e-04  -4.8297985e-05   2.3253202e-05   5.0435046e-04   1.9617091e-04  -8.1023446e-04  -2.5597602e-04  -2.5690350e-04  -4.3527273e-04  -3.7228758e-04  -4.1112589e-04  -7.0071366e-04  -2.2935725e-04   3.7518583e-04  -2.7088670e-05  -2.8052292e-04   1.9565399e-04  -4.8808583e-05   1.9092022e-05  -2.0626269e-04  -3.5946661e-05   2.4764315e-04  -1.0717964e-04  -5.1334151e-04  -5.6440313e-04   3.9608663e-04   1.8531257e-04   9.5528550e-04   6.1423675e-04   8.8622462e-04   9.6195645e-06  -4.6973331e-05   4.1533867e-04  -3.7385407e-04   2.6878197e-04   4.3304826e-04   6.0866791e-04
  -6.7897199e-04  -7.4068765e-04  -1.1476637e-04  -7.5009192e-04  -6.6357764e-04  -9.7823096e-04  -6.1059574e-04  -1.9712559e-05  -7.2032027e-04  -2.2962588e-04  -7.2094757e-04  -3.2965356e-04  -3.0272623e-04  -1.0565260e-05  -3.8666712e-04  -9.7803568e-06   4.5156668e-04   1.8658786e-04  -7.9408818e-04  -2.9987108e-04  -3.2091083e-04  -5.8403629e-04  -5.4665457e-04  -4.6459245e-04  -4.0934436e-04  -4.7655826e-04  -5.6610821e-04  -1.0060958e-06  -2.0747446e-04   3.0039073e-04  -5.6200521e-04  -2.5339996e-05  -1.9361678e-04  -7.1164759e-05  -2.7386018e-04  -3.0421739e-04  -2.9996098e-05  -4.3681631e-04  -2.0437400e-04   4.5197074e-05   7.0115790e-04   4.7881529e-04   6.2257861e-04  -7.4204050e-05  -2.0964623e-04   1.4303681e-05  -4.9425516e-04   4.2221734e-05   2.3573695e-04   3.2329260e-04
  -9.5662521e-04  -9.3714602e-04  -2.5235533e-04  -9.0857543e-04  -5.1836047e-04  -9.4218383e-04  -3.2049452e-04  -1.2719417e-04  -1.0785060e-03  -3.1098202e-04  -8.5274904e-04  -4.4020195e-04  -4.6045956e-04  -3.8801227e-04  -4.2125341e-04  -1.7720832e-04   2.4487916e-04   1.1201458e-04  -5.4699252e-04  -3.9516974e-04  -3.9807588e-04  -5.4573180e-04  -5.9144438e-04  -3.7034633e-04  -6.4543908e-04  -2.2583360e-04   5.3120482e-05   1.1419433e-04  -6.1134109e-04   9.3804520e-05  -6.5492163e-04   6.0272494e-05  -1.5877312e-04   1.0734981e-04  -2.5262691e-05  -4.2780337e-04  -1.5354404e-04  -1.7255716e-04   4.3995620e-04   1.2763921e-04   6.8785832e-04   5.3364725e-04   7.5809570e-04   1.8706961e-04  -8.5351814e-05  -7.7971206e-05  -4.1944301e-04   3.8451824e-04   4.4774945e-04   4.5087506e-04
  -7.0389599e-04  -6.3689676e-04  -6.2394094e-05  -6.5197941e-04  -4.7937874e-04  -5.3155463e-04  -2.9258008e-04  -3.9241906e-05  -6.2906259e-04  -1.7715053e-04  -6.2787742e-04  -2.3790490e-04  -2.8671886e-04  -1.8077675e-04  -5.9015834e-04  -1.3238612e-04   3.3800691e-04   1.9784360e-04  -5.7932682e-04  -2.4164388e-04  -2.3440589e-04  -3.7332001e-04  -5.4974708e-04  -2.4215867e-04  -4.8185073e-04  -1.2606377e-04  -5.6201930e-05   1.3847861e-05  -5.1600568e-04   2.2213513e-04   1.8862358e-04   1.0255025e-04   2.0946829e-04  -1.7330656e-04   3.5551748e-05  -3.0667894e-04   4.6108285e-04  -2.9215036e-04  -4.1787865e-05  -2.8681691e-04   6.7383569e-04   5.5414328e-04   6.2903180e-04   1.4705223e-04  -1.4651932e-04   1.8720963e-04  -4.8716785e-04   2.4923356e-04   3.9682316e-04   6.2879751e-04
  -7.0984307e-04  -6.6811056e-04  -1.0423439e-04  -7.0677849e-04  -5.1941950e-04  -5.0692353e-04  -1.0398074e-04  -4.9914134e-04  -6.9107953e-04  -2.0434908e-04  -6.7826029e-04  -2.6113159e-04  -2.8640154e-04  -1.2263905e-04  -1.2845908e-04  -8.1585560e-05   3.3977360e-04   4.2753538e-05  -5.1270949e-04  -2.8154516e-04  -3.0087770e-04  -4.5140373e-04  -9.3314296e-04  -3.4093510e-04  -7.0672092e-04  -2.7209875e-04  -4.0170926e-04  -5.2088362e-05  -7.6397677e-04   1.6082638e-04  -1.6146351e-04   7.1844443e-05   1.2493902e-04  -2.9796278e-04  -1.9983396e-04  -3.8978452e-04  -5.7936303e-04  -4.1946225e-04   4.0867555e-05   1.4944264e-04   6.4215332e-04   4.8526688e-04   4.8773416e-04   6.6571854e-05  -2.1448295e-04   1.8202567e-05  -5.9060543e-04   1.1472934e-04   2.8163433e-04   3.5885975e-04
  -8.5998356e-04  -8.6038397e-04  -2.0559880e-04  -8.6969073e-04  -6.3453527e-04  -9.0054906e-04  -2.0819007e-04   1.2938232e-04  -9.2380185e-04  -2.6715649e-04  -7.6638133e-04  -3.7325372e-04  -3.0438579e-04  -2.9653875e-04  -5.5203261e-04  -1.7572234e-04   3.3500858e-04   1.2547681e-04  -7.4202067e-04  -2.9512250e-04  -2.8419291e-04  -3.7042107e-04  -4.3730269e-04  -2.8798540e-04  -4.4291504e-04  -1.1963198e-04  -1.3570480e-04  -2.1353830e-05  -5.8093999e-04   2.6782262e-04   2.2406573e-05   1.7158083e-04   1.2747382e-04  -2.0778411e-05   1.7613688e-04  -2.8004817e-05   2.3476149e-04  -1.3738354e-04   2.8836090e-04   1.1846556e-04   7.9909764e-04   7.1110704e-04   8.1602263e-04   1.9908776e-04   6.6743567e-05   2.0341483e-04  -4.3142409e-04   2.4105405e-04   5.5025844e-04   8.3194725e-04
  -6.2974176e-04  -5.1239610e-04  -3.9690989e-05  -5.3189369e-04  -3.0802641e-04  -1.0592899e-03  -8.9369947e-05   1.9318856e-04  -8.4519951e-04  -1.2948088e-04  -5.6180707e-04  -1.6313331e-04  -1.8167858e-04  -7.9782461e-05  -5.9117199e-05   5.6885867e-05   4.2691961e-04   2.0973381e-04  -1.9932380e-04  -1.5439135e-04  -1.4756665e-04  -2.7378430e-04  -2.3468195e-04  -1.5854738e-04  -3.3557051e-04  -3.6568974e-05  -7.6655194e-04  -2.1116853e-04   6.2501123e-05   2.3253987e-04  -6.5367803e-04   8.7624729e-05  -1.4137187e-05   3.5924828e-04   3.7988008e-04  -5.1003928e-05  -6.7912093e-05   2.4238533e-04  -2.4124458e-04   8.1209051e-05   8.3802076e-04   7.4267498e-04   1.0391786e-03   1.7358619e-04   6.9655536e-05   3.0965693e-04  -3.6710993e-04   1.4884492e-04   4.8915384e-04   7.9331879e-04
  -6.0504407e-04  -6.3014164e-04  -3.0938510e-05  -6.3135236e-04  -4.5489863e-04  -4.4811066e-04  -2.1574913e-04   3.1919449e-04  -6.8110327e-04  -1.4209641e-04  -6.2002474e-04  -1.5128826e-04  -2.1359540e-04   1.6740634e-05  -2.2157928e-04  -9.1945330e-05   3.6172374e-04   2.2322455e-04  -1.0093946e-03  -1.6781317e-04  -2.0832532e-04  -3.7326314e-04  -4.5667632e-04  -1.9792523e-04  -2.2307684e-04  -2.5855229e-04  -6.7665207e-04   1.9937997e-05   1.8601879e-04   2.5806614e-04  -1.5533550e-04   1.3034025e-04   2.2101687e-05   4.8219204e-05   3.2325712e-04  -2.5234430e-04  -2.4300604e-04  -1.1563343e-04  -1.5219816e-05  -1.2907873e-05   7.7758578e-04   5.7887024e-04   1.0057336e-03   1.8228662e-05  -2.1075620e-04   1.7294141e-04  -5.0964084e-04   3.0858497e-05   3.5630219e-04   4.0785951e-04
  -7.2251679e-04  -7.8224391e-04  -1.5195855e-04  -7.1980245e-04  -4.2677045e-04  -7.1645167e-04  -1.5184254e-04  -3.0091108e-04  -9.3911763e-04  -1.9826223e-04  -6.4713147e-04  -2.2985786e-04  -3.1596393e-04  -2.3504031e-04  -3.3429769e-04   3.8627346e-05   3.3213678e-04   2.0370536e-04  -2.0521821e-04  -2.0887751e-04  -1.9369682e-04  -3.2549704e-04  -4.7208789e-05  -7.7913435e-05  -4.9904390e-04  -1.4373077e-04  -1.3765290e-04  -6.4134721e-05  -4.2750692e-04   3.2261125e-04   5.1703664e-05   1.5111777e-04   2.4034391e-05  -3.6772876e-04   5.5870094e-04  -1.3078822e-04   2.6713917e-04  -7.7070232e-05   5.4390763e-04  -8.3649822e-05   8.7803975e-04   6.6285394e-04   8.1228314e-04   3.5954191e-04   5.5276196e-05   2.6091543e-04  -3.0112968e-04   2.8015597e-04   5.9801503e-04   6.5146678e-04
  -3.5836623e-04  -4.3294643e-04   9.8885168e-05  -3.7087098e-04  -3.0297926e-04  -3.4366793e-04  -8.0525460e-06   2.1016771e-04  -2.0667836e-04  -3.7915248e-05  -4.6306438e-04  -6.5051390e-05  -1.1084641e-04  -1.5119366e-04  -3.0920355e-04   5.4813685e-05   5.2476471e-04   1.2661514e-04   1.2423196e-05  -7.4045929e-05  -1.9596728e-05  -2.1227325e-04  -4.3190547e-04  -2.3004810e-04  -6.2093360e-04   6.8577952e-05   8.1067228e-05   9.4228773e-05  -5.1007129e-04   1.7342543e-04   1.2126652e-04   1.9198643e-04   2.3286614e-04  -7.4705684e-05   9.1328222e-04   2.9169986e-04   4.2778498e-04  -1.2664490e-04  -6.4643740e-05   6.1818631e-04   1.0076147e-03   7.9145672e-04   1.0069734e-03   2.4044064e-04   9.6907570e-05   1.2054624e-04  -3.2872247e-04   4.7234603e-04   6.0167478e-04   1.0260281e-03
  -5.3395756e-04  -5.0635170e-04   5.8577818e-05  -4.6595131e-04  -1.9382522e-04  -8.2569825e-04  -2.1388736e-05   3.3577622e-04  -4.5961171e-04  -7.4535434e-05  -4.9223512e-04  -7.2010254e-05  -2.0940520e-04  -1.0644860e-04  -3.2567546e-05  -5.8182170e-05   5.4231024e-04   1.3237348e-04   9.0566682e-05  -7.5745804e-05  -1.1854189e-04  -2.5291101e-04  -3.4872754e-04  -1.1334869e-04  -3.9156037e-04  -1.2095241e-04  -3.1563750e-04  -3.5726080e-05  -4.9185235e-04   1.2169181e-04   3.9847344e-04   3.0414501e-04  -7.0199108e-05   7.2935276e-05   2.1985291e-04  -2.4853181e-04   2.1094165e-04  -7.4873958e-04   2.0105555e-04   8.3419516e-05   1.0912978e-03   7.2980643e-04   9.3408296e-04   2.6071942e-04   1.1444312e-04   4.9388577e-04  -3.3970116e-04   2.8217281e-04   4.2550883e-04   5.6177587e-04
  -6.5441575e-04  -6.8418233e-04  -6.4173466e-05  -6.4055331e-04  -4.3497939e-04  -5.2364834e-04  -3.6948218e-04   1.5421989e-04  -8.5520250e-04  -1.8007708e-04  -6.6499627e-04  -2.5346238e-04  -2.7119575e-04  -8.8729706e-05  -9.8459910e-05  -1.1484576e-04   4.0102040e-04   1.0730172e-04  -3.5557707e-04  -2.4620470e-04  -2.7099648e-04  -6.0657220e-04  -1.0641448e-04  -1.9433832e-04  -1.1038136e-03  -2.1701519e-04  -1.0063828e-03   1.0137052e-04   8.6600822e-04   2.3492536e-04  -2.6192615e-04   1.1300080e-04   7.6803954e-05  -4.1358481e-04   1.5748256e-04  -6.4802749e-05   8.3135737e-06  -3.2475090e-04   1.9548165e-04   3.8809849e-05   7.6021638e-04   7.0377882e-04   1.1829878e-03   1.6851189e-04   2.2666401e-05   3.9092416e-04  -2.7215903e-04   2.5763328e-04   5.3036620e-04   1.0256846e-03
  -3.8905730e-04  -5.4171536e-04  -1.3161358e-05  -4.0132712e-04  -4.1872143e-05  -2.5006096e-04  -2.0572479e-05   1.9081972e-04  -5.5839791e-04  -3.4391684e-05  -3.9696094e-04  -1.1857578e-05  -1.9355600e-04  -1.1535419e-04   1.0156493e-04  -5.2096206e-05   3.2622894e-04   1.5119290e-04  -1.4682711e-04  -5.0164996e-05   4.1165960e-05  -1.9841917e-05   6.3940504e-05   3.9539238e-05  -5.0712540e-04   9.0425063e-05  -4.0066967e-04  -1.3232077e-04   7.8396632e-05   3.0641304e-04  -3.4586742e-04   2.3189996e-04   3.7962940e-04   3.7398841e-05   4.9937988e-04   2.1146428e-05   4.7463438e-04  -3.2228703e-04   4.1215552e-04   3.7661628e-04   1.2586381e-03   9.2269108e-04   1.0372228e-03   3.3652867e-04   1.1698829e-04   1.7782666e-04  -1.3177042e-04   4.4009506e-04   5.9443410e-04   8.4685563e-04
