   3.4784677e-04   6.1302836e-04   8.1092176e-06   3.5689867e-04  -1.8179460e-04   4.9450342e-04   1.2087854e-04   1.1862132e-03   7.6762855e-04   4.3518809e-03   7.5285666e-04   8.8915013e-04  -6.9723363e-05   2.8891230e-04   1.0277551e-04   8.0530328e-05  -4.9601385e-04  -6.0983654e-04   3.2207617e-04  -3.4058053e-04   3.9635599e-04   3.6977528e-04   5.9544400e-04   4.6221647e-04  -3.6362235e-05   1.1177178e-04   1.7376815e-04  -7.7610239e-05   3.1689327e-04   3.9416898e-04   4.1259467e-04  -3.4984766e-04  -7.2750350e-05   4.9073691e-04   3.0469574e-04   1.2164164e-04  -2.2409076e-04   2.3141607e-04   3.8833916e-04   1.6269193e-04  -8.6239532e-05  -9.2504788e-06  -4.6267608e-04   7.3215379e-05   1.3073723e-04   5.1261632e-05  -9.5096009e-05  -1.0673519e-04   3.0975204e-04   2.6023015e-04
   3.6709377e-04   6.3020346e-04  -8.1289199e-06   3.2298913e-04  -4.5879313e-04   1.7800623e-04   1.6998409e-04   5.1563547e-04   5.0007657e-04   4.3591084e-03   6.9183228e-04   8.5721631e-04  -2.3834040e-05   3.5567299e-04   3.1684071e-05   4.5444096e-05  -4.8643150e-04  -5.3249567e-04   2.1728376e-04  -3.3293467e-04   3.9567854e-04   3.6428796e-04   3.8428986e-04   4.6239261e-04   8.9418907e-05   1.2317050e-04  -1.0580945e-04   1.2229889e-05   6.7020766e-05   3.5549680e-04   2.7465812e-04  -4.1318199e-04   3.1357186e-04   2.9030250e-04  -6.6186178e-05   3.1037958e-04  -1.6044088e-04   4.7581514e-05  -5.1892130e-04   1.6017360e-04  -1.8021630e-04  -1.4020979e-05  -2.8714043e-04  -1.1632792e-04   2.9798568e-04   1.1306482e-04  -1.0616335e-04  -1.2180275e-04   3.5514074e-04   3.1418097e-04
   4.0420747e-04   5.8053748e-04  -3.1671792e-05   3.2098484e-04  -3.8988519e-04   5.2124751e-04   1.8452223e-04   8.1380823e-04   4.9600168e-04   4.3259314e-03   7.0304709e-04   8.2518376e-04   2.2568451e-05   4.5496234e-04  -1.6887722e-04   1.6401838e-05  -4.6837528e-04  -5.8154046e-04   2.0616991e-04  -2.6928014e-04   3.8126780e-04   4.0668447e-04   2.2577166e-05   3.5924121e-04   4.6592042e-05   5.0995517e-05  -1.9309547e-05  -2.6015638e-04  -5.1356532e-04   2.6398708e-04   6.7215515e-05  -4.3628176e-04   3.3844128e-04   4.0742461e-04   2.1464704e-04   3.3575558e-04   7.6256244e-04   1.0043271e-04   2.3672928e-04   2.5876192e-04  -1.6720203e-04   5.1041938e-05  -1.3069509e-04   8.4770407e-05   2.1347779e-04   8.7703680e-05  -1.4714268e-04  -2.6161064e-04   3.9005163e-04   1.3163118e-04
   3.3072504e-04   6.0603250e-04   6.9844023e-06   3.0024108e-04  -3.6515732e-04   6.5493543e-04   1.3405421e-04   3.1854026e-04   4.4494099e-04   4.3079820e-03   6.8028731e-04   7.2393997e-04   3.4178342e-05   2.5781218e-04  -2.4494737e-05   9.4697156e-05  -4.0592736e-04  -4.6197389e-04   8.7082524e-05  -2.2646658e-04   3.8551912e-04   2.6643233e-04   4.9691024e-04   2.9277051e-04   5.0018309e-04   1.8220188e-04   1.5482785e-04   1.4506104e-04  -6.6111337e-05   2.0033710e-04   3.7174078e-04  -2.5752446e-04   3.6833269e-04   5.3359143e-04   6.5563491e-04   2.7634835e-04   9.2973211e-04  -2.3455719e-05  -3.9487969e-04   2.1617243e-04  -7.3106094e-05  -1.5525680e-04  -2.5049780e-04   1.4665708e-04   8.1778977e-05   1.1925057e-05  -1.6437712e-04  -5.4000394e-04   3.1322916e-04   9.6238749e-05
   3.3868128e-04   5.7535386e-04   4.4652210e-05   2.7976985e-04  -4.7278166e-04   3.8355106e-04   2.3554143e-04  -1.4102942e-04   8.4748800e-04   3.8090064e-03   5.2728126e-04   6.8827713e-04   3.0940401e-04   2.8824306e-04   2.6972286e-04   9.7481905e-05  -1.9372909e-04  -2.1291724e-04   3.1375382e-04   1.1734885e-05   2.9791589e-04   3.8016561e-04   7.7630903e-05   2.5439821e-04   4.7442497e-04  -2.4396915e-05   4.2717762e-05  -9.8503398e-05   8.3764474e-04   5.7235698e-04   3.2374417e-05  -3.5032164e-05   9.5999443e-05   1.5400456e-05   1.8104263e-04   9.1000016e-05  -4.0933752e-04   5.6098524e-04   6.4739404e-05   2.0096668e-04  -2.8169730e-05  -7.2711882e-05  -2.1048171e-04   2.4386693e-04   4.7941281e-05   1.6951957e-04  -2.0807963e-04  -4.5280057e-04   4.4412070e-04   6.0343905e-04
   2.1110702e-04   5.6964008e-04  -3.1938182e-06   2.3668029e-04  -3.7664117e-04   7.7778072e-04   2.4010213e-04   2.7470887e-05   7.7692076e-04   3.7531822e-03   6.0009980e-04   6.5068703e-04   1.0061877e-04   2.8786692e-04   1.8570984e-04   8.4796047e-05  -2.7621497e-04  -4.4151588e-04  -7.3575975e-05  -1.6097954e-04   3.1454698e-04   2.6055585e-04   4.1673493e-04   3.1622764e-04  -3.0332847e-05   3.0072122e-06   9.4924275e-05   2.9035687e-05   6.7395752e-04   2.7215452e-04  -5.4914388e-04  -1.9980612e-04   8.5088002e-05   1.1416781e-04   4.2448638e-04   1.4949025e-04   2.8628757e-04   5.8471272e-04   1.7985815e-04   2.2565831e-04  -3.5553018e-04  -4.7010555e-05  -9.3024842e-05   2.8291895e-04   1.5267219e-04   2.5931239e-04  -2.2664804e-04  -4.1693851e-04   4.2061071e-04   1.1215683e-04
   3.3960477e-04   5.7974266e-04   5.5687215e-05   2.3047919e-04  -5.1435753e-04   2.4449499e-04   2.0991841e-04   3.2199775e-06   6.4828020e-04   3.7323995e-03   6.2237517e-04   6.6967704e-04   8.0644721e-05   2.6234923e-04   3.4329583e-04   1.0950280e-04  -3.6427015e-04  -4.5292210e-04  -4.7965841e-07  -1.8819030e-04   3.2598063e-04   3.3160229e-04   2.8565884e-04   3.0836271e-04   1.8293694e-04  -3.1237047e-05   1.9867037e-04  -1.3187708e-04   8.3821535e-04   3.3586487e-04   3.3365694e-04  -3.2559648e-04   3.1626207e-04   4.2241858e-04   5.6495669e-04   3.4160772e-04  -5.3692120e-04   4.1716997e-04   3.5164197e-04   2.5662710e-04  -1.3641150e-04   7.2132141e-05  -3.4795736e-04   4.7415157e-05   2.2426261e-04   2.2866248e-04  -2.3575872e-04  -5.3372286e-04   3.7938863e-04   9.1327784e-05
   2.7207402e-04   5.4504734e-04   5.5885455e-05   2.1269759e-04  -2.0857806e-04   2.0478644e-04   2.8277643e-04   9.5379911e-04   6.8007660e-04   3.6391255e-03   6.2732358e-04   6.2146591e-04   1.3958983e-05   2.1351354e-04   1.9867218e-04   1.2587629e-04  -3.2925169e-04  -4.6078124e-04   6.4125424e-04  -1.4587901e-04   3.3773915e-04   3.0979028e-04   3.4455661e-04   1.7762900e-04   4.0354085e-04   5.0575618e-05  -7.2853727e-05  -4.4445682e-05   3.0996793e-04   1.4530237e-04   3.1100164e-04  -3.2899814e-04   2.7683916e-04   3.7022936e-04   4.4887257e-04   1.3893949e-04   1.5207804e-03   1.5438406e-04   9.7317243e-05   3.3263114e-04  -2.6732456e-04  -1.0948735e-04  -2.4975173e-04   2.6477553e-04   2.3363454e-04   2.1479744e-04  -2.1846766e-04  -2.8875936e-04   4.4780294e-04   4.1338918e-04
   2.2517251e-04   5.6911056e-04   2.9214425e-05   2.0676509e-04  -3.7139110e-04   5.8429327e-04   1.5402907e-04   3.8451437e-04   4.2047972e-04   3.5719585e-03   5.8446167e-04   5.2827975e-04   1.0221549e-04   3.6596545e-04  -1.6252929e-05   1.2561053e-05  -2.7355619e-04  -3.9904763e-04   4.1984627e-04  -4.8485825e-05   2.8945130e-04   4.2071714e-04   4.2437389e-04   2.0110143e-04   5.7743333e-04   6.6804998e-05  -7.2922732e-05  -3.8028363e-04   1.2301742e-04  -3.7079817e-06   7.0575916e-04  -4.0084118e-04   6.1624724e-04   5.5307668e-04   1.4603691e-04   7.8363650e-05   7.8517391e-04   3.9485478e-04   6.2819663e-04   2.8342150e-05  -2.0590991e-04  -6.6239540e-05  -1.9890568e-04   1.9579893e-04   3.6225986e-04   3.5454950e-04  -3.0006529e-04  -2.0318133e-04   3.7796801e-04   4.4090423e-04
   2.8148454e-04   5.6032545e-04   5.3442847e-05   1.4628968e-04  -1.4315115e-04   8.1799022e-04   1.7213031e-04   9.5209008e-04   8.6184742e-04   3.5285198e-03   5.7027582e-04   5.0663063e-04   1.0830798e-04   2.6033440e-04   2.1521513e-04   1.7522347e-04  -1.2484084e-04  -4.1335673e-04  -3.4856540e-04   1.1268301e-04   2.3627392e-04   2.6883202e-04   3.2232728e-04   2.1228752e-04   3.0930041e-04   5.5315144e-05   3.3192927e-04  -9.8105003e-05   9.0203114e-04   3.7307429e-05   5.1223650e-04  -4.0112849e-04   7.0707675e-04   5.1991369e-06  -1.2036625e-04   1.0369702e-04   6.0472247e-04   3.7362197e-04   3.1137906e-04   1.0264993e-04   2.5411533e-05  -2.6412625e-04  -4.8895603e-05   1.8828084e-04   1.3319377e-04   6.1948062e-04  -4.8246654e-04  -4.7814229e-04   4.1543745e-04   4.4130944e-04
   2.9211113e-04   4.5231869e-04   9.5741350e-05   1.3797169e-04  -3.4707264e-04   1.0834941e-04   2.7639559e-04   2.0147252e-04   7.9680939e-04   3.4840107e-03   4.6193314e-04   4.1605288e-04   1.8392579e-04   3.5571505e-04   4.5773115e-05   4.9169445e-05  -1.4162515e-04  -5.4364622e-04   7.2265568e-05   1.5302627e-04   1.7993365e-04   3.2025986e-04   4.4919303e-04   8.5342115e-05   8.2687737e-05   7.2017312e-05   6.7159749e-04   1.0834664e-05   8.6983165e-04   3.3464361e-04   3.5539013e-04  -6.2595995e-04   1.6115668e-04   4.1889615e-04   2.5454402e-04   4.5949849e-04   2.4228137e-04   5.0546497e-04   4.6817021e-04   7.3023542e-04  -7.8192075e-05  -2.5159598e-04  -1.7761714e-04   2.5929144e-04   3.3200410e-04   6.0688396e-04  -4.8402828e-04  -5.9955101e-04   3.3355353e-04   2.9711315e-04
   1.2960579e-04   5.0004508e-04   1.2040420e-04   9.5060881e-05  -5.7261938e-04   1.6449412e-04   1.2838824e-04   4.2358119e-04   2.5347367e-04   3.3822118e-03   4.1596120e-04   3.5768634e-04   1.0018008e-05   1.1934279e-04   1.9893328e-04   4.3154290e-05  -9.4779389e-05  -6.3249661e-04  -3.7123950e-04   1.7258531e-04   1.9261141e-04   4.5335514e-04   2.7886385e-04   1.4364497e-04   2.0627416e-04   2.9378882e-05  -8.1290324e-05   2.5622974e-04   6.8194968e-05   3.6514833e-05   7.8549143e-04  -8.2238705e-04   2.0403390e-04   3.6635232e-04   9.8087476e-04   1.4454722e-04   2.3427219e-04   6.7470282e-05   1.1272370e-03   6.5233134e-04  -1.4504926e-04  -1.5178767e-04  -2.0140072e-04   2.9749257e-04   1.0982116e-04   5.6597753e-04  -5.6560530e-04  -7.4417162e-04   3.8700533e-04   3.9530508e-04
   1.4085384e-04   4.8161228e-04   1.5470824e-04   6.3261039e-05  -2.9660837e-04   3.6018555e-05   1.3340107e-04   5.1523326e-04   3.7369048e-04   3.3745931e-03   3.6461357e-04   3.9931596e-04   7.7619799e-05   1.9123271e-04   9.9788122e-05  -3.4253680e-05  -5.9908944e-05  -5.1090552e-04  -9.8915836e-05   1.9712713e-04   1.6027300e-04   3.6022352e-04   4.1554254e-04   2.5916388e-04  -2.9008667e-04  -6.3235449e-05   2.4126699e-04  -1.2373614e-05  -1.1360590e-04   2.4282208e-04   6.4815109e-04  -7.3469081e-04   2.6746184e-04   3.1561023e-04  -6.5946952e-05   9.8352655e-05   2.5595204e-04   6.3654676e-05  -1.1460171e-04   3.8344090e-04  -3.7542663e-06  -2.0290287e-04   8.7780005e-05   4.7064963e-04   2.9220071e-04   3.9645555e-04  -6.6287228e-04  -5.0101534e-04   3.4494256e-04   5.7106960e-04
   1.7514413e-04   4.6754247e-04   9.8528515e-05   5.6270052e-05  -2.7555169e-04   8.8909327e-04   3.8601461e-04  -1.6157386e-04   4.5223685e-04   3.3601164e-03   3.2086080e-04   4.1858145e-04   1.5083870e-05   1.3088281e-04   3.9647528e-04   1.4722219e-04  -1.4034590e-05  -5.7942665e-04   3.1900904e-04   2.1234663e-04   1.4351498e-04   3.3857336e-04   2.0900357e-04   1.1881327e-04  -1.7419996e-04   1.0752852e-04   2.3395991e-05  -1.3360092e-04   1.0152584e-03   3.4550110e-05   2.6842821e-04  -1.0022434e-03   4.1834684e-04   1.8158206e-04   2.4521525e-04   8.9876539e-06   4.0088961e-04   6.1257719e-04   2.5784238e-05   3.2513533e-04  -1.6206242e-04  -2.4469534e-04   2.3672670e-04   1.8459187e-04   2.0956775e-04   2.9497541e-04  -4.8402394e-04  -4.3351768e-04   3.5937768e-04   5.6764291e-04
   1.1966038e-04   4.0381221e-04   1.4412745e-04   6.2814215e-05  -1.9858661e-04   1.6669877e-04   1.2756421e-04   3.8801532e-04   4.8004725e-04   3.3168651e-03   3.3162773e-04   4.8079219e-04   2.7990103e-05   3.2397502e-04   3.8983031e-05   3.4865923e-05  -8.8701570e-05  -5.5040309e-04   1.4331719e-04   7.1924391e-05   1.4433004e-04   3.5128638e-04   2.4867637e-04   1.1786792e-04  -1.3562320e-04  -2.8609384e-05  -4.6454923e-05   9.8670884e-05   8.8221778e-04   1.0894960e-04   2.7404970e-04  -9.9577056e-04   4.1371511e-04   6.2894379e-04   4.0997076e-04  -2.8271470e-04   5.9749297e-04   4.5480340e-04   4.4464116e-04   6.1217305e-04  -1.6751837e-04  -3.7137273e-05   8.3626604e-05   3.0206033e-04   2.1037407e-04   2.8902301e-04  -5.6236587e-04  -5.6587736e-04   3.5942660e-04   1.7116776e-04
   5.9042359e-05   4.6499356e-04   1.8066679e-04   2.5819860e-05  -1.0974794e-04   5.1471801e-04   2.4384551e-04   8.1597635e-04   2.8793933e-04   3.2758079e-03   3.1910284e-04   4.4507580e-04   4.6732639e-05   2.4238613e-04   2.7350697e-04  -5.7922084e-06   7.0036922e-06  -3.2314504e-04  -1.3034542e-04   1.9337704e-04   2.0249662e-04   2.7194415e-04   2.7645307e-04   2.8640379e-05  -8.6559543e-05   1.2563577e-05   3.6861977e-04   1.2298093e-04  -1.8807492e-04   3.9812297e-04   1.1190020e-05  -7.1997574e-04  -5.4088086e-06   2.1208900e-04  -8.2037885e-05   1.4071907e-04   4.0285380e-04   4.9039425e-04  -3.2788743e-05   6.1026262e-04  -1.5000488e-04  -2.7476702e-04  -1.7206166e-04   3.0335257e-04   2.9096505e-04   3.5944273e-04  -4.9891963e-04  -3.2573336e-04   4.4478421e-04   5.9046532e-04
   1.0642772e-04   3.9194647e-04   2.4351569e-04  -4.8539960e-06  -2.6979981e-04   5.7694671e-04   2.1167667e-04   1.6299519e-04   9.2744100e-05   3.2437900e-03   3.0234645e-04   4.4698606e-04   1.7793609e-05   2.0060630e-04   6.0080766e-04   2.5916897e-04   6.4837710e-05  -2.6031866e-04   2.9130944e-04   1.6887567e-04   1.9029155e-04   2.2077520e-04  -7.5840617e-05   1.0761197e-04   7.6072713e-05  -2.6859560e-05   3.0165238e-04   2.2427204e-04   8.5411995e-04   1.2931637e-04   7.8166260e-05  -6.3935906e-04   1.9938668e-04   7.4771524e-05  -8.6597094e-05   1.5426682e-04   5.2463601e-04   2.0708072e-04  -1.9125674e-04   2.9006676e-04  -1.5668229e-04  -1.2593025e-04  -1.3308361e-04   1.1079714e-04   2.6019738e-04   3.9024057e-04  -4.8846210e-04  -1.4448335e-04   4.0814868e-04   1.9006764e-04
  -4.3201955e-05   3.5787965e-04   2.4040065e-04  -2.2783317e-05  -9.4985138e-05   5.1120827e-05   2.3252722e-04   4.5560175e-04   3.5417030e-05   3.1560089e-03   2.7190548e-04   4.0755147e-04   9.7863322e-06   2.7422589e-04   2.5339605e-04   1.6386613e-04   8.0218779e-05  -1.7186753e-04  -1.4045346e-04   1.3483441e-04   1.9381839e-04   2.0732249e-04  -4.8964641e-05   2.8208547e-04   1.5336506e-04   5.0180064e-05   7.4008865e-05   1.8598104e-04  -9.9841168e-04   5.1121472e-04   9.7133910e-05  -6.3506479e-04   7.1015046e-04   3.0343523e-05   3.0190134e-04   9.9271601e-05   5.8593444e-04   5.4896274e-04   6.8387285e-06   2.2923408e-04  -7.2310970e-05  -5.2353007e-05   2.6148451e-05   1.0162013e-04   4.4292351e-04   4.5522043e-04  -3.0276488e-04  -3.8823203e-04   4.7004531e-04   4.4824349e-04
   1.8169034e-07   3.8577331e-04   2.5646074e-04   1.2474507e-05   4.4541270e-05   4.6236724e-05   3.2990219e-04   2.6083331e-05   2.1272991e-04   3.1599044e-03   2.7584771e-04   4.2311710e-04  -1.3587893e-04   2.1213257e-04   4.2187807e-04  -6.9970134e-05  -1.5180108e-04  -5.0349691e-04  -5.0484836e-05  -1.1337829e-04   2.1719615e-04   3.1642072e-04  -8.8356639e-05   1.9011664e-04   1.3255365e-05   7.8091298e-06   2.6476505e-04   1.1110354e-04   3.8816960e-04   4.6892255e-04  -7.4885596e-05  -9.6889411e-04   4.9080933e-05   9.8028002e-05  -2.8004063e-06  -4.5783308e-05   3.7302700e-04   2.0601721e-05  -4.7140620e-05   4.3773514e-04  -5.0648441e-06  -1.0343336e-04   3.9540083e-04   1.3339327e-04   9.7376666e-05   7.0741022e-04  -3.4646833e-04  -1.4317966e-04   4.6030301e-04   2.8287087e-04
   8.6636021e-05   3.4989696e-04   3.2298110e-04   5.3331663e-05  -2.7913140e-04   4.4596667e-04   4.4485338e-07   4.8833695e-04   4.8423488e-05   2.9824059e-03   2.5895442e-04   4.4278422e-04  -1.6979488e-04   4.6651255e-04   1.0430536e-04   1.2742291e-04   3.1239215e-05  -4.6588003e-04  -4.4554749e-06   8.9397166e-05   1.8750185e-04   3.5338267e-04   7.5355863e-05   4.4568480e-07   1.2251921e-04   4.5311631e-06   2.9383082e-04  -1.4366601e-04  -9.7552482e-05   2.6924020e-04   5.1135855e-04  -7.0994330e-04  -2.5286854e-04   4.4943701e-04  -9.8583878e-05   1.3264068e-04   8.7665148e-06   2.9350998e-04   3.1139021e-04  -6.1801657e-05  -6.9518755e-05   2.1267833e-06   2.6753027e-04   2.5058541e-04   1.9291526e-04   6.2361069e-04  -3.9873231e-04  -2.2685069e-04   4.1374203e-04   3.0299966e-04
  -5.2869698e-05   2.9227973e-04   4.0742973e-04   2.8581562e-05  -1.5960579e-05   2.2811984e-04   9.9848279e-05   4.2082521e-04   3.5566956e-04   2.6975840e-03   2.2227141e-04   4.9581134e-04  -2.8025251e-04   2.8280742e-04   4.7390091e-05   5.2425839e-05   6.3375075e-05  -3.2930632e-04   1.7417330e-04   1.9198263e-04   1.9240857e-04   3.3937918e-04  -9.1619440e-06   1.9490503e-04   8.4936299e-05   1.0819786e-04   3.4575816e-05   1.0359049e-05  -1.4874716e-04   1.9280090e-04   7.4429248e-05  -6.1502703e-04   7.3732503e-05   9.5381605e-05   8.9206696e-05   1.3420993e-04   3.6423805e-04   5.4136303e-04  -1.9751200e-04  -6.0504944e-06   1.7264813e-04   1.7078994e-04   7.5254386e-04   2.2715249e-04   2.8382280e-04   4.6664028e-04  -4.4234646e-05   2.2448503e-04   4.6962666e-04   5.5048818e-04
  -2.1269305e-05   1.1637688e-04   4.2088804e-04   6.8905786e-07   3.1904718e-05   7.5626798e-05   3.2235985e-04   5.1231560e-04   2.5126833e-04   1.6351436e-03   1.6330065e-04   4.7728544e-04  -8.3275831e-05   3.2136092e-04   4.2336548e-04   2.6466933e-04   3.6077303e-04   8.0699167e-05   3.5028331e-04   4.7503025e-04   1.4410337e-04  -1.9424939e-05   3.3216118e-05   9.6258678e-05   2.8105942e-04   5.2696640e-05   8.6621898e-05   2.7959456e-04  -1.0690999e-03   3.6202610e-04   1.5768256e-04  -3.1465734e-04   2.7552299e-04   2.7749629e-04   3.4847957e-04   2.4449252e-04  -2.4100956e-04   3.4057302e-04   6.3538464e-05   2.6936230e-04   2.8372755e-05   9.2709241e-05   2.9958659e-04   2.6414837e-04   9.2874194e-05   2.7488312e-04  -1.0526286e-04   2.6118153e-04   4.6306301e-04   6.2279950e-04
  -2.3445235e-04  -5.6366447e-05   4.0653988e-04   1.9566765e-05   2.4383624e-04   2.0703745e-04   2.2590837e-04   2.9818411e-04  -1.0771631e-05   1.1527613e-03   4.8846701e-05   2.9315072e-04  -8.0947058e-05   4.0388145e-04   5.1091088e-04   2.3109614e-04   4.0348645e-04   2.2822480e-04   8.0754384e-05   5.0854782e-04   1.3733687e-04  -4.3447271e-05  -5.2768861e-05  -7.8929943e-06   6.7325425e-05   2.6085807e-05  -1.5604960e-04   2.4518196e-04   4.2991844e-04   3.4699688e-04   5.4851809e-04  -3.2669705e-04   4.1335731e-04   1.2289966e-04  -1.6573996e-04   2.1480155e-04  -4.1738464e-04  -3.9654111e-05  -1.6685916e-04   2.0574240e-04   1.5471820e-04   1.7279138e-04   5.7289604e-04   3.3738589e-04   2.3234218e-04   6.6875690e-04  -5.2731513e-05   3.8301345e-04   4.3159511e-04   6.3710305e-04
  -1.2032378e-04  -6.9608897e-05   3.6814914e-04  -1.8665380e-05   3.3509970e-04  -5.8771204e-04   1.4682478e-04   3.0137502e-04  -9.1864167e-05   1.1474380e-03   1.5335681e-05   3.2449650e-04  -1.5757486e-04   2.1571264e-04   2.9846822e-04   1.7854197e-04   2.6632362e-04   8.9939480e-05   4.0788259e-04   3.3674069e-04   1.0925722e-04   2.1490408e-05   3.7828970e-05   1.3810021e-05  -6.5678338e-05   6.5247972e-05  -6.1367333e-05  -2.1261480e-04  -8.7966974e-04   3.3274898e-04   2.0440264e-05  -5.1983615e-04   2.7113504e-04   3.6049777e-04   8.9525868e-04   1.6331284e-04   2.7801323e-04   3.5265132e-04  -2.5875433e-06  -1.2198909e-04   2.6774689e-04   1.2606139e-05   7.2593981e-04   1.6014180e-04   1.8734607e-04   4.6661333e-04   4.9029150e-06   4.0718075e-04   5.9131038e-04   8.4957603e-04
  -2.8608512e-04  -1.0204701e-04   3.9558508e-04  -2.5230747e-05   1.7431533e-04   3.0745540e-04   3.2196639e-04  -1.9985452e-04  -4.5493621e-04   1.0300464e-03  -4.2133674e-05   2.4656032e-04   3.3648128e-05   2.8519324e-04   6.3466432e-05   3.5415025e-04   5.4874842e-04   3.9512463e-04  -1.4697752e-04   5.5138790e-04   1.0060816e-04  -8.2053019e-05  -5.8410678e-05  -4.0884068e-05   2.3860621e-04   1.0120615e-04   3.6855246e-04  -2.3327000e-04  -6.5545333e-05  -7.4332502e-06  -5.5640623e-05  -1.6964495e-04   1.7071026e-04  -2.0974741e-05  -3.7992551e-04   1.3290548e-04  -7.3927542e-05   8.5087377e-04   6.8135167e-05   2.5335210e-04   1.6338514e-04   1.0921522e-04   5.6989765e-04   8.5141044e-05   3.5120704e-04   3.9337389e-04  -7.3634343e-05   1.8159118e-04   5.1093608e-04   6.2139839e-04
  -6.8080109e-05  -1.3269954e-04   2.9890638e-04  -1.2082081e-05   3.8132712e-04  -4.2229050e-04   3.7575443e-05   5.7077990e-04  -2.6058409e-04   9.2712429e-04  -7.5241114e-05   2.3910277e-04  -9.7180309e-05   4.0561851e-04   5.2971963e-04   3.3835889e-04   3.9312258e-04   2.9694571e-04   1.2043989e-04   3.9909271e-04   9.4216841e-05  -4.7695754e-05   2.2533871e-04   5.3050295e-05   4.0429804e-04   8.8904781e-05  -2.9636660e-04  -6.6151406e-05   4.6243926e-04   1.7105423e-04  -2.8409198e-04  -1.8454590e-04   3.1776744e-04   5.9568440e-04   8.0048607e-04   8.5253596e-05  -7.3516055e-04   2.5346584e-04   3.3315067e-05   1.3441218e-04   5.6647728e-05   8.2479091e-06   5.5706676e-04   1.8536349e-04   3.1064596e-04   6.4857089e-04  -2.2153718e-05   5.5533822e-04   6.2450202e-04   8.7752967e-04
  -2.7720488e-04  -1.4871400e-04   2.8757373e-04  -1.8830642e-05   3.6553727e-04  -1.7817598e-04   3.3571143e-04   4.8908032e-04  -2.3644026e-04   8.8780629e-04  -1.0643980e-04   2.3165597e-04  -2.0699001e-04   3.3987060e-04   2.4871790e-04   1.9669092e-04   3.4285820e-04   2.1245149e-04   3.4843429e-04   3.1834893e-04   1.0041714e-04   6.7186360e-05   1.0235996e-05  -4.0487186e-05  -2.1532240e-04   8.2274339e-05   1.3430536e-04  -2.0659847e-04  -1.0127259e-03  -2.0286495e-06  -3.8380644e-04  -5.0630554e-04   8.2112406e-04  -3.0771934e-04   1.5344539e-04   6.1014522e-05   3.6958375e-04  -6.0057634e-04   2.1846713e-04   3.0589337e-04   3.1757198e-04   2.0193744e-04   5.2161061e-04   1.8887325e-05   3.8994683e-04   5.3358387e-04  -1.1342325e-06   4.1204743e-04   5.3979701e-04   2.7141473e-04
  -2.2011175e-04  -7.2346069e-05   2.8870138e-04  -5.5571254e-05   2.8978349e-04  -1.7436834e-04   3.8836314e-04   6.5180310e-04  -3.3330228e-04   1.8621427e-04   4.5578079e-05   3.3070934e-05  -2.9791371e-04   1.3917025e-04   1.2817548e-04   1.1030059e-04   2.4916994e-04   9.9622870e-05  -5.3325592e-05   2.3034107e-04   1.0320772e-04  -1.5403226e-04  -3.2342513e-04  -4.6084115e-05  -4.1516909e-05   6.7753812e-05  -6.7839726e-05   7.5536620e-05   3.5926490e-04   3.8579755e-04  -4.3334995e-04  -4.3750321e-04  -1.7079472e-04  -2.5035485e-04   5.4465811e-04   2.6334453e-04   6.7310809e-04   1.5312385e-04   3.7968735e-04   6.9313692e-06   2.6093289e-04   1.3759213e-04   5.5752904e-04   1.2732479e-04   3.6899516e-04   4.9111620e-04  -4.5737226e-05   4.6970276e-04   5.1902264e-04   9.5133780e-04
  -9.3764182e-05  -1.0612630e-04   2.1138482e-04  -4.1947515e-05   3.4838033e-04  -1.6361210e-04   1.2703591e-04   7.6864654e-04  -3.3142118e-04   1.2443156e-04   1.4674270e-06  -3.3969776e-05  -2.4906118e-04   4.1478532e-04   1.5846247e-04   1.5571178e-04   1.9572669e-04   7.2249102e-05   1.2582840e-04   1.6875083e-04   1.1708229e-04  -7.4054697e-05  -5.7597772e-05  -6.4499924e-05  -1.8438166e-05   1.3604204e-04  -3.4841077e-04   1.5229122e-04  -1.4774788e-04   5.1645318e-04   2.7659064e-04  -6.6997454e-04   3.3508317e-04  -5.0071836e-04   2.8535104e-04   1.1228465e-04   3.0242114e-05  -1.6518754e-04  -7.5295313e-05   4.5910777e-04   3.4611858e-04   2.3525498e-04   3.7346064e-04   2.0991822e-04   4.4510225e-04   5.1589910e-04   7.2491392e-05   3.4348515e-04   6.6317857e-04   4.6005967e-04
  -1.4467108e-04  -2.4313526e-05   2.2918788e-04   6.3245197e-06   7.6744065e-05  -2.2012803e-04   3.1197423e-04  -2.2053158e-04  -2.1777827e-04   1.2186936e-04  -1.1975081e-05   1.1212347e-05  -3.1512909e-04   2.5048634e-04   5.1568684e-05   1.1963865e-04   1.3653278e-04  -1.2095355e-04   2.3883047e-04   8.9030334e-05   9.7682547e-05  -3.7505146e-05  -1.2241220e-04  -5.0193943e-05  -3.5024740e-04   1.1302762e-04  -3.1822424e-07  -1.2489932e-04  -3.8535698e-04   5.5417413e-04   2.4151927e-04  -7.1245531e-04   1.4064049e-04  -1.1665706e-04  -8.4632222e-05   1.1624102e-04   6.5194763e-04   1.2851128e-04   1.9188388e-04   5.6076254e-04   7.3969706e-05   2.3706397e-04   6.1434956e-04   2.4955269e-04   3.9521916e-04   5.8099907e-04   3.4549037e-05   3.7385218e-04   6.5844919e-04   9.8412042e-04
  -2.1627292e-04  -1.2501460e-05   2.4528368e-04   6.2353397e-06   2.2082331e-04   1.5206196e-04   3.4256172e-04   3.0372434e-04  -4.1346627e-04   2.1325648e-04  -3.6271329e-05   6.5291519e-05  -2.6388554e-04   3.8284331e-04  -6.4649445e-05  -9.9264988e-05   5.3162916e-05  -1.0530461e-04   3.5455156e-04   9.8943774e-06   1.4748158e-04  -6.1202765e-05   1.6514030e-04   1.6591495e-06  -9.7597280e-05   2.2907811e-04  -2.9303427e-04  -1.0418274e-04   4.4191864e-04   2.2170127e-04  -1.2039605e-05  -7.0059963e-04   7.2100833e-05  -2.2156550e-04   1.6166658e-04   3.0645600e-04   8.0423598e-04   4.0459906e-04   7.4965425e-04  -1.2587168e-04   3.6425359e-04   1.8939922e-04   5.3023169e-04   2.5826204e-04   3.2760517e-04   2.0787168e-04   7.8724217e-05   5.4454303e-04   5.7295599e-04   7.9671142e-04
  -1.4140060e-04  -1.2622796e-05   2.2568532e-04  -4.2912125e-05   1.3751493e-04   2.1483724e-04   1.3970099e-04   2.7277859e-04  -1.6166033e-04   2.8200395e-04  -5.1269915e-05   1.5849361e-04  -1.9536821e-04   4.8699946e-04   4.5994435e-05   1.5385309e-05   1.0743731e-04  -2.5021078e-05   1.7658251e-04   4.0958032e-05   1.5238598e-04  -4.5955308e-05   1.1398476e-05  -8.4815278e-05  -2.8373313e-04   3.6807502e-05   4.7586253e-04  -9.0647300e-06   4.9054698e-04   6.2675674e-05  -2.6545982e-04  -6.2448299e-04   2.4810320e-04   8.6178930e-05   4.3555501e-05   9.0937698e-05   6.5836159e-04  -1.6190944e-04  -4.4340422e-04   2.5495293e-04   1.8283524e-04   4.6527444e-04   6.2983646e-04   1.2950908e-04   3.6853418e-04   4.2799319e-04   2.9863329e-05   4.2833129e-04   5.6770450e-04   5.5380695e-04
  -1.1598288e-04   4.7555892e-05   2.6205453e-04   1.8656056e-05   2.9294903e-04   1.1698306e-04   1.7481603e-04   2.9227338e-04  -1.8571550e-04   2.9308331e-04  -5.8063652e-05   1.8838994e-04  -2.4209479e-04   1.5686707e-04  -9.3002891e-05   1.1081233e-04   1.3871782e-04   3.0282610e-05   5.4806942e-04   1.1326648e-04   1.5920209e-04  -1.0426569e-04  -1.9798249e-04   1.3964626e-04   1.4521078e-04   1.0664391e-04   4.5267289e-04   5.7203542e-05  -6.9635408e-04   3.4905502e-04  -9.8209464e-05  -5.5664004e-04  -1.0400580e-04  -2.2603267e-04   1.0432221e-04   1.2966881e-04   6.4176298e-04   1.3654165e-04  -5.9019472e-04  -1.8180563e-04   3.1434812e-04   3.1263614e-04   7.5688009e-04   1.9136896e-04   5.0078426e-04   5.1348354e-04   1.1999573e-04   4.2823990e-04   5.6735741e-04   6.0546224e-04
  -1.9376731e-04   3.7359780e-05   2.4195990e-04   5.5502858e-07   3.4384310e-04  -2.7969884e-04   9.6246011e-05  -1.4788195e-04   1.2948396e-05   3.0630108e-04  -5.5266428e-05   1.2760800e-04  -1.8589012e-04   2.3777768e-04   1.1278868e-04   6.1458464e-05   1.9813726e-04   6.1594939e-05  -1.6876355e-04   1.1390818e-04   1.6061311e-04  -1.7235713e-04  -3.5002394e-04   1.5370331e-04   2.7177232e-06   1.1951807e-04   1.3956071e-04  -7.9482088e-05   3.5597634e-04   2.9569370e-04  -1.0234935e-04  -5.5050250e-04   2.7616924e-04  -3.5717999e-04  -1.5595644e-04   4.9247756e-05   1.5536612e-03   4.7364579e-06   7.0151273e-04  -3.1671629e-05   3.0428646e-04   2.8837708e-04   4.7251745e-04   2.9401053e-04   2.0327320e-04   8.0572366e-04   1.4281701e-05   2.7997029e-04   6.0318504e-04   5.8935914e-04
  -1.3720099e-04   2.2594842e-05   2.1547572e-04  -3.7026173e-05   2.4902765e-04   9.4670169e-05   4.5317935e-04   7.5783429e-04  -1.7711600e-04   3.3881181e-04  -5.2265808e-05   1.4592877e-04  -1.9993135e-04   3.3395115e-04  -1.2783514e-04  -3.7702626e-05   9.4387440e-05  -1.9999065e-05   2.4231449e-04   1.3637055e-04   1.6191670e-04  -3.4467776e-05  -4.6999958e-05  -1.8608673e-05  -1.1093773e-04   9.7851334e-05  -2.9181445e-04   1.1424381e-04  -3.3526096e-05   3.3374625e-04   8.3801722e-05  -5.5079971e-04   3.7674632e-04   2.8022303e-04   4.6502892e-04   3.0636971e-04   2.8929167e-04   2.8683236e-04  -3.0599942e-04   8.8257671e-05   3.7921258e-04   2.4111576e-04   7.7697635e-04   2.2336154e-04   4.2823589e-04   1.9315907e-04   4.7767033e-05   6.0272490e-04   6.1841932e-04   7.3539728e-04
  -1.3832135e-04  -6.6839234e-06   2.8794893e-04   7.3048195e-06   2.5801244e-04  -1.2424377e-04   4.1130861e-05  -2.3403592e-05  -4.0924049e-04   3.2048413e-04  -9.7467026e-05   1.0706344e-04  -2.2478361e-04   3.1592452e-04   5.0312828e-04   1.4016936e-04   6.7552093e-05  -3.9346884e-05   2.4111610e-04   7.2921401e-05   1.5835598e-04  -1.2404847e-05   7.3181662e-05   8.0540136e-05  -4.9537019e-04   1.7152750e-04   3.3513384e-04   3.2973621e-05  -4.4629847e-05   2.6021083e-04  -3.2565236e-04  -5.8793643e-04   7.0108705e-05  -1.1726656e-04   2.1375850e-05   2.4302007e-04   1.2707850e-04   9.4188472e-05   4.6879452e-04   1.8071193e-04   1.9709529e-04   1.9205797e-04   5.8980711e-04   1.2578626e-04   3.2924517e-04   6.0062221e-04   5.5792196e-05   2.6280884e-04   6.5199763e-04   9.2544564e-04
  -8.5797525e-05   1.3829545e-05   2.7440221e-04   3.8484809e-06   2.7101804e-04  -3.3485674e-04   2.1388962e-04   1.8305206e-04  -1.5881121e-04   3.4736391e-04  -7.2149167e-05   1.1149890e-04  -2.7715261e-04   3.3804303e-04   2.1611588e-04   5.6150184e-06   6.1541563e-05  -9.9893718e-05   1.6227906e-04   7.1558134e-05   1.5261790e-04  -3.0194929e-05  -2.7660573e-05   4.6649413e-05   1.6354503e-04   9.5711970e-05  -2.0838935e-04   1.2780253e-04   2.3920709e-04   4.8400453e-04   1.9215238e-04  -6.8194262e-04   1.0849773e-04   5.6892011e-05   3.3453191e-04   3.3766945e-04   5.1808154e-04   2.6333690e-04   5.3962326e-04   5.5541437e-05   2.2340003e-04   3.0288074e-04   5.9066142e-04   3.8686290e-04   3.3587418e-04   6.4204214e-04   1.2255134e-04   5.7670794e-04   5.5607507e-04   5.3823052e-04
  -8.7871245e-05   5.5618333e-05   2.0784239e-04  -4.9345483e-05   1.6377769e-04  -1.8759045e-05  -1.5010542e-04   6.5531043e-05  -7.6285178e-05   3.2750651e-04  -5.3526554e-05   1.1690961e-04  -2.0743524e-04   2.3470206e-04  -4.1324782e-04   3.9528641e-05   1.3704749e-04  -3.2107117e-05   4.8907823e-04   1.2614772e-04   1.7857015e-04  -1.0258337e-04   5.2998748e-05  -2.1078444e-05   1.7966876e-04   1.5330663e-05   9.7780001e-05   2.6654625e-06   2.0288685e-04   2.1211740e-04   2.6336571e-04  -5.3346896e-04   6.3369650e-04   2.3198652e-04   2.1166170e-04   1.1878746e-04  -7.9942358e-05  -1.9074067e-05   3.2394248e-04   6.4666924e-04   1.7623430e-04   1.9291909e-04   4.4196134e-04   2.9049371e-04   2.8290882e-04   4.4056395e-04   6.9560308e-05   3.8181117e-04   5.7510019e-04   1.0904118e-03
  -1.6584538e-05   4.3329294e-08   2.7365444e-04  -5.0666895e-06   1.3863180e-04  -3.4915493e-04   1.8924216e-04   3.8722367e-04  -4.1906250e-04   2.8597639e-04  -7.9779740e-05   1.0666744e-04  -2.1562872e-04   1.9458521e-04   3.1204894e-04   1.3106894e-04   9.3455521e-05  -1.2880235e-04   6.6673965e-04   2.6865753e-05   1.6353137e-04  -2.9286137e-05   2.2377967e-04  -1.4737036e-05  -8.3560566e-04   5.2011994e-05  -2.4819616e-04  -4.0185751e-05  -1.1323106e-04   3.6997892e-04  -2.9326995e-05  -6.5727037e-04   9.9381476e-05  -1.2246345e-04   5.6066352e-04   2.7449566e-04   4.0123262e-04   5.4701953e-04   1.2087655e-03   3.2159380e-04   3.9958360e-04   8.8217857e-05   5.2633014e-04   5.6222307e-05   2.2143875e-04   5.7328900e-04   1.4887347e-04   5.1729189e-04   6.2689796e-04   6.4107863e-04
  -1.3266905e-04   2.4802057e-06   3.1688137e-04   1.7140056e-06   2.5439134e-04  -4.9334974e-04   1.2708796e-04   8.0106960e-04  -1.8286119e-04   2.9065064e-04  -1.0317039e-04   8.5712432e-05  -2.4650327e-04   1.4401269e-04  -1.2287221e-05   5.5375796e-05   4.4349803e-05   5.1956835e-05   6.4924726e-04   1.2560768e-04   1.5030478e-04  -3.8671820e-05   1.9661815e-05  -1.4526688e-04   8.7948458e-05   1.8872079e-04  -1.7965942e-05  -5.9079626e-05   1.1550669e-04   1.0030977e-04  -5.0070972e-05  -6.6545856e-04   4.3314428e-04   2.4926895e-04   1.9707368e-04   6.7840636e-05   3.7336219e-04  -1.1626501e-04   9.2143717e-04   7.2981161e-04   4.0835573e-04   3.2461723e-04   4.9384835e-04   4.2504387e-04   2.3374983e-04   5.4396171e-04   8.2955594e-05   3.7072282e-04   5.8912631e-04   6.8850809e-04
  -9.7329816e-05   2.9344204e-05   2.0587647e-04  -3.9227853e-05   2.3962351e-04  -1.3201914e-04   5.6393528e-05   2.0984889e-05  -3.7483848e-04   2.2441223e-04  -6.9815273e-05   9.2749222e-05  -3.1264650e-04   2.2290184e-04   1.3618186e-04   1.7006345e-04   1.1236382e-04  -1.2153879e-04   1.8295427e-04   3.3776490e-05   1.4130074e-04   2.7016004e-05  -1.2362601e-04  -4.3266638e-05  -5.0945667e-04   1.9557393e-04   1.6460154e-04   5.5379083e-04   1.1852270e-03   2.0010018e-04  -2.8339797e-04  -7.5534737e-04   1.4804285e-04  -1.6350095e-04   1.8835353e-04   3.3123631e-04   2.5632759e-04   4.8092054e-04   3.0332047e-04   2.4910545e-05   3.3332405e-04   4.2468481e-04   3.8573044e-04   1.8714818e-04   3.1399706e-04   8.8864769e-04   7.2233808e-05   6.9600885e-04   6.0902786e-04   6.3890551e-04
  -9.4551957e-05   8.5256572e-05   2.9282999e-04  -5.0882474e-05   1.7169736e-04  -3.8029032e-04  -9.0014844e-05   3.8940946e-04  -3.3956094e-05   1.9417857e-04  -6.6234366e-05   6.0045910e-05  -3.2804554e-04   3.3033776e-04   2.0298419e-04   5.0963099e-05   1.3383443e-04  -9.1344984e-05   2.0103743e-04   1.8794791e-04   1.3551729e-04  -4.2961572e-05   6.4412467e-05   1.7824117e-04  -6.7462446e-05   1.1174774e-04  -3.5530000e-04  -9.7067503e-05   9.3272718e-04   4.0728529e-04   2.5127101e-04  -5.7119975e-04   4.5667359e-04  -1.6589898e-04   4.1394361e-04   4.5813131e-04   2.1076495e-04  -2.5741477e-04   8.8127796e-04   4.8050328e-04   4.8179066e-04   2.2898815e-04   5.4772233e-04   3.6012055e-04   4.8148492e-04   8.5788325e-04  -5.9768739e-05   4.6897924e-04   5.4366450e-04   5.3541205e-04
  -1.5014404e-04   2.3984472e-05   3.0910992e-04  -4.1039602e-05   2.2804789e-04  -2.0666320e-04   2.1524273e-04  -2.0131175e-04  -1.6829641e-04   1.9673919e-04  -1.7149896e-04   5.4757943e-06  -1.1180448e-04   2.6003548e-04   2.2106722e-05   3.4877201e-04   2.7250146e-04   2.1611659e-04   2.8328091e-04   2.8562036e-04   1.1887079e-04  -1.5262931e-04   6.0352228e-05  -2.1279106e-05  -1.2793728e-04   5.4730030e-05  -2.1402899e-05   4.2497970e-05   8.4119028e-04   3.1469463e-04  -2.0009142e-04  -2.9723850e-04  -1.4479856e-04  -5.9775781e-04   1.5772491e-04   1.1255993e-04  -3.9213855e-04  -3.9264010e-04   3.3771608e-04   1.7326952e-04   3.3456594e-04   2.1748265e-04   4.7935898e-04   4.3442382e-05   3.1287741e-04   5.0349592e-04   4.8698865e-05   6.0919952e-04   4.9828627e-04   8.7421492e-04
  -1.2990335e-04   4.1896557e-05   2.2467438e-04  -9.8085606e-05   7.8284129e-06  -3.1429830e-05   8.9066871e-06   9.3497272e-04  -4.8717202e-04   1.9237786e-04  -1.5319728e-04   4.0472903e-05  -9.8777309e-05   2.9864366e-04  -1.2188684e-05   1.7439235e-04   1.9432370e-04   2.0032657e-04   3.4790806e-04   2.0764944e-04   1.3111526e-04  -5.2531450e-05   1.1396401e-04   1.3808707e-04   1.1464991e-04   6.6165943e-05  -2.8806011e-04  -2.4052359e-04   1.3446191e-04   3.7280793e-04   1.0685437e-04  -3.4042864e-04   3.3258533e-05  -6.2246028e-05   2.3279763e-05   1.7317818e-04   5.4350751e-04  -4.0974296e-04   2.2614628e-04   3.0865151e-04   5.1896792e-04   1.4311576e-04   5.6128600e-04   1.5145916e-04   3.3323356e-04   3.5251825e-04   5.5407996e-05   4.1343880e-04   5.8825850e-04   4.3474420e-04
  -1.7507814e-04   8.2149345e-06   2.5437714e-04  -5.0272669e-05   1.3643992e-04   2.5508765e-04   1.1473554e-04   2.6480516e-04  -1.9100486e-04   1.0391651e-04  -1.3245129e-04   3.0628705e-08  -2.1767935e-04   2.5436659e-05   3.1071566e-05   9.2646733e-05   1.1348556e-04   1.5271573e-04   3.0481597e-04   1.3306213e-04   9.8554672e-05  -1.2216548e-04  -2.0009838e-05   1.3883472e-04   1.2103322e-04   1.6237165e-04   2.8137900e-05   2.2555196e-04   1.1959879e-03   4.7195065e-04  -1.7164013e-04  -4.5722915e-04  -9.7630524e-05   1.0977808e-04  -3.0131402e-04  -1.3715118e-04   2.9844575e-04  -5.7252953e-05   1.6578675e-04  -9.5792442e-05   2.5133553e-04   1.8696922e-04   6.3475961e-04   3.2865733e-05   2.6223910e-04   7.8343903e-04   8.9650792e-05   2.6864815e-04   5.0302147e-04   7.2204164e-04
  -5.9187922e-05  -2.8463670e-05   2.4359235e-04  -5.4917207e-05   2.1058033e-04  -5.0052936e-04   3.5716781e-05  -1.3641607e-04  -2.1159209e-04   1.0057470e-04  -1.2956630e-04  -5.8188445e-05  -2.3562026e-04   1.4074401e-04   6.9819024e-04   1.0101152e-04   1.4072117e-04   1.0030639e-04   1.8677328e-04   1.1118888e-04   9.0901056e-05  -1.1424098e-04   3.3070970e-05  -2.7381518e-04   5.3222269e-05   1.1144840e-04   3.1264710e-05   4.0188334e-05  -3.8682364e-04   5.3848227e-05  -1.6568413e-04  -5.5744866e-04  -2.8341537e-05  -1.1220620e-04  -2.7962425e-04   2.0695111e-04   8.2296040e-04   6.4156164e-04  -3.9735914e-04   2.2125130e-05   4.1725810e-04   1.9960769e-04   4.6501606e-04   4.0765211e-04   1.9509449e-04   3.0835238e-04  -1.4378166e-05   3.2080273e-04   4.8475651e-04   1.0722062e-03
  -1.9331812e-05   5.8562971e-05   2.2525390e-04  -5.8335099e-05   6.2569212e-05  -4.8007594e-05  -8.3805222e-05  -3.9928695e-04  -2.4755183e-04   1.0952770e-04  -1.0944321e-04  -9.8766686e-05  -2.5574979e-04   2.2691503e-04   1.3243446e-04   1.7671849e-04   8.9883506e-05   8.1995255e-05  -4.1024825e-05   1.1700889e-04   1.1357114e-04  -4.3495115e-07   1.6091851e-04  -4.8298836e-05   1.3370792e-04   4.5271747e-05   2.2842898e-05   1.4473978e-04  -1.9034464e-04   2.8472932e-04  -1.3038512e-04  -5.6200818e-04   2.7214811e-04   1.3514941e-04  -7.5878916e-06  -1.8778065e-04   1.7234035e-04   5.7744561e-04  -3.3398834e-04   3.9904550e-04   3.8009419e-04   9.4252879e-05   7.0204958e-04   1.9137218e-04   1.6575216e-04   7.2142447e-04   2.8166660e-05   1.0745163e-04   5.6158204e-04   9.2431006e-04
  -1.2144561e-04   1.6135711e-05   1.9160176e-04  -9.4917646e-05   2.2551222e-04  -2.7245170e-04   1.7717613e-04   8.1897690e-04  -5.8303584e-05   1.3638147e-04  -9.7400982e-05  -1.5234631e-04  -2.4469194e-04   3.7048748e-04   2.8320658e-04   7.5910531e-05   1.2985608e-04   5.4414566e-05   3.3289092e-04   9.2052083e-05   1.1530249e-04  -1.1481417e-04   1.5661128e-05  -3.7712744e-05  -1.7438036e-04   4.0941199e-05   5.0508374e-06   1.0056522e-04   3.5588496e-04   3.9837207e-04   1.5422300e-05  -6.2598649e-04   3.7888391e-04  -5.3080643e-05   2.1213482e-05   2.3211396e-04   3.6248166e-04  -2.7795375e-04   9.0602058e-04   2.2143945e-04   3.5490518e-04   1.4832594e-04   6.5908686e-04   4.0533883e-04   4.3811649e-04   3.8884190e-04  -2.1656522e-05   1.8805081e-04   4.2304679e-04   8.8901562e-04
  -6.7671972e-05   1.8024248e-05   1.5803451e-04  -5.5603527e-05   1.9032561e-04  -2.8598373e-04   2.4924503e-04   3.0951822e-04  -1.4818598e-04   8.4182349e-05  -1.2950970e-04  -1.8205249e-04  -2.7118513e-04   2.2441450e-04  -3.4520577e-04  -2.5927833e-05   1.0097485e-04   4.0224500e-06   4.4202225e-04   1.2000948e-04   1.1392232e-04  -2.9793871e-05  -2.2980662e-04  -5.0288138e-05  -2.3066043e-04   1.2979795e-04   4.2724982e-04   2.8750175e-04   3.4090382e-04   1.2808134e-04  -2.6541309e-05  -5.5385841e-04   1.3984014e-04  -2.3604257e-04   2.0401899e-04   1.4980229e-04   3.5250792e-05   3.9056342e-04   7.7651639e-04   3.5560332e-04   3.8533512e-04   2.4859366e-04   7.6476770e-04   3.2648575e-04   3.5852590e-04   7.5891521e-04  -3.4777448e-05   3.3278693e-04   5.2729488e-04   5.3442019e-04
  -7.0275593e-05   2.7669399e-05   1.6937130e-04  -7.3413015e-05   2.0612114e-04  -4.2875725e-04   1.9129879e-04   1.0102005e-03  -4.0019833e-04   1.1711077e-04  -1.3736897e-04  -1.7422908e-04  -3.2582460e-04   1.3855987e-04  -3.1246946e-04  -7.0614718e-05   3.3385408e-05   3.8064511e-05   6.3321604e-05   5.3318799e-05   1.1021741e-04   1.3282897e-05   1.0639543e-04   7.4619435e-05  -1.2383572e-04   4.9427417e-06  -1.6206321e-04   2.1792499e-04   1.1429987e-03   2.3435101e-04  -3.5705234e-04  -5.4048182e-04   1.2937107e-04  -1.6568629e-04   8.2491308e-05  -4.0283227e-05   2.5404539e-04   3.9640538e-04   6.1556278e-04   3.3329165e-04   2.6116855e-04   1.6617616e-04   6.5085804e-04   6.1125020e-06   2.0111295e-04   5.2717648e-04   1.2658395e-05   2.8528948e-04   4.9234909e-04   3.6782294e-04
  -3.3661861e-05   3.9637438e-05   1.6781954e-04  -5.1162875e-05   6.1861050e-05  -1.3295189e-04  -5.5516888e-05   2.1184311e-04  -6.5069660e-05   1.4600264e-04  -1.1633665e-04  -1.7853602e-04  -2.3612287e-04   1.4391814e-04  -4.1816346e-04   1.7367117e-04   2.6002439e-05  -3.7176647e-05   1.4972930e-04   5.0092363e-05   1.0142167e-04   2.7329011e-06  -4.5415087e-05   9.3082825e-05  -7.1578244e-05   5.5802469e-05  -4.1481737e-05   3.1185211e-04  -3.7751815e-04   7.1962473e-05  -7.2821516e-05  -6.3625007e-04   1.7154448e-04  -2.2859244e-04   1.6125604e-04  -6.1138308e-05   8.7731885e-04   3.3231283e-04   2.9131872e-04  -4.2077281e-06   4.1030106e-04   9.2454495e-05   5.9253251e-04   1.2920493e-04   1.5750864e-04   7.0669939e-04  -1.9815798e-05   8.9058020e-05   5.1092048e-04   4.3203725e-04
  -1.3712322e-04   1.5255097e-05   1.7340048e-04  -5.9195296e-05   3.0253819e-04   1.2262451e-05   2.3327555e-04   4.5586945e-04  -4.1998780e-04   1.2599956e-04  -1.0257995e-04  -1.7534412e-04  -2.2919546e-04   2.7549147e-04   4.3112021e-05  -6.1009716e-05   7.7244396e-05  -5.8827904e-05   2.5079970e-04   7.3552925e-05   8.0220685e-05   3.2207870e-05  -3.6812900e-05   4.7345096e-05  -3.0464607e-05   4.0000934e-05  -4.9703824e-05  -1.3082613e-05  -1.2453309e-04   3.4780998e-04   4.4771322e-04  -5.9553946e-04   2.7591569e-04   3.3754160e-04  -1.0880798e-05   1.2190364e-05   1.0424565e-03  -1.7950212e-04   3.5956208e-04   1.1773604e-05   2.9437974e-04   7.2707859e-05   6.2647526e-04   1.2265540e-04   2.2195799e-04   6.3410588e-04  -1.6064858e-05   1.6976662e-04   5.2295061e-04   5.0167082e-04
  -1.0944095e-05   4.5230458e-06   2.1299007e-04  -6.7022469e-05   1.7169754e-04  -5.6236918e-04  -1.8000008e-04  -6.4469990e-05  -1.6120053e-04   1.2199235e-04  -1.5969489e-04  -1.9797715e-04  -2.7699175e-04   2.2418408e-04  -3.3512868e-05  -3.0729145e-05   1.9433821e-05  -1.0627634e-04   4.1374561e-04   2.7061689e-05   8.3075101e-05   1.8692563e-05  -1.2158632e-04  -2.2009071e-05  -3.2023870e-04   6.1746432e-05   1.3896903e-04   1.7134733e-04  -9.8965922e-04   3.2226575e-04   4.4913631e-04  -6.5723259e-04   4.9160531e-04  -2.8847187e-04  -1.7208523e-04   3.7667443e-05  -2.5880177e-04   2.6689927e-04   3.4527216e-04   3.7655780e-05   3.5266072e-04   7.0460032e-05   5.7377282e-04   9.0544636e-05   2.6115240e-04   4.3196473e-04  -6.4085572e-05   2.9116470e-04   5.2924792e-04   6.6445803e-04
  -1.5337791e-04  -9.8853470e-06   1.7504003e-04  -8.9784895e-05   2.5204345e-04  -3.2039406e-04  -6.1585459e-05   2.3188842e-04   6.9688220e-05   1.1981237e-04  -1.1378806e-04  -2.0072621e-04  -2.9126642e-04   2.1472316e-04   4.3089658e-05  -9.3216964e-05   9.5726034e-05  -1.0508285e-04   1.7686268e-04   5.3841653e-05   9.0766946e-05   9.2595095e-05  -2.1848439e-04  -3.7735314e-05  -3.1484675e-04   1.1289147e-04  -2.8341732e-05   1.2339505e-04   1.2934179e-03   5.2229810e-04   6.6649212e-05  -6.4145238e-04  -2.5490989e-04   1.1739316e-04   3.4491805e-04   9.3752111e-05   5.7714293e-04   4.6105456e-04   5.7521131e-04   2.0321293e-05   2.3450534e-04   1.8581079e-04   2.4352518e-04   9.3099618e-05   2.8340949e-04   4.6834102e-04  -5.3662221e-05   2.4135207e-04   5.3235510e-04   6.9962780e-04
  -6.9208341e-05   1.7398817e-05   1.9632456e-04  -6.1639112e-05   2.2519729e-05   2.0269518e-04   2.7867865e-05   5.8892666e-04  -8.3389659e-06   1.4226865e-04  -9.8898810e-05  -1.9705901e-04  -2.5539545e-04   4.5136036e-04   3.0556129e-04   6.3982923e-05   1.9659446e-05  -1.0481602e-04   6.5943768e-04  -1.1801203e-05   1.0601675e-04   1.0460267e-04  -3.1168145e-04   8.4675878e-05  -9.5397023e-05   1.2580217e-04  -2.2040197e-06   2.7626756e-04   7.5994449e-04   1.2843065e-04   1.0582291e-04  -6.2617392e-04  -5.6952449e-05   2.6558604e-04   2.2401233e-04  -7.4541431e-06   7.7937794e-04  -2.7120239e-04   4.3360572e-04  -1.4787839e-05   5.7321740e-04   2.6037259e-04   2.2158868e-04   2.3476330e-04   1.5363019e-04   3.4000393e-04  -5.0339269e-05   4.0653697e-04   5.3911027e-04   7.7432045e-04
   5.0642462e-05   2.2869415e-05   2.3787432e-04   5.6556473e-06   2.1374380e-04   1.0360685e-04   2.3666162e-04   5.1378843e-04  -3.5404292e-04   1.1641459e-04  -8.7307635e-05  -1.4348248e-04  -2.1158619e-04   2.5042973e-04  -3.2070893e-06  -8.6621709e-05   5.2601757e-05  -8.2489845e-05   3.0785633e-04   2.8164306e-05   1.1118226e-04  -4.1080038e-06   1.2763166e-04  -7.3564399e-05  -9.3365677e-05   9.9049808e-05  -7.1226052e-05   1.5651539e-04   9.2008954e-04   2.2922005e-04  -1.9650100e-04  -6.8465777e-04   4.8796146e-04  -5.6416285e-04   1.5898015e-04   1.3237125e-04  -9.0104288e-05   1.7658247e-04  -1.2661648e-04   2.8205753e-04   3.8778791e-04   1.4065580e-04   3.3544810e-04   3.1476453e-04   1.8536665e-04   1.3816304e-04  -7.6143097e-06   1.8830090e-04   4.9174146e-04   4.2282295e-04
   3.9314309e-05   1.8778746e-05   2.4322732e-04  -8.0902719e-05   1.3321314e-04  -3.0335842e-04  -1.2807351e-05  -2.3288261e-04  -1.2439205e-05   7.6134602e-05  -1.0402976e-04  -1.5209823e-04  -2.5102295e-04   1.8934326e-04   1.0802872e-06   1.6273282e-04   2.6975811e-05  -2.2639506e-04   1.3638483e-04  -2.3115674e-05   1.1069964e-04   5.4815591e-05   2.9977880e-05   5.9748283e-05  -1.8593769e-04   1.3797825e-04   6.0413143e-04  -6.0112247e-06  -4.0765948e-04   2.9571130e-04   4.7645599e-04  -7.5884489e-04  -8.0988633e-05   2.7356538e-04   1.5888331e-04   3.5604561e-04   6.6834688e-04   5.7356356e-04   3.3770129e-04   3.5375988e-04   4.2790239e-04   2.5853928e-04   5.5555778e-04   9.3971081e-05   1.4281248e-04   7.8167749e-04   6.6525979e-05   3.6708085e-04   4.7976515e-04   6.2879699e-04
  -4.5069632e-05   3.4440051e-05   2.2962051e-04  -1.3545812e-05   1.2549420e-04   4.4192391e-05   5.9255028e-05   4.4424919e-04  -4.1034294e-04   8.7670618e-05  -1.3869247e-04  -1.0581548e-04  -2.7877218e-04   2.8281787e-04  -1.6094699e-04   1.0688870e-04  -1.0912550e-05  -2.1440505e-04   4.5945463e-04   5.8312739e-06   7.5616466e-05   2.1010295e-04   9.2231930e-05   2.5775889e-05  -2.2003496e-04   2.0400922e-04  -3.0591804e-05   5.8667229e-05  -1.9136956e-04   7.9303551e-05   2.7523880e-04  -7.1688573e-04   2.2138910e-04  -2.0421555e-04   6.1945891e-04  -2.3985107e-05   7.2435086e-04   2.5854752e-04  -6.3097797e-04  -8.8443077e-05   4.6459009e-04   2.0308545e-04   5.5984658e-04   7.2659670e-05   1.5714311e-04   8.8651018e-04  -8.1612302e-07   3.0743759e-04   4.7271818e-04   4.3139499e-04
  -1.0851018e-04   5.3592983e-05   2.5926737e-04  -3.7471331e-05   2.4851219e-04  -4.9987569e-04   8.5562584e-05   7.8501372e-04  -4.3608795e-04   2.8776671e-05  -1.3129131e-04  -1.2050461e-04  -2.7906708e-04   1.3629402e-04  -3.9842783e-04  -5.8417820e-05  -7.5380221e-06  -2.1703183e-04   2.1960815e-04  -3.3204400e-05   8.7006520e-05   2.6356653e-05   1.4395248e-04   7.1446979e-05  -6.2473700e-04   1.7841616e-04   4.1323248e-04  -1.2707179e-04  -5.1980658e-04   4.1689762e-04  -2.5825980e-04  -7.1973645e-04   2.1197475e-04  -4.9049559e-05  -4.1851489e-04   1.4978519e-04   1.0654723e-04   2.6764098e-04   5.8558286e-04   2.5323851e-04   4.6950576e-04   1.5683621e-04   5.2770198e-04   9.6553122e-05   2.5549621e-04   7.1194209e-04  -2.7900096e-05   1.0348205e-04   4.8330685e-04   7.6409883e-04
  -5.7162084e-05   3.3063472e-05   2.4755235e-04  -4.5587418e-05   4.1050735e-04  -2.1508793e-04   6.2190404e-05   4.0488789e-04  -1.2485844e-04   2.6007992e-05  -1.4445327e-04  -1.0417047e-04  -1.9190744e-04   1.3801352e-04  -2.3607892e-04   5.9369351e-05   6.1693099e-05  -8.9955087e-05   5.1829975e-05   4.8515045e-05   1.0291670e-04   6.5601424e-05  -2.9488717e-04  -6.6491353e-05  -2.3040229e-04   1.7278723e-04  -2.5476611e-04   3.2133747e-05   7.9335168e-04   4.5591392e-04  -3.0964115e-04  -6.2410702e-04  -6.0498198e-05   1.3822685e-04   1.0126032e-04   1.2515893e-04   3.2175748e-04   3.7418766e-04   5.0934631e-04   1.4854498e-04   3.7346070e-04   9.8910663e-05   5.2382896e-04   2.4155354e-04   3.6435397e-04   4.7952999e-04  -1.1090920e-04   3.9929724e-05   4.4797163e-04   2.7884170e-04
  -1.1133738e-04  -4.0855281e-05   2.8578320e-04  -5.1598261e-05   3.9794375e-04   2.6606267e-05   2.3060679e-04   2.9771987e-05  -2.7308479e-04   1.5345855e-05  -2.4338522e-04  -1.5044889e-04   3.5007903e-05   1.1635157e-04   5.9068046e-04   1.4458506e-04   3.3275707e-04   3.6812163e-04   2.2836399e-04   4.0651287e-04   8.2197548e-05  -1.4362769e-05   3.1827705e-05   1.7791829e-04   3.3528043e-04   4.3648142e-05   2.3110882e-05   2.6622482e-04  -6.6695543e-04   3.4847276e-04  -2.7692784e-05  -1.8453855e-05  -8.0183774e-05  -5.7813970e-05   5.6073692e-04   4.2602867e-05  -4.0202303e-04   2.7394303e-04   4.6275594e-04   1.6307040e-05   2.9931334e-04   1.4756028e-04   7.3562574e-04   1.3245399e-04   1.2660825e-04   5.2799779e-04  -1.9186479e-04   1.6464423e-04   3.6137164e-04   4.5534354e-04
  -1.0032364e-04  -3.0496429e-05   2.3118376e-04  -6.9756614e-05   2.4656300e-04   3.6990945e-04   1.3417941e-04   1.2512668e-04  -2.9107562e-04  -1.3916132e-04  -2.7336463e-04  -1.6406552e-04  -2.1552951e-04   8.0007339e-05  -1.4374567e-04  -1.9536472e-05   1.0320148e-04   7.7768622e-05   4.8722417e-04   1.1057957e-04   1.7831760e-05  -5.3158619e-05  -2.4085211e-05   9.5230804e-05  -1.9431283e-04   1.7228781e-04   1.6207053e-04   1.7316008e-05  -1.1073224e-03   2.2034689e-04   1.8032036e-04  -4.8716809e-04   1.6387991e-04  -6.7066765e-05  -6.9924194e-05   2.1476825e-04  -4.9351936e-05   3.9901596e-04   6.6065416e-04  -2.2234443e-04   3.8103599e-04   5.2378138e-05   4.1005580e-04   6.5496599e-05   3.5282344e-05   5.5812829e-04  -1.1060254e-04   1.6786318e-04   4.4786755e-04   5.5714033e-04
  -8.3883097e-05  -7.1138413e-05   2.1779146e-04  -5.5723180e-05   3.1243157e-04  -1.5657037e-04   5.3058102e-05   1.9813710e-04  -2.2391567e-04  -1.6092336e-04  -2.4930670e-04  -1.7255060e-04  -1.7590685e-04   1.8264590e-04  -1.2773722e-04   7.6311182e-05   1.4390601e-04   1.4394677e-04   2.6424621e-05   1.5283781e-04   3.3154523e-05  -3.1955205e-05   2.3141967e-05  -5.9971326e-06   1.8674490e-04   1.7844385e-04  -7.0481787e-05   2.1391401e-04   1.1114359e-03   2.4292951e-04  -2.9847032e-04  -4.7040166e-04   2.3411929e-04   2.2693600e-04  -7.2719078e-05   2.9861694e-05   2.9136430e-04  -4.2605298e-04   5.7133893e-04  -6.2048366e-06   3.9516410e-04   2.6507591e-04   4.1978122e-04  -3.5057459e-05   2.8420650e-04   4.9720559e-04  -1.6435198e-04   4.6286214e-04   4.6635148e-04   7.2077650e-04
   5.1529291e-06  -3.7643927e-05   9.6375887e-05  -6.5642271e-05   1.5835602e-04  -3.5210076e-05  -4.2227080e-06   1.9903245e-04  -3.6787693e-04  -1.5880899e-04  -2.0421120e-04  -1.0723673e-04  -9.7725213e-05   3.5817244e-05   4.4140183e-05   1.0593060e-04   1.7705461e-04   1.8692946e-04   2.0479364e-04   2.3309533e-04   4.8265159e-05   8.6126616e-05   3.7557914e-04   1.8338498e-04   3.1026787e-04   1.4480059e-04  -3.9138224e-05   1.8782676e-04   2.4299409e-04   2.2934515e-04   8.7862834e-05  -1.6251333e-04  -9.3468887e-05  -1.5400743e-04   8.1282755e-04  -4.6438825e-05  -1.4110700e-04   3.2814156e-04   4.4096168e-04  -4.7263628e-04   2.8352009e-04   3.6132627e-04   3.5614124e-04   1.5358393e-04   7.3311749e-05   5.1071018e-04  -6.5482134e-05   2.1824284e-04   3.3960349e-04   1.5179788e-04
  -8.9633722e-05  -5.2828080e-05   2.0701293e-04  -4.6345824e-05   2.9968872e-04  -1.1834391e-04  -1.0397990e-04  -7.9884485e-05  -1.9409937e-04  -1.5414789e-04  -2.8371817e-04  -1.0910697e-04  -7.9807985e-05   2.8954702e-04   3.8017647e-04   1.2157029e-04   1.3658736e-04   1.3362904e-04   1.7017184e-04   1.3465410e-04   4.2407111e-05  -2.4224157e-05   2.5941644e-04   9.9860066e-05  -2.9298570e-04   1.2359592e-04   3.1392442e-04  -9.0818263e-05  -1.3518368e-04   3.4305084e-04   3.6108663e-04  -3.6733932e-04   1.2918809e-04   3.2142777e-04   1.1328671e-04   1.4594203e-04   3.1029915e-05  -4.4062486e-04   1.3342921e-05  -1.0159627e-04   2.2800901e-04   1.2645861e-05   6.6458405e-04   2.9203951e-04   2.1358370e-04   5.9601263e-04  -4.6432036e-05   1.9395859e-04   3.9727837e-04   6.6739065e-04
  -4.5689118e-05  -7.1358969e-05   1.4516298e-04  -5.8680358e-05   5.7641766e-05  -3.6907927e-04  -5.3642093e-06  -1.8966237e-04  -1.9070462e-04  -1.6703054e-04  -2.3876446e-04  -1.5944414e-04  -2.6371155e-04   1.5147499e-05  -1.3081601e-04   8.8253895e-05   4.7787293e-05  -9.9832823e-06   4.6753010e-04  -7.4813479e-06   5.2466607e-05   1.3148479e-04   1.1295229e-04   1.3752439e-04   5.6545592e-05   1.4281498e-04   5.0642266e-04  -3.3712956e-06  -3.2037013e-04   1.8080282e-04   6.6015440e-05  -5.1121012e-04   1.6635667e-04   3.6571242e-04  -1.6180842e-04   7.7853598e-05   3.4787878e-04   1.9000037e-04   5.0521496e-04  -1.4947302e-04   2.9013137e-04   4.0336759e-05   6.0143101e-04   1.4586428e-04   2.7943432e-05   3.6313597e-04  -3.8721872e-05  -2.3883073e-04   4.0657702e-04   6.5761292e-04
  -1.7750755e-04  -1.1316058e-05   1.9753087e-04  -6.1648585e-05   1.5867637e-04  -1.4702334e-04   8.6095519e-05   1.3383463e-04  -3.3491472e-04  -1.8556019e-04  -2.1083067e-04  -1.3968479e-04  -1.5961997e-04   2.4201070e-04  -1.6153722e-04   1.2743715e-04   9.4000006e-06   1.0131100e-05  -2.9640603e-05  -2.8072260e-05   6.8559544e-05   1.0804505e-04   1.7373834e-04  -2.6799118e-05   7.4150332e-05   1.3243382e-04   2.4438114e-04   2.5986216e-04   5.6933891e-04   3.5549334e-04  -5.8890105e-04  -4.9513957e-04   1.5797246e-04   1.2936667e-04   1.5092547e-04   1.3403085e-04   1.7893917e-04  -1.1887031e-04   3.7101717e-04  -3.0397274e-05   5.8264937e-04   7.2301416e-05   4.3272279e-04   5.8507565e-05   2.9380960e-04   6.2555179e-04  -1.2465339e-04   2.0041484e-04   4.0139176e-04   1.1354022e-03
  -3.9171584e-05  -1.7029615e-05   2.1303963e-04  -5.6288500e-05  -6.5043459e-05  -2.1351650e-04   5.6417932e-05   4.0952691e-05  -5.2576204e-04  -1.7437688e-04  -1.8199866e-04  -1.2372616e-04  -1.5656458e-04   3.4465073e-04   7.3619252e-05   8.2769729e-05   7.2191033e-05   9.7409495e-05   3.3822525e-04   7.8290162e-05   7.6596698e-05   7.0209346e-05  -7.7935438e-05  -6.6484303e-05   1.8780259e-04   1.1601645e-04   1.6039574e-04  -9.7190357e-05   3.4931625e-04   7.1354574e-05  -1.2849606e-04  -4.2121860e-04   3.1450129e-04  -4.9648207e-04   1.4151371e-05  -7.3237032e-05   5.3726393e-04  -1.9871787e-04  -4.3791768e-04   2.3302107e-05   3.8403523e-04   1.5217716e-04   4.0320761e-04   5.5009328e-05   1.7994139e-04   4.1036238e-04  -1.2172087e-04   3.6312849e-05   4.2430148e-04   4.4642633e-04
  -6.7437541e-05  -5.4000753e-05   2.1345131e-04  -5.2781438e-06   3.2437054e-04  -1.1424573e-04   2.5608166e-04   4.1715792e-04  -1.1928913e-04  -1.9368051e-04  -2.3838287e-04  -1.8490080e-04  -1.6328761e-04   2.4347426e-04   1.3764483e-04   4.9493810e-05   7.4126692e-05   9.9862431e-05   2.4613625e-04   8.4722931e-05   7.7725075e-05   9.2794784e-05   1.7224683e-04   6.1412335e-05   8.9434601e-05   1.2151469e-04   2.3942452e-04   5.7271231e-05  -3.8407472e-04   3.0985306e-04  -5.6689565e-05  -2.9301137e-04   2.7569872e-04   3.7443326e-04   4.7028714e-04   1.0590890e-04  -5.4402504e-04  -2.5073517e-04  -3.1208835e-04  -1.7242627e-04   4.1588955e-04   2.8440883e-04   6.4509601e-04   9.0668123e-05   2.3475739e-04   7.1289414e-04   2.5556262e-06   1.7403603e-04   4.1530747e-04   6.9298781e-04
  -6.2925865e-05  -3.2681823e-05   1.9363222e-04  -5.3971118e-05   1.9663779e-04  -3.7443725e-04   7.9068173e-05   6.7324843e-04  -1.2534059e-04  -1.8059772e-04  -2.5584444e-04  -2.3029887e-04  -1.2560149e-04   4.1110773e-04   1.4815135e-04   4.1723746e-05   1.1821465e-04   5.6659526e-05   3.7430468e-04   7.6510798e-05   6.1441984e-05   1.0084275e-04   1.7439682e-04  -1.9959241e-04   5.7313218e-06   1.5599989e-04   5.1003637e-05   1.1376030e-04   5.2508403e-04   1.6435783e-05  -1.8422956e-04  -3.7239862e-04  -6.0228744e-05  -3.4959597e-04   1.5251643e-04   2.3626364e-04   7.7305088e-04   3.1064096e-04   1.4274070e-04   1.3239753e-04   3.5614235e-04   1.0302971e-04   4.9847510e-04   2.4056377e-05   2.8681665e-04   8.2521391e-04  -1.6377975e-04   1.2163038e-04   5.1601545e-04   6.0747896e-04
  -7.2047551e-05  -1.8855193e-05   2.0278762e-04  -2.2603839e-05  -2.2408218e-05  -3.6510118e-04   3.0546167e-04   7.1533222e-04  -1.6179390e-04  -1.5878092e-04  -1.9125927e-04  -1.8671555e-04  -1.3214919e-04   2.9403417e-04   1.2191691e-04   3.6352794e-05   4.6711441e-05   5.6831101e-05   3.9248279e-04   4.4271841e-05   7.3557254e-05  -9.6378659e-05  -5.5809043e-05  -1.0776837e-04  -1.8454179e-04   1.8864163e-04   1.2700890e-04   2.5363124e-04  -1.5931222e-05   1.6728250e-04   2.0255244e-04  -3.1564009e-04   4.7654987e-04  -8.6939835e-05  -3.2700339e-04   1.5206877e-04   4.8771917e-04  -4.5497462e-05   4.1342087e-04   1.1164256e-05   3.0971307e-04   1.1752491e-04   4.3456745e-04   2.7795200e-04   1.2377511e-04   7.7455566e-04  -1.0882489e-04   1.5423035e-04   3.8701671e-04   7.0041831e-04
   9.9795878e-05  -4.4329699e-05   2.0440143e-04   1.5013814e-05   2.0552556e-04  -4.4645360e-04   1.5484529e-04  -4.6157298e-04   1.2394004e-05  -1.6503906e-04  -2.2143542e-04  -2.2177240e-04  -2.3384676e-04   3.5638129e-04   2.8805929e-04  -9.5632298e-05   1.2855215e-05   2.4430903e-05   6.6130515e-04  -1.0028721e-06   1.0300380e-04   1.1075316e-04   3.4183104e-06  -8.7757879e-05   1.7533955e-04   1.7404078e-04   6.8012648e-04   1.8772211e-04   7.5606292e-04   2.4336802e-04  -1.9331599e-04  -3.9141896e-04   3.9362250e-04   6.6960260e-06   3.1738283e-04   1.6229389e-04   1.1648829e-04   4.8393213e-06   5.4491893e-04   2.3426961e-04   2.6226556e-04   1.3436751e-04   3.2603953e-04  -3.0298898e-04   4.6337223e-05   3.9486631e-04  -5.5336375e-05   1.1424752e-04   4.8333485e-04   6.7854516e-04
  -2.7535270e-05   5.1947177e-06   1.9264822e-04  -2.6902302e-05   2.6267226e-04  -5.7911016e-05   6.0927327e-05  -4.4609180e-05  -2.2885272e-04  -1.8210793e-04  -2.2102940e-04  -2.0682896e-04  -2.2441280e-04   4.8540169e-04  -1.2057749e-04   5.3598382e-05  -1.9192948e-05   1.4378825e-04  -1.1828881e-04  -6.2255167e-06   1.1482717e-04  -3.2445678e-05  -6.4303958e-07  -9.8712223e-07   8.7555251e-05   3.4982659e-05   6.0578104e-04   2.0532998e-04   6.1756502e-05   1.4931947e-04  -3.2492371e-05  -4.1051814e-04   4.7134896e-04  -2.3981545e-04   2.6029022e-04  -8.7876921e-05   4.3830028e-04   2.7030511e-04  -4.8203691e-04  -2.9115137e-04   3.2113944e-04   1.8490231e-04   5.0766149e-04   1.1703746e-04   3.0781794e-04   4.1916498e-04  -1.3237048e-04   1.6173144e-04   4.7575048e-04   5.7486317e-04
   7.2969146e-05  -2.3515171e-05   1.9674636e-04  -2.0396468e-05   2.2440316e-04  -4.7037561e-04   1.4134735e-04   2.3075938e-04  -2.6017523e-04  -1.7154989e-04  -2.2872306e-04  -2.1593054e-04  -1.7117056e-04   3.3832688e-04   2.0180944e-04   9.9902616e-05  -2.7129232e-05  -2.0471276e-05   4.3869053e-04   4.2463140e-05   9.6536955e-05   9.6353222e-05  -4.4326578e-05  -1.9809706e-05  -8.1748192e-05   6.0833285e-05   5.0756719e-04   2.5539211e-04  -7.3353141e-05   2.3095946e-04  -1.5974588e-04  -3.7250086e-04   2.8279214e-04   1.6327498e-04   1.7517811e-04  -1.1685870e-04   4.1822670e-04  -1.5527173e-04   4.4613666e-04  -2.1126658e-04   2.1876556e-04   6.1536681e-05   1.9549333e-04   2.6449602e-04   1.5154680e-04   4.9724220e-04   2.3188737e-05   2.5783458e-05   4.1345682e-04   6.6444097e-04
   6.2783482e-05   4.0339119e-06   2.1065104e-04  -7.4929048e-05   3.0900279e-04  -1.6748170e-04   3.3896475e-04   6.2884990e-04  -4.2090614e-04  -1.7375949e-04  -2.2295678e-04  -2.6030501e-04  -1.1952550e-04   1.5389179e-04   2.0136182e-04  -6.6587004e-06   5.7541576e-05   4.9588092e-05   1.5127540e-04   6.5437249e-05   7.8937090e-05   1.2345417e-04   2.8308357e-05  -1.6638111e-05  -1.5287635e-04   7.3528390e-05   6.6042726e-04   5.4419059e-05   2.4392385e-04   3.5100209e-04  -3.6948029e-04  -4.3940908e-04   5.0735322e-04  -1.1001869e-04  -1.5606165e-04   2.9340090e-04   5.3033268e-04  -4.6253708e-04   1.9698375e-04   2.5676147e-04   4.2842526e-04   1.1646045e-04   7.2961091e-04   1.4351214e-04   1.9033847e-04   3.8135931e-04  -1.0983395e-04   1.7806508e-04   4.0939060e-04   5.2646711e-04
   1.2460652e-04  -5.8679825e-06   2.2521637e-04   2.3928365e-05   2.9797613e-04   1.9819284e-04   2.5464277e-04   1.1322398e-04   1.0148358e-04  -1.8827358e-04  -2.0908412e-04  -2.3700958e-04  -1.3491207e-04   4.8375005e-04   3.4649594e-04   8.0472535e-05   2.3324985e-05  -1.3209708e-05   4.2783245e-04   2.4506740e-05   1.0223171e-04   7.0960792e-05   3.2199390e-04   2.9289660e-05  -3.6434564e-04   1.2809594e-04   5.9492129e-04   2.1516578e-04   2.6280928e-04   3.2261782e-04  -1.3695713e-04  -4.6350848e-04   7.4413736e-05  -1.0238382e-04  -3.2024537e-04   1.0882862e-04  -2.6015466e-04  -1.4227303e-04   2.5074073e-04   1.7021332e-04   4.3082825e-04   3.1247741e-04   4.1083238e-04   2.1244175e-04   8.0441023e-05   8.4763131e-04  -1.0718776e-04   1.7493965e-05   4.4815376e-04   4.9168279e-04
   4.9492523e-05   2.2346575e-07   2.2950793e-04  -3.3023251e-05   2.5638426e-04  -1.5986833e-04   2.1587774e-05   5.0432829e-04  -1.9088207e-04  -1.9177789e-04  -2.1645961e-04  -2.1262503e-04  -1.4508325e-04   4.5130198e-04   1.1620354e-04   1.9533400e-05   4.6353936e-05  -9.6832329e-05   3.2168816e-04   6.2102692e-05   7.2368479e-05   1.2156822e-04   1.3306502e-05   3.9319919e-05   3.2404420e-04   1.2179620e-04   1.9197691e-05   1.2800556e-04  -1.2347546e-03   2.0034818e-04  -3.5441913e-05  -4.5257152e-04  -1.2264797e-04   5.6605280e-05   1.4871101e-04  -9.7653074e-06   1.2879803e-04   2.0684273e-04   3.3441489e-04  -7.3956064e-05   3.4237647e-04   1.7719901e-04   1.6737013e-04   1.1830864e-04   2.8296327e-04   6.3962914e-04  -4.7672896e-05   1.6758285e-04   4.4124501e-04   6.5504271e-04
  -2.5402183e-05  -2.9503732e-05   1.9045516e-04  -2.3016002e-05   2.8157354e-04   5.4090709e-05   1.2346739e-05   8.3025492e-04  -1.6702806e-04  -1.4947886e-04  -2.1602988e-04  -2.2697862e-04  -5.4626045e-05   2.9840946e-04   4.3567034e-04   1.3155621e-04   1.0674015e-04   8.0656420e-05   2.2116088e-04   9.0876681e-05   1.0324040e-04   1.3966809e-04   2.8388883e-04  -9.0631933e-05   5.4570497e-05   1.0755243e-04   1.4057264e-04   6.4460452e-05   5.1285495e-04   1.3908697e-05  -8.3089122e-05  -4.9421791e-04   3.3518620e-05   1.8590606e-05   1.3565971e-04   3.1843875e-04  -2.4907436e-04   1.4622649e-04  -1.8332138e-04  -5.9079393e-05   3.2633459e-04   1.2164768e-04   4.2527413e-04   1.8722039e-04   1.4482618e-04   4.6814026e-04  -1.5400189e-04   1.7273649e-04   5.2849698e-04   4.9714715e-04
  -8.9093322e-05  -7.0855531e-05   2.1930065e-04  -4.1631458e-05   1.5900563e-04   3.7254500e-05  -1.0333356e-04   2.3930360e-04  -1.3716021e-04  -2.1380522e-04  -2.2734115e-04  -2.5299442e-04  -1.0799824e-04   3.6867999e-04  -1.4206725e-04  -7.6786264e-06   4.1349820e-05   9.6464018e-06   2.8149068e-04   8.2647683e-05   5.8993621e-05   1.5730517e-04   2.4815853e-04   5.1901618e-05   1.6293896e-05   1.0413209e-04   4.2641233e-04   1.8251884e-04  -1.1843615e-04   3.4074765e-04  -6.2980229e-04  -4.8322574e-04   1.4151131e-04   3.7690444e-04   4.2286591e-04   2.2743243e-05  -4.4399072e-04   2.1651106e-04   2.0304770e-04  -1.4793974e-05   3.4040745e-04   1.3916328e-04   4.4132603e-04  -1.8944469e-04   1.8512944e-04   6.1769260e-04  -2.1056017e-04   1.5721502e-05   4.3070817e-04   3.9523351e-04
  -3.2522650e-05  -6.6210829e-05   2.2988318e-04  -6.3480780e-05   8.8925539e-05  -1.7545774e-04   2.6302107e-04   2.8967808e-04  -5.5504926e-05  -2.5357064e-04  -2.4133500e-04  -2.7488740e-04  -1.0289183e-04   9.8001554e-05   1.3448644e-04   2.1055095e-04   9.0468779e-07   3.3351065e-05   5.0587114e-04   4.4116088e-05   2.0120202e-05  -1.8046027e-05  -1.5280726e-04   4.4120105e-05  -3.9260965e-04   1.3517034e-04  -1.7040434e-04   2.0150523e-04   3.1779485e-04   3.0611052e-05   1.8268912e-04  -4.5745127e-04  -3.1740789e-04   2.0829904e-04   3.0997614e-04   3.7497390e-05   2.8792094e-04  -2.7509037e-04   4.1778764e-04   1.7563732e-04   3.7856621e-04   8.7857232e-05   5.0837727e-04   9.8584809e-05   2.3249676e-04   2.2565181e-04  -1.5215944e-04   1.1219807e-05   3.5204037e-04   2.2954955e-04
  -9.0398808e-06  -4.2786440e-05   1.7978484e-04  -1.9098130e-05   1.3787452e-04  -1.3905672e-04  -1.2678366e-05   1.3643204e-06  -4.3180765e-04  -2.1527073e-04  -2.0251283e-04  -1.8788630e-04  -1.8314674e-04   1.1340906e-04   5.9369257e-05  -4.5551566e-05   2.9023364e-05  -8.6663691e-05   8.8118148e-05   2.3172819e-05   6.2847968e-05   5.5192817e-05  -2.3025592e-04  -5.6770964e-06   1.5378580e-04   1.8284936e-04   2.3637431e-04   7.6277356e-05  -5.4663507e-04   9.9066216e-05   1.9923999e-04  -4.8965024e-04  -1.9554231e-04   1.3379485e-04   8.4409345e-05   7.0667549e-05   3.8834184e-04   4.5077121e-04   8.6962344e-04  -1.9761628e-05   1.2696521e-04   1.1119723e-04   2.0606806e-04   1.6295155e-04   2.5837249e-04   5.9397466e-04  -7.0916212e-06  -5.4133150e-05   2.7547788e-04   6.1190047e-04
   1.4301420e-05  -4.9551167e-05   2.0500321e-04   1.7988532e-05  -6.5436230e-05  -3.2702115e-05   4.3323333e-05   1.6388526e-04  -3.1669415e-04  -2.3276238e-04  -1.9885169e-04  -1.2432967e-04  -1.9542892e-04   2.3759942e-04  -1.4986582e-04   1.2528768e-05  -1.7678627e-05  -6.7289635e-05   2.8763537e-04   8.5566044e-06   4.4618217e-05   2.4950985e-04  -5.5721637e-05  -2.5477583e-04  -4.6064312e-04   6.1347113e-05   4.5831526e-05  -2.2827500e-05   9.8927412e-04   3.3313016e-04   3.2387313e-04  -6.0538074e-04   4.4465443e-04  -2.8948847e-04   2.9934483e-04  -2.4406238e-06   4.0608086e-04   4.1845796e-04  -1.1331587e-04  -2.6781072e-05   1.5077036e-04   2.2674159e-05   9.2203773e-05   1.1809821e-04   2.0538372e-04   4.6411614e-04  -8.1072809e-05   8.0072568e-05   3.6026113e-04   5.9836468e-04
   1.0560434e-05  -7.0098402e-05   1.6732475e-04  -7.0668117e-05  -1.9434003e-05  -1.0682742e-05  -1.6864046e-04   1.9836675e-04  -1.3833608e-04  -2.5069967e-04  -2.2798711e-04  -1.1835653e-04  -1.3470158e-04   9.2317583e-05   2.9681507e-05   1.9371371e-04   7.8550656e-05   9.3852294e-05   4.9286475e-04   1.4234772e-04   4.8473892e-05   1.6926567e-04  -4.7593960e-05   1.7034694e-05   1.9528315e-04   1.6889448e-04   8.8177927e-05   1.7108671e-04   2.8096820e-04   2.6849896e-04   3.0447394e-04  -4.4726988e-04   3.5353514e-04  -2.2839523e-04   2.0264021e-04  -2.2032736e-04   1.3717923e-04   1.8345428e-04  -1.4497702e-04  -2.1526957e-05   2.1123968e-04   7.5973832e-05   5.5215741e-04  -3.8201313e-05   5.9918311e-05   3.1709275e-04  -1.2727737e-04  -3.0324849e-05   3.0793078e-04   5.2390050e-04
  -6.7776491e-05  -5.7396017e-05   2.0603418e-04  -4.9182789e-05   2.1139417e-07  -5.1491825e-05   1.1532963e-04   4.3137325e-04  -2.3830999e-04  -2.2932708e-04  -2.3047134e-04  -1.3523998e-04  -4.5796736e-05   9.4341733e-05  -1.6103430e-04  -1.7952725e-05   4.1002782e-05   3.8568211e-05   1.8075230e-05   1.5537615e-04   3.8549635e-05   1.0518839e-04   7.5949749e-05  -1.1142525e-04   1.7612433e-04  -2.3657110e-05   9.6670941e-05   3.8733706e-04   9.5276040e-04   3.3381255e-04   2.8872478e-04  -3.9107865e-04   1.9442456e-04  -4.2998483e-05   1.8690886e-04  -2.1764537e-05   5.8557355e-04   4.2870717e-05  -3.3707367e-04   9.5326221e-05   2.5497438e-04   4.2153075e-05   1.4825384e-04   1.0606388e-04   1.5851301e-04   3.3353039e-04  -3.6177582e-05  -1.3328428e-04   2.9817427e-04   3.8813442e-04
  -4.0091571e-05  -6.6191409e-05   1.2474906e-04  -4.7330541e-05   7.0800556e-06  -1.5755228e-04   1.3879678e-04   3.7540661e-04  -4.6974656e-04  -2.2376145e-04  -1.7914710e-04  -8.3820065e-05  -1.0719213e-04   2.0621010e-04  -4.0926680e-05  -5.5096560e-05  -5.2360308e-05  -4.0182062e-05   7.4797812e-05  -2.9573186e-05   7.8475670e-05   1.3380902e-04   3.3677567e-05  -7.2775838e-05   2.9765748e-05   7.5857111e-05   2.9763201e-04   2.6412279e-04   8.0291451e-05   1.9016859e-04  -2.4410892e-04  -4.4334732e-04  -1.2067937e-05   3.9074730e-05   2.2148677e-04   7.9473968e-05   7.4538158e-04   5.8000768e-04   1.8489332e-04   3.6553985e-05   1.5758969e-04   1.4979555e-04   6.0183305e-04   1.1809921e-04  -2.9209987e-06   6.6537427e-04  -6.3269719e-05   8.7940105e-05   3.3836204e-04   3.8535293e-04
   6.4118872e-06  -5.6423446e-06   1.4708171e-04  -3.7609672e-05   3.8085393e-05  -2.3513535e-04   3.0299020e-06   1.4454094e-03  -4.9864565e-04  -2.6866060e-04  -1.6185669e-04  -7.4260046e-05  -1.8446904e-04   2.8388813e-04  -2.5771809e-04  -7.0314156e-05  -3.4224053e-05  -5.6621393e-05  -1.4248857e-04  -1.0484920e-04   3.4785826e-05   4.9729711e-05   1.7362993e-04   1.1713581e-04   4.8054621e-06   1.8182764e-04  -1.7029332e-05   1.0600299e-04   1.0504319e-03   2.1059747e-04  -2.2204939e-04  -4.4552630e-04  -1.5332973e-04  -4.8139180e-05   1.1749544e-04   9.4656803e-05   2.0509699e-04   5.1956496e-04  -7.2706700e-04  -1.5139310e-05   1.8720643e-04   5.5180979e-05   6.6274879e-05   9.8494616e-05   3.3880118e-05   9.4010495e-05   5.1382167e-06  -1.1602363e-04   2.1846849e-04   5.3649477e-04
  -6.0916824e-05  -2.5481759e-05   1.3842265e-04  -5.4932869e-05  -5.6783017e-05  -3.9853415e-04  -1.5020381e-04  -4.6916171e-05  -1.5868728e-04  -3.6259013e-04  -1.4581461e-04  -7.1078568e-05  -1.6990124e-04   1.2099793e-04  -1.8288399e-04   1.0622006e-04  -6.2551509e-05  -9.2444418e-05  -2.0786640e-04  -9.8578865e-05   7.5895281e-05   1.6846086e-04  -7.3477451e-05  -6.2514766e-05  -1.6629363e-04   1.0323866e-04  -2.0546543e-04   3.2203778e-05   3.8620259e-04   1.6430754e-04   3.0989118e-05  -4.7984815e-04   2.5260076e-04   2.1063877e-04  -8.2902385e-05   3.9782706e-05   8.7283348e-05  -1.0371408e-04   2.2807153e-04   2.3932855e-04   3.4551739e-04   2.1801061e-04   1.8138411e-04   1.5666547e-04   4.9931783e-05   2.2875839e-04   2.3715133e-05   9.5840529e-05   2.5856061e-04   1.4699211e-04
   7.8636567e-06  -5.9550151e-05   1.4011236e-04  -3.4924728e-05   9.3684044e-05  -2.3183216e-04   1.0599040e-05   3.0246665e-04  -2.8510622e-04  -3.3980093e-04  -1.4307487e-04  -8.8920759e-05  -1.3634072e-04   1.6780205e-04   9.5647949e-05   4.4678658e-05  -7.2065435e-05   8.2859478e-05  -1.1487476e-05  -9.3609291e-05   7.6223521e-05   1.0030383e-04  -7.1956078e-05  -2.1646141e-04   2.0860914e-05   4.4809181e-05  -6.3687461e-05   2.1672409e-04   7.1812974e-04  -8.4419451e-05  -2.8271756e-05  -4.3428454e-04   3.8415060e-04  -1.2566647e-04  -1.0498694e-04  -7.0026268e-05   6.5040466e-04  -1.1206659e-04   2.1309686e-04  -2.0194297e-04   1.6714216e-04   1.5141354e-04   1.6017695e-04   3.3397566e-05   1.2188068e-04   3.1047681e-04  -1.2404947e-05   1.1235329e-04   2.5692317e-04   2.8889070e-04
   3.6597332e-05  -1.9362674e-06   1.3458464e-04  -6.0095808e-05   2.2079410e-04  -2.8648405e-04   1.8228612e-04   3.7838495e-04  -3.4353285e-04  -3.6237304e-04  -1.7972058e-04  -1.1712146e-04  -1.3410236e-04   2.5958757e-04  -1.9195471e-04  -1.0363643e-04  -1.7271339e-05   3.7842219e-05   5.0419325e-04  -1.0010431e-04   5.0545103e-05   9.7010459e-05  -4.0599039e-05  -2.6688142e-06   1.8734702e-04   6.0402497e-05  -3.5912137e-05   1.9840573e-04  -6.9711043e-04  -1.2462950e-04   8.9595378e-05  -4.5459674e-04   2.8017009e-04  -5.3601078e-04   1.7664858e-04   1.2856633e-05  -8.1674749e-04  -8.8234046e-05   1.6699069e-04   3.5594872e-05   6.1150560e-05   1.1215582e-04   3.2805713e-04  -1.1081660e-04   1.2223012e-04   2.2419688e-04   1.3128000e-05   8.2771949e-05   1.6680687e-04   5.2614050e-04
  -7.3293217e-05  -5.2894196e-05   1.2166989e-04  -4.2295527e-05  -4.7692611e-05  -7.6309858e-05   1.4079487e-05   1.6053500e-04  -4.3058390e-04  -3.7022066e-04  -1.7083834e-04  -2.0721456e-04  -1.3096914e-04   2.7313115e-04  -8.7209177e-05   8.0349724e-05  -2.3555671e-05  -2.1454594e-05   3.6814930e-05  -4.9240989e-05   6.2440311e-05   5.1627663e-05  -4.0301721e-04   5.2891515e-05  -3.2278983e-04  -1.9866626e-05  -8.3079103e-05  -7.1347844e-05  -1.0520735e-05   9.1053371e-05  -1.3368596e-04  -4.4424491e-04  -1.7976876e-04  -4.3907912e-06  -1.2556482e-05  -2.7478678e-04  -2.1750858e-04   2.4068181e-04   4.3248417e-04   7.3906085e-05   2.1973628e-04   1.3310845e-04   2.2173063e-04   2.3270049e-05   1.0611497e-05   9.0231944e-05  -7.0273221e-05  -5.5704346e-05   1.5608330e-04   5.7183718e-04
  -1.0304099e-05  -7.3683899e-05   1.0761346e-04  -4.9394293e-05   1.9648175e-04  -1.3197497e-04  -1.7368741e-04   8.4826269e-04  -1.4973196e-04  -3.5490390e-04  -1.3618883e-04  -2.2393292e-04  -1.3187226e-04   7.3525589e-05  -1.3832167e-04  -1.5366590e-04  -1.8709954e-05  -2.8367433e-05   2.3165676e-04  -5.9394861e-05   6.4620195e-05   3.6026409e-05   3.4457222e-05   2.2582273e-04  -2.3647735e-04   1.4022319e-04   1.4346225e-05   2.4244444e-04   1.7821857e-04  -1.4616625e-04  -4.0144681e-05  -3.4917711e-04   8.8677130e-05  -1.1300064e-05   6.6386754e-05   1.0062502e-04  -9.2295886e-05  -6.2070416e-05  -5.2276568e-04  -3.1245797e-04  -3.3843353e-05   1.8547870e-04   5.8396781e-05  -1.6818495e-04   4.0227496e-05   6.2092775e-05  -6.5436070e-05   5.4814682e-05   2.3663684e-04   4.9625977e-04
  -4.8940790e-05  -6.5357222e-06   9.3435636e-05  -4.8383918e-05   2.6232143e-05  -1.5307152e-04   1.7649696e-04   4.4389386e-04  -4.5164689e-04  -3.5638586e-04  -1.4427470e-04  -2.1815251e-04  -1.2912255e-04   1.3446108e-04   5.8576381e-05  -9.4334500e-05  -5.9597380e-05   5.1930433e-06   1.6410527e-04  -6.0205417e-05   9.2059643e-05   1.3165281e-04   2.3788869e-04  -1.3758470e-05   4.6598711e-06   9.7618329e-05   1.5650122e-04   8.1045830e-05   5.0410687e-04   1.1301805e-04  -1.5588930e-05  -3.8387792e-04   3.8142163e-05   2.0152895e-05   1.1891683e-04  -7.0184869e-05   1.1563463e-04  -6.3451757e-06  -3.1151253e-04   2.2542804e-06   2.4946625e-04   1.4130255e-04   3.1275558e-04  -1.2010890e-04   1.0186458e-04   3.3765330e-04   5.8737798e-05  -1.3447081e-04   2.0359571e-04   5.2501046e-04
   1.9472294e-05   1.4728936e-06   2.1510976e-04  -1.6561346e-05   1.2428853e-04   1.9069746e-04  -9.8091878e-05  -1.2344019e-04  -2.0036520e-04  -3.5630574e-04  -1.4233147e-04  -2.1285612e-04  -1.1618870e-04   2.9143854e-04   3.4248045e-05   1.1244765e-05   6.1461074e-06  -1.7939486e-05   1.4265990e-04  -5.1033418e-05   4.9778519e-05   7.5778289e-06   4.7414564e-05  -7.1166425e-05   2.5727070e-04   5.3446893e-05  -1.8203838e-04  -5.7119170e-05   3.1232317e-05   1.8164629e-04   3.0493952e-04  -4.1062184e-04   4.6822493e-04   2.4605240e-05   2.2254997e-05   1.3870991e-05   4.2150787e-04   2.4214747e-05   5.6784978e-04   3.0859822e-04  -6.5342232e-05   4.0741164e-05   9.9887948e-05   1.0906856e-05  -3.8275259e-05   3.3722463e-04  -3.8479946e-05   6.9992449e-05   2.1959627e-04   8.2893828e-05
   2.6166812e-05  -5.9118815e-05   1.1413191e-04  -8.9166579e-06   8.8302470e-05   6.8206347e-05  -4.2169348e-05   6.5028563e-04  -2.4354838e-04  -3.5192634e-04  -1.7781522e-04  -2.0394186e-04  -7.9899401e-05   2.6838825e-04   5.8920257e-05   4.7668134e-05  -7.0912771e-05  -3.9858049e-05   5.7200174e-04  -1.9771316e-05   5.8243961e-05   1.5224365e-04  -1.8602715e-05  -1.0492394e-04   3.5519493e-04  -6.1704679e-07   4.3982620e-04   2.8872001e-04  -9.9550423e-05   3.6683553e-04  -1.9202889e-04  -3.7735622e-04   3.7934026e-06  -2.5620728e-04   3.8989395e-04   3.0254812e-05  -7.8629280e-05   1.9687400e-04  -2.1319388e-04   9.6773692e-05   1.3934114e-04   1.6354589e-04   2.5082228e-04  -1.3981979e-04   1.3030408e-04   4.1085444e-04  -2.6219950e-05   1.7243221e-04   2.0492020e-04   8.4105763e-05
  -4.5532841e-05  -5.6560828e-05   1.0486617e-04  -4.3829121e-05   6.7720059e-05  -2.5833529e-04   1.3119336e-04  -3.9089468e-04  -3.4321446e-04  -2.8486896e-04  -1.4105410e-04  -1.5974905e-04  -1.7077275e-04   1.4938484e-04  -1.1166735e-04   2.6700360e-05  -1.3933537e-05  -6.8147979e-06   6.3697086e-04  -2.9066550e-05   4.7611316e-05   7.9514022e-05  -7.8067336e-05  -1.3332121e-04  -4.0476807e-04   1.9222337e-06  -1.6122301e-04   1.5308274e-04  -8.9189078e-04   2.3627131e-04   1.6658283e-04  -3.5250385e-04   5.2035088e-04   2.6881737e-06  -3.2176595e-04  -9.5926043e-05  -7.0838811e-05   6.4275967e-04   3.2570548e-04  -4.1776701e-05   2.5629095e-04   3.7328136e-05   3.0566921e-04   1.0276060e-04  -1.1107701e-06   3.9031633e-04  -1.1385805e-04   3.8410697e-05   1.5865092e-04   3.2680991e-04
  -1.4322282e-04  -1.6074153e-05   1.6515155e-04  -1.6892762e-05   7.3759402e-05  -1.0552073e-04   6.5820619e-05  -6.9029731e-05  -1.3826069e-04  -3.8977593e-04  -2.0831222e-04  -1.9417523e-04  -1.9733132e-05   2.7991270e-04  -7.5877353e-05   8.7015913e-05   1.0106801e-04   1.0431042e-04  -5.3364795e-04   1.7718734e-04   4.3452656e-05   2.1587849e-04   3.1414354e-05  -8.4056315e-05   1.9968760e-05   1.4164468e-04  -5.7103793e-05   2.2358382e-04  -1.2783619e-04   6.3343759e-05   1.7342308e-04  -2.5561062e-04  -2.6369645e-04   2.2558648e-04  -1.7728747e-04  -2.8626921e-04  -2.8480170e-04  -3.5556246e-04  -4.0079336e-04   4.1685715e-05   6.0238272e-06   7.8666664e-05   9.4217321e-05  -1.4478013e-04   7.6124154e-05   4.5313867e-04  -1.4939340e-04  -8.2294209e-05   1.9502259e-04  -4.0859337e-05
  -1.6018476e-04  -9.5479467e-05   1.9149725e-04  -1.0583521e-04  -5.3944518e-06   1.2801327e-04  -8.4381238e-05  -2.1624444e-04  -1.4506023e-04  -3.5279646e-04  -2.3736544e-04  -2.9016653e-04  -4.9710685e-05   1.5029976e-04  -4.8775135e-05  -6.2008992e-05   6.9184302e-05   2.6092855e-05  -6.8129819e-05   9.7584656e-05   2.3247885e-05   1.5893255e-04  -1.7519109e-04  -5.0173923e-05  -3.6752527e-04  -7.0341121e-05  -8.0006095e-05  -2.8864291e-04   6.1674434e-04   1.9324209e-04   1.0261550e-04  -4.2681114e-04  -2.3466432e-04   2.3120940e-04  -1.8254253e-04   9.2401875e-05  -4.9946515e-04  -4.4331737e-05  -2.2797554e-04   7.1654496e-05   2.3881526e-04   8.9290435e-05   5.0892126e-05   7.7071918e-06   9.8827215e-05   1.5832701e-04  -6.3400730e-05  -3.8365371e-04   2.2398662e-04   1.7477266e-04
  -1.5041366e-04  -9.5924668e-05   1.0290208e-04  -1.3079065e-04   3.0684219e-05   1.3635443e-04  -2.3848534e-04   7.1235374e-04  -3.0012080e-04  -3.5760575e-04  -1.9713896e-04  -2.7457709e-04  -1.3532907e-04   2.6324866e-04  -5.0580522e-05  -1.0828739e-05  -3.5617293e-05  -2.0115951e-04   3.1038068e-04   6.7218124e-08   1.9833664e-05   1.4096551e-04  -1.2867597e-04  -1.5025247e-04  -1.0374371e-04   1.1076413e-04   2.8974679e-04  -9.1985799e-05   4.6086666e-04  -6.7251582e-05  -2.9619606e-04  -4.9225974e-04  -3.1343399e-05  -2.5611633e-04   1.7370396e-04  -9.9910620e-05   3.5842098e-04   2.3117416e-05   5.6846566e-05   6.5159104e-05   3.4051787e-04   1.0128662e-04   2.1705795e-04  -2.4479332e-05   3.4187128e-06   3.5998088e-04  -1.1991398e-04  -6.2464942e-06   1.6061839e-04   4.4706694e-04
  -4.1221996e-05  -4.9912804e-05   1.2731299e-04  -3.1112704e-05  -4.5317533e-06  -1.8893648e-04  -4.1359686e-05  -3.5205041e-04  -2.1294522e-04  -3.9812963e-04  -2.3972422e-04  -3.0613274e-04  -1.0431164e-05   2.4709865e-04   2.8060185e-05   1.5605665e-04   1.7798175e-04   1.5166351e-04  -2.7354495e-04   2.5737248e-04   2.2675085e-05   5.8320304e-05  -1.8007598e-04  -1.3792962e-04   1.6338931e-04   1.4531473e-04  -3.7352376e-05   1.1346095e-06  -4.6111213e-04  -8.0728860e-05   3.4334557e-04  -2.6703396e-04   3.9278710e-04  -1.4450832e-04   1.8659147e-04   9.7464588e-05   1.7615128e-04   2.6302031e-04  -6.8334783e-05  -4.6783075e-04   2.6432725e-04   1.0708509e-04   1.7923776e-04   3.6021171e-05   2.6948180e-04   7.2487732e-05  -1.7999638e-04   1.4332203e-04   1.4389542e-04   1.2599109e-04
  -7.1821538e-05  -8.3207444e-05   1.0350757e-04  -8.8670553e-05   6.9470880e-05  -4.0596290e-04  -4.6082161e-05   1.8340339e-04  -2.8138861e-04  -3.9093767e-04  -2.6280578e-04  -3.5958379e-04   2.1054932e-06   3.2280985e-04  -3.7746521e-04  -8.8558860e-05   1.0442144e-04   9.7497599e-05   6.8964902e-05   1.0611967e-04  -2.0989678e-06   4.5422079e-05   1.0921842e-04  -1.7542254e-04  -1.4636264e-05  -6.1371364e-05   4.7251742e-04  -3.9296983e-06  -3.3373808e-04   3.1561132e-05  -7.1478967e-06  -3.2305229e-04  -4.8288399e-05   1.9166832e-04   3.1057349e-04   2.9135554e-05  -2.1241975e-04   2.3398614e-04   2.5842499e-04  -3.8683862e-05   1.8652492e-04  -7.2620896e-05  -9.7589407e-05  -7.8009805e-05  -1.5794163e-05   2.4014162e-05  -1.5837318e-04  -3.1952855e-05   9.6532400e-05   3.8083780e-04
  -7.4123935e-05  -5.6139630e-05   1.4802844e-04  -1.3291099e-04   7.3661959e-06   6.2588588e-05   1.2470852e-04   1.2265894e-04  -2.2357333e-04  -3.9898115e-04  -2.2401600e-04  -3.4313762e-04  -1.2867422e-04   1.1587258e-04  -2.2786620e-05  -1.2395877e-04  -4.1938591e-05  -5.2785537e-05  -2.7636750e-04  -5.9130911e-05   1.8616200e-05   5.1696894e-05  -2.9588238e-04  -2.7854063e-05  -4.9985718e-04  -2.0214650e-06  -9.9136450e-06  -1.9274100e-04   7.2379177e-04   1.3805472e-04   8.3106002e-05  -4.7663480e-04   4.8246489e-05  -7.8394456e-05  -8.6086602e-06  -1.7633216e-04  -1.5164347e-04   7.8145438e-04   1.3659189e-04  -1.3635789e-04   1.7867162e-04   2.0627653e-05   2.7871600e-04  -1.0785540e-04   5.8106630e-06   8.0382437e-05  -3.1983251e-05  -4.8438509e-05   1.2989739e-04   5.0211605e-04
  -5.8311187e-05  -2.9631186e-05   1.0570333e-04  -7.3247975e-05  -1.2328014e-04  -3.7449787e-04   2.1995732e-04   7.6685561e-04  -2.1635478e-04  -4.8162669e-04  -2.1039987e-04  -2.9897818e-04  -2.0164449e-04   5.4354354e-05  -6.0901846e-05  -3.3193854e-05  -5.1688814e-05  -1.7010144e-04  -3.5091332e-04  -5.9957725e-05  -1.3206015e-05  -3.1249904e-06  -9.1673021e-05  -8.0949561e-05  -1.4626904e-04   1.0073875e-04   6.2790801e-05  -6.3845713e-05  -2.0559564e-04   1.3255146e-04  -2.1161299e-05  -4.3246421e-04   2.3830794e-04   3.6379969e-04  -3.7416688e-04   2.2767221e-05   7.3974358e-04   9.6963253e-04  -1.5038770e-04   9.3823519e-06   2.5337562e-04   3.7301787e-05  -1.6663439e-04  -8.5452513e-05   2.4358580e-04   3.3105101e-04  -2.9640576e-05  -1.4711297e-04   1.3898178e-04   3.1999045e-04
  -1.2196493e-04  -6.5405919e-05   9.9042387e-05  -7.9533973e-05   2.6021482e-04  -2.6144800e-04  -2.1825213e-04   9.8791761e-06  -1.3543092e-04  -4.6736695e-04  -2.2654315e-04  -3.2483169e-04  -1.5690026e-04   1.1669809e-04  -1.3620971e-04  -2.0816056e-04  -8.9787674e-05  -1.7608301e-04  -8.6547596e-05  -1.2283196e-04  -4.1710696e-06   6.3926622e-05   7.7955323e-05  -2.0948498e-04  -3.1663140e-04   7.3277180e-05  -1.8013449e-04  -4.1882628e-05   5.8186945e-04   2.9102395e-05  -6.6677143e-04  -5.0531246e-04   3.9925315e-05  -1.4701199e-04  -2.0527969e-04  -1.4543609e-04   1.5487405e-04   5.2532127e-05   3.8548742e-04   3.0608344e-04   2.6189393e-04   1.6202888e-04   2.6269112e-04  -1.1578543e-04   1.2320161e-04   2.2242112e-04  -9.6391581e-05   2.1530720e-04   1.6285772e-04   3.2390951e-04
  -1.4160364e-04  -3.6741680e-05   1.1744996e-04  -1.3456117e-04  -1.2932890e-05  -1.4207675e-04   2.3078686e-04   1.4843667e-04  -6.0227150e-05  -4.2013763e-04  -1.8418086e-04  -2.8941489e-04  -2.0909149e-04   2.4975158e-04  -2.0383176e-04   6.4479151e-05  -1.3704450e-04  -1.7409273e-04  -1.8474780e-04  -1.2408130e-04  -7.8063472e-08   1.2686473e-04  -1.7139899e-04  -1.1369584e-04  -9.4446732e-06  -3.3196906e-05  -2.7535277e-04   9.9037707e-06  -2.0142303e-05  -6.5677363e-05  -3.5346852e-04  -4.5376612e-04  -2.8143797e-04   1.6533458e-04   1.0333172e-05  -8.0910322e-05  -2.1186213e-04  -2.9829607e-04  -7.1228460e-05  -2.1438321e-04   2.8920567e-04  -1.0193757e-05   2.1829017e-04   4.4842051e-05   1.2990979e-04   2.2816141e-05  -6.6576904e-05   4.1516738e-05   7.0363632e-05   4.3841792e-04
   4.7241894e-05  -3.2402633e-05   1.1072700e-04  -7.7460514e-05  -5.0505729e-05  -6.4183347e-04   4.7881262e-05   6.4863340e-04  -3.3643516e-04  -4.8321209e-04  -1.7676722e-04  -2.4702476e-04  -2.1027739e-04   2.3276841e-04  -3.2512815e-04  -1.8229401e-04  -1.3856658e-04  -1.8643140e-04  -1.8218887e-04  -1.8311127e-04   5.3930380e-06   2.2619276e-04  -2.7238581e-04  -1.1466355e-04   1.1213444e-04   2.5763125e-05   7.6866687e-05  -9.6729884e-05  -4.7517353e-04  -1.2497167e-04  -1.2554646e-04  -4.7231131e-04  -2.7405200e-04  -2.7430635e-05   4.5712361e-05  -1.1635996e-04   4.1109076e-04   2.7238188e-04   2.3318436e-04  -4.1381546e-04   1.6587035e-04  -8.9180361e-07   4.2769920e-05  -9.6115167e-05  -5.6638364e-05   4.1406232e-04   8.5863812e-06  -2.2406522e-04   2.1833146e-04   2.3467107e-04
  -1.1386819e-04  -2.8867009e-05   1.1109816e-04  -9.8274206e-05   1.2509982e-04  -2.8353688e-04   1.9381456e-04   6.7665667e-04  -5.3761574e-04  -4.6732870e-04  -1.6521677e-04  -2.5075726e-04  -2.2445670e-04   2.3636986e-04  -4.7079815e-05   2.3520545e-06  -1.4217167e-04  -9.4751194e-05  -1.7627740e-04  -1.7880599e-04  -3.2818455e-06  -1.0499095e-06  -1.2677083e-04  -1.8925341e-04  -3.1679557e-04   5.9332211e-05  -1.6603874e-04  -8.0118727e-05  -2.1381296e-04  -5.3224165e-05  -5.1133381e-04  -4.6958317e-04  -1.0189931e-04   5.5027984e-05  -4.0494589e-04  -3.7189256e-04  -2.2361353e-04   6.6635251e-04   1.4947685e-04  -1.3637751e-04   2.9669996e-04   7.5227304e-05   2.2124572e-04   5.3286189e-05  -3.1853851e-05   1.4940200e-04  -6.0143215e-05   7.8782796e-06   7.4525102e-05   2.3896230e-04
  -4.3563250e-06  -4.0267565e-05   9.3591436e-05  -5.7431163e-05   1.1281954e-04  -1.3252482e-04   1.9114015e-05   1.8516371e-04  -2.4141189e-04  -4.0336431e-04  -1.7136510e-04  -2.8002239e-04  -7.9713362e-05   2.3877884e-04   1.1659494e-04  -1.0305901e-04  -5.0268754e-05  -2.2933567e-05  -1.1182316e-04  -5.1076186e-05   9.0368012e-06   1.3198759e-05  -1.4664757e-04  -1.1797959e-04  -6.6603869e-05   8.8894310e-05  -7.2081944e-05   1.8650603e-04   2.6523610e-04   2.9251814e-05  -2.6066107e-04  -4.0044665e-04   1.1002470e-04  -4.4947007e-04  -5.9309173e-06  -1.1554724e-05   1.6916358e-05  -3.0295135e-04  -2.3837373e-04   1.4464632e-05   2.9922766e-04   2.1978341e-04   3.5701410e-04  -2.0896121e-05  -5.5771212e-05   1.1315144e-04   7.4264943e-05   1.4357991e-04   7.8097597e-05   1.2991056e-04
   2.2145843e-05  -3.7753645e-05   6.0694139e-05  -7.6907389e-05   2.2978193e-05  -1.4990101e-04  -2.4086712e-05  -7.4000400e-04  -2.7782412e-04  -4.2748486e-04  -1.6813219e-04  -2.2958743e-04  -1.5722348e-04   2.1837508e-04  -2.5421672e-04   6.9830814e-05  -7.7112752e-05   1.1299834e-06  -1.6413516e-04  -8.9269030e-05   1.5481035e-05  -7.0610055e-05  -2.7455779e-04  -5.1474090e-05  -1.3830329e-04   9.2202514e-05   3.4727785e-04   8.5611253e-05   6.0048990e-04   2.8708659e-04  -4.5646466e-05  -4.1703024e-04   2.2237629e-04  -3.1323053e-04   9.1568007e-05  -2.7460390e-04   8.2490638e-05  -4.1385865e-04   5.9018199e-05  -1.9315086e-04   1.7722003e-04   6.1951258e-05  -2.0074612e-04  -8.4671636e-05  -4.8351074e-05   2.4668226e-04   1.8121807e-05   1.5903541e-04   1.2306737e-04  -1.4282668e-04
  -1.9340303e-04  -3.8008962e-05   1.1796039e-04  -4.6332549e-05  -3.0882544e-05   1.0651958e-04   1.7374828e-04   4.9815921e-05  -2.1467476e-04  -4.1844012e-04  -1.9038600e-04  -2.3194656e-04  -1.6575033e-04   1.5059052e-04  -1.7502531e-04  -1.3294645e-06  -9.9338795e-06   1.8772298e-05  -2.8694884e-04  -9.4162206e-05  -2.6486425e-06   8.6821448e-05   9.0082634e-05  -2.1355129e-04   2.8406503e-04   1.4173627e-04   6.3133537e-04  -3.5800738e-05   6.4451597e-04   1.8647977e-05  -4.6433153e-04  -3.1815917e-04   1.2641654e-05  -2.7129916e-04   5.4423173e-05  -1.9327052e-04   3.3385737e-04  -1.0877890e-05  -6.7530353e-05  -2.2231454e-04   1.1231461e-05  -1.8615836e-05  -6.0144448e-05  -1.8467354e-05  -6.8394940e-05   2.0561869e-04  -3.2042848e-05   1.2514543e-05   9.2067086e-05   3.3583381e-04
  -1.4518655e-05  -8.0645885e-05   3.0786472e-05  -9.7123419e-05  -4.9548067e-05   2.4972023e-05   2.5094033e-04   2.3587818e-04  -7.3702045e-05  -4.2886398e-04  -1.7395439e-04  -2.7752091e-04  -5.6714915e-05   1.4104044e-04   7.9712328e-05  -2.8858120e-05  -2.4971983e-05  -2.6248003e-05  -3.1540770e-04  -7.4529962e-05  -5.5805217e-06   7.5390322e-05   9.3035953e-05  -5.0676132e-05  -9.1303766e-05   2.7214095e-05  -3.3710858e-05   1.7480859e-06  -2.6244944e-04   1.1423342e-04  -3.8195381e-04  -3.2873434e-04  -8.1184349e-05  -1.5575089e-04  -2.7798594e-04  -2.4747238e-05  -1.7414766e-04  -1.2790642e-04  -2.8616993e-04  -9.6505893e-05   9.9198907e-05   1.3178398e-04  -5.3665764e-05  -4.0445557e-06   6.3993226e-05  -1.5703232e-04   2.3647239e-05  -1.0163929e-04   1.6112515e-04   2.6994298e-04
  -6.5282373e-05  -8.1604150e-05   6.7347049e-05  -9.4752635e-05   2.5155730e-05  -5.7996006e-04  -5.0810890e-05   2.1335768e-04  -1.8626446e-04  -4.1566286e-04  -1.6004957e-04  -2.7976013e-04  -1.7581928e-04   1.7863800e-04  -9.8405078e-05  -9.0963862e-05  -1.1334105e-04  -1.3727056e-04  -1.6932609e-04  -2.3719019e-04  -1.2656232e-05  -1.9750807e-05  -9.2130853e-05  -5.9143025e-05  -1.5659224e-04   7.4846910e-05  -8.6350847e-05  -5.8605576e-05  -4.1264549e-04   4.4067035e-04  -1.8361662e-04  -4.6564062e-04   1.6446479e-04  -1.3595140e-05  -3.6914708e-04   5.7928664e-05  -1.8199257e-04  -3.3704846e-04  -6.1664759e-05  -3.0214683e-04   9.0900467e-05   2.1108241e-04   1.0567932e-05  -1.7796023e-04  -5.6047862e-05   4.1029466e-04   1.4095497e-04   1.7058512e-04   1.4574936e-04   3.7513510e-04
  -5.4676733e-05  -4.9186609e-05   8.9862799e-05  -7.9582926e-05  -1.2006292e-05   1.3614738e-04  -1.5468009e-04  -6.0466141e-04  -1.2943742e-04  -4.5271087e-04  -1.5482673e-04  -2.9984352e-04  -1.5106906e-04  -3.4150571e-06  -1.3357594e-04  -1.5917589e-04  -1.2454385e-04  -1.8656500e-04   3.6834384e-04  -2.5600527e-04   1.0742940e-05   7.7786441e-05  -1.1129888e-04  -5.5873323e-05   3.9437020e-07   5.7256264e-05  -3.8320053e-04   2.6761154e-05  -1.4948002e-03  -1.7558214e-04   3.1124533e-04  -3.7549759e-04  -2.4802330e-05  -8.2605125e-05  -3.0455727e-04   5.6192530e-06  -1.4531420e-04  -2.3254329e-04  -4.3201118e-04  -2.8911253e-04   1.5396974e-04   1.9524364e-04  -1.6942793e-04  -1.4146983e-05   1.0224022e-04   2.1172749e-04   1.5471586e-04   1.9048297e-04   7.6700257e-05  -4.1342799e-05
   1.7793429e-05  -6.9501250e-05   8.5862426e-05  -7.3153220e-05   9.0477391e-05  -2.6848844e-05   7.4020143e-05   2.2819039e-04  -1.9319267e-04  -4.2990840e-04  -1.2557737e-04  -3.0893745e-04  -1.8747860e-04   1.2476067e-04  -2.9604504e-04   5.2488751e-05  -1.3520724e-04  -1.5906368e-04  -3.3127036e-04  -2.6761822e-04   1.3547781e-05   9.1374226e-05   2.7470457e-04  -7.8528072e-05  -1.3023237e-05   7.3954332e-05   1.7848349e-04   1.4586464e-05   9.5108553e-04   4.3173021e-04  -1.0790975e-04  -3.5928583e-04  -5.6750818e-05   1.8538347e-04   4.5411897e-04  -7.4102281e-05   1.1039669e-04  -1.0539933e-04   2.1859795e-04  -2.8971251e-04   2.4371990e-04   3.4536570e-04   2.7059604e-04  -1.0351548e-04   8.1427686e-05   1.2739289e-04   1.0819519e-04   2.9084383e-04   6.7489389e-05   4.7403728e-04
   7.7795055e-05  -5.4781864e-05   8.2335551e-05  -8.1315789e-05  -1.6183834e-04   1.2649586e-04   3.6039783e-05   6.6884153e-05  -1.8306849e-04  -4.0669038e-04  -1.2926837e-04  -3.0891848e-04  -1.0278268e-04   2.0342268e-04  -7.9338482e-05   3.2660919e-05  -2.9876432e-05  -2.8330825e-07   2.4116422e-04  -7.0192596e-05  -5.4200009e-06   9.4160596e-06   9.1847491e-05  -1.7894348e-04  -9.9542485e-05   1.4049618e-04  -1.0405650e-04   2.2487238e-05   1.1288911e-03  -6.9677109e-05   1.1985028e-04  -2.5824673e-04  -2.5222840e-05   2.8748933e-04   3.8848072e-04  -5.3268945e-05  -1.4949868e-04   1.3424165e-04   3.8662387e-04  -6.6256558e-05   1.1944799e-04   3.2123300e-04   1.2881355e-04  -3.8259110e-05   2.1135235e-04   1.5657145e-04   1.3981483e-04   3.0935620e-04   1.4810797e-05   2.3064821e-04
   1.3684697e-04  -3.1325699e-06   4.1619820e-05  -7.3187839e-05   6.9610142e-05  -3.7223438e-04  -5.9329202e-05  -2.2501939e-04  -1.8319588e-04  -4.6570814e-04  -1.5939800e-04  -3.2162940e-04  -1.4254653e-04  -1.8945721e-05  -3.2434074e-04   6.4150903e-05  -7.1227318e-05   9.4989227e-06  -3.0833943e-04  -1.4601280e-04  -2.6290467e-05   1.0582667e-05   1.6699331e-04  -2.5623391e-05   6.9347261e-05   7.5332529e-05   1.9276352e-04  -8.4315754e-05   5.3201610e-04   2.4286115e-04   1.3773469e-04  -2.9964678e-04   6.1379382e-05  -6.5857981e-04  -3.1625121e-04  -1.7109167e-04  -3.9661032e-04  -5.7759264e-04   2.3585949e-04  -2.3543861e-04   2.4056995e-04   2.1748588e-04   1.0083102e-04  -4.0899587e-04   2.2152747e-04   3.5994370e-05   1.7459304e-05  -1.9364576e-04   4.5379435e-05   3.5649215e-04
   7.6324832e-06  -1.0434112e-04   9.0759771e-05  -1.3330896e-04  -1.0042547e-04  -5.2383699e-04   9.3966242e-05   3.6170232e-04  -2.3447175e-04  -4.6169353e-04  -1.3098904e-04  -3.3315565e-04  -1.3940230e-04   3.2975673e-05  -4.4645218e-04  -1.6839590e-04  -5.7711753e-05  -1.1335660e-04  -1.8949957e-04  -1.3533130e-04  -1.7776396e-05   6.3457403e-05   1.5668714e-04  -1.3867923e-04  -5.2245312e-05   1.3673953e-04  -4.3628716e-05   2.8821029e-04   8.4504267e-05   1.2712640e-04   1.7724963e-04  -2.3122509e-04   2.6087291e-04  -9.6065764e-05  -3.3682963e-04  -8.4960207e-05  -3.7891563e-04  -3.7772299e-04   1.3682555e-04  -1.3507500e-04   7.1217131e-05   9.8911238e-05  -1.6956530e-05  -1.7587090e-04   5.7163918e-05  -3.0743371e-04   4.4219792e-05   6.4709925e-06   1.2859491e-04   5.3187000e-04
  -5.6120811e-05  -4.1175495e-05   6.6709836e-05  -1.1552968e-04   1.0987151e-04  -5.0903519e-04   1.6833597e-04   4.5585143e-04   8.7340683e-05  -3.9514957e-04  -1.5937167e-04  -3.1081928e-04  -6.3016647e-05   7.1067538e-05  -5.5115426e-05  -1.2078477e-04  -7.0652222e-06   5.9593644e-06  -1.4545905e-05  -1.2451039e-04  -2.5272104e-05   4.4213160e-05  -1.5645116e-04  -2.2124670e-05  -2.1893480e-04   9.0802670e-05   5.6078885e-04  -1.1227070e-04  -3.9986180e-04   1.5404589e-04  -1.8076673e-04  -1.8358140e-04   5.6079483e-05  -1.9477567e-04  -1.6367991e-04  -1.9895034e-04   1.1239243e-04   3.3551452e-04  -1.0827078e-04  -1.7727619e-04   8.0603168e-05   2.3162516e-04   8.4899140e-05  -2.0070565e-05  -3.2716231e-05   5.7162024e-04   8.2318445e-05   1.6764464e-04   3.5012759e-05   8.5316642e-05
   7.0061527e-05  -1.1631714e-04   8.7932058e-05  -6.0859013e-05  -1.8824654e-05  -1.7861456e-04  -2.9169922e-04   4.1973070e-04  -4.6287442e-04  -4.6932820e-04  -1.4505679e-04  -3.5424103e-04  -1.5814364e-04  -6.3804559e-06  -2.1838283e-04  -2.5677821e-04  -1.1573188e-04  -7.9075588e-05  -9.0957285e-05  -2.2992866e-04  -2.2162938e-05   1.3582414e-04   2.0056037e-05  -7.8347664e-05  -1.0067243e-04   1.3465394e-04   3.9713838e-04   5.0009403e-05  -2.2941340e-04   6.9317080e-05  -4.6070231e-04  -3.0861501e-04   3.9723560e-05  -3.8493803e-04   2.5687303e-05  -1.1574203e-04  -2.7568437e-06   5.7712477e-04  -7.0382477e-05  -3.9185429e-04   1.5704212e-05   1.2722703e-04  -1.4759928e-05  -1.0875760e-05   7.4401185e-05   1.8897204e-04   1.6817826e-04  -1.4428775e-05   9.7041142e-05   1.1510902e-05
  -3.2754615e-05  -6.0991184e-05   2.5474765e-05  -1.2685872e-04   1.0510796e-04  -1.7714067e-04   2.6940773e-04   1.8104271e-04  -2.6330480e-04  -4.6264628e-04  -1.6066401e-04  -3.2804816e-04  -1.2219758e-04   1.7900171e-04  -1.2732435e-04  -6.1256759e-07  -1.1086109e-04  -1.1235546e-04  -6.4914682e-05  -2.1993814e-04  -2.8131768e-05  -8.7266722e-05   2.1338959e-05  -7.8781100e-05  -9.8561548e-05   5.6273366e-05  -2.3247549e-04   7.9422200e-05   5.3561124e-04  -6.2100968e-05  -1.3797317e-04  -3.5102438e-04   3.8523340e-04  -4.0592958e-04  -1.7649162e-04  -1.3734843e-04  -2.4680921e-04  -1.2633388e-04   5.8875571e-06   1.8237974e-05   2.2472675e-04   2.4952961e-04   3.1325506e-04   3.0046704e-05  -2.0064915e-06  -1.3236827e-04   1.2410726e-04   1.7090089e-04   7.3243493e-05   1.3219115e-05
  -3.9241299e-05  -6.2724961e-05   7.4601259e-05  -1.1358882e-04   2.4922175e-04  -3.3398453e-04  -1.2653742e-04   3.5823727e-04  -3.1558331e-04  -4.0816193e-04  -1.2461339e-04  -3.2502494e-04  -1.4437940e-04   1.8147717e-04  -1.8687789e-04  -9.2405346e-05  -9.9737379e-05  -7.4748627e-05  -3.2226695e-04  -2.1865856e-04  -2.7469527e-05   6.4946027e-05   7.5323835e-05  -1.2943798e-04  -1.2051049e-04   8.5298589e-06   4.7627467e-04  -2.1965819e-04   2.7484808e-04   1.6596339e-06   3.7848292e-04  -2.5446553e-04  -3.8009748e-05  -1.0620472e-04  -1.4247878e-04  -1.2236802e-04  -6.2145485e-04  -4.9718528e-04   9.9238845e-05  -5.4399134e-04   2.2104764e-04   1.7981791e-04   8.3595514e-05  -4.1750496e-05   5.0608705e-05   1.5781717e-04   9.2066133e-05   2.5539685e-04   1.0391240e-04   2.4025700e-04
  -3.7088623e-05  -8.0766476e-05   4.3485605e-05  -1.0242901e-04   2.7720981e-07   4.0437306e-05  -1.1782662e-04   3.0782391e-04  -1.9996757e-04  -4.1258911e-04  -1.1523600e-04  -3.1998669e-04  -8.5569714e-05   1.4625766e-04   2.2483685e-04   8.8613866e-05  -4.6979549e-05  -3.3334785e-05  -2.0441465e-04  -1.5587710e-04  -1.9757521e-05   3.8578852e-05   7.6602344e-05  -1.7872606e-04  -2.4587961e-04   1.4734891e-04   2.1882434e-04   3.5116562e-05   1.2729939e-03   8.8877030e-05   3.6405950e-04  -2.6010815e-04   4.6545794e-04   2.4627239e-04  -1.8022778e-04  -2.3369162e-04  -2.0804722e-04  -9.2489959e-04  -2.3144980e-04   4.2035786e-06   1.8972049e-04   1.6962242e-04   3.2155999e-04   6.6958819e-05   3.8305196e-05   1.8776261e-04   3.3297441e-05   2.1515765e-04   7.3884701e-05   1.7772654e-04
   3.6698711e-05  -1.1826909e-04   7.1594768e-05  -1.3200444e-04   1.0068791e-04  -7.1781091e-05  -9.2142640e-05   6.0866337e-06  -2.2788547e-04  -4.1891067e-04  -1.4427261e-04  -3.1543669e-04  -9.2610127e-05   2.9754947e-04  -1.2298526e-04   2.3315546e-05  -9.1847331e-05  -3.8667262e-05  -2.7924718e-04  -1.5759413e-04  -3.4156928e-05   6.1446044e-05  -1.3374684e-04   1.5541889e-05  -1.6361818e-04   2.1313759e-04   2.4190718e-04  -1.0909123e-04   1.0545845e-03  -2.5032015e-04  -4.8264462e-04  -2.9143551e-04   1.3062351e-04  -4.8077057e-04   4.8466204e-04   1.1661385e-04   1.0342964e-04  -3.5120724e-04   7.4241171e-04  -1.7153256e-04   1.4599953e-05   7.9121186e-05  -6.5329783e-05   2.4899543e-04   2.2287943e-05   6.4884443e-05  -8.2339429e-05   9.6840762e-05   7.2185394e-05   1.9927029e-04
  -4.1808664e-05  -1.2491457e-04   2.9249128e-05  -1.3824110e-04  -1.0116430e-04   1.5330752e-05  -3.1170093e-05  -3.2431391e-04  -7.2087758e-05  -4.0998505e-04  -1.4802159e-04  -3.4403210e-04  -3.6005767e-05   9.5055380e-05  -2.1960032e-05   4.4706405e-05  -4.8754642e-05   1.5339810e-05  -1.1123011e-04  -1.3918857e-04  -5.2443880e-05  -2.5762540e-05  -1.8577978e-04  -4.5580407e-05  -1.6507800e-04  -1.4959704e-05  -2.5686863e-04   1.9258423e-05  -6.7354349e-04  -5.6884626e-05  -3.5664877e-06  -2.4113010e-04  -2.2576601e-04  -3.5238595e-04   1.2411491e-04  -8.4625404e-05  -1.1686400e-04  -3.4278620e-04   4.2204466e-04  -1.8080004e-04   1.4947864e-04   1.0675329e-04   2.6921451e-04   6.2203790e-06  -4.4913886e-05  -1.9571658e-04   1.4298104e-06   2.3162790e-04   4.8930327e-05   3.4768615e-04
  -8.6999273e-05  -9.7085860e-05   5.1637773e-05  -1.2925049e-04   1.5491708e-04   2.8354612e-05   1.9172774e-06  -2.2890329e-04  -2.9332729e-04  -3.6606920e-04  -1.5660054e-04  -3.7990307e-04   1.1202785e-05   1.8880051e-04   2.7778905e-04  -2.1169619e-05  -4.1366031e-05  -7.4520917e-06  -5.3538906e-04  -8.8961024e-05  -2.0999174e-05   1.0062884e-04   1.0579043e-04  -1.1483705e-05   1.3858499e-04   1.2685718e-04  -1.1270308e-04  -8.8291759e-05   1.4407182e-04   2.2350828e-04  -2.5816431e-04  -2.5960850e-04  -3.6302255e-04   2.9673742e-04  -5.1210378e-04  -1.5480100e-04  -4.8816318e-04   2.1868598e-04   9.9651312e-05  -1.3944655e-04   1.4132803e-04   1.0662981e-04   4.4996261e-05  -2.6060990e-04  -9.2519615e-05   4.1557872e-05   8.5116139e-05  -1.1329786e-04   1.4631530e-05   2.8821791e-04
   5.6782101e-05  -9.6122931e-05   3.8974853e-05  -6.1926832e-05  -1.1751565e-04   9.9904420e-05  -1.6007478e-05   3.6106500e-04   1.5864405e-04  -4.0817921e-04  -1.7495290e-04  -3.2866688e-04  -4.9100669e-05   1.1633967e-04   3.4032876e-04  -4.9236201e-05  -1.0484883e-04  -2.6128487e-06   8.7169698e-05  -1.6508139e-04  -3.0643791e-05  -8.5706328e-05   1.5171287e-05  -3.6899346e-05  -2.4106080e-04   9.8228425e-05   6.1513987e-05  -3.2022613e-04   1.1076348e-04  -2.2971432e-04   1.0922918e-04  -2.8030548e-04  -1.2151141e-05  -5.6171446e-04  -2.0720538e-05  -9.5637544e-05  -1.9231262e-05  -4.6317052e-04  -7.3954208e-05  -1.8593497e-05   1.1467074e-04  -3.8128725e-05  -9.0265108e-05   3.5036152e-05   4.6282996e-05   2.3293990e-04  -5.2517160e-05   5.6914625e-05   1.2090243e-04   7.3869152e-05
   5.8150821e-05  -6.8980691e-05   6.5778826e-05  -1.3953994e-04   7.5893528e-05  -2.8849300e-04  -3.2181426e-05   1.2441572e-03  -1.5093856e-04  -4.2582001e-04  -1.3990574e-04  -3.8059792e-04  -8.0892329e-05   2.2872206e-04  -1.1462712e-06  -3.6174355e-05  -1.1518839e-04  -5.9772621e-05  -1.3393363e-04  -1.9004787e-04  -7.1822624e-06   2.4134974e-05   3.5394731e-04  -1.2429703e-04   2.7852895e-05   1.2251188e-04   8.7669134e-05   1.4041603e-05   1.2053935e-04   1.1258492e-04   3.1676012e-05  -2.9916820e-04   5.2591826e-05  -3.4166811e-04   2.3425541e-04  -2.0563947e-04  -4.3666057e-04   1.6858566e-04  -6.9558440e-04  -2.4920006e-04   1.4756105e-04   1.0745248e-04   2.6860685e-04  -4.8347960e-05   4.2916370e-05   8.9505476e-05   7.9391866e-06  -5.4638094e-06   1.2080776e-04   2.0366441e-04
   8.9479045e-06  -1.4982102e-04   2.4472569e-05  -1.3971975e-04   2.0618372e-05  -3.5529622e-05   1.9363908e-04   1.0237257e-04  -4.0192343e-05  -4.1298740e-04  -1.1190723e-04  -4.0567317e-04  -3.1202148e-05   1.3521520e-04  -2.6058775e-04  -2.8841001e-05  -3.3698594e-05   5.9655078e-05  -1.4925441e-04  -1.2306582e-04  -2.4198655e-05   8.3664127e-05   7.8980338e-05  -4.4550849e-05   8.5444968e-05   3.7814130e-05   1.1395047e-04   6.4192653e-05  -5.8268895e-04  -1.3326036e-04  -2.2318833e-04  -2.9492154e-04   1.4873633e-04   1.9460093e-04  -5.4560445e-04  -1.6748081e-05  -1.9936511e-04  -2.3195942e-05   2.2109979e-04  -4.0971953e-04   1.4718142e-04   1.0293022e-04   4.1506613e-05   5.5851783e-06   6.9983762e-05   4.5558860e-04  -5.2103860e-06   6.3606232e-05   1.1184984e-04   3.2515530e-04
   5.2486134e-06  -8.1373561e-05   2.4517676e-05  -6.9666392e-05  -8.7168853e-05  -1.6682599e-05   1.2786289e-04  -3.1992671e-04   2.8156632e-05  -4.4216192e-04  -1.2121084e-04  -3.9547458e-04  -1.0501209e-04   1.0383507e-04   1.1545856e-04  -1.0668438e-04  -4.9709255e-05  -9.9452205e-05  -2.4618141e-04  -1.7321877e-04  -4.8423961e-05  -3.4755044e-06   1.8314799e-05  -1.2561065e-04  -3.3207433e-04   1.1757614e-04   2.4817376e-05   1.1140061e-05   2.2390934e-05   3.4613558e-04   3.0769696e-04  -2.9090085e-04  -2.2578501e-04  -3.1559312e-04  -1.2156445e-04   1.6751088e-04  -3.9549827e-04   1.3404140e-04  -2.0768102e-04  -4.4736237e-04   2.6212988e-04  -1.0147807e-05   1.0289380e-05  -7.3326089e-05  -1.5981992e-04   2.4001856e-04   7.8324345e-05  -2.8459585e-04   6.5735658e-05   4.6159062e-04
  -2.6374328e-05  -1.2762388e-04  -2.9189607e-05  -1.3800156e-04  -6.5192173e-05   2.1588708e-04  -1.1318169e-05   3.4066319e-04   1.9733865e-05  -4.3181420e-04  -1.3077736e-04  -3.7896467e-04  -8.8293884e-05   8.0759673e-05  -4.2231445e-04  -3.9908780e-05  -1.0095519e-04   1.9854908e-06  -1.6522843e-04  -1.8075212e-04  -3.5140238e-05   1.0143460e-04   1.5569477e-04  -2.6872891e-04  -8.3939369e-05   4.1306357e-05   2.6729076e-05  -2.4181514e-04   7.6241454e-04  -6.0337311e-06  -4.2099753e-04  -3.2972783e-04  -1.9502909e-04  -3.2495533e-04   3.9138804e-06   1.4768729e-04   2.5428820e-04  -1.0944183e-04  -2.3630516e-04  -1.4542657e-04   3.0298840e-04  -8.1023973e-06  -5.1786785e-05   9.1489135e-05   2.8652539e-06   7.3139468e-05   3.1835814e-05   1.5733502e-04   5.5191977e-05   1.9486094e-04
  -1.5394480e-05  -7.8518024e-05   4.6609289e-06  -9.5720156e-05   3.0940500e-05   3.3253126e-04  -1.2383363e-06   1.5953043e-04  -1.5122295e-04  -4.1151632e-04  -1.1289590e-04  -3.9091302e-04   1.2060437e-05   2.2465896e-04   1.7645264e-06  -1.0990685e-04  -1.3075463e-04  -7.6817123e-05  -2.3307110e-04  -1.9643629e-04  -3.3133401e-05   2.5203801e-05   2.2756027e-05  -1.9166166e-04  -4.7464375e-04   1.5278465e-04  -1.2900078e-04   7.2642179e-05  -8.0416742e-04  -1.2278975e-05  -2.4155075e-04  -2.6370198e-04  -6.8089612e-05  -1.5135811e-04  -1.5521739e-04  -5.4440770e-06  -3.8659605e-04   5.7369912e-06  -1.6091365e-04  -8.0028585e-05   1.3311721e-04   1.1243566e-04  -3.0970016e-06  -1.0072903e-04  -7.9750476e-05   1.1050583e-05   7.4698815e-05   1.9658039e-05   5.6561952e-05   2.4840582e-04
   1.1391730e-04  -1.1990275e-04   4.9514301e-06  -1.1422142e-04  -9.0599897e-06  -1.3608848e-04   1.3867866e-04   6.0932385e-04  -1.9433518e-04  -4.3489330e-04  -9.9633435e-05  -3.5301075e-04  -1.8796638e-05  -5.2583448e-05  -6.6809647e-05  -2.4888452e-04  -1.1697643e-04  -8.6937813e-05  -3.8309139e-04  -2.2784964e-04  -4.8634593e-05   6.8015470e-05  -1.7905996e-04  -8.9030895e-05  -1.2127463e-04   1.1105282e-04  -9.8134187e-05   2.6073469e-06  -9.4928994e-04   5.1845502e-05   2.9436593e-05  -2.9699079e-04   4.0150982e-05  -4.8728089e-04  -6.2265625e-04  -8.4988111e-05   7.0679956e-04  -7.1206311e-04   5.6094117e-04  -1.6387376e-04  -1.1916917e-06   4.7790531e-05   3.1430009e-04  -7.2566574e-05  -1.3495232e-04   3.6269234e-04   5.8641843e-05   2.2805233e-04   2.1474387e-05   2.8510959e-04
   7.1914132e-05  -9.3744806e-05   7.6539276e-05  -1.1354641e-04  -1.4581321e-06   1.0424020e-05   1.5734834e-06  -4.9932790e-04  -1.5551959e-04  -4.3938172e-04  -1.1282365e-04  -3.2634084e-04  -8.7501772e-05  -1.3410528e-05  -1.5314872e-04  -9.0833695e-05  -1.1869229e-04  -7.2295028e-05  -1.9759210e-04  -2.3613816e-04  -5.0993127e-05  -1.7554466e-04  -9.8617762e-05  -4.9133170e-05  -2.9475961e-04   4.3136351e-05   2.9506639e-04  -9.3242670e-05  -7.8495592e-05  -2.1424952e-04   1.0654710e-04  -3.2231220e-04   4.7291815e-05  -5.8818488e-05  -2.0007943e-04  -1.0601969e-04   2.1982810e-04   8.0147314e-05   2.0490739e-05  -6.5903936e-04   1.0801927e-04  -2.3699333e-05  -7.6659335e-06  -2.1837601e-04  -1.4675861e-05   3.1947295e-04   6.9809641e-05  -2.5824239e-04   5.8824055e-05   8.4029169e-05
   1.3274680e-05  -1.1561061e-04  -1.7482873e-05  -1.1462919e-04  -2.4747245e-05   8.9272522e-05  -6.3813517e-05  -2.3361446e-05  -3.5027345e-04  -4.0558472e-04  -8.0538368e-05  -2.7609430e-04  -9.9400968e-05  -4.1272029e-05   1.6454063e-05   4.6091711e-05  -1.3868617e-04  -1.0776069e-04  -2.2106619e-04  -2.2671008e-04  -6.6742279e-05   9.4507222e-06  -2.0086758e-05  -1.4254420e-04  -2.8842030e-04   4.7055382e-05  -6.4525368e-05  -7.5053408e-06  -7.4089396e-05  -6.6415269e-05   1.3147079e-04  -2.8768636e-04   1.8729060e-04   1.2378886e-04   3.6577283e-05   3.4140362e-06  -6.8513073e-05  -3.7092753e-04  -4.5716268e-05  -2.5320664e-04   1.8111044e-04   2.2533955e-04   1.0238933e-04  -2.3598250e-04  -1.9857025e-04   4.3476146e-04  -7.3258507e-06   1.4510943e-04   4.8904010e-05   4.5851141e-04
   2.0553158e-05  -1.2091538e-04   3.4130335e-05  -3.7763497e-05  -1.1395524e-04   2.3009366e-04  -1.5879993e-04  -5.8860402e-04  -2.6303991e-05  -4.5168269e-04  -8.7886707e-05  -2.9297176e-04  -5.3764947e-05   6.4878106e-05   1.6213326e-04   4.1561157e-06  -4.5658868e-05  -9.6213334e-05  -3.3065290e-04  -1.5249937e-04  -6.2768820e-05  -2.6980391e-05  -1.0380250e-05  -1.5460633e-04  -9.8714381e-06   1.0595320e-04  -2.6379619e-04  -1.0267434e-04  -1.4059882e-05   2.5841765e-04   1.8922902e-04  -1.5107004e-04  -6.7595574e-05   1.3893217e-04  -8.3788887e-05  -4.0738616e-04  -7.2674337e-04   3.6681985e-04  -5.0803606e-04  -6.5154361e-04   1.6515014e-04   2.0353809e-05   1.7559445e-04  -8.3171515e-05  -1.5174104e-05  -9.8397737e-05  -5.0847040e-05  -9.2769405e-05   9.0840877e-05  -3.8546161e-05
  -6.0061706e-05  -1.0528001e-04  -4.2600037e-05  -6.8205729e-05   4.8336267e-05   1.1663143e-04   8.6023669e-05   1.1348322e-04  -2.4404994e-04  -4.3279637e-04  -1.1207844e-04  -3.5541516e-04  -8.6026688e-05   1.8410389e-04  -9.1328759e-05   8.7907792e-05  -1.0442140e-04   3.5789646e-05   1.0719272e-04  -1.6618156e-04  -7.9052043e-05  -1.3900234e-05   8.6989472e-05  -1.7977101e-04  -1.4006127e-04   1.1440887e-04  -1.2917725e-04  -2.7506368e-04  -6.2663137e-04  -3.2347805e-04  -3.4507905e-04  -1.6934561e-04   1.2058802e-04   1.0412469e-04   2.4325242e-05  -2.8918612e-05  -6.4187357e-04  -3.9881264e-04  -1.3674863e-04   3.0941609e-04   1.2611899e-04   7.2535979e-05   1.0744421e-04   1.8612287e-05  -2.2689801e-05  -9.1363800e-05   1.3782279e-04   1.6410220e-04  -1.9928075e-05   1.3314335e-05
  -9.7086318e-05  -8.4021602e-05   2.7447102e-05  -1.2647276e-04  -3.1687076e-05   7.4934804e-05  -7.4821051e-05  -2.4431155e-04  -1.5398017e-04  -4.0120809e-04  -8.7441840e-05  -3.2512558e-04   2.0249774e-05   5.6384451e-05  -1.0893021e-04  -2.2996788e-05  -1.0269761e-04   9.3865623e-07  -1.1815700e-04  -1.5248834e-04  -6.7827539e-05  -8.9685404e-05  -1.5962732e-04  -1.0681598e-04  -4.6442097e-04   1.1220827e-04   5.1687864e-05   1.0957565e-04   1.0589261e-03  -2.5953687e-04   2.7131205e-04  -1.8851075e-04  -2.8147761e-04   1.2944917e-04  -1.1944077e-04  -2.6008203e-05  -1.8026994e-04   7.1809947e-05   3.8767338e-04  -2.6531276e-04  -3.7498154e-05   1.1036210e-04   2.6517353e-04  -1.3093351e-04   5.8272839e-05   1.8674934e-04  -2.9436434e-05  -1.9420903e-04  -4.2454762e-05  -1.4354161e-05
  -2.0002186e-05  -6.1797240e-05  -1.8118839e-05  -8.3835228e-05  -9.2697126e-05  -5.9332982e-05  -9.7194461e-05   7.3955097e-04  -3.2653072e-04  -4.3236843e-04  -7.4247160e-05  -3.4043010e-04  -2.2670209e-05   8.0712452e-05   1.3229670e-04  -3.7363370e-05  -1.1109409e-04  -2.9773582e-05  -4.4700841e-04  -1.9740536e-04  -8.1199592e-05  -1.5037718e-04  -3.9161023e-04  -9.5718984e-05  -1.8009887e-04  -1.2075287e-05  -1.0498093e-04  -1.4473342e-04  -6.6733037e-06  -2.2725526e-05   3.3643850e-04  -2.0422541e-04  -1.3103320e-04  -1.1199638e-04   1.8034171e-04  -1.4416121e-04  -2.8442009e-04   5.4837484e-04   5.1335635e-04  -4.8508364e-04  -5.3909800e-05  -5.9025388e-06  -1.6713573e-04  -1.5591779e-04   1.0317074e-04  -2.1976803e-04   1.0176878e-05  -9.0004301e-05   2.3005472e-05   2.1581091e-04
   1.2976580e-05  -1.1894408e-04   3.3410677e-05  -8.4978681e-05   1.1331104e-04  -3.4509698e-04  -3.1254869e-05   3.8642605e-04  -2.4249325e-04  -4.3401658e-04  -6.2701016e-05  -3.5445174e-04  -8.2428058e-05   4.2732161e-05   1.0771399e-05  -9.5848431e-05  -1.2430953e-04  -9.9631055e-05  -3.6405426e-04  -1.7093515e-04  -9.2226313e-05  -6.5949571e-05  -4.9601695e-06   3.8066515e-05   1.1284988e-05  -2.3464763e-05  -2.0476163e-04   1.9608875e-05  -3.2613802e-04  -9.6298243e-07  -2.5490639e-04  -2.9748131e-04   1.1009051e-04  -2.7697810e-04   1.2736573e-04  -8.3417108e-05  -8.5288595e-04  -2.9918613e-04  -6.8450696e-04  -4.3989983e-04   1.1522102e-04   9.8081851e-05   1.8711876e-04  -2.0808851e-05   1.1120113e-04   1.4890672e-04  -8.7320870e-05  -1.3266329e-04  -1.3159754e-05   1.1133251e-04
   3.8254719e-05  -9.2301627e-05  -3.6448400e-05  -8.6157168e-05  -9.4084819e-05   1.9043041e-04  -9.3533228e-05   2.6191678e-04  -2.9338177e-04  -4.2433405e-04  -1.0661606e-04  -3.5139491e-04  -3.9329927e-05  -4.6202440e-06  -5.1446649e-04  -1.3883600e-05  -7.8452715e-05  -1.1904955e-04   6.0922775e-05  -1.8270305e-04  -6.6780980e-05  -1.1519661e-04  -9.6577380e-05  -1.3730346e-04  -2.7558522e-04  -1.2644114e-04  -4.1279377e-04  -1.0399970e-05  -8.8966172e-04  -2.2844950e-04  -5.1281456e-04  -2.2287352e-04  -1.2665104e-04  -7.8444951e-05   3.0838655e-05  -1.6665600e-04   7.9001657e-05  -1.4591037e-04  -3.2516907e-04  -3.6696301e-04   1.5818292e-05  -7.4884548e-07  -6.1570398e-05  -2.5406538e-04   1.4871881e-04   1.7140435e-04  -6.7832402e-06   1.4633702e-05   6.5359112e-05   1.1182724e-04
  -3.3256485e-05  -1.1922351e-04   1.7929222e-05  -3.1765416e-05   2.5877028e-04  -1.3553517e-04  -2.4449444e-04  -2.2773030e-04  -5.6271696e-05  -4.2242816e-04  -1.0725426e-04  -3.4669376e-04  -8.8927532e-05   1.3416784e-04  -1.3641707e-04  -4.2274380e-05  -8.1967184e-05  -5.7807749e-05  -2.6458039e-04  -2.2981186e-04  -5.8410304e-05  -1.4367171e-04   1.5937224e-04  -8.5742446e-05  -2.8578641e-05   6.3815110e-05   1.6992471e-04  -1.5134965e-04  -7.4584677e-04  -2.8793409e-04   9.2319468e-05  -2.6021543e-04   1.8171183e-04   3.1363475e-04  -6.9246377e-04   9.2039940e-05   5.8036785e-05   1.4381902e-04   7.3581643e-05  -3.5110977e-04  -1.1245069e-04  -4.5205572e-05   1.5599408e-05  -7.7977551e-05  -3.0636333e-05  -3.1449463e-06   6.1499668e-05   5.0461505e-05   1.2335872e-04   3.2718483e-04
  -4.7993588e-05  -9.2936032e-05   1.9180628e-05  -2.8368400e-05  -6.2113526e-05  -2.0697528e-04  -2.3943355e-04   1.6145407e-04  -2.7860742e-04  -4.2031892e-04  -1.1617183e-04  -3.1480513e-04   1.6145418e-06   1.2097229e-04   2.1992375e-04  -3.0206962e-04  -1.0095791e-04  -6.4793174e-05  -4.2195810e-04  -2.1241567e-04  -6.6349479e-05  -4.7261066e-05  -2.7986182e-04  -1.2782949e-04   7.2813600e-05   1.1301402e-04  -1.7308618e-04   7.6823191e-05  -8.9392025e-04   4.6248340e-05   8.2021856e-05  -2.0484980e-04   4.1972013e-04  -3.5356233e-04  -1.2398415e-04  -2.0842983e-04   1.9919471e-04  -3.5287975e-04  -5.1046307e-05  -4.5622984e-04  -1.0147721e-04  -6.5187283e-05   1.3189833e-04  -3.1253198e-04  -6.0427770e-05  -1.4727229e-04   1.5469854e-05  -2.3643063e-04   3.0707430e-05   1.5132096e-04
  -1.4484013e-04  -1.3961038e-04  -1.0722356e-05  -1.0987584e-04   1.4367836e-04   9.4715928e-05  -3.6415127e-05  -7.6426208e-05  -2.8806052e-04  -4.0468553e-04  -1.1497990e-04  -3.8632107e-04  -5.9265330e-06   2.9373236e-05  -3.3195608e-04  -4.3395383e-05  -8.4636828e-05  -3.6904708e-05   1.4127202e-04  -1.2570879e-04  -6.3099760e-05  -9.5095194e-05   1.4812546e-04  -8.4687512e-05  -2.1198863e-04  -6.0979892e-05   8.8720780e-04  -2.9366696e-05   8.1915583e-05  -1.2004400e-05  -4.0021806e-04  -1.4012183e-04  -2.3984781e-04  -8.2299557e-05  -1.3331753e-04  -2.2595649e-04  -4.0573455e-04  -4.8404618e-05  -2.7464156e-04  -1.9824755e-04   8.3526706e-05  -3.1962230e-05  -1.7914115e-04  -1.5457417e-04   1.3239229e-05   4.4830304e-04   5.7774005e-06  -2.9950260e-04   3.9602019e-05   2.7561342e-04
   5.1644914e-05  -9.8737597e-05  -1.7658251e-05  -5.5208016e-05  -1.9882194e-04  -2.0763345e-04   5.6166100e-05  -1.0991366e-04  -2.2387318e-04  -3.3711051e-04  -1.0307867e-04  -3.4968849e-04   3.3345179e-06   2.4309904e-05  -3.4920135e-04   1.5798172e-05  -4.9230610e-05   4.7232152e-05   6.0385128e-04  -9.1425456e-05  -9.5809250e-05  -7.6549557e-05  -3.0855717e-05  -6.6371344e-05   1.7214714e-05   2.8773122e-05   6.4503151e-04   4.7795329e-05   8.8967168e-04  -1.1101872e-04  -2.2317651e-04  -1.2883537e-04  -4.6639895e-04  -2.5946842e-04  -2.4355300e-04  -1.2142952e-04  -6.5270215e-05   7.1110735e-05  -1.1486808e-04  -6.5467786e-05  -7.6883603e-05   7.2420102e-05  -4.8795005e-06   1.4867322e-04   1.1674674e-05   8.3711348e-05  -7.6932138e-06  -8.3757659e-05   1.9984580e-05  -2.5627119e-06
   1.2226169e-05  -7.5436321e-05   2.8260398e-05  -7.5238386e-05  -4.6633490e-05  -5.3465457e-05   2.0617555e-05   3.4394392e-04   1.4662805e-04  -3.6701313e-04  -1.2754125e-04  -2.7068733e-04   9.1326756e-06   2.2510051e-04  -7.3388379e-05  -1.3675517e-04  -9.5215375e-07  -7.8834267e-07  -2.3170463e-04  -8.1510159e-05  -7.3013005e-05  -1.2298895e-04   8.5400643e-05  -5.6444485e-05  -7.6221349e-06   4.3361099e-05   2.1610403e-04  -6.7126792e-05   2.2291456e-04  -8.7697917e-05  -4.6820362e-04  -4.7508001e-05   1.4194133e-04  -5.9954409e-04  -4.9465604e-04   1.2243715e-04  -1.2367089e-04   4.2413198e-04  -2.7600816e-04  -9.2498776e-05   9.3687057e-05  -6.8300484e-05   1.2065891e-04  -1.9846456e-04   1.0757172e-04  -3.2301949e-04   2.9857217e-06   3.1403097e-04   4.4100128e-05   2.5421163e-04
  -4.7904879e-05  -1.0681134e-04   1.6419950e-05  -2.9139332e-05   1.0380473e-04   3.7505766e-04  -6.9653805e-05   1.2237753e-04  -4.0304486e-04  -3.6265247e-04  -1.4199388e-04  -3.0308077e-04  -4.0196734e-05   2.6163243e-05   1.9246819e-04  -1.4990497e-04  -6.5509143e-05   3.0338371e-05  -3.1615305e-04  -7.2098526e-05  -7.3323819e-05  -1.2481878e-04   8.5552005e-05  -7.3936877e-05   4.1885200e-05  -4.2231377e-06   8.3493396e-05  -1.2867400e-04  -3.8176891e-04   1.2345453e-04  -3.1330957e-04  -7.4427087e-05   6.5324704e-05  -1.8564544e-05  -4.0855378e-04  -2.6783475e-04  -5.4623546e-05  -4.1025578e-06   2.0917421e-05  -2.6681082e-04   1.8652296e-04   1.3392401e-05   8.4513929e-05   7.3783965e-05  -1.3301153e-04   5.1541210e-05  -4.8923826e-05   8.6086686e-05   9.9117606e-05   1.0234944e-04
  -9.4908726e-05  -1.1482862e-04  -1.3309576e-05  -4.4333377e-05   5.8205434e-05   5.7509533e-05  -1.0832540e-04   8.9471339e-04   2.7243761e-05  -2.9756490e-04  -1.2264313e-04  -2.2889102e-04  -1.9090618e-05   1.3661278e-04  -7.3398282e-05   5.0000141e-05  -3.0740943e-05  -1.3134519e-05  -1.9776425e-04  -1.3374341e-04  -8.1034661e-05   4.3562868e-05   2.8782655e-04  -8.8261819e-05   5.2772615e-05   8.8874687e-05  -3.3896437e-04  -9.1994538e-05   3.3882217e-04  -3.5017405e-05  -2.6246933e-05  -1.6207849e-04   1.4400276e-05   8.8442619e-05   3.3495129e-05  -2.2151250e-04  -3.4942527e-04  -7.2629674e-04   8.2922932e-05  -4.9184193e-04   8.9767072e-06  -3.5710189e-05  -1.9142938e-04  -3.6681820e-05  -9.2648334e-05  -5.5735192e-05   7.1298586e-05   8.9014666e-06  -1.2249326e-05   9.2703362e-07
   1.6714803e-05  -1.1814704e-04  -2.9811979e-06  -5.5755980e-05   3.8750120e-05  -2.0890281e-04   1.0028198e-04   5.8133079e-05   2.3571316e-05  -3.5995187e-04  -1.3886209e-04  -2.5156501e-04  -8.7684239e-05   1.8097826e-05   3.8919676e-05   1.3907995e-05  -1.4231783e-04  -2.5670090e-05   1.1885319e-04  -1.6145667e-04  -8.6473869e-05  -3.0496505e-05  -1.1722589e-04   1.1204754e-04   4.4711601e-06   1.1895198e-04  -1.1374328e-04  -5.4360593e-05   7.9462357e-04   2.3748714e-04  -5.2259356e-04  -1.8536733e-04   3.2873481e-04  -4.9515022e-04  -4.0920617e-04  -7.7678145e-05   2.0005772e-04   2.1839164e-04  -2.5157048e-04  -4.5361748e-04   5.1818857e-05  -4.2936230e-05   8.3310071e-05  -1.6316859e-04  -4.4603603e-05   1.9336726e-04  -9.2209057e-06   1.5107945e-04   1.2152330e-04   1.6750787e-04
  -1.9856803e-05  -1.4008404e-04  -2.4323097e-05  -4.4947501e-05   7.5960124e-05   4.4133812e-05   1.1297513e-04  -1.0244476e-04  -4.1977870e-05  -3.5016588e-04  -1.3074889e-04  -2.2151430e-04  -3.3229127e-05  -5.0732011e-05  -3.1717101e-04  -8.0222067e-05  -7.5810320e-05  -5.4061344e-05  -4.2143362e-04  -1.3652926e-04  -6.4240128e-05   8.5571838e-07  -1.0817868e-04  -3.5672343e-05   3.6449925e-05  -1.1523226e-05   2.1501628e-05  -1.7574024e-04  -2.4034076e-04  -8.5853811e-05  -8.0021520e-05  -1.5210065e-04  -9.7974174e-05  -6.7812594e-05   8.3145336e-05  -1.3895292e-04   8.1309641e-05  -2.5333371e-04  -2.6494463e-04  -5.9407332e-04  -6.2031417e-05  -2.1914479e-05  -1.9877580e-04  -4.1330106e-05   2.0983833e-05  -5.0157974e-05  -1.3262829e-04   3.6863879e-05   9.5368770e-05   1.3170848e-06
  -1.2682758e-04  -1.5672426e-04  -1.3199873e-05  -9.7804441e-06  -6.4322958e-05   1.6905986e-05  -8.0745878e-05  -1.9384573e-04   6.4539825e-05  -3.4696597e-04  -1.5926365e-04  -2.5194761e-04   8.8245601e-05   1.4415245e-05  -1.8819349e-04   5.4892243e-05  -2.0083626e-05   1.3907325e-04  -2.1052419e-04  -1.3693228e-05  -8.2845669e-05  -3.5475332e-05  -9.5141884e-05   5.4817163e-05   2.4528108e-05  -2.2997849e-06  -1.3201342e-04  -5.7492125e-05   2.2662355e-04  -1.3270108e-04  -3.6370513e-04   7.2372393e-05  -4.9586245e-04  -4.5216078e-04  -4.5976459e-04  -2.1911261e-05  -8.1553386e-04   2.4154440e-04  -1.0281139e-04  -4.1515703e-04   1.1478519e-04  -8.8889719e-05  -8.5541353e-05   7.0554333e-06  -1.2415752e-04  -2.6848586e-04  -9.7558892e-05  -1.2680666e-04  -4.7331050e-05   6.9748398e-06
