   1.9058413e-04   2.2417736e-04   8.8694665e-05   2.8142624e-04   6.5012362e-05   2.1954771e-04   4.6425350e-05   3.7722962e-04   3.3705233e-04  -3.2324499e-06   2.5199883e-04  -8.3745772e-06  -1.8607449e-05  -7.5098629e-05  -5.3562282e-05  -1.3318089e-04   1.9767440e-05   6.2370367e-05   4.0586459e-04   9.5554242e-05   1.7599647e-04   1.7213724e-04  -9.1607544e-05   2.0797149e-04   3.5817025e-04   1.0044867e-04   2.6186489e-04  -1.4206138e-04  -3.0461850e-04  -1.5932527e-04   2.9659653e-04   4.8879377e-04  -1.0533088e-04   3.2806851e-04   4.7829861e-05   9.8270284e-05  -4.3955760e-04  -2.4171986e-04  -1.5651372e-04  -7.2123890e-05   1.8802773e-05   1.6579125e-04  -7.7869463e-06  -9.1574329e-05   1.8291161e-04   1.1281042e-04   9.6283125e-05   4.9532686e-05   1.1716381e-04   3.5010464e-05
   1.2548939e-04   2.3340948e-04   4.6982226e-05   2.8207671e-04   7.0878697e-05   4.5581814e-04   8.1056620e-05   3.5584329e-05   3.0650303e-04   1.7799422e-05   2.5060587e-04  -2.4045599e-05  -3.9188522e-05  -6.3290586e-06   1.3212148e-04   2.4264535e-05   1.1503087e-05   4.4809633e-05   1.7643519e-04   9.6906260e-05   1.5422622e-04   2.2505032e-04   1.7704742e-04   1.1801822e-04   3.1793496e-04   1.0073782e-04  -1.8365216e-04   1.4630024e-04  -1.0845923e-04  -3.4160269e-04   9.5107025e-05   4.2799488e-04   7.6392476e-05  -1.4934406e-04  -5.8493806e-05   2.1400180e-04   3.7946640e-05  -3.5246270e-04  -4.6065325e-04  -4.0251714e-05   3.6015914e-05   2.3218092e-04   1.7683081e-04  -9.2224298e-05   7.3558971e-05  -3.0793322e-05   5.7523015e-05   9.4436225e-05   1.5912228e-04   2.9127841e-05
   1.6111310e-04   2.2159814e-04   6.3762185e-05   2.7549342e-04  -6.9594251e-05   7.5290285e-05   7.5676922e-05   1.4463664e-04   5.2816403e-04  -7.3689257e-06   2.7164095e-04  -1.7283595e-05   3.4318462e-05   1.1634420e-04  -5.5445307e-05   1.3605393e-04  -2.8701597e-05   4.7914029e-05   6.0721586e-04   8.2793842e-05   1.8803778e-04   2.1961262e-04   1.5225456e-04   5.8258182e-05  -1.9425488e-05   9.7198885e-05   1.7209469e-04   3.0580329e-04   6.6128379e-04  -4.6881547e-04   6.5191713e-04   3.3076949e-04   1.0677119e-04   1.9453005e-04  -1.9562890e-06   3.2365369e-06  -2.1290785e-04  -3.5265411e-04  -4.4056136e-04  -2.7333462e-04   6.2147924e-06   1.5819204e-04   7.4589225e-05  -9.1832735e-05   1.5478692e-04   3.4703800e-05   2.7921564e-05  -4.9385260e-05   1.2444539e-04   3.0702248e-04
   2.1388692e-04   2.3270053e-04   6.4859880e-05   2.9080646e-04  -1.4137573e-05   1.3088073e-04   2.6469497e-04   7.1930590e-05   4.9302360e-04   1.0938753e-05   2.5890890e-04  -5.0091185e-06  -4.0720926e-05   1.5501358e-04  -2.2069071e-04   1.6426347e-06  -1.6074184e-05   4.6332327e-05   1.2763466e-04   8.8932953e-05   1.7114136e-04   1.7639762e-04  -7.8569174e-05   1.3165483e-04   3.1070446e-04   4.9346625e-05  -1.4338134e-04   2.5024792e-05  -5.1337801e-04  -2.6696041e-04   4.2573537e-04   3.0873250e-04   9.5416872e-05  -2.9950278e-04  -2.3131905e-04   2.8096558e-05   3.2035171e-04  -2.4762575e-04  -1.9410354e-04  -4.1664479e-04   5.5129331e-05   7.1150149e-05   5.2687876e-05   7.2778785e-05   2.1902219e-05   2.1778613e-05   7.4034055e-05   4.5954825e-05   1.1510179e-04   2.5774780e-04
   1.7169781e-04   2.0311819e-04  -7.5181956e-06   2.7905364e-04  -1.6085725e-05  -2.2735404e-04   6.1213701e-05   7.9242120e-05   4.7091173e-04   1.8131554e-05   2.6452643e-04  -6.0184607e-06  -5.1091520e-05   1.1487649e-05  -3.8592640e-05   1.0975800e-04  -1.0834409e-04   7.5383873e-06   5.4877892e-04   5.7308043e-05   1.8829780e-04   1.4712503e-04   1.1884978e-04   2.0441077e-04  -1.1693220e-05   6.5211309e-05  -3.0349573e-04  -1.4318974e-04   1.2259949e-05  -1.5222277e-04   1.5334984e-04   3.4833120e-04   7.3294977e-05  -2.4259248e-04  -2.5229930e-04   1.7971723e-04   5.1482761e-04  -2.2618331e-04  -3.5367359e-04  -2.8624956e-04   7.6518649e-05   1.4109077e-04   2.3916001e-04  -3.2146889e-04   1.1569943e-04   1.8235054e-04   1.1916106e-04   5.2597738e-05   9.5601194e-05   2.7331746e-05
   2.1023113e-04   2.4567914e-04   7.0624534e-05   2.6724709e-04   1.5717509e-04   4.3531039e-04   1.7860679e-04   5.7328063e-05   2.5199077e-04   9.4716379e-06   2.6772579e-04  -2.1507823e-05   2.4033052e-05   1.5351690e-05  -1.9938289e-04  -1.2885770e-04  -8.7118260e-06   1.9326189e-05   3.4626556e-04   6.1530387e-05   1.6671878e-04   1.8083352e-04   1.7428934e-04   1.6536121e-04   1.4113361e-04   6.5442408e-05   3.4594271e-04   2.4567763e-04  -6.0048321e-04  -5.6177052e-04   4.3258918e-04   3.3463325e-04   2.4535824e-05   9.8618708e-05   4.4839105e-04   2.3510393e-04  -3.3959179e-04  -2.6945485e-04  -1.5447450e-04  -3.4387151e-04  -1.8125034e-05   2.0004915e-04   4.2867883e-05  -5.8196212e-05   1.1304118e-04   1.7943181e-04   5.8444977e-05  -7.8076009e-05   1.1406362e-04   9.0784306e-06
   2.8707529e-04   2.5873192e-04   9.8090466e-05   3.0954997e-04   6.6422537e-05   3.9649382e-04   1.2168493e-04   4.9158381e-05   3.6769529e-04   1.9323365e-05   2.4515259e-04  -2.3785615e-05   1.0051034e-05  -1.5416714e-04   4.4031418e-04  -7.9992227e-05  -8.5523861e-05  -6.6046769e-06   6.5450359e-04   5.9860504e-05   1.6709039e-04   8.2061364e-05   6.2575738e-05   8.3468563e-05   2.0233024e-04   1.0046933e-04   1.5675504e-04   2.4736100e-05   8.4624102e-05  -1.9406252e-04  -3.3785269e-05   3.3122432e-04   2.3786192e-04   2.1479897e-04   2.8050432e-04   1.1287701e-04   2.2386220e-04   1.5081260e-04  -7.1050390e-04   1.4063765e-04   6.8801754e-05   6.7554924e-05   7.1606657e-05  -1.4117593e-04   1.0536503e-04   1.5435198e-05   1.0327444e-04  -1.3854045e-04   9.1037407e-05  -2.8908027e-05
   1.3835930e-04   2.2031675e-04   7.3484363e-05   3.0973408e-04   1.9469284e-04   3.6666583e-04   8.0919061e-05   2.4676116e-04   2.7259198e-04   1.8038572e-05   2.5155698e-04  -2.5957634e-05  -3.5851757e-05   2.0209998e-05   5.2353353e-05  -1.2073608e-04  -1.7663975e-04   1.0218630e-04   1.8542564e-04   5.5609416e-05   1.7185134e-04   1.5510884e-04   1.3984024e-04   1.8346412e-04   1.6819741e-04   1.2931545e-04   3.9454560e-05   6.3221880e-05   2.6653051e-05  -1.8636929e-04   4.8910436e-04   4.6749218e-04   2.3441289e-04  -7.3201969e-05  -1.9994008e-04   9.7581105e-06   2.5524179e-04   7.3659801e-05  -3.3742224e-04  -3.0411180e-04  -4.5298217e-05   1.0683727e-04   3.6614594e-05  -7.3076350e-05   1.4148768e-04   2.0926770e-04   4.5849283e-05   5.6956302e-05   7.4726253e-05  -3.1797492e-05
   1.8370576e-04   2.0471556e-04   8.2337756e-05   2.9514008e-04   1.4903462e-04   4.0666851e-05   9.6474912e-05   4.0124881e-04   7.4633499e-05  -2.9163339e-06   2.3219186e-04  -4.5505993e-05  -3.2729749e-05  -2.5600431e-05   3.1302246e-05   7.0448434e-05  -4.8182701e-05  -2.1086238e-05   9.5356198e-04   8.2055129e-05   1.6045841e-04   1.3779070e-04   2.1057065e-04   3.1920190e-05  -1.1208961e-04   7.9546844e-05   2.3829655e-04   1.0691328e-05  -3.7912751e-04  -2.3372611e-04   1.6662302e-04   3.5960437e-04  -1.6951188e-05  -6.5460779e-05   1.5531896e-05   6.9786811e-06   6.2650928e-05  -3.5452525e-04  -1.7487201e-04  -1.7847802e-04   8.1306171e-05   1.4248575e-04   1.4229264e-04  -1.4097622e-05   2.8503642e-05   2.1599638e-04   1.1198130e-04  -5.0356124e-05   8.4250001e-05   6.6021559e-05
   2.1415902e-04   2.2979248e-04   6.2305480e-05   2.9503985e-04   2.1613609e-04   3.5833596e-04   3.4563776e-04   1.8823007e-04   2.9782756e-04   7.1269920e-07   2.0809589e-04  -4.9969800e-05  -6.5534216e-05  -1.7787726e-05   2.9002096e-05   5.8571593e-05  -6.7609719e-05  -2.2730193e-05   6.0943846e-04   5.4374599e-05   1.7063644e-04   1.1319281e-04  -6.0312639e-05   9.2637943e-05   3.3908340e-04   3.7697580e-05   2.6408440e-04   1.6306696e-04   2.7759239e-04  -5.2112999e-04   2.3907119e-04   4.2671390e-04  -3.4623816e-05  -1.2203665e-04  -2.7194785e-04   2.8178005e-05  -6.3623120e-05  -5.2961148e-04  -5.2508200e-04  -6.5049033e-05  -5.2770611e-05   5.1692245e-05  -4.2481788e-05  -1.2017749e-04   1.5256152e-04   2.3458053e-04   3.6611938e-05   3.7651935e-05   6.4411877e-05   1.2372887e-04
   1.1717661e-04   1.8797469e-04   7.4617579e-05   3.2609480e-04   1.9544101e-04   2.0838963e-04  -8.3941544e-05   9.4817246e-05   2.8700929e-04   7.5493149e-06   2.1450191e-04  -3.9365274e-05  -5.0823135e-05  -3.4532935e-05   1.4122471e-04  -4.9225629e-05  -1.1634872e-04   1.2067577e-04   8.0908037e-05   2.2210721e-05   1.4791632e-04   2.1508975e-04   3.4316338e-04   1.1842312e-04   1.2493112e-04   6.9504793e-05   5.6717952e-05  -5.3400272e-05  -3.6948442e-04  -1.7817171e-04   1.2686798e-04   4.0209939e-04  -4.5115562e-06  -1.1179732e-05   3.5021707e-04   1.5373000e-04  -3.7279096e-04  -2.9295831e-04  -5.0421618e-04   1.6716956e-04  -1.3483789e-04   1.2516211e-04   1.9548352e-04  -1.0302222e-04   3.8262380e-05  -1.2482198e-04   5.3395910e-05  -1.9089853e-04   1.1057739e-04   2.0635911e-04
   1.0269563e-04   1.7107568e-04   1.8874332e-05   2.8119667e-04   1.5650965e-04   2.5375714e-04   1.1520612e-04   1.9799266e-04   3.8354393e-04   9.5937185e-06   2.0984987e-04  -4.4589760e-05  -8.2773704e-07  -7.1066272e-05   3.2558007e-04  -2.5034853e-06  -6.0016224e-05   6.5183704e-05   6.7166740e-04   3.5477769e-05   1.3736117e-04   3.9834962e-05   3.1677794e-04   1.6063772e-04  -5.4722663e-05   1.5339405e-04   4.1965576e-04  -2.1652533e-05   3.3034410e-04  -3.6329869e-04  -2.5931948e-05   4.6092199e-04   1.7992735e-04  -1.8714031e-04   4.6704998e-04  -1.9740604e-05  -2.7603636e-04  -3.3725795e-04  -2.1171579e-04  -1.4580908e-04   1.8084909e-05   3.8425329e-05   2.0208620e-04  -1.5564953e-04   3.5743305e-05  -1.0409583e-04   8.7635046e-05   2.1790407e-05   1.0091664e-04   1.9642530e-04
   1.4386565e-04   2.0474888e-04   6.3286039e-05   3.1873115e-04   8.8348497e-05   1.1842194e-04   2.4532861e-04  -3.1813607e-04   2.4124263e-04   7.3569222e-06   2.0283648e-04  -9.6013055e-06  -3.7063750e-05  -5.2823878e-05   3.6526940e-04  -1.5352656e-05  -1.3155439e-04   6.3752290e-05   4.6474871e-04   2.4191004e-05   1.3531723e-04   1.3558847e-04   6.1852930e-05   1.1990454e-04   1.2950476e-04   7.0506561e-05   2.2734019e-04   5.9827380e-06   7.7596289e-04  -1.8625834e-04  -3.0253720e-04   3.4176314e-04   7.9302648e-05  -8.7763379e-05  -1.3742885e-04   3.5574622e-04  -8.2435166e-05  -8.3483799e-05  -2.0952158e-04  -4.4440271e-04   4.2973534e-05   1.4706927e-04   1.5305071e-04  -2.4210699e-04   1.0045971e-04  -3.6892496e-05   5.9645722e-06  -1.0181649e-04   1.0510716e-04   7.8208403e-05
   8.4536434e-05   2.0986304e-04   3.6808557e-05   2.8967205e-04   1.2719742e-04   3.6846567e-04   1.0806240e-05  -7.9228607e-07   6.3556290e-05   1.6402432e-06   1.9963972e-04  -2.1665790e-05  -3.7863467e-06  -9.7607466e-05   1.7048087e-04  -5.0663217e-05  -5.8360136e-05   3.7203496e-05   9.8528821e-05  -4.0083764e-06   1.0206682e-04   1.1617013e-04   1.1936868e-07   1.3930560e-04   4.8955349e-04   1.8424244e-04   4.2821650e-04  -9.1388029e-05  -1.7512044e-04  -3.5059659e-04  -2.0271166e-04   4.4551917e-04   2.2556391e-04   1.3414976e-04  -9.5944915e-06   3.6603695e-05   3.1866261e-04   1.4074785e-05   4.7845104e-05  -2.3876883e-04  -1.7067288e-05   1.2000328e-04   9.6649113e-05  -1.3643215e-04   5.8101610e-05  -1.9581578e-04   7.0867187e-05  -1.2173280e-04   9.2590330e-05  -1.8403329e-05
   1.4443904e-04   1.8767011e-04   3.9551182e-05   2.6218148e-04   9.4333009e-05   3.0716628e-04   1.7897077e-04   3.1847532e-05   2.5806428e-04   1.1158942e-06   2.1599336e-04  -3.7229940e-05  -2.2477200e-06  -4.0209656e-05  -3.4361234e-04   1.2963373e-04  -6.0685124e-05   9.0688911e-05   2.8146544e-04   7.0954222e-05   1.2010102e-04   5.7941445e-05  -1.2271995e-04   1.4850973e-04   3.0062880e-04   8.0874728e-05   5.0274795e-04  -6.6428416e-05   2.2831811e-04  -3.7499989e-04   5.8356923e-04   4.0628598e-04   4.5718183e-04  -1.2836446e-05   1.9259342e-04   1.6710038e-04  -2.3916460e-04   3.9312517e-06   2.6339298e-04  -3.5468192e-04   7.7365083e-05   1.0493695e-04  -1.0074717e-04  -1.0768423e-04   1.1448142e-05   1.6074264e-05   4.3467320e-05  -1.8129972e-04   8.9215820e-05  -5.8787264e-05
   4.6413315e-05   1.6870772e-04   4.4439421e-05   2.9227161e-04   1.8256500e-04   3.5845395e-04   1.7826975e-04  -9.7590848e-05   2.4981299e-04   3.9644078e-06   2.0051165e-04  -6.3216190e-05  -4.1491228e-05   1.0959298e-04   3.6724648e-04   8.4392930e-05   2.0293948e-05   5.8255206e-05   5.5912527e-04   4.5802142e-05   1.4591678e-04   1.4066696e-04   1.8395532e-04   6.8511945e-05   1.4980220e-04   1.5692585e-04  -3.4465603e-04   9.7210730e-05   7.1099243e-04  -2.0839879e-04   3.8493078e-04   3.9329607e-04   3.8597169e-05   8.1577758e-07   2.3941713e-04   3.8393642e-04  -4.3368644e-05   1.8190319e-04  -3.5174558e-04  -4.4925156e-04  -1.7607699e-05   1.5540344e-04   6.5325301e-05  -2.1253363e-04   7.0699098e-05   5.4182819e-06   5.1543924e-05   8.1972699e-05   7.1421739e-05   2.7938627e-04
   7.3440868e-05   1.9878357e-04   2.7531320e-05   2.8118980e-04   3.2491531e-04   4.8635632e-04   6.6753614e-06   1.7244395e-04   1.0724241e-04   9.9528768e-07   1.8863368e-04  -6.0461443e-05   2.8969287e-06  -7.8704754e-05   1.5167434e-04   6.0510891e-05   1.1426409e-05  -1.5984507e-06   3.1557024e-04   7.0217291e-05   1.0633508e-04   1.6764337e-05  -1.7019128e-04   2.3124117e-05   7.4503427e-05   7.2898678e-05   7.2111470e-05  -7.4284399e-05   1.0567393e-04  -2.2320534e-04   6.6320307e-04   3.6040941e-04   7.7894685e-05  -1.8127834e-04  -3.0549509e-05   1.7193463e-04  -8.3188243e-06   2.0655389e-05  -2.3256532e-04  -4.3735094e-04  -2.2156228e-05  -6.0815553e-05   1.2382763e-04  -1.6007153e-04   6.4777741e-05  -1.4619471e-04   7.3291056e-05  -3.3209282e-05   7.3930612e-05   2.7158720e-04
   1.7591786e-04   1.7508648e-04   5.9610578e-05   2.7360555e-04   2.1739615e-04   2.0518761e-04   3.5297414e-04  -7.8751109e-05   2.8164746e-04   2.9727696e-06   2.1329145e-04  -4.8284164e-05   3.9385483e-05   8.7689783e-05  -9.7884687e-05   3.0045256e-05  -5.8632719e-05   6.5255197e-05   3.8108305e-04   6.2815932e-05   1.2681737e-04   2.4635921e-05   1.6414578e-04   4.2745698e-05   6.5314508e-04   1.6228812e-04   3.9486820e-04   1.0723079e-04  -1.2439005e-04  -1.4001156e-04  -1.4159118e-04   4.7228663e-04   2.3561735e-04   2.0222628e-04  -2.7840695e-05   2.4201898e-04   1.3391329e-04  -3.6487123e-04  -5.5936276e-04  -1.4417668e-04  -3.9664774e-06   7.5988064e-06  -7.9059660e-05  -1.7781110e-04   5.4207168e-05   3.9482638e-05   4.9537590e-05  -1.9796153e-04   1.0380401e-04   1.0936068e-04
   2.0017488e-04   1.8260803e-04   4.7828245e-05   2.9049042e-04   3.7182082e-05   3.1120639e-04  -5.0442981e-05  -2.1096719e-04   4.1676196e-04   3.0773288e-06   2.3179475e-04  -4.9734284e-05  -4.3968252e-05   2.3710945e-05   4.7889735e-05   7.9884980e-05  -1.2585289e-04   2.5360750e-05  -5.8023386e-05   8.3602674e-05   1.2185847e-04   1.4248984e-04   1.7846828e-04   2.4853679e-04   2.4198163e-05   1.6882471e-04   2.2463121e-04  -6.3008105e-05   1.1956323e-04  -2.4511863e-04   2.3823451e-04   4.0820785e-04   1.3689155e-04  -4.0520562e-04   1.7710846e-04   3.3908139e-04   8.4553547e-05  -3.0864484e-04  -6.9021346e-04  -1.6554397e-04   1.2150654e-04   1.2915215e-04   2.2860653e-04  -1.9699174e-04   1.3800706e-04   9.1146918e-05   9.6363823e-05  -2.5434949e-04   3.0867472e-05   1.6919982e-04
   1.8398892e-04   1.8717680e-04   4.9103190e-05   3.2960041e-04   3.1518925e-04   1.9404353e-04   1.6544369e-04  -4.5831908e-05   4.9708702e-04   2.0715337e-05   2.3083277e-04  -2.7156830e-05  -6.6656394e-05   3.6553720e-05   2.6759889e-04  -7.7175093e-05  -8.2142520e-05   2.3051731e-05   3.4769753e-04   5.0625655e-05   1.2122592e-04   8.0329439e-05  -1.1248791e-04   8.2774881e-05   3.8170088e-05   9.7558986e-05  -5.7798319e-05   2.2138894e-04   3.6721118e-04  -2.4348059e-04  -7.7458775e-05   2.7349420e-04   3.8160619e-04   2.1961179e-04   4.5853810e-04   2.3075832e-04   1.9962390e-04  -2.4770622e-04  -1.9255892e-04  -3.6118721e-04   2.3589253e-06   1.2169263e-04   1.2924253e-05  -1.4490917e-04   9.1545080e-06   1.4609261e-04   1.0613984e-04  -1.3839375e-04   8.2272083e-05   1.8709799e-04
   1.3249513e-04   1.9417329e-04   8.3947132e-05   2.9190810e-04   1.7158032e-05   1.1078297e-04   1.2937046e-04   1.2517496e-04   3.9181422e-04   9.0463900e-06   2.3267980e-04  -4.7551253e-05  -5.9234266e-05  -9.0645357e-05   4.1099402e-06  -1.5278280e-04  -1.1732910e-04  -2.7098231e-05   1.4041561e-04   6.8192196e-05   1.2618888e-04   9.3503819e-05   1.2547274e-04   1.2520349e-04   4.3094766e-04   2.4953627e-04   5.8566459e-04   1.0418714e-05  -4.8901967e-04  -1.5938752e-04   7.3585304e-04   3.8616883e-04   5.3039432e-04   2.7461641e-04   2.6468662e-04   2.6681542e-04   3.0845928e-04  -2.3534290e-05  -1.0272781e-04  -3.6279985e-04   8.2177459e-05   8.6643580e-05  -3.1125706e-05  -1.3460797e-04  -1.1809440e-05   1.1097204e-04   1.1070945e-04  -9.0223992e-05   7.9978308e-05   1.6988977e-04
   1.9471488e-04   2.3538279e-04   8.1989827e-05   3.2458850e-04  -2.1221183e-05  -3.1405358e-05   2.4048281e-04   4.4456427e-04   3.6422009e-04   1.8359589e-05   2.0695011e-04  -2.7398377e-05  -4.0753464e-05   1.8614701e-05   2.0145443e-04   3.4513811e-05  -1.3325852e-04   1.4511659e-05   1.6615201e-04   1.7163251e-05   1.3311887e-04   1.3448730e-04   2.2380180e-05   2.1055840e-04   2.2305810e-04   1.9016655e-04  -1.0319826e-04   1.8494851e-04  -4.8158177e-05  -1.8411825e-04   4.0955024e-04   3.4679199e-04   2.9855865e-04  -1.5781727e-04   3.4913525e-04   1.1651181e-04  -5.0365605e-04  -4.3595070e-04  -7.1777977e-05  -2.1214010e-04  -1.5916947e-05   1.2339914e-04  -1.0837066e-04  -3.0691223e-04  -1.0466261e-05  -4.9576112e-05   1.4645733e-04   1.1449929e-04   9.6093587e-05   7.6986966e-05
   1.8881689e-04   1.7793351e-04   5.1515166e-05   2.8929918e-04   2.5230835e-04   3.1170039e-04   2.5480340e-04  -2.9846702e-05   4.9481721e-04   2.2717551e-05   2.1650048e-04  -1.4675022e-05  -4.1656989e-05  -1.9408239e-05  -1.2091716e-04  -2.7488792e-05  -7.8397876e-05   6.3186730e-05   3.1341470e-04   1.5427788e-05   1.2972123e-04   2.0971902e-04   4.4334196e-05   1.0311962e-04   3.5422025e-04   2.0253404e-04  -8.0485654e-05   3.5909357e-05   2.0652858e-04   9.9250872e-05   4.5952006e-04   3.9172528e-04   4.8810829e-04   2.4448402e-04   1.2720549e-05   3.9451392e-04  -2.1432331e-04   1.1427631e-04   4.3868607e-05  -1.6279580e-04   8.1306112e-05   3.8692284e-05   1.5183089e-05  -2.8945709e-04   1.9301919e-05   1.1867266e-04   1.0544359e-04   1.2202334e-04   9.1285758e-05   6.2491970e-05
   1.4465532e-04   1.9753148e-04   5.5628956e-05   3.1038999e-04   8.3162791e-05   4.0551813e-04   1.2408680e-04   7.4085961e-05   1.6541645e-04   2.3571103e-05   2.2584478e-04  -1.9606743e-05  -2.6533007e-05  -2.5752359e-05  -2.1595624e-05  -9.3919291e-05  -1.2552631e-04   1.2490887e-05   4.3494033e-04   7.2672315e-06   1.1168007e-04   9.6493000e-05   1.5000453e-05   1.7722351e-04   2.9660502e-04   1.8006553e-04   9.9729412e-05   2.5496993e-04   5.6948070e-04  -2.2744967e-04  -1.2110909e-04   3.5552742e-04   3.4988549e-04  -3.8878396e-05  -1.0119057e-04   1.5072015e-04  -2.7580189e-05  -4.4415554e-04   2.7098531e-05  -3.6188861e-04   9.1003487e-05   4.9417893e-05   1.2633085e-04  -1.5980897e-04   1.3877642e-04   1.0996000e-04   1.0827422e-04   2.3961190e-06   1.2532187e-04   2.3977163e-04
   1.4498401e-04   2.1067201e-04   1.2056041e-05   3.0756133e-04   1.9263086e-04  -6.9433132e-05   1.2855511e-04  -2.8406266e-05   3.5811370e-04   2.3719560e-05   2.1426870e-04   1.9002318e-06   9.6114854e-06  -1.0707576e-04   8.0394952e-05  -8.4163279e-05  -1.0317220e-04  -3.6519767e-05   6.4860471e-04  -1.5031371e-05   9.9612771e-05   1.6364652e-04   2.6250197e-04   7.4816788e-05   7.2469156e-05   2.1874334e-04  -5.4462045e-05   1.5830230e-04   2.0810292e-04  -3.4597184e-04   9.1435049e-06   3.6878505e-04   5.2312401e-04   1.5261455e-04   2.8949743e-04   4.1630672e-04   8.0688442e-05   2.7599526e-04  -2.5112738e-04  -2.2682379e-04   9.2915921e-05   1.0181289e-04  -5.5359877e-05  -2.9672153e-04   1.2973566e-05   1.8111485e-04   8.5500229e-05  -6.0341925e-05   6.4083426e-05   1.9508932e-04
   1.6277078e-04   1.8344873e-04   3.8218754e-05   2.8570698e-04   2.4573004e-04   7.8993988e-05   1.3620392e-04   6.7730529e-05   3.8315667e-04   1.9130814e-05   2.0457097e-04  -5.1284675e-05  -5.0155220e-05   1.8449515e-04   1.1128094e-04  -4.4188041e-06  -1.1624309e-04  -2.0214295e-06   3.8138198e-04   1.5136926e-05   7.0625181e-05   1.3427167e-04   3.1399523e-04   2.1432845e-04   1.2057545e-04   1.9103967e-04   2.3695017e-04  -7.3801057e-05   1.4856362e-04  -1.8714547e-04   5.7003216e-04   2.5282660e-04   6.2017603e-04   4.9414462e-04  -2.9525146e-04   2.6659269e-04   4.4017960e-04   1.0088689e-04  -1.2605578e-04  -1.3344212e-04   1.7472844e-04   4.2628708e-05   9.0628309e-05  -1.0769710e-04   2.7788750e-05  -1.3476219e-05   1.5035174e-04   1.4762639e-04   3.4615136e-05   2.9607047e-04
   1.4785833e-04   1.7443005e-04   6.4881286e-05   2.6707791e-04   1.3933405e-04  -1.0247286e-04   1.1250333e-04  -1.2637845e-04   2.8281604e-04   2.3984452e-05   1.9064902e-04  -4.6939134e-05  -8.5467829e-05   1.2034446e-04  -2.1686369e-06   1.1291319e-05  -1.0713949e-04  -7.3732885e-08   5.6829763e-04   7.1816365e-05   6.5442327e-05   1.2332411e-04   4.2866810e-05   1.4976773e-04   3.4107664e-04   2.5962762e-04  -1.2796842e-04  -2.0733969e-05   1.1556391e-03  -1.7096108e-04   1.6673667e-04   2.1665545e-04   4.0266372e-04   3.9824884e-04   1.2456093e-04   3.1230308e-04   3.0260853e-04  -4.6681082e-05  -3.8434722e-04   1.8975169e-04   9.5714509e-05   1.1503585e-04  -5.6591281e-05  -1.8447883e-04  -1.2072151e-04  -1.4160143e-04   1.0377876e-04   2.0224210e-05   7.5470271e-05   2.4333017e-04
   1.7870363e-04   2.3199004e-04   5.6675402e-05   2.7402537e-04  -1.5553014e-04   1.9537014e-04   4.3420489e-05   2.1987120e-05   1.0511356e-04   2.7574764e-05   2.0629601e-04  -1.5806836e-05  -7.5345917e-05   9.6350755e-05   3.4402567e-04   4.2865940e-05  -8.2809065e-06   7.4315549e-06   1.1906731e-04  -2.4046092e-06   6.0042581e-05   8.3656843e-05   8.3957704e-05   1.6747278e-04   1.8918252e-04   2.6591425e-04   1.9012284e-04   2.0051297e-05   5.5114191e-04  -1.4385630e-04  -3.7166354e-04   3.0249843e-04   4.0498530e-04   6.9951417e-04   7.0593109e-05   4.5064444e-04   4.4551669e-04  -7.3217219e-05  -2.8181032e-04  -4.4263186e-04   1.3750794e-04   5.3750176e-05   4.0320218e-05  -1.0574942e-04   4.3202755e-05  -6.8616791e-05   3.8303577e-05   6.7278503e-05   7.0652452e-05   5.1559055e-05
   1.2515925e-04   1.8820527e-04   2.4932739e-05   2.9585813e-04   2.1850824e-04   1.4469755e-04   4.7087349e-05   2.9320220e-04   3.4905333e-04   2.0873933e-05   1.5568951e-04  -3.3311109e-05  -4.9758808e-05   8.3412335e-05   2.8045962e-04   3.4707147e-05  -1.3901059e-04  -2.7903765e-05   1.7977174e-04   3.1850479e-05   5.6682005e-05   1.5765325e-04   2.5404020e-06   8.1639810e-05   6.5532819e-05   2.2425287e-04   3.9157658e-04   1.9964064e-04   5.2359970e-05  -1.7574955e-04   8.7635766e-05   2.5770313e-04   3.9855696e-04   1.8647403e-04   3.2827878e-04   4.2440571e-04   2.1747140e-04  -3.5031859e-04  -1.9154362e-04  -1.1947443e-05   1.3078326e-04   2.5796111e-05  -9.6036893e-05  -1.0136038e-04  -3.2640160e-05  -2.3536783e-04   5.7690249e-05   6.8571726e-06   5.1208743e-05   8.3796789e-05
   1.1072723e-04   1.9349907e-04   5.5393240e-05   2.4128471e-04   2.1853828e-04  -1.6838382e-04   1.1018843e-04  -2.3083427e-04   4.2796292e-04   2.3099621e-05   1.6348597e-04  -3.5272082e-05  -8.5410909e-05   1.1560708e-05   2.3131519e-04   5.3944132e-06  -8.1809245e-05  -1.5130916e-05   3.7745116e-04   5.5779074e-05   5.0697556e-05   1.4363138e-04   5.7187368e-05   9.5890719e-05   3.7262791e-05   2.7527875e-04  -9.8995537e-05   1.8477127e-04   4.6892156e-04  -9.6262134e-05   2.2351650e-04   3.0768890e-04   3.6929760e-04  -1.7956740e-04   4.2759068e-04   2.1213599e-04  -8.5001935e-05   2.4971258e-04  -1.4000114e-04  -2.1937383e-04  -1.1104361e-05   1.5111724e-04   1.8579081e-04  -2.5273926e-04  -1.0800570e-04  -1.5049361e-04   1.0207604e-04  -8.0840466e-05  -1.2120468e-05   1.8174104e-04
   1.0578106e-04   2.0541696e-04   1.6992780e-06   2.4745095e-04  -1.4234945e-05   3.8390234e-04   6.8947877e-05   9.0419035e-06   1.3992110e-04   2.1188649e-05   1.6015874e-04  -3.7938153e-05  -6.7947636e-05   1.0918387e-05  -5.1422423e-05   3.5952333e-05  -1.3585690e-04   3.6248530e-05   1.2029955e-04   1.9648374e-05   4.6336536e-05   1.7798199e-04  -1.0402751e-04   1.6401308e-04   6.6840497e-04   3.3709043e-04   1.8044948e-04  -1.3764795e-04   6.5105577e-04  -2.2215736e-05   2.2972265e-04   3.2484467e-04   4.1699456e-04   1.5383809e-04   5.5354816e-04   4.9615494e-04   1.0737042e-04  -4.6997800e-04  -1.7894595e-04  -3.1789491e-04   2.6317884e-04   7.1059563e-05   1.9982259e-05  -1.3742753e-04  -1.5296357e-05  -2.0153717e-04   8.4896012e-05  -8.9626134e-05   4.0003957e-05   1.3411927e-04
   1.2378326e-04   2.0122918e-04   1.1865526e-05   2.7515998e-04   1.2212628e-04   4.0492634e-04   9.3063907e-05   2.6034072e-04   2.0734321e-04   3.4633944e-05   1.4962754e-04  -2.0669233e-05  -7.3026924e-05  -1.9342200e-05   6.6367342e-05   1.8308492e-04  -3.7405582e-05   1.7214954e-05   3.3441596e-04   3.6287005e-05   1.9061723e-05   2.0113819e-04   5.4204338e-05   1.3195652e-04   4.9822743e-04   2.2502779e-04  -1.4968400e-04   4.0240929e-04   1.3612912e-04  -4.5876131e-05  -9.8363183e-05   4.3777478e-04   3.5856027e-04   3.9797425e-04   4.2899940e-04   4.4369005e-04   1.0132144e-04  -4.6729168e-05  -1.2084960e-04  -1.6518736e-04   1.1818374e-04   9.8288430e-05   5.0145576e-05  -1.7954527e-04  -1.2848301e-04   1.3404606e-04   1.3458983e-04  -1.0349513e-04   3.1898653e-05   1.6364250e-04
   2.6301050e-04   1.8161406e-04   3.2802989e-05   2.4571244e-04   4.4406512e-05   1.8449491e-04   2.7468199e-05   3.2686751e-04   2.7650106e-04   3.2575463e-05   1.5470290e-04  -3.8709994e-05  -7.6157368e-05   2.0094873e-05   3.5585086e-05  -3.0624469e-05   1.3153925e-05   2.3886323e-05  -1.3559805e-04   4.5816767e-05   1.6278580e-05   2.1725899e-04   1.0564213e-04   4.6510708e-05   3.9457268e-04   2.0737134e-04   6.7607325e-04   1.8946832e-04   5.0231075e-04  -2.1409540e-04   1.0834015e-05   3.5731215e-04   3.8145040e-04   1.3630542e-04   5.8381184e-04   1.8037119e-04   5.2261318e-04  -2.6108409e-04   9.1308371e-05  -1.8476113e-04   5.7735560e-05   1.0254163e-05   1.7281077e-04  -1.5020874e-04  -1.1065507e-04  -3.1591153e-05   4.5523720e-05  -3.5225748e-05   4.8625763e-05   1.5431287e-04
   1.0259950e-04   1.5945958e-04   5.6839399e-05   2.8783083e-04   3.3311898e-04  -4.9954065e-06   1.1732860e-04   1.9335345e-04   1.3533272e-04   3.4566136e-05   1.7851887e-04  -6.7036381e-06  -5.6810033e-05  -4.2643620e-05   2.3299539e-04  -1.5507787e-05   1.2022489e-05   1.1661147e-04   2.0873127e-05   5.4131044e-05   4.4945205e-05   1.8621227e-04   3.4663343e-04   1.2922415e-04   1.0937337e-04   2.0422146e-04   1.1529390e-04   3.3156452e-04  -4.7551002e-05  -4.0871753e-05   4.1360845e-04   2.9491517e-04   9.0765054e-05   2.1990750e-04  -4.1236388e-05   2.6727453e-04   2.5497451e-05  -3.2847911e-05  -4.3931286e-04  -3.3104056e-04  -7.6180859e-06  -3.2924712e-05   1.7842447e-04  -3.0383526e-04  -1.8681756e-05  -1.6131070e-04   9.6150587e-05  -1.7210901e-05   7.2618524e-05   1.7913288e-04
   2.0243824e-04   1.7674589e-04   7.0001850e-05   2.4802901e-04   4.2144471e-05   3.6625864e-04   1.4237095e-04  -2.5706860e-04   3.8107697e-04   2.9134824e-05   1.4555170e-04  -1.9611974e-05  -3.7255770e-05   1.5657149e-04   1.1994280e-04   2.4910325e-05   3.9251259e-05   7.4914860e-05   1.2418786e-04   3.0234412e-05   2.7208624e-05   1.7207002e-04   9.2999609e-05   1.4269201e-04   1.3748965e-04   1.9897180e-04   7.2682800e-05   2.0048300e-04   1.1582409e-03  -5.8279435e-05   4.2338402e-04   3.2539995e-04   5.5966683e-04   3.6734805e-04   3.8674145e-04   2.2620951e-04  -2.6086034e-04  -1.2960580e-04  -3.8184811e-04  -2.8483430e-04   6.4725456e-05   8.8531124e-05  -2.2151144e-05  -2.3511921e-04  -8.8998087e-05  -1.8513933e-04   9.0288035e-05   1.1811373e-04   7.6819269e-05   2.3223876e-04
   1.0236071e-04   1.6938377e-04   1.0163115e-04   2.1125996e-04   1.5669949e-04   4.3280164e-05   1.0483885e-04   3.7817538e-04   3.1581748e-04   1.5141226e-05   1.3728502e-04  -3.8650222e-05  -3.9442471e-05  -5.0519657e-06  -3.7265514e-04  -1.2778277e-05   8.4298314e-05   2.7668219e-05   2.9794015e-05   6.5321801e-05   1.5720052e-05   7.6439173e-05  -1.2642514e-05   6.3744046e-05  -1.2341110e-04   2.4274245e-04   1.1679456e-03   3.3186475e-04  -2.7122814e-04  -6.1199942e-05   6.4830674e-04   3.6888075e-04   5.0708611e-04   3.7953473e-04   4.7205799e-04   3.6034780e-04  -5.0619048e-05  -5.4187432e-05   8.9718058e-05  -1.8075973e-04   1.3732770e-04   6.1113162e-05   1.3984476e-04  -8.8279194e-05  -7.7438097e-05   3.8361777e-05   9.3785733e-05   1.0160850e-04   1.1277996e-04   1.8160247e-04
   1.4164430e-04   1.6272279e-04   7.2946386e-05   2.7441359e-04   5.3999982e-05   4.6109788e-05   2.0389796e-04  -9.4300885e-06   3.8036020e-04   1.6674980e-05   1.3244814e-04  -2.3401151e-05  -5.7151286e-05   1.2850264e-04   7.2657371e-05   1.8181103e-04   1.5078677e-04   1.0177177e-05   4.2963956e-04   1.0159331e-04   3.2574135e-05   2.4441921e-04   3.3971122e-05   9.7951233e-05   1.3479732e-04   1.9479005e-04  -2.0051348e-05   1.5948684e-04   2.8036776e-04  -1.0618288e-04   6.3885894e-04   2.2332929e-04   4.0512404e-04   6.6453518e-05   1.7711654e-04   2.7402217e-04   5.7392001e-05  -2.5801189e-04   8.7369051e-05  -1.7055073e-04   1.5333586e-04   8.8118170e-05   2.2614548e-04  -4.4940745e-05  -1.0170983e-04  -2.1195016e-04   4.0296178e-05   1.4416206e-04   1.1310486e-04   5.0127601e-05
   1.5759782e-04   2.0800591e-04   6.4977663e-05   2.3152294e-04  -6.8091169e-05  -3.7463265e-05   1.9375586e-04   9.2281960e-05   3.5607337e-04   2.1950520e-05   8.8606073e-05  -2.6052930e-05  -1.1442958e-04  -4.3171636e-05   2.8894212e-05   3.5028883e-05   1.3449491e-04   7.2112569e-05   2.6062495e-04   6.7799767e-05   2.8397242e-06   2.1942022e-04   1.6263597e-04   1.2018526e-04  -9.0409012e-05   1.9621529e-04   5.0782524e-05   2.5332894e-04   3.9195846e-04  -1.1235686e-06   4.5841275e-04   1.4293291e-04   5.5659749e-04   1.8516925e-04   2.8002069e-05   4.4229368e-04   1.9261173e-05  -6.4681988e-04  -4.9913547e-04  -4.0518359e-04   1.6036547e-04   1.6767299e-05   2.2049111e-04  -1.5231290e-04  -5.6980602e-06   9.4540221e-05  -2.1903266e-05   1.0380107e-04   6.8807283e-05   1.1396990e-04
   1.3990013e-04   1.8880240e-04   3.4120785e-05   2.3267203e-04  -2.0668375e-04  -1.5466609e-04  -4.0292525e-05   8.4398984e-05   1.6844542e-04   1.9385019e-05   7.6498603e-05  -4.4609107e-05  -8.2289487e-05   8.4455758e-05   2.3115508e-05   1.5499603e-05   1.5066468e-04  -5.8443926e-05   2.8580902e-04   3.6938560e-05   6.4407132e-06   4.5272194e-05   1.1915258e-04   1.6093141e-04   1.6895273e-04   1.3299518e-04   2.7604387e-04   1.3590779e-04   3.0287672e-04   7.2857969e-05  -1.0841720e-04   7.8053359e-05   5.6628144e-04   2.2667261e-04   5.9646432e-04   1.9448170e-04   2.4389675e-04  -2.4164742e-04   1.0939069e-04   8.2530321e-05   2.1268724e-04  -1.4259068e-05   8.8637489e-06  -2.3678185e-05  -3.0695060e-06   1.9885402e-04  -9.4930265e-06   1.3581831e-04   1.1710902e-04   1.3990742e-04
   1.2209415e-04   1.6027851e-04   3.6687787e-05   2.2095586e-04   1.9262303e-04   3.3269826e-04   2.7293517e-04   1.2865748e-04   5.1416649e-04   2.4627236e-05   6.9256661e-05  -1.1282549e-05  -1.7224864e-05   4.2154483e-05   7.1215334e-05   6.5587724e-06   1.6975125e-04   5.1050596e-05   2.3956575e-04   6.9636175e-05   1.5933460e-05   1.7675442e-04   1.7310030e-04   2.2761132e-04   2.2931291e-04   2.4636739e-04   5.0254579e-04   2.1885795e-04   2.0745088e-06   8.5498912e-05  -5.6875349e-05   1.5025260e-04   2.3337518e-04   3.9448930e-04   1.7271598e-04   4.1573949e-04   1.6118390e-04   5.6995785e-05  -2.8582879e-05   4.4071119e-05   7.5934280e-05   6.7420973e-05  -1.2933332e-05  -1.1545587e-04  -7.7374702e-05   8.1424645e-05   2.8169710e-05   1.1932555e-04   6.0824641e-05  -4.1192252e-05
   9.8747885e-05   1.7332225e-04   4.8907321e-05   2.6815454e-04   6.5774293e-05  -8.0453619e-06   3.3407169e-04  -2.0868208e-04   4.2592288e-05   3.6503028e-05   5.4243952e-05  -3.4615416e-05  -1.4999189e-04   8.3981373e-05   2.2195048e-04  -3.2545246e-05   1.1273455e-04   2.0380492e-06  -1.9486790e-05   3.5014684e-05   9.7746824e-06   2.1026978e-04   6.7425219e-07   6.7774650e-05   3.3724477e-04   2.0516479e-04  -1.5391664e-04   2.9357179e-05   4.3711186e-04  -8.0742378e-05   4.4977402e-05   9.2829068e-05   3.8547043e-04  -1.2410022e-05   6.7801724e-05   2.0055463e-04   1.5530465e-04  -1.1692066e-04   8.5475194e-06  -2.9093137e-05   8.1680897e-05   7.8865668e-07   1.6760128e-04  -3.4293756e-04  -5.3368221e-05   3.3022712e-05  -2.8097415e-05   9.3502334e-05   1.3715067e-04   7.6442731e-05
   9.6969750e-05   1.9021910e-04   9.2979288e-05   2.5868200e-04   2.2005809e-04  -1.7910064e-04   3.5113812e-04   2.4761871e-04   5.3470922e-05   3.3417677e-05   5.5189041e-05  -1.1836960e-05  -7.2522678e-05   8.1257349e-05   3.8734051e-05   5.8340106e-06   7.0370130e-05   7.4154741e-05   9.1677270e-05   8.9494322e-05   1.3740254e-05   7.1646937e-05   2.6670026e-04   1.3336645e-04  -1.6283890e-05   2.1414763e-04   2.7012691e-04  -1.9449026e-05  -6.3359877e-04  -2.7463704e-04   1.6587517e-04   7.6505312e-05   3.4963628e-04  -1.0096912e-04   1.9941271e-04   2.8390999e-04  -7.5393938e-05   2.2958897e-04  -6.1478000e-04  -6.1776506e-04   1.7079090e-04   7.8986377e-05   3.3523509e-04  -1.9157096e-04  -1.1633055e-04  -8.7543682e-05  -1.8516861e-06  -5.9712504e-05   9.0435518e-05   2.3000300e-04
   1.1211312e-04   1.6096610e-04   6.5671040e-05   2.4582396e-04   1.2110182e-04   1.5985989e-04   1.4211086e-04  -2.6581447e-05   1.6622331e-04   3.4924160e-05   6.9477290e-05  -6.0270518e-06  -8.4970590e-05   1.7488435e-04   3.0664203e-04  -1.3478180e-04   1.7974945e-04   8.1756785e-05   7.9086974e-05   6.7330991e-05   3.1694553e-06   1.6558927e-04   5.8620211e-05   8.6683824e-05   2.8259485e-04   2.8437623e-04   3.2536004e-04   3.8244907e-04   5.6332748e-05  -1.7615917e-05   7.2853974e-05   6.9011985e-05   3.9999897e-04   1.1443893e-04   1.9024550e-04   3.6348944e-04   3.3222325e-04  -3.8027143e-04  -5.9133930e-05  -5.5176275e-05   8.7131164e-05   3.3987570e-05   7.1728486e-05  -1.7806923e-04  -1.0080341e-04   1.7021666e-04   9.2847469e-05   5.4311004e-05   8.9123445e-05   3.6793548e-04
   1.8280277e-04   1.7525353e-04   6.6405919e-05   2.3944389e-04   7.6151176e-05   7.9136211e-05   2.7404443e-04  -9.9509234e-05   1.5887982e-04   3.7965005e-05   1.8053763e-06  -4.2609379e-05  -6.4225911e-05  -1.0525999e-05  -3.3749978e-04   3.9201157e-05   2.0578470e-04  -3.8068265e-05   2.1327008e-04   6.4169784e-05  -1.8167919e-05   1.0201938e-04   5.7212837e-05   1.0246739e-04   3.0422601e-04   1.5580725e-04   6.9672387e-04   1.3060188e-04   2.7092732e-04  -3.5187935e-05   5.0564035e-04   2.8484430e-05   3.0574086e-04  -2.4290178e-04   2.3737564e-04   2.7567349e-04   4.1588799e-05  -6.1407289e-04  -1.2039467e-04  -2.8609403e-04   8.2674633e-05   1.2062187e-04   3.1427844e-04  -1.7891117e-04  -1.6427763e-05   6.8121954e-05   2.6074613e-06   1.1959353e-04   1.2829066e-04   2.1910269e-04
   1.4261904e-04   1.6345567e-04   3.2765191e-05   2.5490439e-04  -3.3345234e-05   3.0558065e-05   9.7155644e-05   2.1267985e-04   2.3785222e-04   3.2670298e-05   2.0089557e-05  -4.5716362e-05  -6.5565386e-05   1.1271497e-04   2.0375973e-04   9.0934518e-05   2.0353432e-04   1.3031559e-05   2.3192610e-05   7.4768519e-05  -3.4775378e-05   5.7430258e-05   2.9854692e-04   9.1611393e-05   4.0851926e-04   1.9846515e-04   2.5932086e-04   3.1748926e-04   8.0178346e-04  -1.3244407e-04  -3.2191409e-05   3.4308570e-05   3.3567767e-04   8.2406999e-08   4.9494830e-04   4.0525169e-04  -1.8180130e-04  -1.4301119e-04  -3.8496169e-04  -1.3385846e-04  -1.0680930e-05   4.7721027e-05   4.0909304e-06   2.6315307e-05  -7.5004165e-05   1.2981822e-04  -2.8133365e-05   1.1501904e-04   1.3431022e-04   2.2623772e-04
   1.2009362e-04   1.2946482e-04   8.4900552e-05   2.2171070e-04  -3.2780998e-05   2.4288458e-04   1.7009735e-04   3.4572298e-04   2.2397237e-04   4.2999760e-05  -1.7392227e-05  -1.5571610e-05  -5.8184862e-05   2.0155197e-04   2.1530260e-04   1.0264012e-04   2.8347247e-04   3.0063147e-05   4.3821899e-04   9.0759648e-05  -2.6920439e-05   6.8574591e-05   2.3139598e-04   6.1987463e-05   1.3890355e-04   2.4171983e-04   2.4077202e-04   2.3178605e-05   8.8330948e-05  -1.2381551e-04   3.5911286e-04  -8.6708525e-05   2.1602352e-04   3.8312218e-04   4.2725209e-04   2.5150640e-04   5.7392009e-04  -3.1979333e-04  -4.6724436e-04  -3.0090939e-04   1.1904308e-04   5.2795807e-05   2.3816088e-04  -8.9666304e-05  -9.7480508e-05  -6.9362068e-06  -3.0761526e-05   3.4992241e-05   1.5786539e-04   2.5165518e-04
   1.1620526e-04   1.1506971e-04   7.0552800e-05   2.4377587e-04   1.4547298e-04   4.9452610e-05   2.4812430e-04   1.4471178e-04   5.1321331e-05   2.1300235e-05  -5.4150765e-05  -4.6938028e-05  -1.1758927e-04   8.5724474e-05   3.6535534e-05   2.0640550e-04   2.2342856e-04   4.9982180e-05   4.2645181e-05   5.7981273e-05  -2.7580598e-05   1.1699773e-04  -2.0900433e-04   1.1309527e-04   3.7758730e-04   1.8473115e-04   3.5009757e-04   1.7779417e-05   1.8067384e-04  -1.2036342e-04   2.8819570e-04   4.7909842e-05   3.7009592e-04  -8.1030041e-05   1.0178904e-04   2.2092443e-04   5.0999812e-04   2.0646581e-05   1.6901974e-04  -3.7418187e-04   1.2300427e-04  -4.5487606e-05   1.8400028e-04  -2.5614721e-04  -8.8788955e-05  -1.1079160e-04  -2.5340159e-05   9.3954121e-05   1.5208889e-04   2.3367431e-04
   6.3515028e-05   1.5026724e-04   9.4234958e-05   2.1877035e-04   3.0005109e-04   1.8355818e-04   1.8202180e-04   7.4387441e-05   1.2173811e-04   1.2766132e-05  -6.0625247e-05  -4.2131458e-05  -9.7557335e-05   2.6001931e-05   5.7238834e-05  -2.0094998e-05   2.6703556e-04   7.1937153e-05   1.6669402e-04   1.2127464e-04  -4.1293435e-05   8.2586288e-05   1.3939280e-04   5.9410508e-05   6.3990774e-05   1.5693544e-04   6.2633445e-04   4.2628881e-04  -1.5195335e-04  -9.5619253e-05   4.9260980e-04  -9.7016826e-05   5.9101731e-04   2.1893310e-04   6.6587556e-04   2.8666609e-04   6.4639469e-05   2.3583022e-04  -1.6586737e-04  -5.4515537e-04   1.4967840e-04   1.7187458e-06   1.4889587e-04  -1.8903709e-04  -8.3944920e-05  -9.1765040e-05   6.0736879e-06  -5.8249545e-05   9.1327398e-05   1.9177336e-04
   1.3579226e-04   9.0984824e-05   7.0106653e-05   2.1851722e-04   1.7914861e-04   1.3727351e-04   9.6260537e-06  -2.4123624e-04   2.1388408e-04   3.9962968e-05  -3.6132649e-05  -3.3206175e-05  -3.5682133e-05   1.4510070e-04  -1.1960538e-04   1.1690279e-04   2.3092177e-04   5.0466788e-05   2.2689138e-04   2.3511322e-05  -4.4320121e-05   1.4844755e-04   1.2912658e-04   1.0115375e-04   3.4079319e-04   2.1841546e-04   5.6141801e-04   3.2054560e-04   3.0036827e-04   8.3074359e-05   5.7824410e-04  -8.6940883e-05   2.1100344e-04  -1.9837515e-05   5.0914462e-04   3.4380643e-04  -6.9985028e-05   2.1706836e-04  -3.2679024e-04  -1.5603365e-04   4.5925470e-05   1.0002480e-04   2.1866630e-04   3.9118037e-05  -3.3064520e-05  -1.9744747e-04   1.7171191e-05  -5.5432451e-05   1.5802929e-04   3.2295941e-04
   6.2674721e-05   1.3757074e-04   1.0062339e-04   2.2788647e-04   1.9890997e-04   1.7462489e-04   1.0815023e-04   2.3424489e-04   1.4009756e-04   3.1428081e-05  -5.8451056e-05  -3.0802774e-05  -1.3048005e-04   1.6989920e-04  -2.1819978e-04   1.7475244e-04   1.6151629e-04   1.5450543e-05   8.5092819e-05   2.8367853e-05  -3.2975375e-05   8.6493194e-05   2.0243305e-04   1.2420681e-04   6.0526386e-04   1.7587046e-04   1.2170505e-04   7.8384357e-05  -1.1846613e-04  -4.7246209e-05  -4.0723553e-05   5.2885145e-05   1.6863353e-04  -1.3490921e-04  -2.1104066e-04   2.7262690e-04   1.5881019e-04  -2.3698634e-04  -6.3405852e-05  -4.4707951e-04   1.8013245e-04   4.3282751e-05   2.2504301e-04  -1.5736597e-04  -1.4900928e-04   1.6531143e-04  -6.6479413e-05  -4.8263842e-05   1.2512386e-04   3.4610758e-04
   1.4007950e-04   1.3752870e-04   6.8278496e-05   2.2946761e-04  -1.5702301e-04   1.1713969e-04   1.8774952e-05  -1.8211562e-04   2.1452348e-04   3.3770430e-05  -5.8519789e-05  -2.6410708e-05  -1.3706705e-04  -5.7757929e-06   2.9582996e-04   2.9195884e-05   2.7897593e-04   4.7620862e-05  -1.6122816e-04   7.0810485e-05  -3.9400253e-05   2.7180024e-05   8.1715494e-05   4.9428116e-05   1.1709654e-05   1.3873643e-04   8.5877033e-04   1.9196040e-04   3.6428764e-04   7.4828786e-05   4.7777910e-04   1.0375142e-04   4.6742527e-04   2.8950151e-04   3.6228783e-04   3.7442893e-04   2.6778184e-04  -1.6756123e-04  -3.6451826e-04  -2.1230156e-04   1.2544463e-04   7.1324881e-05   1.5293142e-04  -3.8153790e-05  -4.5491604e-05  -1.3973862e-04  -2.1941119e-05  -2.4695510e-05   8.4760461e-05   1.0386990e-05
   1.4304051e-04   1.4937772e-04   2.9010931e-05   2.2807489e-04   3.2065374e-05   1.8256059e-04   2.0550468e-04  -2.7576821e-06   9.2433642e-05   3.7507914e-05  -4.0038911e-05  -2.8041735e-05  -8.8688379e-05   1.6833621e-04  -2.3507149e-04   3.6647791e-05   1.7280172e-04   4.4663604e-05   4.3631284e-04   5.2385196e-05  -2.0789092e-05  -2.5674715e-05   1.3035332e-04   9.2884635e-05   6.5234536e-04   6.1395658e-05   1.7901215e-04  -6.2647683e-05  -1.0508812e-03   2.2950822e-05   2.1518990e-04   1.4941447e-04   4.5957771e-04   9.7254138e-05   2.8526381e-04   2.3266455e-04  -1.8923540e-04  -1.9447504e-04   1.3173489e-04  -3.4353597e-04   1.8861411e-04   1.2375077e-05  -1.7518937e-04  -2.4355303e-04  -3.9045794e-05   7.9499769e-05   1.7864597e-05   1.1170592e-04   1.2612376e-04   6.1802435e-05
   1.5445576e-04   1.6204358e-04   5.3447635e-05   2.8833793e-04  -5.3918615e-05   1.8419134e-05   1.5474310e-04   1.2450675e-04   1.2964402e-04   6.5046828e-05  -6.6473767e-06  -1.5732032e-05  -6.5614426e-05   1.6246451e-04   1.9626722e-04   8.4192747e-05   1.8318192e-04   1.2595624e-04   2.8189385e-04   6.3318577e-05  -4.3556684e-06   2.6163812e-05   1.2900976e-04   7.0075112e-05   2.7945591e-04   2.4993718e-04   1.8454270e-04   2.8585325e-04  -2.1100600e-04  -1.7323402e-04   3.0773794e-04   1.8577822e-04   2.7634556e-04   2.3150774e-04   6.7049288e-04   3.7119797e-04   6.7409645e-05   3.7327781e-04   6.6614615e-05  -5.2462132e-05   8.5382148e-05  -7.6358965e-06   3.2218359e-05   3.1643580e-05  -1.1259382e-04  -2.5389618e-05   2.0174757e-05  -8.6153224e-05   5.4931603e-05   1.8882267e-04
   1.9694580e-04   1.8227474e-04   6.7857014e-05   3.0332038e-04   3.6944168e-06   3.7546596e-04  -8.9078130e-05   2.5244648e-04   1.6310310e-04   5.9519964e-05  -8.4422481e-06  -1.3297252e-05  -9.0505702e-05   1.3720206e-04  -1.1605711e-04   6.7987938e-05   6.4809166e-05   9.7588956e-05   1.0855738e-06   2.7042293e-05  -1.1458591e-05   3.2658377e-04   1.8824571e-04   6.2263287e-05   9.0965383e-05   1.1152852e-04   5.3598160e-05   3.6699491e-04   6.0747640e-05  -2.4869878e-04   1.5036647e-04   2.7496606e-04   4.4591061e-04   4.1988335e-04   5.5916799e-04   4.4511478e-05   4.0761899e-04  -4.3475922e-04   4.0381678e-05  -2.0389292e-04   2.8620292e-05   8.6490381e-06   1.5636836e-04  -1.1313670e-04  -1.2281149e-04  -9.7858698e-05   4.9586175e-05  -6.8936852e-06   7.9781552e-05  -7.8832512e-05
   1.6929882e-04   1.4680691e-04   3.0112698e-05   2.6367491e-04   1.7115966e-04   5.3553227e-05   3.1146314e-04   2.1237378e-04   1.5954836e-04   6.7015229e-05   2.2206590e-05   1.8708219e-05  -8.4453379e-05   1.3104155e-04   2.7483693e-04   1.6990684e-04   1.0880733e-04   1.1347553e-04   7.7983757e-05   6.2502353e-05  -1.4942323e-05   6.9395130e-05   7.1097915e-05   2.5652692e-04   1.1820773e-04   1.0011884e-04   3.2822735e-04   2.7570530e-04   8.3005504e-04  -7.5103853e-05   2.8425752e-04   1.1699216e-04   5.9762358e-04   2.1391212e-05  -5.6446523e-05   1.7679529e-04   1.4073447e-04  -1.4697005e-04  -5.1686278e-04  -3.5418404e-04   1.7509829e-04   8.6656459e-05  -5.0564060e-05  -1.4356153e-04  -5.9008045e-05   6.8963309e-05   5.4242784e-05  -1.0391926e-04   7.9947808e-05   2.7802694e-04
   2.4704711e-04   1.5298257e-04   9.2390401e-05   2.5790650e-04   4.0582057e-05  -4.3779142e-05   9.5629402e-05   7.5686286e-05  -1.6869595e-05   6.3913016e-05  -7.4954733e-06  -2.0882140e-05  -8.6715067e-05   1.2946497e-04  -5.8336252e-07   1.6780374e-04   1.6590369e-04   6.5047752e-05   4.1590542e-05   5.7607496e-05  -5.9426720e-06   1.3215211e-04   9.5459887e-05   1.2447378e-04   7.7557510e-05   1.6502505e-04   2.4813332e-04   3.7720229e-04  -3.8419041e-04  -2.2672168e-05   1.7653751e-04   6.3178290e-05   3.7759516e-04   3.6457082e-04  -9.5790165e-05   4.4211512e-04   4.5451909e-04  -3.5386827e-05  -5.1759288e-04  -1.9690761e-04   2.3423307e-05   8.6557720e-06   1.7427248e-05  -1.3993765e-04  -1.0095766e-04  -1.5198746e-04   2.3008341e-05  -6.7768087e-05   6.8554931e-05   1.9494507e-04
   1.9807435e-04   1.4955204e-04   7.7232682e-05   2.7144267e-04   2.3874860e-04  -2.3371240e-04   2.5730528e-04   2.3294304e-04   1.9033585e-04   5.3127485e-05  -2.7257567e-05  -4.3139999e-06  -1.2624788e-04   6.9221845e-05   5.6595487e-05   5.8330304e-05   1.8213736e-04   4.2536772e-06   2.7873833e-04   5.8043301e-05  -1.2900436e-05   4.8380251e-05   6.6470733e-05   9.4382747e-05   1.8669019e-04   1.4419093e-04  -1.8667924e-05   7.4714590e-05   7.3113595e-04   3.1903750e-05   2.0676538e-04   1.1304938e-04   4.0076851e-04   5.4135401e-04   3.9779817e-04   2.8226012e-05  -3.0243961e-04  -2.9825338e-04  -6.1000072e-05   8.6629193e-08   3.1501804e-05  -3.6783769e-07   7.3376868e-05  -1.8476410e-04  -9.6651223e-05   5.4428107e-05   7.2566759e-06  -6.6016378e-06   7.3566960e-05   1.6529429e-04
   1.4424625e-04   1.5005388e-04   4.9658029e-05   2.5130992e-04  -6.2967920e-05   9.0459573e-05   4.5442168e-05   3.2667187e-04  -5.6845689e-05   4.2165379e-05  -4.3747030e-05  -3.4016652e-05  -2.3841956e-05   1.5997043e-04  -3.2525659e-05   9.3992467e-06   2.7777351e-04   6.2190127e-05  -1.2499950e-04   4.8670903e-05  -8.7183826e-06   1.0968134e-04   2.1265809e-04   1.1835137e-04   3.8673717e-04   1.1638299e-04   8.3948817e-04   3.9749258e-04   1.4179311e-04  -7.8569625e-05  -4.9146876e-04   2.6582478e-05   2.9748416e-04   3.8162104e-04   3.2850448e-04   2.3020868e-04   3.9514687e-04  -4.6000135e-04  -6.6111912e-05   1.8402790e-04   1.5788323e-04  -3.2902790e-06   1.0713736e-04  -1.3013516e-04  -1.1508878e-04  -8.4638508e-05  -4.3298372e-05  -4.7547266e-05   4.3605156e-05  -1.2316757e-04
   1.0074001e-04   1.5149501e-04   8.7059430e-05   2.4112854e-04   1.9323888e-04   1.6469238e-04   1.2134838e-04   4.0357737e-04   1.3607687e-04   6.1208957e-05  -3.5305806e-05  -1.2535206e-05  -8.7996297e-05   1.2877725e-04   4.5997884e-05   3.5171855e-05   1.1068876e-04   9.4131741e-05   4.6322707e-04   4.5189288e-05  -2.6901786e-05   1.0961049e-04   3.5085878e-04   6.7103603e-05   6.7027897e-05   1.6763751e-04   5.4763473e-04   3.5134537e-05   1.2905315e-03  -1.2489308e-04   4.2012165e-04   5.1440536e-05   1.7996684e-04   3.1866183e-04   5.7260675e-04  -2.6518852e-05  -7.8678844e-05  -7.5191364e-04  -2.2992305e-04  -2.8427324e-04   1.0594805e-04   7.3584990e-05   2.8506579e-04  -8.5706029e-05  -1.6322991e-04   1.0066571e-04   4.6193814e-05   1.7454830e-05   2.0401267e-05  -5.0414317e-05
   1.5063169e-04   1.3788106e-04   5.8569261e-05   2.2495331e-04   3.6099882e-05  -1.3120784e-05   7.4764102e-05   9.7914863e-06   1.1238641e-04   5.2174233e-05  -6.9155860e-05  -2.4146466e-05  -7.0961541e-05   1.0850706e-04   2.3493587e-04   1.7354937e-04   1.6195646e-04  -6.1240462e-06   2.2915614e-04   2.3550381e-05  -3.4017830e-05   7.4893003e-05   2.9229976e-05   8.0886937e-05   2.1392052e-04   1.0431114e-04   1.3027889e-04   2.4451531e-04   5.6971185e-04   7.4651776e-05   1.1883247e-04  -3.5698824e-05   3.8877141e-04   5.9568742e-05   3.1991725e-04   2.8585695e-04   1.9840214e-04   9.0477370e-05   1.0948792e-05  -4.1627538e-04   1.1043733e-04   9.1503098e-05   7.4524134e-05  -1.1184551e-04  -1.6603740e-04   1.6363923e-04  -4.4243214e-05   8.3362793e-05   5.4190485e-05   3.0518691e-05
   8.3703591e-05   1.3639174e-04   6.4532120e-05   2.1369870e-04   1.5895603e-04  -1.9131438e-04   7.6045464e-05   2.6542789e-04   1.8803119e-05   4.4539502e-05  -5.3109616e-05  -1.7593329e-05  -8.2401857e-05   6.4269065e-05  -1.0013222e-04  -1.5917328e-06   2.2987733e-04   4.4794248e-05   4.6814101e-05   4.3925585e-05  -4.2224234e-05   1.7464008e-05   1.6265073e-04   7.8603240e-05   2.3620621e-04   1.6340817e-04   3.2652097e-04  -6.2167957e-05   1.0395805e-05   1.0178269e-04   4.5451260e-04  -4.6108207e-06   2.6196174e-04  -6.6819652e-05   5.0103181e-04   2.6542175e-04   2.6732998e-04  -1.4492752e-04  -5.1348074e-05   2.2606970e-05   7.6049910e-05   5.2063209e-05  -1.6328726e-04  -1.1545185e-04  -1.0441140e-04   1.8445375e-05  -4.5557763e-06   1.1847671e-04   6.9915113e-05   2.4847739e-04
   4.4446642e-05   1.2249824e-04   7.5377342e-05   2.2396303e-04   1.6854820e-04  -3.4883444e-05   2.2625264e-04   1.8870363e-04   1.4307254e-04   5.1350540e-05  -7.1899405e-05  -4.0005641e-05  -7.7169592e-05   1.1244875e-04   1.5597060e-04   2.1278000e-04   2.7119543e-04   5.8006233e-05   1.1404818e-04   5.7707119e-05  -6.2375890e-05   8.9327412e-05  -2.5156671e-05   3.7308659e-05   3.7493880e-04   2.1642842e-04   2.9675441e-04   1.9136957e-04  -2.9546098e-04  -5.5728146e-05  -1.5335402e-04  -6.4935921e-05   2.7291875e-04  -1.1812015e-04   2.8480709e-04   2.9079785e-04  -3.2509636e-04  -6.6922995e-04   8.4840458e-06  -3.9478054e-04   1.6275520e-04  -4.4750148e-05   2.8831713e-04  -2.2391985e-04  -1.2987790e-04  -2.9131530e-05  -1.1706185e-05  -2.2279637e-05   8.9419584e-05   1.4480803e-04
   7.2848430e-05   1.2710194e-04   7.3300507e-05   2.1100674e-04   1.8176173e-05  -2.6263633e-05   1.2252154e-04  -6.4331311e-05  -5.9263424e-05   4.5546698e-05  -9.0413836e-05  -3.7320737e-05  -1.0984244e-04  -6.7879300e-05  -1.4323766e-04   2.7730415e-05   2.3930514e-04   5.8276830e-05  -7.4052383e-05   1.3042006e-05  -5.1469902e-05   1.9757176e-04   2.1268342e-04   3.3529781e-05   1.5942990e-04   1.1155767e-04  -3.0500910e-04   2.1964265e-04  -3.9401205e-04   1.7569315e-05  -2.5897042e-04   4.1915388e-05   3.3341814e-04   1.5639223e-04   2.2807581e-04   2.9416927e-04   7.2248210e-04  -2.2509505e-04  -6.0054089e-04  -5.3707208e-04   4.4868091e-05   3.4959026e-05   3.2903816e-04  -1.2681236e-04  -1.1006149e-04  -1.2979051e-04  -1.0033544e-04   4.2013613e-05  -6.5675554e-06   3.3377417e-04
   1.6093504e-04   1.2645008e-04   2.7851433e-05   2.1768267e-04   1.0000884e-04  -2.8884684e-05   1.8235962e-04   1.3751608e-04   8.5648258e-05   6.6059540e-05  -7.7405479e-05  -3.3181257e-06  -8.7080087e-05   5.7638736e-05  -2.1145256e-04   7.9426711e-05   1.6842264e-04   7.1647919e-05  -3.6797812e-04   3.5810870e-05  -4.8423339e-05   5.8581463e-05  -1.2129526e-04   1.2626745e-04   3.8356133e-04   6.8870053e-05   1.9516333e-04   7.9955702e-05  -8.4268831e-05   1.5296605e-04   3.6504160e-04   2.5843970e-05   3.4174725e-04   2.5153620e-04  -8.8311070e-05   1.6284111e-04   7.2826464e-05   3.1151762e-05  -6.6929126e-05  -4.7312642e-04   1.5575868e-04  -1.3945571e-05  -1.1377521e-04  -4.0634055e-05  -1.3758711e-04  -9.1187227e-05  -8.0922349e-05  -9.5850039e-05   6.1082159e-05   2.1144062e-05
   7.3730487e-05   1.1558060e-04   2.8615128e-05   2.2256449e-04   1.2140021e-04   1.8802723e-04   2.3457910e-06   6.8735208e-05  -1.6687161e-05   6.5887856e-05  -6.4276559e-05  -2.7512335e-05  -9.2564434e-05   4.2835778e-05   2.4386717e-04   9.1227841e-05   1.5899206e-04   1.8467401e-05   1.2831483e-04   5.7586934e-05  -4.3620592e-05   4.1988398e-05   2.7325327e-04  -7.0991046e-05  -2.6674743e-04   9.1716094e-05   3.0934854e-05   2.5113820e-04  -3.8020153e-04  -1.0401390e-04   3.8122656e-04   1.0504579e-04   1.8306868e-04  -1.6863590e-04   3.9424386e-04   1.3696680e-04   4.5917279e-04   1.5715368e-05  -1.1512151e-04  -2.9611983e-04   1.1055161e-04   1.6189502e-05   2.0343723e-04  -1.4624836e-04  -1.6297194e-07   2.0624901e-05  -3.8397720e-05  -5.4699889e-05   8.1179147e-05   2.7905463e-04
   1.2576164e-04   1.4135690e-04   1.2952714e-05   2.0605449e-04   3.5805722e-05   1.7408266e-04   1.5718272e-04   5.1331896e-05   4.0417017e-05   6.6799468e-05  -7.0547969e-05  -9.9381159e-06  -9.0810012e-05  -1.9859188e-05  -2.4340345e-04   8.0293532e-05   2.7227966e-04   6.3450298e-06   1.6744406e-04   4.8583832e-05  -5.4350683e-05  -9.9826349e-05   4.9322163e-04   4.5889083e-05   1.3412136e-04   5.6861751e-05   3.7930807e-04   1.2814387e-04  -2.1138394e-04  -1.4644531e-04  -4.8473289e-06   1.4310202e-05   3.7718134e-04  -1.4949226e-04  -1.8087354e-04   2.5624427e-04   3.6492880e-04   2.0538761e-04  -1.4388723e-04  -2.7264874e-05   1.0596663e-04  -5.9122289e-05   1.4916285e-04  -1.1707484e-04  -1.3540818e-04   1.0250904e-04  -1.0055117e-04  -5.5525677e-05   4.2654745e-05   3.6654863e-04
   1.0721759e-04   1.0462835e-04   2.3869572e-05   1.6336152e-04   2.1094705e-04   1.0786956e-04   9.6590848e-05  -2.3320394e-04   1.4880828e-04   6.6538581e-05  -7.2154297e-05   1.3444851e-05  -1.2489317e-04  -8.1549069e-06  -1.4430248e-04   5.1909417e-05   1.5491071e-04   4.4877201e-05   3.2890448e-04   3.2100343e-05  -4.6425132e-05  -6.9547852e-05   1.5411025e-04   3.8749342e-05  -1.3077109e-04   9.3341019e-05   4.8703951e-04   1.5098797e-04   6.3433335e-04  -2.6445301e-05   2.8592319e-04   4.7688514e-05   1.1608168e-04   1.2326115e-04   1.2973051e-04   8.6023072e-05   2.9245321e-05  -4.3137505e-04  -2.9823743e-05  -1.0791026e-04   2.1666461e-05  -7.3846437e-05   1.8088233e-04  -1.4890076e-04  -1.2570612e-04  -1.0663819e-04  -7.5864860e-05   2.0956948e-04   5.1762174e-05   1.8114125e-04
   6.8122601e-05   9.6381009e-05  -1.8705358e-06   2.2002395e-04  -1.8291246e-05   1.2576170e-04   1.0116729e-04   1.2268835e-04   1.3065615e-04   7.5543881e-05  -2.4613728e-05   3.6020778e-05  -6.3941545e-05   1.4615507e-04   2.4563400e-04   1.4524527e-04   1.7904709e-04   7.0158632e-05   2.5768837e-04   3.0103345e-05  -5.0898700e-05  -4.0195933e-05   9.9183671e-05   1.2469597e-04   1.0876783e-04   6.8167647e-06  -2.3059704e-04   2.9370934e-04  -5.4398499e-04  -9.4134703e-05   2.5004306e-04   8.6264386e-05   1.9931742e-04   3.9413443e-04   9.0485824e-05   4.8737036e-04   5.3039486e-05   3.8682247e-05  -2.6450789e-04  -3.8801507e-05   6.1963568e-05  -9.2614282e-05   1.7374798e-04  -1.8582537e-04  -9.0753107e-05   1.0282885e-05  -7.9775033e-05   2.3397128e-04   9.3849507e-05   1.2555026e-04
   3.5840469e-05   7.7852412e-05   7.2802512e-05   2.0750206e-04  -1.9896774e-04  -2.1302913e-04   1.0467639e-04   2.0334800e-04   2.5442551e-04   8.8163033e-05  -5.2129173e-05   3.9528582e-06  -6.6034634e-05   6.3406274e-05   1.6196290e-04   1.9923503e-04   1.9168320e-04   6.1852581e-05   4.7226288e-04   6.5846179e-05  -2.6556490e-05  -1.1737341e-04  -1.3503623e-04   2.5618792e-05   1.2410496e-04   9.5204326e-05   9.8555069e-04   1.7928213e-04   3.6243509e-04   5.1364601e-05   4.8512666e-04   6.2116182e-05   2.3085205e-04   4.1253992e-05   3.7098929e-04   3.2929541e-04   7.5969547e-05  -8.8140732e-05  -1.6437593e-04  -2.5461434e-04   9.4122224e-06   4.2320065e-05   4.0706873e-05  -1.7839849e-04  -7.0959271e-05   6.5743276e-05  -5.0372564e-05  -1.3585725e-05  -1.1010270e-06   1.5112081e-05
   8.0786180e-05   9.5737771e-05   2.8283283e-05   1.9951072e-04  -1.7856997e-04   1.0811681e-04   1.4330956e-04  -1.5889511e-04   7.8370576e-06   8.5876454e-05  -5.1150568e-05   2.3515664e-05  -6.7110108e-05   4.5584446e-05   3.6836797e-04  -6.3266765e-05   2.1542945e-04   8.6592685e-05   1.2685766e-04   2.4328772e-05  -3.7341160e-05   4.5821329e-05  -4.2871467e-05   1.0312437e-04  -2.7180259e-04   8.4060979e-05   9.4877835e-04  -1.1658187e-05  -2.9795387e-04  -4.4653643e-05  -1.2010020e-04   8.5043386e-05   1.8504725e-04   4.1010091e-05   2.3317208e-04   2.8582699e-05   1.1491695e-04  -4.6403799e-04  -2.1953789e-04  -2.5523046e-04   3.5460936e-04  -4.9743256e-05   2.5346869e-04  -2.9351682e-04  -5.5635872e-05   6.5285611e-05  -9.6600606e-06  -7.4479656e-05   5.4132030e-05   6.4803447e-05
   5.6427278e-05   1.0703332e-04   3.5759742e-05   2.0534248e-04  -1.1793111e-04   1.7243429e-04   2.3992776e-04   5.5421231e-05   1.3277600e-05   1.0068710e-04  -6.5262780e-06   5.4974396e-05  -6.7586945e-05  -5.2076826e-05   2.4770614e-04   4.6793681e-05   4.3817869e-05   4.7051908e-05   8.5650056e-05   2.1234182e-05  -1.3294859e-05   2.2965349e-05   1.5284815e-04   6.3721389e-05   3.7835026e-04   9.9416226e-05   6.3379982e-04   1.7555183e-05   8.2154165e-04   4.5097495e-05   3.2057197e-04   1.9195038e-04   3.1996649e-04   8.3644445e-05   4.3622746e-05   1.1080099e-04   2.8728158e-04  -1.7077343e-04   1.8768813e-04  -1.3356515e-04   1.4283447e-04  -1.6789472e-05   1.9024592e-04  -2.1998862e-04  -8.7948465e-05  -9.5214709e-05  -2.6758458e-05  -1.1266338e-04   3.8498712e-07   9.4504729e-05
   1.7617508e-04   9.7358527e-05   6.3708627e-05   2.2087642e-04  -2.5495081e-04   2.9393448e-04  -1.1399358e-04   1.3616661e-04   1.3247831e-04   9.4936819e-05  -7.4336540e-06   5.2184492e-05  -7.8372468e-05   1.6248980e-04  -6.1351202e-05   6.5552689e-05   1.5335393e-04   2.3246133e-05   3.4979382e-04   3.6355465e-05  -6.7162409e-07   2.9068993e-05  -1.0765754e-04  -2.5482914e-05   8.3386338e-05   9.0097426e-05   3.6354955e-05   2.6319080e-04   3.5063436e-04   4.0343907e-06  -7.9386286e-05   1.1522352e-04   4.7762226e-04  -2.2905642e-04  -2.5132682e-05   2.3074151e-04   1.3392602e-04  -3.1589443e-04   1.5812796e-04  -5.3179835e-04   1.4463211e-04   3.2184809e-05   6.8052410e-05  -2.9144787e-05  -1.7532055e-05  -1.0632678e-04  -1.2617998e-05   1.1507647e-04   5.5818946e-05  -1.0399736e-04
   1.7722626e-04   7.6470038e-05   3.6494101e-05   2.6624423e-04   2.4818952e-04   7.5095286e-06   6.1471728e-06  -1.1784209e-04   1.5506835e-04   9.5301293e-05  -1.6085198e-05   3.5352015e-05  -6.9669652e-05   3.6364920e-06   1.9681009e-05   1.1762203e-04   1.7967778e-04   5.9598337e-05   3.4741306e-04   4.7085392e-05  -1.7734013e-05   6.3852836e-05   2.8503491e-04   4.7804297e-05   1.4265344e-04   6.1497230e-05   2.1577036e-04   2.4783061e-04   2.1324630e-04  -1.5914638e-04   3.0740579e-05   4.1265834e-05   4.7188642e-04  -3.9496567e-04   2.2992890e-04   1.8732480e-04  -1.1453941e-04  -2.9029747e-04   6.6081600e-05  -4.8011440e-04   2.4173067e-04   1.0008212e-05   1.1894105e-04  -2.0287969e-04  -9.3499853e-05  -2.1684704e-05  -7.2213988e-05   1.5007120e-04   6.3639913e-05   7.6942915e-06
   9.9689300e-05   7.4188320e-05   3.9570939e-05   2.0171035e-04   1.6076614e-04  -2.2677785e-04   4.6245146e-05  -2.5785618e-04   2.9750125e-04   9.7206728e-05  -6.3065877e-06   2.8579165e-05  -2.2497708e-05   1.4000834e-04  -1.2394305e-05   9.9855417e-05   1.4326976e-04   3.7907208e-05   3.9890574e-04   5.9995346e-05  -1.9189940e-05  -2.4803145e-05   1.4202030e-04  -1.1298955e-05  -1.5242198e-04   3.4348119e-05   1.3299509e-04   1.2165610e-05   3.2079627e-04   3.0945575e-05   3.2040212e-04  -1.3535631e-04   3.4161555e-04   5.9731679e-05   3.3412199e-04   1.4698970e-04   2.0364287e-05   2.0911510e-04  -4.5450439e-04  -2.0023172e-04   2.3253111e-04   4.1584932e-05   4.4442819e-05  -1.9805535e-04  -1.4395401e-04   1.5036117e-04  -7.3702545e-06   3.0742187e-04   8.4379935e-05   3.6404323e-05
   1.4127235e-04   8.0202466e-05   4.2597716e-05   1.9741415e-04   1.9656961e-04   1.3151037e-04   1.0658937e-04   2.0545222e-04  -2.2293934e-05   1.0490434e-04  -8.7107428e-06   4.0129820e-05   6.6061421e-06   3.3165335e-07  -4.7323192e-06   1.3345793e-04   2.0437058e-04  -3.1410877e-05   2.2655822e-04   6.3541811e-05  -1.6775795e-05   5.8041333e-06   9.9447643e-05   1.3033720e-04  -1.3126438e-05   2.2553215e-04  -2.9623165e-04   3.7284463e-04   2.4163137e-04   8.0448066e-05   8.1623980e-04  -7.1181443e-05   3.0374710e-04   7.7412878e-05   3.8924784e-04   3.2432668e-04   2.5955579e-04   1.4326144e-04  -4.4627910e-04   6.1482038e-05   3.7181104e-04   1.1785398e-04   2.8543983e-04  -1.6715366e-04  -9.3353643e-05  -1.0883914e-04  -5.7238856e-05   4.3270404e-05   8.2690844e-05   2.4072429e-04
   9.7303615e-05   4.5117416e-05   1.4615660e-05   1.6403873e-04  -1.7504091e-05   3.1698833e-04  -1.3225342e-04   1.4761320e-04  -1.1134848e-04   1.0190738e-04  -3.4209452e-06   1.0505920e-05   1.3403838e-05  -7.5938202e-05   3.3384054e-05   1.0925357e-04   2.0417482e-04  -2.0721820e-05  -3.0722254e-05   5.8333088e-05  -3.2820233e-05   1.2965272e-05   1.0237373e-04   9.7500568e-05   1.1936779e-04   9.5765790e-05   7.8476634e-04   2.7142861e-04   7.0752355e-04   1.5945612e-05  -3.5556123e-04  -1.4711455e-04   5.3928071e-04  -2.1067768e-05   4.9448458e-06   1.8215342e-04  -1.1678859e-04  -5.2936468e-04  -3.1871774e-04   7.9318357e-05   1.9171150e-04   1.0905836e-04   1.8891919e-04  -8.0102815e-05  -7.6196528e-05  -8.6165062e-05  -6.2005776e-05   3.4697438e-05   7.5173099e-05   1.9531482e-04
   1.2041091e-04   5.2329109e-05   4.4442066e-05   1.8175891e-04   8.5443571e-05  -1.4469553e-04   5.3924941e-05   3.6588834e-05   1.1640961e-05   9.7156386e-05  -2.6674794e-05   2.6158479e-05  -2.0562163e-06   6.4787695e-05   1.5028220e-04   1.9674907e-04   2.1149102e-04  -4.9142767e-05   4.1815979e-04   5.1740994e-05  -3.2587370e-05  -6.3401683e-05   1.4455362e-04  -4.0146555e-05   7.7440149e-05   9.1216432e-05   5.0884270e-04   2.7062272e-04  -8.1146712e-04   2.0301279e-05   6.3656225e-06  -8.0737365e-05   2.3177124e-04  -1.9757122e-04   3.9029165e-04   2.8496273e-04   1.6394891e-04  -2.3333974e-04   1.1913876e-05  -2.5140334e-04   2.2999838e-04   1.0482605e-04   1.9945204e-04  -4.7935238e-05  -5.7342000e-05  -2.2951423e-04  -6.2396211e-05   2.7735983e-05   2.7773760e-05  -2.2906721e-04
   9.4315510e-05   3.5890003e-05   3.4788147e-05   2.0718330e-04   9.1680427e-05   1.4748394e-04  -7.4714146e-05   1.4199669e-04  -6.9041175e-06   9.2917842e-05  -2.5275867e-05   3.9864903e-05   2.4231518e-05   1.9816485e-05   2.8768156e-04   9.8509678e-05   2.6696923e-04  -5.4418950e-05   2.4547585e-04   2.9676192e-05  -2.1629139e-05   1.0281450e-04   2.1015889e-04   8.0382422e-05   2.1120072e-04   1.9368982e-04   8.6032756e-05   1.3496190e-04   1.5955100e-04   1.0596612e-04   4.3304148e-04  -1.5141569e-04   2.9385657e-04   3.8285280e-04  -5.3955675e-05   2.2732149e-04  -5.1265353e-05  -5.0001705e-05   4.1705952e-04  -1.5016759e-05   1.5818674e-04   2.0718229e-05   1.5124200e-04  -1.4238960e-04  -1.3850814e-04  -4.6467057e-06  -1.0186905e-04   1.3505941e-04   8.1276630e-05   9.7620730e-05
   1.4819120e-04   1.3558587e-05   4.2212960e-05   1.5583386e-04  -5.1454950e-05  -2.0639463e-04   4.0648556e-05   3.2212338e-04  -2.3983135e-05   9.2737944e-05  -3.3484404e-05   3.1199019e-05  -1.5026621e-05   1.4660056e-04   1.5096780e-05  -1.7856921e-05   2.5467997e-04  -2.3250630e-05   1.4187828e-04   7.1726892e-05  -5.3922824e-05   5.4612628e-05   1.4322324e-04  -3.3149179e-05   8.5110005e-05   7.3586831e-05   3.8344652e-04   3.4976259e-05  -3.5609977e-04   1.4629953e-04   6.6385073e-05  -2.1982355e-04   3.7233069e-04   1.6105555e-04   4.4869077e-05   1.5536032e-04   3.3951076e-04  -1.2100863e-04   8.0972268e-06  -5.9143675e-04   2.0599259e-04   2.6749226e-06   2.8563998e-04  -2.9007191e-05  -1.1433689e-05  -1.7592160e-04  -1.3952999e-04   1.0457906e-04   1.1252810e-04   1.5606405e-04
   7.3793875e-05   3.3949618e-05   2.6166321e-05   1.5537324e-04   2.4084444e-05  -1.5035016e-04   4.9199636e-05   1.7533964e-04  -9.6665870e-05   8.3634215e-05  -4.9029561e-05   1.7349017e-05   6.6550361e-05   3.1917971e-05  -1.8459599e-04   6.1259299e-05   3.3914862e-04  -1.7426059e-05   1.5961923e-04   7.7904529e-05  -7.0572176e-05   2.2398961e-05   1.0828032e-04  -1.9015357e-05   7.6779725e-05   1.3671865e-04   5.8803312e-04  -5.3675893e-05  -3.2149641e-05   3.6033784e-05   2.8071512e-04  -2.2462894e-04   1.9650157e-04   2.2920629e-04   3.6292704e-04   1.2068637e-04   3.3055889e-04  -1.8036933e-04  -8.0051781e-05  -3.6593372e-04   1.1045401e-04   2.0872096e-05   4.3732653e-04  -2.7093131e-06  -1.3167007e-04   4.0318830e-07  -1.2617104e-04   2.1088225e-04   9.7398515e-05   1.9389446e-04
  -4.5514662e-05   2.1463506e-05   6.5942164e-05   1.2519221e-04   4.5002824e-05  -3.9832023e-05   2.0041085e-04  -1.6399269e-04  -1.7380191e-04   8.7395463e-05  -9.4518764e-05   3.4440327e-05   4.9631512e-06   1.1171043e-04  -6.0896888e-05   1.7513553e-04   3.7662679e-04  -3.0374387e-05  -1.6893744e-05   1.1018671e-04  -7.2988791e-05   6.8796384e-05   2.6759290e-04  -6.1174054e-05   2.7924382e-06   9.6994190e-05   3.9541768e-04   4.1851838e-04   7.1992783e-04   4.5643224e-05   1.8119517e-04  -3.2866004e-04   2.8848092e-04   1.9983010e-04   1.8594624e-04   1.2904673e-04   7.7388581e-04   1.0241139e-04  -1.8283473e-04  -1.0637780e-04   2.0213895e-04  -3.6095080e-05   2.7271858e-04  -1.6750744e-05  -6.9743117e-05  -1.3716503e-05  -1.1825887e-04   9.5984156e-05   1.1873947e-04   1.1800784e-04
  -4.9439419e-05  -8.5488273e-06   3.6291854e-05   1.4006413e-04   1.8046079e-04  -2.2371512e-04   9.2984039e-05  -1.9610229e-04  -1.2369893e-04   8.8201537e-05  -9.8641794e-05   2.3532250e-05  -8.1018680e-07   2.5260728e-04  -1.0115170e-05   8.4152744e-05   3.9656711e-04  -7.1648770e-05   2.6789290e-04   1.6888285e-04  -9.2837865e-05   2.4849774e-05  -1.3470701e-05  -1.2470719e-04  -3.1057865e-05   6.0986971e-05  -1.5807370e-04   1.7671044e-04   4.2593328e-04   2.1851409e-05   6.7477865e-04  -3.9039968e-04  -7.5445823e-05  -5.3215324e-04  -3.6477004e-04   3.4609668e-05   6.5160939e-06   3.2391199e-06   4.8140904e-05  -6.2970171e-04   2.0796899e-04   3.6492402e-05   2.3900795e-04  -8.2065765e-07  -1.6408462e-04  -2.2674441e-05  -1.5286326e-04   1.0638254e-04   1.4753107e-04   5.0550129e-04
  -1.4880257e-05   3.3893502e-06   1.4117812e-05   1.1738414e-04   1.2753893e-05  -7.2911767e-05   1.2221208e-04   9.5226293e-05   7.8314384e-05   8.8722467e-05  -1.3252105e-04   8.4624098e-06   4.9320829e-06   4.1757903e-05   2.6559481e-05   2.1247206e-04   3.5447438e-04  -8.3411860e-06   3.5439935e-04   1.1465667e-04  -9.5707124e-05   2.6995165e-05   9.3589071e-05   3.2098920e-05  -1.1064955e-04   1.0134302e-04   3.3172319e-04   2.5222221e-04   2.1261084e-04  -7.2023497e-05   4.0820622e-04  -4.2893615e-04  -9.9229961e-05   1.2503342e-04   5.7303550e-04   1.3039254e-04   4.7913648e-04   3.7579538e-04   2.5169653e-04  -1.7542501e-04   2.7589596e-04   4.6865945e-05   1.7733594e-04  -8.9490306e-05  -4.1260890e-05   1.2498262e-04  -1.6688020e-04   2.0690533e-04   1.7058157e-04   1.7295605e-04
   1.5219340e-05  -6.5159897e-05   3.1186100e-05   1.3213145e-04   1.4015798e-04  -3.1843348e-04  -1.8809242e-05   1.0037787e-04   6.5616325e-05   1.1959319e-04  -1.3480922e-04   3.2315191e-05   4.5778797e-05   1.4456945e-04   2.1104690e-05   1.1845990e-04   3.2564692e-04  -3.0951222e-05   1.2982188e-04   1.2820374e-04  -1.0086242e-04   7.3322517e-05   9.1701600e-05  -3.4516492e-05  -2.2049141e-04   6.1100065e-05   5.2333559e-04   3.1017177e-04  -1.2465681e-04   2.2225213e-04   2.2818228e-04  -4.9346290e-04   2.1610908e-06  -6.8232686e-05   4.7335296e-04   9.5300951e-05  -3.3720638e-04   1.3505084e-04  -8.4155421e-05   1.1826381e-05   1.4088626e-04  -7.5860471e-06   2.6967440e-04  -9.8664859e-05  -3.6750713e-05  -2.1489849e-04  -1.2047595e-04  -1.1839243e-04   2.0096291e-04   2.1759958e-04
  -4.4431155e-07  -1.3941959e-05   1.5991047e-05   1.2709369e-04   1.2865633e-04   1.8433886e-04   1.1387205e-04   3.0814041e-04  -2.0479306e-04   1.2966261e-04  -1.2358377e-04   5.5475619e-05   2.3946632e-05   5.0554036e-06  -3.9462262e-05   8.4073406e-05   4.1736820e-04  -3.8173199e-05  -5.6437475e-05   1.1445028e-04  -8.7488319e-05   4.3190521e-05   6.7706387e-05   2.9730990e-07   6.0928211e-05   1.4022367e-04   1.5770880e-04   1.3448215e-04  -2.7767773e-04   1.2842882e-04  -1.0767292e-04  -4.0195079e-04   1.1167330e-04  -4.2622798e-04   2.6121218e-04   2.8083503e-04   2.0399776e-04  -4.8628356e-04   2.6641258e-06  -2.1269065e-04   8.6880507e-05  -8.5523861e-06   2.9021347e-04  -7.7843913e-05  -1.5156642e-04  -7.4762515e-06  -1.5400597e-04   1.9998448e-04   1.3127671e-04   2.2138628e-04
   7.9721294e-06  -3.6842946e-05   4.7788631e-05   1.3785936e-04  -1.4149581e-04   1.2110411e-04   8.7610402e-05  -3.6306278e-06   3.2079817e-05   1.2392222e-04  -1.2493084e-04   4.7368863e-05   3.1043859e-05   5.1008563e-05   1.2320232e-04   6.3427477e-05   3.6630794e-04  -2.4350529e-05   2.8259645e-04   1.3727728e-04  -8.4857231e-05   3.9087114e-05   2.0289164e-04   3.3489949e-05   6.3015184e-05   9.8009688e-05   5.5497355e-04   1.6588047e-04   2.3095623e-05   6.0152401e-05  -4.7449133e-04  -3.6708341e-04   8.4485000e-05  -1.8609742e-04  -2.6695649e-05   1.3696909e-04   1.2354214e-04   1.7627439e-04   2.4852656e-05  -1.8688525e-05   1.3095676e-04   4.5352765e-05   2.2485381e-04  -1.0271511e-04  -1.0745010e-04   4.4088607e-05  -1.5009088e-04   2.8393345e-04   1.3537638e-04   2.1129941e-04
  -6.1863189e-05  -9.5014038e-06   3.7424114e-05   1.2535439e-04   1.4705339e-04  -1.0429068e-05   1.0053689e-04   3.9949256e-05   1.5156862e-04   1.3330129e-04  -1.1376134e-04   8.1481900e-05   4.4183682e-05   2.0799838e-05   1.8621552e-04   8.6929271e-05   3.4661856e-04   3.7803547e-05  -2.1714710e-04   1.1089286e-04  -7.8539284e-05   3.4844823e-05   9.2714690e-05   3.0927076e-05   9.4776027e-05   1.3863933e-04   2.6033411e-04   3.0565180e-04   7.1286311e-04  -7.3684951e-06   6.9809495e-04  -2.9977821e-04   1.2644719e-04   1.3383395e-04   3.8349774e-04   1.9716953e-04  -3.3127822e-04   1.2573124e-04  -1.8971147e-04  -1.3069845e-04   2.1604572e-04  -2.4736612e-05   3.0244040e-04  -1.3236022e-04  -1.9696682e-04  -2.5918410e-04  -1.4546404e-04   1.7681604e-04   1.3385210e-04   3.1325230e-04
  -1.1692209e-05  -5.7224665e-06   2.3674094e-05   1.6134650e-04   1.1112854e-04  -1.3270765e-04   1.6821675e-04   2.5652206e-04  -1.0517594e-04   1.4242991e-04  -1.2873014e-04   8.0612146e-05   2.2535536e-05   9.0569411e-05  -8.7466098e-05   3.5468394e-05   3.4360800e-04  -2.9854456e-05   4.4376752e-04   1.2539985e-04  -8.2573591e-05  -8.0479258e-05   2.2142772e-04  -1.8851812e-05   5.4287253e-04   1.8003851e-04  -4.6226531e-04   1.8299099e-04  -5.6278479e-04   3.3705059e-05   7.7407743e-04  -2.6703672e-04   1.8888024e-04   2.6246336e-05   2.9122128e-04   2.6643160e-04   3.4745206e-04   3.1921850e-04  -1.2982138e-04  -9.5501760e-05   2.2459548e-04   4.2716831e-05   1.5943902e-04  -2.0141432e-04  -4.8171463e-05   3.0331668e-05  -1.9473633e-04   1.2988795e-04   1.0999862e-04   1.2589284e-04
  -8.0129037e-05  -4.3975098e-05   6.3466541e-05   1.5033787e-04   1.6090457e-04  -9.6273281e-05   4.9683560e-05   3.6732110e-04  -1.4640928e-04   1.3989437e-04  -1.4474873e-04   7.4109303e-05   2.5986503e-05   1.3593717e-04   2.7123344e-04   1.5960983e-04   3.9148179e-04  -2.6505881e-05   1.8005523e-04   1.6519675e-04  -8.4310668e-05  -6.2506428e-05  -5.6827041e-05   5.4529799e-05   6.9746740e-05   7.6449018e-05  -2.3436359e-04   4.9334031e-04   6.0774072e-04   1.5760673e-04  -4.7362375e-04  -3.6887795e-04  -1.1201709e-04  -2.3761089e-04   3.7194180e-04   1.5438528e-04  -1.6862764e-04   3.2153839e-05   1.5873856e-04   1.0928221e-04   1.4643776e-04  -6.3932173e-05   3.2322589e-04   4.2128766e-05  -1.8946604e-04  -9.2373637e-05  -1.7019566e-04   1.6012609e-04   1.3581388e-04   2.6263500e-04
  -8.1470344e-06  -3.3409808e-05   4.7428057e-05   1.5267344e-04  -2.7304224e-04  -2.8333976e-04   7.6753160e-05   1.8987170e-04  -3.9866129e-05   1.3851302e-04  -1.3164351e-04   1.0429994e-04   4.6927998e-05   2.0152557e-04   2.2421287e-04   2.8079487e-05   3.7310232e-04   1.9895522e-05   3.1243122e-04   1.1314466e-04  -8.7799039e-05   4.0306692e-05  -3.8655620e-04   5.0349699e-05  -2.1177688e-05   5.7284433e-05  -1.5571163e-04   2.2593202e-04   5.7322870e-04   1.6394045e-04   2.2119311e-04  -3.2909005e-04   1.6888183e-04   9.6730228e-06   3.1905103e-04   3.7214846e-05   5.5917611e-05  -2.0948413e-04  -1.1730051e-04  -5.5380206e-06   2.2003666e-04   9.4901443e-06   3.1332820e-04   8.8562578e-05  -1.5233764e-04   3.8785278e-05  -1.4487356e-04   2.5055037e-04   1.3817348e-04   2.4377256e-04
   2.6533771e-05   3.6685260e-06   3.3223212e-05   1.4882594e-04   2.5063797e-05   1.5937599e-06   2.3642945e-04  -6.3879743e-05  -8.3510771e-05   1.6187261e-04  -1.3619239e-04   8.4225700e-05   2.5667932e-05   2.0642186e-04   3.7426889e-05   1.7807404e-04   3.9334022e-04  -4.8390044e-05   9.0602196e-05   9.4718373e-05  -7.8210483e-05   2.1733764e-05   4.4711596e-05  -8.6645872e-05  -1.4106029e-04   7.0953902e-05   8.6991640e-04   8.9866953e-05  -5.1232078e-04   1.8149729e-04   4.0984794e-04  -3.0340659e-04  -1.1590426e-04  -3.9842626e-04   1.7257960e-04   1.1099901e-05   4.2094584e-04   3.3563032e-04  -7.6473130e-05   5.5239390e-05   1.2489338e-04   1.2859804e-05   1.3755581e-04  -1.0658285e-04  -7.4853968e-05   4.3734268e-05  -1.7043125e-04   2.2751013e-04   1.4707868e-04   2.9498595e-04
  -2.7905793e-05  -2.6075730e-05   5.2207044e-05   1.4645576e-04   1.4248896e-04   3.1801066e-04   1.3877489e-04   3.2112768e-04  -2.3976534e-04   1.5695448e-04  -1.3369850e-04   7.8583849e-05   6.7909139e-05   1.3298302e-05   3.5365103e-04   1.0253507e-04   3.3024224e-04   1.4486265e-05   1.8821715e-06   9.2458518e-05  -8.3528750e-05  -1.1771811e-04   4.8304122e-05   7.3539413e-05   2.0598227e-04   1.1067677e-04   2.8364090e-04   3.2356396e-04  -2.9628057e-04   5.3522555e-05  -1.2362555e-04  -3.5345729e-04  -5.1695570e-05  -2.3200396e-04  -1.7139377e-05   3.7489957e-05   5.6479522e-04   2.4532000e-04  -4.5348981e-05   8.6385910e-05   2.6070955e-04  -3.7975624e-05   6.5852626e-05  -2.1629665e-05  -3.3249606e-05   1.2587474e-04  -1.7579028e-04   1.6764132e-04   1.4583401e-04   3.2587021e-05
  -6.8296499e-06  -1.5610045e-05   3.2047206e-05   1.6254999e-04   9.8611075e-05  -1.0793697e-04   9.5537260e-05   1.1393126e-05  -4.3355834e-05   1.5407588e-04  -1.3301699e-04   8.7261134e-05   1.1138960e-04   2.0702255e-04   9.6587610e-05   6.0948842e-05   3.7047933e-04  -5.9710528e-05  -2.0671031e-04   1.2302860e-04  -8.8487242e-05   3.0352112e-05   2.8505374e-04   9.6046679e-05   1.9241785e-04   1.6445453e-04   3.2525233e-04   1.8560252e-04  -3.4316250e-05   2.5812711e-04   2.3803028e-04  -5.0170161e-04   8.9734116e-05  -2.2504010e-04   6.4436602e-04   1.0629930e-04   2.8908882e-05   2.7981991e-04  -8.5187588e-05   1.6985532e-04   2.7761143e-04  -3.6803012e-05   2.0009592e-04   1.5093655e-04  -8.5508080e-05   9.0423040e-05  -1.0123757e-04   3.4605784e-04   1.4049115e-04   2.2856036e-04
  -7.2891708e-06  -3.8822320e-05   3.8290389e-05   1.5805695e-04   1.5624201e-04   4.5368553e-05   9.1231355e-05  -8.8748180e-05  -7.9567117e-06   1.5312001e-04  -1.6914433e-04   1.0852726e-04   2.1696078e-06   2.5039434e-04   2.2663970e-05   1.5886741e-04   3.6049855e-04  -3.0344545e-05   3.0135989e-04   9.8863216e-05  -8.8330264e-05   4.2849544e-05   1.0020662e-04   9.9086465e-05  -1.2679059e-04   6.6827204e-05  -8.1277949e-06   2.9546249e-04  -2.3899668e-04   2.0200656e-04  -4.7951448e-04  -4.6870936e-04   1.8579459e-04   2.1422959e-04   2.6090516e-04   2.5122392e-04  -3.0493995e-05  -3.1853322e-04   3.1213817e-04   1.8351276e-04   1.5557538e-04  -4.5531473e-05   2.5915945e-04  -1.3616862e-05  -9.8722914e-05  -1.4866580e-04  -1.9315882e-04   2.3127848e-04   1.2263384e-04   3.1756170e-04
  -1.0227583e-04  -3.4985722e-05   3.9695933e-05   1.1100046e-04   1.2694871e-04  -1.9736754e-05   1.4694748e-04  -6.4447289e-05  -1.2882400e-04   1.5086962e-04  -1.7384211e-04   5.3601238e-05   4.1905074e-05   1.5640882e-04  -6.2397456e-05   4.3284810e-05   4.1380146e-04  -4.3104777e-05   4.0710674e-04   1.7422090e-04  -1.1624164e-04   4.3950953e-05   6.7369743e-05  -5.8178775e-05   1.4123724e-04   1.0471866e-04   3.8945914e-04   5.0366815e-04   1.0556115e-04   8.3024177e-05   7.3357759e-04  -5.4989749e-04  -8.2006853e-05   5.0218310e-05   1.4471302e-04   2.0244491e-04   1.2287813e-04   3.1626533e-04  -1.9691623e-04  -5.8360656e-05   2.6708280e-04  -5.1258263e-05   5.9805281e-04  -5.0297829e-05  -9.9536912e-05   4.3410964e-05  -2.0815349e-04   1.9042318e-04   1.3668685e-04   1.5922003e-04
  -9.5839911e-05  -4.6230893e-05   8.2934726e-05   9.5999676e-05   1.2014110e-04   2.4112735e-04   2.0066356e-04   1.7253460e-05   2.5193151e-05   1.5371553e-04  -1.7306452e-04   1.0330510e-04   4.9390073e-05   1.5169627e-04  -7.8796264e-05   6.4699045e-05   4.0107872e-04  -6.2254599e-05   7.5869371e-05   1.3228165e-04  -1.2904413e-04  -1.1848061e-04   4.9160502e-05  -9.9757817e-06  -3.3045429e-04   6.3858664e-05   2.3908542e-06   2.9452995e-04   2.2918571e-04   3.6280832e-04  -4.1951596e-05  -5.3459196e-04   9.0755573e-05   1.3267146e-04   2.9999163e-04   3.1144716e-04  -2.8283455e-04   1.7020619e-04  -9.2273862e-05  -2.9614499e-05   2.8132257e-04  -3.2877699e-05   1.3161312e-04  -4.1646384e-05  -2.6751281e-05   4.6261026e-05  -1.2563080e-04   1.4756559e-04   1.5614100e-04   3.2959899e-04
  -8.2892679e-05  -4.0971590e-05   6.0159964e-05   1.0922702e-04   1.3168497e-04   2.3872784e-04   1.2861476e-04   5.9732213e-04   8.6861610e-06   1.7071220e-04  -1.6416263e-04   1.0623657e-04   7.9991041e-06   2.7041417e-04   2.4100216e-04  -6.7264489e-05   3.6834387e-04  -4.9999271e-05   9.2939023e-05   1.5462955e-04  -1.2171129e-04   6.4317901e-05   2.4315485e-04  -7.4811025e-05  -1.7809904e-04   1.5868562e-04   1.4695140e-04   1.9552289e-04  -7.2465645e-04   4.8444388e-05   6.0652092e-05  -4.7342142e-04   1.6160820e-04  -5.7064331e-05   2.9462322e-05   1.5383682e-04   5.4319721e-04  -5.0019595e-04  -1.1656566e-04   2.2619482e-04   5.6795794e-05  -3.3392622e-05   4.0152721e-04   6.2206142e-05  -4.4595839e-05  -9.7250981e-05  -1.9712723e-04   1.2626214e-04   1.2103128e-04   1.9354213e-04
  -1.0487315e-04  -4.0170671e-05   7.6539596e-05   1.1890227e-04   1.4559465e-04  -2.3674431e-04   1.7963306e-04   7.7721190e-05   8.6102154e-05   1.9042027e-04  -1.6754930e-04   1.1268487e-04   1.8726629e-06   5.3678625e-05  -7.2763236e-05   1.5302339e-04   3.7900201e-04   9.3395838e-06   2.1082837e-05   1.0115677e-04  -1.2793492e-04  -7.5506439e-05   5.5224860e-05   4.5365126e-05  -7.6248325e-05   4.8638074e-05   8.6585198e-05   1.5851324e-04   4.5834031e-04   1.6531286e-04   7.1850326e-04  -4.4202915e-04  -1.0289555e-05  -3.3691249e-05   2.9414261e-04   3.4025789e-04   8.5485808e-05  -1.3507859e-04   6.0324866e-05  -1.2050752e-04   2.8031261e-04  -6.4541055e-05   9.1231261e-05   9.0048605e-05  -1.0842711e-04   2.7427684e-05  -1.4519783e-04   2.0470223e-04   9.7281227e-05   3.1010644e-04
  -6.4540429e-05  -4.9848761e-05  -2.6586613e-05   1.3023343e-04   4.4224522e-05   9.4665011e-05   1.0423164e-04   1.5275006e-04  -2.6711416e-05   1.8596051e-04  -1.7750054e-04   1.4938554e-04  -2.2889464e-05   7.8945144e-05   1.2349842e-04   2.3675966e-04   3.4723882e-04  -2.5377101e-05   2.0788769e-04   1.4101127e-04  -1.4065126e-04   2.4388342e-05   1.1210129e-05  -1.0567657e-05  -1.1840431e-04   1.0068840e-04  -1.2786419e-04   1.8852718e-04  -3.0499362e-04   1.1866457e-04   1.1525820e-04  -3.8774131e-04  -2.2443241e-04   3.6589138e-04   2.6778737e-04   2.3833828e-04   3.3285125e-04   4.0389792e-04  -5.1008728e-06   8.2965751e-05   2.8427289e-04  -1.6158261e-06   1.9307392e-04  -5.9919479e-05  -5.8167458e-05   6.6399763e-05  -1.0927024e-04   1.0679033e-04   1.2309736e-04   2.7522334e-04
   4.1871375e-05  -1.1018869e-05   3.8451308e-05   1.2977130e-04   5.7907055e-05  -1.0335667e-04   1.3689871e-04   7.6921033e-06   4.7499485e-05   1.9642610e-04  -1.5717310e-04   1.2886325e-04   1.1846830e-06   6.5714950e-05  -4.7170211e-05   1.3265068e-04   3.2657277e-04   2.3502653e-05   2.7379848e-04   1.1458304e-04  -1.3942296e-04  -7.4780990e-05  -8.0359670e-05  -9.2271142e-07  -1.7106443e-04   5.8850990e-05   1.1795775e-04   2.2148725e-04   7.5372889e-05   2.4674696e-04  -3.2168350e-04  -3.5705493e-04   2.9276297e-04  -4.3558321e-05   5.9738424e-05   2.3503895e-04  -6.1754708e-06  -3.3626482e-05  -2.4671762e-04   3.7306885e-04   3.2701707e-04  -3.8759586e-05   2.9867605e-04   5.8577280e-05  -1.4035907e-04  -1.3649988e-05  -2.1311635e-04   1.0507661e-04   9.7469885e-05   4.1477327e-04
  -1.0547219e-04  -5.4450302e-05   9.5663432e-05   1.0914527e-04   1.1553373e-04   2.7555352e-04   1.5326696e-04  -2.2326590e-04   3.0960276e-05   2.0618014e-04  -1.7800949e-04   1.6110817e-04   2.2742408e-05   7.7231911e-05   1.0337674e-04   7.3476163e-05   4.2240019e-04  -4.8051070e-06   1.4991991e-04   1.4504112e-04  -1.6939490e-04  -3.1155021e-05   1.7713360e-04   9.0906215e-05  -3.6995808e-04   7.0105620e-05  -8.6408545e-05   3.0785555e-04  -1.4816585e-04   1.9615439e-04   8.5567916e-04  -4.7942318e-04  -1.9862621e-04  -1.1877217e-04   2.7459583e-04   1.7304122e-04  -1.8012803e-04  -3.1753021e-04  -1.9848088e-04   3.4085970e-05   2.6918910e-04  -9.1628601e-05   8.1663580e-05  -4.8213838e-05  -1.3367071e-04   2.2936472e-05  -2.0164238e-04   1.3306164e-04   1.2865633e-04   3.0944525e-04
  -6.5412642e-05  -2.5713891e-05   4.8232770e-05   6.8497939e-05   2.8400854e-04   3.0058512e-04   1.9589777e-04  -2.6309496e-04   3.1471758e-05   2.0103258e-04  -1.8009408e-04   1.3841520e-04   5.2916697e-05   1.3393772e-04  -1.1866698e-06   9.5342017e-05   5.1773252e-04  -3.4996774e-05   1.9184881e-04   1.3748746e-04  -1.6138129e-04   3.8976799e-05   2.4589169e-04   1.0246916e-04   9.6247000e-05  -3.1058760e-05  -1.0280080e-04   9.1191299e-07   1.4273102e-04   1.6331127e-04  -3.1895796e-04  -4.4918453e-04   1.3726442e-04  -1.1350909e-04   3.4809308e-04   1.5578128e-04   5.1037481e-05   1.1308886e-04  -1.1504178e-05  -2.7721440e-05   3.9515606e-04  -3.0466965e-05   1.8813388e-04   1.9490653e-05  -1.1034396e-04  -2.1249910e-04  -2.0523286e-04   2.0240640e-04   1.1492875e-04   5.3997341e-05
  -9.8918783e-05  -5.3965839e-05   4.2705553e-05   1.1222765e-04  -3.7069192e-05   1.3354055e-04   2.6698603e-04   6.4938133e-05  -1.7584377e-04   1.8238736e-04  -1.8906688e-04   1.4573286e-04  -5.9212211e-06   6.6406748e-05  -4.6504989e-05   7.0496804e-05   4.8256153e-04  -3.0129882e-05   3.2083958e-04   1.5054710e-04  -1.6519590e-04  -1.2545934e-04  -1.8562252e-05   1.5807016e-05  -8.8270601e-05   8.7155386e-05   2.4891569e-04  -7.7511932e-06  -1.8682109e-05   2.2443694e-04   3.2026781e-04  -7.1825093e-04   1.0577827e-07   5.2100467e-04   1.1538890e-04   1.3051066e-04  -8.2130915e-05  -7.0200366e-04  -1.8537631e-04   2.5471719e-04   1.6714759e-04  -1.4049721e-04   2.4214135e-04   2.6659260e-04  -1.0097616e-04   8.5859472e-05  -2.0353920e-04   1.0636191e-04   1.7418910e-04   6.2746333e-04
  -1.4346058e-04  -7.2117931e-05   4.8611415e-05   7.5256794e-05  -2.0980146e-05  -5.0109455e-05   2.1003802e-04  -1.5486604e-04   2.1626988e-04   1.9144911e-04  -1.9026849e-04   1.3131960e-04   3.3479537e-06   1.7516424e-04  -7.5519980e-05   1.3631818e-04   4.4657462e-04  -5.4715558e-05   9.5707204e-05   1.7270657e-04  -1.9091864e-04  -1.2130412e-04   1.1801902e-04  -5.4368347e-06   2.3657801e-06   7.0923998e-05   3.0897043e-04  -5.5043762e-05  -2.6896243e-05   1.7889161e-04   7.4032671e-04  -7.8905601e-04  -3.9606643e-05  -1.1213929e-04   4.2210409e-04   3.2520527e-04   4.9051585e-05  -2.7158845e-04  -2.0173202e-04   2.2897191e-04   2.9310345e-04  -1.4792076e-04   2.4668913e-04   3.9452694e-05  -2.7249096e-05  -3.6185320e-05  -1.9608626e-04   2.4240128e-04   1.7108856e-04   4.9575139e-04
  -9.4310381e-05  -6.3926469e-05   4.6991430e-05   6.1591396e-05  -8.1579448e-05   2.5435651e-04  -4.3608175e-05  -1.1468993e-04  -2.1925933e-05   1.9496525e-04  -2.6382774e-04   1.3627781e-04  -1.7569320e-05   2.1816651e-05  -3.9180901e-04   1.0942276e-04   5.4569554e-04  -6.0556817e-05  -2.1313001e-05   1.7643013e-04  -1.6909957e-04  -8.1935996e-06   6.1089537e-05  -3.8674410e-05  -8.8229717e-05   1.0949206e-04  -1.7222521e-04   1.2612609e-04   9.3390365e-05   2.6710384e-04   7.5706259e-05  -7.0444529e-04   1.1722460e-04   2.3485931e-04  -1.0741279e-04   1.4424000e-04   7.3270744e-04   1.1841187e-04  -5.6414145e-05   1.7646307e-04   1.3957130e-04  -9.3744638e-05   3.6148116e-04   1.1452454e-04   4.6873967e-05   8.1196697e-05  -2.3454022e-04   4.8494773e-04   1.7368853e-04   4.0188181e-04
  -1.7466377e-04  -7.8094890e-05   6.6234286e-05   6.1884748e-05  -9.2346527e-05  -1.4082954e-04   1.0789937e-04   6.2967643e-05  -9.3937822e-05   2.1376577e-04  -2.3681400e-04   1.2200738e-04   4.1676481e-05   2.0897762e-04   6.5415094e-05   9.8215831e-05   5.0304591e-04   1.2664045e-05   2.3778714e-04   1.4378519e-04  -1.8568366e-04  -3.3499509e-05  -5.3951539e-05   1.2708625e-05   8.3320781e-05   2.2358199e-06   1.1184511e-04   1.1292734e-04   8.6031691e-04   2.3163308e-04  -1.3428253e-05  -7.9423434e-04   2.0925145e-04   5.8245065e-04   2.4715863e-04   1.0111411e-04  -5.0684903e-05  -6.5920103e-05  -8.3394109e-05   8.3141291e-05   2.0259824e-04   7.9705551e-06   5.7475561e-05  -3.3786306e-05  -1.4146391e-04   1.5328187e-04  -1.9497417e-04   2.4106979e-04   1.3414652e-04   3.5439510e-04
  -1.4262520e-04  -8.2535633e-05   7.3357398e-05   7.0455280e-05   7.5826480e-05  -1.3529803e-04   1.2990547e-04   2.7519197e-04  -1.7972059e-04   2.1185083e-04  -2.5618507e-04   1.4335480e-04  -6.2276117e-06   1.3701257e-05  -9.4860938e-05   9.5256873e-05   5.4828805e-04  -2.0395477e-05  -1.0510198e-04   1.5796919e-04  -1.9042405e-04  -1.2975554e-05  -1.1525646e-05   9.6057585e-05  -1.6838165e-04   4.8626407e-05   5.2822299e-05   2.7124595e-04   5.8370344e-05   4.0332126e-04   6.3575897e-04  -7.6190964e-04  -6.1260551e-05   2.3542189e-04   2.4035515e-04   7.8182573e-05  -1.3825533e-04   3.7211162e-04  -3.9785718e-05  -4.3440072e-05   2.8161827e-04  -8.1034421e-05   3.4951192e-04   1.3889343e-04  -7.2184288e-05  -1.4483965e-04  -2.2219616e-04   1.1258406e-04   1.4328599e-04   2.7592166e-04
  -1.3891353e-04  -1.3238339e-04   4.7131201e-05   5.4187880e-05   5.6614721e-05   3.5268986e-06   7.2304560e-05   2.4916136e-04  -1.7404086e-04   2.0376571e-04  -2.6912556e-04   1.1616243e-04   4.5614168e-05  -3.5740326e-05   1.6352981e-04   2.1173975e-04   5.1440368e-04  -1.1484243e-05   4.2127718e-05   1.9804141e-04  -1.7983379e-04  -9.8457866e-05   1.2598918e-05   8.7713968e-05   5.4344366e-07   6.4025568e-05   4.0754175e-04   4.9392525e-05   2.6155356e-05   3.5251456e-04   4.7723443e-04  -7.8913401e-04   1.8982902e-05   9.9565535e-05   3.5486671e-06   3.6971225e-05  -3.1843552e-05   8.1001381e-05   3.0431440e-05  -9.6639131e-05   1.2707261e-04  -8.9649599e-05   1.8111087e-04   1.4989598e-04  -3.9507788e-05  -5.0414859e-05  -2.1657336e-04   3.4068589e-04   2.2808342e-04   3.7442741e-04
  -1.0077688e-04  -8.1790487e-05   7.2321673e-05   3.6689489e-05   4.4613073e-05   2.0486837e-04   2.4225713e-04  -1.7358601e-04  -6.9941481e-05   2.2143978e-04  -2.5969936e-04   1.3138588e-04   5.8001366e-05  -3.2182572e-05   1.5616104e-04   5.6981396e-05   5.2363955e-04  -6.0965245e-05   3.3695626e-04   1.1560285e-04  -1.9594560e-04  -1.8943869e-05  -1.5338599e-04  -6.4200838e-05  -1.7438429e-04   4.0542091e-06   3.3607718e-04   1.6733064e-04  -4.5204477e-04   1.7766048e-04   2.3924344e-04  -8.4433082e-04  -1.5119028e-04  -4.3771780e-04   6.6442258e-04  -2.0490408e-05  -8.3453022e-05  -8.1158920e-05  -6.2992331e-05  -7.8552046e-05   1.0689168e-04  -5.0970808e-05   4.0064103e-04   8.9070170e-05  -9.1587710e-05  -7.8792145e-05  -2.8533777e-04   2.5188850e-04   2.2420227e-04   3.8157433e-04
  -1.2532485e-04  -9.7540658e-05   1.9190931e-05   6.1128434e-05  -1.8151444e-05  -3.8246487e-04   1.9339127e-04   8.6193730e-05  -1.4872137e-04   2.1033431e-04  -2.7733631e-04   1.4856423e-04   6.2983854e-05   1.9314498e-04   3.3396017e-04   2.6020862e-05   5.5266247e-04  -1.0913555e-04  -1.4489632e-04   1.1570449e-04  -1.8070094e-04  -1.5496227e-04   8.3149738e-05  -2.0061449e-04  -3.7866074e-04   8.3441351e-05   3.9699450e-04   6.3521657e-05  -4.1485170e-04   1.4968209e-04   6.8254326e-04  -8.2240725e-04  -2.1297157e-04   2.1860121e-04   2.1717021e-04  -4.4874446e-06  -3.8896025e-05  -1.3907821e-04   2.4400117e-04   1.0907071e-04   2.0036096e-05  -7.9937519e-05   2.8223565e-04   2.6921831e-05  -3.6206162e-05   2.4200906e-04  -2.5195655e-04   1.4934777e-05   1.9815132e-04   2.7092104e-04
  -8.9821406e-05  -7.7120421e-05   3.1212985e-05   3.9437498e-05   1.8452675e-04  -2.5677982e-05   1.8932807e-04   5.2069809e-05   2.0790751e-05   2.1534508e-04  -2.6390547e-04   1.3287444e-04   2.5213660e-05   2.8132221e-05   1.4491433e-04  -1.0683925e-05   5.2434648e-04  -1.0314260e-04   2.6501561e-04   1.7617132e-04  -1.7507780e-04  -2.4046116e-05   5.1034600e-05  -2.3301003e-05  -3.2734658e-04   1.3617860e-04  -1.8122568e-04   8.3367078e-05   2.5847548e-05   1.0215526e-04   3.9418909e-04  -9.9617266e-04   1.0243532e-04  -2.1843433e-04  -8.0204285e-05   1.5437554e-04   1.3380358e-04   8.4917498e-05  -2.9201075e-04   1.3370192e-04   1.5830368e-04  -3.7604874e-05   3.8405921e-04   1.6238497e-05  -1.7758164e-05   1.1766269e-04  -2.2826923e-04   2.6641224e-04   1.6730085e-04   2.5973900e-04
  -1.2149163e-04  -8.1530969e-05   2.2122094e-05   7.7493278e-05  -4.7348803e-05   2.9010069e-05   1.5111431e-04  -3.5828176e-05  -1.7027037e-04   2.3003505e-04  -2.6196966e-04   1.2923026e-04   5.5585027e-05  -1.9944951e-06  -1.1245388e-04  -1.1478092e-05   5.1005941e-04  -1.5984885e-04   5.1110476e-04   1.2780356e-04  -1.5732822e-04   1.2290735e-05   2.7851557e-04   3.5237543e-05   1.8881125e-05   1.7877297e-05  -2.4420358e-04   3.7254515e-04   1.0125241e-04   1.7219617e-04   1.2687949e-04  -8.8353100e-04   1.8582484e-04  -3.5124427e-05   1.5215919e-04   8.7909204e-05   3.7026504e-04  -4.6535194e-04   1.5057375e-04   8.9665868e-05   2.9747270e-04  -4.2472719e-05   2.5476160e-04   1.2460516e-05   3.4683540e-06   1.9497170e-04  -2.6603910e-04   2.1644868e-04   2.0379842e-04   3.6178227e-04
  -1.1428104e-04  -9.2924885e-05   5.3505188e-05   7.3270341e-05   1.9995185e-05  -1.9839090e-04   4.1262947e-06   1.2468625e-05  -6.8173569e-05   2.3958102e-04  -2.7242230e-04   1.4616687e-04  -2.5184812e-05   8.3551240e-05  -7.6559849e-07  -1.4733076e-05   5.4999429e-04  -1.1010690e-04   4.0280592e-04   1.7331894e-04  -1.7427218e-04  -4.0667834e-05  -1.1649558e-04  -3.1119922e-05   1.2859034e-04  -1.3685982e-05   1.5703982e-04   7.0251132e-05   5.4385979e-04   1.9844731e-04   1.1712337e-04  -8.9630554e-04  -2.8126715e-06   3.0548466e-04   9.3680268e-05   2.0605270e-04   4.4944813e-04   1.7259803e-06   2.0473350e-05  -2.6891576e-05   1.9334453e-04  -3.0477930e-05   2.7601855e-04   8.1101323e-05  -8.6970067e-05   1.8493985e-05  -1.8974511e-04   8.1948776e-05   1.1042704e-04   4.0298692e-04
  -1.3567516e-04  -8.7882268e-05   3.0202111e-05   4.6242858e-05   8.2808125e-05   7.8915582e-06   5.4912984e-05  -1.8844460e-04  -1.3926341e-04   2.3123871e-04  -2.8623245e-04   1.2160574e-04   6.5950039e-06   1.8693255e-04   2.7439388e-04   1.3194759e-04   4.5034144e-04  -1.0729668e-04   1.5925558e-04   1.8236392e-04  -1.7320435e-04  -7.0121219e-05  -1.0502156e-04  -1.6424041e-04  -3.4977358e-05   3.3666205e-05   5.9317605e-05   1.6392293e-04  -4.1493066e-04   1.1256682e-04  -1.7155545e-04  -8.6176931e-04  -1.4307538e-04  -2.8790073e-06   3.8095537e-04   3.6147896e-05   3.7264387e-04   2.4746245e-04  -2.0710542e-04   3.9342948e-04   2.5214965e-04  -2.2891969e-05   4.8290307e-04   2.9079139e-05  -7.2925810e-05   7.6732307e-05  -2.5567281e-04   1.6704992e-04   2.0204409e-04   2.8533110e-04
  -9.9550758e-05  -1.1379726e-04   1.1434108e-04   3.3164451e-05   1.5412143e-05  -2.4680764e-04   2.1405504e-04   1.8762052e-04  -2.4049154e-05   2.2918559e-04  -2.8694398e-04   1.5562432e-04   2.5447334e-05   4.8496371e-05  -2.0417818e-05   1.3532676e-04   4.9131550e-04  -1.0155291e-04   2.7389839e-04   1.0882723e-04  -1.7594144e-04  -3.0013591e-05   6.5599525e-05   7.9599713e-06  -1.4692749e-04   2.6386815e-05   4.0966994e-04   1.7081888e-04  -4.2888743e-04   1.2965861e-04  -2.6216009e-04  -8.4473775e-04  -1.6736318e-04  -6.3628511e-05   2.3527378e-05   1.3041818e-04   2.6146279e-04  -2.7488345e-06  -2.7747804e-04  -2.0808171e-04   2.1413142e-04   1.0960607e-05   2.2539824e-04   2.4959160e-04  -1.3340046e-05   3.5510202e-05  -2.8784593e-04   2.2697478e-04   1.5182371e-04   3.0127756e-04
  -1.0966561e-04  -1.0288370e-04   7.0325485e-05   6.7665074e-05  -9.9418703e-06  -3.4207013e-05   2.2523627e-05  -8.2062383e-05  -1.9265158e-04   2.2346304e-04  -2.8861407e-04   1.3526871e-04   1.4586483e-05  -2.5218903e-06   3.3275155e-05   4.5426987e-05   5.5465102e-04  -1.3193446e-04   2.7410159e-04   1.3321420e-04  -1.8487297e-04  -1.4021827e-04  -1.0013502e-04  -5.0695002e-05  -1.2822615e-04   1.2718083e-04   2.2023258e-04   1.0710325e-05  -2.5175750e-04   2.7788406e-05   3.8693406e-04  -8.7635813e-04   6.2454783e-05  -1.1903400e-04  -3.1923719e-05   1.3638983e-04   3.9625552e-04   1.2149866e-04   2.7570060e-05  -2.2508159e-04   1.5104235e-04  -9.9686964e-05   4.2842372e-04   1.4634021e-04  -9.0062051e-05  -1.1177895e-04  -2.9754089e-04   1.8872498e-04   2.1955423e-04   4.1053211e-04
  -1.2280898e-04  -1.2266154e-04   5.3478241e-05   2.6306296e-05  -9.3957997e-06   2.5568448e-04  -1.6450427e-05   1.1250407e-04  -1.3984014e-04   2.3197253e-04  -3.3790816e-04   1.5862667e-04   5.2103034e-05  -5.9021371e-05   8.4609510e-06   5.7683825e-05   5.2072096e-04  -7.2031369e-05   1.8741568e-05   1.9585053e-04  -1.9847124e-04  -7.3707226e-05  -1.9760749e-04  -4.4386663e-05  -1.7830552e-04  -9.5511794e-05   3.1593125e-04   2.7225862e-04   1.7208715e-04   1.2586980e-04   5.8831467e-04  -9.4660727e-04  -3.0102296e-04  -2.9964642e-05   1.2581365e-04   2.7271811e-04   6.1767112e-04   8.6932872e-05  -8.0671824e-05   1.2419125e-04   2.8803383e-04  -7.4435644e-05   4.7247147e-04   3.2623785e-04  -4.2843069e-05   4.4358949e-06  -2.9612274e-04   4.7644651e-05   1.9190153e-04   5.3933373e-04
  -1.1468185e-04  -1.5091735e-04   8.3901767e-05   2.0505451e-05  -1.7895037e-04  -3.2941776e-04   4.1084328e-05   3.2280496e-04  -1.1127412e-04   2.2098527e-04  -3.5001591e-04   1.4776112e-04   5.5113629e-05   6.4079257e-05  -1.8284796e-05   1.0306704e-04   5.6953996e-04  -1.7563518e-04   9.7141594e-05   1.2819115e-04  -2.0054395e-04  -9.5407035e-05   3.0257217e-05  -7.1284434e-05  -4.6899359e-04  -2.5314731e-07   4.9877224e-05   3.7495389e-05   1.7462330e-04   4.2016289e-04   5.0408253e-05  -1.0744410e-03  -1.1517719e-04  -1.8514328e-04   6.4505446e-05  -8.0843699e-07   3.8629741e-04   4.4500532e-05   6.7997858e-04   4.0241992e-04   4.4886910e-05  -3.9033072e-05   2.8339698e-04  -2.1225709e-05  -5.6179393e-05   4.0927829e-05  -2.8660748e-04   2.5261752e-04   1.4654428e-04   3.3057650e-04
  -1.9230106e-04  -1.3142559e-04   4.5456607e-05   5.1616327e-05   1.0618538e-04   7.6380929e-05   8.2754217e-05   9.1924972e-05  -2.0416146e-05   2.2154763e-04  -3.7784965e-04   1.3552293e-04   3.4929251e-06  -1.0218936e-04  -1.3096234e-05   7.1005728e-05   4.3509933e-04  -1.1722492e-04   4.0496285e-05   2.2273505e-04  -1.9786815e-04  -4.8387130e-05   3.1587761e-06  -6.6764042e-05  -2.5409978e-04  -6.6221655e-06   7.7638100e-04   2.1778319e-04   9.9389552e-05   2.9901374e-04  -4.3367519e-04  -1.0472591e-03   1.7512025e-04   1.0237779e-04   1.2425573e-04   7.0261958e-05  -2.3585271e-04   5.6976594e-05  -1.7503361e-04   4.6906088e-04   2.8131800e-04   5.0914667e-05   3.9760832e-04   1.4968052e-04  -8.4855128e-05   5.6991186e-05  -3.0695426e-04   5.7534311e-05   1.9422734e-04   5.6060957e-04
  -1.6166472e-04  -1.6119078e-04   5.3939671e-05   1.4865365e-05  -1.9938499e-04  -3.3789928e-04   1.5381082e-04  -1.4930495e-04  -4.0452360e-04   2.2084988e-04  -3.8236211e-04   1.4947422e-04   1.6906844e-05  -3.9754195e-05  -3.4033682e-04   8.6696957e-05   6.2377541e-04  -7.0556438e-05   1.3900679e-04   2.1786147e-04  -1.9981417e-04  -6.7568377e-05   1.8997528e-04  -7.4728960e-05  -1.9921592e-04  -6.1787694e-05  -1.6971410e-04   1.7506319e-04  -1.3630724e-04   4.0227058e-04  -9.4374511e-05  -1.0027050e-03   3.0257715e-05  -1.9146084e-04   3.2521784e-04   7.2018200e-05   9.3606184e-05   6.7852226e-05   4.3165890e-04   4.4445082e-05   9.9172517e-05  -1.3009182e-04   3.8553521e-04   2.3865265e-04  -1.5284635e-05   2.7511595e-04  -3.2118059e-04   1.3906481e-04   1.6146136e-04   4.5135833e-04
  -1.1536389e-04  -1.7846166e-04   1.6033453e-05   3.7240257e-05   9.7692042e-05  -7.4453150e-05   7.5654279e-05  -1.2752107e-04  -1.8261206e-04   2.3367580e-04  -3.6709651e-04   1.5446518e-04   1.2459954e-05  -5.6936577e-05  -1.6316137e-04   9.5612995e-05   5.7780510e-04  -9.9407931e-05   3.2578912e-04   2.0688819e-04  -2.0390232e-04   6.2493360e-05  -5.5513290e-05  -1.0692352e-04   1.9304911e-05  -3.7303562e-05   1.7471804e-04   1.0544390e-04   4.3018520e-04   1.7905743e-04   1.5988774e-04  -9.8497653e-04  -3.0984875e-04   2.9391306e-04  -8.0991165e-05   8.0884929e-05   3.5947611e-05  -5.2988308e-04  -1.6270277e-04   2.4563575e-04  -6.8839986e-06  -1.3364424e-04   2.7239035e-04   1.6994403e-04  -2.5655925e-06   1.0505956e-04  -3.1283134e-04   1.0986492e-04   1.9411773e-04   2.2230559e-04
  -2.4442250e-04  -1.5137119e-04   5.6669640e-05   1.2336124e-05   8.1067046e-05  -3.6549763e-04   4.8452064e-05   4.0413513e-05  -2.8041840e-04   2.3410887e-04  -3.4054232e-04   1.2506527e-04   4.8066831e-05  -5.9548702e-06   2.8905869e-04   2.4837547e-04   5.7069032e-04  -1.0379007e-04   9.2343464e-05   1.8078712e-04  -1.9546862e-04  -1.1699529e-04  -8.0623649e-05  -3.6031230e-05  -7.6173383e-05   8.8260967e-05  -8.3484272e-05   2.8281480e-05   3.7704380e-05   1.3166074e-04   2.7812485e-04  -1.1051260e-03  -1.7385643e-04   1.6206507e-04  -5.4985885e-05   6.3123458e-05  -2.9978941e-05  -4.7457879e-04   1.7226840e-04   7.6073913e-05   1.2215674e-04  -2.7390137e-05   5.4156460e-04   6.2043517e-05  -2.5020172e-05   1.3277998e-04  -3.5824825e-04   2.1432052e-05   1.6132364e-04   3.7263060e-04
  -1.7819849e-04  -1.7600630e-04   5.4806416e-05   2.3932875e-05   9.1389382e-05  -7.2463015e-05   6.4171232e-05  -1.0707025e-04  -2.8257581e-04   2.3443594e-04  -3.6048921e-04   1.4922506e-04   7.7685458e-05  -6.7040593e-05  -1.0530328e-04   6.4372260e-05   5.6905486e-04  -1.2090054e-04   7.5868971e-05   2.0562166e-04  -1.9168566e-04  -1.0955422e-04  -1.6476575e-04  -1.0051651e-04   5.7819412e-05  -7.3104711e-05   4.4048313e-04   1.6444178e-04  -1.6746836e-04   2.9002089e-04   5.7402154e-04  -1.0178275e-03  -4.3600714e-05  -2.5118995e-04   3.6915578e-04   1.2731273e-04   1.9426270e-04   4.2994873e-04  -3.8078558e-04   2.1834571e-04  -1.6557000e-05  -1.0895143e-04   2.7807197e-04   3.0418386e-04  -6.8738300e-05   2.2806732e-04  -3.1233780e-04   2.0004332e-04   1.6715159e-04   4.2472698e-04
  -2.6558011e-04  -1.6150260e-04   4.4192526e-05   1.4443142e-05  -8.7101180e-05  -5.1500241e-04  -4.6948433e-05  -6.3778193e-06  -1.9638058e-04   2.4615740e-04  -3.7159451e-04   1.6060556e-04   4.3831133e-05   2.7054988e-05   5.1651659e-05  -4.4294833e-05   5.3328840e-04  -1.9337342e-04  -5.6040717e-05   1.9830813e-04  -2.1447272e-04  -1.0851737e-05  -2.3287872e-04  -5.0294084e-06   4.4888333e-05  -1.9140352e-06   1.3993091e-04   4.8998286e-06   2.7173164e-04   2.4018873e-05   2.7449051e-04  -1.1602272e-03  -1.1987253e-05   3.4805364e-04   2.5963952e-04   1.7053813e-04   2.3528964e-04  -3.8824635e-04   3.3918117e-05   3.5851353e-05   2.4811228e-04  -7.9358782e-05   9.0432084e-05   2.6778597e-04  -7.7825520e-05   5.3663316e-06  -3.3515110e-04   1.9144155e-04   2.0792824e-04   3.4663314e-04
  -1.9227531e-04  -1.7459159e-04   4.7467656e-05   1.5262873e-05   1.2728403e-05  -2.4035189e-04   2.1994868e-04   4.4857070e-04  -1.6131630e-04   2.3020264e-04  -3.4585854e-04   1.6290107e-04   9.9944564e-06   1.3410780e-04  -7.1898998e-05   1.1854740e-04   5.3959695e-04  -1.5995138e-04   2.2737148e-04   1.6058754e-04  -1.8476076e-04  -1.0695812e-04  -9.8675140e-05  -3.2115934e-06  -3.2730059e-05   6.5535060e-05   8.8021473e-04   4.8907041e-05   2.9476880e-04   1.7628381e-04  -3.7670115e-04  -1.0874291e-03  -1.2939778e-04   3.2031714e-04  -2.6425376e-04  -1.2786663e-04   1.7544167e-04  -4.3519755e-04  -3.7797297e-05   1.5563337e-04   3.0711317e-04  -9.8097647e-05   4.4389407e-04   2.4693136e-04  -4.2562140e-05   1.7903713e-04  -3.0469082e-04   2.7083792e-04   1.6155594e-04   5.7301449e-04
  -1.0451796e-04  -1.2337574e-04   3.4003224e-05   6.4414974e-07   1.7420219e-04  -3.2694565e-04   2.1580215e-04   3.4460103e-05  -1.6941417e-04   2.5782638e-04  -3.6616271e-04   1.1096049e-04   1.1054370e-04  -4.7875317e-05   1.7762819e-04   2.1739274e-05   5.6972139e-04  -4.6551337e-05   2.1000938e-04   1.8902811e-04  -1.8878390e-04  -6.3738706e-05   6.4470096e-06  -6.1050741e-05  -4.0467821e-05   1.6850672e-05   7.1449555e-04   1.0109399e-04  -2.3993872e-04   4.5274282e-04  -1.7468879e-04  -1.0823570e-03  -1.9451386e-04   4.7484081e-04   8.4137340e-05   9.2070892e-05  -1.5076131e-04  -3.0205361e-04  -1.0461077e-05   4.6433593e-04   5.9571419e-05  -5.9052785e-05   2.1610383e-04   2.1539652e-04   3.4403856e-05  -6.6046545e-05  -2.6997281e-04   1.8629177e-04   1.6457621e-04   4.6817434e-04
  -2.2145748e-04  -1.8535314e-04   3.1064661e-05   9.3076160e-06  -1.1532295e-04  -3.9272950e-04   2.1797276e-04  -1.8843173e-05  -2.4507521e-04   2.4558097e-04  -3.6137304e-04   1.4522216e-04   5.8121248e-05   1.6346623e-04   1.1427049e-04   5.5242315e-05   5.3077005e-04  -7.3641211e-05   3.6458843e-04   1.5844748e-04  -1.8284612e-04  -9.0047688e-05  -1.6621305e-04  -7.6392622e-05  -4.3680516e-04  -8.7006820e-06  -2.0684875e-04   1.6645149e-04  -9.5499150e-04   3.5884956e-04   8.3609244e-05  -9.9242362e-04  -1.2541750e-04  -1.4947310e-04   1.3649699e-04  -1.1581038e-04   4.4117376e-05  -4.7543188e-05  -2.6404066e-04   2.1413469e-04   1.0992491e-04  -7.2657378e-05   3.8802347e-05  -9.7587172e-06  -1.5066007e-05   9.3430623e-05  -2.7273974e-04   7.3984062e-05   1.6953683e-04   3.3795225e-04
  -2.1346414e-04  -1.5551205e-04   2.9767339e-06   2.8265516e-05   1.5371959e-04  -1.5657098e-04   6.1757642e-06   2.3285198e-04  -1.3852371e-04   2.6978523e-04  -3.3442528e-04   1.8940422e-04   7.3063035e-05   4.0241230e-05  -3.1502818e-04   2.6295495e-05   5.0353870e-04  -6.4130239e-05   2.8212197e-04   1.6739705e-04  -1.7263750e-04  -1.2233440e-04  -7.4341820e-05  -1.6092644e-06  -2.8352434e-04   9.1686881e-05   1.9518766e-04   2.0298646e-04  -5.8631776e-05   4.2197952e-04   1.4262044e-04  -1.0547114e-03   1.1091034e-04   3.0874292e-04   5.0775503e-04   5.0008417e-05   3.9801767e-04   2.8458901e-04   2.0813501e-04   8.1160011e-05   2.6785524e-04  -4.6610832e-05   4.1121829e-04   1.1070086e-04   9.2436625e-05   1.7362442e-04  -2.5585628e-04  -7.7148201e-05   1.5160203e-04   3.1081631e-04
  -1.7938796e-04  -1.2420792e-04   6.9560076e-05   1.0024159e-05   4.7047244e-05  -4.0847797e-05   1.5573596e-05  -8.0379308e-05  -2.3029525e-04   2.8547272e-04  -3.4578453e-04   2.0337879e-04   7.0005801e-05   1.2132263e-05   2.1803557e-04   9.0979105e-05   4.6200393e-04  -4.7748301e-05  -1.0910913e-04   1.6552903e-04  -1.5937892e-04  -7.4003445e-05   5.8489833e-05  -1.8918041e-05  -7.8075347e-05   2.5407086e-05   3.7670910e-04  -1.7691660e-04   4.5368637e-04   3.7650371e-04  -3.1297584e-04  -8.3146535e-04   1.7653139e-04   1.4146240e-04  -6.1572435e-05   5.8958303e-05   5.3096027e-04   1.9322975e-05  -5.1017832e-05   1.2445444e-04   2.1847052e-04  -3.3162971e-05   1.3611349e-04   1.3724690e-04  -1.5877416e-05   1.1495888e-04  -2.5843247e-04   2.0246375e-04   1.6452736e-04   2.7119933e-04
  -2.0864132e-04  -1.4467059e-04   4.3677697e-05   1.0804813e-05   7.6299984e-05  -7.3394522e-06   1.6023092e-04   1.8309598e-04  -1.7635948e-04   2.8112324e-04  -3.1843613e-04   1.8048981e-04   5.6352608e-05   1.3650223e-04  -1.9558168e-04  -4.4701933e-06   4.6556050e-04  -1.6541718e-04   4.3879740e-05   1.8320601e-04  -1.6616091e-04   6.3742491e-06   1.7817852e-04   3.1526848e-05   8.5093663e-05  -4.2101619e-06  -1.2311785e-04   3.1478601e-04   4.9282896e-04   1.0972106e-04  -4.9364931e-05  -9.6787914e-04   1.2722918e-04   2.1487317e-04  -2.0492179e-04  -8.2131526e-05   4.2453993e-04  -1.4975024e-04   1.8240916e-04   8.5143649e-05   7.9552578e-05  -1.9051848e-05   2.3246965e-04   1.4726420e-04  -6.1035964e-05   2.6132385e-04  -2.4413753e-04   1.2200818e-04   8.6730768e-05   9.7355420e-05
  -1.5099182e-04  -1.6839281e-04   5.9402362e-05   4.3173375e-05   1.7362028e-05  -3.7966322e-05   1.1405782e-04  -2.0442387e-05  -1.6292528e-04   2.8978774e-04  -2.8370041e-04   2.2552817e-04   9.2333314e-05   2.1967918e-04   1.8061472e-04   7.6789893e-06   3.6307116e-04  -9.5391355e-05   1.4992108e-04   1.0926571e-04  -1.4128516e-04  -7.4880038e-05  -5.0643506e-05   1.9398695e-04  -2.0061385e-04   4.5348377e-05  -2.8959406e-04   2.2767564e-04   7.0061162e-04   1.5228508e-04   3.8447505e-04  -9.3594560e-04   3.7798108e-04   3.2038899e-04   1.9426485e-05   1.8468132e-05   1.1466362e-04  -1.5165082e-04   1.2497292e-04   2.5100747e-04   9.3082002e-05  -6.6150395e-05   1.3605828e-07   1.0060090e-04  -7.3495530e-06   6.9291491e-05  -2.0498717e-04   1.1491209e-04   1.0555189e-04   4.2495882e-04
  -7.2491857e-05  -8.4258572e-05   4.2858137e-05   6.2079489e-05   4.9028058e-05  -3.2411647e-04  -3.7038637e-05  -8.4638457e-05  -2.6674854e-04   3.0275254e-04  -2.5834146e-04   2.3630484e-04   7.7452823e-05   5.7042122e-05   2.3846056e-04  -4.0549407e-05   3.4935676e-04  -1.7123313e-04   1.2297671e-04   1.3198840e-04  -1.2687540e-04   1.1786336e-04   2.1621221e-04   1.0288315e-04  -5.6687077e-05   6.9861060e-05   3.8448288e-04   9.4411706e-05   1.8336983e-04   3.6808159e-04   2.2205374e-04  -8.6231990e-04   1.4947708e-04   4.0154980e-04  -5.3899555e-05   1.0873609e-04   9.1864371e-05  -1.1961119e-04  -3.8193012e-04   6.4115826e-05   4.5144381e-05  -5.7860969e-05   1.5889569e-05   1.7880484e-04   3.3512244e-06  -2.8334352e-05  -2.1961398e-04  -7.2192764e-05   9.0429552e-05   2.3380727e-04
  -2.4562320e-05  -1.0614394e-04   3.9950137e-05   4.9588369e-05   1.5758682e-04  -2.2095525e-04  -5.5938606e-05   4.9666030e-04  -1.5670361e-04   3.1794564e-04  -2.9034316e-04   2.1927895e-04   4.3984826e-05   1.2534714e-04   9.8876124e-05  -2.8387554e-05   3.3827321e-04  -1.2897162e-04  -1.0201852e-04   1.1526014e-04  -1.3379862e-04   3.6792433e-05  -1.9055320e-05   3.0582705e-05  -8.5849941e-05   8.1148188e-05   1.1673172e-04   1.0635181e-04  -1.5479974e-04   2.3166096e-04  -1.9502200e-04  -8.8156050e-04   8.3153995e-05  -4.9441995e-05   2.3418746e-04   8.1032704e-05   6.8918755e-04  -1.3998378e-04  -4.4437180e-05   1.8639668e-04  -1.2800475e-05  -1.5464873e-04   1.8019915e-04   1.1919539e-05   2.0876474e-05   7.4747491e-05  -2.6504166e-04   1.1519633e-04   1.4468237e-04   2.3698951e-04
  -1.2863579e-04  -1.1751470e-04   6.4216343e-05   6.7443354e-05   6.5242661e-05  -3.0731913e-05   1.7603305e-04   5.3239398e-04  -9.9357960e-05   3.0483349e-04  -2.7138274e-04   2.2382259e-04   7.9841055e-05   1.1290648e-04  -4.3506127e-05   2.8166591e-05   3.4619129e-04  -1.6969004e-04   2.1056442e-04   1.2089294e-04  -1.0804691e-04  -9.7739226e-05  -7.7126599e-05   1.5660307e-04  -3.2575856e-04   6.3022831e-05  -3.3852577e-04   2.0679626e-04  -3.5715624e-04   3.2466973e-04   7.1529299e-04  -8.0814405e-04   3.2708119e-04   7.5036386e-04  -1.1746579e-05   1.1787210e-04  -7.0514958e-05   2.9371504e-04   3.7444530e-05   2.3362770e-04   1.0004786e-05  -3.4691431e-05  -4.2169704e-05   1.8479185e-04  -8.5522006e-05   1.1233181e-04  -2.0797311e-04   5.6948255e-07   8.7698318e-05   1.5494858e-04
  -1.1300161e-04  -1.4447862e-04   7.1907991e-05   6.2024024e-05  -4.3071130e-05   1.2096555e-04   2.3402939e-04   2.1286325e-04  -2.0527111e-04   2.9751187e-04  -3.0651243e-04   2.2466741e-04   1.0756208e-04   1.0546749e-04   1.5521329e-04   7.8051453e-05   3.7108612e-04  -8.5303931e-05  -1.7059800e-05   1.4948005e-04  -1.1809979e-04   4.3686807e-05   9.4724499e-05   9.3617346e-05  -5.1102974e-04   1.7378177e-04   1.5651969e-04   9.3363553e-05   1.5480841e-04   1.6872564e-04  -6.5191729e-05  -7.9232646e-04   3.6303027e-04   4.3753374e-04   3.7747127e-04   4.8081271e-05  -1.3831088e-04  -4.3665542e-04   4.3346878e-04   5.3643913e-04   9.2165377e-05   9.8019773e-06   6.4607593e-05   2.2867337e-04  -1.2251761e-04  -1.7392488e-04  -2.5685638e-04  -7.0434697e-05   9.7537479e-05   3.9446788e-04
  -9.9267054e-05  -1.0675954e-04   5.8674021e-05   6.1678533e-05   9.6066193e-05  -3.4298268e-05   3.6108217e-05   1.6175254e-04  -2.0820065e-04   2.9512201e-04  -2.8478785e-04   2.1366678e-04   6.9153612e-05   4.2261992e-05   3.2757138e-04   1.1537093e-04   3.3564691e-04  -8.9018235e-05   7.7343930e-06   6.0280363e-05  -1.2969151e-04  -6.2034538e-05   2.8977433e-05   3.6908972e-05  -3.0855442e-04   1.1581330e-04  -2.5606764e-04   2.0059396e-04   3.6631137e-04   8.0504353e-05   5.2141393e-05  -8.1126794e-04   3.1496826e-04   1.6349852e-04   9.5873038e-05   2.6001790e-04   2.6883621e-04   1.4119578e-04   1.6682915e-04   3.5340281e-04   1.3017435e-04  -9.0832866e-05  -8.4145977e-05   1.9546486e-04   1.2599089e-05   2.0697256e-04  -2.2209462e-04  -2.4646464e-05   3.3876167e-05   2.1828621e-04
  -1.8335116e-04  -8.8868430e-05   4.7593578e-05   2.9550876e-05  -6.5300869e-06  -1.5771494e-04   4.8891379e-06  -8.2470098e-05  -1.4314846e-04   2.9186739e-04  -2.9744519e-04   2.3434160e-04   1.4655860e-04  -4.8788188e-05  -1.2191568e-04   5.6547367e-05   3.4314665e-04  -1.2229364e-04  -8.6801680e-05   1.1395634e-04  -1.4565968e-04   3.3308395e-05   1.5117372e-04   1.0942429e-05  -9.4943927e-05   5.5512926e-05   5.1750540e-04   1.1497625e-04   6.4127397e-04   2.8106067e-04   1.5524458e-05  -8.2739018e-04   7.2921808e-05   2.5028794e-04   7.6045841e-04   1.2096232e-05   7.7485442e-05   6.4325126e-05   4.7886290e-04   5.2006694e-04   4.8296490e-05  -8.2327359e-05   9.7319738e-05   2.3475694e-05  -1.6775393e-04   4.1964948e-05  -2.3662270e-04  -5.0377672e-05   1.0135180e-04   3.0108204e-04
  -4.1745567e-05  -7.1839240e-05   6.4120009e-05   5.1084764e-05  -6.1358701e-06  -2.0270223e-04   1.2678219e-04  -1.3747174e-04  -1.2733287e-04   2.8805056e-04  -3.1095123e-04   2.2250725e-04   8.2547340e-05   5.0222184e-06  -1.0983575e-04   7.3666204e-05   4.0122081e-04  -1.1909761e-04   1.1032025e-05   9.6887023e-05  -1.4809839e-04  -1.1201489e-04  -2.6119925e-04   6.3660540e-05  -2.7633435e-04   1.0203446e-04  -9.7827498e-05   2.3216507e-04   6.5322027e-05   3.4803219e-04   9.0268638e-04  -8.3322049e-04   8.0722250e-04   3.3673964e-04   3.9592481e-04   1.0354239e-04   3.0522552e-04   1.8520455e-04  -5.7726600e-05  -1.3226202e-04  -1.0052535e-04  -1.6536644e-05   1.4356185e-04   1.7755557e-04  -5.4855318e-05   1.6479960e-04  -1.7147374e-04  -3.4990509e-05   6.4264546e-05   5.2071755e-05
  -1.1006247e-04  -9.5670934e-05   8.3864383e-05   5.1194889e-05   1.6300530e-04  -2.1764214e-04  -3.3914068e-05   6.6595298e-05  -3.1110979e-04   2.7299832e-04  -2.8500918e-04   2.0225318e-04   1.1121421e-04   1.0186347e-04  -2.0187409e-04   5.4199118e-05   2.5355211e-04  -1.0863378e-04  -3.3755994e-05   7.4266944e-05  -1.6356538e-04   7.3420924e-05   2.2726377e-05   6.3194879e-05   1.0104224e-04   8.3086212e-05   1.8147854e-04  -4.3416541e-05  -1.9790062e-04   1.1218626e-04  -1.4639132e-04  -8.4370939e-04   1.5259659e-06   1.7003274e-04   4.6299811e-04   1.8802992e-04   2.2306647e-04   2.2270886e-04  -1.2125906e-05   3.6901378e-04   2.0205343e-05  -6.8611022e-05   1.4972733e-04   7.6141900e-05   4.3319647e-05   2.6898598e-04  -2.2226090e-04  -6.4376247e-05   2.9463758e-05   8.9852794e-05
  -1.5413159e-04  -8.3807594e-05   8.8153931e-05   2.1503873e-05   3.2570151e-05  -7.9563106e-05   1.8493147e-05   2.1923239e-04  -1.9615994e-05   2.7531397e-04  -2.6567126e-04   2.2211637e-04   9.6175158e-05   2.4661637e-04  -2.8049279e-04   1.1231721e-04   3.5106542e-04  -7.7400000e-05   1.9967694e-04   9.1993832e-05  -1.5886386e-04   5.9071703e-05  -1.8716361e-04   1.6672356e-04   2.1339506e-04   1.2137884e-04   2.8414882e-04   5.0602419e-05   6.8633218e-04   3.0404341e-04   3.5148849e-05  -7.8574783e-04   3.3542802e-04   1.6226819e-04  -2.4162793e-04   1.9883235e-05   3.1942251e-04   7.6578086e-05   1.8525790e-04   2.1641962e-04   6.6165689e-05  -5.0387014e-05   2.1068459e-04   7.4780131e-05  -4.7089197e-05   1.4709495e-05  -2.6428956e-04  -3.6606187e-05   2.5358875e-05   3.1984004e-04
  -1.2918946e-04  -8.3060382e-05   6.8863010e-05   1.7893244e-05   2.4161779e-04  -2.2352502e-05  -9.1946767e-06   3.3683955e-05  -2.0335868e-04   2.4385034e-04  -2.9348719e-04   2.0614722e-04   9.8282777e-05  -1.0750759e-04   8.0121383e-05   4.1072879e-05   3.7307004e-04  -9.7676049e-05  -4.4263314e-04   8.5459578e-05  -1.5733273e-04   1.3910975e-04   3.3972325e-04   1.4875302e-05  -9.7788994e-05   1.3572294e-05   7.2141593e-05   1.4570514e-04   6.2060903e-04   3.5127375e-04   4.7121310e-04  -7.9234090e-04   1.5391338e-04   6.6609116e-04   2.3369941e-04   5.9582875e-05   1.7234094e-04  -2.2112476e-04   1.5531991e-04   2.0355859e-04   8.6436914e-05  -7.8336190e-05   4.5326605e-04   2.1552820e-04  -3.8843496e-05  -3.2638640e-05  -2.5350458e-04   6.8604306e-05   7.2704897e-05   3.3418735e-04
  -1.3088323e-04  -8.5862266e-05   6.0483428e-05   3.2488275e-05   1.7115239e-05  -6.8281093e-05  -2.1061549e-05  -2.2007570e-04  -1.4626601e-04   2.5352577e-04  -3.1821019e-04   1.7611984e-04   6.6534951e-05   3.6584705e-05   1.5334200e-04   1.9759702e-04   3.4578692e-04  -7.5618635e-05   2.8052661e-04   8.7276523e-05  -1.6387779e-04  -9.1027694e-05  -1.5096946e-04  -4.4216707e-05   5.9418686e-05   8.7196328e-05  -4.1080028e-05   8.1966020e-05  -1.0526412e-04   2.7514412e-04   3.8416722e-04  -9.5910358e-04   1.9243119e-04   1.0707226e-03   2.3440762e-04   1.7326875e-04   4.9751700e-04   4.4718318e-04  -9.3080998e-05   3.2784021e-04   5.1795239e-05  -1.3247205e-04   1.1317762e-06   2.3263310e-04  -6.3707652e-05   2.6560770e-04  -2.9176899e-04   3.8394319e-05   8.1417384e-05   3.1412448e-05
  -1.4751671e-04  -1.0880279e-04   4.6911940e-05  -6.8689872e-07   7.6549150e-05   4.5566499e-05  -1.2151969e-04  -1.3583704e-04  -1.9860182e-04   2.2973944e-04  -3.3248408e-04   2.1371483e-04   7.0168644e-05   1.6085240e-04  -2.0659145e-05   5.7273792e-05   4.1187639e-04  -1.1219281e-04  -2.0445640e-04   1.2361424e-04  -1.9141713e-04  -1.5062015e-04  -1.5979832e-04   2.2274311e-05  -1.2026952e-04   7.6970500e-05  -4.9978052e-04   3.7881007e-04  -2.8144816e-04   1.3262915e-04  -9.2173039e-05  -9.9406054e-04   1.5201194e-04  -9.5902396e-05   4.3742065e-04   1.5388057e-04  -1.7243763e-04   4.3652244e-04   3.5699696e-04   5.1505002e-04   1.7325014e-04  -7.0517235e-05   3.9970456e-04   3.4244711e-04   2.4148711e-05  -2.2176846e-05  -2.7237766e-04   1.6616078e-04   1.6489401e-04   2.6161570e-04
  -1.6482368e-04  -9.5685718e-05   6.3076535e-05   1.4197875e-05   6.4503103e-05  -2.8187432e-04   4.9232760e-05  -1.0287776e-04  -3.2244553e-04   2.2669764e-04  -3.2594643e-04   1.8540685e-04   6.5049360e-05  -3.0470055e-05  -7.2088384e-05   4.9836679e-05   5.0465722e-04  -1.4103652e-04  -1.7321158e-04   1.2938688e-04  -1.7235416e-04  -3.0048703e-05   1.1374632e-04  -1.1541231e-05  -2.4175179e-05   1.0678721e-04   5.0732889e-04  -2.6277582e-06   1.0206532e-03   3.0687702e-04   3.4938939e-04  -9.9255482e-04  -7.5093805e-05   2.4674373e-04   3.2102491e-04   1.5169082e-04  -2.9274379e-04   2.6979105e-04   9.4442461e-05   5.3866743e-04   3.4797082e-05  -1.4469078e-04   3.2854531e-04   1.6225566e-04  -6.9015798e-05   5.9738119e-05  -2.7951901e-04   3.1149728e-04   9.1050380e-05   3.9032346e-04
  -1.3171609e-04  -1.1972606e-04   8.5076244e-05  -3.0153729e-05   7.5197844e-05   4.9940578e-04   2.4841251e-04   2.2118252e-04  -2.1177689e-04   2.4060627e-04  -3.0062761e-04   1.8399925e-04   4.2985714e-05   1.1818781e-04   4.4563705e-05   7.4280593e-05   3.8473791e-04  -8.8192544e-05   2.5362783e-04   8.0652513e-05  -1.6013136e-04  -1.5292403e-04  -3.3120716e-05   7.2971627e-05   1.3645487e-04   7.9225618e-05  -1.0327961e-04   4.3427889e-04  -4.8380304e-04   3.0359527e-04   4.1321709e-04  -8.4261864e-04   2.1195640e-04   2.0114018e-04  -1.3548815e-04   2.7028358e-04   1.6162981e-04  -4.0787403e-05   8.8936205e-05  -1.3272771e-04   8.5314263e-05  -3.7876573e-05   1.6659027e-04   1.1431747e-04  -1.4749995e-05  -1.4034118e-06  -2.5125872e-04  -1.0575342e-05   1.0640895e-04   1.8564967e-04
  -9.1752387e-05  -1.1523990e-04   5.8103087e-05   2.7388394e-05  -5.7074085e-05  -1.0528864e-04   6.6663357e-05   9.0768219e-05  -4.9621653e-04   2.5835104e-04  -2.7782441e-04   1.9583665e-04   1.1238117e-04  -5.3366184e-05   2.2407492e-04   8.3812993e-05   3.1362890e-04  -4.7721034e-05   8.8178662e-05   7.8506971e-05  -1.4971795e-04   2.3788540e-05   1.5033911e-04   1.5631615e-04  -1.1003832e-04   1.2884622e-04  -2.1633077e-04   2.0620326e-04  -1.9823117e-04   3.0744905e-04   3.7891945e-04  -7.0143677e-04  -1.4612796e-04   2.0782450e-04   1.8946035e-04   2.2175412e-04   3.7782054e-04  -2.5693926e-05  -2.5447144e-04   3.2042738e-04  -2.3890292e-05  -2.8477383e-05  -8.5864813e-05   1.1153072e-04   2.6048090e-05   1.0495286e-04  -2.2567471e-04   4.9050332e-06   2.5312058e-05   2.2863492e-04
  -6.9892565e-05  -1.0457179e-04   4.5126224e-05   3.4584125e-05  -1.1195022e-04  -2.9828021e-05   1.5255924e-04   4.3750397e-04  -2.0784546e-04   2.5147651e-04  -2.1075465e-04   2.0965321e-04   1.0942575e-04  -3.0637759e-05  -1.6489829e-04  -2.0970549e-05   1.8894704e-04  -5.4047341e-05   6.6417524e-05   5.9331029e-05  -1.0612178e-04   1.0246658e-04   9.0834226e-05   9.5997770e-05   1.2935326e-04   2.5015201e-05   8.0753030e-04   1.6089735e-04   1.3431783e-04   1.4112642e-04   3.4705136e-04  -5.5085443e-04   4.0376186e-04   2.1366842e-04   8.8255227e-05  -7.7398645e-06   3.0261217e-04  -2.4644186e-04   7.9801350e-05   5.0615921e-04   8.6971617e-05  -2.0121039e-05   9.3179318e-05   3.2271660e-04   2.4245684e-05   3.2274587e-05  -1.8994547e-04   1.2051666e-04   4.8119753e-05  -5.5039229e-05
   1.6306846e-07  -4.9953887e-05   3.3083757e-05   8.9590125e-05   5.0686849e-05   1.3290266e-04   1.2421983e-04  -5.0589802e-05  -2.0628588e-04   2.6296900e-04  -1.7302034e-04   2.6377107e-04   3.7165180e-05   7.0087067e-06   1.5390926e-05   1.6922447e-06   1.6191721e-04  -6.7291505e-05   3.0948085e-04   2.4837753e-05  -9.3456321e-05  -1.1045104e-05   1.6045813e-04   3.8657105e-05  -1.6474392e-04   1.0504613e-04  -4.3094080e-04   1.2871892e-04   5.1813506e-05   2.0885826e-04   1.7967194e-04  -5.1119295e-04   2.2214530e-04   4.3133748e-04   4.3020697e-04   3.1874285e-04  -1.1958394e-04   9.1893762e-06   1.7406720e-04   3.7757022e-04  -5.1829906e-05   3.6943253e-05  -8.0880702e-05   2.5241682e-04  -7.4371565e-05  -3.4571363e-05  -1.6834204e-04  -7.7118646e-05   5.8532336e-05   5.9075828e-05
  -4.3095126e-05  -6.1972372e-05   8.5215201e-05   6.6109867e-05   1.0432681e-04   2.5313275e-04   2.3669536e-05   3.4144463e-04  -3.0793759e-05   2.6833141e-04  -1.5197408e-04   2.3569076e-04   8.5385072e-05   6.2910985e-05  -6.5593713e-06   7.4360232e-06   1.2599646e-04  -6.6550092e-05  -2.0193116e-05   2.8155051e-05  -8.8098495e-05  -1.0095979e-05  -6.9054254e-06   6.0457267e-05  -1.6085152e-05   9.6390926e-05   9.1815810e-04   1.7825433e-04   6.5929268e-04   1.3184907e-04   1.1813844e-04  -5.1750964e-04   1.4823684e-04   1.2626425e-04  -1.1062290e-04   2.5483829e-04  -1.9448964e-04  -7.0083835e-05  -2.8930779e-04   3.0878946e-04   5.6740496e-06  -1.8584233e-05   2.6055286e-04   6.9812668e-05  -5.0761890e-05   8.6999091e-05  -1.3334349e-04   4.7586040e-05  -2.0687696e-06   2.0092506e-04
