  -2.5320764e-05  -2.8572034e-05   1.0401032e-04  -1.8708972e-04  -7.9385092e-05   1.4901115e-04  -6.9387694e-05   2.6465737e-04   8.0881167e-05   5.6591718e-05  -6.5113141e-05  -2.1929691e-04   9.2509537e-05   3.2095221e-04   2.2218474e-04   2.7930544e-04   4.6740379e-04   1.7923782e-04   3.9077295e-05  -2.7520198e-05  -8.6385910e-05  -2.3069637e-04   3.5576533e-05   1.4912659e-04   1.7799264e-04   3.8447393e-05   5.6569593e-04   2.1800792e-04  -1.4621412e-05   1.3513678e-04   5.8553123e-04   4.2208840e-04  -1.4138554e-04   2.1291415e-04   6.1889616e-05  -6.9901849e-05   1.9595618e-04  -5.5650857e-05   1.9063776e-04  -4.2006952e-05   1.1411669e-04   1.5349597e-04  -7.2425915e-05  -2.4017452e-04   1.0519091e-04   1.6200474e-04   1.2267591e-04   5.9727294e-04  -1.0979080e-04   2.3436564e-04
  -1.8140089e-04  -4.3284173e-05   1.0773343e-04  -2.2482716e-04  -9.2860566e-05   1.0835018e-04  -3.4240464e-05   2.4794333e-04   2.3676477e-05   5.9526661e-05  -4.5082037e-05  -1.6903735e-04   6.4042739e-05   2.4176823e-04   1.2145190e-04   1.5555065e-04   3.6521850e-04   1.3720099e-04  -4.5476128e-05  -3.7398688e-05  -1.6927962e-04  -2.1896401e-04   3.6576752e-05   2.1701145e-04   1.7575221e-04   8.9612622e-05   2.1148799e-04   1.4507020e-04  -1.8615653e-04   8.5517597e-05   5.6377478e-04   3.3974071e-04  -4.2007837e-04   2.1212829e-04   3.2454434e-05   2.0733609e-05   1.1458724e-04  -8.3029903e-05   1.6530267e-04  -4.6805024e-05   2.5508796e-05   1.1483126e-04   1.2397117e-04   3.5362324e-04   3.8975904e-05   3.3761412e-04   2.0542470e-04  -4.0363587e-04   3.8250693e-04   1.7028558e-04
  -1.9309447e-04  -4.3026859e-05   8.3324470e-05  -2.1604491e-04  -1.0870690e-04   7.2499170e-05  -8.4932632e-05  -2.5622050e-05   3.7596652e-05   5.7131718e-05  -6.6176108e-05  -1.8492539e-04   5.2500713e-05   2.3145945e-04   1.2765994e-04   1.8054288e-04   3.6049396e-04   1.1966020e-04  -3.8683003e-05  -4.9158625e-05  -1.9387821e-04  -2.1227989e-04   1.2224345e-04   1.0779468e-04   1.0391152e-04   8.3467849e-06   2.0928819e-04   1.1254301e-04   3.6409150e-05   6.9068832e-05   5.3130736e-04   2.8944397e-04  -1.5382991e-04   2.5288732e-04   7.2706857e-06   3.6682053e-05   1.2312326e-04  -8.0229875e-05   1.9668677e-04  -1.9897646e-04   2.0914619e-04   4.2790060e-05  -2.5742847e-04  -8.6823537e-04   9.9782294e-05   2.9953176e-04   1.6826810e-04  -1.0225596e-04   2.0894330e-04  -6.4652611e-04
  -1.6470907e-04  -4.0676561e-05   8.2691899e-05  -2.0386396e-04  -1.3389067e-04   1.2720705e-04  -5.6418528e-05   2.8084213e-04   3.9524959e-05   5.8830450e-05  -5.5589371e-05  -1.7259365e-04   1.8136443e-05   7.4193027e-05   1.6765078e-05   8.3205741e-05   2.8975157e-04   7.2038143e-05  -1.3977631e-04  -5.3635322e-05  -1.8785626e-04  -2.0916949e-04   2.0232765e-05   1.9039067e-04  -3.6260262e-05   8.9544788e-05   8.4671687e-05   8.6337910e-05  -1.4507748e-05   3.6117464e-05   4.3421082e-04   2.3735604e-04  -1.9693411e-04   1.9897336e-04   3.2133801e-05   7.9686230e-05  -2.2111857e-05  -6.3905041e-05   1.8093859e-04  -8.4855026e-05   3.2345144e-04   1.4687279e-04  -1.8133508e-04   5.7749788e-04   1.1429962e-04  -6.8480993e-05   1.9096264e-04  -2.5948448e-04   2.0950024e-04  -2.8165180e-04
  -7.0334369e-05  -1.5864985e-05  -1.5152010e-06  -1.6572252e-04  -1.2825005e-04   7.5200122e-05  -9.3097777e-05  -5.1968142e-05   1.4083161e-05   6.7523579e-05  -5.0747964e-05  -1.1279527e-04   3.2905409e-05   3.3543394e-05   9.8014580e-06   3.2319043e-05   1.0871519e-04   6.7423985e-05  -1.1805319e-05  -5.3420386e-05  -1.6812142e-04  -1.0949325e-04   8.5567532e-05   1.2838609e-04   1.0766100e-04   9.8801233e-05  -7.3640680e-05   2.6866534e-05  -1.0016233e-04   8.0594065e-05   2.1090945e-04   1.2115053e-04  -2.9254135e-05   1.2395547e-04   7.7971008e-06  -1.2689037e-04   1.7506867e-05  -1.0221648e-04   1.8351525e-04  -1.4876066e-04   1.2622803e-04   6.5440261e-05  -1.6806115e-04   1.3392929e-04   6.0599585e-05  -6.3091022e-05   1.5765890e-04   2.4243917e-04  -2.7983481e-04  -7.2873244e-04
  -2.3241184e-04  -9.4308907e-06  -9.1592092e-06  -1.5740134e-04  -1.4537873e-04   8.4494655e-05  -7.4610682e-05  -3.7709880e-05   3.2479005e-05   7.3732423e-05  -4.5170840e-05  -1.4787870e-04   5.5120170e-05   5.9519076e-05  -5.1291936e-05  -2.9758119e-05   1.6301421e-04   3.1113392e-05  -1.1823946e-04  -5.7384528e-05  -1.6423182e-04  -1.1492283e-04   8.4610721e-05   1.3283950e-04  -3.9598253e-06   2.7369973e-05  -9.6582109e-05   1.0178860e-05   8.3701212e-05   4.4103406e-05   2.6708929e-04   1.4224721e-04  -5.0225062e-04   6.6619592e-05   4.0626514e-05   6.1277249e-05  -1.6243027e-04  -1.0782739e-04   1.3153348e-04  -1.1151535e-04   4.8571175e-05   5.9895436e-05  -3.7654568e-06   5.8897998e-04   7.1039802e-05   6.0941948e-05   1.3568749e-04   1.0142217e-03   2.3053505e-04  -8.2213039e-05
  -2.9210022e-04  -8.0031668e-06   2.9534327e-05  -1.4219192e-04  -1.1726740e-04   6.6040229e-05  -1.1638787e-04   1.9923632e-04   9.0825721e-05   5.7106488e-05  -5.0715727e-05  -1.5962077e-04   4.7215344e-05   9.6253832e-05   3.2210253e-05  -3.2900072e-05   1.8790676e-04   2.9163037e-05  -8.8162065e-05  -6.9481684e-05  -1.7238963e-04  -1.1292531e-04   4.0530918e-05   2.7562244e-05   5.5824399e-05   7.9640638e-05  -1.6254950e-05   1.0604645e-05  -2.6778766e-04   3.8553091e-05   4.0398884e-04   1.5353678e-04   4.4377057e-06   2.0149858e-04   2.3956252e-06  -3.9452047e-05  -1.1829654e-04  -7.0992181e-05   1.4111408e-04  -3.8328086e-05  -2.8943092e-05   1.0925188e-04   3.9764703e-04   2.6827579e-04   9.6298259e-05   2.3278758e-04   8.4924897e-05  -6.9895596e-04   3.9068269e-04  -9.9552461e-05
  -2.7615586e-04  -4.4166163e-06  -7.5992639e-06  -1.7132095e-04  -1.4193213e-04   7.2685230e-05  -1.4763088e-04   8.3656632e-06  -4.7721842e-05   7.4090225e-05  -5.5874731e-05  -1.5402296e-04   4.9607526e-05   8.2324761e-05  -8.4802989e-05  -7.1256763e-05   1.9327051e-04   5.4397387e-06  -7.3348958e-05  -8.3365878e-05  -1.6252362e-04  -8.9687281e-05   5.5641776e-05   1.3030115e-04   1.4072201e-04   3.3452005e-05   6.7103472e-05   2.4634826e-05  -5.7194578e-05   4.5896864e-05   3.8619092e-04   1.4414343e-04  -1.1450803e-04   9.7118631e-05  -2.0290177e-05   8.6512540e-05   1.2181019e-04  -6.4724241e-05   1.8846280e-04   6.6036839e-05   2.5666898e-04   6.3233165e-05   7.4598705e-04  -4.7383507e-04   7.3667841e-05   1.4952576e-04   2.0101236e-04   4.1192997e-04   1.3489516e-04   8.8006505e-05
  -2.3393032e-04  -7.3998149e-06  -7.2417504e-07  -1.5308373e-04  -1.4235608e-04   2.0126041e-05  -1.2703380e-04  -4.1604289e-05   1.5222799e-05   6.3647756e-05  -4.4905206e-05  -1.3838166e-04  -1.1235564e-06   4.5101511e-05  -1.2494902e-05   2.3550568e-07   1.5130972e-04   3.1679992e-05  -1.3258163e-04  -7.6315038e-05  -1.6909123e-04  -1.0630906e-04   8.0478530e-05   9.7025986e-05   5.5689699e-05   6.2961619e-05  -6.2059029e-05   2.3093133e-05   1.9096592e-04   1.0130567e-04   3.1503322e-04   1.5947582e-04   1.0099178e-04   1.1299778e-04   2.1902157e-05   5.4674874e-06   5.3285406e-05  -6.5895714e-05   1.4779654e-04   2.2431066e-05   1.0764101e-04   7.6141558e-05  -8.3982741e-05   2.4000400e-04   1.1605200e-04   1.6879183e-04   1.5847058e-04   8.4015011e-04  -3.6133808e-04   9.7551272e-04
  -2.5383438e-04   8.7059079e-06  -2.2685692e-05  -1.5293727e-04  -1.7350519e-04  -2.2990265e-05  -1.3329320e-04   1.8375630e-04  -1.8471235e-05   7.3680087e-05  -3.3583750e-05  -9.7588709e-05   1.8430103e-05  -7.9295296e-06   3.7618845e-06  -8.9493740e-05   1.0862031e-04   2.5353000e-05  -1.2725015e-04  -6.6395092e-05  -1.5807105e-04  -6.9147864e-05   5.0606079e-05   1.0961866e-04   1.2867479e-04   8.2198872e-05  -7.7380362e-05   3.8760436e-06  -2.3376508e-04   3.3427819e-05   2.7575175e-04   1.2814674e-04  -2.3263770e-05   9.8104145e-05  -3.6188743e-05  -5.0810576e-07  -1.4328666e-05  -9.6321659e-05   1.2156786e-04  -4.8121259e-05   3.2725712e-04   2.5320640e-05  -1.3071438e-04   1.8659525e-04   6.9531066e-05   2.0767444e-04   2.0249416e-04  -1.0188828e-04  -7.7022138e-05  -3.5804443e-04
  -1.1105953e-04   9.0577114e-06   4.3465928e-08  -1.5377173e-04  -1.2795809e-04   1.4982422e-05  -1.1410457e-04  -7.8314424e-06  -4.1481977e-05   5.0726976e-05  -3.2645934e-05  -1.2951267e-04   8.2869747e-06   3.7784012e-05  -1.0261162e-04  -1.0587599e-04   1.4596584e-04   3.7692087e-05  -8.8748879e-05  -9.6471165e-05  -1.7994703e-04  -1.0047947e-04   1.1426745e-04   6.7846282e-05   8.5717395e-05   9.2789458e-05  -5.0591356e-05  -7.2956364e-06  -1.5501309e-05   3.0104757e-06   3.4916494e-04   1.1643028e-04  -1.8226983e-04   7.0353191e-05  -1.1030491e-05  -5.7395035e-05   1.1204264e-04  -1.3820648e-04   8.4476676e-05  -1.2416525e-04   6.8023808e-05   1.2222567e-04  -7.9164711e-05   7.2716764e-05   7.1514740e-05  -1.0717737e-04   2.4030911e-04   1.2450312e-04   4.1976146e-04  -5.4835196e-04
  -1.8116216e-04   1.0274890e-05  -1.2179383e-06  -1.3718677e-04  -1.3875429e-04   3.2508531e-06  -1.1683848e-04  -9.4335541e-05  -7.3710857e-05   5.0027982e-05  -5.8697682e-05  -1.2299969e-04   1.8606081e-05  -3.6636680e-05  -5.7645513e-05  -7.3901218e-05   1.0193847e-04   8.1677586e-05  -3.0534018e-05  -7.6852361e-05  -1.6529746e-04  -8.0575526e-05   1.4915056e-05   1.0487642e-04   6.5101813e-06   5.0416733e-05  -1.3972729e-04   1.4271175e-05  -1.0647206e-04  -2.2627148e-05   3.3241339e-04   1.9093645e-04  -1.2854685e-04   1.0975543e-04  -2.1180402e-05   1.3313845e-05   1.2143546e-05  -7.1456729e-05   8.6105298e-05   1.2350410e-05   1.0678464e-04   3.1448486e-05  -6.4660795e-05   1.4703425e-04   1.2385870e-05   1.5600325e-04   1.7079854e-05  -9.6795592e-04   8.8996596e-05   1.2341962e-03
  -1.4334770e-04   2.1823926e-05  -2.2864911e-05  -1.3181476e-04  -1.1973979e-04   2.0894780e-05  -1.1088283e-04  -2.2121338e-04   6.8182519e-05   5.6656685e-05  -4.6731257e-05  -8.5804691e-05   2.7486227e-05  -4.6962119e-05  -1.4280807e-04  -1.1890428e-04   3.5724803e-05   3.8710816e-05  -1.5535012e-04  -8.7660774e-05  -1.6674394e-04  -8.2108236e-05   5.3127889e-05   1.5466827e-05  -8.1253411e-06   1.0064358e-04  -4.8209004e-05  -1.6121861e-06  -3.4723847e-04  -1.7511185e-05   2.1634204e-04   1.1477748e-04  -1.0962704e-04   8.2530358e-05  -6.5812754e-05  -7.8138124e-05  -7.0132366e-05  -1.3029632e-04   1.1229378e-04  -1.4929159e-04   1.1036244e-04   8.0135222e-05  -8.5830688e-05   3.3726456e-04   1.8453828e-05  -7.6541946e-06   2.0330444e-04  -3.4599600e-04  -3.5971150e-04  -3.2067259e-05
  -1.6151958e-04   3.1511714e-05  -2.8293554e-05  -9.9857520e-05  -1.4527758e-04   1.6596282e-06  -1.3381398e-04  -7.3805721e-05  -1.1795689e-04   5.7537789e-05  -6.1276354e-05  -7.6195378e-05   4.7741296e-06  -1.0363449e-04  -1.6738340e-04  -1.2823426e-04   5.3811436e-06   3.8907809e-05  -1.1198614e-04  -9.2311202e-05  -1.4902544e-04  -3.9652205e-05   3.6341124e-05   1.4934052e-06  -3.3456254e-05   4.9128426e-05  -1.1433056e-04  -9.7383199e-06  -6.9796188e-05   2.2942761e-05   1.9743208e-04   1.4653662e-04  -2.1730653e-04   1.0901307e-04  -2.6654156e-05  -4.4477376e-05  -1.2830614e-04  -7.9650403e-05   1.4672420e-04  -1.7198457e-04   2.4276262e-04   7.1881463e-05  -1.3138155e-05   3.6122165e-05   2.6753871e-05  -1.4041743e-04   1.8616869e-04  -1.7938767e-04   1.3350690e-04  -7.3228532e-04
  -2.4113231e-04   3.5518584e-05  -3.2471315e-05  -8.4252351e-05  -1.5122790e-04   3.9288348e-05  -1.4102683e-04  -9.1466303e-05  -5.1360657e-05   5.9241567e-05  -5.5967368e-05  -7.7912278e-05  -2.1252956e-05  -7.0376838e-05  -3.6466998e-05  -1.6224524e-04   3.5954015e-06   2.6857424e-05  -1.5083404e-04  -9.5534946e-05  -1.5861468e-04  -5.3124772e-05  -7.8184341e-05  -4.7216086e-05  -3.1232761e-05   6.2836392e-05  -2.2192576e-04  -2.8317971e-05  -1.0265780e-04   5.1854859e-06   1.7245067e-04   1.3290627e-04  -9.8568526e-05   1.1470017e-04  -1.1151516e-05  -2.1569538e-05  -1.6646054e-04  -1.6771317e-04   1.2498497e-04  -1.9449641e-05  -7.1181552e-05   6.0302715e-05   1.9336650e-04   1.3562386e-04   1.3477438e-04   1.4651266e-04   6.8627698e-05  -9.4953208e-04  -3.8838410e-04  -4.2483991e-04
  -1.5144778e-04   4.5460012e-05  -5.8753059e-05  -6.5334956e-05  -1.2001843e-04  -5.0420326e-06  -1.2627404e-04  -3.6871835e-04  -9.0279289e-05   5.8029189e-05  -5.2720192e-05  -5.9458725e-05   3.0188290e-05  -1.3560182e-04  -2.0564710e-04  -1.2589389e-04  -4.0162140e-05   2.9493602e-05  -1.1237520e-04  -8.5683147e-05  -1.3868719e-04  -3.6053727e-05   2.8656919e-05   1.6980975e-05  -3.2199562e-06   3.4759501e-06  -1.8694675e-04  -2.4269360e-05  -2.5296654e-04  -3.6144436e-05   1.8627665e-04   1.1621480e-04   1.8079618e-05   8.9456727e-05  -9.4943707e-06  -7.0050097e-05  -2.4109415e-05  -1.1959737e-04   7.7324272e-05  -7.9354111e-05  -3.4061934e-05   3.5692414e-05  -1.7336824e-05  -5.5018009e-04   1.1395840e-04   1.1967415e-04   1.1329781e-04  -2.2771645e-04  -2.6783886e-04   2.1769256e-04
  -1.0744574e-04   4.3327564e-05  -6.3985535e-05  -8.0833648e-05  -9.4338007e-05   7.6446995e-05  -1.3170604e-04  -1.0434610e-04  -1.0676211e-04   4.8398684e-05  -5.4616688e-05  -1.9503470e-05  -2.7000140e-05  -1.1613016e-04  -1.4482779e-04  -1.6425076e-04  -5.7795663e-05   3.0020972e-05  -2.5980666e-04  -8.1305334e-05  -1.3608391e-04  -9.1550901e-06  -3.7725258e-05  -1.0192846e-04  -8.2904167e-05   8.3313462e-05  -2.7722411e-04  -3.5604826e-05  -1.2130143e-04  -6.4029329e-05   4.0193452e-05   1.0868974e-04  -3.6596401e-05   1.0562343e-04  -2.2586984e-05  -3.3971293e-05  -4.0242765e-05  -1.1622631e-04   9.9775891e-05  -9.1459406e-05   9.4469833e-05  -1.1750020e-05   1.7057756e-04   4.2583296e-04  -1.5158712e-05  -1.6247376e-04   1.3466674e-04  -7.8420178e-04  -2.8640858e-04   3.2421036e-04
  -1.2751168e-04   5.0717561e-05  -3.1355292e-05  -6.9151429e-05  -8.7928296e-05  -4.8400861e-06  -1.2822280e-04  -9.4071336e-05  -1.0611018e-04   5.5717614e-05  -5.6584973e-05  -3.6551814e-05   2.2615022e-06  -1.1515844e-04  -9.1838396e-05  -1.5195321e-04  -3.6657038e-05   2.3570830e-05  -4.8257545e-05  -8.6441461e-05  -1.3037826e-04  -3.1711850e-05  -7.0256734e-05  -4.7787202e-05  -5.9687238e-05   1.7291184e-05  -1.8356707e-04  -5.1815925e-05  -1.0181532e-04  -1.7509958e-05   8.9812776e-05   1.0625499e-04  -3.7687135e-04   1.0008578e-04  -2.4490808e-05  -9.4106625e-05   9.5887153e-06  -1.0366492e-04   8.0849750e-05  -1.4108478e-04   1.2077286e-04   2.8808707e-05  -2.9157201e-04   2.0503903e-04   3.9827100e-05   4.8361721e-06   6.7544664e-05  -3.4404555e-04   2.4712470e-04  -6.9108745e-04
  -7.1827759e-05   4.4748114e-05  -3.0684521e-05  -6.6178327e-05  -1.1254888e-04   2.2837967e-05  -2.1256783e-04  -9.7546326e-05  -9.6091382e-05   4.3990054e-05  -5.1194820e-05  -5.8677488e-05   5.3501581e-06  -1.6559118e-06  -3.8933489e-05  -1.3340502e-04  -1.0344285e-05   1.6898657e-05  -8.8340952e-05  -7.6135839e-05  -1.1324690e-04  -1.8904901e-05  -3.7059846e-05  -8.1112157e-05  -7.2427596e-05   1.2155929e-04  -1.5348739e-04  -4.1594649e-05  -1.6656636e-04  -9.7969987e-06   1.5003570e-04   1.0867795e-04  -3.4331293e-05   1.4069433e-04  -7.3639176e-06  -1.9939231e-05   1.0851937e-04  -8.4935651e-05   3.8828995e-05  -4.3514694e-05  -1.6461729e-05   1.4950271e-04   3.4248507e-05   5.1502277e-05   3.9371007e-05  -5.7785379e-05   1.6143503e-04  -1.0196415e-03  -4.2060204e-04   1.5843046e-04
  -1.1274866e-04   4.7255282e-05  -6.2365332e-05  -7.0697824e-05  -7.7831864e-05   1.9701347e-05  -1.6689525e-04  -1.2418609e-04  -1.4108887e-04   7.3900395e-05  -2.0846232e-05   4.4799858e-06   7.1744275e-06  -1.7129102e-04  -1.3944053e-04  -1.8682463e-04  -4.6775382e-05   1.1570402e-05  -1.3412925e-04  -7.3254778e-05  -1.2348723e-04  -1.5846230e-05   4.0663759e-05   4.2275433e-06   1.1704699e-06   6.9141002e-05  -1.8427493e-04  -5.1119107e-05  -1.5796133e-04   2.9146571e-05   1.7745103e-04   9.7128890e-05  -1.4063435e-04   1.1147849e-04  -6.4953376e-05  -2.6909636e-05   3.2345499e-05  -8.9444067e-05   1.0106464e-04  -2.9104189e-05   6.4394852e-05   4.4759316e-05   5.9818296e-04  -5.9405964e-05   8.7579792e-05  -4.5504094e-05   9.9167315e-05   9.2520047e-04  -3.2848152e-04   3.3040257e-04
  -4.9330418e-05   4.3519784e-05  -6.4908039e-05  -6.1584738e-05  -9.7540367e-05   7.0927572e-06  -1.1765739e-04  -1.6053450e-04  -1.3978027e-05   5.6370962e-05  -4.5679008e-05  -4.5550969e-05   5.3209646e-06  -1.1436737e-04  -1.2554498e-04  -1.2600695e-04   9.7357743e-06  -3.8108165e-06  -6.3726831e-05  -7.9553763e-05  -1.1673652e-04  -4.7076097e-05  -4.4035605e-05  -9.6476921e-05  -4.6274679e-05  -7.1741262e-05  -1.2626691e-04  -5.8529047e-05  -1.8460269e-04   1.0253127e-06   1.5268997e-04   1.3808417e-04  -6.9743692e-05   1.0075433e-04   1.6631782e-05  -6.2253304e-05   1.2536864e-04  -9.2629860e-05   1.5749375e-04  -9.6257121e-05   2.3589106e-04   1.4362638e-04  -2.6364793e-04  -2.4855370e-04   1.0443350e-04  -2.0747502e-04   1.3552050e-04  -4.6628958e-04   5.0699193e-04   5.7327765e-04
  -1.6393008e-04   3.4752396e-05   1.9394256e-05  -6.8413792e-05  -8.7658409e-05   4.1998486e-05  -1.1168349e-04  -2.6393053e-04  -3.2774326e-05   5.5484492e-05  -2.6151458e-05  -5.4057367e-05  -1.7964887e-05  -7.4249874e-05  -5.8089288e-05  -1.4800417e-04   4.7816320e-05   1.4978265e-05  -5.5361281e-05  -7.6675540e-05  -1.4041933e-04  -3.3943819e-05  -1.7774157e-05  -1.0216130e-04   5.0172584e-05   1.0127850e-04  -2.0164165e-04  -4.6580113e-05  -1.2082147e-04  -1.8624816e-05   2.4931054e-04   1.2531926e-04   6.3642423e-05   1.7404325e-04   6.1468136e-06  -3.2015090e-05  -4.1003477e-05  -1.1391177e-04   6.5141779e-05  -1.0343199e-04   2.0755868e-04   7.2852483e-05   3.9615401e-04   5.2644563e-04   2.1764363e-05  -3.7183621e-04   6.0622519e-05  -8.2767272e-04  -1.0786526e-04   5.1473826e-04
  -2.8117183e-05   3.7893817e-05  -4.2231626e-05  -6.7181121e-05  -1.0970010e-04  -4.5022971e-05  -9.6866010e-05  -1.3679678e-04  -5.5118649e-05   4.7741290e-05  -4.2898988e-05  -6.2925486e-05   1.8393515e-05  -1.1282114e-04  -7.9487792e-05  -1.2893679e-04   2.2620572e-05  -4.9422110e-06  -2.1689812e-04  -7.0521688e-05  -1.1339703e-04  -6.5286332e-07  -4.5725646e-05  -9.2779374e-05   5.9141032e-05   1.0336274e-04  -1.7513166e-04  -6.5395034e-05  -1.4407965e-04   3.2187902e-05   1.8692664e-04   1.1049676e-04  -1.3254337e-04   1.3764786e-04   2.5321326e-05   2.2823317e-05  -2.1259223e-04  -9.0406247e-05   9.6906864e-05   1.0128785e-04   8.3843108e-05   5.3166928e-05   3.5350441e-04   3.8704844e-04   2.2767372e-05   4.0989507e-06   1.5651964e-04   2.3183141e-04   1.2828647e-04   5.2675570e-04
  -9.6202944e-05   3.8108112e-05   8.0651071e-06  -7.3986033e-05  -7.6148208e-05   1.2408109e-05  -1.1951054e-04  -2.9942195e-04  -1.4435289e-04   4.5992467e-05  -3.8293318e-05  -4.9632348e-05   6.5079221e-06  -7.6083197e-05  -1.2481972e-04  -1.2001424e-04   1.9512931e-05   6.1565252e-06   5.1800067e-05  -7.0138114e-05  -1.1975176e-04   8.6402033e-06  -5.3958072e-05  -1.9821966e-04   1.3154971e-05   7.3628486e-05  -1.7801212e-04  -4.2523854e-05  -1.0493804e-04  -7.1021254e-06   1.5126535e-04   1.4949167e-04   1.3308041e-04   1.5840449e-04  -3.0639756e-06   5.8319227e-05  -5.1741150e-05  -6.6834393e-05   6.3549647e-05   1.5452002e-04   1.0773244e-04  -2.3152079e-06   1.9458946e-04   3.9112568e-04   4.0198218e-05  -1.8568595e-04   1.1242669e-04  -5.8217946e-04   3.3442592e-04   7.3834317e-04
  -8.9565103e-05   3.8862043e-05  -3.7297206e-05  -5.7752866e-05  -8.1993523e-05  -4.1157979e-05  -1.2060111e-04  -1.3729354e-04  -6.2646934e-05   3.1415093e-05  -5.0217019e-05  -9.1691982e-05   4.0631608e-06  -3.5889720e-05  -1.4457472e-04  -1.4104032e-04   4.6811383e-05   7.1953118e-06  -1.8620221e-05  -5.8097674e-05  -1.1525057e-04  -2.4612586e-05  -1.4872450e-04  -8.5940184e-05  -4.5948196e-05   8.8912791e-05  -7.7904813e-05  -6.7511923e-05   1.8377497e-05   8.8702918e-06   2.4972254e-04   1.8541572e-04  -9.2199713e-05   1.5762284e-04  -1.9713104e-06  -8.4479616e-05   1.7979940e-04  -9.4413648e-05   1.1850905e-04  -5.1846568e-05   6.9984810e-05   9.2036062e-05   1.6510518e-05   5.9634080e-04   5.1852152e-05  -2.5300629e-04   1.6988991e-04  -6.3586567e-04   3.6125953e-04   4.5888234e-04
  -1.7854146e-04   3.1999036e-05   2.3578339e-05  -4.8529670e-05  -4.9411294e-05  -3.3645898e-05  -1.1908668e-04  -6.4247215e-05  -1.0487998e-04   1.4616465e-05  -6.7901201e-05  -1.2563152e-04  -1.3041082e-05  -2.0246136e-05  -9.5339885e-05  -8.5211243e-05   8.2077619e-05   2.3779003e-06  -7.1710921e-05  -6.1586026e-05  -1.2175937e-04  -1.7691718e-05  -7.7411416e-05  -1.4786486e-04  -1.2255408e-05   1.1897703e-05  -1.2025851e-04  -5.2401338e-05  -1.0476276e-05   1.5517720e-05   2.7325680e-04   1.6691214e-04  -1.2801906e-04   1.8400339e-04   3.7390753e-05   4.2674732e-05   1.7390851e-04  -3.2860891e-05   1.1278960e-04  -2.0561667e-05   9.9845900e-05  -1.8793446e-05  -6.5563880e-05   6.8918086e-04   7.0713199e-05   9.9764511e-05   8.3765590e-05  -5.9094245e-04   1.3565972e-04  -4.8158210e-04
  -1.2908320e-04   3.9109444e-05   6.7254741e-06  -7.9726749e-05  -8.5106170e-05   8.6404492e-07  -1.1862958e-04  -1.5147426e-04  -9.7640943e-05   3.0538951e-05  -4.1676081e-05  -1.1512681e-04  -2.3468774e-05   1.0294688e-05  -7.8976285e-05  -9.6888558e-05   1.0064413e-04   5.2546091e-07  -1.3176368e-04  -6.0286889e-05  -1.2270994e-04  -1.0872135e-05   7.1750241e-05  -1.8267579e-04   3.3182907e-05  -2.6641271e-06  -9.6113465e-05  -6.0755425e-05  -8.3897939e-05  -1.3454033e-05   2.6119055e-04   1.6028289e-04  -1.3948053e-04   1.9876068e-04   2.9437895e-05  -9.3585346e-05   2.7036649e-04  -7.2337250e-05   9.3695606e-05  -1.5651434e-05   6.8840309e-05  -3.9740942e-05  -3.2776791e-06   3.3944219e-04  -1.2647484e-05  -2.0428948e-04  -2.5755089e-05  -2.9092861e-04   1.4357008e-04   8.1900641e-04
  -2.0310079e-04   3.6553796e-05  -9.3062436e-06  -6.2733408e-05  -8.1138714e-05  -5.8041944e-05  -1.0884156e-04  -5.8684192e-05  -6.4485008e-05   7.0007786e-06  -6.6279754e-05  -1.3997390e-04  -2.7016404e-06  -2.4158022e-05  -1.2748312e-05  -8.0939644e-05   9.7425931e-05   1.0535549e-05  -4.4017477e-05  -3.8220493e-05  -1.0012928e-04  -3.2518088e-05  -2.5935980e-05  -9.7259530e-05   7.5966505e-05  -1.4030992e-05  -5.6485707e-05  -6.0367420e-05  -7.3111340e-05   3.0347361e-05   3.2793506e-04   1.9564756e-04  -2.0768610e-04   2.1615441e-04   5.8165078e-05  -6.3655818e-05   4.3960003e-06  -5.7065608e-05   1.2184770e-04   2.9317789e-05   1.2220310e-04   5.1946969e-05   1.9913068e-04  -1.1399062e-04   1.0002576e-04  -1.6121984e-04   1.4095709e-05   1.4071019e-05   1.8664265e-04   6.1746320e-04
  -7.7651297e-05   3.5861562e-05   3.4317069e-05  -6.8646907e-05  -6.8977213e-05   6.2088707e-06  -1.1873751e-04  -1.9299341e-04  -7.2099829e-05   2.0151027e-05  -4.2945114e-05  -1.2702798e-04  -9.0578878e-06   2.7562837e-05  -1.6599127e-04  -9.0348352e-05   1.1933442e-04   1.8393347e-07   3.5356243e-05  -4.7300491e-05  -1.3257741e-04  -6.0093509e-05  -1.3476635e-04  -1.4346546e-04   4.7503763e-05   3.9365914e-05  -7.8828198e-05  -5.9665086e-05  -2.8335449e-04   1.5315067e-05   3.3942438e-04   1.8674386e-04  -2.2612963e-04   2.1562177e-04   3.8540879e-06   8.0646030e-05  -4.8626374e-05  -7.1049668e-05   9.7913420e-05  -4.6500627e-05   3.2325540e-04   8.7413908e-05   3.6286813e-04  -7.4351247e-04   4.6527923e-05   3.0513341e-04   1.0979056e-04   6.2450196e-04   3.3079072e-05  -5.3392141e-04
  -6.5661370e-05   3.9179446e-05   2.4845880e-05  -5.8144920e-05  -8.1809871e-05  -5.1890067e-05  -1.0565785e-04  -6.7540677e-05  -1.9597038e-04   1.0661481e-05  -5.8563375e-05  -1.5280030e-04   1.5111464e-05   4.7393860e-05   1.6978509e-05  -6.0845607e-05   1.1875537e-04   7.3527553e-06  -5.3858494e-06  -3.2540913e-05  -1.0963120e-04  -4.0158135e-05   7.8697871e-05  -1.0654600e-04   1.5774420e-05   5.8556572e-05  -4.5311066e-05  -6.7112982e-05   1.0445858e-04   6.4996486e-05   3.2332414e-04   1.7950647e-04  -1.9960450e-04   2.2723281e-04   4.5860583e-05   2.7268941e-05   1.8352807e-04  -1.3647187e-05   1.2118503e-04  -5.7310870e-05   2.9145766e-04   8.4619183e-05   4.3646236e-05   3.0295728e-04   3.5741677e-06   7.8239973e-05   4.8679478e-05   5.1813672e-04   1.2180414e-04  -9.4814406e-04
   5.8164409e-05   3.3374548e-05   2.6822912e-05  -5.7496141e-05  -5.3827891e-05  -3.5718058e-05  -8.1704042e-05  -3.5033278e-05  -3.5610301e-05  -2.0328914e-06  -6.2519684e-05  -1.5090253e-04   2.1243988e-05   6.5991408e-05  -1.2258842e-04  -2.6722504e-05   1.0544225e-04   1.1080442e-06   2.7310009e-06  -3.1016109e-05  -1.1102147e-04  -2.3577893e-05  -8.7199776e-05  -1.5457322e-04   1.7504599e-05   6.5345208e-05  -3.4002805e-05  -7.9040728e-05   5.6462199e-05   1.0741537e-04   2.8796092e-04   1.7206007e-04  -1.6928872e-05   1.9472458e-04  -1.6154027e-05   4.4423479e-05   2.0363140e-04   1.3246956e-06   8.4692401e-05   3.9747760e-05   1.6204933e-04  -6.2515937e-05   3.4461691e-04   4.5520696e-04   2.3102550e-05   1.5999857e-04   5.1047646e-05  -6.5088965e-04   2.9094596e-04   3.1742969e-04
  -2.6238766e-05   4.9777198e-05   7.1522751e-05  -3.5168072e-05  -5.0481965e-05   3.7591846e-05  -6.0160899e-05  -3.4589058e-04   1.4104123e-06   2.0449696e-05  -2.8108166e-06  -1.4428416e-04   3.6482797e-05  -2.5781176e-06  -1.0701895e-04  -7.5863296e-05   1.4017137e-04  -2.0632606e-05  -7.4003510e-05  -2.3053139e-05  -1.0883245e-04  -1.2757460e-05  -3.1082764e-06  -8.8826811e-05   5.5142027e-05   1.0743469e-04  -2.8814598e-05  -5.9865142e-05  -6.6629931e-05   7.5357835e-05   2.9175371e-04   1.9598300e-04  -1.3130851e-05   2.0435193e-04   6.3278640e-05   7.5909105e-05   1.3116769e-04  -1.7082517e-06   1.1021123e-04   5.7101697e-05   7.7017467e-05   1.3849420e-04   2.6310171e-04   3.9160313e-04   9.3172814e-05   1.4607061e-04   1.5482580e-04   7.2248024e-04   7.5730604e-05   3.3433910e-04
   6.8656154e-06   4.6672922e-05   4.5094996e-05  -1.9585201e-05  -3.3827604e-05   2.4785752e-05  -6.0466613e-05  -8.2407121e-07  -6.9473943e-05   9.4115594e-06  -3.5200374e-05  -1.5001155e-04   1.2860916e-05   6.5625260e-05   5.5432088e-06  -3.9085440e-05   1.1679241e-04  -2.2058748e-05   2.9526296e-05   9.7244947e-07  -8.1029910e-05  -3.0191675e-05   3.1066600e-05  -1.3839816e-04   7.8821700e-05   1.0770476e-04  -3.2959375e-05  -8.0030804e-05  -2.6280421e-05   1.7157054e-04   2.7804755e-04   1.8739527e-04  -7.6124384e-06   1.8324867e-04   5.4695807e-05   1.9046267e-04   4.6963902e-04   3.1915604e-06   1.6357005e-04  -7.9932788e-06   1.0646072e-04  -5.8726260e-07   5.4229598e-04   8.7518374e-06   3.8458307e-05   1.0472521e-04   7.0674861e-05  -5.9644139e-05  -5.3436001e-05   2.2192246e-04
   1.4037339e-04   6.9765971e-05   6.6823064e-05  -1.6267017e-05   1.3768557e-05   1.3497131e-05  -3.1567615e-05  -3.8575261e-05   5.1343082e-05   2.7857139e-05   1.5669682e-06  -7.9788573e-05   1.5767180e-05   1.7461489e-06   7.6826007e-05  -3.6683541e-05   4.6398931e-05  -4.0573825e-05   4.0257761e-05   1.2212418e-05  -9.9059354e-05  -1.9343826e-05   8.5420152e-06  -1.5720625e-04  -1.3310057e-05   5.9710525e-05  -9.3515686e-05  -5.9119087e-05  -4.1767202e-05   1.2336437e-04   1.8637665e-04   1.5273632e-04   7.7686263e-06   1.5589541e-04   3.2961700e-05   2.0482598e-04   1.0800374e-04   4.1716507e-06   8.5703017e-05   3.5736408e-05   8.8870140e-05   6.8871850e-05   2.0069216e-04   1.2815100e-05   1.3283282e-04  -1.7203801e-04   2.9402270e-05   2.1203861e-04   1.2474482e-04  -2.9060643e-04
  -2.3928231e-05   6.6579385e-05   6.6195273e-05  -2.1033766e-05   7.6072006e-08   7.1172457e-05  -4.6409077e-05  -2.4363270e-04   2.1030948e-05   1.4218187e-05  -3.7913762e-06  -1.0452657e-04   7.2239578e-05   2.4520596e-05  -1.2275238e-04  -2.4680441e-05   4.8059595e-05  -2.0879377e-05   9.8795688e-05   1.9981451e-05  -7.2269169e-05  -1.5543323e-05   4.5139732e-05  -1.2126365e-04   4.2314354e-05   6.6819528e-05  -1.0825530e-04  -7.1274473e-05   5.4307366e-05   1.5320709e-04   1.5817309e-04   1.8095727e-04   3.1219752e-05   2.0944333e-04   4.2452572e-05   2.5878295e-05   1.0359284e-04   4.1486230e-05   9.8632554e-05   6.4668617e-05   2.4383399e-04   1.1744244e-04   4.5205362e-04   8.2200904e-06   1.2950551e-04   9.3493662e-05   1.7571455e-04   4.8897922e-04   4.3544723e-04   8.9070603e-04
   7.9038415e-05   6.4200402e-05   9.2138085e-05  -7.7449022e-06   1.6607588e-05   3.0739404e-05  -7.1411241e-06  -9.0956302e-05   5.9255632e-05   1.4316355e-05   1.3644129e-05  -1.0845157e-04   4.2207950e-05   4.1339423e-05   1.5613305e-05   4.1081853e-06   8.4347077e-05  -2.2520058e-05   1.1701415e-04   2.0579355e-05  -9.9939942e-05   3.1313916e-06   5.7310448e-05  -1.5577435e-04   2.1731092e-05   3.6740126e-05  -4.2481508e-05  -6.8935493e-05  -1.4275418e-05   1.2068132e-04   2.6830801e-04   1.6220909e-04   1.1212935e-04   2.0831780e-04   9.1647031e-05   6.8128509e-05  -7.5668744e-05   1.4243002e-05   1.8923274e-04  -5.8419824e-05   1.1679381e-04   9.7277698e-05   8.3238428e-04  -2.0883333e-04   9.0086680e-05   4.2028859e-04   1.7054929e-04   1.0901895e-04  -3.6356144e-04  -2.8841585e-04
   5.3264539e-05   6.7003362e-05   8.2624792e-05   1.1531588e-05  -1.1741468e-05   1.5532254e-04  -3.1335800e-05  -2.4364099e-05   7.7124154e-05   1.2186658e-05  -1.9534882e-05  -1.2194772e-04   5.2933690e-05   7.8296616e-06  -7.1275360e-07  -2.6524660e-05   7.7705663e-05  -3.4424782e-05   1.6116992e-05   2.2635430e-05  -8.8196175e-05  -6.2163272e-05   5.4220709e-05  -2.1429027e-04   3.7889167e-05   6.3110048e-05  -9.6286974e-05  -7.4458352e-05  -7.2861723e-05   9.4290503e-05   2.1760125e-04   1.4627875e-04  -9.7638527e-05   2.1469488e-04   7.5432115e-05   1.3816763e-04  -1.2822094e-05   5.6264995e-05   2.0453712e-04   5.3587355e-05   1.2562117e-04   6.7349734e-05   2.7130702e-05   3.2198607e-04   6.5953209e-05   7.1486014e-05  -8.0203590e-06  -8.4301294e-04  -2.6763702e-04  -7.7437924e-04
   3.8977374e-05   6.6039633e-05   8.2832164e-05  -1.1763516e-06   3.2248088e-05   1.3099384e-04   1.0784044e-05  -9.9427991e-05   9.4190727e-05  -8.6086329e-06  -2.6783877e-05  -1.8229471e-04   3.8861981e-05   1.9221770e-05   2.3153971e-05   2.5483874e-05   1.2503090e-04  -9.8025248e-06   1.0053915e-04   1.0465585e-05  -1.0406673e-04   7.1967520e-06   9.2224051e-05  -1.9419676e-04  -1.9492452e-05   6.7186622e-05  -3.9356532e-06  -6.1758452e-05   8.3491701e-05   1.4603430e-04   2.6138875e-04   2.2253593e-04   1.6857908e-04   2.1571449e-04   9.7893011e-05   1.6761245e-04   2.5168931e-04   6.1989966e-05   2.3117523e-04   9.7822864e-05   2.3320102e-04   3.8628375e-05  -8.6306136e-05  -4.6619028e-04   9.5183008e-05   1.8506432e-04   7.3995179e-05  -2.4339311e-04   3.5085005e-04   7.0473604e-04
   2.0883397e-04   7.1048024e-05   1.2370318e-04   1.1080592e-05   9.3528397e-06   1.4230685e-04   3.1462681e-05  -3.1010444e-05   8.7361950e-05   8.2049191e-06  -1.6682521e-06  -1.6070961e-04   5.1316125e-05   6.4394764e-05  -3.1318385e-05  -3.1052728e-05   1.0487085e-04  -1.5431493e-05   8.4590356e-05   1.8870835e-05  -1.0330384e-04  -3.4364100e-05  -7.1703784e-05  -1.7960044e-04   2.6255364e-05   2.2402717e-05  -1.2802259e-05  -6.5040447e-05   1.1883397e-04   1.3010246e-04   2.5760985e-04   1.9251712e-04  -2.0881562e-04   2.3029669e-04   2.9008143e-05   1.9794234e-04   2.6954027e-04  -1.8924231e-05   1.1452351e-04   7.0299684e-05   1.1070468e-04   1.4596709e-04   3.6483243e-04   3.3843520e-04   1.4526023e-04  -1.8171487e-04   1.0166910e-04   3.4796036e-04  -2.0508040e-04   1.4079663e-04
   1.6610579e-04   6.3788873e-05   9.5052594e-05   1.0868756e-05   4.5375841e-06   1.3188714e-04  -1.2554923e-05   1.2587885e-04   9.6547478e-07  -1.4553198e-05  -2.3583098e-05  -1.6818104e-04   3.3433003e-05   6.3143219e-05   4.4845288e-05   2.2307117e-05   1.2375190e-04  -6.0165416e-06   9.4568917e-05   2.4022407e-05  -9.3940784e-05  -7.7465456e-06   1.1260203e-05  -1.7101115e-04   7.7752797e-05   7.6901029e-05   1.0018571e-04  -6.5253946e-05   1.0203707e-05   1.1188136e-04   2.6621498e-04   2.1358801e-04  -4.0147712e-05   2.6332703e-04   8.2105711e-05   5.3681280e-05   2.3287676e-04   3.9957766e-05   1.8206584e-04   1.1647611e-04   6.2142630e-05   1.2946541e-05   5.1477033e-04   3.2896610e-04   3.5379158e-05  -9.3815986e-05   7.5631469e-05  -4.5767010e-04   1.4957899e-05  -1.5178548e-04
   1.7226121e-04   7.3694529e-05   9.5722084e-05   9.6066867e-07   3.6647450e-06   1.2264054e-04   2.0894950e-05  -4.3611617e-05   3.4904780e-05  -1.0482738e-06  -1.3152444e-05  -1.4497839e-04   3.3083135e-05   6.1246836e-05  -5.1872496e-05  -3.8925165e-05   9.1858950e-05  -2.4406199e-05   1.1437543e-04   9.9369645e-06  -1.2360551e-04  -7.3641233e-05  -9.1804804e-06  -1.7869053e-04   5.2663607e-05   9.5910458e-05  -9.2613605e-05  -5.7619483e-05   1.4960054e-04   8.7548979e-05   2.9180839e-04   2.0202481e-04   7.6201242e-05   2.0721962e-04   2.6963322e-05   6.1107581e-05   2.1828942e-04   3.5772082e-05   2.0966990e-04   8.6114283e-05   1.1733484e-04   2.7547483e-05  -2.6104235e-04  -3.0212293e-04   9.0155627e-05   1.8429843e-04   1.4277484e-04  -7.9269957e-04   1.1874169e-04   3.1268655e-04
  -2.2889926e-05   6.3668274e-05   8.3880157e-05   2.0418136e-05   8.6760319e-06   1.0135467e-04   5.7504461e-05  -1.1843829e-04  -3.0676681e-05  -1.2892362e-05  -3.2307078e-05  -1.4795679e-04   2.1406409e-05  -3.1807765e-05  -9.7734490e-05  -2.6399139e-05   1.1831501e-04  -8.2632441e-06   7.2594950e-05   2.3018307e-05  -1.1408781e-04  -4.1662457e-05  -1.9122821e-05  -1.7781796e-04   4.4564818e-05   4.7348967e-06  -4.2038202e-05  -6.7207344e-05   1.4868975e-04   1.7462811e-04   2.5124935e-04   2.2114899e-04   5.8283604e-05   2.2656217e-04   3.4320983e-05   8.9491696e-05   2.2392953e-04   3.7590467e-05   1.9282197e-04   1.0578286e-04   2.0706777e-04   8.9197034e-05   9.1926969e-04   1.2175527e-05   4.3458298e-05   9.9427438e-05   1.4601971e-04   3.7736263e-05   3.5864953e-04   2.1153234e-03
  -5.3032574e-05   5.8341564e-05   1.1666254e-04   9.1518928e-07   3.1582349e-05   1.3963539e-04   2.5277344e-05  -5.2453186e-05  -1.8042101e-06  -3.7657617e-05  -4.3840519e-05  -1.7511187e-04  -1.3658311e-05   1.3294902e-04   8.1565609e-05   1.1911382e-08   1.1689694e-04  -2.1281116e-05   1.7526108e-04   2.5607784e-05  -1.1603700e-04   2.1889808e-05  -4.9831830e-05  -1.5533810e-04   1.1400860e-05  -2.1260874e-05  -8.1290091e-05  -6.0092345e-05  -1.1280929e-04   1.5695642e-04   2.5792292e-04   2.0355689e-04  -1.8849198e-04   2.6899955e-04   2.7538603e-05   1.3140430e-04   1.3300071e-04   9.7985336e-05   1.7324215e-04   8.3614585e-05  -1.3463902e-04   2.0331012e-05   4.9451139e-04  -2.3308073e-04   3.0339228e-05   8.4128507e-05   9.2971452e-05   1.8052163e-04   8.1754129e-05  -2.8349084e-04
   7.1220158e-05   6.4126194e-05   8.1228158e-05   4.9018541e-07   2.1645719e-05   4.8418380e-05   1.7217726e-05  -7.0642214e-05  -3.8009854e-05  -3.1509117e-05  -2.3201592e-05  -1.5350404e-04  -9.7210295e-06   2.1878701e-05  -3.9710081e-05  -3.4695222e-05   1.2326932e-04  -2.8661370e-05   1.2544620e-04   3.0503568e-05  -1.2369938e-04  -7.1942995e-05  -5.9078280e-05  -2.2556173e-04   6.4573425e-05   5.9725240e-05  -5.4973898e-05  -4.6839057e-05  -9.0226269e-05   1.3625245e-04   2.9185938e-04   1.8184911e-04  -6.4528344e-05   2.6015076e-04   1.0642304e-04   7.5033022e-05   5.5498800e-05   5.7785455e-05   1.3324751e-04   1.0684362e-04   1.5757531e-04   1.0343226e-04   5.6580588e-04  -2.7258240e-04   1.0334355e-04  -1.7330905e-04   3.9615610e-05  -1.5203177e-03  -6.5487629e-04  -6.6613115e-04
   1.3787702e-05   6.5712207e-05   5.0463703e-05   5.5938763e-06   1.5253996e-05   9.3981602e-05   4.9091461e-05  -5.8605883e-07  -2.7047570e-06  -2.5549922e-05  -2.9552652e-05  -1.0765849e-04   1.8040388e-05   5.0644780e-06  -1.5013522e-05   1.6664651e-06   2.9922498e-05  -4.1271029e-05   5.6759243e-05   5.9545266e-05  -1.0118073e-04  -1.3938487e-05  -8.0451435e-05  -1.0787129e-04   9.3865638e-06   4.9586499e-05  -9.4628936e-05  -6.7832509e-05   1.8847521e-04   1.1362407e-04   2.0055183e-04   1.5944787e-04   1.4357372e-04   1.8311194e-04   5.9548220e-05   8.3778272e-05   2.7507910e-04   1.2167339e-04   1.9755893e-04  -9.0345484e-06   1.2603770e-04   6.6576336e-05   3.9841046e-04   2.4016840e-04   8.7276043e-05   1.1708213e-04   1.4827914e-04  -9.9003804e-04  -9.4129737e-06  -7.8196026e-05
   1.2053426e-04   7.3734191e-05   6.6405330e-05   1.2576706e-05   6.4874708e-05   1.2939968e-04   2.1551703e-05   5.2361862e-05   2.8879967e-05  -2.4420870e-05  -5.2073574e-07  -8.6678650e-05   5.2633022e-06   8.0218990e-05  -8.3623578e-05   3.5300658e-05   6.7823894e-05  -2.0123569e-05   1.2620943e-04   4.7098358e-05  -1.2378662e-04  -1.2077962e-05  -9.4330666e-05  -2.0855294e-04  -2.6683736e-06   6.4916057e-05  -4.4207618e-06  -7.4445023e-05   4.9095084e-05   1.5607642e-04   2.6561480e-04   1.9528963e-04  -3.4060409e-05   2.0876448e-04   4.0355153e-05   1.6582849e-04   2.0621165e-04   5.8467849e-05   1.2924569e-04  -1.0028438e-05   1.9403175e-04   1.5805173e-04   1.8631297e-04   2.2372747e-04   3.5299050e-05   1.2642940e-04   3.8106169e-05  -7.2306307e-04  -2.1366414e-04   1.0491955e-03
   2.6004260e-05   6.7171590e-05   4.6562196e-05   1.2478077e-05   2.1939160e-05   4.7759673e-05   1.6959229e-05   1.3749853e-04   1.1841339e-05  -3.3025906e-05  -8.4449312e-06  -9.9470053e-05   1.6675189e-05  -2.5129812e-05  -5.8863232e-05   2.0582063e-05   4.9370152e-05  -3.4910860e-05   1.1556007e-04   6.1072409e-05  -1.0737553e-04  -2.6717520e-05  -6.4576932e-05  -1.8283367e-04   1.1388283e-06   4.3417131e-05  -8.7461667e-05  -7.2037728e-05  -2.5250975e-04   1.4618390e-04   2.1025047e-04   1.6567808e-04  -1.5839945e-05   2.5882514e-04  -1.3863515e-05   1.6963665e-04   2.5713691e-04   4.5831097e-05   1.7598108e-04   7.7221615e-05   1.0177974e-04  -5.7967839e-07   1.1154896e-04  -6.3763749e-05   8.0650731e-05  -1.9648349e-05   7.8388395e-05  -1.2425989e-05   2.7304894e-04  -1.4459161e-04
   7.3585754e-05   6.9107875e-05   6.3081090e-05   1.5607597e-05   4.1160511e-05   4.3062329e-05   1.7598712e-05   1.9909430e-04   8.3630272e-05  -3.5968860e-05  -1.7692517e-05  -1.0614359e-04   5.6760535e-05   1.1933754e-05  -6.0218645e-05   1.2545515e-05   7.3839241e-05  -3.3592234e-05   1.0228963e-04   7.0733971e-05  -9.1312795e-05  -1.5780399e-05  -7.4714218e-05  -1.9581738e-04   3.3521421e-05   4.3579275e-05  -9.4925519e-05  -5.9797316e-05   8.5799817e-05   1.6449091e-04   2.6696472e-04   1.8299848e-04   1.4582764e-04   2.7630376e-04   2.1212678e-05   9.9834593e-05   2.2975386e-04   3.5360656e-05   1.6536293e-04   9.9632009e-05   1.8658151e-04   1.4402042e-05  -5.1528772e-05   1.3255276e-04   5.6586287e-05   9.1563881e-05   7.1847870e-05  -7.5503008e-04  -1.8163913e-05  -8.7874563e-04
  -7.1519762e-06   6.6867884e-05   6.9379705e-05   1.7552653e-05   2.9990675e-05   1.0241288e-04   4.2387292e-05   8.4913199e-06   3.1782569e-05  -3.5426878e-05   9.3198769e-06  -1.0446963e-04   5.0474886e-05   4.4412587e-05   5.4231608e-05   3.9008952e-05   1.2033599e-04  -2.6724654e-05   1.7449529e-04   4.1273986e-05  -1.2294845e-04  -5.3719246e-05  -7.8301753e-05  -1.6171225e-04  -3.2077318e-05   1.3025880e-05  -3.6952832e-05  -5.9501079e-05   1.2159961e-04   1.2066650e-04   2.4556354e-04   1.8683374e-04   3.6511192e-05   2.0200909e-04   6.5693122e-05   8.2403749e-05   1.7934188e-04   9.5801966e-05   1.7717273e-04   6.7469118e-05   5.5366701e-05  -1.5005003e-05   3.9532769e-04  -3.0158632e-04   8.3449529e-05   1.2727635e-04  -2.0467714e-05  -9.4949233e-04  -1.0359464e-04   5.7246634e-05
  -9.4792067e-06   6.3024563e-05   4.1741117e-05   1.7489418e-05  -5.6366698e-06   3.3296750e-05   5.8148555e-05   1.1318261e-04  -2.4680883e-05  -3.3396202e-05  -1.1623674e-05  -7.8652767e-05   2.9970106e-05   1.7358598e-05  -2.1817430e-05   2.6671603e-06   6.6339737e-05  -3.0432073e-05   1.5179273e-04   7.0264541e-05  -9.1097885e-05  -3.9470866e-05  -5.9061040e-05  -1.5710985e-04   1.1246555e-04   5.5535678e-05  -2.0459913e-05  -6.1833955e-05   4.6143934e-05   1.5580980e-04   2.1728672e-04   1.4157926e-04  -1.1263412e-05   2.1407413e-04   5.7336259e-05   1.9542957e-04   1.2428846e-04   5.1405787e-05   2.0447724e-04   3.3592143e-05   7.4953918e-05   1.1421368e-04   4.3214537e-04   3.5987035e-04   4.2287804e-05  -7.9755897e-05   3.8337002e-05  -4.0831006e-04  -3.8052280e-04  -6.3691492e-04
   1.0161205e-05   6.7154186e-05   7.9971687e-05   3.1797314e-05   1.0978472e-05   5.2234886e-05   1.8205041e-05  -7.2518691e-05   1.2702143e-04  -2.5879839e-05  -9.7044222e-07  -7.2452189e-05   4.9414124e-05   4.4392009e-06   8.7967921e-05   4.5065695e-05   3.7279515e-05  -3.5193647e-05   4.3743534e-05   5.6676330e-05  -9.0804875e-05   8.5902786e-07  -7.8505538e-05  -1.7579924e-04   1.6997024e-05   4.9961640e-05  -6.4015701e-05  -5.4614509e-05   3.1729467e-04   1.4683626e-04   2.0223632e-04   1.3628064e-04   9.3992523e-05   1.8935821e-04   3.2035605e-05   2.6123720e-04   3.3868244e-04   8.0911377e-05   9.5568335e-05   1.4558301e-04   2.0413109e-04   1.0955901e-05   3.4066592e-04   3.5412260e-04   4.5644676e-05   7.2238436e-05   4.7162976e-05   3.7085594e-04   5.1115401e-04  -1.1925647e-04
   6.0813349e-05   6.7724635e-05   9.7563410e-05   4.2865022e-06   5.7787324e-06   4.3195792e-05   1.2306564e-05   1.0447185e-04   8.1917351e-05  -9.5749019e-06   1.9296456e-05  -7.2960262e-05   2.1110563e-05   4.3998065e-05   1.3447949e-04   1.3522940e-05   9.5059579e-05  -4.5526067e-05   8.0012171e-05   4.4393444e-05  -1.0617503e-04  -1.2177319e-05  -1.6049428e-04  -1.4081183e-04   2.9650766e-05   5.4007374e-05   5.7038342e-06  -5.2605377e-05  -1.1231205e-04   9.8706354e-05   2.8226510e-04   1.4433960e-04   1.0649856e-04   2.0136472e-04   1.6303424e-05   1.1747978e-04   2.1888701e-04   5.8653884e-05   1.5604288e-04   9.3554212e-05   3.0068765e-04   5.0130988e-05   1.4464761e-04   4.6968380e-05   7.0208895e-05   1.1899423e-04   9.3666589e-05   9.8237026e-05  -6.9918162e-05  -6.4891105e-04
  -1.8557281e-05   5.8099173e-05   9.2347131e-05   2.3752309e-05   3.0245470e-05   2.0897563e-05   7.4355725e-05   9.4718431e-05   9.5483607e-05  -1.6820093e-05   1.9306961e-05  -4.9485338e-05   2.9649187e-05  -2.3710425e-05  -6.2291925e-05   3.2612992e-05   4.8851009e-05  -4.2016622e-05   1.6941888e-04   5.2099665e-05  -7.9891797e-05  -1.1416418e-05  -5.3126838e-05  -1.2080947e-04   3.0804738e-05   1.2791055e-04  -1.2175696e-04  -6.6711007e-05   2.1763501e-04   2.0230253e-04   1.4384923e-04   1.0480236e-04   5.9778366e-05   1.5574381e-04   7.1810689e-05   1.7770965e-04   1.2339455e-04   4.7239784e-05   1.3255232e-04   2.2950875e-04   2.1944322e-04   2.7718808e-05   1.5013141e-04   2.1410386e-04   4.7233072e-05  -2.8887842e-04  -7.7567329e-06   6.4305452e-05   3.5150291e-04  -4.1453075e-04
   2.1013891e-04   6.9023910e-05   8.5765932e-05   3.4719036e-05   4.1451847e-05   2.3502605e-05   7.6953664e-05   1.7937129e-05   1.7622876e-04  -2.3001858e-05   1.4716282e-05  -2.5142754e-05   1.5206258e-05   5.5878187e-05   1.5153090e-05   3.0380812e-05   6.6446402e-05  -4.7412683e-05   1.7285424e-04   4.8706646e-05  -9.3140152e-05  -5.9696254e-06  -3.6618592e-05  -1.1227151e-04   9.3762683e-05  -1.0868767e-05  -7.6963506e-06  -4.8926373e-05  -3.3821172e-05   1.9229279e-04   1.9658070e-04   1.5489571e-04   1.8817576e-04   1.9456643e-04   5.0277238e-05   1.9710709e-04   2.9584533e-04   7.2201045e-05   1.1661543e-04   1.1741624e-04   1.5859706e-04   1.0942222e-04  -5.7345249e-05  -1.2174172e-04   1.9227302e-05  -1.2485709e-04   6.2268664e-05   5.7108729e-04   1.1496954e-04  -7.8156777e-04
   4.3876586e-05   7.1346847e-05   1.1328287e-04   1.8608902e-05   5.0282437e-05   6.2300867e-05   8.6158056e-05  -8.6644250e-06   7.6544027e-05  -3.3651938e-06   4.9758110e-05  -4.2773085e-05   6.0227445e-05  -4.5438468e-05   6.4643260e-05   3.6734069e-05   9.4245275e-05  -5.2245978e-05   1.5661353e-04   4.4654931e-05  -9.0941503e-05  -4.9742785e-06  -6.8357469e-05  -9.2124596e-05   9.6039592e-05   1.1338084e-05  -7.0120482e-06  -3.5074139e-05   1.0226719e-04   1.6745651e-04   2.2004468e-04   1.6799412e-04   4.7777659e-05   2.0821497e-04   2.0856154e-05   1.2562971e-04   1.6012682e-04   1.2543364e-04   1.1659037e-04   7.9204823e-05   1.7656949e-04   4.4902117e-05  -1.0437572e-04   3.0242823e-04   3.6791209e-06   1.2858110e-05   3.0684496e-05  -8.8735549e-05  -2.0576315e-04  -7.6015189e-05
   1.5406034e-04   6.7948386e-05   9.9255383e-05   4.0445891e-05   5.7733254e-05   9.0362133e-05   3.8545902e-05  -7.4485324e-05   2.0743690e-04  -7.6923307e-06   3.3354929e-05  -6.0581460e-05   5.1586943e-05   2.9378260e-05   1.3486201e-04   1.0198315e-04   1.0908073e-04  -3.5678357e-05   1.4305180e-04   5.7427049e-05  -6.3636304e-05  -2.8948232e-05  -8.1312486e-05  -7.6785836e-05   5.6284473e-05   4.1103129e-05   1.0785484e-04  -5.6145524e-05   1.9234688e-04   1.9839656e-04   3.1527024e-04   1.8738171e-04   5.6796565e-05   2.6149835e-04   1.2978162e-04   1.8906784e-04   1.5443203e-04   1.2829446e-04   2.0473139e-04   1.1299702e-04   1.4871759e-04   8.6206113e-05   5.4556021e-04   4.0349760e-04   2.8420172e-05  -1.5164496e-04   8.7956862e-05   3.7741594e-04  -1.9807162e-04   2.4128794e-04
   1.7272945e-05   6.3482628e-05   1.5721227e-04   5.3932274e-07   7.0278220e-05   1.0311388e-04   9.3070594e-05  -8.9586501e-06   2.4780014e-04  -2.1098613e-07   6.0390001e-05  -5.0957555e-05   3.9333256e-05   9.4680589e-05   2.8148534e-05   6.8425696e-05   1.4081634e-04  -1.5732818e-05   1.6413972e-04   3.1725347e-05  -9.1087641e-05  -1.5053150e-05  -7.0910457e-05  -1.3646764e-04   9.1071670e-05  -2.8127744e-05   4.8501221e-05  -4.1067884e-05   1.8910994e-04   1.4231188e-04   3.2901726e-04   1.9587491e-04  -6.1835599e-05   2.3630142e-04   8.3074359e-05   1.1792898e-04   2.5280824e-04   4.0270192e-05   2.1674200e-04   7.5566677e-05   2.2081837e-04   9.9432531e-05   5.5792619e-04   6.9608376e-04   2.1376640e-05   1.5403755e-05  -4.2318883e-05   2.1830756e-04   3.5213048e-05   5.4828165e-04
   1.2478635e-04   6.3052525e-05   1.1716090e-04   9.7996108e-06   5.4448472e-05   1.1456383e-04   8.1667866e-05   3.2303692e-04   2.3915654e-04  -4.7332924e-06   5.2541949e-05  -5.4868342e-05   5.2935775e-05   1.2165181e-04   4.1236748e-05   6.8028487e-05   1.3866226e-04  -3.4508957e-05   5.3354557e-05   4.6350255e-05  -7.3752199e-05  -1.2092205e-06  -7.3269548e-05  -4.1369876e-05   9.4213974e-05  -4.7888032e-05  -2.7852944e-05  -6.1783685e-05   1.3155975e-04   2.4533135e-04   2.7703302e-04   1.7668653e-04   3.1934484e-04   2.2882385e-04   8.2471379e-05   1.0697130e-04   3.2928435e-04   8.4284016e-05   1.7565933e-04   1.2979395e-04   1.2505699e-04   6.8587964e-05   4.4693338e-04   2.7671756e-05   6.6591325e-05   7.4764706e-05   4.9107464e-05  -3.6564248e-04  -1.3801214e-05   2.1016988e-04
   1.8401371e-04   6.6664375e-05   1.2433872e-04   3.3808723e-05   6.8247107e-05   9.4703770e-05   1.0171490e-04   3.6503548e-05   2.4481531e-04  -1.1775234e-05   4.8875951e-05  -6.4048145e-05   6.3392617e-05   1.1646318e-04   8.5073752e-06   1.0829484e-04   1.3116536e-04  -3.4494569e-05   7.7428253e-05   5.7861107e-05  -4.8941125e-05  -2.2550606e-05  -7.1331364e-05   2.2563358e-05   7.9863523e-05   1.2209712e-05  -1.2066978e-05  -5.5448982e-05   2.0563825e-04   2.4454109e-04   2.5286476e-04   1.9816897e-04  -3.5410649e-05   1.9934271e-04   1.3905960e-04   1.9960089e-04   4.6618973e-04   8.4775398e-05   1.5299329e-04  -1.1266821e-04   2.7984333e-05   1.2743105e-04   3.7096397e-04  -5.6479638e-04   5.5822264e-05  -6.1923631e-05   1.8415014e-05  -7.0963759e-04  -5.6159263e-04  -4.3355254e-04
   1.9693878e-04   7.7235287e-05   1.3481687e-04   2.7716611e-05   9.7737182e-05   9.0488968e-05   1.0533549e-04   3.5674690e-05   3.4094852e-04   3.2691987e-06   6.4897773e-05  -9.1771099e-06   5.8423069e-05   1.0888362e-04   1.1937845e-04   9.7552758e-05   1.1866625e-04  -2.9706127e-05   8.3066698e-05   5.1965988e-05  -7.9296799e-05  -3.2582207e-05  -3.3248041e-05   2.5769930e-05   8.1626022e-05   3.1587675e-05  -9.0248046e-05  -5.6191806e-05   2.5626801e-05   2.0667608e-04   2.6436616e-04   1.9354567e-04   1.7811108e-04   2.5296258e-04   7.8695375e-05   8.7351771e-05   3.3303560e-04   9.2711685e-05   2.0547479e-04   3.2909807e-05   5.4835833e-05   9.2437869e-05  -1.7642125e-05  -4.1885351e-04   2.2507509e-05  -2.2713979e-05   1.1243076e-04  -1.1669470e-04  -1.5838479e-04  -3.2615016e-04
   1.6568041e-04   7.4606432e-05   1.6714499e-04   7.4063819e-06   7.9760270e-05   1.2044721e-04   7.7242963e-05   1.3946001e-04   3.1464710e-04  -1.9952762e-05   6.2075676e-05  -2.5935980e-05   6.9771959e-05   8.6959866e-05   4.4948280e-05   1.1665202e-04   1.2718247e-04  -3.0175142e-05   1.9815013e-04   5.7848229e-05  -5.4260399e-05   3.5497480e-05   5.2227686e-05   3.3292250e-05   1.1461216e-04   1.2270288e-04  -4.7268437e-05  -5.3685333e-05   2.9113176e-04   2.5750493e-04   2.8969866e-04   1.9331348e-04   8.6706212e-05   2.1616432e-04   5.3088865e-05   1.2855016e-04   2.5318874e-04   1.2073989e-04   1.9348462e-04   7.1374183e-05   1.6434479e-04   5.9512469e-05  -1.0254976e-04  -1.0386915e-04   3.8025457e-05   1.1714825e-04   9.7871853e-05   2.0789939e-04  -3.8976825e-04  -9.9090699e-05
   2.4959550e-04   8.6447020e-05   1.4157225e-04   2.4321498e-05   9.6223361e-05   1.3485046e-04   1.4859589e-04   9.6927994e-05   3.2161188e-04  -2.0250476e-05   6.0019622e-05  -1.2285668e-05   8.7427507e-05   1.0293038e-04   7.9881233e-05   1.2667378e-04   1.0787642e-04  -2.5418849e-05   2.6225604e-04   9.0183465e-05  -2.9372928e-05   4.3494565e-06   4.2074127e-05   1.3479253e-04   7.8182784e-05   9.5190640e-05  -6.2980747e-05  -6.0815582e-05   1.4556960e-04   2.3747786e-04   1.8966380e-04   1.8304953e-04  -1.3988858e-04   2.4314939e-04   7.9990350e-05   2.0904811e-04   2.7971223e-04   6.1740764e-05   1.7857725e-04   1.4251305e-04   2.1705586e-04   3.3576875e-05   7.0424471e-04  -3.6086130e-04   1.1306857e-04   1.0510067e-04   1.9950516e-05   4.7565522e-05  -1.5842143e-04  -1.7143859e-04
   3.1234056e-04   9.7255273e-05   1.6414098e-04   6.3276857e-05   7.3893076e-05   1.8687730e-04   1.1933096e-04  -4.6995308e-05   3.8693496e-04   1.5033947e-05   1.0324026e-04   3.0736512e-05   4.9890088e-05   8.8679968e-05   2.9975105e-05   1.2522025e-04   8.5964646e-05  -2.8355367e-05   2.2038619e-04   8.3446052e-05  -4.6960919e-05   5.2026669e-05   3.3236385e-05   4.5227043e-05   1.3364323e-04   4.2929976e-05  -1.4738853e-04  -4.1675372e-05   2.0207996e-04   1.9555369e-04   2.0528259e-04   1.7127278e-04   1.6280178e-04   2.2821095e-04   3.3397195e-05   1.4667063e-04   1.0191961e-04   5.1324008e-05   1.5423211e-04   9.8509481e-05   3.3765016e-05   7.8159268e-05   1.1433224e-03   1.8030778e-04   4.8837006e-05   1.3730150e-04   1.1970806e-05   1.2537440e-03  -3.8019603e-04   2.5163183e-04
   3.5345447e-04   9.4034047e-05   1.3825216e-04   3.3302360e-05   9.4233154e-05   1.3039261e-04   1.3779696e-04   1.9173008e-04   2.8204033e-04   8.0072577e-06   8.7841086e-05   1.0540424e-05   6.2854924e-05   1.1326188e-04   2.4039806e-05   1.2901670e-04   8.8938119e-05  -2.9826226e-05   1.4786834e-04   8.8360153e-05  -2.9157189e-05   1.4939077e-05   1.1415823e-04   4.5670171e-05   1.1025332e-04   3.7848749e-05  -1.5131654e-05  -6.6221561e-05   1.2252522e-04   2.7684239e-04   2.4596811e-04   1.5301361e-04   2.0454280e-04   2.0543240e-04   1.4008672e-04   1.1910348e-04   2.4555848e-04   1.4116390e-04   2.5216540e-04   1.1218283e-04   9.1767259e-05   2.6408037e-05   8.7914831e-04   3.8894224e-05   5.3992841e-05   8.9711270e-05   1.0544409e-04  -2.8949022e-05  -8.2805178e-05   4.5856554e-04
   2.8785868e-04   9.3020513e-05   1.5381617e-04   6.3702151e-05   1.3043036e-04   1.7923853e-04   1.5764665e-04   3.6277407e-04   2.7552803e-04   3.5800470e-06   8.4769941e-05  -8.9831256e-06   8.5785781e-05   1.1537218e-04   6.2724095e-05   1.9214793e-04   9.4205709e-05  -3.0474945e-05   2.0164305e-04   1.0705023e-04  -1.7364837e-05   3.6845366e-05   2.0983261e-04   7.7135941e-05   8.8473382e-05   1.6177868e-04  -2.0154748e-05  -5.7646739e-05   3.0942407e-04   2.4975883e-04   2.0993283e-04   1.4378854e-04   1.0241885e-04   2.5063954e-04   9.9673794e-05   1.3828100e-04   3.0279593e-04   1.1365423e-04   2.0867746e-04   1.5991440e-04   3.4797857e-05   7.0295332e-06   2.5246403e-04  -2.0853149e-04   2.7743381e-05   1.9458144e-04   8.7153363e-05   7.2603492e-04  -3.8150698e-04  -8.4465725e-04
   3.8820296e-04   1.0859243e-04   1.7865452e-04   2.2112570e-05   1.1199653e-04   1.8796172e-04   1.7253438e-04   5.4653338e-04   3.0867735e-04   1.7827735e-05   1.0984205e-04   1.7232851e-05   1.0959184e-04   2.2945678e-05   8.4379688e-05   1.3177836e-04   7.8922625e-05  -3.0306159e-05   2.0197776e-04   8.1837839e-05  -3.5928620e-05   2.2660262e-05   1.2502732e-04   7.1675480e-05   1.3180209e-04   6.3021333e-05   1.1924715e-05  -6.8682464e-05   1.3045662e-04   2.0802782e-04   2.0505232e-04   1.1530876e-04   1.7433835e-04   1.7770669e-04   1.1965589e-04   1.1306255e-04   1.0903317e-04   1.0171901e-04   2.1935442e-04  -3.8295442e-05   1.8610181e-04   1.3416918e-04   2.6661073e-04   1.6323791e-04   7.6340904e-05   1.5422616e-04   1.4657514e-04  -4.1228477e-04  -2.8091157e-04   3.9195854e-04
   2.7442430e-04   9.5801843e-05   1.6544975e-04   4.2895375e-05   1.1319927e-04   1.5711553e-04   1.4404707e-04   4.8721628e-05   3.3406474e-04  -1.1108705e-05   8.2649021e-05  -3.0442527e-05   1.0339349e-04   2.6506370e-05   1.2600837e-04   1.8713868e-04   8.6242006e-05  -2.4331453e-05   2.0298915e-04   1.0152954e-04  -2.3011737e-05   5.0509090e-05   5.5597691e-05  -1.4264650e-06   9.2725386e-05   1.2492815e-04   2.6022582e-05  -6.6739674e-05  -5.9914961e-05   2.5592546e-04   1.6631032e-04   1.1529193e-04   8.1281411e-05   1.2650964e-04   9.1150570e-05   1.7111831e-04   1.8986186e-04   1.6712410e-04   7.5055512e-05   1.6195379e-04   1.0112957e-04   1.0234549e-04   3.8821317e-04   2.5906871e-04   1.2351284e-04   1.2129796e-04   1.5693379e-04  -5.7878991e-05  -3.0833393e-04   1.9413525e-04
   2.6231812e-04   9.9514749e-05   1.6548039e-04   3.9821196e-05   1.6669068e-04   2.0869373e-04   2.1378310e-04   2.5413357e-04   2.9397820e-04  -3.3429449e-05   7.1055845e-05  -5.6704121e-05   7.9377947e-05   1.2909748e-04   5.0421244e-07   1.6730590e-04   1.1898925e-04  -6.6395060e-06   3.2324501e-04   1.0744590e-04  -3.2422424e-05   7.9901314e-05   9.9547404e-05   2.2333859e-05   1.2523046e-04   8.9135247e-05   4.0716510e-05  -4.8938313e-05   6.0919963e-05   2.3632652e-04   2.1485001e-04   1.4922195e-04   2.0494875e-04   2.1555295e-04   1.1442638e-04   4.1123389e-05   2.5349209e-04   1.0469988e-04   2.7550085e-04   3.1107593e-05   2.1298896e-04   8.5828418e-05   2.6149469e-04   8.4181993e-05   9.1975795e-05   1.4376554e-04  -1.5493260e-05   2.0720028e-04   1.8603737e-04  -5.3120987e-04
   3.5036379e-04   1.0852933e-04   1.6180796e-04   5.8957346e-05   1.4774942e-04   1.5927073e-04   1.1232557e-04   6.0360541e-04   3.2756262e-04  -3.6058593e-06   8.9337773e-05  -1.7118229e-05   9.1060298e-05   1.1892254e-04   1.0475713e-04   1.5068366e-04   9.1182206e-05  -3.5654033e-08   1.6180024e-04   9.9564691e-05  -3.2729924e-05   7.5152791e-05   1.4616518e-04   5.7394413e-05   1.1253809e-04   1.5172541e-04   3.5890446e-06  -3.5611029e-05   2.4821490e-04   1.8462277e-04   2.2822482e-04   1.3480430e-04   2.1396244e-04   1.7538416e-04   1.1483547e-04   2.3005132e-05   3.2053830e-04   1.5278983e-04   1.5415215e-04   2.0108068e-04   1.6955328e-04   1.2100856e-04   3.6599158e-04   6.1521547e-05   1.1410317e-04  -3.9820814e-05   5.4160032e-06  -5.5950379e-04  -1.2337071e-05  -2.3247361e-04
   3.3980844e-04   9.6315103e-05   1.4899783e-04   4.7559799e-05   1.3039574e-04   2.4099715e-04   1.5037891e-04   1.7926472e-04   2.8246175e-04  -2.7975972e-05   8.1917024e-05  -6.8014007e-05   1.4211454e-04   9.0598871e-05   6.8697576e-05   1.8497538e-04   1.2810623e-04  -4.8997699e-06   1.3486383e-04   9.5344061e-05  -2.2607563e-05   7.7101155e-05   6.3018218e-05   1.7263754e-05   1.0020507e-04   1.0705883e-04   9.7783422e-06  -5.8477373e-05   5.1954132e-05   1.9473537e-04   2.7779950e-04   1.5252804e-04   2.3503319e-04   2.2402016e-04   8.8077533e-05   2.5585084e-04   1.7431509e-04   7.2192946e-05   1.9864664e-04   1.1539063e-04   1.3950185e-04   9.3109920e-05   4.0746967e-05   4.7364818e-05   8.8492161e-05   9.4589261e-05   8.2342376e-05  -1.3078238e-05   1.2342936e-04  -5.7981850e-04
   3.4174530e-04   9.4396404e-05   1.8126793e-04   5.6595309e-05   1.4358362e-04   2.5151004e-04   1.9983851e-04   2.6390018e-04   2.4082536e-04  -3.1115127e-05   9.8998295e-05  -6.3389925e-05   1.1584490e-04   1.3650980e-04   3.6568548e-05   2.0135145e-04   1.6764458e-04  -8.3580098e-06   1.4830939e-04   7.5272801e-05  -4.4928951e-05   2.4678335e-05  -7.1842551e-06  -2.2766003e-06   1.9497077e-04   8.6807617e-05   4.0969113e-05  -5.4661155e-05  -9.7886405e-05   1.7310724e-04   2.3250867e-04   1.6163268e-04   2.2751372e-04   2.0832567e-04   8.2602201e-05   1.2356715e-04   2.2667242e-04   7.2841060e-05   1.7619977e-04   1.3898476e-04   2.0367242e-04  -1.2656233e-05  -5.8440625e-04   3.6229583e-04   1.7191889e-05   1.8772008e-04  -1.1788325e-05  -2.2792314e-04   1.5776606e-04   1.2620924e-04
   3.7804787e-04   8.1652550e-05   1.5054186e-04   3.0524981e-05   1.1773577e-04   2.0280559e-04   1.3684975e-04   1.9071689e-04   2.5758264e-04  -5.2680225e-05   7.3848016e-05  -9.1415292e-05   1.3083221e-04   8.4887266e-05   2.9568266e-05   1.5445564e-04   1.7425748e-04   4.2398419e-06   1.2857771e-04   8.1443199e-05  -4.2858483e-05   2.6896075e-06   1.2890631e-04   6.6322798e-05   1.9401828e-04   6.4507622e-05   1.2272436e-04  -5.0583516e-05  -2.0078036e-05   1.8870391e-04   2.9202065e-04   2.0198646e-04   1.4060807e-04   2.1192852e-04   1.0347826e-04   7.2632291e-05   1.8991117e-04   8.5145322e-05   2.4700502e-04   1.2842142e-04   1.8660845e-04   2.2351765e-05   7.1477785e-04   2.1713377e-04   8.5199667e-05   4.0500014e-04  -1.0556251e-05  -3.9681513e-04   4.5943791e-05   3.9022812e-04
   2.7475637e-04   7.4386517e-05   1.7436434e-04   3.0846706e-05   9.9096476e-05   2.3165945e-04   1.1699353e-04   1.4643618e-04   2.5715388e-04  -6.3164749e-05   4.4584973e-05  -1.1125492e-04   1.1114755e-04   1.2503458e-04  -4.5258708e-05   1.5574165e-04   1.7342827e-04  -8.7859589e-06   2.2895503e-04   8.8962755e-05  -3.1575164e-05   5.1099818e-05   1.1556585e-04   2.2017539e-05   1.0261032e-04   2.7901606e-05   8.4835548e-05  -5.2638199e-05   2.5983183e-05   2.4756990e-04   3.3778162e-04   2.1844631e-04   1.7741852e-04   2.0830396e-04   6.5597436e-05   7.2014729e-05   1.9421062e-04   1.4592655e-04   1.3099008e-04   9.5169191e-05  -6.9872214e-05   4.0363586e-05   2.1731846e-04   7.2659117e-05   8.4551852e-05   3.1679630e-04   1.6499978e-05   5.8534922e-04   7.7346151e-05  -1.1139741e-06
   3.9607144e-04   8.0299396e-05   1.4727794e-04   3.7268437e-05   1.2634911e-04   2.1952605e-04   1.9470570e-04   3.6874920e-04   2.0418057e-04  -4.4242042e-05   6.4632186e-05  -5.8843474e-05   9.6789925e-05   1.4582755e-04   2.9237649e-06   1.2795087e-04   1.7779114e-04   2.0994479e-05   2.2073448e-04   7.5326017e-05  -6.6298155e-05   2.5768299e-05   3.2751042e-05   3.8778726e-05   1.6238251e-04   7.6603064e-05   5.6384815e-05  -5.1692041e-05   1.3342731e-04   1.7650338e-04   2.7132238e-04   2.0919106e-04   2.0680411e-04   2.9100306e-04   2.2948527e-05   1.7130938e-04   1.9632251e-04   1.0295403e-04   1.5738080e-04   1.2297745e-04   9.4817558e-05   1.8787534e-05   2.5590713e-04  -1.7888566e-04   1.2304727e-05   9.1348222e-05   7.1140079e-05  -8.3967368e-04  -3.0393404e-04   7.8351812e-05
   2.7183941e-04   7.0858034e-05   9.1870163e-05   3.8611110e-05   8.9800313e-05   1.7121779e-04   1.7885529e-04   1.7258427e-04   6.7993511e-05  -4.6786150e-05   5.1744857e-05  -4.8351925e-05   9.2219605e-05   1.3701781e-04   5.6760851e-05   1.4186805e-04   1.4720041e-04   9.0241210e-06   1.3818174e-04   9.4746043e-05  -3.5277219e-05   3.1571355e-05   7.1633491e-05   2.0257994e-05   8.6031047e-05   8.8917441e-05  -7.9629226e-06  -4.9507256e-05   2.0502198e-04   2.2446785e-04   2.6793010e-04   1.6191910e-04   1.9191533e-04   2.4214612e-04   1.0528341e-04   1.6696718e-04   1.6942294e-04   1.4356877e-04   1.1869219e-04   1.3330644e-04   1.3964009e-04   5.9328893e-05   8.6990726e-04   1.0570375e-05   6.2429981e-06   1.5778383e-04  -5.3013305e-06   8.0699718e-04   2.0266649e-04  -3.4787817e-04
   2.1040911e-04   6.9008027e-05   1.1032996e-04   2.8090381e-05   1.2475738e-04   2.3193104e-04   1.8572740e-04   1.6858690e-05   2.4743026e-04  -5.3618991e-05   4.4075365e-05  -7.1383023e-05   8.5873922e-05   1.3673802e-04   2.2547574e-06   1.4272268e-04   1.8137891e-04   2.6225811e-05   1.7818906e-04   9.0489528e-05  -3.7441165e-05   2.4167761e-05   8.0663296e-05   7.7356977e-05   1.0154012e-04  -2.1284039e-05   2.8511506e-05  -5.0205988e-05   3.1632930e-04   2.7321291e-04   2.6944766e-04   2.0441793e-04   2.9653043e-05   2.4669577e-04   1.0993316e-04   1.8430695e-04   1.9874182e-04   7.7039826e-05   2.4870780e-04   1.3100078e-04   1.9393746e-04  -2.2389047e-05  -1.3983416e-04   2.3391245e-04   9.6385680e-05  -8.7575572e-05   3.6262343e-05   2.3073393e-04  -1.3885763e-04  -7.8416459e-04
   3.5697583e-04   7.3495808e-05   1.6036832e-04   3.6051537e-05   9.5249001e-05   2.2798959e-04   1.2819692e-04   1.8689185e-04   1.6132054e-04  -2.9810253e-05   8.8802102e-05  -2.3321481e-05   8.1507751e-05   1.0871106e-04  -1.6522281e-05   1.1034204e-04   1.5045339e-04   1.7681465e-05   1.9083459e-04   1.0417953e-04  -4.3811455e-05   5.4011300e-05   1.2110036e-04   1.1626067e-05   3.5639572e-05   8.1003578e-05   2.0894333e-06  -5.3550266e-05   1.2820424e-04   1.6314430e-04   3.4394520e-04   2.4310040e-04   6.1745821e-05   2.5549938e-04   2.5229299e-05   1.1526238e-04   3.1331184e-04   1.1658547e-04   1.7264555e-04   1.3580087e-04   1.9288939e-04   1.7387101e-05  -2.7973196e-04   5.0205924e-04   3.2842119e-05   1.7316503e-04  -1.2361606e-05   2.5071518e-04  -1.9258798e-04   1.0145866e-04
   2.8498016e-05   6.0569579e-05   1.1108433e-04   3.0983923e-05   7.5256612e-05   2.1035595e-04   1.6269009e-04   2.8369104e-04   1.4133682e-04  -4.0033752e-05   7.0359354e-05  -4.2972562e-05   1.2544855e-04   4.9075661e-05   4.6351823e-05   1.3642301e-04   1.4295628e-04  -3.8567682e-06   9.5827949e-05   1.0272058e-04  -2.9947918e-05   9.1321293e-05   1.3164722e-04   1.1017777e-04   8.2787214e-05   2.3504970e-05  -1.0501598e-07  -7.7681376e-05  -9.5742473e-07   2.0318430e-04   2.7096792e-04   2.3494601e-04  -1.5243585e-04   2.0744206e-04   8.3923798e-05   1.4986222e-04   1.4064071e-04   1.4520778e-04   1.9136000e-04   8.7850043e-05   2.4682665e-04   1.7211816e-05  -3.3647069e-04  -1.9534465e-04   1.3756873e-05   3.6790874e-04   3.9660415e-05   2.5925372e-04  -1.0631802e-04  -1.8150477e-04
   2.8604662e-04   7.2304487e-05   1.0988715e-04   4.5222132e-05   1.1853061e-04   2.3717775e-04   1.6648418e-04   2.3885032e-04   1.2325944e-04  -3.1696520e-05   1.0054781e-04  -4.1118192e-06   1.1788929e-04   1.0772715e-04   8.1019120e-05   6.4734115e-05   1.4618671e-04  -1.0866886e-07   1.9643101e-04   9.4987037e-05  -5.0338076e-05   4.1999378e-05   9.1495378e-05   9.2357819e-05   1.2807014e-04   5.9137117e-05   3.1387652e-05  -7.3576572e-05   2.8803879e-05   1.2512879e-04   2.9966148e-04   2.2613541e-04   8.4801963e-05   1.8164971e-04   2.3230437e-05   1.4184238e-04   1.6301457e-04   1.0794469e-04   1.2448135e-04   8.5010899e-05   2.1117321e-05   1.5996933e-05   1.3505662e-04   1.3244117e-04   2.1032076e-05  -7.1406466e-05   1.5998108e-05  -9.0890346e-05   6.3797698e-04   1.0542348e-03
   2.5517790e-04   6.0258855e-05   7.5755910e-05   3.9898627e-05   4.6351710e-05   1.8963366e-04   1.3938983e-04   2.3806453e-04   4.9243299e-05  -5.0189243e-05   7.5197051e-05  -5.1743576e-05   1.0384650e-04   7.6578697e-05   3.3962533e-05   6.8821741e-05   1.7810021e-04   1.7406132e-05   1.1495989e-04   9.9013581e-05  -4.5099547e-05   4.3017837e-05   1.3431840e-04   1.2492480e-04   1.1091304e-04   9.6790158e-05   3.5111203e-05  -3.6557689e-05   1.2671824e-04   2.0139314e-04   3.6279034e-04   2.4176284e-04   7.0453221e-05   2.4048521e-04   7.5435317e-05  -7.7497076e-05   1.3298278e-04   9.6808850e-05   1.8795271e-04   8.8314206e-05   2.1227312e-04  -2.6007616e-05   5.1059149e-04  -9.9427081e-05   3.7797057e-05   4.0956403e-04   3.6922815e-05   9.4875612e-04  -2.1656338e-04   4.8347295e-04
   1.9314671e-04   5.7548314e-05   8.9595713e-05   3.3858152e-05   5.7662059e-05   1.2706377e-04   1.5834141e-04   7.0117749e-05   5.0521427e-05  -5.7216177e-05   6.2405852e-05  -3.8286220e-05   9.8329387e-05   6.2304331e-05   2.5764915e-05   1.0647700e-04   1.8230839e-04   9.8099526e-06   1.5267178e-04   8.3368519e-05  -5.8060374e-05  -2.5910172e-06   7.2256626e-05   4.9856601e-05   1.1643017e-04   9.6670388e-05   9.6874341e-05  -4.9365608e-05   1.0777357e-04   1.3787672e-04   3.1029349e-04   2.3799644e-04   1.7276841e-04   2.9856560e-04   8.7855442e-05   1.4695138e-04   1.9653839e-04   5.9369791e-05   1.5852273e-04   2.3399474e-04   3.0304948e-04   2.3895771e-05   3.3737213e-04  -1.2792820e-04   1.0103290e-04   8.2151037e-06   8.7667846e-05   6.3044263e-06  -1.0191475e-04  -4.3504924e-06
  -9.6666326e-06   5.0780847e-05   9.6779921e-05   2.3231873e-05   4.1380277e-05   1.4353199e-04   1.5573626e-04   2.3456523e-04   1.1134353e-05  -5.5780005e-05   6.6248096e-05  -5.4899727e-05   9.2952519e-05   9.7269178e-05   6.7649977e-05   8.1591752e-05   1.9218562e-04   1.2560993e-05   9.1486429e-05   7.4813383e-05  -4.8951715e-05   1.8631234e-05   5.1737741e-05   9.7516691e-05   8.8541354e-05   3.2730939e-05  -4.5114135e-05  -5.6951092e-05   1.4307456e-04   1.2767315e-04   3.9436834e-04   2.5109606e-04  -1.4841167e-04   2.2059183e-04   7.4577110e-05   1.1549173e-04   2.6261256e-04   7.2876974e-05   2.1696846e-04   8.5751395e-07  -9.1446505e-05   1.5615049e-05  -6.6761760e-04  -2.0710943e-04   1.1658316e-04   9.3338182e-05   1.1358386e-05  -1.9693963e-04   1.5622996e-04  -1.9252363e-04
   8.7045257e-05   3.5108682e-05   3.4583114e-05   1.4802040e-05   4.5109988e-05   1.1497425e-04   9.1614369e-05  -1.6430800e-04  -2.3432067e-06  -7.0449380e-05   4.5725428e-05  -6.5731016e-05   1.0228784e-04   1.3021533e-04   2.5010366e-05   2.2319924e-05   1.9533114e-04   8.3033319e-06   3.5180561e-05   8.9825269e-05  -3.6120946e-05   2.4073715e-05   5.3446645e-05   1.0454504e-04   9.6519325e-05   3.5551533e-05  -2.4300876e-05  -4.1504165e-05   1.6897488e-04   1.7429626e-04   3.3645774e-04   2.4723072e-04   2.5477479e-04   3.0659235e-04   6.8196146e-05   1.4772499e-04   3.5341835e-04   8.8680819e-05   1.8306931e-04   1.9166815e-04   9.0239038e-05  -6.7110464e-05   2.8144274e-04   1.4003141e-04   9.4846662e-05   1.1956976e-04  -7.8397774e-05  -9.9588025e-05   7.5442149e-05  -2.4697519e-04
   9.8254219e-05   3.2647193e-05   7.0307535e-05   1.4650467e-05   1.8191744e-05   1.1903615e-04   8.8831359e-05  -3.6312900e-05   8.9445435e-05  -5.6447818e-05   8.4687956e-05  -4.0503684e-05   5.8341680e-05   9.9019890e-05  -5.5681659e-05  -2.1534734e-05   1.9099793e-04   1.1033238e-05  -8.6076716e-06   6.0277984e-05  -6.8597408e-05  -2.9818799e-05   3.7604717e-05   1.2852214e-04   9.7377844e-05   6.2134910e-05   1.2928410e-04  -4.4305365e-05   1.2863755e-04   1.0151186e-04   3.8839277e-04   2.7112936e-04   2.0927592e-04   3.0297801e-04   1.8919760e-05   1.1075458e-04   2.4905658e-04   4.0848987e-05   1.7578581e-04   1.3040428e-04   2.5307602e-04  -4.2255750e-05   2.5200789e-05   6.2482344e-05  -1.2696359e-05   2.4221026e-04  -1.8049814e-05   3.6642703e-04  -3.3878599e-04  -1.3732592e-03
  -1.0483606e-04   2.1136804e-05   8.6412714e-05   2.1361136e-06  -1.6059917e-05   7.7059332e-05   2.7328801e-05   6.4133921e-05  -1.2938492e-04  -7.9507750e-05   3.7678190e-05  -7.6924203e-05   1.0161306e-04   1.0638762e-04   3.9284543e-05  -3.7782978e-05   2.1154892e-04   2.7553218e-05   5.8616806e-05   5.8802787e-05  -5.7351557e-05   4.0133793e-05   2.3698485e-05   9.3088907e-05   1.8143121e-04   1.0294750e-04   2.7265365e-05  -3.8930571e-05  -1.3461582e-04   1.0482199e-04   4.0614395e-04   2.7553414e-04   3.3623179e-05   3.1470996e-04   4.2648604e-05   4.7494937e-05   2.8719142e-04   1.0572823e-04   2.1053100e-04   1.1268874e-04   8.2185412e-05  -3.0576866e-05  -9.6476062e-05   3.5623660e-05   1.5205350e-04   1.9038230e-04   1.7803399e-05   8.9090594e-05   6.9149683e-05  -6.2362250e-04
   5.1670286e-05   1.6684757e-05   8.6154076e-05   5.8896790e-06   6.6635030e-06   1.5103265e-04   1.8437327e-06  -9.8717181e-05  -4.2776210e-05  -8.9668814e-05   4.6736273e-05  -6.6754932e-05   7.1344381e-05   1.7156255e-04   4.6800997e-05  -1.4705851e-05   2.0510316e-04   2.4199992e-06   1.3252834e-06   4.9762348e-05  -6.7689565e-05   8.1152612e-06  -5.0868210e-05   8.5572763e-05   8.8248533e-05  -1.7937748e-06  -6.7474903e-05  -3.6890564e-05   1.1536948e-04   8.3651008e-05   3.4679170e-04   2.5670326e-04   9.7001204e-05   2.6422500e-04  -3.2711741e-05   1.2264130e-04   4.3840942e-06   5.2103842e-05   4.3514698e-05   2.0399561e-05   2.8184938e-04   1.1270614e-05   8.1007445e-04  -3.5561604e-04   2.9116791e-05   1.2588280e-04   2.1573826e-05  -1.1836572e-03   1.5739395e-04  -4.8556201e-05
  -1.9345660e-04   1.1144340e-05   3.1872438e-05   7.4695113e-06  -1.5227866e-05   5.6844798e-05  -1.4810806e-05  -3.1766706e-04  -5.4836137e-06  -8.5169384e-05   4.0878571e-05  -6.2189276e-05   5.7281955e-05   4.7489055e-05   6.3903681e-05  -1.0064666e-04   1.9441762e-04  -4.4336748e-06   2.0144476e-05   4.1871474e-05  -7.3167117e-05  -2.9132063e-06  -6.7288798e-05   5.3827913e-05   8.1742444e-05   9.8896700e-05  -1.0146585e-04  -3.8541239e-05  -6.5769134e-05   4.7934998e-05   3.3500593e-04   2.5071186e-04   5.6305827e-05   2.9508036e-04   8.4718617e-05   8.7054126e-05   1.6436292e-04   8.7941935e-08   1.2118260e-04   1.4986342e-04   1.0312895e-04  -9.2843336e-05   3.8531004e-04   1.0561664e-03   1.8135357e-05   1.9100835e-04   6.7036752e-05  -7.3578412e-05  -2.5455240e-04   1.8586838e-04
  -1.5197313e-04   9.0989006e-06   2.7133415e-06  -8.8836177e-06  -4.0271014e-05  -4.6614642e-07   3.9347164e-05   3.8993010e-05  -2.5687070e-04  -9.8167337e-05   3.5124311e-05  -8.1898368e-05   4.7936632e-05   3.9741681e-05   1.7122804e-05  -1.1535925e-05   1.9852373e-04  -3.7467740e-07  -1.0442782e-05   4.8622001e-05  -5.2890300e-05  -5.5552746e-06   7.7773380e-05   3.6335121e-05   1.1736142e-04   7.4649703e-05  -1.9981828e-06  -4.0529001e-05  -4.1378433e-05   9.6365096e-05   3.2510306e-04   2.3788564e-04   1.0004519e-04   2.5549965e-04   1.1392449e-04   9.7627722e-05   1.5371086e-04   3.0610747e-06   1.2442759e-04   2.5455674e-05   4.7672605e-05  -1.2492207e-04   6.0579870e-05  -2.6029177e-04   4.9037368e-05   1.2212804e-04  -3.4385041e-05   4.4569944e-04   5.0463516e-04   1.5584401e-04
  -1.1431214e-04   1.0884132e-05   1.2959455e-06   3.5264773e-06  -2.8714765e-05   1.8789764e-05   3.9245247e-06  -1.0862158e-04  -1.1243285e-04  -9.0634654e-05   4.7559712e-05  -4.8256697e-05   3.8607264e-05   8.0149824e-05  -1.2642326e-05  -6.2786545e-05   1.7773779e-04  -9.9496956e-06  -8.7304521e-05   4.8281316e-05  -7.3322008e-05  -2.9331632e-06  -4.0258172e-05   8.5900140e-08   7.5002659e-05   9.6290445e-05  -5.1870200e-05  -3.2510743e-05  -3.6133813e-05   8.4736123e-05   3.8588516e-04   2.4274300e-04   9.4501534e-05   2.4350629e-04   3.0340250e-05   1.8671391e-04  -4.5995723e-05  -2.3035976e-05   2.0942184e-04   9.5224816e-05   1.7357233e-04  -5.9618531e-05   2.3257663e-04  -1.5736424e-04   5.9356018e-05   2.0051093e-04   5.0254876e-05  -5.6456024e-04   1.2820531e-04  -6.7127217e-04
  -2.0688714e-04   2.8234028e-06  -1.1201360e-05  -1.8814488e-05  -5.4630997e-05  -5.4510008e-05  -5.9016966e-05  -1.3332099e-04  -2.1174441e-04  -1.1158545e-04   2.7784054e-05  -1.0093315e-04   4.0050283e-05   9.2004462e-05  -1.3107684e-04  -2.8508968e-05   2.0966976e-04  -1.4671255e-05  -9.8661418e-05   4.6907517e-05  -5.2651325e-05  -1.0283876e-05  -4.9288383e-06  -1.5153377e-05   1.3526656e-04   9.8822253e-05   7.2338194e-06  -2.7148899e-05  -1.2856476e-04   6.7021516e-05   3.6079253e-04   2.4939855e-04   2.0949115e-05   2.6898811e-04   1.1840866e-05   1.3407425e-04   1.3483895e-04   2.1818958e-05   1.6094600e-04   5.9768572e-05   6.9067130e-05  -6.8228430e-05  -4.7042561e-04   4.0379178e-04   5.9106420e-05   2.1020205e-04  -7.5703343e-07  -7.2165712e-04  -8.7024883e-04  -6.4280920e-04
  -1.8003874e-04  -6.2444660e-06   2.2875411e-05  -6.1931446e-06  -4.1434141e-05   2.2692722e-05  -2.1248918e-05  -1.1442688e-04  -2.9056452e-04  -1.2272678e-04   1.5052897e-05  -1.2132363e-04   3.4953468e-05   6.7244284e-05   1.0501536e-05  -2.9662708e-05   1.8985933e-04  -1.4714752e-06  -1.4610896e-05   5.8016154e-05  -5.7476853e-05   4.1126659e-05   5.5172422e-06  -4.5162938e-05   1.0608929e-04   7.7625999e-05  -4.4112471e-06  -3.6792662e-05  -3.9849536e-05   6.9185269e-05   2.9954399e-04   2.5632448e-04  -8.8592285e-05   3.2860509e-04  -7.7611759e-07   1.5760359e-04   1.7264692e-04  -3.6895693e-05   1.2913498e-04   1.2428428e-04   5.0402956e-05  -7.8439762e-06   2.8537208e-04  -6.2860409e-04   6.1589708e-05   5.1928268e-06  -9.9444715e-06   3.1281641e-04  -2.9681996e-05  -9.2892628e-04
  -2.8845249e-04  -2.6389955e-06   2.1079773e-05  -1.1915636e-06  -6.4923654e-05  -1.4312612e-05  -5.2045041e-05  -2.4260783e-04  -2.5294613e-04  -1.0964025e-04   3.7345359e-05  -7.9471196e-05   3.2015949e-05   3.5007754e-06   3.1163356e-05  -9.1551010e-05   1.5940020e-04  -9.7580250e-06  -6.9372480e-05   3.0537929e-05  -6.3314204e-05   9.8716573e-06  -1.2827826e-04   4.6071116e-05   1.0543962e-04   6.0509359e-05   1.8801218e-05  -3.7351161e-05  -1.1200983e-04   5.6959930e-06   3.4532524e-04   2.3137061e-04  -5.4069806e-06   2.4866613e-04   2.0299452e-05   3.0017029e-05   1.8769603e-04  -5.9417318e-05   1.1550074e-04   1.7492402e-04   2.7480477e-04  -8.8338951e-05  -5.6341093e-04   2.6164920e-04   8.0147307e-05   6.9568916e-05  -4.3596215e-06   5.3457483e-05  -4.7031375e-05   1.6721193e-03
  -2.2428998e-04  -9.8924438e-06   2.4018404e-05  -1.7249677e-05  -5.7475121e-05  -1.6877786e-05  -3.9617062e-05  -2.8961009e-04  -2.3211508e-04  -1.2541698e-04   1.6921107e-05  -1.0582090e-04   2.1857801e-05   5.2898860e-05   5.7429570e-05  -1.0104242e-04   1.5490311e-04  -3.3498454e-06   5.5190343e-05   3.8414735e-05  -3.3083506e-05   5.6238667e-05   2.7290322e-05  -3.3410048e-05   9.7659024e-05  -1.2101474e-05  -4.0097544e-05  -3.0343010e-05   2.6358435e-05   7.6402808e-05   2.9001737e-04   2.3316506e-04  -5.2972890e-05   3.0686150e-04  -2.4322459e-05   6.8826193e-05   1.6662723e-04   2.7875980e-05   4.6909445e-05   5.4879154e-05   2.2649745e-04  -3.2084847e-06   4.5540533e-04  -2.3603128e-05   2.4200472e-05   1.2864025e-04  -4.7619211e-05   1.6299111e-04  -1.3447997e-04   3.6481777e-04
  -1.5110984e-04  -8.9433333e-06  -7.0549299e-06  -1.5741472e-05  -5.7860594e-05  -3.7724181e-05  -4.0014576e-05  -2.8965702e-05  -1.4476440e-04  -1.1280910e-04   3.2220752e-05  -7.7917670e-05   1.0732308e-06  -6.0504217e-06  -2.5049245e-05  -8.2854087e-05   1.6055907e-04  -1.2448665e-05  -7.2186449e-05   3.2455198e-05  -4.8774818e-05   5.6289718e-05  -1.1497250e-04   1.1201822e-05   1.4911304e-04   4.6914989e-05  -1.6418699e-04  -3.4986049e-05  -2.0560945e-04   3.6754311e-05   3.6622383e-04   2.2472936e-04   4.8262347e-05   2.9961491e-04  -1.1525961e-05   3.0233472e-05   7.2589821e-05  -5.0043640e-05   3.8684288e-05  -5.2514592e-06   9.5502664e-06  -1.4904608e-05   3.0848634e-04   3.5581194e-04   1.1419126e-04   7.0397618e-05  -1.7592278e-05  -3.4776932e-04  -1.8198308e-04  -7.1527623e-04
  -3.1440868e-04  -8.1768649e-06  -6.3141135e-07   1.3612201e-05  -7.9817299e-05  -4.6502853e-05  -8.2540464e-05  -3.9566912e-05  -1.7883179e-04  -1.1084462e-04   4.0378123e-05  -8.8156135e-05   1.0724491e-05  -8.5539832e-06  -1.9500683e-05  -4.8426446e-05   1.3804885e-04  -1.0489986e-05   5.1406947e-05   2.5481251e-05  -3.6812689e-05   2.3966102e-05  -4.2035965e-05   1.1760388e-05   1.1118830e-04   1.0529632e-05  -7.0338821e-05  -2.2012733e-05  -1.3925467e-04   1.0864839e-05   2.5461684e-04   2.1029843e-04   5.5783330e-05   2.6389307e-04  -7.2568032e-06   1.6295897e-04   2.8795440e-04  -7.0581140e-05   1.1047881e-04   3.6312464e-05   4.3663553e-05  -4.0703217e-05  -2.9275182e-04   7.7525392e-04   4.0793482e-05  -4.5242665e-05   1.4655030e-05   2.3595864e-04  -9.3541748e-05   2.0679619e-05
  -2.7620670e-04  -1.1023443e-05  -1.0263133e-05   1.6968705e-06  -6.7535402e-05   1.9271849e-05  -2.7553108e-06  -2.0381718e-04  -2.3710904e-04  -1.1517407e-04   3.3388169e-05  -1.0593553e-04   8.8199949e-06   3.7517333e-05  -3.3016342e-05  -4.6254681e-05   1.4653541e-04  -8.9671839e-06  -3.1760672e-05   3.7096677e-05  -8.5892598e-06   5.0866129e-05  -4.0814790e-05  -4.8530608e-05   1.1813189e-04   8.4917847e-05  -7.7405639e-05  -2.7766395e-05  -5.4730113e-05   3.3555330e-05   2.9442966e-04   2.2565285e-04   4.1766143e-06   2.7905797e-04   1.0384040e-05   1.0217830e-04   1.4752980e-04   3.8951698e-06   1.0525024e-04   6.9861489e-05   7.3708426e-05  -1.1151526e-05  -5.0963700e-04   1.1110269e-04   1.4414487e-04   1.7054603e-04  -5.6924673e-05  -6.3891069e-04  -1.7697446e-04  -2.5254695e-04
  -2.5197957e-04  -1.9079093e-06   4.0550160e-05  -4.6210557e-06  -3.8992890e-05  -1.5626007e-05  -5.6001074e-05  -2.4417922e-04  -1.2405375e-04  -8.9923626e-05   3.9528924e-05  -7.4765805e-05   1.1334872e-05   5.5742490e-05  -1.9563349e-05  -7.2377952e-05   1.4724488e-04  -7.9683359e-06  -1.4176732e-05   2.5906935e-05  -2.7826691e-05   4.2417712e-05  -4.1953441e-05  -6.6856941e-05   1.3792822e-04  -7.0351023e-05  -6.5734414e-05  -1.1629651e-05  -2.3621273e-04   6.1606130e-05   3.3533204e-04   2.2978128e-04  -1.1905771e-04   2.5719835e-04   8.1512690e-06   8.0086007e-05  -1.6695692e-05  -1.8995488e-05   4.5895005e-05   7.3782343e-05   1.0571067e-04  -3.5565781e-06   5.4700521e-04  -2.6708699e-04   1.0926989e-04  -2.1849421e-04   9.0937474e-06   5.9289514e-04   1.5922009e-04  -4.6085956e-04
  -1.7061237e-04  -4.3307778e-06   1.0813277e-05   1.8247611e-05  -3.9569968e-05   5.1937473e-05  -9.1333613e-06  -4.8361555e-05  -2.6758944e-04  -8.8177672e-05   4.9685070e-05  -6.9985937e-05   2.1185999e-05   3.6160200e-05  -6.7511595e-05  -7.4056334e-05   1.1352673e-04  -5.9254430e-06   8.4593194e-05   4.6397403e-05  -3.8604426e-06   6.5803993e-05  -1.3159903e-05  -2.6369797e-05   8.8949892e-05   5.8345449e-05  -4.9834081e-05  -2.7810314e-05   1.1174086e-04   5.6669007e-05   3.5190137e-04   2.2351071e-04  -1.8750808e-04   2.5399646e-04   1.9271623e-05   8.3238687e-05   1.0531515e-04  -3.0967942e-05   8.4142877e-05  -3.9538871e-05   1.2365464e-04  -5.0682971e-05  -3.3313170e-04   2.3005088e-05   1.6867391e-04   7.1251510e-05  -7.6851538e-06   7.8241574e-05  -2.5829842e-04  -7.4968132e-04
  -2.1066795e-04  -6.1418209e-06   1.8485021e-05   3.4287201e-05  -2.4408790e-05  -1.9450259e-05  -1.7314624e-05  -2.7198385e-04  -1.6389324e-04  -8.4571162e-05   3.9841343e-05  -7.3366587e-05   4.9813174e-05   3.9477443e-05   1.2117155e-05  -3.3066903e-05   1.2255118e-04  -1.0867614e-05   6.9741218e-06   4.3703152e-05   2.3251168e-05   8.9610003e-05   4.7452181e-06   5.4115690e-06   1.4302644e-04  -4.9395683e-05  -6.7981346e-05  -3.9633625e-05  -9.9198493e-05   4.8887625e-05   2.7951057e-04   1.9796006e-04  -1.3933575e-04   1.9939695e-04   5.5297267e-05   6.6526329e-05   2.2370357e-04   3.5935282e-05   1.1733940e-04   7.3899995e-05   1.5327340e-04   5.8670023e-05  -2.4514183e-04   8.3821052e-04   5.6992307e-05   2.6601154e-04   1.2425473e-04   7.2004710e-04   3.6935310e-04   1.5728068e-04
  -6.2692146e-05   6.9863613e-06   4.7595098e-05   3.7262504e-05  -2.5090274e-05   2.9547238e-05  -6.6480629e-06  -2.2646734e-04  -1.2038086e-04  -4.9293227e-05   1.0560016e-04  -1.5894037e-05   1.2400085e-05   8.3820478e-06  -4.3586941e-05  -4.9469018e-05   6.4895379e-05  -2.5688058e-05   2.7501743e-05   5.3429732e-05   1.1326160e-05   7.3706149e-05   3.9644201e-05   1.8239693e-05   6.5945249e-05   4.7395548e-05  -1.9475867e-04  -3.5796184e-05  -2.2783846e-05   6.6340312e-05   1.7196563e-04   1.6776609e-04   1.6368437e-04   2.5162890e-04   9.1411806e-05   1.2357676e-04   3.2145780e-04  -3.9554758e-05   5.9188260e-05   1.5628066e-04   1.2349841e-04   6.3978157e-05  -2.1989783e-05  -4.0363224e-04   1.0413994e-04   3.8064885e-05   1.1994944e-05   1.7987016e-04  -4.7146499e-05  -5.5258413e-04
  -5.5255059e-05   1.4357003e-05   5.1312792e-05   5.0463186e-05  -4.4005428e-06   1.9609413e-05   3.9329611e-06  -2.3273948e-04  -7.4252734e-05  -4.6364254e-05   8.2660838e-05  -1.2095113e-05   7.2003015e-05  -5.9199992e-05  -1.0126093e-04  -1.8426439e-05   6.2413608e-05  -2.0584719e-05   9.3198825e-05   7.1809147e-05   3.4498717e-05   1.1273132e-04   1.5716952e-04   6.5006738e-05   1.3052842e-04  -1.4284920e-05  -8.0851103e-05  -2.8278248e-05  -1.6924695e-06   6.9955291e-05   2.4908961e-04   1.8327376e-04   5.9018210e-05   2.1703031e-04  -1.2517668e-05   1.0295337e-04   1.2323172e-04  -2.7352353e-05   1.0094202e-04  -8.8202243e-05   6.0488652e-05   6.9795678e-05   2.3951818e-04  -1.5526587e-04   1.3578727e-04   1.1996905e-04  -5.6200694e-05  -1.6264615e-03   3.1960077e-04  -3.3679052e-04
  -3.9023456e-05   6.6333091e-06   7.7619829e-05   7.0482849e-05   3.9041268e-05  -1.2754555e-06   3.1717100e-05   7.5357231e-05  -4.1135823e-05  -5.7751771e-05   7.3127514e-05  -3.5036021e-05   3.8492562e-05   7.4593401e-05   1.8330285e-05   4.9648635e-05   9.4643598e-05  -1.3475365e-05   9.5505682e-05   8.3509840e-05   3.1630207e-05   1.0214277e-04   1.9208948e-05   2.0173135e-05   2.2679542e-05   1.0662120e-04  -2.1516597e-04  -2.4812427e-05   7.2858937e-05   6.2710234e-05   2.8674616e-04   2.0148358e-04  -5.3531370e-05   2.4089371e-04   2.9039717e-05   1.2428331e-04   1.7186046e-04  -1.1065347e-05   9.9806930e-05   9.2779679e-05   2.1413404e-04   4.4003627e-05   2.3839540e-04   1.2584079e-05   9.8767458e-05  -8.6751868e-05  -1.7297547e-05  -1.6319699e-04   7.4053787e-05  -1.0447734e-03
  -1.7999953e-05   2.1108131e-05   4.3766941e-05   5.6049230e-05   3.5339730e-05   6.1293278e-05   5.7777084e-05  -3.7764825e-04  -8.6066924e-05  -2.7638145e-05   1.2568932e-04  -1.5889984e-05   8.5462983e-05   3.9889401e-06  -1.0503155e-05   2.8151318e-05   8.3271123e-05  -7.0136425e-06   2.5619895e-04   7.9991085e-05   3.7423059e-05   1.3733628e-04   6.7032401e-05   7.0033413e-05   7.3374387e-05   7.2451097e-05  -1.5103726e-05  -3.4877346e-05   6.8821966e-05   7.5600306e-05   2.8770644e-04   2.0100885e-04   8.4380263e-05   2.0426034e-04   2.4972913e-05   1.2736900e-04   9.7065866e-05  -6.8646709e-06   1.2089235e-05   1.5333798e-04   4.9660721e-05   9.7299613e-05   4.6361174e-04   1.8417706e-04   1.0066607e-04   3.2275598e-04   3.7659200e-05  -5.9593789e-04   4.7061042e-04  -4.2874532e-04
  -8.1866099e-05   1.3396313e-05   6.6582994e-05   6.8968897e-05   3.3120017e-05   9.9036974e-05   1.5364740e-05   4.8686616e-05   1.6535831e-05  -3.3749067e-05   1.0864116e-04  -3.7206792e-05   7.2428731e-05   3.0539541e-05  -2.1725868e-05   3.8457802e-05   8.2338520e-05   6.8137018e-07   2.1692297e-04   9.5311028e-05   6.0142589e-05   1.5457792e-04   1.6155184e-04   1.4320949e-04   8.9564448e-05   5.9531310e-05   8.2279919e-05  -6.5374355e-05  -3.1922791e-05   8.6867818e-05   2.5784693e-04   2.3963791e-04   1.1941192e-04   3.0828686e-04   1.6054482e-05   1.7879366e-04   3.5720904e-04   2.8559831e-05   1.0666221e-04   1.3385595e-04   4.3695068e-04   2.9993504e-05  -6.8327243e-04  -2.2683489e-04   9.2554874e-05   2.1547462e-04   1.7654951e-06  -8.5951522e-04   7.1799394e-04  -6.8444019e-04
   5.9838108e-05   1.5717604e-05   1.2041088e-04   6.6406268e-05   6.3115178e-05   1.0853237e-04   1.2643417e-04  -1.6007523e-04   8.9858149e-05  -2.3229040e-05   1.2513812e-04  -2.8701839e-05   8.5930136e-05   9.6202610e-05  -5.7503650e-05  -3.7022844e-06   9.7502925e-05  -5.5165424e-06   1.6297464e-04   9.2728449e-05   3.2006486e-05   9.8418634e-05   1.0888021e-04   5.1340969e-05   1.4256535e-04   3.1063897e-05  -9.7782467e-05  -2.3065455e-05  -6.6591674e-05   8.3788582e-05   2.5549365e-04   2.2035575e-04   1.6308190e-04   2.2501593e-04   9.4272633e-05   8.1388454e-05   8.6275330e-05   1.7032749e-05   5.9370766e-05   1.0184762e-04   1.9585220e-04   3.7128091e-05  -1.8990372e-04  -1.4526784e-04   1.0577348e-04   1.8682910e-04   4.5074914e-05   6.2247721e-04  -3.6947394e-04   8.1449922e-05
  -4.8041242e-05   2.2039396e-05   1.4186710e-04   6.9002490e-05   7.8408309e-05   1.3668140e-04   1.1951260e-04  -9.5642781e-06   1.6364892e-04  -3.4819768e-05   1.2219517e-04  -4.0260868e-05   8.0977523e-05   5.3831562e-05   1.0700892e-05   1.8989174e-05   8.5514177e-05   5.9955518e-08   2.0518414e-04   1.1673704e-04   4.6822239e-05   8.5383639e-05   1.5957248e-04   9.1092923e-05   1.1538144e-04  -5.0798400e-05  -1.2890899e-04  -2.9556193e-05   1.1459603e-04   1.0810016e-04   2.3516206e-04   1.8950694e-04   1.7558335e-04   2.3815857e-04   2.0247529e-05   1.0364423e-04   1.4296200e-04   3.3989374e-05   1.4570812e-04   3.4374145e-05   7.8614627e-05   8.3572580e-05   1.0687640e-04   1.8404018e-04   8.3581988e-05   2.7207960e-04   4.7720234e-05  -2.2351289e-04   3.9756784e-04  -6.5287744e-04
   1.0233406e-04   2.4884348e-05   1.2500068e-04   8.4951505e-05   9.4710580e-05   1.2019583e-04   6.7876863e-05   2.6273465e-04   1.5176951e-04  -3.7365902e-05   1.0068095e-04  -4.6918540e-05   9.8619879e-05   6.1862565e-06  -4.1381259e-06   6.7630084e-05   7.3217823e-05  -1.0995353e-05   2.1425224e-04   1.2116509e-04   6.9347887e-05   1.4681202e-04   8.9302041e-05   6.9057802e-05   1.0627913e-04   9.3320832e-06  -4.7342452e-05  -3.4636250e-05  -2.4191271e-05   1.3230577e-04   2.3829628e-04   2.3760796e-04   1.6909905e-04   2.1652196e-04   9.2589726e-05   1.8379469e-04   3.4844526e-04   4.1706935e-06   1.1664117e-04   2.0817340e-04   1.2122629e-04  -3.1668410e-06   2.3165163e-04   3.6251772e-04   1.6680837e-04   3.7755529e-04   3.9785486e-05  -1.4134268e-04   1.9741658e-04   7.5151579e-04
   5.0870749e-05   3.6401081e-05   9.1815578e-05   8.6708074e-05   1.0657872e-04   1.5575114e-04   9.8037068e-05   3.0530823e-04   2.1112223e-04  -1.9917956e-05   1.4513861e-04  -1.2919214e-06   7.2290692e-05   6.8618618e-05  -1.2259798e-05   4.1073934e-05   7.4234471e-05   1.9120278e-06   1.6557943e-04   1.1464718e-04   3.6659072e-05   1.0457532e-04   1.5233461e-04   3.2801716e-05   1.3523515e-04  -2.5984404e-05  -9.6819407e-05  -2.6179461e-05   9.6579584e-05   8.3480103e-05   2.3447404e-04   2.4959759e-04   5.9823484e-05   2.6510155e-04   5.9514667e-05   1.9065334e-04   1.7556141e-04   4.8239381e-06   3.0022691e-05   1.7400699e-04   1.8480959e-04   4.8309768e-05   2.5252771e-04   6.4547360e-04   7.3673211e-05  -4.6852161e-05  -1.5728358e-05   4.0043847e-04   2.0450492e-04   1.3830890e-03
   7.0129383e-05   3.1276872e-05   1.2394070e-04   7.8210316e-05   1.0981086e-04   1.6838864e-04   1.0898928e-04   1.7316235e-04   1.7260376e-04  -2.7190741e-05   1.0639234e-04  -5.1830870e-05   1.1058666e-04   1.2919186e-04   3.5054018e-05   4.7845111e-05   7.9683028e-05   8.6612505e-07   2.1083541e-04   1.2407116e-04   5.7615423e-05   1.0241716e-04   1.3333283e-04   9.8241777e-05   1.8093918e-04   7.4582385e-05  -3.2420361e-05  -3.2507622e-05  -1.9505076e-04   1.1995485e-04   3.1242982e-04   2.0326248e-04  -6.6784341e-05   2.8148337e-04   5.0571161e-06   1.4669631e-04   2.8560753e-04   4.4576420e-05   3.5802128e-05   2.4250659e-04   2.7876653e-04   7.4586649e-05   4.4613649e-04   4.7640817e-04   1.3393458e-04   1.4346432e-04   5.1061088e-05  -1.2539989e-04   4.8960815e-04   1.2253158e-03
   1.1164192e-04   3.2348202e-05   1.6880056e-04   8.9185785e-05   1.3173009e-04   1.2791237e-04   1.4197794e-04   2.1334153e-04   1.3556273e-04  -3.0731575e-05   1.1420268e-04  -5.8910973e-05   9.9652993e-05   8.2124301e-05   6.6213150e-05   1.0691673e-04   9.9273566e-05   1.0802907e-05   2.3786066e-04   1.0211597e-04   5.0281611e-05   1.4002250e-04   1.5540540e-04   9.8315788e-05   5.2245170e-05   5.1806419e-05  -5.7359150e-05  -4.8467344e-05   5.4911703e-05   1.4293179e-04   2.6998777e-04   2.3441785e-04   1.3916861e-04   3.3365618e-04   5.1363328e-05   8.8019813e-05   8.7451597e-05   5.9172267e-05   1.4452246e-04   7.7015124e-05   5.9157115e-05   1.2220924e-05   5.5449241e-04   3.4031915e-04   1.0134875e-04   2.6082585e-04   3.4981837e-05  -1.2877859e-03  -1.9110525e-04  -1.4018305e-04
   2.0032583e-04   3.6989924e-05   1.3155362e-04   9.4642251e-05   1.3036281e-04   1.4123568e-04   1.2879845e-04  -1.5301766e-05   1.4085307e-04   1.5076458e-06   1.3609455e-04  -2.0801801e-05   1.4879541e-04   7.2759362e-06   4.1348500e-05   9.3165429e-05   1.0106824e-04   4.7963863e-06   1.9592371e-04   1.2312578e-04   4.8573649e-05   8.9621979e-05   2.0565822e-04   7.7860044e-05   7.5034164e-05   4.3742471e-05  -1.9828152e-05  -4.0554849e-05   6.9212838e-06   1.4068406e-04   2.8771153e-04   2.5166664e-04  -5.3040043e-05   2.3389692e-04   4.3040953e-05   1.0233295e-04   3.8963608e-05   7.7766752e-05   6.1914412e-05   4.7818889e-05   7.5717551e-05   8.8941590e-05   1.1796846e-04  -2.4567629e-05   5.0886571e-05   1.7899385e-04   1.2572664e-04   2.1699783e-04  -2.4752875e-05  -5.4381735e-04
   1.2825310e-04   3.1752723e-05   1.5591182e-04   1.0934284e-04   1.4189513e-04   2.3087235e-04   1.5287033e-04   8.3255807e-05   1.6132895e-04  -1.4540223e-05   1.2957692e-04  -3.8963324e-05   1.5354608e-04   2.4562893e-05   3.4874072e-05   1.2272364e-04   1.0021793e-04  -6.0680122e-06   3.3410903e-04   1.2975377e-04   7.3129573e-05   1.3950470e-04   1.4753256e-04   1.3905021e-04   1.1405035e-04   1.5211358e-05  -1.9720665e-05  -3.4987708e-05   1.8313300e-04   1.5520491e-04   2.6765841e-04   2.2892171e-04   9.8407188e-05   2.6456005e-04   1.2929768e-04   1.5997088e-04   1.0026098e-04   7.3549272e-05   1.6055963e-04   1.3016618e-04   1.7192683e-04   9.5892414e-05  -5.4491946e-05  -3.7535976e-04   1.0854776e-04   2.0996307e-04   4.4160755e-05  -1.0789713e-03   6.8510714e-04  -1.8924917e-04
   2.8008511e-04   4.1082869e-05   1.8662194e-04   1.1346304e-04   1.7072480e-04   2.2752266e-04   2.1280552e-04  -1.0448482e-05   2.4871677e-04  -1.1386538e-05   1.4324869e-04   9.2713026e-06   1.4572796e-04   7.5926138e-05   3.6602098e-05   1.7036215e-04   7.0812705e-05  -5.0174485e-06   2.6468554e-04   1.3841572e-04   6.0966991e-05   1.3154988e-04   2.1357853e-04   1.2648250e-04   1.0546558e-04   6.0465434e-05   7.3374845e-06  -1.6866981e-05   6.9837937e-05   1.8371259e-04   1.4284412e-04   1.9593537e-04   2.0709052e-04   2.1950102e-04   5.2626263e-05   1.4379749e-04   3.2457718e-04   9.3916569e-05   1.9564586e-04   1.4675813e-04   3.6767198e-04   1.5738306e-05   2.1534385e-04   2.5146126e-04   1.6137346e-04   2.8525508e-04   2.1332684e-05   1.8991073e-04  -3.4543831e-04  -5.1459559e-04
   1.9329178e-04   5.5160348e-05   1.4871106e-04   1.1313804e-04   1.6927237e-04   1.8479448e-04   2.1144807e-04   2.6777957e-04   2.3620960e-04   1.4967157e-05   1.7299240e-04   2.1658410e-05   1.6287511e-04   1.4622555e-04   1.6921447e-05   1.1108057e-04   5.5734850e-05  -2.1845777e-05   3.5696485e-04   1.4902075e-04   5.6199668e-05   1.3353951e-04   2.7248083e-04   1.0288174e-04   6.6671535e-05   1.0774856e-04  -1.3089993e-04  -3.0601041e-05   5.5544038e-05   1.2368710e-04   1.8107008e-04   1.6285665e-04   3.3417786e-04   2.2464494e-04   1.5734693e-04   1.4780794e-04   8.4183725e-05   1.3024794e-04   1.7087569e-04   1.3369843e-04   8.5230407e-05   7.4604366e-05   3.4853851e-04   3.3432557e-04   1.0405945e-04   6.2870909e-05   6.5074317e-05   5.3754624e-04   3.1810392e-05  -6.5271939e-05
   4.1656394e-04   5.0187406e-05   1.6670996e-04   1.3753433e-04   1.5149947e-04   2.4041042e-04   1.9447165e-04   3.9372389e-04   3.5043823e-04   7.7377917e-06   1.6209317e-04   2.4911673e-05   1.6127131e-04   8.8849411e-05   8.8456640e-05   1.9160149e-04   2.9711911e-05  -1.7651519e-05   3.3354718e-04   1.6936255e-04   8.3839048e-05   1.5813754e-04   2.4901802e-04   1.7603935e-04   1.6393763e-04   6.0873284e-05  -1.0886355e-04  -3.4563516e-05   2.0921117e-04   2.2481005e-04   1.5452075e-04   1.8044062e-04   2.9588315e-05   1.6580382e-04   8.9408146e-05   1.6659337e-04   3.0430430e-04   1.2897990e-04   8.6177031e-05   1.8260625e-04   2.1277863e-04   5.8838432e-05  -3.2266456e-04  -5.8377173e-04   1.6228374e-04   1.6932588e-04   1.0019023e-04   6.8928442e-05   4.0868542e-04  -5.7665940e-04
   4.3698176e-04   7.1021539e-05   1.7906132e-04   1.5137793e-04   1.8268308e-04   3.0546921e-04   1.8152369e-04   9.7105723e-05   3.6375647e-04   2.7382825e-05   2.1682694e-04   7.9899830e-05   1.4860016e-04   8.7772438e-05   1.3814065e-05   1.3948245e-04   1.8069304e-05  -1.9471116e-05   2.5246557e-04   1.5778029e-04   5.9654652e-05   1.4154919e-04   1.9763962e-04   1.2047206e-04   5.3469077e-05   1.2310773e-04  -1.2560912e-04  -1.9426943e-05   1.4818777e-04   1.1600996e-04   1.7561362e-04   1.4332365e-04   3.4212208e-05   2.0624387e-04   1.4351988e-04   2.1489193e-04   1.5959621e-04   9.0257992e-05   2.1348170e-04   5.7007369e-06   2.7022505e-04   8.2969309e-05   1.1035694e-04  -2.0965195e-05   2.2195767e-04   1.1033818e-04   1.2058847e-04   3.9906552e-04  -8.1961203e-05  -4.3201415e-04
   3.0736311e-04   6.4954795e-05   2.0727827e-04   1.4016777e-04   1.6682735e-04   2.6732759e-04   1.9239821e-04   1.6500225e-04   3.2970260e-04   2.4572006e-05   1.8813550e-04   5.4178352e-05   1.6020529e-04   8.3101651e-05   1.0252196e-04   1.4463182e-04   2.9845905e-05  -1.9790692e-05   3.4890292e-04   1.5857695e-04   6.9692091e-05   1.3460567e-04   2.2398947e-04   8.1789505e-05   1.6141965e-04   8.9782930e-05  -2.9727480e-05  -3.6032419e-05   5.0141669e-05   1.7693899e-04   1.5389398e-04   1.3121717e-04   1.6523665e-04   2.1439909e-04   1.4293149e-04   2.1625235e-04   8.0896018e-05   1.1727050e-04   2.2965667e-04   2.9215708e-04   1.1721862e-04   6.6879707e-05   7.0302584e-04  -7.3224213e-04   1.5696618e-04   4.8599355e-05   1.7709968e-04   4.6294634e-04  -2.6044637e-04   7.9309648e-05
   4.2814680e-04   6.6948152e-05   1.8305494e-04   1.6172002e-04   1.9094818e-04   3.0837598e-04   1.9878363e-04   4.8546604e-04   3.1733353e-04   1.6264661e-05   1.7347987e-04   6.4890373e-05   1.7020755e-04   5.5767669e-05   1.0517605e-05   1.6264018e-04   2.2616345e-05  -1.4733446e-05   4.4253535e-04   1.6744030e-04   6.0466475e-05   1.1109378e-04   1.7702256e-04   9.2421920e-05   7.2042894e-05   1.0457856e-04  -1.9333431e-05  -3.2142605e-05   1.2226869e-05   1.8790663e-04   1.4606012e-04   1.3668595e-04   2.1180566e-04   1.9465487e-04   1.2401548e-04   1.4034174e-04   5.0456770e-04   1.5009251e-04   1.6772178e-04   1.9219684e-04   3.1758141e-04   6.3865053e-05   1.5756099e-04   1.5048840e-04   1.8622301e-04   2.1603037e-04   7.7605800e-05   3.3569132e-04  -4.5721008e-05   6.3940207e-04
   4.3536953e-04   7.1497590e-05   1.7811173e-04   1.4210188e-04   1.6713521e-04   2.1475814e-04   1.9644419e-04   5.1420848e-05   3.9534565e-04   3.3101467e-05   1.9328833e-04   7.8607722e-05   1.4595648e-04   8.1163656e-05  -1.3315476e-05   1.4750693e-04   2.5116176e-05  -1.7313308e-05   2.7978994e-04   1.6175164e-04   4.5364945e-05   9.0024281e-05   1.3575387e-04   1.4258423e-04   8.7202723e-05   9.3712384e-05  -1.4003107e-04  -1.7762655e-05   2.5585148e-04   1.0901828e-04   1.3094858e-04   1.6230722e-04   6.6904409e-05   2.0900139e-04   7.5929049e-05   9.4127834e-05   1.8195313e-04   1.0553386e-04   1.9995490e-04   2.2250802e-04   6.6671331e-05   6.8412803e-05   6.1660825e-04   5.5372831e-04   1.2757129e-04  -1.5150033e-05   5.2958760e-05   7.0217626e-05   3.5799978e-05  -8.9309108e-04
   1.6483721e-04   6.0423354e-05   1.7769920e-04   1.4886080e-04   1.7114414e-04   2.7226619e-04   2.0511835e-04   4.1551175e-04   2.9431295e-04   1.5430644e-05   1.6673074e-04   5.2725383e-05   1.5780331e-04   5.2313582e-05  -1.7648343e-05   9.5381307e-05   4.8669070e-05  -7.3647925e-06   4.2457416e-04   1.7011988e-04   6.6348104e-05   1.3054494e-04   1.9850672e-04   9.5445132e-05   2.5353023e-05   1.3781866e-04  -6.4516760e-05  -2.2649014e-05   7.1415168e-05   1.5237456e-04   1.9398946e-04   1.8595948e-04   1.5591517e-04   1.7096240e-04   1.0574881e-04   1.9824802e-04   2.4073393e-04   1.6016727e-04   2.1545653e-04   2.4516601e-04   1.5230753e-04   4.1355983e-05   6.0243323e-04   3.9951818e-04   1.0753508e-04   4.6770525e-05   3.7944490e-05   4.3083492e-04  -2.8459961e-04   5.0113525e-04
   2.9572321e-04   6.9688416e-05   1.8034196e-04   1.5718388e-04   1.7171318e-04   2.4683820e-04   2.3822256e-04   2.1861104e-04   3.3464175e-04   3.0783034e-05   1.8588330e-04   8.3276464e-05   1.5367843e-04   9.6893818e-05  -5.5382610e-05   1.3486248e-04   4.9726710e-05  -7.0925939e-06   3.9483278e-04   1.5971600e-04   2.6522152e-05   5.7128895e-05   1.9847770e-04   3.9465212e-05   3.8118058e-05   1.0978853e-04  -8.0904676e-05  -1.2765010e-05  -2.9240548e-05   1.1782580e-04   1.8913861e-04   1.6019034e-04   2.8943608e-04   1.7824733e-04   9.5818803e-05   2.0605285e-04   3.3769890e-04   1.1759069e-04   1.5401936e-04   2.5372268e-04   2.8762317e-04   5.4211730e-05   5.0453818e-04  -1.5891141e-04   1.1028365e-04   5.9659036e-05   7.0181261e-05  -5.7660847e-04   1.8327574e-04  -3.4613878e-04
   2.1735673e-04   6.2087187e-05   1.6797167e-04   1.5204126e-04   1.2455725e-04   1.7866182e-04   1.7215888e-04   1.6049106e-04   1.4231268e-04   9.8530672e-06   1.6198956e-04   4.3265227e-05   1.2624534e-04   1.0136095e-05  -1.6526625e-04   1.0374988e-04   8.3791012e-05  -2.2920582e-05   1.9137702e-04   1.4850523e-04   3.0380872e-05   8.1786144e-05   1.6993414e-04   6.0644768e-05   1.2410870e-04   1.3144824e-04  -5.7692923e-05  -4.6728062e-05  -4.1498832e-05   1.2389175e-04   2.0708860e-04   1.8651997e-04   1.3958462e-04   1.8191115e-04   7.2182447e-05   2.3227844e-04   3.4654950e-04   1.1970567e-04   1.9599481e-04   2.4543889e-04   2.4251662e-04   1.4154731e-04  -6.3329877e-05  -1.0835844e-04   1.5260508e-04   1.8449892e-04   9.6315554e-05   3.5366620e-04  -2.3362020e-04  -1.5860600e-04
   2.7143382e-04   4.8616352e-05   1.6901223e-04   1.3856316e-04   1.6990094e-04   2.7225379e-04   2.0117365e-04   2.9228738e-04   1.9290809e-04  -6.8642958e-06   1.4947492e-04   4.9764072e-05   1.4368376e-04   6.9552050e-05  -7.3549498e-05   1.2040579e-04   8.1155813e-05   5.9999966e-06   3.0840331e-04   1.6042567e-04   1.5206421e-05   2.7090757e-05   1.6434610e-04   9.2945724e-05   1.2992977e-04   1.0364022e-04   6.1904202e-06  -4.9899947e-05   2.2580486e-04   1.6432746e-04   1.5366692e-04   1.7283609e-04   1.8711803e-04   2.5616246e-04   7.7874458e-05   1.1856398e-04   1.1259328e-04   7.6818811e-05   1.7141884e-04   1.8018406e-04   2.6370105e-04   3.8998834e-05   6.6283821e-05   8.1282220e-04   1.9108392e-04   1.4512982e-04   6.4206622e-05  -1.3773925e-04  -9.7866163e-05  -7.3266536e-04
   2.3131183e-04   5.0750008e-05   1.7779924e-04   1.2713131e-04   1.3228004e-04   1.6847726e-04   2.0386091e-04   2.2059762e-04   2.0444133e-04   1.3160486e-05   1.8070910e-04   6.9766837e-05   1.3138806e-04   5.2935146e-05   5.2682721e-05   6.7638714e-05   9.4831885e-05  -7.1863769e-06   1.5719220e-04   1.3358804e-04   4.8810793e-06   2.6603904e-05   1.8396380e-04   2.3849287e-05   8.4932508e-05   1.7480986e-04  -8.1704282e-05  -4.6093930e-05  -7.5932941e-05   1.4088632e-04   2.2750320e-04   1.8411472e-04   2.6402198e-04   2.6596809e-04   9.5394091e-05   1.2254821e-04   1.6562092e-04   1.3747606e-04   1.8898091e-04   2.4654556e-04   1.0342163e-04   1.8722298e-05   1.0786161e-05   3.2127889e-05   7.2131952e-05   2.0204631e-04   2.4126366e-05   1.2775230e-04   2.8172942e-04  -2.0111185e-04
   3.7428355e-04   4.1155501e-05   1.7214021e-04   1.1553928e-04   1.0556826e-04   2.0590528e-04   2.0274222e-04   2.8753577e-04   1.1093628e-04  -7.1626005e-06   1.5577169e-04   4.4631666e-05   1.4236201e-04   1.1730619e-04   1.3511898e-05   1.2703759e-04   9.8663040e-05  -2.5971629e-05   3.0366294e-04   1.5543135e-04   2.5138204e-05   7.5651566e-05   1.2388923e-04   8.7174216e-05   1.4137900e-04   1.5360673e-04  -4.4676253e-05  -4.6474026e-05   6.0319220e-05   1.7844583e-04   2.2070183e-04   1.8560597e-04  -5.6790082e-06   2.1202420e-04   9.2685419e-05   1.4372492e-04   2.8690873e-04   1.1720458e-04   1.8087405e-04   8.0877879e-05   1.0587881e-04   5.1848820e-05   3.6003051e-04   8.7355677e-04   1.3836518e-04   2.7898967e-04   2.1681433e-05  -5.6397245e-04   5.4299721e-04   5.5144512e-05
   1.4524670e-04   4.6273537e-05   1.5893132e-04   1.2969571e-04   1.2186010e-04   2.0549716e-04   1.4580777e-04   1.2455700e-05   1.7208805e-04   8.0749232e-06   1.7285482e-04   7.4403906e-05   1.2042590e-04   3.7941125e-05  -6.5940585e-05   3.4613218e-05   8.0929443e-05  -2.5792824e-05   2.9464782e-04   1.4176741e-04  -1.2223272e-05   3.0293590e-05   1.5161482e-04   4.9754399e-05   9.1285619e-05   1.0084851e-04  -1.2377647e-04  -4.2446580e-05   1.7975012e-04   1.5329984e-04   2.0120319e-04   1.5400302e-04   1.5345559e-04   2.5240652e-04   1.1057189e-04   1.6272797e-04   1.7246814e-04   1.2076077e-04   1.4926700e-04   1.1466596e-04   2.9480690e-04   6.9712391e-05   2.9070579e-04   4.1108584e-04   1.3746529e-04   1.8153075e-04   1.0098581e-04   3.4556739e-04   6.7904344e-05   3.8793889e-05
   1.4459607e-04   4.4620552e-05   1.4743707e-04   1.3892127e-04   5.9480564e-05   1.5646561e-04   1.4221416e-04   1.1933553e-05   1.1170243e-04  -7.1951899e-06   1.4660954e-04   7.5669785e-05   9.7531018e-05  -1.1540873e-05  -5.1098112e-05   6.8878740e-05   6.3291474e-05  -1.9031864e-05   1.6655357e-04   1.5393818e-04   8.9897103e-06   5.3847874e-05   1.6988756e-04   6.1099243e-05   1.1546660e-04   1.6207279e-04  -7.6820754e-05  -5.4210508e-05  -8.4223560e-05   9.9977377e-05   1.5472612e-04   1.6559529e-04   1.4117383e-04   2.1553549e-04   1.1095108e-04   2.5281328e-04   1.3344770e-04   1.4820904e-04   1.6333781e-04   2.3088894e-04   8.2848164e-05   1.0907533e-04  -1.0561221e-04   9.9868106e-04   1.2496876e-04   1.5971463e-04   7.8576231e-05  -5.2050140e-04  -1.1526373e-04   3.7396737e-04
   2.6532161e-04   3.3229597e-05   1.4361729e-04   1.3445277e-04   7.9971076e-05   1.5395136e-04   1.1768928e-04   1.9535037e-04   2.1006790e-04  -1.2844149e-05   1.4752730e-04   8.0958780e-05   1.2668299e-04   6.7045003e-05   5.5875076e-05   7.0833390e-05   6.1993727e-05  -1.6091632e-05   1.2076840e-04   1.3850232e-04  -9.5958849e-06   3.4004148e-05   1.0717290e-04  -1.5874039e-05   7.1453207e-05   1.4813196e-04  -3.1550655e-05  -2.9068655e-05  -5.0796675e-06   1.2129498e-04   1.6983366e-04   1.4458667e-04   1.1037853e-04   1.6268759e-04   5.4944929e-05   1.6008459e-04   1.4076600e-04   1.0594765e-04   1.8444912e-04   1.6860734e-04   1.5370008e-04   2.5140065e-05   9.9631776e-05   1.6120802e-04   1.1485071e-04   1.8121285e-04   1.2626860e-04   9.0760055e-05  -2.7766739e-04  -4.2565906e-04
   5.9543505e-05   3.6228539e-05   1.1435354e-04   1.4032325e-04   5.7763795e-05   1.3305756e-04   1.3095092e-04   2.1784774e-04   7.3016570e-05  -2.1780290e-05   1.4312392e-04   7.6521457e-05   6.9814276e-05  -9.7515313e-06  -1.9575224e-05   7.5915952e-05   6.7330788e-05  -3.1169668e-05   7.9712976e-05   1.2890065e-04  -1.0020018e-05   5.4715834e-05   1.4908341e-04  -3.2233969e-05   4.5295747e-05   3.4666033e-07  -1.1105794e-04  -4.5943889e-05   8.6261003e-05   1.3153770e-04   1.8987834e-04   1.5781818e-04   6.3027837e-05   1.9428237e-04   5.9397509e-05   1.0076451e-04   1.1460808e-04   9.4717077e-05   1.8004980e-04   2.0491303e-04   2.0352899e-04   5.6473462e-05   2.1870292e-04  -1.3909795e-04   9.7968921e-05   6.5480432e-05   5.9802180e-05   4.3945300e-04   4.2530613e-05  -1.4095211e-03
   3.9880317e-05   2.8360546e-05   1.2226088e-04   1.3991568e-04   4.7145364e-05   8.7861619e-05   1.0488275e-04   3.0694751e-04   1.1546885e-04  -2.8724915e-05   1.2365467e-04   5.9028574e-05   1.1594207e-04   1.4123832e-05   3.1215710e-05   4.7623220e-05   7.3369600e-05  -2.2953527e-05   6.5208980e-05   1.2958763e-04   2.2166769e-06   4.9734987e-05   5.4600023e-05   4.3520078e-05   1.6453674e-04   1.5487465e-04  -9.0039386e-05  -3.9205082e-05   1.5149495e-04   1.2146701e-04   1.3723056e-04   1.2713454e-04   1.0409373e-04   1.8167894e-04   6.2609397e-05   1.0680690e-04   2.3220050e-04   1.2578619e-04   1.5805241e-04   1.9390945e-04   5.4424025e-05  -5.2488045e-05  -4.4017355e-04   4.7901782e-04   9.4696683e-05   1.2115114e-04  -7.3101814e-06  -8.6966599e-04  -3.0027956e-04  -7.5873861e-04
   1.3940434e-04   3.7292848e-05   9.5672600e-05   1.2287823e-04   6.6575783e-05   4.7250294e-05   1.2787833e-04   1.3188843e-04   1.2801256e-04  -1.5070834e-05   1.4569671e-04   1.0148162e-04   9.5567375e-05   2.6605145e-05  -8.6945347e-06  -7.8108877e-07   4.2726530e-05  -2.5487301e-05   1.5596018e-04   1.2695807e-04  -1.9793853e-05   1.1172887e-05   1.0735261e-04   6.6586974e-05   4.6769714e-05   2.2475961e-05  -1.2841320e-04  -2.9387586e-05   2.3841750e-04   8.7724162e-05   1.6054379e-04   1.7133416e-04  -6.3538077e-06   1.9475994e-04   8.7570377e-05   1.2998222e-04   3.0612721e-04   8.1244907e-05   1.5425189e-04   1.3177772e-04   2.5861055e-04   4.1376959e-05  -9.2410148e-05   3.5954162e-04   1.1033599e-04  -1.0915763e-04  -7.9757783e-06   2.4705217e-04  -2.3476470e-04  -6.1051687e-04
   5.0753279e-05   3.2828611e-05   9.8362689e-05   1.4210878e-04   5.5188884e-05   8.5576699e-05   6.6281114e-05   2.0202291e-04   7.5573887e-05  -2.3592944e-05   1.0540939e-04   7.5952317e-05   1.0124350e-04  -8.0602849e-06  -6.7511828e-05   1.8050133e-06   5.4568634e-05  -2.3786752e-05   1.2473117e-04   1.1732173e-04  -8.3983505e-06   3.8973227e-05   3.1565487e-05  -2.6247121e-06   1.2584454e-04   1.3364594e-04  -8.0801103e-05  -3.8104070e-05  -9.7501565e-05   1.0860462e-04   1.0733651e-04   1.7728501e-04   1.6389464e-04   2.1751034e-04   6.7092406e-05   1.6117819e-04   1.9679585e-04   1.0583428e-04   1.4763477e-04   1.5671482e-06   1.9567287e-04   4.2016658e-05   1.8914008e-04   8.1800754e-05   1.5008407e-04   6.5716427e-05   7.8724719e-05   3.6817207e-04  -9.1718233e-05  -5.4410804e-04
   1.2317706e-04   3.9951705e-05   1.1174705e-04   1.2522025e-04   7.2730778e-05   6.8460402e-05   9.3354327e-05   1.5264681e-05   3.8821076e-05  -2.9954394e-05   9.0289555e-05   4.1108578e-05   9.5826814e-05   4.0492068e-05   7.4065640e-05   3.1560416e-05   7.6055003e-05  -1.9669937e-05   5.1465198e-05   1.2688953e-04   1.5537340e-05   5.3977408e-05   4.3197862e-05   5.2865271e-05   1.1855831e-04   2.0874792e-04  -8.6249755e-05  -3.8743718e-05   1.0094465e-04   1.4104885e-04   1.7231391e-04   1.6919762e-04   1.9770255e-04   2.5185372e-04   6.2269377e-05   2.3332761e-04   1.1166857e-04   1.0061439e-04   1.5259680e-04   1.1349494e-04   2.4315779e-05   8.7878561e-06   1.3657042e-04  -5.5205397e-04   1.1750369e-04  -9.4019582e-05  -3.2260225e-05   3.9452920e-04   4.8242879e-04  -7.3431840e-04
   1.0726905e-04   4.6352721e-05   1.0319070e-04   1.3973989e-04   7.1667244e-05   4.6764264e-05   7.0792099e-05  -1.6556094e-04   1.2801314e-04   7.6178571e-07   1.3490375e-04   8.5443935e-05   5.2412695e-05   2.9920627e-06   3.0519910e-05  -2.6473776e-05   4.4808297e-05  -1.3957654e-05   7.0451468e-05   1.1844757e-04  -9.5783143e-06   4.0854578e-05   2.7991202e-05  -1.0255123e-05   6.4580076e-05   1.8155208e-04  -2.0663766e-04  -2.8636072e-05  -3.6464538e-05   1.0477049e-04   1.0828192e-04   1.2409611e-04   1.6287235e-04   2.1486559e-04   4.4833931e-05   1.1633646e-04  -6.8876718e-05   6.3774292e-05   1.3834836e-04   1.8214398e-04   1.6916735e-04   5.4849159e-05   1.3544432e-04  -2.6575863e-04   1.4377302e-04   6.5905435e-05   1.1525481e-05   3.0996013e-04  -4.7692275e-04  -2.3543948e-04
   1.3860692e-04   3.1477306e-05   8.9380541e-05   1.3494831e-04   6.2667124e-05  -1.1870397e-05   8.5993233e-05  -3.6018927e-04   7.9219761e-05  -1.3115994e-05   1.1054320e-04   3.3968943e-05   9.3090348e-05  -1.5884534e-05  -1.0017377e-04  -3.4015904e-06   8.6346132e-05  -2.9608500e-05   1.7265204e-04   1.0321921e-04  -1.5026066e-07   5.8021509e-05   7.3599003e-05  -2.5434725e-05   6.0525195e-05   1.3123505e-04  -1.1926069e-04  -5.8442998e-05   9.8840923e-05   1.0606086e-04   2.3077171e-04   1.5955287e-04  -1.9152192e-04   1.7434708e-04   7.0881826e-05   1.3808752e-04   6.6536741e-05   1.1756423e-04   1.6441588e-04   1.0303048e-04   1.3195931e-04   3.2885593e-05   5.0267234e-04   2.0574708e-04   1.4382822e-04   1.9296205e-05   4.4069482e-05  -2.8139915e-04  -2.5955154e-04   9.4820280e-04
   1.1279342e-04   3.3156255e-05   1.3822674e-04   1.3720893e-04   7.6740951e-05   1.1406963e-05   8.5560438e-05   1.0497824e-04   1.6939975e-04  -2.3491466e-05   1.0686087e-04   4.8064947e-05   6.5018918e-05  -2.5813690e-05   8.9603687e-05   3.2697215e-05   5.7838803e-05  -1.0290608e-05   9.0316753e-05   9.7974371e-05  -8.8809002e-06   1.5805490e-05  -1.9684019e-06  -5.0762799e-05   1.4732161e-04   1.7425985e-04  -4.0496419e-05  -5.5241693e-05  -1.3982311e-05   9.0716865e-05   1.7941666e-04   1.4330169e-04  -3.0900675e-05   1.4852881e-04   1.0963545e-04   9.3268965e-05   1.7820678e-04   4.8183600e-05   1.2399198e-04   1.7762808e-04  -3.3147828e-06   3.9736311e-05   4.5178924e-04  -2.3237833e-05   1.4503371e-04   2.5793494e-04   6.4935826e-05   3.3396352e-04   2.7655612e-04  -7.7604869e-04
   5.1479437e-06   3.4296805e-05   1.0883604e-04   1.4421089e-04   5.1199095e-05   6.7947920e-05   7.5765973e-05  -3.5592624e-05   1.4805394e-04  -1.1910626e-05   1.2421378e-04   4.6809535e-05   6.4253218e-05  -1.4302752e-05  -7.2969036e-05   2.0135514e-05   5.5587218e-05  -9.6098784e-06   2.1219141e-04   9.3919763e-05  -5.0695448e-06   5.1725099e-05  -2.5287498e-05   5.8249748e-06   1.2911895e-04   1.1835542e-04  -2.1288065e-04  -2.5024105e-05  -8.4519022e-05   1.0712343e-04   1.1160929e-04   1.3863650e-04  -1.0213185e-05   2.1622045e-04   3.3973458e-05   2.1195696e-05   1.3648401e-04   6.1870589e-05   1.5443585e-04   4.1635220e-05   7.9160900e-06   2.1441825e-05   1.3387448e-04   4.8227469e-04   7.1618793e-05  -9.4164807e-06   6.0872917e-05  -6.7796267e-04   5.0831743e-04  -7.0938951e-04
   8.4109488e-05   3.4261746e-05   1.3723965e-04   1.4071443e-04   4.1457173e-05   1.3548632e-05   5.9048631e-05  -9.0198555e-06   4.8174137e-05  -2.2105716e-05   1.0100177e-04   2.7419870e-05   7.1786861e-05  -3.5912930e-05  -6.1011615e-05   2.6555190e-05   4.7569229e-05  -1.7503402e-05   1.3365503e-04   1.0725441e-04   2.1543701e-05   5.3877066e-05   7.6498625e-05   1.3530605e-06   1.5802735e-04   1.5273306e-04  -1.0474899e-04  -2.9126040e-05   2.5472697e-04   8.6905675e-05   1.5612193e-04   1.1534626e-04   4.4108747e-05   2.2569313e-04   1.1478276e-04   2.0137236e-04   1.7465019e-04   1.1571650e-04   1.5765223e-04   1.1307249e-04   8.4022402e-05   4.0857238e-05   4.7084002e-05   2.4072225e-04   8.4160565e-05   1.2866607e-04  -4.9449295e-06   3.8960375e-04  -4.0133667e-04  -6.1560603e-04
   1.1954222e-04   4.1592702e-05   1.3591749e-04   1.5061499e-04   7.7262870e-05   6.2414081e-05   1.0957613e-04   4.7175694e-04   6.8416615e-05  -1.3790223e-05   1.1452968e-04   6.2400926e-05   7.5309246e-05  -1.9302110e-05  -2.2356997e-05  -3.3213961e-05   3.1984091e-05  -1.4955597e-05   1.8295055e-04   1.0362796e-04   1.2611534e-06   7.6100776e-05   2.8692553e-05  -5.4304965e-05   8.1775441e-05   1.2115054e-04  -1.6330305e-04  -3.4723678e-05   4.8763177e-05   2.1237629e-05   9.6365678e-05   1.3070318e-04   6.3849206e-05   1.7998065e-04   7.4912728e-05   8.8470064e-05   1.4674509e-04   9.0211841e-05   1.4642386e-04   1.8292319e-04   1.4382438e-04   3.8881957e-05  -7.7216879e-05   2.5571961e-04   1.0588920e-04   1.5517142e-04   2.5090519e-06  -2.7207579e-06  -1.1586059e-04  -1.6790707e-04
   2.0950691e-05   4.5166962e-05   9.5907213e-05   1.5386957e-04   5.0018018e-05   6.4305561e-05   1.1879716e-04   1.0263449e-04   9.4349589e-06  -2.4671175e-05   8.8295681e-05   2.8668295e-05   9.0131500e-05  -4.8237926e-05  -7.1971117e-05  -2.2218604e-05   5.5841512e-05  -1.7805218e-05   1.9428293e-04   9.0575784e-05   1.0037113e-05   2.4633373e-05   7.4086092e-05  -3.3384611e-05   1.0882242e-04   7.3603180e-05  -5.8541482e-05  -3.5865556e-05   2.4158336e-04   4.5992681e-05   1.6829300e-04   1.4007797e-04   3.2312073e-05   1.5464393e-04   7.3230651e-05   9.8535944e-05   1.2336310e-04   8.1085062e-05   8.4242340e-05   1.6231234e-04   1.8668376e-04  -1.9570711e-05   4.2002098e-04   4.2270584e-04   8.9139117e-05  -5.5939190e-06  -1.5900307e-05   8.0188765e-05  -1.8400922e-04  -1.8198563e-04
   4.2967891e-05   3.4416229e-05   1.2914010e-04   1.5634956e-04   8.8885463e-05   4.6317356e-05   1.2914588e-04  -1.8979865e-04   4.4862230e-05  -3.2825341e-05   6.5631582e-05   2.3825150e-05   7.1433315e-05  -1.7687837e-05   3.6632315e-05   1.4211950e-05   3.5036799e-05  -2.0410076e-05   1.8391546e-04   9.2266215e-05   3.3475098e-05   1.0394370e-04   6.4776992e-05   6.8322843e-05   1.3833815e-04   1.1019789e-05  -9.8136552e-05  -2.1579563e-05   1.9183362e-04   1.2060133e-04   1.3497520e-04   1.3794676e-04   1.7147325e-04   1.6509653e-04   5.3760388e-05  -1.8184786e-05   3.8889961e-04   5.8047266e-05   1.7217775e-04   1.9749881e-04   2.2167584e-04   1.9859193e-05   2.6726013e-04   2.6609190e-04   1.0434408e-04  -1.6190019e-05   3.8203700e-05  -2.6006778e-04  -2.8726778e-05  -3.9888854e-04
   6.5017128e-05   4.8581212e-05   1.3161963e-04   1.4533270e-04   9.9714773e-05   1.0137163e-04   1.3280270e-04   2.2248820e-04   1.0781364e-04  -2.2764900e-05   8.0639926e-05   5.0565677e-06   7.7610450e-05   9.0590975e-06  -3.5807971e-05   5.5327117e-05   1.3757305e-04   2.8263763e-05   6.5270011e-05   6.8148838e-05  -6.4522183e-06   2.9140263e-05  -1.5651773e-05  -7.0581023e-05   1.7250472e-04   6.9674541e-05   1.3307770e-04   5.6997149e-05  -5.9193237e-05   9.4162417e-05   2.9387898e-04   2.0538431e-04   9.9875826e-05   2.5798380e-04   1.2181651e-04   7.3348718e-05   6.7921908e-05   6.1188824e-05   1.2935608e-04   1.3868690e-04   1.6227600e-04   4.1074913e-05   3.6352675e-04   1.1712523e-04   1.1937794e-04  -1.0115384e-05  -7.2430794e-06   4.5843585e-04  -9.1084374e-05   1.3654508e-03
   1.0553417e-05   1.1190941e-05   1.7297523e-04   1.0225343e-04   9.2654242e-05   9.4638686e-05   7.1139671e-05   1.1302176e-04   7.2251853e-05  -4.5029188e-05   3.9282586e-05  -1.4664943e-04   1.0904366e-04   1.7399997e-04   5.6669101e-05   1.5787507e-04   3.2221581e-04   4.8274011e-05   2.4778946e-04   2.9893976e-05  -2.3242976e-05   4.6173786e-06   1.2757004e-05   2.4280955e-05   1.8975868e-04   1.2982378e-04   1.3660236e-04   1.0050728e-04   6.5950873e-05   6.5893655e-05   4.1701127e-04   2.4508851e-04   4.0243645e-05   2.5688350e-04   7.5149896e-05   6.0551793e-05   4.7249036e-05   8.8924838e-07   1.3241179e-04   7.2017792e-05   4.5720863e-05   1.6940223e-05  -3.0398365e-05   2.8440473e-04   1.6360502e-05   9.6615520e-05   5.5411230e-05  -8.2957657e-04   3.6157967e-04   1.5850470e-04
   9.9602803e-05  -6.5882305e-06   1.8347609e-04   7.9349978e-05   8.0046331e-05   5.6955781e-05   6.2153413e-05   1.0713799e-04  -4.1711606e-05  -5.2297404e-05   1.9005420e-06  -1.7021815e-04   9.8397730e-05   2.1687066e-04   1.4822840e-05   1.9096812e-04   3.1032829e-04   4.4691376e-05   1.9459684e-04   3.8942228e-05  -1.0183061e-05   7.4097829e-06   2.2550961e-05   5.9511926e-06   1.9167588e-04   3.0891366e-05   3.1104629e-04   9.8870703e-05   8.1916129e-05   9.5998126e-05   4.4404762e-04   2.4099890e-04   3.8822068e-06   1.9726442e-04   4.2643220e-05   8.2791725e-05   2.0692759e-04   9.8820183e-06   2.0764432e-04   1.9662996e-04   1.0808714e-04  -5.4397246e-05   5.3895876e-04   9.3661649e-05   3.0561565e-05  -8.7807843e-05   4.0033548e-05  -6.1003043e-04  -5.0645869e-04  -2.2630673e-04
  -3.9034883e-05  -1.9051490e-06   1.7349169e-04   7.5712189e-05   3.9897670e-05   7.5110314e-05   6.8496367e-05   3.7973732e-05   5.7994803e-05  -1.5912901e-05   5.1938048e-05  -7.5801923e-05   7.2322888e-05   1.7859376e-04   1.0121772e-04   1.2041615e-04   3.2023632e-04   1.0089071e-04   1.3024283e-04   3.1770367e-05  -3.4072367e-05  -5.5827536e-06  -1.5334350e-05   1.6162718e-05   5.5179895e-05   2.5579615e-05   1.8390198e-04   1.2039628e-04   2.6653975e-04   4.5047542e-05   4.4935007e-04   3.1026753e-04  -1.5282417e-04   2.3284990e-04   8.7140827e-05   1.4142788e-04   1.1715844e-04   7.6742072e-05   7.7779223e-05   6.3768748e-05   1.8354136e-04   3.1999003e-05   2.0584022e-04   8.2054152e-04   1.5316087e-04  -1.6325281e-05  -4.9120230e-05  -1.3763440e-04  -3.2763480e-04   1.6732843e-04
  -7.6354074e-05  -1.3993855e-05   1.8186035e-04   6.0660452e-05   5.8553163e-05   7.7648983e-05   1.0294246e-04   4.9613594e-05   3.7805221e-05  -2.8965114e-05   3.3906155e-05  -3.0409668e-05   5.5014167e-05   1.8765587e-04   8.4462445e-05   1.6963236e-04   3.4296786e-04   1.3766269e-04   1.1900456e-04   4.8367932e-05  -3.4265548e-05  -7.8956211e-05   2.1165533e-05   1.0584915e-04   1.9467715e-04  -4.9122667e-05   2.5360676e-04   9.6977667e-05   2.0586371e-05   7.5926175e-05   4.2914416e-04   3.4752279e-04   3.5185567e-05   3.1528051e-04   5.8197820e-05   1.0634639e-04   1.3342148e-04   4.7033296e-05   1.3859627e-04   1.7436229e-04   2.0819396e-04   7.3419586e-05   1.8413260e-04   4.4356493e-04   1.6311069e-04   1.9380655e-04  -6.7787114e-05   1.7616511e-04  -3.6289955e-05   2.4604352e-04
  -3.1265968e-06  -1.6160988e-05   2.2949545e-04   5.8935715e-05   7.8167148e-05   1.0927111e-04   1.0693702e-04   4.7110258e-05   8.4137311e-05  -1.0254726e-05   6.3714666e-05   3.2421003e-06   5.0687537e-05   1.8118581e-04  -4.9824962e-06   1.3422403e-04   3.2459645e-04   1.4195326e-04   4.8098744e-05   5.6010427e-05  -4.8304828e-05  -3.3070573e-05   5.1387920e-05   3.5537159e-05   1.2075781e-04   5.5515058e-05   2.7229375e-04   1.1238092e-04   1.3792867e-04   3.6218189e-05   4.4536768e-04   3.6113910e-04   1.1162926e-04   2.9966090e-04   9.8020741e-05   8.3186082e-05   1.9666471e-04   4.9480605e-06   1.9909699e-04   1.9408764e-04   3.9417460e-04   7.7757482e-05  -4.6441335e-05   2.6504920e-04   8.8675872e-05  -6.7034860e-05  -3.8259768e-05   1.3741405e-03   1.2375299e-04   7.9195277e-04
  -1.0644296e-04  -2.4410660e-05   2.2142507e-04   2.1651347e-05   4.1200499e-05   7.5626194e-05   6.7588560e-05   2.4783562e-04   7.2358926e-05  -3.5455352e-05   2.4103856e-05  -1.6803844e-04   5.1902683e-05   3.0670906e-04   2.1454561e-04   1.6576024e-04   4.5140478e-04   1.3980980e-04   1.3847856e-04   2.9756218e-05  -6.9113594e-05  -1.6129496e-04  -7.3423500e-05   3.6283058e-05   2.8715556e-04  -2.7455761e-05   5.1234302e-04   1.4097425e-04  -6.0430284e-05   4.2862288e-05   6.1736268e-04   4.1799041e-04   7.7222845e-05   3.2419624e-04   8.7486718e-05   1.2448587e-04   1.2495345e-04  -2.4365529e-05   1.6656987e-04   1.2119760e-04   1.0418677e-04   9.3474679e-05   5.9596816e-05   6.0634000e-05   6.7202011e-05   8.1128113e-05   5.4980948e-05  -1.5319680e-04  -5.5055961e-04  -1.0023505e-03
  -2.9164369e-04  -4.6257293e-05   2.1114967e-04   2.0762967e-05   1.9557108e-06   9.0000984e-05   4.4189892e-05  -9.6854928e-05  -2.6079755e-05  -5.2467713e-05  -2.3392789e-05  -2.0827606e-04   5.1556057e-05   2.7703642e-04   1.0575031e-04   1.8277582e-04   4.5272504e-04   1.7120225e-04   2.1645089e-04   2.1987033e-05  -8.6345848e-05  -1.4092731e-04  -4.2025382e-05   3.6514804e-05   3.0265178e-04   1.6735357e-05   4.4882789e-04   2.0467321e-04  -1.9118014e-04   3.3889930e-05   6.4658705e-04   4.4611236e-04   7.5777374e-05   4.5007444e-04   8.5662832e-05   1.4676573e-04   1.8896771e-04  -3.8524554e-06   1.7708870e-04   3.8216149e-05   1.1185387e-04   4.3532487e-05  -9.6074124e-05   1.0398404e-03   8.6647211e-05   2.0377808e-04   1.2387644e-05  -3.4164250e-04   1.9549609e-04   5.3313904e-04
