   1.5610700e-03   5.2169076e-04   1.2702994e-03   7.9891138e-04   9.9654438e-04   7.5761462e-04   6.7861017e-04   6.1958004e-04   2.1013196e-03   4.9004942e-04   4.8789306e-04   1.0914260e-04   7.6870981e-04   5.0563930e-04   1.7058977e-05   2.9134267e-04   3.1472844e-04   9.5513038e-04   7.0878922e-04   3.8921132e-04   4.6807819e-04  -9.3812050e-05   6.5532810e-04   3.1552670e-04  -7.7371765e-04  -3.6857690e-04   8.1606436e-04  -4.2323474e-04   1.2285641e-03  -1.0099954e-03   3.5974383e-04   1.4736145e-03   6.3174381e-04   3.9868326e-05  -1.2027757e-04  -7.2181504e-04  -3.9101575e-04   1.2797859e-03  -7.3111750e-04   2.5961048e-04  -1.2499667e-03  -1.2260263e-03  -5.5747206e-04  -9.1009162e-04  -4.4895508e-04  -6.7120808e-04  -9.4957132e-04   5.5986184e-05  -9.0129254e-04  -9.9892751e-04
   1.5617185e-03   5.6233996e-04   1.2619168e-03   8.2561641e-04   1.0671020e-03   8.3222653e-04   7.8751415e-04   6.9955888e-04   2.1378212e-03   6.8265671e-04   5.7741423e-04   2.7549561e-04   8.8688789e-04   4.8239352e-04  -5.2182771e-05   3.3719008e-04   3.1526783e-04   9.8189549e-04   7.0223463e-04   4.6034649e-04   4.9210724e-04  -1.0348865e-04   8.3235191e-04   2.9675817e-04  -6.5932766e-04  -1.4119883e-04   9.8318222e-04  -4.7787189e-04   1.1319204e-03  -8.9835550e-04   4.4104722e-04   1.5453786e-03   6.8963139e-04   1.6001686e-04   5.0597420e-05  -4.4433013e-04  -3.5780216e-05   1.3115014e-03  -5.6442647e-04   3.4650121e-04  -7.1770296e-04  -1.0484543e-03  -9.3906582e-04  -2.1626262e-04  -3.8884205e-04  -4.0794141e-04  -8.2968833e-04  -3.2612414e-04  -1.2263597e-03  -1.7693196e-03
   1.5239913e-03   5.5411371e-04   1.2336998e-03   8.6722994e-04   1.0496174e-03   7.9930475e-04   7.9983921e-04   6.9434138e-04   1.9684217e-03   5.1105983e-04   4.8206860e-04   8.6875225e-05   8.2136312e-04   5.8241142e-04  -1.1114067e-05   2.7553661e-04   3.9339595e-04   9.7794074e-04   6.1406026e-04   4.1604231e-04   4.6698182e-04  -2.0012667e-04   6.8771630e-04   2.5448733e-04  -6.1092689e-04  -2.0369315e-04   8.9967175e-04  -4.1780053e-04   1.3716433e-03  -8.7585661e-04   4.7820728e-04   1.5125306e-03   3.0549316e-04   1.0225288e-04  -5.7844922e-05  -5.7257386e-04  -3.3432213e-04   1.3850579e-03  -6.0588494e-04   2.0267248e-04  -8.9508703e-04  -1.1352464e-03  -5.1087525e-04  -4.3975786e-04  -5.1405031e-04  -2.6556649e-04  -8.3466090e-04  -7.5412786e-04  -6.1475730e-04  -1.5412674e-03
   1.4223073e-03   4.6736593e-04   1.1931594e-03   8.4052840e-04   9.9810085e-04   8.2874921e-04   7.5000356e-04   8.1657746e-04   2.0803728e-03   6.4454740e-04   5.1890017e-04   2.3241068e-04   8.8651106e-04   5.4519990e-04   5.3804019e-05   3.6031468e-04   3.2427561e-04   1.0187544e-03   7.3130877e-04   4.4880065e-04   4.9241778e-04  -1.2367342e-04   7.1630516e-04   3.3262814e-04  -6.7139172e-04  -1.2541701e-04   8.3903497e-04  -4.0847680e-04   1.2647893e-03  -8.8605739e-04   4.1262613e-04   1.5406482e-03   8.0303458e-04   1.8303537e-04   2.4532899e-05  -5.4010603e-04  -9.9722354e-05   1.4359381e-03  -6.3893257e-04   4.3208411e-04  -9.8521309e-04  -9.5213531e-04  -7.1901572e-04  -2.2521566e-04  -3.1046412e-04  -2.6800061e-04  -8.9153368e-04  -1.3484233e-03  -8.1452366e-04  -1.0560761e-03
   1.5398994e-03   6.1434007e-04   1.1846997e-03   9.1061316e-04   1.0858874e-03   8.1627665e-04   8.1797095e-04   1.0639745e-03   2.1126221e-03   6.3885300e-04   4.8480227e-04   2.2575188e-04   9.2940492e-04   4.8824982e-04  -3.8697861e-05   3.1526454e-04   3.0593088e-04   1.0013419e-03   7.4546091e-04   4.4993885e-04   5.2621128e-04  -1.0203459e-04   6.1844621e-04   3.4330116e-04  -6.8050309e-04  -2.6362448e-04   8.2181836e-04  -3.9290171e-04   1.2355146e-03  -8.8999531e-04   3.3713557e-04   1.4760994e-03   7.6314947e-04   4.9944887e-05  -3.5677695e-05  -6.2695303e-04  -2.6666938e-04   1.3733121e-03  -7.2142127e-04   2.9154075e-04  -9.9051511e-04  -1.1348864e-03  -1.3611682e-03  -2.5537383e-04  -4.5427177e-04  -5.9049844e-04  -1.0443924e-03  -3.3426657e-04  -1.2458240e-03  -9.8333869e-04
   1.5529261e-03   4.8863492e-04   1.1125156e-03   8.5052452e-04   9.6375059e-04   7.8567420e-04   6.8860152e-04   7.4615516e-04   1.7170227e-03   4.0318788e-04   2.5345580e-04   3.3045115e-05   8.0064975e-04   3.7551837e-04  -6.5275490e-05   3.2858385e-04   2.2434331e-04   9.7820454e-04   4.2312650e-04   3.0041259e-04   4.8285793e-04  -1.9842378e-04   5.3967460e-04   2.2547862e-04  -7.2806567e-04  -4.5365834e-04   9.4710366e-04  -4.0253552e-04   1.3390201e-03  -9.3861565e-04   2.1677894e-04   1.4834469e-03   5.0233671e-04  -3.2294287e-05  -5.7436318e-05  -6.4985990e-04   2.7502079e-05   1.3933080e-03  -6.7549408e-04   2.6028874e-04  -1.2284116e-03  -1.0011673e-03  -1.3386221e-03  -9.0008043e-04  -3.0550352e-04  -5.8091583e-04  -1.0013696e-03  -1.1067801e-03  -7.8331737e-04  -1.2999111e-03
   1.6560748e-03   6.6256087e-04   1.1632834e-03   9.4305148e-04   1.1025767e-03   9.0085488e-04   8.9121558e-04   7.7747414e-04   1.9914238e-03   7.8448083e-04   4.7507271e-04   3.4427797e-04   1.0204655e-03   3.0721430e-04  -1.3817723e-04   3.9291216e-04   1.8557123e-04   9.6447533e-04   7.4605411e-04   4.2418393e-04   5.5944728e-04  -7.8247482e-05   6.6833885e-04   3.2004478e-04  -7.1170880e-04  -2.6889928e-04   8.5376319e-04  -4.5980135e-04   1.5024844e-03  -9.2803239e-04   9.2552058e-05   1.4500661e-03   6.6575204e-04   2.2666400e-05  -1.9066474e-06  -6.8623555e-04  -3.5176336e-04   1.4006670e-03  -7.2366616e-04   3.4334889e-04  -1.1975821e-03  -1.0258902e-03  -9.7787671e-04  -1.4406990e-04  -3.1003225e-04  -4.2310724e-04  -1.0178405e-03  -1.1101781e-03  -1.1343185e-03  -1.2876275e-03
   1.5137993e-03   5.8055401e-04   1.0230888e-03   8.7784551e-04   1.0776479e-03   7.9291756e-04   7.3440094e-04   8.7925483e-04   1.8136748e-03   6.0280506e-04   2.6733839e-04   1.7939055e-04   9.6494815e-04   2.1289132e-04  -7.2543786e-05   3.7633549e-04   6.1984967e-05   9.4433769e-04   4.1433400e-04   2.7626031e-04   5.3276093e-04  -1.4599398e-04   6.5607508e-04   2.7354676e-04  -9.3875470e-04  -4.4045292e-04   8.4407564e-04  -4.7175735e-04   1.4261247e-03  -9.8635815e-04  -7.4873751e-05   1.3897696e-03   3.8606185e-04  -5.3572890e-05  -7.4577554e-05  -8.8930741e-04  -3.2723180e-04   1.3537536e-03  -8.8155241e-04   2.4136604e-04  -1.3326086e-03  -1.2684793e-03  -1.1884124e-03   2.1653289e-04  -4.5225499e-04  -9.6236920e-04  -1.3043702e-03  -1.4906665e-03  -1.0190812e-03  -1.2288315e-03
   1.4658285e-03   4.6288533e-04   9.8573719e-04   7.6656078e-04   1.0060981e-03   8.0522214e-04   7.0703781e-04   4.4401313e-04   1.8161619e-03   6.8018818e-04   3.1028094e-04   1.1634184e-04   8.8917243e-04   2.6236504e-04  -1.8490286e-04   3.5752536e-04   1.7573677e-04   9.1728626e-04   5.6540739e-04   1.9761227e-04   4.8116792e-04  -1.6229390e-04   6.1178108e-04   1.3884268e-04  -8.1175275e-04  -3.9464809e-04   9.2286454e-04  -4.4221574e-04   1.3131343e-03  -9.3063677e-04   7.3709089e-06   1.4155906e-03   4.1950130e-04  -2.8721162e-05  -8.6724183e-05  -7.5896550e-04  -2.6377814e-04   1.3050507e-03  -7.4717222e-04   3.3418159e-04  -1.1171096e-03  -9.5668586e-04  -1.2043124e-03  -5.7700463e-04  -4.0038017e-04  -8.9264021e-04  -1.1011589e-03  -8.7222317e-04  -9.5760496e-04  -1.0476934e-03
   1.5315437e-03   5.7044462e-04   9.8680949e-04   8.0208736e-04   9.9009217e-04   8.7274774e-04   8.0964767e-04   5.6009431e-04   1.7104020e-03   6.5800175e-04   3.0240699e-04   1.0849230e-05   8.7366282e-04   3.0227139e-04  -1.4706636e-04   4.3118562e-04   1.9306572e-04   8.6849945e-04   4.6604720e-04   1.5815128e-04   4.8389903e-04  -2.3901889e-04   5.3857081e-04   9.6108590e-05  -7.0297153e-04  -4.8708572e-04   7.7745545e-04  -4.5019330e-04   1.4356881e-03  -9.6570648e-04   1.0289640e-04   1.2860255e-03   2.3465412e-04  -8.8091307e-05  -2.0483768e-04  -7.5517711e-04  -2.0741574e-04   1.2596473e-03  -8.2421175e-04   1.1354189e-04  -9.8563463e-04  -1.1206167e-03  -6.7303813e-04  -3.5495657e-04  -5.0184072e-04  -1.1440694e-03  -1.2805051e-03  -1.2112663e-03  -1.4940372e-03  -1.9269796e-03
   1.4072787e-03   4.0925285e-04   8.9184905e-04   6.8597397e-04   8.7723049e-04   6.5923424e-04   6.6199875e-04   7.7036337e-04   1.3957907e-03   3.9963581e-04   4.5579407e-05  -2.6275491e-04   7.1382569e-04   2.4901034e-04  -2.4113503e-04   2.1049593e-04   1.4918123e-04   8.1902504e-04   2.8694558e-04  -6.1316336e-05   3.7819514e-04  -3.3124106e-04   4.2195930e-04  -6.3058833e-05  -9.0946973e-04  -7.0817233e-04   9.5211505e-04  -4.5958825e-04   1.2995085e-03  -1.0888157e-03   2.5444235e-05   1.2201280e-03   3.1094076e-04  -3.0197529e-04  -2.7626933e-04  -8.6233503e-04  -4.1960244e-04   1.1933289e-03  -8.5456995e-04   3.4739773e-05  -1.1022947e-03  -1.1658134e-03  -9.9819584e-04  -6.8905973e-04  -5.5065320e-04  -7.9167384e-04  -1.2335767e-03  -1.3783415e-03  -1.8332944e-03  -2.5445302e-03
   1.3969105e-03   4.8471524e-04   8.2420744e-04   6.9586281e-04   9.0865511e-04   7.1968319e-04   7.9606456e-04   8.2489679e-04   1.7755147e-03   6.9931586e-04   2.4930129e-04  -3.1429929e-05   7.7555014e-04   2.9445553e-04  -1.1802775e-04   2.8734514e-04   1.6605457e-04   8.3689811e-04   3.5635915e-04  -1.0686355e-05   4.1067466e-04  -2.5119778e-04   6.5444212e-04   5.0746305e-05  -8.7242119e-04  -4.8915885e-04   8.7943225e-04  -4.6940541e-04   1.1298077e-03  -9.6576824e-04   2.6155863e-05   1.2416573e-03   4.1081867e-04  -1.8116331e-04  -2.5101623e-04  -8.1126665e-04  -3.1243206e-04   1.0923857e-03  -7.7397691e-04   1.0876284e-04  -1.1297645e-03  -1.0401295e-03  -9.5787860e-04  -6.7996257e-04  -5.9002056e-04  -9.1730757e-04  -1.2305527e-03  -1.0292209e-03  -1.7264519e-03  -1.2063149e-03
   1.3870570e-03   4.3696526e-04   8.2784932e-04   6.7810895e-04   8.3382073e-04   6.8565313e-04   6.7748100e-04   7.0091774e-04   1.4312532e-03   5.7484978e-04   9.3105402e-05  -1.3069852e-04   6.9951214e-04   2.3862375e-04  -2.0330520e-04   1.6200871e-04   1.0094610e-04   7.5882691e-04   2.2427061e-04  -1.0787901e-04   3.7237693e-04  -3.8970073e-04   4.5760011e-04  -3.2064258e-05  -8.5654488e-04  -5.9693283e-04   8.1428664e-04  -5.4241589e-04   1.1263147e-03  -1.0255596e-03   9.7145050e-05   1.2022277e-03   3.0226613e-04  -2.3617659e-04  -2.5827956e-04  -8.7163807e-04  -4.9875956e-04   1.0495986e-03  -8.3482143e-04   3.0810450e-05  -1.0673843e-03  -1.1723462e-03  -9.0401119e-04  -1.2418008e-03  -6.8973441e-04  -1.1021065e-03  -1.3770895e-03  -1.6270286e-03  -1.3939798e-03  -2.1696861e-03
   1.1165410e-03   2.5046099e-04   6.6415168e-04   5.2111794e-04   6.9979811e-04   5.5261538e-04   5.0042558e-04   4.7488161e-04   1.2087582e-03   3.4453959e-04  -1.1182155e-04  -4.1304051e-04   5.1274616e-04   1.6375059e-04  -3.3720135e-04   1.0245445e-04   8.0819715e-05   7.5572432e-04   2.4990077e-04  -2.0771771e-04   3.1226507e-04  -3.8720045e-04   4.3332402e-04  -8.7373854e-05  -8.8595401e-04  -6.9965888e-04   6.6723232e-04  -4.9866422e-04   1.1670535e-03  -1.0582925e-03   7.8909659e-05   1.2175195e-03   4.2983526e-04  -1.9546594e-04  -3.3436576e-04  -8.5481297e-04  -1.6241334e-04   1.0565218e-03  -7.9491333e-04  -5.0300107e-05  -8.7429525e-04  -9.3601405e-04  -4.5092756e-04   1.2843724e-04  -5.6429062e-04  -7.5269875e-04  -1.2410883e-03  -1.5999576e-04  -1.7351380e-03  -1.2192812e-03
   1.3073538e-03   4.4165712e-04   7.1912352e-04   6.3190330e-04   8.0688641e-04   6.4883183e-04   6.5735314e-04   4.9886410e-04   1.4114956e-03   6.5353635e-04   7.9183948e-05  -8.6268308e-05   6.3936063e-04   9.8290075e-05  -1.4209398e-04   9.5554409e-05  -2.6950187e-05   7.9378579e-04   2.0004131e-04  -1.5577678e-04   3.7066944e-04  -3.2765657e-04   3.8923902e-04   3.3158685e-05  -9.5618871e-04  -7.7537110e-04   6.8041845e-04  -5.5749022e-04   1.1311191e-03  -1.0645683e-03  -8.3888197e-05   1.1715438e-03   1.7181503e-04  -3.5913801e-04  -3.4100789e-04  -9.1922883e-04  -3.8090948e-04   1.0204101e-03  -8.7306887e-04  -1.1478372e-04  -1.3066987e-03  -1.1014318e-03  -1.2405155e-03  -5.6582585e-04  -4.8426975e-04  -1.1742383e-03  -1.3834875e-03  -1.8502615e-03  -1.1088424e-03  -1.4571993e-03
   1.1693635e-03   3.5363922e-04   6.3037261e-04   5.7890941e-04   7.4062840e-04   5.8990542e-04   5.4262241e-04   2.1252465e-04   1.1951880e-03   4.5938062e-04  -1.3069159e-04  -2.5189115e-04   5.3614186e-04   4.8500489e-05  -3.5824615e-04   6.7034875e-05  -7.4180447e-05   7.5784349e-04   7.3230185e-05  -3.0746762e-04   3.2005372e-04  -4.0789909e-04   2.9736161e-04  -1.1565870e-04  -9.5860765e-04  -9.1235264e-04   6.9896062e-04  -5.4522313e-04   1.1398774e-03  -1.1524010e-03  -6.9085436e-05   1.1805160e-03   5.0009163e-05  -3.8432211e-04  -4.3928783e-04  -9.9794473e-04  -3.6290471e-04   9.4297901e-04  -8.5921586e-04  -8.2284889e-05  -1.1071899e-03  -1.1068451e-03  -1.0076796e-03  -6.3051685e-04  -5.9302477e-04  -8.9178578e-04  -1.3443015e-03  -2.1092023e-03  -1.5449576e-03  -2.1595471e-03
   1.2544377e-03   4.2878027e-04   7.0060452e-04   5.7994050e-04   8.0093136e-04   6.5415702e-04   6.1178813e-04   2.7104479e-04   1.4604141e-03   7.0208492e-04   9.0624693e-05  -1.4903613e-04   5.8564648e-04   1.3939098e-04  -2.5247919e-04   9.6512747e-05  -4.1579659e-07   7.7792216e-04   3.1872161e-04  -2.3973078e-04   3.8994051e-04  -3.2485215e-04   3.2728253e-04  -1.1222172e-04  -7.8209781e-04  -7.6626509e-04   7.4246421e-04  -5.1809131e-04   1.0254115e-03  -1.1219038e-03   2.2757386e-05   1.1875865e-03   9.0583133e-05  -2.9104447e-04  -3.5436157e-04  -8.6922490e-04  -4.4095321e-04   9.2682033e-04  -8.9694525e-04  -1.9170115e-04  -1.3195676e-03  -1.0442104e-03  -1.3041960e-03  -8.6942292e-04  -5.8373919e-04  -1.0431928e-03  -1.3491452e-03  -1.1826536e-03  -1.7366414e-03  -1.9341776e-03
   1.1037129e-03   3.7705296e-04   6.6108379e-04   5.6038675e-04   7.3333835e-04   5.1214930e-04   4.9780490e-04   2.8150092e-04   1.1994734e-03   5.7033374e-04  -6.7424000e-05  -1.5574099e-04   5.4471870e-04   4.7909834e-05  -2.6395192e-04   5.7505709e-05  -6.6834575e-05   7.8986015e-04   1.4220651e-04  -2.7841260e-04   3.9743769e-04  -3.3625550e-04   3.4485062e-04  -6.8169247e-05  -7.8619982e-04  -7.9833128e-04   6.8622263e-04  -5.2151002e-04   1.0411500e-03  -1.1839294e-03  -1.5751200e-04   1.1520842e-03   2.1295784e-05  -3.5774137e-04  -4.8148021e-04  -1.1232642e-03  -5.2463298e-04   8.9433498e-04  -9.5082453e-04  -2.0586632e-04  -1.3071150e-03  -1.2417622e-03  -1.4658872e-03  -1.1715718e-03  -7.2798284e-04  -1.3070684e-03  -1.5426218e-03  -1.4355743e-03  -1.9598922e-03  -2.1043206e-03
   1.0991929e-03   3.3566446e-04   6.2513264e-04   5.0886651e-04   7.3381880e-04   5.8261398e-04   5.2047940e-04   1.3779706e-04   1.3475303e-03   6.8941445e-04   1.0562007e-05  -1.5816081e-04   5.4188812e-04   6.7658307e-06  -2.4799653e-04   6.7316621e-05  -3.1925229e-05   7.7806419e-04   2.3513829e-04  -2.6211154e-04   4.0820500e-04  -2.7574477e-04   3.6425845e-04  -1.2099679e-04  -8.4851048e-04  -6.9456111e-04   9.6277427e-04  -5.2519195e-04   1.0105664e-03  -1.1523456e-03  -5.4888267e-05   1.1724220e-03   1.5737599e-04  -3.1353367e-04  -4.2398862e-04  -9.7480958e-04  -3.8644846e-04   9.3798159e-04  -9.1121887e-04  -8.0392187e-05  -1.1558761e-03  -1.0663214e-03  -1.4890810e-03  -1.0361304e-03  -5.1935669e-04  -9.1058656e-04  -1.3968328e-03  -1.6586917e-03  -2.2687120e-03  -2.4446093e-03
   1.3236540e-03   4.0311160e-04   7.3674781e-04   5.3845905e-04   7.5902377e-04   5.3981273e-04   5.4021517e-04   1.5286906e-04   1.1772738e-03   6.6706858e-04  -9.3526942e-06  -1.5462191e-04   5.3036259e-04   5.6887300e-05  -2.0513215e-04   5.6757715e-05  -4.3209890e-05   7.8293349e-04   1.6589300e-04  -2.6315989e-04   4.3356069e-04  -2.7719117e-04   3.3607672e-04  -1.9219384e-04  -7.7957066e-04  -8.0576207e-04   7.2763121e-04  -5.3212314e-04   1.0610980e-03  -1.1753193e-03  -5.7896385e-05   1.1177053e-03   4.8234688e-05  -3.8840162e-04  -4.7288035e-04  -1.0316023e-03  -6.0761452e-04   9.2930865e-04  -9.5581712e-04  -1.7918734e-04  -1.3180029e-03  -1.1590350e-03  -1.0098034e-03  -3.6339625e-04  -6.6059409e-04  -1.1167692e-03  -1.3827538e-03  -1.9196250e-03  -1.2591649e-03  -2.0700735e-03
   1.1170442e-03   2.7996159e-04   6.4976397e-04   4.5747662e-04   6.5152231e-04   4.2484613e-04   3.4600997e-04   4.3521536e-04   9.7266666e-04   4.1983137e-04  -2.1442960e-04  -3.2638715e-04   4.4634109e-04   2.2044282e-05  -3.2798896e-04  -1.5672305e-05  -1.0344959e-04   7.6216809e-04   1.3354969e-07  -3.5849379e-04   4.0290711e-04  -3.1357867e-04   2.8530991e-04  -1.4436187e-04  -7.9218432e-04  -8.6877769e-04   6.0163654e-04  -4.9913395e-04   1.0314881e-03  -1.1043361e-03  -8.3473424e-05   1.0890185e-03   7.3239920e-05  -3.4668276e-04  -4.6532767e-04  -1.1606175e-03  -4.3531877e-04   9.4907288e-04  -8.4891467e-04  -1.3230080e-04  -1.5228727e-03  -1.0716913e-03  -1.0624232e-03   3.7536400e-05  -5.1051535e-04  -9.4633602e-04  -1.2393252e-03  -8.6792425e-04  -1.5577020e-03  -1.9379840e-03
   1.2708639e-03   4.2970254e-04   7.3586532e-04   5.6395394e-04   7.5189379e-04   4.8853370e-04   4.6228842e-04   2.3060318e-05   1.3369671e-03   7.5202488e-04   6.7397959e-05  -7.5966076e-05   5.9764890e-04   5.1311730e-05  -2.9297831e-04   5.9576469e-06  -6.2752246e-05   7.5567566e-04   7.1408605e-05  -2.4788355e-04   4.6133142e-04  -1.4961303e-04   5.1304221e-04  -6.6743552e-05  -7.8851008e-04  -7.3933479e-04   6.7251513e-04  -5.4620457e-04   8.6973462e-04  -1.0877267e-03  -1.2669925e-04   1.1035900e-03   2.2151197e-04  -2.8915002e-04  -4.1723801e-04  -9.1171538e-04  -5.0906319e-04   9.6271280e-04  -8.3806022e-04  -5.0566839e-05  -1.2748917e-03  -1.0918716e-03  -8.0245506e-04  -7.5885048e-04  -6.0138700e-04  -8.4553001e-04  -1.2674928e-03  -2.2572309e-03  -1.0077797e-03  -1.7729818e-03
   1.1442073e-03   3.2993566e-04   7.2693476e-04   4.7803344e-04   6.7981269e-04   4.3493367e-04   3.8727897e-04   3.4846010e-04   1.0238462e-03   5.2011741e-04  -7.2761926e-05  -3.5071818e-04   5.4614746e-04   9.8157972e-05  -2.3063204e-04  -2.0261954e-05  -2.0934027e-05   7.0640433e-04   8.2466751e-05  -3.4325063e-04   4.0617690e-04  -3.1240177e-04   3.4008833e-04  -1.3191720e-04  -8.0456317e-04  -7.9135603e-04   7.4114517e-04  -5.2308914e-04   1.1324844e-03  -1.1897900e-03  -9.1451053e-05   1.0009757e-03  -1.2496093e-04  -3.9023653e-04  -5.7813077e-04  -1.1150597e-03  -6.2113127e-04   7.9740852e-04  -9.1781368e-04  -1.8847667e-04  -1.0466658e-03  -1.1418037e-03  -9.3306962e-04  -2.5127377e-04  -6.4748368e-04  -7.6845067e-04  -1.2343709e-03  -8.0485019e-04  -1.0741287e-03  -2.4549123e-03
   1.0903850e-03   3.6485889e-04   7.7447196e-04   4.8885157e-04   7.0399733e-04   4.7033330e-04   4.8941694e-04   8.0828802e-05   1.2699600e-03   7.2274986e-04   8.6347689e-05  -2.1821119e-04   5.9719768e-04   2.0176348e-04  -6.1340448e-05   3.8358405e-05   7.7835401e-05   6.9167686e-04   2.0321898e-04  -2.8630052e-04   4.3381154e-04  -2.1366608e-04   4.5528050e-04  -5.5162625e-05  -7.8764238e-04  -6.5588398e-04   7.4803020e-04  -5.3283304e-04   9.9018798e-04  -1.0381539e-03   8.7055101e-05   1.1276779e-03   5.4260858e-05  -3.0339198e-04  -4.4535333e-04  -9.9734159e-04  -3.6045260e-04   8.9892931e-04  -8.6733303e-04  -1.1993227e-05  -7.9039129e-04  -9.2788885e-04  -7.6339621e-04  -1.0112360e-03  -5.5439037e-04  -1.1588830e-03  -9.9841366e-04  -1.1786199e-03  -1.0545553e-03  -1.2896578e-03
   1.1423355e-03   3.6795318e-04   7.8585779e-04   5.1416730e-04   6.5515394e-04   4.2540717e-04   3.8209974e-04   3.3788764e-04   1.1390527e-03   6.2880799e-04   3.8838403e-05  -2.7273633e-04   5.8378209e-04   2.3677992e-04  -2.2546234e-04   3.4518329e-05   4.3048800e-05   6.7780021e-04   1.1930352e-04  -2.6970275e-04   4.2854226e-04  -2.2963104e-04   3.9197234e-04  -1.7499522e-04  -7.3678326e-04  -6.5276941e-04   7.3519774e-04  -5.2548264e-04   9.8088721e-04  -1.0594204e-03   2.2188308e-04   1.1451687e-03   1.2899890e-04  -3.0647867e-04  -4.8967224e-04  -9.4505789e-04  -4.4682017e-04   8.4462570e-04  -8.8865316e-04  -2.1361349e-04  -1.0694426e-03  -9.6873572e-04  -1.0072239e-03  -1.2229230e-03  -6.5309420e-04  -8.5015956e-04  -1.1943799e-03  -1.3938178e-03  -1.5435198e-03  -1.7528462e-03
   1.0678069e-03   2.5514743e-04   7.2399137e-04   4.7048772e-04   5.5099162e-04   3.3566795e-04   2.3973205e-04   2.5354925e-04   1.1380578e-03   5.6095602e-04  -3.9718791e-05  -2.5368531e-04   5.5323564e-04   1.2221183e-04  -2.4063200e-04  -4.7748039e-05   1.2007254e-05   6.9181877e-04   9.1650618e-05  -2.4091596e-04   4.4800644e-04  -1.8295139e-04   4.0191377e-04   2.6254362e-05  -7.0144568e-04  -6.0090190e-04   6.1264052e-04  -5.2799162e-04   1.0948521e-03  -1.0448629e-03   7.0669812e-05   1.1662279e-03   2.9089977e-04  -3.0690024e-04  -3.4750364e-04  -9.8125089e-04  -3.7954914e-04   9.4762084e-04  -7.9537474e-04  -1.6999804e-05  -1.0768877e-03  -7.9476286e-04  -3.1260101e-04  -4.3387548e-04  -4.9635646e-04  -5.9456128e-04  -1.0801030e-03  -7.8799872e-04  -1.4652617e-03  -4.3979890e-04
   1.2199887e-03   4.5478521e-04   8.1248611e-04   6.0655241e-04   7.4579538e-04   4.3553545e-04   4.1080595e-04   4.3539552e-04   1.2384412e-03   7.5809308e-04   9.3278744e-05   4.1413525e-05   7.2114164e-04   1.7885627e-04  -1.8588644e-04   3.4792720e-06   5.0281426e-05   8.2399271e-04   1.2665101e-04  -1.4173430e-04   5.2859174e-04  -1.6393625e-04   5.3103914e-04   1.4092222e-04  -5.0073123e-04  -5.2361796e-04   6.7724078e-04  -4.3322128e-04   1.1930526e-03  -1.0499838e-03   1.9411715e-04   1.2234170e-03   2.4496971e-04  -2.2665619e-04  -3.0667137e-04  -9.1729360e-04  -6.7712273e-04   1.0345445e-03  -8.5691141e-04  -1.7693020e-04  -1.2898484e-03  -9.6243655e-04  -1.0527986e-03  -8.8052364e-04  -5.9386517e-04  -1.2958972e-03  -1.2296319e-03  -1.3283865e-03  -1.1485415e-03  -2.2271895e-03
   1.1374488e-03   3.4694513e-04   7.8733452e-04   5.3263048e-04   6.1855355e-04   3.2936549e-04   3.2492532e-04   1.6495599e-04   8.0172985e-04   4.8373331e-04  -1.5816395e-04  -2.9085463e-04   6.1409728e-04   3.4211727e-04  -1.8367363e-04   3.6063057e-06   1.8729051e-04   8.1748178e-04   1.6308909e-04  -3.0367405e-04   4.5909968e-04  -1.9908337e-04   3.9989987e-04  -1.4861497e-04  -2.9325957e-04  -6.5744028e-04   9.8749984e-04  -3.4890699e-04   1.2259333e-03  -1.1162205e-03   2.9292729e-04   1.3312014e-03   1.9585541e-04  -2.5857645e-04  -3.2876362e-04  -8.8095816e-04  -4.5678060e-04   1.0670212e-03  -8.8909472e-04  -1.7107261e-04  -1.2053747e-03  -9.3766622e-04  -1.3954875e-03  -7.8643282e-04  -4.7109285e-04  -8.7595044e-04  -1.2678392e-03  -1.8961625e-03  -1.5183550e-03  -2.6567362e-03
   1.3040605e-03   4.2441976e-04   8.7482308e-04   5.7675358e-04   6.2642724e-04   4.8203970e-04   3.9528467e-04   9.9236669e-05   1.0991998e-03   7.8634988e-04   7.3736708e-05  -2.9316993e-04   7.4246142e-04   7.3694665e-04   5.3369367e-05   1.4252518e-04   6.2107045e-04   9.9426182e-04   5.4612050e-05  -2.3707564e-04   4.4476421e-04  -2.8878465e-04   4.6787385e-04  -2.7320519e-04   4.7998739e-04  -5.1653682e-04   1.4269629e-03  -1.4514143e-04   1.3668290e-03  -1.1225205e-03   6.1246072e-04   1.4376253e-03   4.3697443e-04  -1.2234660e-04  -8.3112514e-05  -9.8096766e-04  -6.7707401e-04   1.0588572e-03  -8.5903791e-04  -1.3241930e-04  -1.0958830e-03  -1.1571484e-03  -5.2944612e-04  -7.9572864e-04  -5.5033242e-04  -1.0633111e-03  -1.3244112e-03  -1.6498032e-03  -1.7641952e-03  -1.5376019e-03
   9.2816545e-04   2.1498323e-04   7.4238575e-04   3.8572043e-04   4.8565867e-04   2.8941798e-04   3.0715286e-04   1.5962867e-04   7.3186326e-04   5.8893219e-04  -4.6158952e-05  -7.3136680e-04   6.2564190e-04   1.0062018e-03   2.9777797e-04   1.2288534e-04   9.7246264e-04   1.1478817e-03   9.6186915e-05  -3.4522224e-04   2.9094421e-04  -4.3104813e-04   1.7949243e-04  -6.9367548e-04   1.1052439e-03  -5.8583816e-04   1.9223192e-03   8.3253457e-05   1.6203553e-03  -1.2420777e-03   1.0626726e-03   1.6975979e-03   4.7943712e-04  -9.1463975e-05  -1.2410525e-04  -1.2247838e-03  -7.2400522e-04   1.2068566e-03  -1.0697606e-03  -1.9103529e-04  -1.3827073e-03  -1.2725712e-03  -1.2783381e-03  -1.1738350e-03  -6.1687588e-04  -9.9246926e-04  -1.5401294e-03  -9.0481067e-04  -1.5588459e-03  -2.0736272e-03
   8.3093840e-04   1.9619644e-04   6.7964551e-04   3.4614292e-04   4.6327279e-04   3.3855610e-04   2.8849053e-04   1.1262345e-04   9.9240616e-04   1.0387256e-03   1.8434989e-04  -8.0255367e-04   7.3338544e-04   1.3207013e-03   6.8263878e-04   2.7466187e-04   1.3804830e-03   1.5494437e-03   1.9292250e-04  -2.0921881e-04   2.3867218e-04  -4.7580755e-04   1.6647200e-04  -7.3299190e-04   1.8554891e-03  -5.3252344e-04   2.6576826e-03   5.3302036e-04   2.1467770e-03  -1.2617579e-03   1.4354734e-03   2.0274804e-03   6.3132728e-04   1.1847928e-04   2.0334177e-05  -1.3320220e-03  -8.9774549e-04   1.1942930e-03  -1.0453429e-03  -3.2822505e-04  -1.4004859e-03  -1.5791510e-03  -8.8814110e-04  -8.0538454e-04  -6.7344616e-04  -1.0044575e-03  -1.8557365e-03  -1.3939476e-03  -1.6120233e-03  -1.2435759e-03
   7.3679839e-04   2.9619174e-05   5.4081768e-04   2.1041400e-04   3.0846856e-04   2.6314074e-04   1.5291604e-04   4.0094156e-04   6.3214137e-04   8.7587640e-04   7.9533333e-05  -1.1519262e-03   6.7325548e-04   1.6401540e-03   8.6275768e-04   3.1166972e-04   1.6110991e-03   1.6809567e-03   8.5069471e-05  -2.1998560e-04   2.9861851e-05  -6.6958199e-04   3.0973286e-05  -1.0179880e-03   2.3610613e-03  -4.5870390e-04   2.8353531e-03   6.8182475e-04   2.3049260e-03  -1.3206849e-03   1.6368027e-03   2.0496238e-03   3.2794310e-04   1.3187417e-05  -9.0018388e-05  -1.3966222e-03  -7.8433350e-04   1.2473124e-03  -1.1388866e-03  -3.8419204e-04  -1.4575872e-03  -1.6237460e-03  -9.8397059e-04  -5.2294380e-04  -7.7754451e-04  -1.1159013e-03  -1.8188987e-03  -1.3314118e-03  -1.3212096e-03  -9.9332829e-04
   6.0501409e-04   1.2207496e-05   4.8372190e-04   1.4424666e-04   3.2321212e-04   2.3906701e-04   1.7877018e-04   2.8661039e-04   7.8063534e-04   1.0966638e-03   2.2641782e-04  -1.0539686e-03   7.2027027e-04   1.7350090e-03   1.0290511e-03   3.9673253e-04   1.6997039e-03   1.7540532e-03   2.6853182e-04  -1.4523830e-04   8.9622066e-05  -6.1578519e-04   1.4660376e-04  -1.0119751e-03   2.5390417e-03  -4.7907309e-04   2.9356061e-03   7.5212226e-04   2.4230864e-03  -1.2802626e-03   1.7232911e-03   2.0651717e-03   5.5239548e-04   1.4430229e-04  -1.3738903e-05  -1.2902458e-03  -6.4961833e-04   1.2344448e-03  -1.1304917e-03  -3.1611588e-04  -1.2368865e-03  -1.5962661e-03  -1.2018260e-03  -1.2302982e-03  -6.6450221e-04  -9.3012629e-04  -1.8692827e-03  -7.5774314e-04  -1.6154152e-03  -2.5096613e-03
   5.5620476e-04  -7.5382661e-05   4.2489037e-04   6.3622050e-05   2.6304985e-04   1.3741018e-04   1.1231017e-04   1.9520591e-04   5.4784765e-04   9.3101570e-04   1.1257871e-04  -1.1097416e-03   6.5855013e-04   1.5763445e-03   8.2466606e-04   4.2157678e-04   1.6476848e-03   1.6504753e-03   1.1471143e-04  -1.7688853e-04   7.3183483e-06  -6.7763944e-04  -4.8096339e-05  -1.0017557e-03   2.4195730e-03  -4.6182497e-04   3.0691454e-03   8.0056192e-04   2.4246690e-03  -1.3470765e-03   1.7574221e-03   2.1395567e-03   4.6743665e-04   1.4747892e-04   2.1878712e-05  -1.4294881e-03  -9.6443936e-04   1.2989331e-03  -1.2284277e-03  -5.2735448e-04  -1.5647697e-03  -1.7503548e-03  -1.6112281e-03  -1.0059802e-03  -9.1199204e-04  -8.1436528e-04  -1.8994971e-03  -1.4568339e-03  -1.7342194e-03  -2.1461528e-03
   6.3913118e-04  -9.4038485e-05   3.9609245e-04   1.9719260e-05   2.6438636e-04   1.9473009e-04   1.2268266e-04   1.3952079e-04   7.9681142e-04   1.1304794e-03   2.5220966e-04  -1.1724812e-03   7.4480544e-04   1.7992693e-03   1.0531701e-03   3.7543633e-04   1.9122858e-03   1.8123984e-03   3.5150579e-04  -1.5834170e-04   4.1967440e-05  -6.5255456e-04   4.3232259e-05  -1.1293550e-03   3.2488289e-03  -4.6082513e-04   3.2273526e-03   1.0031064e-03   2.5051183e-03  -1.2585695e-03   2.0820894e-03   2.2394373e-03   6.1555521e-04   2.2572528e-04   5.1532301e-05  -1.2606177e-03  -9.0070115e-04   1.3276173e-03  -1.1681240e-03  -4.2248069e-04  -1.5109676e-03  -1.6818229e-03  -1.4694190e-03  -5.2961370e-04  -8.0317294e-04  -9.2566205e-04  -1.8980311e-03  -1.9739040e-03  -1.8785065e-03  -3.0309013e-03
   4.5979326e-04  -1.8808620e-04   3.2066245e-04  -9.1733142e-05   1.5084415e-04   1.3371618e-04   8.2024286e-05   2.6826197e-04   6.2860333e-04   9.2771219e-04   1.6617640e-04  -1.4555339e-03   6.6009723e-04   2.0098286e-03   9.8733057e-04   3.8846472e-04   2.0317303e-03   1.6920606e-03   1.1166594e-04  -2.1924787e-04  -7.1538474e-05  -7.6524215e-04  -1.1245133e-04  -1.4678944e-03   3.3857231e-03  -5.7060202e-04   3.4591155e-03   1.0205194e-03   2.2657586e-03  -1.2635946e-03   2.1594483e-03   2.1442545e-03   5.9924880e-04   1.3596662e-04  -2.3626862e-05  -1.3334262e-03  -8.3312113e-04   1.2493846e-03  -1.2651134e-03  -5.5180694e-04  -1.5338475e-03  -1.8338453e-03  -1.2069364e-03  -1.2419034e-03  -9.9146389e-04  -9.7584969e-04  -1.8551276e-03  -9.8527188e-04  -1.1143421e-03  -1.9567583e-03
   3.5019405e-04  -2.6445379e-04   2.0293309e-04  -1.8636230e-04   4.1169755e-05   1.6550336e-04   1.1097427e-04   3.3127604e-04   4.6785199e-04   1.0103052e-03   2.7231241e-04  -1.5973130e-03   6.4521795e-04   2.2648361e-03   1.3221921e-03   3.9899326e-04   2.2177661e-03   1.7083666e-03   4.4378385e-04  -1.9191680e-04  -2.1062895e-04  -8.5125503e-04  -2.2763571e-04  -1.6996261e-03   4.0576044e-03  -4.5258345e-04   3.8348227e-03   1.2442657e-03   2.3851460e-03  -1.2529364e-03   2.4623333e-03   2.2603916e-03   5.7111820e-04   2.9790757e-04   9.6325988e-05  -1.1284179e-03  -8.1534468e-04   1.3041114e-03  -1.1082393e-03  -4.2229026e-04  -1.2655505e-03  -1.7115776e-03  -1.0197234e-03  -3.7831164e-04  -8.9460210e-04  -6.7760260e-04  -1.7788013e-03  -1.2280921e-03  -1.4306190e-03  -2.1455665e-03
   1.9387038e-04  -3.2285901e-04   8.1176033e-05  -2.8037545e-04  -7.7889483e-05   4.7075311e-05   8.1992857e-06   1.0599952e-04   3.0511137e-04   8.5488701e-04   1.6084245e-04  -1.7604785e-03   5.9996609e-04   2.3058513e-03   1.4208641e-03   3.5302810e-04   2.2493701e-03   1.8194208e-03   2.4166556e-04  -2.1339022e-04  -1.6965524e-04  -8.5272093e-04  -4.2965094e-04  -1.7956205e-03   4.2518792e-03  -4.7280977e-04   3.7747766e-03   1.2553993e-03   2.4196880e-03  -1.2901278e-03   2.5084035e-03   2.2692517e-03   3.5584311e-04   2.4205113e-04   5.7954239e-05  -1.2990027e-03  -8.5952767e-04   1.2868777e-03  -1.1793486e-03  -5.6363543e-04  -1.4654811e-03  -1.9176442e-03  -1.5234217e-03  -1.2250689e-03  -9.5315569e-04  -1.1910156e-03  -1.9738704e-03  -1.2155257e-03  -1.2779889e-03  -1.8800575e-03
   3.1288655e-05  -3.7831694e-04   1.2319017e-05  -3.5938161e-04  -8.6109692e-05   7.8445599e-05   3.0685627e-05   3.0353700e-04   5.7357189e-04   1.0296612e-03   2.5376404e-04  -1.5908503e-03   5.6006212e-04   2.2388299e-03   1.3180405e-03   4.3000065e-04   2.1827775e-03   1.6848147e-03   3.3175282e-04  -1.5001925e-05  -1.8097617e-04  -7.7586289e-04  -4.0120806e-04  -1.7057029e-03   3.9383359e-03  -4.9727969e-04   3.5077676e-03   1.0688718e-03   2.3285761e-03  -1.2466301e-03   2.3396756e-03   2.1784818e-03   4.4609827e-04   2.4325249e-04   9.1997914e-05  -1.1685920e-03  -8.4870629e-04   1.2068913e-03  -1.1740021e-03  -4.1083913e-04  -1.3935879e-03  -1.6932215e-03  -9.3279558e-04  -5.3809531e-04  -8.2424801e-04  -1.0446436e-03  -1.8778309e-03  -1.2625732e-03  -1.9022941e-03  -2.5780969e-03
   1.1675816e-05  -3.8095657e-04  -2.3986075e-05  -3.5149374e-04  -1.3749443e-04  -1.6818220e-05  -1.0158084e-04  -3.3098240e-05   4.0963161e-04   8.9754607e-04   1.8965451e-04  -1.5805488e-03   4.6534985e-04   2.0843744e-03   1.1839763e-03   3.4523409e-04   2.0475164e-03   1.5544703e-03   3.6887149e-04   1.5369158e-04  -3.0526533e-04  -7.4471085e-04  -4.5250071e-04  -1.6091138e-03   3.5915296e-03  -5.5691117e-04   3.4516593e-03   9.4836933e-04   2.3579423e-03  -1.2839151e-03   2.2093542e-03   2.0361121e-03   3.6596527e-04   1.5959684e-04   1.5088168e-04  -1.1734118e-03  -8.8161830e-04   1.1461232e-03  -1.1398294e-03  -5.2921812e-04  -1.2979682e-03  -1.8447809e-03  -1.5017039e-03  -4.5976814e-04  -9.3493343e-04  -9.4941381e-04  -1.9777245e-03  -8.8736531e-04  -1.4733245e-03  -3.0595630e-03
   4.3291064e-05  -3.7455242e-04  -1.3876980e-04  -3.4017756e-04  -1.0372113e-04   5.2807318e-06  -9.2780821e-05   1.1405790e-04   5.3926901e-04   1.0228892e-03   2.9357494e-04  -1.4682717e-03   4.7605814e-04   2.0140221e-03   9.6556073e-04   3.0745214e-04   1.9817150e-03   1.1674452e-03   4.2972330e-04   3.2176686e-04  -4.7257269e-04  -6.8460131e-04  -3.6235992e-04  -1.5016460e-03   3.4036946e-03  -3.4236850e-04   3.1391855e-03   7.7907991e-04   2.0672269e-03  -1.1482146e-03   1.9993074e-03   1.7189169e-03   6.0818455e-04   2.4803853e-04   4.8885115e-05  -9.1075950e-04  -5.5251026e-04   1.0798818e-03  -9.8512811e-04  -3.9606480e-04  -1.1704070e-03  -1.5261642e-03  -1.1507289e-03  -3.2010543e-05  -8.1619853e-04  -1.2268721e-03  -1.6217389e-03  -1.7916530e-03  -1.2936572e-03  -2.2681593e-03
   6.6802932e-05  -2.6425527e-04  -8.6953820e-05  -2.7712848e-04  -8.1116896e-06  -1.5353077e-04  -1.6501002e-04  -1.3472584e-04   4.3531795e-04   1.0854070e-03   1.7977002e-04  -7.4754562e-04   3.8674945e-04   1.1031100e-03   4.2579704e-04   4.1932653e-05   1.2472683e-03   4.0979002e-04   5.5404543e-04   6.7647593e-04  -4.6616909e-04  -4.6712506e-04  -2.6394348e-04  -5.3216075e-04   1.2626996e-03  -4.4373053e-04   1.7291186e-03   5.4098882e-06   8.9821854e-04  -1.0266581e-03   1.1919315e-03   8.5388031e-04   5.2289799e-04   6.1447899e-05  -1.4091509e-04  -2.3811431e-04  -6.5602188e-04   5.8611797e-04  -8.4301241e-04  -3.2593924e-04  -4.0658235e-04  -8.1532198e-04  -8.9816027e-04  -6.9614738e-04  -7.7158737e-04  -6.5043877e-04  -8.2783098e-04  -1.3458106e-03  -1.2266926e-03  -1.9474126e-03
   2.4203218e-04  -2.0238452e-04   9.5246003e-05  -2.1857175e-04   2.3851137e-05  -1.8054376e-05  -3.4159355e-05   5.8534817e-05   7.0148491e-04   1.4865425e-03   3.9213776e-04   9.4848016e-05   3.2054647e-04   6.3978561e-04   1.1325443e-04  -3.4198398e-05   6.7505374e-04  -7.0130380e-07   5.6942122e-04   9.2128263e-04  -2.0414322e-04  -9.1180715e-05  -3.7000878e-05   8.0360267e-05   6.9061620e-04  -1.0284346e-04   7.4617955e-04  -2.4385580e-04   3.3285684e-04  -7.3413341e-04   9.1947871e-04   6.5133750e-04   3.6841072e-04   1.2063350e-04  -5.1135841e-05   9.2876049e-05  -3.0662230e-04   5.2314106e-04  -6.5294199e-04  -1.7387001e-04   7.4531163e-05  -5.5202629e-05  -6.8329216e-04  -4.3577509e-04  -4.4619647e-04  -5.0216081e-04  -2.7759091e-04  -9.5311657e-04  -1.2951081e-03  -7.5434439e-04
   2.0011407e-04  -1.4256214e-04   1.1568330e-04  -1.5306256e-04  -1.9969300e-05  -3.6756028e-05   1.3463343e-05  -2.1844126e-04   6.7692390e-04   1.4004412e-03   3.9962272e-04   6.1864717e-05   3.1673579e-04   5.8794732e-04   9.0405672e-05  -1.5397550e-04   6.6224323e-04   1.3085428e-05   8.6132804e-04   9.1993017e-04  -1.1635112e-04  -2.3773007e-05  -1.2609948e-04   8.5929232e-06   6.9812528e-04  -9.9350282e-06   7.6197751e-04  -2.5106390e-04   1.1067780e-04  -6.8616745e-04   8.0223271e-04   5.5881590e-04   4.2670316e-04   7.1324801e-05  -1.0921169e-04   2.1217711e-04  -3.5629439e-04   4.6759029e-04  -4.4503022e-04  -4.8620375e-05   2.0919510e-04  -1.2980396e-05  -7.0431840e-04   1.7881123e-04  -3.6040458e-04  -4.9533835e-04  -3.6654546e-05  -9.3837047e-04  -2.6889748e-04  -1.6032284e-03
   3.1375457e-04  -6.2836829e-05   1.2298723e-04  -9.7404292e-05   1.0701083e-05   4.2798390e-05   7.9227859e-05  -1.8209413e-04   9.9261326e-04   1.6225481e-03   5.9829926e-04   4.1660402e-04   3.6556131e-04   2.0654376e-04  -5.5346267e-05  -1.7916709e-04   2.9818161e-04  -1.6364233e-04   8.5220154e-04   1.1303732e-03   3.1804386e-05   2.1044131e-04   1.1973943e-04   3.1614938e-04   3.2231613e-04   4.0330655e-05   1.6712261e-04  -3.1095705e-04  -1.9975926e-04  -5.1160442e-04   5.5023638e-04   3.5693965e-04   5.0994114e-04   1.5510278e-04   4.0821757e-05   4.5766353e-04  -1.8822150e-04   4.2590089e-04  -2.0862484e-04   9.5476935e-05   2.6236897e-04   3.1528572e-04  -7.1988453e-04   3.8458442e-04  -1.7431396e-04  -2.5648702e-04   1.9800829e-04  -9.0001902e-04  -5.0193781e-04  -6.6707667e-04
   2.0662558e-04  -2.6799533e-05   1.3910510e-04  -3.9129685e-05   1.3306971e-05   2.5246567e-05   3.5648518e-05  -5.3570700e-05   7.5691880e-04   1.1751021e-03   5.0762272e-04   1.8561989e-04   2.9588415e-04   2.6992406e-04   1.2058267e-05  -2.5371471e-04   2.7663787e-04  -1.8267053e-04   8.2462508e-04   9.7088929e-04   6.6851739e-05   2.1170602e-04   2.1568543e-05   7.0999151e-05   2.4360399e-04   4.7598824e-05   3.2579785e-04  -2.4521264e-04   1.5727879e-04  -5.1834708e-04   5.4516841e-04   3.9516101e-04   6.7931018e-04   1.2303049e-04  -9.0358357e-05   4.3047499e-04  -1.6629256e-04   4.6030557e-04  -2.7655013e-04   5.3218198e-05   2.8456224e-04   2.7554081e-04  -1.2124146e-03  -2.4292438e-05  -2.5011552e-04  -2.0145826e-04   2.3584925e-04  -9.6733123e-04  -9.1960386e-04  -1.0217408e-03
   2.9167719e-04   5.9959784e-05   1.2220902e-04   2.5513777e-05   1.0033883e-04   1.1882555e-04   1.2411801e-04  -2.1005025e-04   9.7227702e-04   1.1296771e-03   5.3875078e-04   4.2177003e-04   3.5913993e-04   1.2355721e-04  -1.0127587e-05  -1.1938524e-04   1.8141557e-04  -3.3807384e-05   7.2943699e-04   8.1549946e-04   2.1708506e-04   3.1036907e-04   7.4044234e-05   4.0139389e-04   3.2787037e-04   1.5086874e-04   2.5794079e-04  -2.0069718e-04   1.9650350e-04  -4.1846294e-04   5.0225260e-04   5.5196899e-04   5.4792163e-04   1.7904461e-04   4.1564086e-05   3.6958413e-04  -7.1138653e-05   6.4065267e-04  -6.1076287e-05   1.9652909e-04   1.4901611e-04   3.8316526e-04  -5.6372728e-04   3.5736250e-04  -8.6868873e-05  -3.7712554e-04   2.4142273e-04  -7.4539444e-04  -9.4624999e-04   5.9041369e-04
   2.1460930e-04   8.9642133e-05   2.0160012e-04   1.0037523e-04   9.8274431e-05   7.3084913e-05   1.4054940e-04  -1.7212954e-04   9.2847151e-04   9.9925837e-04   4.2916599e-04   3.5919627e-04   3.5018183e-04   1.0787546e-04  -8.5267333e-05  -8.4525796e-05   1.1816478e-04   3.0664512e-05   5.9107423e-04   6.7332521e-04   2.4645007e-04   2.3566857e-04   4.1498890e-07   2.6010751e-04   3.1234365e-04   4.3044278e-05   2.7542980e-04  -1.7710785e-04   2.4533804e-04  -5.3523737e-04   5.9546711e-04   5.8884354e-04   5.0181884e-04   1.3858191e-04   6.2781735e-05   1.5313289e-04  -1.6460688e-04   6.6572521e-04  -2.0241179e-04   9.1381364e-05   4.6523106e-05   2.0724708e-04  -7.6348416e-04   3.8848727e-04  -2.1857215e-04  -4.6138652e-04   2.4648447e-04  -1.1594995e-03  -4.6674997e-04  -5.9862580e-04
   4.0495308e-04   1.5571245e-04   2.3356012e-04   1.5626136e-04   1.7491939e-04   1.9795573e-04   1.9156722e-04  -8.8665969e-05   1.0733926e-03   1.1971215e-03   5.3702970e-04   4.7718891e-04   4.4150194e-04   8.5314576e-05   8.2825994e-05  -4.8027672e-05   1.4266804e-04   9.3374052e-05   8.0936227e-04   6.2499073e-04   3.3571271e-04   2.8262375e-04   1.3301076e-04   3.5037738e-04   3.5054455e-04   1.4167473e-04   3.2475271e-04  -1.2112135e-04   1.9468581e-04  -4.0346812e-04   5.5192743e-04   6.9522386e-04   5.5656180e-04   2.0193429e-04   1.6593118e-04   2.2117201e-04   1.6127294e-04   7.4121857e-04  -1.1310561e-04   2.2340861e-04   7.4174335e-05   2.5510654e-04  -9.4543077e-04   1.8889805e-04  -4.1876578e-05  -6.4763386e-04   1.3552267e-04  -5.4204743e-04  -9.7685450e-05  -5.8177416e-04
   4.4234007e-04   1.8376714e-04   2.0946052e-04   2.3371853e-04   1.7162903e-04   1.4075427e-04   2.1065904e-04  -2.0356606e-04   1.0709669e-03   1.1650770e-03   4.2035917e-04   4.9077231e-04   4.3748494e-04   1.6101088e-05  -6.7046771e-05  -1.1715631e-05   3.0629024e-05   1.9422149e-04   5.4206693e-04   5.5487890e-04   4.3017621e-04   2.7721265e-04   1.7541375e-04   4.9712864e-04   1.8603186e-04  -2.4719689e-05   3.5339885e-04  -1.0948238e-04   3.2039059e-04  -4.4362593e-04   4.7359514e-04   7.4100355e-04   6.8383373e-04   9.7400458e-05   1.0766814e-04   5.5894303e-05  -2.6142746e-04   8.0226862e-04  -2.1087244e-04   1.7959776e-04   1.8859461e-04   1.4951278e-04  -7.7132421e-04   2.3579727e-05  -1.3985898e-05  -5.7541375e-04   6.4339802e-05  -7.7960803e-04  -3.4176194e-04  -1.0448069e-04
   4.7486843e-04   2.2323754e-04   2.7801190e-04   2.7590652e-04   2.0866039e-04   2.6916905e-04   2.2648994e-04   5.2857766e-05   1.0849077e-03   1.3000319e-03   5.7329802e-04   4.2552565e-04   4.7238613e-04   1.0778994e-04   3.7180696e-05  -4.5501649e-05   1.9231225e-04   2.0524360e-04   5.9716514e-04   4.3196208e-04   4.3047967e-04   3.2336763e-04   7.7737524e-05   3.8691558e-04   3.1360670e-04   8.9011592e-05   4.3548635e-04  -1.0101950e-04   5.9869786e-04  -4.2253992e-04   7.6393713e-04   8.5801771e-04   7.5620186e-04   2.8539475e-04   2.3299086e-04   1.8552940e-04  -8.1084938e-05   8.3760230e-04  -1.5725534e-04   3.4520635e-04   4.0674943e-04   3.5939508e-04  -5.3112122e-04   2.6617435e-04   1.6339947e-05  -5.5906545e-05   1.8337961e-04  -9.9861925e-04  -1.4007480e-04  -1.4729248e-03
   4.0826292e-04   2.0784485e-04   3.0769483e-04   3.0537503e-04   1.8662735e-04   2.3481390e-04   2.2837885e-04  -7.9868885e-05   1.0561541e-03   1.2193222e-03   4.9233169e-04   3.4029747e-04   4.0844758e-04   1.9109188e-04  -3.1457264e-05   2.8950364e-05   2.6192071e-04   2.5104996e-04   5.1834248e-04   3.4450801e-04   4.0739650e-04   2.0638538e-04   1.9010359e-04   2.6075548e-04   3.5359309e-04   1.3472668e-04   5.5000291e-04  -1.3334200e-05   3.5573880e-04  -4.3782356e-04   7.5287017e-04   8.9681806e-04   3.8836559e-04   2.2514118e-04   9.0796617e-05   1.7404802e-04  -1.2022393e-04   8.5737847e-04  -1.4500348e-04   1.7188594e-04   9.3750041e-06   1.3818601e-04  -5.9365109e-04  -3.0416280e-05  -9.4395094e-05  -1.0421314e-04   1.1469203e-04  -1.0702512e-03  -1.4662104e-04  -5.7653181e-04
   6.4031320e-04   2.4579576e-04   3.1404226e-04   3.2678820e-04   2.5365435e-04   2.9813734e-04   2.4618639e-04   2.5422519e-04   1.2320582e-03   1.4584275e-03   6.0569169e-04   5.9947796e-04   4.5883789e-04   1.3432598e-04   1.6781456e-05   9.1019618e-05   2.3137381e-04   3.8965739e-04   4.6359302e-04   4.0493006e-04   4.6206184e-04   2.4801397e-04   2.9912099e-04   4.4655154e-04   4.7076854e-04   1.3664749e-04   6.1687303e-04   2.1745238e-05   5.6787377e-04  -3.7154602e-04   7.7895168e-04   9.5579791e-04   6.3915434e-04   2.8897772e-04   2.8405472e-04   2.5143364e-04   7.4791074e-05   9.8028244e-04  -2.6607737e-05   3.0674617e-04   2.3655608e-04   2.2747071e-04  -6.3223444e-04   1.9642981e-04   2.4886918e-05  -4.7950729e-04   1.3515953e-04  -1.8305030e-03  -8.5205992e-04  -1.0748660e-03
   8.0516830e-04   2.5713159e-04   3.4099890e-04   3.3765045e-04   2.6410972e-04   2.4879718e-04   2.6108624e-04   7.5089411e-05   1.2050238e-03   1.3535109e-03   5.6233112e-04   3.7617344e-04   4.2702293e-04   2.6872382e-04   2.8598561e-05   1.4444729e-04   3.4703029e-04   3.7316108e-04   5.4278859e-04   3.0359061e-04   4.3800205e-04   1.8227212e-04   1.9633603e-04   1.8643004e-04   4.7380489e-04   1.7858211e-04   6.9767184e-04   2.0063135e-05   7.0296985e-04  -3.7815986e-04   8.9698978e-04   9.6293364e-04   6.4671261e-04   1.8630350e-04   2.2765186e-04  -1.2473695e-05  -3.7412836e-05   9.4734645e-04  -4.3561471e-05   1.1988455e-04   6.4999876e-05   3.9588482e-05  -3.8994960e-05   3.6785594e-04  -1.2710973e-04  -1.8164095e-04   7.4583339e-05  -1.4274166e-03  -3.1944489e-04   2.4255512e-04
   4.6073829e-04   1.1944162e-04   3.1124376e-04   2.6979862e-04   2.2109476e-04   2.9641594e-04   2.3084322e-04   1.4928229e-04   1.2575258e-03   1.4508533e-03   6.2609598e-04   3.3246752e-04   3.9369587e-04   3.8069097e-04   1.9939189e-05   1.8706775e-04   3.8687163e-04   3.7621998e-04   5.5283774e-04   3.0778215e-04   4.2182137e-04   1.3424404e-04   3.4631754e-04   2.3709855e-04   4.9385405e-04   1.8728456e-04   7.4022176e-04   3.0177902e-05   7.1233301e-04  -3.3159100e-04   9.0442074e-04   9.8959391e-04   5.8172434e-04   2.5286849e-04   2.5157846e-04   1.3717459e-04   1.3351427e-04   9.6530118e-04   3.8657890e-05   3.1535554e-04   1.5317423e-04   2.6398670e-04  -1.1346625e-04   1.1132334e-03   1.1383848e-04  -2.9640537e-04   1.7030558e-04  -8.9549390e-04   1.5128033e-04  -1.5481245e-03
   6.2387326e-04   2.6442209e-04   3.8411844e-04   3.3449661e-04   2.7943167e-04   2.9481761e-04   2.8594563e-04   1.9426949e-05   1.1953852e-03   1.4886770e-03   6.5035507e-04   2.6215171e-04   3.7739924e-04   3.4015454e-04   1.3771778e-04   2.5045412e-04   4.0390834e-04   3.5044094e-04   4.8299448e-04   3.1180435e-04   4.3002007e-04   1.3871712e-04   2.2607864e-04   1.7580777e-04   5.0793745e-04   1.2252115e-04   7.2398293e-04   3.4547418e-05   7.5663498e-04  -3.0870221e-04   8.3542452e-04   9.6573780e-04   6.1206921e-04   2.8384733e-04   1.4494309e-04   2.5069847e-05  -2.2436368e-05   9.3522453e-04  -1.0892151e-04   2.6004235e-04   4.9309293e-04   2.3600526e-04  -1.9794059e-04   6.8405509e-04  -7.0331065e-05  -3.2205813e-04   2.1593292e-04  -9.5909461e-04  -1.4622015e-04  -7.4590389e-05
   5.1517587e-04   1.2525117e-04   3.4210118e-04   2.3046267e-04   1.5177602e-04   1.9494198e-04   1.5314318e-04   1.6104415e-04   9.2352385e-04   1.1720450e-03   4.2988342e-04  -9.5569027e-05   2.3502545e-04   3.4154535e-04   9.6015523e-05   1.8645223e-04   3.8502488e-04   3.2246186e-04   3.9774444e-04   1.6343326e-04   3.5397170e-04   7.3303447e-05   2.1983983e-04  -1.2446212e-04   3.8794498e-04  -6.8648718e-05   7.7011588e-04   3.7414891e-05   6.5328815e-04  -2.8874929e-04   1.0417392e-03   9.5205294e-04   5.7569973e-04   1.9298620e-04   1.6494171e-04   1.1915979e-04   1.5108130e-04   9.3138037e-04  -5.7265264e-05   3.6979991e-04   4.3351046e-04   1.7603679e-04  -4.0130984e-04   3.1078266e-04   5.8967420e-05  -6.1783401e-05   1.9009216e-04  -1.7551597e-03  -3.3556184e-04  -8.9037430e-04
   6.9707044e-04   2.7145917e-04   3.9166605e-04   3.2276532e-04   2.5297268e-04   3.0925550e-04   3.1970307e-04   4.9258520e-05   1.2942414e-03   1.5421599e-03   6.7544164e-04   1.1899006e-04   3.3475974e-04   3.9399066e-04   4.1232161e-05   2.7854691e-04   4.7219527e-04   3.4180004e-04   2.9117748e-04   2.5536984e-04   4.0369184e-04   6.2779785e-05   2.1507268e-04   1.0866037e-04   4.5243482e-04   2.3232053e-04   6.7916111e-04   7.9156220e-05   7.5359928e-04  -2.4064339e-04   9.3712873e-04   9.2743576e-04   6.7051500e-04   2.2764639e-04   8.6268752e-05   5.7586509e-05   1.1594383e-04   8.7962754e-04   7.5278600e-05   2.2787554e-04   3.6588061e-04   2.8070281e-04   1.1146087e-04  -1.7264503e-05  -4.9450231e-05  -9.3109093e-06   2.2419365e-04  -4.5811705e-04  -4.9063608e-05  -7.0205766e-05
   5.5966200e-04   1.7683550e-04   3.5316651e-04   2.6954742e-04   2.2488215e-04   2.1640629e-04   2.2409100e-04   1.6551740e-04   1.0637923e-03   1.3657865e-03   5.3601165e-04   3.4563465e-05   2.5796433e-04   3.4943299e-04  -5.6708875e-05   2.1709109e-04   3.5951106e-04   3.4052160e-04   3.6731776e-04   1.8143682e-04   3.4167847e-04  -3.8777096e-05   7.8346719e-05  -5.0662198e-05   4.4998981e-04   6.6926827e-05   8.3631219e-04   7.5360702e-05   6.4684218e-04  -3.4366082e-04   8.0444827e-04   8.8464323e-04   3.5427124e-04   1.4335311e-04   4.4043765e-05  -2.3183295e-04  -1.7749600e-04   9.0622378e-04  -6.7523586e-05   1.5329325e-04   3.2690150e-04   5.9481696e-05  -4.1753671e-04   2.1409341e-04  -7.6270771e-05   1.0557532e-04   6.5898821e-05  -7.1061595e-04  -6.0989394e-05  -2.2676891e-04
   7.6821260e-04   2.6358943e-04   3.2456670e-04   3.1296315e-04   2.7126062e-04   3.8134673e-04   2.9148636e-04   3.7939794e-04   1.2767270e-03   1.6814236e-03   6.7841553e-04   4.2793402e-04   3.5538775e-04   1.9538774e-04   1.0053194e-06   2.8016066e-04   2.7443806e-04   3.6847574e-04   4.6833072e-04   2.8858529e-04   4.0014368e-04   6.6198329e-05   2.7590955e-04   4.9098983e-04   3.8654156e-04   1.3064971e-04   6.1157614e-04   3.3411499e-05   7.4411236e-04  -3.0980175e-04   8.2819967e-04   9.4401289e-04   3.7330599e-04   1.5591535e-04   1.4274835e-04  -1.4736627e-04   5.5084689e-05   8.9930516e-04  -1.0865124e-04   2.2951269e-04   4.9100207e-05   9.7448183e-06  -5.8243767e-04   2.9121843e-04  -5.0905351e-06  -1.3229293e-04   3.2862998e-05  -1.0355579e-03  -4.1614255e-04  -1.0147027e-03
   6.4386724e-04   2.6371056e-04   3.2536377e-04   3.5407612e-04   2.5458739e-04   2.9883176e-04   2.2056320e-04  -2.9693012e-05   1.1635368e-03   1.6194544e-03   5.9176114e-04   5.3552509e-04   3.4419142e-04   1.7134490e-04  -1.5817257e-05   1.7332695e-04   2.0510035e-04   4.1350519e-04   2.4098509e-04   2.6069549e-04   4.0208141e-04   1.3872593e-06   7.6373741e-05   3.3696424e-04   3.6510269e-04  -5.1033290e-05   5.3719198e-04   4.3259479e-05   6.8983843e-04  -3.8074772e-04   7.9758314e-04   9.6134312e-04   3.1083863e-04   7.0650618e-05   6.5895569e-05  -2.4973933e-04  -9.2787232e-05   9.0850412e-04  -1.7621242e-04   3.7269412e-05  -2.2884164e-04  -1.6411411e-04  -8.1139425e-04   3.0386838e-04  -2.2140445e-04  -5.6547509e-04  -9.8741344e-05  -1.0846192e-03  -6.9961895e-04  -5.3834554e-04
   5.4280687e-04   1.4871875e-04   2.9235746e-04   2.6327037e-04   1.8271628e-04   2.3877986e-04   1.1293133e-04   4.3715874e-05   1.0354690e-03   1.5931340e-03   5.0630292e-04   4.9023784e-04   3.0857531e-04   1.1669322e-04  -1.4708194e-04   1.7899311e-04   1.7721709e-04   4.2992359e-04   2.4085765e-04   2.2799501e-04   3.7062188e-04  -1.9541832e-05   1.2320987e-04   3.4830961e-04   4.4383740e-04   3.8834027e-05   5.5181945e-04   3.2284544e-05   6.4340193e-04  -3.9494064e-04   9.4813819e-04   1.0102181e-03   5.5539643e-04   8.0883874e-05   8.9382556e-05  -1.0156282e-04   2.6175594e-05   9.3116175e-04  -1.2976030e-04   8.6919454e-06  -1.6497592e-04  -1.0587044e-04   8.8353227e-06   2.8212951e-05  -9.6391472e-05  -5.4130965e-04   2.3976130e-05  -1.1005586e-03  -2.7954750e-04  -2.6418417e-04
   7.3985412e-04   3.4108674e-04   3.5396422e-04   4.0309568e-04   2.9833501e-04   3.4044258e-04   2.8660410e-04   2.6064712e-04   1.1198915e-03   1.7733059e-03   5.8546360e-04   5.8790360e-04   3.6731333e-04   9.3772243e-05   2.1199443e-05   1.5347007e-04   1.8872881e-04   4.4553002e-04   4.4512082e-04   2.7012252e-04   4.2285185e-04  -3.2127213e-05   2.1822585e-04   4.1620922e-04   3.9684720e-04  -9.0589936e-05   5.8638357e-04   8.7698172e-06   7.2708767e-04  -4.5162698e-04   8.5372955e-04   9.5866312e-04   3.3973734e-04   8.1828301e-05  -5.5387518e-06  -2.7038634e-04  -1.1016983e-04   8.8316092e-04  -2.5300786e-04  -7.6896365e-05  -1.8040408e-04  -6.1565843e-05  -6.2174315e-04   3.5933551e-04  -1.8925039e-04  -2.3705994e-04  -4.3905773e-05  -7.4122765e-04  -8.2423730e-04  -3.4636553e-04
   5.9600145e-04   2.5493113e-04   3.0139199e-04   3.6933832e-04   2.7791510e-04   2.3287750e-04   1.5456227e-04   1.0834228e-04   8.2299160e-04   1.5663597e-03   3.7957969e-04   4.0103888e-04   3.2618977e-04   4.4723787e-05  -1.3730503e-04   1.3155068e-04   1.5236567e-04   4.5206310e-04   2.9962510e-04   1.7517473e-04   3.6829297e-04  -1.1668794e-04   1.9611217e-04   2.9224448e-04   5.1179028e-04  -4.2011532e-05   6.4181170e-04   7.5312906e-05   6.5313565e-04  -4.7951232e-04   8.3624927e-04   9.6604985e-04   1.3206879e-04   4.7063499e-05   2.9503699e-06  -4.2116502e-04  -2.7690007e-04   9.9403691e-04  -2.0406075e-04  -2.5911227e-06  -7.3990391e-06  -2.5119880e-04  -8.1661757e-04   4.0076103e-04  -1.3963558e-04  -4.7195761e-04  -4.3439821e-05  -9.8859891e-04  -7.0524757e-04  -4.9861817e-04
   7.4416300e-04   3.8277332e-04   3.9264094e-04   4.6098430e-04   3.2247152e-04   3.8604956e-04   3.1142327e-04   1.4090065e-04   1.1410307e-03   1.8975663e-03   5.7460059e-04   5.7866919e-04   3.9176500e-04   1.4817881e-04  -1.4628577e-05   1.1824383e-04   2.4640234e-04   4.6880677e-04   4.1909705e-04   2.6251643e-04   4.3554563e-04  -2.4461322e-05   2.9689926e-04   3.7771891e-04   5.8199337e-04   6.7251021e-05   6.5047911e-04   7.3940450e-05   6.8635604e-04  -4.8091973e-04   7.9863123e-04   9.5011631e-04   2.1121805e-04   6.7607449e-05  -9.2134013e-07  -5.0954887e-04  -3.2420480e-04   9.5605850e-04  -2.8740228e-04  -3.6120371e-05  -2.2965478e-04  -1.3711443e-04  -6.8691943e-04   1.1873151e-04  -1.9329679e-04  -4.4037151e-04  -1.5272448e-05  -1.1287810e-03  -3.8103995e-04   4.6775267e-06
   7.5167045e-04   2.9754557e-04   3.6655954e-04   4.0401213e-04   2.8593800e-04   3.1318652e-04   2.1963871e-04   2.6543581e-04   1.0048273e-03   1.7423687e-03   4.3270335e-04   4.1496730e-04   3.4299839e-04   8.8947992e-05  -5.3820484e-05   1.1373297e-04   1.4668283e-04   4.6886865e-04   3.3131667e-04   2.2640439e-04   4.1494463e-04  -3.1411135e-05   2.0753108e-04   4.3161877e-04   5.6914781e-04  -7.6382938e-05   6.6509488e-04   1.0071288e-04   7.7585521e-04  -5.6862511e-04   6.3614891e-04   8.3855476e-04   3.1189260e-04  -1.0634034e-04  -1.2180935e-04  -4.8208766e-04  -3.0049012e-04   8.6793100e-04  -3.9891485e-04  -1.8941078e-04  -5.6533399e-04  -4.1316458e-04  -9.3802530e-04   2.7679701e-04  -2.3019500e-04  -5.9326889e-04  -1.7777509e-04  -1.3051693e-03  -5.6119496e-04  -6.7227281e-04
   7.5072271e-04   3.3724683e-04   3.5901915e-04   3.9654050e-04   3.4149818e-04   3.2676361e-04   2.4309587e-04   2.3502830e-04   1.2320634e-03   2.0021875e-03   5.8593339e-04   6.7204540e-04   4.2550979e-04   6.5234752e-05  -7.1648457e-05   1.1675672e-04   6.1374383e-05   4.0148586e-04   2.7112084e-04   3.1498203e-04   4.2620749e-04   3.2542997e-05   3.4237633e-04   5.5066252e-04   3.9187615e-04  -4.0565796e-05   6.1229168e-04   6.4147040e-05   7.5331482e-04  -4.8795182e-04   4.9416540e-04   8.6267490e-04   2.4813865e-04   6.4991441e-06   2.4336463e-05  -4.4578768e-04  -9.7087221e-05   8.4208930e-04  -3.0303348e-04  -3.5811056e-05  -5.9474004e-04  -1.3606629e-04  -5.8401737e-04  -5.4183754e-04  -1.8002170e-04  -6.3370873e-04   2.6988653e-05  -1.0640663e-03  -5.6540628e-04  -9.9808734e-04
   7.7873562e-04   3.6476325e-04   3.6259589e-04   4.5726393e-04   3.5044187e-04   3.4947731e-04   3.2685371e-04   2.6588445e-04   1.0471294e-03   1.9624704e-03   5.5563851e-04   6.2546384e-04   4.5172343e-04  -2.3544902e-05  -5.2159401e-05   1.6858053e-04   2.1318428e-05   4.1054140e-04   4.5037511e-04   3.1664985e-04   4.3407324e-04   2.4825005e-05   4.0276040e-04   4.1237631e-04   3.6044978e-04  -1.6805576e-04   5.1869376e-04   4.9353268e-05   5.7347259e-04  -5.5932841e-04   4.6657686e-04   7.8816072e-04   7.1419578e-05  -6.4165441e-05  -7.9199715e-05  -6.3176180e-04  -2.0865390e-04   8.0387888e-04  -4.2686003e-04  -1.6845219e-05  -9.1156748e-05  -3.3314884e-04  -8.4622629e-04  -3.4103748e-05  -2.6894081e-04  -8.7551679e-04  -1.5141100e-05  -3.5766736e-04  -5.4865296e-04  -4.1235879e-04
   4.7993383e-04   2.3202586e-04   2.7462625e-04   3.7223974e-04   2.4188080e-04   1.9826820e-04   1.7370388e-04   8.1533421e-05   7.3956687e-04   1.6902429e-03   3.3961370e-04   4.1750504e-04   3.2224192e-04  -8.4288520e-05  -4.4398079e-05   1.5244124e-04  -2.4719384e-05   3.8375970e-04   3.7989716e-04   2.3239358e-04   3.7792072e-04  -8.7587059e-06   2.9876266e-04   4.2120469e-04   3.2074086e-04  -1.1941446e-04   5.1657099e-04   2.4418092e-05   7.7066646e-04  -5.1161612e-04   5.8159418e-04   7.8560866e-04   2.2513505e-04  -9.1643757e-05  -8.9158311e-05  -5.7000766e-04  -4.0933851e-04   8.6489198e-04  -3.9691495e-04  -1.3439484e-04  -4.5823122e-04  -3.4248154e-04  -7.7867578e-04  -3.6207010e-05  -1.1729223e-04  -6.9015176e-04  -6.1658087e-05  -7.4286695e-04  -1.2195903e-04  -2.0534256e-03
   8.0285512e-04   3.9246687e-04   3.7252510e-04   4.4211489e-04   3.5361841e-04   3.1839337e-04   2.9581651e-04   2.7790971e-04   1.1028034e-03   2.0578075e-03   5.8608770e-04   6.9353456e-04   4.6264939e-04  -4.2160071e-05   2.0281588e-05   2.0159631e-04  -2.5203653e-05   4.0011047e-04   4.2913182e-04   3.3276776e-04   3.9578386e-04   4.9458202e-05   3.5652664e-04   5.9089344e-04   3.4156346e-04  -1.6904089e-05   4.9289968e-04   6.8916474e-06   6.6992448e-04  -5.4222438e-04   4.5850532e-04   7.6759094e-04   2.8535895e-04  -8.7799446e-05  -6.9614449e-05  -5.5264420e-04  -4.2577853e-04   8.4060180e-04  -3.9454323e-04  -1.1472755e-04  -3.0876478e-04  -3.0243941e-04  -7.5149117e-04  -3.1858493e-04  -1.3438935e-04  -7.1081251e-04  -8.8346809e-05  -5.8748887e-04  -7.5801107e-04  -8.5871754e-04
   6.1055814e-04   2.7431289e-04   3.1060854e-04   3.7287624e-04   2.5234575e-04   3.0006157e-04   2.0612532e-04   1.7134318e-04   8.9230464e-04   1.8047778e-03   4.1837356e-04   4.3696380e-04   3.6619673e-04  -2.3758337e-05  -8.1290709e-05   8.5433297e-05  -2.0099390e-06   3.5803238e-04   3.6163186e-04   1.8753840e-04   3.2765386e-04  -5.3146970e-05   2.3371750e-04   3.5943114e-04   3.2708418e-04  -2.5381430e-04   6.0894463e-04   2.2887547e-05   6.6306337e-04  -5.8461400e-04   4.2288602e-04   7.2009640e-04   1.4279713e-04  -1.9023656e-04  -1.2662914e-04  -6.4251682e-04  -3.9586736e-04   7.5717177e-04  -5.7020667e-04  -3.5082398e-04  -5.5841933e-04  -3.8117595e-04  -8.1627473e-04  -1.0641380e-04  -2.3111919e-04  -8.9491764e-04   3.3036945e-06  -3.1801235e-04  -3.1422105e-04  -6.3138286e-04
   7.2400615e-04   3.4364691e-04   3.4962280e-04   3.9692625e-04   3.2617111e-04   2.7741981e-04   2.9061895e-04   2.0454632e-04   1.1195159e-03   2.0704884e-03   5.7788991e-04   6.9454272e-04   4.7260846e-04  -5.4465985e-05   8.3716614e-06   1.6195950e-04   1.1018248e-05   3.9285372e-04   4.2175443e-04   2.7159098e-04   3.4106220e-04  -2.3862833e-05   4.0770398e-04   5.4822164e-04   3.8698944e-04  -7.2321091e-05   4.5293290e-04   8.5582651e-06   5.1176472e-04  -5.4089644e-04   4.0658715e-04   8.1098173e-04   1.2209846e-04  -1.6021857e-04  -9.2023743e-05  -5.3052063e-04  -5.2704284e-04   8.0302689e-04  -3.7595301e-04  -1.7682582e-04  -4.8868026e-04  -1.8251865e-04  -7.4518676e-04  -4.0592271e-04  -2.1816033e-04  -6.0438766e-04  -4.7055644e-05  -5.7021593e-04  -7.6740474e-04  -6.6326890e-04
   6.8470568e-04   2.9050023e-04   3.1945741e-04   3.8363325e-04   2.8575849e-04   2.8617415e-04   2.9309391e-04   1.8309671e-04   9.1466907e-04   1.8852449e-03   4.4384148e-04   4.6007943e-04   4.6303676e-04  -3.2276193e-06  -3.2232751e-05   4.1582731e-05   3.3515465e-05   3.6616297e-04   3.0768022e-04   2.1453630e-04   2.9208840e-04  -2.3501707e-05   3.3175395e-04   3.7440888e-04   3.3151073e-04  -1.6160327e-04   4.5509913e-04   4.9175149e-05   5.6560576e-04  -5.8344315e-04   5.3954311e-04   7.7385519e-04   1.4472898e-04  -1.8622652e-04  -2.0222001e-04  -6.1741442e-04  -4.8569083e-04   7.9982082e-04  -5.1886839e-04  -2.3960945e-04  -2.9163630e-04  -2.7477287e-04  -1.1153073e-03  -1.7772472e-05  -2.4637399e-04  -6.9443812e-04  -2.2858904e-04  -8.6489541e-04  -8.5833698e-04  -1.6122237e-03
   4.7266635e-04   1.4204712e-04   2.5058788e-04   2.7698241e-04   1.9913557e-04   1.5876484e-04   1.0873012e-04   1.2061746e-04   8.9103554e-04   1.8566065e-03   3.9723521e-04   4.4209100e-04   4.0468344e-04  -7.1577801e-05   2.9023049e-05   8.5906642e-05   6.4569244e-06   3.8710449e-04   3.9803275e-04   2.1289980e-04   2.6700975e-04  -3.0238158e-05   4.4447457e-04   3.8902494e-04   4.2226948e-04  -9.6531323e-05   4.8123064e-04   4.9238526e-05   5.5257481e-04  -5.9577433e-04   4.7508292e-04   8.2425732e-04   2.8823788e-04  -9.5484764e-05  -3.7575999e-05  -6.7540887e-04  -4.3499324e-04   7.6754339e-04  -4.4129885e-04  -1.9281205e-04  -4.0298243e-04  -3.1221478e-04  -8.2777790e-04  -7.5265439e-04  -1.8506344e-04  -9.9256262e-04  -2.8274309e-05  -3.5047266e-04   1.5575955e-04  -1.6923948e-03
   6.8507809e-04   3.3256121e-04   3.1171506e-04   4.1150016e-04   3.1966451e-04   3.5129988e-04   3.1895205e-04   8.7060631e-05   1.0066784e-03   1.9870682e-03   4.8978772e-04   6.2403636e-04   4.8712138e-04  -1.1655924e-04   8.2996376e-05   6.8061163e-05  -8.1960949e-05   4.6519155e-04   3.0558102e-04   3.1281065e-04   3.0798884e-04   3.8043658e-05   3.5793782e-04   5.9638615e-04   4.2772366e-04  -1.2506411e-04   5.6183460e-04   5.8191163e-05   4.3086967e-04  -6.2542828e-04   4.0531697e-04   8.0179854e-04   2.4526039e-04  -1.0111403e-04  -1.5632135e-05  -7.0401601e-04  -3.3837138e-04   7.9657155e-04  -5.3548126e-04  -2.6143662e-04  -5.1422836e-04  -3.7387124e-04  -1.0387115e-03  -4.4297701e-04  -2.4113909e-04  -4.7624644e-04  -1.5332489e-04  -6.6296640e-04  -5.4332701e-04  -5.2113355e-05
   6.2576227e-04   2.6502382e-04   3.0241482e-04   3.7845300e-04   2.5144231e-04   1.5716616e-04   2.2734619e-04   8.7126566e-05   7.4764440e-04   1.7099521e-03   3.0484961e-04   3.5284052e-04   4.3269113e-04  -4.7949474e-05  -8.4916610e-05   5.7891571e-05  -2.4584517e-05   4.1579118e-04   3.6797349e-04   2.2344907e-04   2.6972475e-04   9.3878198e-06   3.5776559e-04   5.2768458e-04   3.5929488e-04  -2.1955933e-04   4.3520366e-04   3.9110782e-05   7.8698504e-04  -5.9323892e-04   4.8720255e-04   7.8692287e-04   1.2727286e-04  -1.0442617e-04  -8.0671598e-05  -5.9207925e-04  -4.3913096e-04   7.8332855e-04  -4.9698574e-04  -1.7765517e-04  -3.1260159e-04  -2.5479327e-04  -5.7323801e-04   1.4344024e-04  -1.6541636e-04  -6.7885144e-04   3.8655166e-06  -3.6952592e-04  -8.5176103e-04  -5.4938570e-05
   7.8456098e-04   3.8804262e-04   3.7028748e-04   4.4759299e-04   3.7266576e-04   4.3711253e-04   3.6594435e-04   9.5145966e-05   9.5490768e-04   1.9717074e-03   5.4046971e-04   4.7431103e-04   5.1773945e-04   2.8580253e-05   4.5144050e-05   1.0925062e-04   6.9351787e-05   4.1954062e-04   6.0083834e-04   3.3347055e-04   3.1596969e-04   2.4254672e-05   4.0223365e-04   4.3111271e-04   3.2372473e-04  -7.6079683e-05   6.1117305e-04   7.0716196e-05   7.4077823e-04  -6.0031505e-04   4.3889109e-04   8.5284497e-04  -6.4230735e-05  -1.1197132e-04   1.0077199e-05  -4.5054671e-04  -4.7488444e-04   8.1302627e-04  -4.8844371e-04  -1.1242295e-04  -1.8821293e-04  -1.6773502e-04  -8.9608034e-04  -5.0569250e-04  -1.4654906e-04  -6.4948457e-04  -4.8744823e-06  -1.3564749e-03  -3.7526834e-04   2.9419440e-05
   7.1105105e-04   3.0987040e-04   3.8889618e-04   3.9837160e-04   3.0742999e-04   2.3135894e-04   2.9926471e-04   2.4162543e-04   6.9611234e-04   1.7789456e-03   4.3868765e-04   2.8732049e-04   4.4130255e-04   1.7267582e-04   1.0861324e-04   4.1284085e-05   1.1785197e-04   4.1486579e-04   4.4306385e-04   3.0207893e-04   2.7986075e-04   5.1582439e-05   4.7293806e-04   2.7745208e-04   3.8656237e-04  -1.9860396e-04   6.1881501e-04   8.3063678e-05   6.4342143e-04  -6.7948207e-04   6.2149507e-04   8.3921116e-04   1.5860272e-04  -1.2486266e-04  -1.9872405e-06  -4.7907219e-04  -3.9502187e-04   7.7254034e-04  -4.0213030e-04  -1.7973213e-04  -3.1950601e-04  -2.0983972e-04  -4.5833920e-04  -4.0503457e-04  -1.1186700e-04  -6.3344627e-04   6.1020015e-05  -6.2078657e-04  -3.4213002e-04  -5.4092659e-04
   7.9637166e-04   4.0120049e-04   4.3428398e-04   4.4029535e-04   3.7230112e-04   4.1168681e-04   4.3280330e-04   1.7790243e-04   1.0887637e-03   2.0556196e-03   6.7706010e-04   4.6152476e-04   5.4126652e-04   2.5629744e-04   3.0283956e-04   9.5547533e-05   2.2629464e-04   4.2451618e-04   4.5432607e-04   4.0793524e-04   3.3771872e-04   9.3492323e-05   5.5730273e-04   3.5157768e-04   5.8182061e-04  -6.7761546e-05   6.0342252e-04   1.2595044e-04   5.9212878e-04  -5.3459627e-04   6.5191207e-04   8.7818323e-04   3.7761586e-04   6.8346118e-05   1.3914406e-04  -4.1472071e-04  -2.0089310e-04   8.4602961e-04  -3.1436858e-04  -1.1396079e-04  -2.7493641e-04  -1.0179362e-04  -3.7809805e-04   6.5987511e-04  -7.6000462e-05  -3.6321752e-04   1.5604791e-04  -7.0957612e-06  -4.5756047e-04  -1.9405883e-04
   7.9682504e-04   3.5819088e-04   4.5545641e-04   4.0724728e-04   3.4499585e-04   3.0221889e-04   3.8078189e-04   3.2309935e-04   8.9909747e-04   1.8734637e-03   5.6350447e-04   2.9980741e-04   5.1459071e-04   3.1346548e-04   2.0508972e-04   1.5139850e-04   2.7967498e-04   4.1223833e-04   5.8023160e-04   3.8289631e-04   3.0891190e-04   9.8173514e-05   4.4268114e-04   2.9951037e-04   4.3727347e-04  -9.5506941e-05   6.0683407e-04   9.7609714e-05   4.9736234e-04  -5.5260159e-04   6.5827608e-04   8.7884295e-04   3.3959452e-04   2.0365364e-05   5.0143928e-05  -3.8493890e-04  -3.4769229e-04   7.6420145e-04  -3.9391720e-04  -3.0780568e-05  -7.2815150e-05  -1.2823557e-04  -3.9492975e-04  -1.8819550e-04  -9.8606833e-05  -4.6582954e-04   4.1070758e-05  -2.5184799e-04  -1.2999379e-04  -9.3804795e-04
   7.4460014e-04   3.3176644e-04   4.1653434e-04   3.7837127e-04   3.6367742e-04   3.7163915e-04   4.2332034e-04   3.9059427e-04   1.0813322e-03   2.0266189e-03   7.1255775e-04   4.3877988e-04   5.7071989e-04   3.2353887e-04   2.6852725e-04   1.5431084e-04   2.9329333e-04   4.2372930e-04   7.5133651e-04   4.5457963e-04   3.0637355e-04   1.6717217e-04   5.9433974e-04   3.5252763e-04   3.5842598e-04  -2.3874098e-05   7.0960971e-04   9.9989971e-05   8.8388397e-04  -4.2433452e-04   5.8697473e-04   8.9572195e-04   4.5925219e-04   1.5448716e-04   1.7722942e-04  -2.4408547e-04  -6.5975204e-05   8.9268765e-04  -3.4228549e-04   1.0341028e-04   1.4697507e-04   1.9513088e-04  -2.0466780e-04  -1.3856518e-04   7.6278018e-05  -3.0498227e-04   2.7271468e-04  -5.7791924e-05  -1.8187606e-04  -4.1836334e-04
   8.8216102e-04   4.1128468e-04   4.8514875e-04   4.3648627e-04   4.0171578e-04   3.6399270e-04   4.4770120e-04   4.3784690e-04   9.3228772e-04   1.9832570e-03   7.1431202e-04   4.4757384e-04   6.3549064e-04   3.2775014e-04   2.5278251e-04   1.7729054e-04   3.0451288e-04   4.0924794e-04   7.7786756e-04   4.8895396e-04   3.1952225e-04   1.2679210e-04   6.5960822e-04   3.5283930e-04   4.4752314e-04  -1.1427557e-04   7.0280186e-04   1.3238534e-04   7.7064836e-04  -4.6059594e-04   6.0027040e-04   8.9249172e-04   2.0702122e-04   1.1955777e-04   1.9002725e-04  -2.1108275e-04  -1.5510527e-04   9.0224488e-04  -3.3889542e-04   1.3453988e-05  -7.8518118e-05   2.3167220e-05  -2.3658428e-04   2.0574334e-04   1.8179286e-05  -2.2262218e-04   2.1442534e-04  -8.2005322e-04  -3.4675840e-04   8.9431577e-04
   9.0127188e-04   2.9994085e-04   4.3223414e-04   3.6814710e-04   3.1709796e-04   2.2760354e-04   3.5362670e-04  -4.7053991e-06   8.0454902e-04   1.7408276e-03   5.3785963e-04   2.9585380e-04   5.5095408e-04   2.7509834e-04   2.1971084e-04   2.2069488e-04   2.6353248e-04   4.0242187e-04   7.0329616e-04   4.4261329e-04   2.8744401e-04   1.2327959e-04   5.6780054e-04   3.7682100e-04   4.3111260e-04   5.2371361e-05   6.5686088e-04   1.2413370e-04   8.9784298e-04  -4.0374408e-04   6.4236665e-04   8.9268427e-04   4.6101949e-04   1.3069042e-04   1.8657025e-04  -2.7464595e-04  -6.9283946e-05   9.2621980e-04  -2.0054051e-04   3.8698035e-05   1.5773060e-04   1.7814005e-05  -4.3359495e-04  -5.6292742e-05   1.6873179e-04  -3.9671515e-05   2.7714451e-04   7.0276175e-05  -2.3669597e-04  -7.4134790e-04
   9.4494538e-04   4.7765326e-04   5.2150723e-04   4.5914939e-04   4.8897573e-04   4.8916379e-04   5.5948255e-04   5.3371117e-04   1.0820159e-03   2.0444961e-03   8.1976783e-04   5.9443939e-04   6.9488917e-04   3.3011683e-04   2.7163106e-04   2.6705393e-04   2.8866189e-04   4.1468564e-04   7.3692319e-04   5.8242073e-04   3.3454705e-04   1.7226338e-04   5.4735242e-04   4.4147822e-04   3.1764244e-04   4.7691799e-05   7.3824276e-04   1.0089111e-04   6.1221601e-04  -3.4715337e-04   5.6337839e-04   9.2309952e-04   2.6448761e-04   1.9343659e-04   1.1297845e-04  -8.7034881e-05  -9.5606083e-05   9.9521189e-04  -1.7883346e-04   5.5066394e-06   1.1018881e-04   6.5858898e-05   1.5435735e-05   6.1385072e-04   1.5406510e-04  -4.4830443e-04   1.9941897e-04   1.2630029e-05   6.8000540e-05  -4.3583821e-04
   9.4537716e-04   4.1173794e-04   4.6668568e-04   4.3666668e-04   4.5569139e-04   4.0020022e-04   4.2378603e-04   4.5376108e-04   9.5266977e-04   1.8352302e-03   6.9221872e-04   5.7152379e-04   6.7682908e-04   1.5187943e-04   1.4534050e-04   2.9986756e-04   1.6179588e-04   4.1226402e-04   6.4296514e-04   5.5126543e-04   3.0291689e-04   1.2971590e-04   5.2814925e-04   4.2624809e-04   3.4871354e-04  -5.7672100e-05   5.4210034e-04   8.8175839e-05   6.8459887e-04  -4.4528148e-04   4.1271490e-04   8.7251980e-04   2.9587428e-04   1.4719628e-04   1.1702479e-04  -2.2180678e-04  -2.7074167e-04   9.6938282e-04  -3.2401751e-04   4.2143514e-05  -1.1752280e-05  -1.9896013e-04  -3.2828056e-04   5.7817895e-05   7.3788353e-05  -1.8985210e-04   6.0541017e-05  -2.7281514e-04   4.4744640e-05   3.0562523e-04
   1.0002555e-03   4.7920036e-04   5.2412151e-04   4.7318608e-04   4.9060717e-04   4.8324265e-04   5.4241088e-04   2.5428226e-04   1.1403073e-03   2.0160126e-03   8.6378405e-04   8.0566516e-04   7.4949703e-04   1.6905559e-04   1.7886498e-05   3.1292799e-04   1.6370880e-04   4.2204504e-04   8.2885404e-04   6.0525560e-04   3.0920963e-04   2.1288893e-04   5.4440391e-04   5.8518577e-04   3.9297002e-04   9.1841437e-05   5.4070738e-04   8.0414269e-05   7.9014106e-04  -2.8075589e-04   4.9298420e-04   9.0489734e-04   1.8563679e-04   2.5289232e-04   3.7563627e-04  -9.2991948e-05  -7.8173136e-05   1.0102170e-03  -1.9374258e-04   1.7726395e-04   1.2906500e-04  -3.2096701e-05  -2.0674493e-05   6.7193515e-04   2.1344655e-04  -5.2625208e-05   1.6947334e-04  -3.4380762e-04   1.8905169e-04  -5.0096650e-04
   9.8541996e-04   5.2124826e-04   5.1436771e-04   5.5702467e-04   5.2293687e-04   4.6032856e-04   5.3164130e-04   2.7640723e-04   1.0609484e-03   1.9108526e-03   8.0483354e-04   8.1242883e-04   7.8343734e-04   1.8076890e-04   1.5104772e-04   3.2489261e-04   1.1876604e-04   4.4817277e-04   7.4279035e-04   5.9289858e-04   2.9765547e-04   1.5878999e-04   6.0939131e-04   6.6748192e-04   2.2312540e-04   5.9562142e-05   5.4212270e-04   5.1428258e-05   9.3352218e-04  -3.8203807e-04   4.5530847e-04   8.9145429e-04   4.9026642e-04   1.9329230e-04   2.0259152e-04  -5.6434510e-05  -1.3614575e-04   1.0144990e-03  -2.2218829e-04   1.5295057e-04  -1.9568621e-04  -1.2506070e-04  -6.5528751e-05  -6.5358850e-04   1.6146300e-04  -1.7079384e-04   9.9570767e-05  -3.5747123e-04  -1.1099468e-04   8.8276085e-04
   9.1154117e-04   4.0038952e-04   4.3259564e-04   4.8061591e-04   4.5343439e-04   3.7538356e-04   4.1261569e-04   3.1435987e-04   9.7538036e-04   1.7089288e-03   6.6434138e-04   7.0814497e-04   6.9003727e-04   4.6601926e-05   9.8916506e-05   2.5136824e-04   5.8874175e-05   4.0558033e-04   6.7300216e-04   5.5304501e-04   2.6233884e-04   1.8225309e-04   5.1215320e-04   6.3433981e-04   1.0180760e-04   4.4778593e-05   4.0533251e-04   3.3968518e-05   8.6490938e-04  -2.8700929e-04   4.7707767e-04   9.3036040e-04   2.7755092e-04   1.8447699e-04   2.3968604e-04   1.1104596e-04   3.4776920e-05   1.0261677e-03  -1.9106819e-04   3.5891993e-04  -4.3887332e-05   3.6816589e-05  -5.4577057e-04   2.7337845e-04   2.9805439e-04  -7.7094919e-06   1.9540958e-04  -9.5330563e-04   3.9895161e-04  -8.2244183e-04
   1.1492261e-03   6.0356548e-04   5.9017865e-04   6.3677790e-04   5.8398175e-04   5.1830936e-04   5.1600352e-04   3.4444832e-04   1.1826261e-03   1.8940449e-03   8.5677108e-04   8.9792709e-04   8.6537749e-04   2.9374212e-05   1.5569733e-04   2.5095243e-04   6.0166851e-05   4.0236861e-04   6.0768251e-04   6.4750121e-04   3.0905995e-04   2.2446310e-04   6.4135296e-04   6.4237433e-04   9.3453062e-05   7.9820231e-05   3.9807911e-04   2.7308894e-05   6.7668530e-04  -3.5534057e-04   4.9289974e-04   8.7173184e-04   3.4742043e-04   2.6244528e-04   2.2347171e-04  -8.2248604e-05  -1.4060391e-04   1.0660716e-03  -8.3372768e-05   3.1397841e-04  -2.4457581e-04  -7.1478389e-05  -9.6805044e-04   1.7498444e-04   2.4030282e-04   9.2234121e-05   4.7258385e-05  -5.4438750e-04  -2.7666020e-04   2.7469735e-04
   1.0255229e-03   5.3750805e-04   5.3800974e-04   6.2288961e-04   5.4176478e-04   4.4856672e-04   4.7923331e-04   2.9304263e-04   9.9672889e-04   1.6971056e-03   6.8493153e-04   7.9000409e-04   7.7450898e-04  -9.6727366e-05   3.2481385e-05   2.4307339e-04  -2.5366830e-05   3.6350812e-04   4.4646248e-04   5.5853010e-04   2.9099802e-04   1.9860175e-04   4.9925130e-04   6.1477401e-04   3.3176864e-05  -2.4419029e-05   3.4849491e-04   4.9757987e-06   6.8425143e-04  -3.8268158e-04   2.2817541e-04   8.0685638e-04   3.7214713e-04   2.3128449e-04   2.3377375e-04  -1.2265655e-04  -1.1762385e-04   1.0578618e-03  -1.6162271e-04   1.1181910e-04  -3.1149675e-04  -4.6990372e-05  -6.9198181e-04   3.3609520e-04   2.7518277e-04  -2.9427352e-04   3.9196086e-05  -9.6116698e-04   5.0969841e-04  -1.2039510e-03
   1.1423905e-03   6.6194235e-04   6.6706067e-04   7.3143194e-04   6.5709767e-04   5.5626698e-04   5.9918768e-04   2.4763204e-04   1.2485636e-03   1.9531031e-03   8.7653892e-04   9.8254730e-04   9.0288505e-04  -4.9973318e-05   6.2406194e-05   2.7427942e-04   3.7366295e-05   4.1139865e-04   5.5145146e-04   6.4576359e-04   3.7002240e-04   3.1957217e-04   6.0938700e-04   6.6189567e-04   1.4661983e-04   1.4306886e-04   4.6817402e-04   3.4924873e-05   8.0496696e-04  -2.3619781e-04   3.6209554e-04   9.8712626e-04   6.1909284e-04   3.2749370e-04   2.5152299e-04   2.8095739e-05  -6.9152346e-05   1.1732490e-03  -1.2028451e-04   3.1622744e-04  -2.1344735e-04  -7.0399226e-05  -5.7992234e-04   5.2740058e-04   3.5407592e-04  -1.4800158e-04   1.5915593e-06   2.8761025e-04  -3.0285717e-04  -2.6286225e-04
   1.1853693e-03   6.3814042e-04   6.6344411e-04   7.2530779e-04   6.5419922e-04   5.5537804e-04   5.4983783e-04   1.6923914e-04   1.1159863e-03   1.7867020e-03   7.4039644e-04   8.7503454e-04   8.4499182e-04  -2.8945356e-05   8.5685402e-05   2.9424380e-04   4.1608469e-06   4.7200808e-04   5.7104288e-04   5.9328915e-04   3.8477726e-04   2.5575960e-04   6.2305824e-04   5.9786328e-04   2.6254225e-05   1.0984319e-04   5.3519540e-04   1.3464044e-05   8.9832256e-04  -3.4305314e-04   2.8055668e-04   9.5428072e-04   2.6626466e-04   2.4253716e-04   2.4544573e-04  -1.5500207e-04  -1.6282572e-04   1.1558876e-03  -1.4467692e-04   1.6314068e-04  -3.1884646e-04  -2.0380004e-04  -8.4998528e-04  -1.5271550e-04   2.2875138e-04  -7.3427342e-05  -1.6660496e-04  -4.0735886e-04   4.0381303e-04  -1.1944204e-03
   1.1864607e-03   6.5403560e-04   6.4590899e-04   7.4513996e-04   6.8255694e-04   6.7436061e-04   5.5860094e-04   3.3771293e-04   1.2891664e-03   1.9081462e-03   8.4562111e-04   9.6807082e-04   8.9407637e-04  -2.4524546e-05   9.5216557e-05   3.6083613e-04   1.0292015e-05   5.0915021e-04   5.4659124e-04   6.3585985e-04   4.0496764e-04   3.5131769e-04   5.7907595e-04   8.7083870e-04   4.8397666e-05   9.5087024e-05   3.9618812e-04   1.0465687e-04   7.6664804e-04  -2.3050468e-04   2.7836586e-04   9.3845557e-04   4.5298628e-04   3.2188074e-04   2.9404552e-04  -1.3765307e-04  -5.3643977e-05   1.2022661e-03  -1.3298639e-04   3.1464553e-04  -4.1559144e-04  -1.9603528e-04  -8.4506779e-04   6.8938680e-04   3.9029322e-04  -2.3877078e-04  -1.1027289e-04  -8.9621899e-04   4.9029632e-06   3.2372747e-04
   1.3028414e-03   6.6648528e-04   6.5940444e-04   7.4114272e-04   7.1807974e-04   5.7556655e-04   5.6873466e-04   4.5223974e-04   1.2068086e-03   1.8144298e-03   7.7475607e-04   8.7931193e-04   8.8391494e-04   4.0576811e-06   1.2791637e-04   3.7299693e-04   8.0147056e-06   4.8167168e-04   4.9576291e-04   5.8265572e-04   4.1074408e-04   3.4942507e-04   5.8330537e-04   6.2891905e-04   1.2527737e-04  -5.8111138e-05   6.6314195e-04   8.8151231e-05   1.1809802e-03  -2.9142783e-04   2.0737239e-04   8.5935835e-04   4.7686251e-04   2.8430932e-04   2.5825555e-04  -1.6638346e-04   2.5890573e-05   1.1747479e-03  -2.4240880e-04   3.0562354e-04  -7.3205045e-04  -3.9683809e-04  -1.1322948e-03  -2.7187206e-04   3.5271651e-04  -4.6646831e-04  -3.0008133e-04  -7.3244824e-04   3.9096267e-04  -2.9892084e-04
   1.2089370e-03   5.1358447e-04   5.6336523e-04   6.5206212e-04   5.8864430e-04   4.7733242e-04   3.9310122e-04   5.0016632e-04   1.0525167e-03   1.5482545e-03   5.6979677e-04   6.9042179e-04   7.1983854e-04  -6.6186869e-05   3.7485719e-05   4.1124297e-04  -3.4533015e-05   4.6704226e-04   3.1783670e-04   4.4512335e-04   3.6360312e-04   2.8516876e-04   6.0446031e-04   6.2463933e-04   9.0587773e-06  -6.8736939e-05   5.9127354e-04   8.6709799e-05   1.0265362e-03  -2.2850462e-04   5.9594986e-06   9.0239418e-04   3.6924190e-04   3.3561524e-04   2.1777800e-04  -2.3954462e-04  -5.1201023e-05   1.2196464e-03  -1.5463780e-04   3.0329867e-04  -4.6958964e-04  -2.3192294e-04  -3.6537438e-04   8.2025718e-04   4.2227408e-04  -5.2610622e-04  -2.2767918e-04  -7.9423934e-04  -3.1714066e-05  -6.3038245e-04
   1.3045503e-03   6.5599132e-04   6.4629072e-04   7.3813478e-04   6.8728696e-04   6.0095033e-04   5.6971324e-04   5.5514241e-04   1.2308583e-03   1.8387053e-03   8.3734508e-04   9.0139196e-04   8.1859133e-04  -6.1742860e-05   1.4382139e-04   4.3838055e-04  -2.4413332e-05   4.5383186e-04   4.6217741e-04   5.1295944e-04   3.8957293e-04   3.6117842e-04   5.6405680e-04   7.4473221e-04   3.0828887e-05   5.1566822e-05   4.9737596e-04   5.7401357e-05   8.6345884e-04  -2.8164525e-04   1.1049410e-04   8.8903552e-04   2.8357410e-04   2.6891564e-04   1.7480818e-04  -2.7966392e-04   5.0073275e-05   1.2109447e-03  -1.4267910e-04   3.5486589e-04  -8.6030620e-04  -3.4407192e-04  -8.9427450e-04   5.9972081e-04   3.4394418e-04  -3.8651880e-04  -3.5420756e-04  -5.4754701e-04  -2.5833791e-04  -3.3100700e-04
   1.1822026e-03   5.4647442e-04   5.4784020e-04   6.7403028e-04   6.1431126e-04   4.6017629e-04   4.4805466e-04   3.7484610e-04   1.0880678e-03   1.6467065e-03   6.7744241e-04   7.7402394e-04   7.2408462e-04  -9.4411298e-05   1.0794726e-04   3.8411422e-04  -1.0015785e-04   4.4513747e-04   3.6749535e-04   3.8892779e-04   3.1961343e-04   2.7460235e-04   4.4802445e-04   5.3576427e-04  -8.2463674e-05  -9.3575261e-05   4.1908099e-04   4.5902565e-05   1.0660811e-03  -3.6863110e-04  -9.0297935e-06   8.0481090e-04   2.2388621e-04   1.3681485e-04   1.1380431e-04  -3.9946381e-04  -2.2541636e-04   1.0973642e-03  -2.3712551e-04   1.3478777e-04  -9.4485364e-04  -6.3060434e-04  -8.2758570e-04   1.3820895e-04   1.6913045e-04  -2.6019578e-04  -4.1133043e-04  -1.1080480e-03  -2.6208995e-04  -3.9911779e-04
   1.1423286e-03   5.4271001e-04   4.8520468e-04   6.3006760e-04   6.4560038e-04   5.3434819e-04   4.8471859e-04   2.4762956e-04   1.1440028e-03   1.7929302e-03   7.7674992e-04   9.1697293e-04   7.4158149e-04  -1.9326467e-04  -1.2645441e-04   3.6765169e-04  -1.4970380e-04   4.2252635e-04   2.7593016e-04   3.9194652e-04   3.2460014e-04   3.4604728e-04   5.5956916e-04   6.8759511e-04  -3.3537988e-05  -1.0954568e-04   4.1054090e-04   4.1504391e-05   7.7552290e-04  -3.0355522e-04   1.8459510e-06   7.6532701e-04   3.2180990e-04   1.7002129e-04   1.4888957e-04  -4.3858364e-04  -2.0895252e-04   1.1408825e-03  -2.1315920e-04   3.0974153e-04  -8.2622305e-04  -4.9905316e-04  -6.9240824e-04   8.7199011e-04   3.0728828e-04  -2.2028512e-04  -4.0941715e-04  -9.3905500e-04  -2.3431241e-04   4.0361242e-04
   9.4283442e-04   5.6274969e-04   4.8906368e-04   6.8078225e-04   5.8996474e-04   4.7231730e-04   4.6946036e-04   6.0153124e-04   1.0651535e-03   1.7012194e-03   6.9946778e-04   8.3351572e-04   6.9137802e-04  -2.4034637e-04   6.2008612e-06   3.6666825e-04  -1.6083402e-04   3.9858770e-04   4.8617460e-04   3.4374531e-04   3.0038506e-04   2.5260510e-04   3.9730576e-04   6.7358877e-04  -1.4574493e-04  -1.7603558e-04   3.5782059e-04   4.1256280e-06   9.9617371e-04  -3.7534322e-04  -1.0481232e-04   7.0523913e-04  -5.6483455e-06   1.0448699e-04   2.6913533e-06  -4.5653596e-04  -1.5227003e-04   1.0775287e-03  -2.5255283e-04   3.0119560e-04  -8.1785588e-04  -5.5873679e-04  -1.3862888e-03  -1.8277191e-04   2.7710834e-04  -4.7410894e-04  -4.7425274e-04  -1.4486742e-04  -7.6706446e-04  -1.0189675e-03
   9.1894378e-04   4.0783492e-04   3.5228688e-04   5.6724844e-04   4.5645729e-04   3.7185010e-04   3.3090240e-04   6.0321465e-05   8.1293430e-04   1.3975948e-03   4.6135165e-04   5.6033372e-04   5.2330631e-04  -2.9069727e-04  -5.8921651e-05   2.6985144e-04  -2.3968301e-04   3.5200050e-04   1.9503043e-04   1.9714511e-04   2.2620746e-04   1.8584027e-04   4.0390043e-04   5.6207576e-04  -2.8569871e-04  -2.1934272e-04   3.1744534e-04   8.3144778e-06   7.9906703e-04  -3.4060376e-04  -1.3384994e-04   6.9611357e-04   1.2949016e-04   2.2198836e-05  -1.3534311e-05  -3.7271241e-04  -3.4887079e-04   9.8833500e-04  -2.0161373e-04   3.0905241e-04  -6.3881965e-04  -5.4319715e-04  -9.6000463e-04  -1.5375389e-04   2.8772387e-04  -3.6196155e-04  -3.9064334e-04  -8.9186372e-04  -2.0314874e-04  -7.4633345e-04
   1.0226488e-03   5.3794787e-04   3.7830195e-04   6.3708978e-04   5.3796836e-04   4.5554628e-04   4.0924776e-04   5.4869824e-04   1.0289042e-03   1.6708713e-03   6.3894113e-04   8.3105109e-04   6.0476316e-04  -3.1652398e-04  -2.0787062e-05   2.3344046e-04  -2.4912023e-04   3.4333661e-04   2.3998087e-04   2.5680213e-04   2.3010657e-04   1.9972440e-04   5.1743683e-04   7.0867676e-04  -1.7053781e-04  -2.0926161e-04   2.2163692e-04   5.4718435e-06   7.7406794e-04  -4.0368305e-04  -1.3604264e-04   6.7988277e-04   2.6524818e-04   1.4067331e-05  -4.3936951e-05  -4.6692503e-04  -2.6066237e-04   9.9019811e-04  -3.3479021e-04   4.7801408e-05  -7.3846575e-04  -5.1892467e-04  -9.3573885e-04  -2.0792418e-04   2.0551650e-04  -8.2921068e-04  -5.3237099e-04  -4.6205518e-04   1.7446376e-04  -5.8904599e-04
   9.4559032e-04   4.3263813e-04   2.8389838e-04   5.8196351e-04   4.4126704e-04   3.8929723e-04   3.0937413e-04   3.5539124e-04   8.5922889e-04   1.4334247e-03   4.4506858e-04   6.6029024e-04   5.3732918e-04  -3.7523673e-04  -1.7088198e-04   1.7410881e-04  -3.3168070e-04   3.3159385e-04   9.2930357e-05   1.0604033e-04   1.7009808e-04   1.2343531e-04   2.7375706e-04   5.5271084e-04  -2.0104734e-04  -3.5745630e-04   3.1554792e-04  -3.8510370e-05   8.6126337e-04  -4.8132654e-04  -1.2350392e-04   6.2788965e-04   4.9081769e-05  -1.1322696e-04  -1.3556078e-04  -7.1273599e-04  -2.5456407e-04   8.6483109e-04  -4.8831163e-04  -9.8774137e-05  -9.6173747e-04  -6.2255387e-04  -1.1156555e-03  -3.8394093e-04   7.1071467e-05  -7.4915856e-04  -6.4540975e-04  -9.0271549e-04  -4.2649690e-04  -1.0099108e-03
   9.1411459e-04   4.8656375e-04   2.8782242e-04   5.7791144e-04   4.9050769e-04   4.3891303e-04   3.6934053e-04   1.9937068e-04   9.7137061e-04   1.5959446e-03   5.3755648e-04   7.7620230e-04   5.6553527e-04  -3.9648855e-04  -1.8603991e-04   2.0842250e-04  -3.6709799e-04   3.7424031e-04   1.8302781e-04   1.5131285e-04   1.8164626e-04   1.4202218e-04   4.1034186e-04   7.3587173e-04  -2.0683730e-04  -2.4244511e-04   1.7994318e-04  -2.7923905e-05   7.8509620e-04  -4.1510013e-04  -5.0895462e-05   6.9818116e-04   1.9282693e-04  -6.1471997e-05  -2.9535469e-05  -5.6430593e-04  -2.3572592e-04   8.6625747e-04  -3.5075392e-04   9.0762405e-06  -9.0536545e-04  -5.5159174e-04  -8.4340764e-04   1.0269108e-04   9.7804375e-05  -7.7975274e-04  -5.8244483e-04  -1.4137708e-03  -3.0502304e-04  -8.5910418e-05
   9.2829799e-04   4.7652953e-04   2.6907868e-04   5.9187214e-04   4.5349693e-04   4.0217527e-04   2.5662410e-04  -4.1295534e-06   9.4917289e-04   1.4492195e-03   4.5085765e-04   6.1800907e-04   5.1973946e-04  -3.6346316e-04  -2.1756625e-04   1.7549790e-04  -3.0646505e-04   3.8544947e-04  -8.4575426e-05   6.6943132e-05   1.7629571e-04   9.2776958e-05   2.4952338e-04   5.7097455e-04  -9.2809365e-05  -3.4931541e-04   2.3821284e-04  -8.0996206e-06   7.5844838e-04  -5.0067133e-04  -5.5378401e-05   7.0866983e-04   1.9310268e-04  -1.1009022e-04  -1.9978883e-04  -8.1652432e-04  -4.2714062e-04   8.8279467e-04  -4.1531533e-04  -1.1616748e-04  -9.2666771e-04  -5.9723604e-04  -7.1606145e-04  -2.5944566e-05   3.3649263e-05  -8.3205942e-04  -6.5440038e-04  -1.5612368e-03  -2.6601262e-04   3.1878666e-05
   7.5144391e-04   3.5150172e-04   2.1500778e-04   4.6389786e-04   3.9645811e-04   3.7367560e-04   2.0850058e-04  -8.3883264e-05   8.3665823e-04   1.4317464e-03   4.4154286e-04   5.7799695e-04   5.2680203e-04  -2.4498062e-04  -1.1571473e-04   1.8951806e-04  -2.5182695e-04   3.9034072e-04   1.4736937e-04   2.9108278e-05   1.4872922e-04   7.3015515e-05   4.4571917e-04   5.5843982e-04  -8.2901817e-05  -2.5642171e-04   3.5820485e-04   2.8102084e-05   7.7611947e-04  -4.5683922e-04  -8.3856619e-05   6.7074673e-04   1.6948402e-04  -3.9755869e-05   2.3711942e-05  -7.5963436e-04  -4.0792769e-05   8.0997386e-04  -2.9503615e-04  -2.0040316e-06  -8.3583943e-04  -5.6975777e-04  -7.9172722e-04   2.9030216e-05   1.2413539e-04  -5.0410343e-04  -4.8022447e-04  -1.3637211e-03   1.4197314e-04  -5.7819689e-04
   8.3545240e-04   4.8100296e-04   2.8952601e-04   5.0284999e-04   4.4703303e-04   3.8514077e-04   3.2593205e-04   2.1878759e-04   1.0364624e-03   1.4383846e-03   5.2581506e-04   5.8782182e-04   5.1653187e-04  -2.5114889e-04  -3.7149999e-05   2.0709026e-04  -2.8126256e-04   3.9286714e-04   3.9016861e-05   6.9342517e-05   1.7224019e-04   1.0430474e-04   5.3554960e-04   5.2712014e-04  -1.2594403e-04  -2.9890385e-04   2.9605359e-04  -2.2478323e-05   4.9187633e-04  -5.0884282e-04  -1.3139719e-04   5.6155078e-04   1.6863653e-04  -1.5761437e-04  -8.9082845e-05  -7.3140161e-04  -3.8149953e-04   8.1738661e-04  -4.3230288e-04  -1.8870624e-04  -1.0396893e-03  -6.7312765e-04  -1.2758570e-03   1.7442538e-04   1.0359861e-04  -6.6205912e-04  -5.8342732e-04  -8.6597523e-05   6.8377603e-06  -1.7136097e-04
   7.8965659e-04   3.7766225e-04   2.2165049e-04   4.3250486e-04   3.6955060e-04   2.9706411e-04   2.3393806e-04   2.5891274e-04   8.1650290e-04   1.2007380e-03   3.7444095e-04   4.3813672e-04   4.6154659e-04  -3.3659139e-04  -1.0780508e-04   1.4949386e-04  -3.6716732e-04   3.4969649e-04  -1.7421791e-05  -1.8182674e-05   1.4988170e-04   1.1928050e-04   3.7012325e-04   5.3121918e-04  -1.9438718e-04  -2.2001256e-04   2.2743562e-04  -1.1858870e-05   7.9829060e-04  -5.2055845e-04  -2.2367846e-04   6.2532758e-04   6.5344182e-05  -2.0706259e-04  -1.8276564e-04  -7.4352563e-04  -3.9926873e-04   8.1018277e-04  -3.9760760e-04  -5.3381791e-05  -9.7228732e-04  -6.9393520e-04  -8.3193695e-04   1.4712846e-04   1.4616591e-04  -7.6755794e-04  -4.5425797e-04  -2.3158999e-04   6.3434309e-05   4.8270085e-04
   8.4217801e-04   5.0835451e-04   3.0187695e-04   4.9998070e-04   4.5434595e-04   4.0665251e-04   3.5800395e-04   2.3412403e-04   1.0683351e-03   1.4793777e-03   6.1972364e-04   6.8193756e-04   5.6487194e-04  -2.2229453e-04   2.3929040e-05   2.0977261e-04  -3.1228425e-04   3.6313012e-04   7.2578798e-05   8.4033767e-05   1.9516147e-04   1.3222835e-04   5.6365010e-04   6.8264821e-04  -1.2218859e-04  -2.9398862e-04   2.8495982e-04  -7.6780470e-06   8.6835388e-04  -5.4793159e-04  -1.8111648e-04   6.0386799e-04   2.8431028e-04  -1.6518976e-04  -1.0640706e-04  -6.5772643e-04  -3.3427190e-04   7.6655619e-04  -4.4164830e-04  -7.0300579e-05  -7.3216995e-04  -5.9515500e-04  -6.1158824e-04  -1.6413494e-04   1.1399417e-04  -9.2109811e-04  -5.0412485e-04  -5.1605346e-04  -5.7790934e-05  -1.4606222e-03
   8.1922067e-04   4.3525090e-04   2.6661556e-04   4.4527679e-04   4.1375536e-04   3.4373961e-04   2.5677431e-04   8.0939790e-05   9.6858613e-04   1.3366319e-03   5.1669765e-04   6.5537781e-04   5.0279294e-04  -3.1446319e-04  -4.2728760e-05   1.6034806e-04  -3.8430167e-04   3.7215967e-04   1.9458872e-05   5.0079823e-05   1.8793005e-04   1.1980526e-04   5.0038588e-04   6.6256878e-04  -2.7448623e-04  -3.0209008e-04   2.6306414e-04  -2.7781350e-06   7.8373891e-04  -5.8003084e-04  -2.9950455e-04   5.9270271e-04  -5.4149754e-05  -2.8573014e-04  -6.1629347e-05  -7.7148760e-04  -4.2526488e-04   7.3952269e-04  -5.2682625e-04  -2.3344456e-04  -9.4399473e-04  -6.6130277e-04  -9.0941030e-04  -3.5785718e-04   6.8754474e-05  -7.9543359e-04  -4.5392665e-04  -1.5342899e-04   4.7392212e-05  -2.5948617e-04
   7.8694196e-04   4.9591379e-04   2.8861302e-04   4.4036366e-04   4.4732375e-04   3.9863875e-04   3.0123774e-04   3.2527850e-04   1.1237673e-03   1.5366466e-03   6.7384681e-04   8.2818884e-04   6.3974503e-04  -2.5936100e-04   4.2459425e-05   1.9446063e-04  -3.3381995e-04   3.6289383e-04   2.8935311e-04   1.3082470e-04   2.3414257e-04   1.8656571e-04   6.2672456e-04   7.2654354e-04  -2.0634344e-04  -1.4711759e-04   3.9972737e-04   7.5127759e-06   8.3249295e-04  -4.9312657e-04  -1.5021068e-04   6.2738353e-04   2.6999720e-04  -9.3544171e-05  -3.7652848e-05  -6.6559884e-04  -4.5243013e-04   7.4479548e-04  -3.5645685e-04  -4.4119110e-06  -8.5540337e-04  -5.2696309e-04  -1.0603361e-03  -2.8129687e-04   1.6903704e-04  -6.1683450e-04  -3.3430106e-04  -5.1671453e-04  -6.0522283e-04   1.7147401e-04
   8.4901601e-04   4.7675884e-04   3.4596253e-04   4.2872850e-04   4.2044732e-04   4.3311258e-04   2.8756217e-04   1.8796838e-04   1.0978456e-03   1.3989777e-03   6.1147078e-04   7.4823003e-04   5.8481412e-04  -1.5836889e-04  -1.2312460e-04   1.6575848e-04  -3.1847158e-04   3.0983717e-04   2.4468920e-04   1.0042833e-04   2.1172245e-04   9.4364281e-05   4.4830338e-04   7.4624043e-04  -1.7843417e-04  -1.7178153e-04   3.4472696e-04  -6.6256704e-05   5.1134086e-04  -5.6694087e-04   3.9358270e-06   6.6571491e-04   2.8594697e-04  -1.7773430e-04  -6.0900449e-05  -6.2269636e-04  -3.4819069e-04   6.7830540e-04  -4.5097093e-04  -1.9902500e-05  -7.2766357e-04  -3.7089022e-04  -6.2946061e-04  -4.7782212e-04   3.3438151e-05  -4.8557232e-04  -3.2952739e-04  -7.0896227e-04   2.6320096e-04  -6.8211358e-04
   6.5776624e-04   3.2233133e-04   2.8853750e-04   3.3350749e-04   3.6312069e-04   3.7516680e-04   1.9892279e-04   9.0531299e-05   1.0345114e-03   1.3643615e-03   6.1623188e-04   6.7627884e-04   6.0427882e-04  -9.2574788e-05   1.1358480e-04   7.9591351e-05  -2.9018472e-04   2.9018251e-04   2.1665524e-04   9.0285648e-05   1.7984402e-04   1.2206483e-04   5.6816300e-04   7.2553148e-04  -1.2933464e-04  -7.5090014e-05   3.5598237e-04  -1.2630518e-05   5.7445554e-04  -3.8022385e-04   3.0178886e-05   6.5598264e-04   3.8576906e-04  -7.5617136e-05  -6.2953113e-05  -4.3038491e-04  -2.6519803e-04   7.0079719e-04  -4.4166177e-04   4.1373642e-05  -6.3284388e-04  -3.1675145e-04  -7.3217932e-04   1.5476176e-04   1.4041387e-04  -5.5872917e-04  -1.6128152e-04  -8.1331813e-04   7.8058336e-04  -4.6923198e-04
   9.7700930e-04   4.8974244e-04   4.1762329e-04   4.3496708e-04   4.4234673e-04   4.4194525e-04   3.4394112e-04   1.7557121e-04   1.1504948e-03   1.4125432e-03   7.0798054e-04   8.1330276e-04   6.7947817e-04  -1.1137043e-04   2.2479009e-05   1.4450945e-04  -3.0565867e-04   2.7328494e-04   3.2810279e-04   1.6516275e-04   2.0142712e-04   1.8320831e-04   6.6372473e-04   6.8856229e-04  -1.6157790e-04  -6.1028109e-06   3.4286579e-04  -1.0923074e-05   5.6008599e-04  -5.0985691e-04  -5.9100195e-05   6.5674249e-04   2.8398188e-04  -1.7225076e-04  -4.2253464e-07  -2.8999354e-04  -3.1179746e-04   7.1095309e-04  -3.7041187e-04  -1.0144293e-04  -3.1591274e-04  -2.9950755e-04  -4.4446471e-04   3.9318111e-05   9.6021475e-05  -2.0486739e-04  -2.1646825e-04  -6.2136498e-04  -2.8469850e-04   2.6356863e-04
   8.3558576e-04   4.1798493e-04   3.9697293e-04   3.9016487e-04   4.2271696e-04   3.6026162e-04   2.5605888e-04   1.1790944e-04   8.1182038e-04   1.1890370e-03   5.3948001e-04   6.6536327e-04   6.3065212e-04  -1.9153526e-04  -7.0595022e-05   7.6252858e-05  -3.6949024e-04   2.7899112e-04   9.0675516e-05   1.0472329e-04   1.6177568e-04   1.3099241e-04   5.2181043e-04   6.8423460e-04  -1.2641175e-04  -1.3589997e-04   2.5756031e-04  -5.4155906e-05   6.6650467e-04  -4.9255777e-04  -3.9145769e-05   6.8689015e-04   1.0835689e-04  -1.1174395e-04   8.1601931e-05  -4.1381217e-04  -2.2177679e-04   7.4382202e-04  -3.9144032e-04  -3.2086027e-06  -3.9995916e-04  -2.5148384e-04  -5.5382540e-04   4.3968658e-04   1.0242531e-04  -4.3421952e-04  -1.6838170e-04  -7.3826720e-04  -1.2204408e-04  -3.1186489e-04
   1.0828800e-03   6.0161139e-04   4.7963351e-04   5.3468841e-04   5.4270664e-04   4.6121201e-04   3.6410950e-04   3.0844731e-04   1.1699778e-03   1.4546493e-03   7.3299889e-04   9.5252343e-04   8.6941547e-04  -2.3912743e-04   7.6999153e-05   1.6295699e-04  -4.4236481e-04   3.3176414e-04   2.0633286e-04   3.0103189e-04   2.6416956e-04   2.2015786e-04   5.9015688e-04   8.5234008e-04  -1.8632211e-04   9.1325099e-05   1.1546885e-04  -2.9098230e-05   4.9271533e-04  -4.6731820e-04  -1.3344435e-04   7.3401909e-04   4.0863405e-04  -2.5707895e-05   1.0747399e-04  -3.6150933e-04  -3.5719777e-04   7.7543739e-04  -4.5986753e-04  -1.1217878e-04  -5.5126194e-04  -1.0841122e-04  -7.7318406e-04   1.7653673e-04   1.1272026e-04  -3.3737413e-04  -2.5805665e-04   1.3609868e-04  -6.4285158e-04   3.1212981e-05
   1.1117363e-03   5.7190476e-04   4.9416721e-04   5.3723669e-04   5.3157465e-04   4.3192750e-04   2.8683394e-04   7.3538758e-05   9.5509185e-04   1.2696026e-03   5.8256550e-04   7.8109169e-04   8.2077400e-04  -2.6817236e-04  -8.6356966e-05   1.1729485e-04  -4.5207253e-04   3.4587883e-04   2.2091690e-04   2.5941172e-04   2.5639666e-04   2.7421597e-04   5.9267576e-04   7.4265146e-04  -2.7927483e-04  -5.2150957e-05   2.8038980e-04  -7.0818773e-05   4.6711095e-04  -5.8176107e-04  -1.9901157e-04   6.9975859e-04   2.1378275e-04  -4.8908300e-05   4.5192382e-06  -3.8185911e-04  -5.3657440e-04   7.7038817e-04  -4.5922806e-04  -5.6562749e-05  -7.8124669e-04  -3.8096448e-04  -3.1183934e-04   5.3914706e-04   7.7035416e-05  -4.1695926e-04  -2.1836978e-04  -6.8330794e-04   5.8064220e-04   7.9978938e-04
   1.1410158e-03   6.3660590e-04   5.6244095e-04   5.7846418e-04   6.0705317e-04   5.4980756e-04   3.2027558e-04   1.0802727e-04   1.0956291e-03   1.3946014e-03   7.0632558e-04   8.1991899e-04   9.1269205e-04  -5.9960832e-05  -7.9340803e-05   1.7379913e-04  -3.2130879e-04   3.8738901e-04   1.1370730e-04   3.2366219e-04   3.0746334e-04   3.0026442e-04   6.9795188e-04   7.8840333e-04  -5.6670731e-05   1.3226108e-04   2.7695161e-04  -2.2565337e-05   7.2585960e-04  -4.6992328e-04   5.4855533e-05   7.9883722e-04   2.9440795e-04   6.8462345e-05   8.8288958e-05  -1.5890319e-04  -2.8209618e-04   8.6421205e-04  -4.2506252e-04   6.4649561e-07  -4.0862395e-04  -3.2022281e-04  -3.9492999e-04  -3.5242131e-04   1.4811190e-04  -4.2808524e-04  -1.7650286e-04  -2.5228702e-04   1.2232433e-04   4.8104482e-04
   1.1324106e-03   6.0449843e-04   5.9973978e-04   5.7748437e-04   5.9234235e-04   5.0592300e-04   3.1859393e-04   2.8057949e-04   9.2587416e-04   1.2070258e-03   6.0781388e-04   6.5663294e-04   8.1189891e-04  -1.9164370e-05   4.9569870e-05   2.1377520e-04  -2.5011844e-04   4.0002898e-04   1.0196469e-04   2.7352344e-04   2.9617123e-04   2.8981885e-04   5.7414983e-04   6.5977115e-04  -7.7409633e-05   2.4467774e-05   4.7962830e-04   1.8231452e-05   5.7376869e-04  -5.0762139e-04   1.2135892e-05   7.8850013e-04   3.3770458e-04   4.0977778e-07   8.8572822e-05  -3.2897620e-04  -2.8392539e-04   8.4261183e-04  -4.4863924e-04  -1.1109761e-04  -4.6129801e-04  -3.2361757e-04  -4.3011518e-04   5.8111612e-04   1.0120660e-04  -6.0539949e-04  -3.1234388e-04  -6.0548272e-04  -2.5565707e-05   7.7491981e-04
   1.1772307e-03   5.1851192e-04   5.5783725e-04   5.2380835e-04   6.1168143e-04   4.7682217e-04   3.2365552e-04   2.6529646e-04   9.2164968e-04   1.2780104e-03   6.7776465e-04   7.3100341e-04   8.5288845e-04  -1.7216187e-05   1.2593318e-04   2.6825097e-04  -2.2118315e-04   4.1965843e-04   2.8113683e-04   2.9675095e-04   2.8640547e-04   3.2325808e-04   6.8415300e-04   7.3466572e-04   1.2778793e-05   1.8503460e-04   4.6860735e-04   8.5936554e-05   8.2209019e-04  -3.6830219e-04   1.0512368e-05   7.6627830e-04   4.6879976e-04   1.1561288e-04   1.4454946e-04  -1.2598831e-04  -1.1834113e-04   9.1618253e-04  -4.2668325e-04  -2.2625036e-05  -4.3708610e-04  -3.4908930e-04  -6.7358284e-04   4.5883891e-04   1.4079707e-04  -3.6326109e-04  -2.0348540e-04   7.4338686e-04   5.5917900e-04  -1.4920952e-04
   1.0769391e-03   5.9156801e-04   6.5574597e-04   5.9253979e-04   6.3103042e-04   4.8295298e-04   3.5293621e-04   5.8947777e-04   9.3407131e-04   1.1989753e-03   6.4780627e-04   6.4069522e-04   8.3441124e-04   8.0854232e-05   8.3591985e-05   3.4055731e-04  -1.5042187e-04   4.1642698e-04   2.6293105e-04   2.8270602e-04   2.7526298e-04   2.4986838e-04   5.8217667e-04   5.7487848e-04  -1.0543956e-05   6.7393950e-05   5.1221187e-04   8.8850007e-05   8.3556812e-04  -3.9897428e-04  -5.0775889e-06   7.8709528e-04   5.0517515e-04   1.4256137e-04   1.8941946e-04  -2.1220185e-04  -1.3719437e-04   9.1759296e-04  -4.0884243e-04   6.6964174e-05  -4.6390211e-04  -3.5148792e-04  -5.0107541e-04  -2.5808346e-04   9.8652679e-05  -2.3905373e-04  -4.2625258e-04  -3.2468233e-04   2.6112419e-04   1.9231261e-04
   1.1398302e-03   4.6780534e-04   5.2741042e-04   5.0867605e-04   5.3314085e-04   3.7933060e-04   2.4312522e-04   2.6339976e-04   5.8776577e-04   9.5831306e-04   4.3840703e-04   4.8141115e-04   7.1076542e-04   2.0118396e-06   2.8965582e-05   3.0137441e-04  -1.9288989e-04   3.9734409e-04   8.6657747e-05   1.4106366e-04   2.1011759e-04   1.7101767e-04   4.9031951e-04   5.0520588e-04  -1.6684986e-04  -1.2377316e-04   5.0477084e-04   9.7309698e-05   7.4274908e-04  -4.0864348e-04  -1.1679331e-05   8.0972910e-04   2.5680463e-04   1.1744550e-04   7.2281902e-05  -3.5783346e-04  -2.4645726e-04   8.7830581e-04  -4.1237424e-04   2.6576022e-06  -5.5344263e-04  -2.6175971e-04  -4.2678061e-04   9.4376410e-05   1.8600220e-04  -3.8225634e-04  -3.2790325e-04  -4.9366412e-04  -4.2020969e-04  -1.3261976e-03
   1.1894350e-03   5.6961307e-04   5.9594214e-04   5.4916891e-04   6.1723794e-04   4.7757366e-04   3.4440370e-04   3.7329789e-04   8.4749318e-04   1.1698951e-03   6.5214199e-04   6.0162618e-04   7.8583061e-04   1.3231943e-04   1.4072718e-04   3.2078353e-04  -1.2690762e-04   3.7909031e-04   2.0983370e-04   2.4065381e-04   2.1718185e-04   2.2362346e-04   6.2621199e-04   5.6590803e-04  -3.8700658e-05   5.5939421e-05   5.8712834e-04   6.2032981e-05   8.9282024e-04  -3.1276396e-04   7.8051280e-06   7.4216508e-04   3.7711882e-04   1.4154564e-04   9.9641649e-05  -2.5132755e-04  -7.0621943e-05   9.4363396e-04  -2.8192066e-04   4.9760474e-05  -6.3497794e-04  -3.1020443e-04  -6.3240540e-04  -5.9362361e-04   1.8292289e-04  -3.6389986e-04  -3.6403001e-04   1.1139068e-04   1.2801865e-05   8.1324787e-04
   1.2099040e-03   4.7637659e-04   5.5506435e-04   5.0714513e-04   5.7877321e-04   4.4259307e-04   2.8805644e-04   3.7657731e-04   8.0073852e-04   9.6592784e-04   5.0429889e-04   4.5039086e-04   6.9768610e-04   3.0233299e-05   7.7059522e-05   2.6547443e-04  -1.6031235e-04   3.5121461e-04   1.6283532e-04   1.5181386e-04   1.6872839e-04   1.4612876e-04   5.5923674e-04   3.7277205e-04  -5.7007121e-05  -1.7593887e-04   6.2455743e-04   5.1204286e-05   7.7601493e-04  -4.2032663e-04   2.9148189e-06   6.6823786e-04   3.4356385e-04  -2.5067893e-05   6.6946445e-06  -4.8736244e-04  -2.4464133e-04   8.4158720e-04  -3.6677642e-04  -8.9600850e-05  -8.3806162e-04  -5.4252119e-04  -3.9334563e-04  -9.9681376e-05  -1.7905713e-05  -6.0805480e-05  -5.1418605e-04  -4.8628013e-04   3.4642327e-04  -1.4925397e-04
   9.9885603e-04   4.3736480e-04   4.9557962e-04   4.6725475e-04   5.6777766e-04   4.2208639e-04   2.7405468e-04   2.8277579e-04   7.1626063e-04   1.0869529e-03   5.5710610e-04   5.7347619e-04   7.0349500e-04  -3.7778061e-06   6.7129993e-05   2.6600834e-04  -1.8586969e-04   3.5657652e-04   1.4398829e-04   1.9571210e-04   1.8041850e-04   2.6721234e-04   5.0196558e-04   5.4076791e-04  -1.4439894e-05   1.4781425e-05   5.3297018e-04   5.5417768e-05   8.0444373e-04  -2.9853187e-04  -6.8690351e-05   7.4293895e-04   3.5613301e-04   1.0323914e-04   1.9909097e-04  -2.8863887e-04  -1.4969317e-04   9.3643769e-04  -2.3483999e-04   4.5286015e-05  -7.0849346e-04  -4.9338478e-04  -4.1035420e-04  -5.8720610e-04   2.6026560e-04  -3.0438424e-04  -4.2180601e-04   2.9740686e-04   2.3414796e-04  -5.8325235e-04
   1.1184599e-03   4.8020255e-04   5.5246486e-04   5.3714763e-04   5.4855976e-04   4.7886692e-04   2.8659246e-04   2.8215136e-04   6.7805906e-04   1.0031259e-03   5.0081458e-04   5.4697029e-04   7.2368974e-04  -4.7926660e-05  -1.4749851e-06   3.2843629e-04  -2.3290861e-04   3.5509001e-04  -9.9826684e-06   1.9769922e-04   1.6162236e-04   1.7102808e-04   5.7450193e-04   6.4015226e-04  -1.7341250e-04  -2.0347492e-04   3.9071811e-04   3.8843340e-05   7.5069023e-04  -3.0591755e-04  -1.1255212e-04   6.6949567e-04   5.3312589e-04   5.0553717e-05   6.0951046e-05  -3.4609728e-04  -1.8348351e-04   9.0231432e-04  -4.3541216e-04  -4.3472905e-05  -6.9059833e-04  -5.6817941e-04  -1.1305845e-03   2.3418799e-04   1.1376158e-04  -6.2853319e-04  -5.5067200e-04   6.5446191e-05   1.4902200e-04   1.9398072e-05
   9.7121566e-04   3.4513554e-04   4.0689734e-04   4.6318531e-04   4.6594240e-04   2.8538809e-04   1.9131289e-04   3.6154871e-04   4.1264252e-04   7.2067324e-04   2.3205254e-04   3.2037793e-04   5.9068669e-04  -1.1796789e-04  -8.8219458e-05   2.1217157e-04  -2.9795303e-04   3.0477473e-04   2.5054102e-05   4.7098372e-05   8.9179339e-05   1.3445449e-04   3.8869400e-04   4.5753238e-04  -2.3313126e-04  -2.9777194e-04   4.2096956e-04   5.4226941e-05   6.6991756e-04  -4.0377048e-04  -1.1893994e-04   7.0634705e-04   2.0391583e-04  -2.3386203e-05   2.9074228e-05  -4.5156083e-04  -1.7962788e-04   8.4088993e-04  -3.7436042e-04   4.7049216e-05  -6.9803122e-04  -5.5361987e-04  -8.7350275e-04  -2.4858923e-04   4.9052396e-05  -1.5333208e-04  -4.8816262e-04  -1.2136158e-03   5.4594042e-04  -2.1576739e-03
   1.0532767e-03   4.6308257e-04   4.6398435e-04   5.4331694e-04   5.4177642e-04   4.4034884e-04   3.5156703e-04   2.9121593e-04   6.7699078e-04   9.6849602e-04   4.0121516e-04   5.4767239e-04   7.1768276e-04  -1.8220971e-04  -8.2314291e-05   2.6664356e-04  -3.2507521e-04   3.3320076e-04   1.7865614e-05   1.6246153e-04   1.2109117e-04   1.8802252e-04   4.1358187e-04   6.2303199e-04  -2.0693682e-04  -2.4378965e-04   2.3538481e-04   4.2950933e-06   8.1776216e-04  -3.7755995e-04  -2.1273224e-04   7.1938353e-04   2.6550959e-04   4.5442823e-05   2.6967438e-05  -3.0447225e-04  -1.9907011e-04   8.9569599e-04  -4.8234779e-04  -1.1806610e-04  -7.2423526e-04  -5.1007810e-04  -9.1907888e-04  -1.3031531e-03  -2.6360948e-07  -6.5534771e-04  -6.0324901e-04  -5.1223481e-04  -8.7759348e-05   1.1406426e-03
   8.7410683e-04   3.9097288e-04   4.0814790e-04   5.0626812e-04   4.8404373e-04   3.1858284e-04   1.6965465e-04   2.8966855e-05   4.8185533e-04   7.7515357e-04   1.7138201e-04   3.8345929e-04   6.4600230e-04  -3.3004559e-04  -2.0131910e-04   2.2917756e-04  -4.4307864e-04   3.5041419e-04  -7.3961019e-05   8.9578672e-05   8.0519967e-05   1.2898626e-04   3.7312275e-04   4.9164443e-04  -3.1281717e-04  -3.0226499e-04   1.3703230e-04  -3.5119508e-06   7.9056219e-04  -5.2511395e-04  -3.2685380e-04   6.4977532e-04   4.2495791e-05  -6.9367750e-05  -9.9651603e-05  -6.1748532e-04  -3.5280391e-04   8.4665389e-04  -5.6105154e-04  -1.0111395e-04  -7.1694254e-04  -7.8899472e-04  -1.2938266e-03  -1.1456929e-03  -1.9279503e-05  -9.1613800e-04  -7.7017857e-04  -4.4947455e-04  -1.4452657e-04  -1.1048074e-03
   8.7596441e-04   4.0823221e-04   3.7405870e-04   5.2851671e-04   5.4964348e-04   3.1610587e-04   2.6534576e-04  -6.5337474e-05   6.5413542e-04   9.0904802e-04   1.8204635e-04   4.9008313e-04   6.9829437e-04  -4.7182952e-04  -1.1320720e-04   2.9050111e-04  -5.3588004e-04   3.7818874e-04   8.3137806e-05   1.0680121e-04   1.1290369e-04   1.2307089e-04   4.0917611e-04   4.7765102e-04  -3.8777327e-04  -3.0050590e-04   1.8035775e-04  -3.8856459e-05   8.4996759e-04  -3.6549146e-04  -2.6458141e-04   7.3167065e-04   3.6530007e-04  -2.1607228e-05   6.8197655e-06  -5.6936982e-04  -3.6278676e-04   9.2369621e-04  -5.3761801e-04  -6.8838242e-05  -1.0004536e-03  -7.2067586e-04  -9.7501144e-04  -2.8333158e-04   5.1710056e-05  -8.0588070e-04  -7.2205171e-04  -7.1196962e-04  -1.5995232e-04  -1.3151530e-03
   9.6347858e-04   4.4649266e-04   3.8545311e-04   6.0103356e-04   5.4479053e-04   2.7080305e-04   2.7563630e-04  -1.2115163e-04   5.2030850e-04   8.5318927e-04   8.7067943e-05   4.3164697e-04   7.2338688e-04  -5.0982810e-04  -1.8633438e-04   2.6472946e-04  -5.8207236e-04   4.1780077e-04  -9.1906208e-05   9.6541022e-05   1.3157300e-04   2.0387748e-04   3.1959824e-04   4.3977005e-04  -4.8373439e-04  -4.7121121e-04   1.7734250e-04  -9.3772003e-05   5.8690761e-04  -4.5094456e-04  -4.5134642e-04   6.8750232e-04   2.3138776e-04  -8.5034226e-05  -8.8774286e-05  -6.5669429e-04  -3.4962979e-04   8.9605537e-04  -5.9018336e-04  -1.5178135e-04  -1.2678453e-03  -9.1161975e-04  -4.7244050e-04  -4.6945014e-04   7.5465054e-05  -8.1673608e-04  -9.2433847e-04  -2.7468544e-04   9.0692731e-05  -1.2782768e-03
   8.6983293e-04   3.3350906e-04   3.2839805e-04   5.2771904e-04   4.5663511e-04   2.2723791e-04   1.6346053e-04  -1.9911649e-05   5.3515518e-04   7.0990477e-04  -8.2499435e-05   2.5419722e-04   6.3686032e-04  -5.3511618e-04  -1.9149396e-04   2.5704261e-04  -5.8817305e-04   4.1217898e-04   5.0382856e-05   5.2083793e-05   1.3028506e-04   2.3959496e-04   3.7904724e-04   4.0660004e-04  -4.9171568e-04  -3.6398190e-04   2.3201782e-04  -6.7722474e-05   6.2315533e-04  -4.4408758e-04  -4.1782929e-04   7.0670503e-04   2.6577676e-04  -4.9660728e-05  -1.0860676e-04  -5.5984576e-04  -4.2022637e-04   9.2008058e-04  -5.3248694e-04  -5.6864406e-05  -1.3693675e-03  -7.3415058e-04  -1.3234281e-03  -5.5814727e-04   9.0456539e-05  -9.0329570e-04  -8.8695477e-04  -3.6260783e-04  -6.8323097e-05   3.2238176e-04
   9.5024396e-04   4.3794271e-04   4.1936347e-04   6.1430875e-04   5.2178343e-04   3.3050391e-04   2.9150461e-04  -4.1033574e-05   4.6906606e-04   7.8004674e-04   2.5632737e-05   2.2018066e-04   6.0513464e-04  -3.3156984e-04  -1.2183323e-04   2.1510239e-04  -4.2354150e-04   4.0101630e-04   1.2180975e-04   7.5385877e-05   1.3475594e-04   1.9901483e-04   3.3022524e-04   1.6934781e-04  -4.7984120e-04  -4.3309474e-04   2.5640955e-04  -9.6265387e-05   5.2419951e-04  -4.3509182e-04  -3.6501756e-04   7.3032471e-04   5.0247872e-05   3.9307553e-05  -6.9398979e-05  -5.5757328e-04  -4.8054758e-04   8.7592145e-04  -5.0742039e-04  -9.5309530e-05  -1.2051375e-03  -7.5608806e-04  -9.0651738e-04  -1.1122238e-03   4.5510900e-05  -1.0567136e-03  -9.4399124e-04  -1.1230720e-03  -6.7643513e-04   8.7531007e-05
   7.3766551e-04   3.2155256e-04   3.4234612e-04   5.4284529e-04   4.2549431e-04   1.4588148e-04   1.7938820e-04  -9.7710436e-05   3.0896085e-04   5.8046868e-04  -1.2914625e-04   4.4713393e-05   5.1992043e-04  -2.9896287e-04  -1.7518103e-04   1.0213921e-04  -3.9476028e-04   3.9964644e-04  -1.5967010e-04  -6.1786843e-05   9.2148366e-05   9.0757276e-05   2.7235324e-04   5.8468293e-05  -3.2377767e-04  -5.3904805e-04   2.9375457e-04  -1.6011922e-05   7.6020905e-04  -4.8280181e-04  -1.9562842e-04   7.7719596e-04   1.2933272e-04   1.7782495e-06  -1.3021975e-04  -5.7101646e-04  -2.6099541e-04   8.5922109e-04  -5.0866720e-04   9.9278783e-05  -1.0494078e-03  -7.4319070e-04  -2.7904083e-04  -9.9480408e-04   9.2790242e-06  -7.9026842e-04  -8.3937240e-04  -1.0543610e-03  -1.2522553e-04  -1.3979520e-03
   7.9772447e-04   3.9742293e-04   4.2533898e-04   5.8753142e-04   5.2632601e-04   3.3864882e-04   2.4983112e-04   2.8711715e-04   6.7816454e-04   8.3382672e-04   9.5204130e-05   2.6061703e-04   5.3179532e-04  -1.9391341e-04  -1.2581667e-04   2.1687050e-04  -2.8426465e-04   4.5648753e-04   7.0468152e-05   1.7130340e-05   1.2876758e-04   1.4512034e-04   3.5031128e-04   1.5755554e-04  -3.1256897e-04  -4.7331306e-04   2.8358304e-04   4.8707907e-06   8.7928202e-04  -4.3153658e-04  -1.3887031e-04   8.0423302e-04   4.1254194e-04   3.0885887e-05  -1.3955800e-04  -4.5727086e-04  -3.7771891e-04   9.1633009e-04  -4.4992342e-04  -8.2029219e-06  -1.0701505e-03  -6.9409329e-04  -9.0436963e-04  -2.0031200e-04  -4.0692332e-05  -7.6750276e-04  -8.0423162e-04  -8.0293248e-04  -2.8152566e-05  -6.8188389e-04
   7.2667917e-04   3.1268704e-04   3.9211204e-04   5.4964010e-04   4.4890391e-04   2.6162554e-04   2.1776790e-04   5.2515195e-05   3.9493057e-04   6.8012433e-04  -1.7481278e-05   1.7656224e-04   4.8483722e-04  -3.1675535e-04  -1.3852015e-04   1.8496023e-04  -3.0962855e-04   4.4606172e-04  -1.2027544e-04  -2.4109271e-05   9.8040749e-05   7.9720026e-05   2.6652837e-04   2.0278309e-05  -2.7764984e-04  -5.3520082e-04   3.4917434e-04  -3.4681223e-05   8.1008492e-04  -5.0263060e-04  -1.6881760e-04   7.6921808e-04   1.7735969e-04  -3.4990073e-05  -2.1274104e-04  -6.9287984e-04  -4.6105462e-04   8.6097926e-04  -5.7824049e-04  -1.1583252e-04  -1.3310673e-03  -9.3911035e-04  -8.9571305e-04  -2.3198780e-04  -8.3131919e-05  -8.4213779e-04  -9.1827306e-04  -6.0060999e-04  -3.9549414e-07  -1.1682782e-03
   6.6160975e-04   3.2972664e-04   3.7934841e-04   5.2459794e-04   4.8258115e-04   3.0797199e-04   2.7479889e-04   1.1262487e-04   6.4421014e-04   8.1810367e-04   1.3499432e-04   2.1497133e-04   4.8067977e-04  -1.4505586e-04  -4.8658218e-05   2.1559323e-04  -2.0232232e-04   4.6469303e-04   1.4701586e-04   1.0461884e-05   1.0101775e-04   1.3575815e-04   3.3971886e-04   1.0775592e-04  -2.7192684e-04  -5.4146757e-04   4.3075139e-04   2.6232716e-05   9.1786491e-04  -4.0413553e-04  -1.2122460e-04   7.9540297e-04   3.6166891e-04   4.6984034e-05  -1.3689963e-04  -7.1805489e-04  -3.5278499e-04   9.2194090e-04  -3.6828461e-04   1.4408999e-05  -1.1002173e-03  -8.5805700e-04  -7.6899497e-04  -3.2322673e-04  -2.2940354e-05  -5.7217974e-04  -8.9423743e-04  -9.4070041e-04  -5.1768817e-04  -6.0545682e-04
   5.8139086e-04   2.9475070e-04   3.5752708e-04   5.2130449e-04   4.1314150e-04   3.1782661e-04   2.8202319e-04   1.8950288e-04   6.1013649e-04   7.0858054e-04   8.8615656e-05   1.6997948e-04   4.3938545e-04  -1.3794859e-04  -5.9011039e-05   2.1838331e-04  -1.9639640e-04   4.3792790e-04   1.0075657e-04  -2.3797746e-05   6.7816596e-05   4.8915059e-05   1.9166086e-04   8.8420624e-05  -2.4563365e-04  -4.7772416e-04   4.5296835e-04   2.6695030e-05   8.3367043e-04  -4.3926248e-04  -2.0877957e-05   7.6874718e-04   2.8032548e-04  -9.8789402e-05  -1.9697082e-04  -5.4098305e-04  -2.7952317e-04   8.7428599e-04  -5.0752406e-04  -1.1915003e-04  -1.3802632e-03  -8.7530853e-04  -1.2490058e-03  -4.8146167e-04  -1.2376897e-04  -7.3696143e-04  -8.0614066e-04  -1.3922217e-03  -2.2744629e-04  -1.0538667e-03
   6.2892272e-04   1.5932607e-04   2.8362797e-04   4.3251432e-04   3.6938384e-04   2.2777492e-04   1.8747401e-04  -2.5252186e-04   6.0716522e-04   7.4449036e-04   1.3135698e-04   2.6921893e-04   4.2961678e-04  -1.7233376e-04  -9.8436125e-05   2.2947024e-04  -2.7237891e-04   4.5013404e-04   1.0037291e-04   7.9182164e-06   7.0020396e-05   7.3173498e-05   3.3742219e-04   1.8607907e-04  -2.7748346e-04  -3.5005866e-04   3.3247855e-04   1.7491788e-05   7.6182897e-04  -4.0487773e-04  -9.5833391e-05   7.7808194e-04   4.2523464e-04  -2.6007954e-06  -1.2749182e-04  -6.1432418e-04  -3.9247033e-04   8.8436913e-04  -4.1646441e-04   1.1850009e-05  -1.0788438e-03  -8.2505128e-04  -1.3103812e-03  -3.2947134e-04   7.1951348e-05  -6.8833097e-04  -8.5076079e-04  -7.8384648e-04   8.7970921e-06  -1.4564771e-03
   6.3657557e-04   2.8042507e-04   3.9037882e-04   5.1061163e-04   3.9442995e-04   2.4345409e-04   2.7763541e-04  -1.2390708e-04   7.1584614e-04   7.1101001e-04   1.6047989e-04   2.1770548e-04   4.4024596e-04  -1.9789679e-04  -1.3048257e-04   1.4385632e-04  -2.3054455e-04   3.6597051e-04   1.3651238e-04   4.9520331e-05   5.3018575e-05   3.0750696e-05   3.4108205e-04   1.2744665e-04  -3.8754582e-04  -5.1811151e-04   4.0388183e-04  -4.4812179e-05   7.3508499e-04  -3.7429971e-04  -1.5222460e-04   7.2969194e-04   3.3984351e-04  -6.6961220e-05  -2.5215148e-04  -6.3135504e-04  -2.8180296e-04   8.6298480e-04  -4.8555736e-04  -4.4024359e-06  -1.1170289e-03  -7.8085676e-04  -5.8061961e-04   3.1238407e-04  -1.4740483e-04  -7.0200808e-04  -8.4039121e-04  -8.3993928e-04  -5.6645751e-04  -1.5560710e-03
   6.5817178e-04   1.8149335e-04   2.9375707e-04   4.4580374e-04   3.2724551e-04   1.7330892e-04   1.3603049e-04  -3.2638753e-05   4.3081143e-04   5.0426478e-04  -2.8036438e-05   1.4397202e-04   3.8100570e-04  -2.5812470e-04  -2.4800705e-05   1.1633858e-04  -3.6799084e-04   3.8499082e-04   2.9899014e-05  -2.7110154e-05   4.6497116e-06   2.2618433e-05   2.4357291e-04   1.5356898e-04  -4.6554409e-04  -6.2198599e-04   2.7193382e-04  -4.6609050e-05   8.9289807e-04  -4.5916482e-04  -2.0087503e-04   7.1525411e-04   9.5575691e-05  -7.5377466e-05  -1.4512514e-04  -7.2032842e-04  -3.0836320e-04   9.3781250e-04  -4.9585715e-04   5.7644571e-05  -1.0585845e-03  -8.0920052e-04  -7.7504670e-04   1.5609624e-04  -7.7148965e-05  -6.4596243e-04  -8.3398068e-04  -1.1664227e-03  -5.8420963e-04  -1.7738203e-03
   8.6186460e-04   3.2084275e-04   3.7522125e-04   5.5237656e-04   4.7556544e-04   2.6449852e-04   2.5636013e-04   1.0594551e-04   6.1789062e-04   7.3757302e-04   1.4689680e-04   3.9260901e-04   5.1512232e-04  -3.7318887e-04  -1.7590614e-04   2.1558556e-04  -3.5083358e-04   4.0142407e-04   6.0367001e-05   8.8537403e-05   5.1603663e-05   4.2136413e-05   3.0098358e-04   2.6943695e-04  -5.3314364e-04  -5.2877871e-04   1.8208617e-04  -7.5533288e-05   7.7930297e-04  -4.0239436e-04  -2.2792857e-04   7.2445179e-04   2.5966039e-04  -4.1484502e-05  -1.4342061e-04  -6.6450791e-04  -3.1947627e-04   9.0769446e-04  -4.8016006e-04  -9.0167356e-05  -9.6969743e-04  -8.1997382e-04  -1.4914765e-03   2.8102773e-05  -7.6391094e-05  -7.9809001e-04  -7.9946453e-04  -2.2913607e-04  -7.8465272e-04  -1.3241696e-03
   7.1283366e-04   2.6607854e-04   3.2791935e-04   5.4959720e-04   4.2181171e-04   2.2160269e-04   2.1435885e-04  -1.1453185e-04   4.6886664e-04   5.4721645e-04  -9.9454965e-06   2.4556671e-04   4.8097756e-04  -3.5252000e-04  -1.4575257e-04   1.5842917e-04  -3.9956922e-04   3.5708307e-04  -4.2564752e-05   2.0404983e-05  -7.5990592e-08   1.3568328e-05   2.2444618e-04   1.6665559e-04  -5.0608895e-04  -5.3672696e-04   1.8015674e-04  -1.1277941e-04   6.1021867e-04  -4.9575756e-04  -2.4164187e-04   7.0626015e-04  -5.5154720e-05  -1.0797255e-04  -2.1646277e-04  -5.5073824e-04  -4.8072316e-04   8.4508170e-04  -5.2631740e-04  -1.1720106e-04  -8.8370644e-04  -7.7489566e-04  -1.0002600e-03  -1.7783885e-04  -1.0698290e-04  -9.4752078e-04  -7.9201744e-04  -1.0198253e-03  -8.8078709e-04  -1.1866009e-03
   7.4792508e-04   3.3718618e-04   4.1189534e-04   5.9199362e-04   4.6101236e-04   3.6955753e-04   3.1861541e-04  -4.8038819e-05   5.6794821e-04   6.9829437e-04   1.2498202e-04   3.3899173e-04   4.9207761e-04  -3.4210429e-04  -4.5357730e-05   1.4143869e-04  -3.2173930e-04   3.6262322e-04   2.2523607e-04   1.0823717e-04   2.9791427e-05   8.1904953e-05   3.4560449e-04   1.4501168e-04  -3.6825376e-04  -4.6951557e-04   3.1020824e-04  -7.7816294e-05   7.2447711e-04  -4.1193404e-04  -1.1039853e-04   7.3746272e-04   4.0774330e-04  -1.6061680e-06  -1.2056139e-04  -4.4017922e-04  -3.2976942e-04   8.2057307e-04  -3.7928499e-04   2.9527268e-05  -1.0691757e-03  -7.7645003e-04  -7.3594728e-04  -2.0814379e-04  -5.9787992e-05  -6.4753776e-04  -7.2135311e-04  -6.0199178e-04  -3.1517894e-04  -5.1934156e-04
   8.0926309e-04   3.0764984e-04   3.9238794e-04   5.9333816e-04   4.5036722e-04   2.8733109e-04   3.0891190e-04  -3.5481797e-05   5.0914753e-04   5.3124165e-04   1.7487697e-05   2.1191701e-04   4.5377036e-04  -2.9779179e-04  -2.3641608e-04   9.5395226e-05  -3.1748251e-04   3.6627482e-04  -2.6359983e-05   9.4281240e-05   3.9751543e-05   5.4548374e-05   2.5858445e-04   2.4070985e-04  -4.1500354e-04  -4.6031340e-04   2.4751958e-04  -1.0786229e-04   5.8323721e-04  -4.9530197e-04  -1.6699021e-04   7.1237050e-04   5.1106555e-05  -5.9616483e-05  -1.7290385e-04  -5.2544498e-04  -5.2562944e-04   7.9720654e-04  -5.3515687e-04  -1.4137432e-04  -1.1470581e-03  -8.4243901e-04  -5.5917091e-04  -3.5148155e-04  -1.5002479e-04  -7.4364379e-04  -7.2668138e-04  -6.0092442e-04  -6.6224480e-04  -1.4451813e-03
   8.1378384e-04   3.4283739e-04   4.8026996e-04   6.0126575e-04   4.7782803e-04   3.4550272e-04   2.7795119e-04   5.5312198e-06   6.3059549e-04   6.3864968e-04   1.0040208e-04   2.8508189e-04   5.4071203e-04  -2.8929737e-04  -2.4595932e-04   2.0776098e-04  -2.9067427e-04   3.6961393e-04   2.3587847e-04   1.5385599e-04   6.4972555e-05   8.6057837e-05   3.3946833e-04   2.5237919e-04  -4.6928829e-04  -3.8306069e-04   1.9534763e-04  -6.6350265e-05   6.0144241e-04  -3.7031557e-04  -1.2519740e-04   7.8743428e-04   1.7480868e-04  -9.5861133e-06  -2.8963474e-05  -5.5964518e-04  -2.4725671e-04   8.5844425e-04  -4.2984786e-04   2.9801899e-05  -8.1749301e-04  -6.5327360e-04  -2.5932092e-04  -3.3130706e-04  -6.6014902e-05  -6.1927497e-04  -7.0266129e-04   1.8292444e-04   2.1736170e-04  -5.6262239e-04
   8.6920056e-04   3.2922189e-04   5.3236424e-04   6.1643939e-04   4.7647301e-04   3.0684291e-04   3.0966432e-04   1.1224451e-04   4.3553693e-04   5.0971378e-04   3.8247836e-05   1.3880734e-04   5.0442328e-04  -1.4646500e-04  -8.5598571e-05   9.3235074e-05  -1.8284527e-04   3.7746277e-04   2.6192315e-04   1.2011554e-04   5.0640469e-05   1.1439545e-05   2.5456972e-04   1.9973537e-04  -3.1288335e-04  -3.6904938e-04   2.3334895e-04  -5.5021123e-05   6.7945558e-04  -4.4499416e-04  -1.4226332e-05   7.2932179e-04   2.3411745e-04  -2.6935563e-06  -1.3565144e-04  -6.0884171e-04  -2.8472985e-04   8.0348871e-04  -3.8088966e-04   3.4748682e-05  -8.9780445e-04  -6.7773840e-04  -5.7670004e-05   3.3488159e-05  -1.2670425e-04  -5.4302585e-04  -6.1243412e-04  -6.9188268e-04  -6.4437703e-04  -3.5883975e-04
   7.9405925e-04   2.3351188e-04   4.8051935e-04   5.4441037e-04   4.3371995e-04   2.3523161e-04   3.4147696e-04   1.4042271e-04   5.0653331e-04   5.6644116e-04   1.2071877e-04   1.1553676e-04   4.8512607e-04  -4.8890382e-05  -5.1143728e-05   1.9590113e-04  -6.2766470e-05   3.8270574e-04   1.2610886e-04   9.6009819e-05   3.4826120e-05   2.8627559e-05   3.9858429e-04   1.2029304e-04  -1.8369031e-04  -2.1437436e-04   3.6688623e-04  -2.3061146e-05   6.8538450e-04  -2.8090188e-04   1.0780752e-04   7.8873511e-04   2.6037486e-04   3.8040696e-05  -3.3246739e-05  -3.6721324e-04  -2.1541916e-04   8.1496878e-04  -3.0604721e-04   1.1128936e-04  -2.9534494e-04  -5.5232493e-04  -3.1439058e-04   4.3806716e-04  -4.8773058e-05  -5.0008390e-04  -4.2888348e-04  -7.0275832e-04  -1.1377169e-04  -5.3846388e-04
   8.1710715e-04   3.2750578e-04   5.2840658e-04   5.7546463e-04   4.7557632e-04   3.2578260e-04   3.7528027e-04   2.0309575e-04   3.8847770e-04   4.9430551e-04   1.6110048e-04   1.0461987e-05   4.7628392e-04   9.5283984e-05  -6.2928491e-05   1.5301225e-04   4.7281555e-05   3.7748835e-04   2.3327181e-04   1.2136912e-04   3.6680020e-05   1.9287094e-05   3.6144856e-04   8.0277554e-05  -1.1819087e-04  -3.2139220e-04   4.6651377e-04   1.7645832e-06   6.9280894e-04  -2.9795585e-04   1.0463268e-04   7.9769484e-04   4.0717411e-04   1.1155547e-04   5.9372469e-06  -3.7603820e-04  -3.3294788e-04   8.3329866e-04  -3.8823357e-04   8.1203114e-05  -4.3891606e-04  -6.0284132e-04  -3.7411874e-04   1.1031278e-04  -9.4741270e-05  -5.1021558e-04  -4.9793947e-04  -6.1484089e-04  -7.6648209e-04  -8.9022983e-04
   7.9621444e-04   2.1718079e-04   4.9157522e-04   4.9330405e-04   4.1529810e-04   1.7536136e-04   3.2996430e-04   1.0971796e-05   3.4355139e-04   3.6610916e-04   6.9816226e-05  -3.4666537e-05   4.1328813e-04   9.6623171e-06   1.2188050e-04   1.9090250e-04  -3.9800256e-05   4.3464248e-04   2.1760575e-04   1.2174913e-04   4.4701137e-05   5.8159989e-05   3.8877036e-04   1.3940710e-04  -1.0684357e-04  -3.0193286e-04   4.5660726e-04   2.1781940e-05   8.8799861e-04  -3.0187311e-04   4.2344462e-05   7.8909955e-04   2.8304546e-04   1.3761655e-04   2.9189745e-05  -4.1932144e-04  -1.2581170e-04   8.6866162e-04  -3.0255021e-04   1.9592668e-04  -6.8869017e-04  -6.0844654e-04  -1.5137403e-04  -1.1261977e-03  -9.3733079e-06  -5.7779591e-05  -4.1769369e-04  -7.3490432e-05  -4.4619563e-04  -4.2457716e-04
