   4.8149491e-04  -6.2964531e-04   4.9624307e-04  -4.7599067e-04  -5.2130426e-04  -5.0838644e-05  -3.2594899e-04   1.7342531e-03   6.3337927e-04   2.6161337e-04   1.0737136e-04   2.5244770e-04   4.4465857e-04   2.6799442e-04   1.7879304e-04   1.1326893e-03   1.4732974e-03   2.5050256e-03  -2.3120105e-04  -2.7277361e-04   4.4229327e-04  -4.9804430e-04  -4.1521111e-04  -1.4427224e-03  -9.8319817e-04  -9.0777461e-04  -9.1170834e-05  -8.9206110e-04   1.2034823e-03  -5.5436662e-04   2.7735436e-03   2.2813880e-03   4.0663345e-04  -8.0524775e-04  -8.6373318e-04  -9.9075900e-04   6.9406570e-04   1.9818662e-04   1.6097231e-04  -4.6801761e-05  -1.0159489e-03  -4.5667449e-04  -2.0365431e-03   3.9544987e-04  -6.2092510e-04   1.4780068e-03   3.2573317e-03  -4.6089082e-03  -3.8419913e-03  -4.4585685e-03
   6.0682389e-04  -4.3549252e-04   6.0949021e-04  -3.1581195e-04  -3.8936362e-04   1.1415138e-04  -2.0402885e-04   1.8227744e-03   8.4703940e-04   5.0129747e-04   3.1092094e-04   4.4381124e-04   4.9287605e-04   2.2746026e-04   2.3354217e-04   1.1721246e-03   1.4308962e-03   2.5587280e-03  -2.6509285e-04  -2.1747989e-04   4.6750522e-04  -4.9074972e-04  -3.1953462e-04  -1.4218289e-03  -9.5889182e-04  -9.5884938e-04  -3.5471432e-05  -9.0794556e-04   1.2145423e-03  -5.4092013e-04   2.7915132e-03   2.3126404e-03   5.1423686e-04  -7.8650436e-04  -9.4417343e-04  -9.5950760e-04   7.8934111e-04   2.2003578e-04   8.0064041e-05  -1.3272405e-04  -1.0539643e-03  -5.5576721e-04  -1.8991046e-03   7.4436823e-05  -6.8435800e-04   1.2114195e-03   3.0288482e-03  -4.8782593e-03  -3.1004110e-03  -4.8868931e-03
   4.7557952e-04  -5.5244419e-04   5.3371914e-04  -4.1220427e-04  -4.5414772e-04  -1.3253055e-05  -2.1774029e-04   1.4887045e-03   7.4721198e-04   2.5858945e-04   1.3279553e-05   3.4040169e-04   3.6384241e-04   1.9480947e-04   9.4878269e-05   1.1480913e-03   1.3091022e-03   2.5483607e-03  -3.8781235e-04  -3.2985714e-04   3.9589481e-04  -5.9452292e-04  -4.6549065e-04  -1.4122706e-03  -9.5195946e-04  -1.0789486e-03   3.1914969e-05  -9.1796130e-04   1.0543866e-03  -6.3413038e-04   2.7208687e-03   2.3035549e-03   3.0389411e-04  -9.0748642e-04  -1.0306565e-03  -1.1317016e-03   5.2358187e-04   1.3292508e-04  -1.2317020e-04  -4.0685272e-04  -1.3463617e-03  -7.1889244e-04  -2.3376152e-03  -4.8942497e-04  -8.9450530e-04   9.4624038e-04   2.6385905e-03  -4.4264062e-03  -3.2504459e-03  -5.0361790e-03
   5.1903626e-04  -6.1703223e-04   4.6475543e-04  -4.5995592e-04  -4.6041724e-04   4.5237790e-05  -2.8893357e-04   1.9637097e-03   8.6522650e-04   4.8342766e-04   8.0275364e-05   4.2450320e-04   3.4915580e-04   1.7637976e-04   1.5435979e-04   1.2855412e-03   1.3452466e-03   2.6120157e-03  -3.9999277e-04  -3.8036972e-04   3.7026888e-04  -6.2599644e-04  -4.3102750e-04  -1.5259014e-03  -9.4453362e-04  -1.1031942e-03   7.5461372e-05  -9.0106949e-04   1.0524286e-03  -6.2582211e-04   2.8421083e-03   2.4104118e-03   4.4094224e-04  -8.6382648e-04  -9.7439240e-04  -9.6891238e-04   3.6768991e-04   1.6042739e-04  -4.4775839e-05  -7.3747491e-05  -1.4045616e-03  -6.6596392e-04  -2.0922562e-03   1.9185936e-04  -7.4521819e-04   1.0836460e-03   2.7799008e-03  -4.7467658e-03  -3.6599687e-03  -4.6747187e-03
   3.5612768e-04  -5.3332280e-04   4.6787556e-04  -3.9985444e-04  -4.5212032e-04   9.2285882e-07  -2.8220270e-04   1.6076233e-03   6.0587598e-04   4.8198894e-04  -7.9839498e-07   4.8880302e-04   3.3966702e-04   1.7004996e-04   8.9879941e-05   1.1195573e-03   1.3387201e-03   2.6061684e-03  -4.8296832e-04  -3.9498633e-04   3.6457542e-04  -6.4173801e-04  -5.3488463e-04  -1.5073686e-03  -8.7747443e-04  -1.1591081e-03  -4.7367761e-05  -9.6425874e-04   1.0910977e-03  -6.7525927e-04   2.9009585e-03   2.3631328e-03   3.2832380e-04  -9.2242466e-04  -1.0415623e-03  -1.0913551e-03   4.9328065e-04   7.2916373e-05  -2.9311524e-05  -1.5364015e-04  -1.4489044e-03  -8.1046741e-04  -2.3865083e-03  -5.3872139e-04  -8.7614218e-04   1.0553099e-03   2.5557932e-03  -4.4658636e-03  -4.1316375e-03  -4.4066831e-03
   3.5215361e-04  -6.7212241e-04   3.7846447e-04  -5.0510076e-04  -5.7236193e-04  -1.1069499e-04  -4.5224096e-04   1.5924177e-03   3.6914003e-04   1.1839011e-04  -3.4837396e-04   9.3461153e-05   1.9819639e-04   7.1493960e-05  -5.4937762e-05   9.8715315e-04   1.3244145e-03   2.5044219e-03  -5.6783576e-04  -5.8254722e-04   2.6070807e-04  -8.1984606e-04  -6.6190487e-04  -1.6986327e-03  -9.8427990e-04  -1.4319370e-03   4.2861073e-05  -9.8075555e-04   1.0985710e-03  -7.4853847e-04   2.9666696e-03   2.3133659e-03   2.1262186e-04  -9.1310067e-04  -1.1408163e-03  -1.0601390e-03   1.9199008e-04  -3.1850334e-07  -3.8154656e-05  -4.2634053e-04  -9.8377105e-04  -4.5926732e-04  -2.2004624e-03  -1.0134091e-04  -9.8220585e-04   9.1840245e-04   2.8499516e-03  -5.3026676e-03  -3.5670749e-03  -4.0892917e-03
   3.8567992e-04  -5.9606432e-04   3.7245080e-04  -4.6539100e-04  -6.3013035e-04  -9.5721291e-05  -3.8077871e-04   1.7258510e-03   5.9959653e-04   4.5180519e-04  -7.2134178e-05  -1.0724356e-04   1.3466892e-04   3.6752378e-04   1.3642668e-04   8.0345164e-04   1.8796070e-03   2.2443023e-03  -5.9560512e-04  -6.5609411e-04   2.3101699e-04  -7.9165591e-04  -7.4533076e-04  -2.2627262e-03  -1.0819536e-03  -1.0848329e-03   1.3584981e-04  -8.7984669e-04   7.5113086e-04  -5.8256660e-04   3.6687213e-03   2.2626617e-03   2.4832087e-04  -8.2605012e-04  -9.3083974e-04  -8.3114859e-04   4.1604071e-04  -1.1137378e-04   1.6597602e-04  -4.4743650e-04  -4.6433572e-04  -4.6092330e-04  -4.0699317e-04  -4.5785535e-04  -1.0546739e-03   1.5548510e-03   2.9498306e-03  -6.8849861e-03  -3.5541346e-03  -4.9498859e-03
  -1.9197761e-04  -9.2361460e-04   4.2746408e-04  -7.7910087e-04  -9.7208499e-04  -2.0470544e-04  -4.2023420e-04   1.5162338e-03  -8.7709457e-04   3.4561363e-05  -1.0645076e-03  -5.6797446e-04  -4.7153814e-04   1.0520642e-03  -2.4707946e-05   7.9290621e-04   2.9850597e-03   2.1888034e-03  -4.7854066e-04  -8.8506442e-04  -1.2144401e-04  -9.3935971e-04  -1.2660344e-03  -2.8928251e-03  -4.0392615e-04  -5.7153252e-04   6.4493513e-05  -4.5239850e-04   6.3743792e-05  -3.4525525e-04   5.5898507e-03   2.3052034e-03   4.3116708e-04  -6.7244627e-04  -5.9663015e-04  -2.0974646e-04   6.2316837e-04  -2.1203306e-04   3.4079270e-04  -4.6173067e-04   2.0821072e-04  -1.9642095e-04   6.4637698e-04   3.4803219e-04  -1.3311019e-03   1.5957796e-03   3.5316830e-03  -9.2970589e-03  -4.0788190e-03  -6.3906033e-03
  -4.7127242e-04  -1.0798881e-03   2.8002122e-04  -9.0033520e-04  -1.1294673e-03  -1.2678403e-04  -3.8075782e-04   1.9076677e-03  -8.0548180e-04   3.7212658e-04  -9.8487956e-04  -2.6543593e-04  -7.5331912e-04   1.1833039e-03  -2.8304374e-04   9.9520746e-04   2.7836454e-03   2.0861672e-03  -4.9281103e-04  -8.8415574e-04  -2.2400945e-04  -8.7751821e-04  -1.2420811e-03  -2.9315171e-03   3.7146983e-05  -1.4449627e-04   8.4683204e-05  -6.4566993e-04  -3.2642321e-04  -2.2140730e-04   5.7351701e-03   1.9163709e-03   5.3430296e-04  -5.7719834e-04  -5.7870563e-04   5.3522259e-04   2.0385551e-04  -4.2487052e-04   7.0788217e-04  -5.6575309e-04   1.4855484e-03   5.5751746e-04   5.1612646e-04   5.0173380e-04  -1.2882645e-03   1.8250977e-03   3.9138310e-03  -1.0331580e-02  -3.3106513e-03  -4.4831438e-03
  -5.6297594e-04  -1.1932875e-03   4.3122118e-04  -9.6449349e-04  -1.2522864e-03  -2.4708768e-04  -3.0559427e-04   1.6782730e-03  -1.3020688e-03   3.7219250e-04  -1.2292078e-03  -8.9519330e-05  -1.0576505e-03   1.5702802e-03  -5.0153263e-04   1.0286525e-03   2.7260694e-03   1.7968875e-03  -3.7945525e-04  -8.8189729e-04  -4.2928779e-04  -9.9692610e-04  -1.2373053e-03  -2.8775739e-03   6.2008819e-04  -9.7296230e-05   2.6380230e-04  -6.2544714e-04  -8.4619131e-04   4.9747036e-05   5.3259796e-03   1.3381225e-03   5.6990981e-04  -1.7956071e-04  -7.8478362e-04   8.4542477e-04   3.3408323e-05  -5.3794042e-04   1.3033301e-03  -7.9628424e-04   1.7808176e-03   7.6846359e-04   2.0509919e-03   7.9632481e-04  -1.3651715e-03   1.7950350e-03   4.6677301e-03  -1.0394078e-02  -3.2162750e-03  -4.0021162e-03
  -8.5590576e-04  -1.3422373e-03   1.3520771e-04  -1.0294745e-03  -1.4309916e-03  -3.6896404e-04  -3.4724036e-04   1.8242437e-03  -1.7310897e-03   2.7636403e-05  -1.5638634e-03  -2.1088785e-04  -1.2429531e-03   1.5380321e-03  -5.2740303e-04   1.0636863e-03   2.5399749e-03   1.7009000e-03  -4.0957241e-04  -9.2248974e-04  -4.8342650e-04  -1.0291901e-03  -1.4420333e-03  -2.8936323e-03   7.0857455e-04   1.5815695e-04   2.2376246e-04  -5.1199686e-04  -5.3934852e-04   1.5245553e-04   4.7593084e-03   1.2101646e-03   2.0106115e-04  -1.5666646e-04  -7.1844424e-04   9.4634923e-04   3.2270349e-05  -4.4897263e-04   1.3443897e-03  -6.6035055e-04   1.6233628e-03   6.3866732e-04   1.9729745e-03   9.3873666e-04  -1.1754527e-03   1.4351017e-03   4.3761157e-03  -8.6752335e-03  -2.9574533e-03  -4.7524492e-03
  -6.0704816e-04  -1.0978549e-03   1.3679285e-04  -8.5264142e-04  -1.3080362e-03  -1.2563635e-04  -2.1924847e-04   1.5634076e-03  -1.0100632e-03   7.7210634e-04  -8.4580312e-04   4.1789515e-04  -1.0536513e-03   1.3903246e-03  -5.1799981e-04   1.1452427e-03   2.4835516e-03   1.8170049e-03  -3.7014444e-04  -7.5325079e-04  -3.6782931e-04  -8.4538700e-04  -1.2884525e-03  -2.6898198e-03   8.6104491e-04   1.0915805e-04   2.2094480e-04  -5.2493857e-04  -6.5984367e-04   1.1658623e-04   4.7966978e-03   1.2389512e-03   3.0407211e-04  -1.3235786e-04  -6.9674879e-04   8.4811979e-04   9.3939852e-05  -4.2234475e-04   1.3090458e-03  -7.4477849e-04   1.4096090e-03   6.0194137e-04   1.2134884e-03   1.0652874e-03  -1.2214939e-03   1.2078523e-03   4.2684595e-03  -8.3424402e-03  -3.1580492e-03  -3.8789816e-03
  -7.9351309e-04  -1.2040955e-03   1.3434682e-04  -9.3098404e-04  -1.4165111e-03  -2.5103954e-04  -3.5550180e-04   1.6880309e-03  -1.2813710e-03   4.9385044e-04  -9.9675811e-04   2.8870828e-04  -1.1179363e-03   1.4912859e-03  -4.2447925e-04   1.0017382e-03   2.5926507e-03   1.6956938e-03  -3.9551943e-04  -7.9840777e-04  -4.3749757e-04  -9.3201961e-04  -1.3806759e-03  -2.6918706e-03   1.0267649e-03   8.6721629e-06   3.2898356e-04  -5.1108893e-04  -9.0146222e-04   1.2947508e-04   4.9118791e-03   1.1961488e-03   2.9036263e-04  -1.0355596e-04  -8.0683088e-04   1.0666219e-03   8.5972737e-05  -5.3452025e-04   1.4181472e-03  -8.9304056e-04   1.9244237e-03   4.2919847e-04   1.6164274e-03   8.6851919e-04  -1.3812602e-03   1.5174223e-03   4.2773597e-03  -8.6819027e-03  -2.5443966e-03  -3.5739876e-03
  -8.7619014e-04  -1.2468544e-03   1.2534260e-04  -9.5284224e-04  -1.4563599e-03  -2.6511270e-04  -3.5565483e-04   1.8259885e-03  -1.1316919e-03   7.7039469e-04  -7.5388525e-04   4.3818881e-04  -1.1253975e-03   1.6942532e-03  -5.4180267e-04   9.5224677e-04   2.8387399e-03   1.7452405e-03  -3.7634978e-04  -7.6018769e-04  -5.0415983e-04  -9.6774142e-04  -1.3214644e-03  -2.6698059e-03   1.3672636e-03   3.5958225e-04   2.5474816e-04  -5.0426752e-04  -8.8668498e-04   3.6746328e-04   5.2312403e-03   1.2466139e-03   7.0107658e-04   1.0362572e-04  -7.0802029e-04   1.1925154e-03   5.0035535e-05  -4.9041229e-04   1.6520502e-03  -8.4063661e-04   1.9356026e-03   6.9414516e-04   2.3018476e-03   1.0999106e-03  -1.1915242e-03   1.3947876e-03   4.3785349e-03  -7.5626848e-03  -2.7649961e-03  -4.4519412e-03
  -8.3978090e-04  -1.2026149e-03   1.0105071e-04  -9.3216519e-04  -1.4862614e-03  -2.6078933e-04  -3.7300700e-04   1.4204974e-03  -1.0601396e-03   8.5911131e-04  -6.2670489e-04   7.6800754e-04  -9.8736270e-04   1.3860691e-03  -5.1515654e-04   9.8371471e-04   2.3568575e-03   1.6658988e-03  -3.1917001e-04  -6.0630945e-04  -4.6157613e-04  -8.9513417e-04  -1.2169869e-03  -2.3284645e-03   1.5821706e-03   2.6114701e-04   2.8248181e-04  -4.6499580e-04  -1.0180541e-03   2.1767047e-04   4.6321629e-03   1.0402026e-03   4.4199426e-04   7.4571522e-05  -6.3946313e-04   1.2403467e-03   3.5917397e-05  -5.0657021e-04   1.6284816e-03  -8.5142819e-04   1.6331733e-03   6.9850095e-04   1.4456707e-03   1.3708968e-03  -1.3076743e-03   8.9697872e-04   3.9054197e-03  -7.0110052e-03  -2.7358201e-03  -5.7632104e-03
  -9.2842337e-04  -1.3056136e-03  -4.8620292e-05  -9.9619420e-04  -1.5616000e-03  -3.6916835e-04  -5.3568976e-04   1.4101949e-03  -1.1854437e-03   5.7896122e-04  -7.1421871e-04   5.7951664e-04  -1.0155170e-03   1.1983608e-03  -6.8995450e-04   7.8513415e-04   2.1456091e-03   1.6983438e-03  -4.5228054e-04  -5.9209747e-04  -5.8173417e-04  -9.7469048e-04  -1.2927178e-03  -2.1867855e-03   2.2451447e-03   1.8280219e-04   3.4213040e-04  -4.1904571e-04  -1.0010155e-03   3.2228339e-04   4.8292899e-03   1.1034431e-03   4.8943167e-04   1.2402929e-04  -5.1135046e-04   1.2865828e-03   1.1079426e-04  -4.6905561e-04   1.6653133e-03  -8.4907201e-04   2.1851275e-03   6.1675033e-04   1.4203929e-03   1.1958331e-04  -1.2060602e-03   7.2009501e-04   3.4152346e-03  -5.7823281e-03  -2.5328423e-03  -5.6168251e-03
  -8.3273713e-04  -1.0970327e-03   3.8972707e-05  -8.6275418e-04  -1.4902870e-03  -2.0283481e-04  -3.3156553e-04   1.4864660e-03  -9.5591915e-04   1.0466730e-03  -2.2183680e-04   6.7014236e-04  -9.2838821e-04   1.5429282e-03  -8.8162720e-04   6.0925644e-04   2.5382300e-03   1.2864942e-03  -1.2681950e-04  -4.2999897e-04  -7.4968615e-04  -1.0424062e-03  -1.1659083e-03  -2.2913790e-03   2.8559908e-03   6.1511440e-04  -1.1147993e-05  -6.0793536e-04  -1.6676165e-03   5.4662605e-04   5.0060353e-03   8.9003658e-04   4.4049404e-04   3.2303951e-04  -2.9058330e-04   1.7464082e-03   1.0158522e-04  -7.4401760e-04   2.0594574e-03  -7.2757999e-04   2.4106998e-03   4.9040106e-04   2.4944472e-03   1.2011896e-03  -1.3028299e-03   1.1753996e-03   3.1213292e-03  -5.5718101e-03  -1.7942103e-03  -6.0179932e-03
  -9.9653145e-04  -1.1803376e-03  -3.6551672e-05  -9.0927444e-04  -1.6192819e-03  -3.0705374e-04  -4.8427767e-04   1.2921848e-03  -1.3890897e-03   6.8690121e-04  -4.4707264e-04   2.9702066e-04  -1.0457980e-03   1.8189687e-03  -8.4418396e-04   1.2114231e-04   2.6890102e-03   1.0012817e-03  -1.5841215e-05  -3.9182324e-04  -9.5978455e-04  -1.1635561e-03  -1.2157789e-03  -2.4862983e-03   3.2537528e-03   7.1867200e-04  -2.9450952e-04  -1.3531937e-03  -2.0484074e-03   8.1270863e-04   5.0791209e-03   4.8404359e-04   4.0805846e-04   2.2629760e-04  -3.0375627e-04   2.0193737e-03   1.2769790e-04  -1.0725050e-03   2.3425394e-03  -9.8297303e-04   2.7565579e-03   4.3376704e-04   1.4633844e-03   1.7992381e-03  -1.3588612e-03   7.8009767e-04   3.3612137e-03  -6.2963399e-03  -1.0210220e-03  -6.4200107e-03
  -1.0449080e-03  -1.2386276e-03  -4.5522149e-05  -9.9922356e-04  -1.6309157e-03  -2.4213460e-04  -3.7196212e-04   1.1307017e-03  -1.2107356e-03   8.8771712e-04  -2.7994046e-04   2.3082562e-04  -1.1320022e-03   1.8511222e-03  -9.4878540e-04  -5.8130681e-05   2.6993388e-03   9.8985271e-04   2.2034661e-05  -2.3969921e-04  -1.0294754e-03  -1.2520482e-03  -1.2158437e-03  -2.3009379e-03   3.7435612e-03   9.9804846e-04  -5.2443845e-04  -1.8726279e-03  -2.3254280e-03   9.0187386e-04   5.3212070e-03   5.8537879e-04   7.2391471e-04   5.5399293e-04  -1.5836004e-04   2.2732995e-03  -2.9100550e-04  -1.2169387e-03   2.1257999e-03  -8.1049802e-04   3.2116971e-03   6.7370676e-04   1.9024354e-03   1.6962625e-03  -1.0076232e-03   1.0999551e-03   3.4071156e-03  -3.2987120e-03  -1.4712539e-03  -4.3792631e-03
  -1.1037495e-03  -1.0606709e-03  -2.0709861e-04  -9.2777039e-04  -1.5119778e-03  -4.1089789e-04  -4.1824716e-04   1.1246605e-03  -1.0610445e-03   1.0155241e-03  -1.2080447e-04   7.4493600e-04  -9.3785761e-04   1.3946707e-03  -8.3697366e-04   1.2530052e-04   2.0773353e-03   9.3410094e-04  -1.0232721e-05  -1.0024003e-04  -8.7831210e-04  -9.7299961e-04  -1.0966684e-03  -1.9595157e-03   3.6850101e-03   9.1089384e-04  -4.1356796e-04  -1.8130605e-03  -1.6489206e-03   6.9890078e-04   3.8348373e-03   3.2332077e-04   2.2328833e-05   3.4623031e-04   4.6493595e-05   2.0134414e-03  -6.0277502e-04  -9.5415383e-04   1.6796428e-03  -6.8967225e-04   2.2617655e-03   3.0388491e-04   1.0835693e-03   1.4607267e-03  -1.0419174e-03   8.3283038e-04   3.2101967e-03  -2.4844508e-03  -3.2244502e-03  -4.8146960e-03
  -1.0091397e-03  -1.0625276e-03  -3.1375355e-04  -9.0932788e-04  -1.4630210e-03  -4.0128696e-04  -4.7025853e-04   5.5237242e-04  -1.1851763e-03   8.4279146e-04  -2.3877730e-04   6.7086489e-04  -8.5889886e-04   1.0500140e-03  -9.3764765e-04   2.3270065e-04   1.6129517e-03   8.4812246e-04  -1.5570810e-04  -1.3672003e-04  -7.4241310e-04  -8.0736139e-04  -1.0445603e-03  -1.8623160e-03   3.5247514e-03   8.1724091e-04  -2.8025144e-04  -1.6099842e-03  -1.2649914e-03   4.8420246e-04   2.9758222e-03   1.6751805e-04   8.8473091e-05   2.5677323e-04   2.6911331e-04   1.7438726e-03  -3.8662276e-04  -6.7258842e-04   1.3774565e-03  -5.1659648e-04   1.8214671e-03  -2.1107468e-05   1.5893907e-03   1.8082483e-03  -8.3531882e-04  -1.6874968e-04   2.4063494e-03   3.2366961e-04  -2.4522352e-03  -3.6451519e-03
  -6.6319032e-04  -6.2764395e-04  -2.1197712e-04  -5.7413947e-04  -1.0360242e-03  -2.8528654e-04  -4.1699968e-04   2.4151904e-04  -3.5001239e-04   1.4251438e-03   3.8609726e-04   1.2545778e-03  -4.1422769e-04   4.7490819e-04  -1.0095913e-03   1.8371915e-04   1.0807911e-03   9.5037644e-04  -1.9491075e-05  -9.6150652e-06  -3.5056000e-04  -4.5344670e-04  -7.6451345e-04  -1.2861851e-03   2.8385315e-03   6.5401226e-04  -2.2766364e-04  -1.0785146e-03  -9.7661209e-04   3.1388635e-04   2.1308761e-03   1.1859936e-04  -3.1369422e-05   2.3949603e-04   2.8718301e-04   1.3359281e-03  -3.3439512e-04  -6.2510610e-04   9.7062346e-04  -5.3164171e-04   1.5097238e-03  -1.0486423e-04   1.0628809e-03   1.0152644e-03  -6.0011802e-04  -6.9906993e-04   1.5957357e-03   1.1266787e-03  -1.0156137e-03  -3.5172442e-03
  -4.6733348e-04  -5.9625087e-04  -1.2916487e-04  -4.8448233e-04  -9.1603445e-04  -3.4195097e-04  -5.0360919e-04   2.6732462e-04  -4.6867441e-04   1.1153093e-03   2.0380420e-04   9.6676446e-04  -3.7317158e-04   3.0353983e-04  -9.5153158e-04   1.6574809e-04   1.0173296e-03   8.6842309e-04  -3.2395863e-05  -5.7169862e-05  -3.0852749e-04  -4.5824391e-04  -7.3012069e-04  -1.2890799e-03   2.6032063e-03   5.1891216e-04  -3.3187855e-04  -1.0181206e-03  -1.1111142e-03   1.9186617e-04   2.1152634e-03   1.1028210e-04   2.4458661e-05   1.6494750e-04   1.8010776e-04   1.2001327e-03  -8.0546486e-04  -7.2003255e-04   7.8733615e-04  -8.0801966e-04   1.2397969e-03  -1.9545546e-04   1.0097210e-03   3.8534214e-04  -8.3641760e-04  -7.4925361e-04   1.5109105e-03   2.2916941e-03  -2.1372051e-03  -2.5269820e-03
  -3.4784549e-04  -5.3820678e-04  -8.8309083e-05  -4.4212627e-04  -8.0616254e-04  -2.4653730e-04  -3.8636432e-04   5.4674258e-04  -2.6869669e-04   1.3890429e-03   3.9379450e-04   1.1094004e-03  -2.4701658e-04   2.6468103e-04  -8.7366102e-04   2.7442156e-04   9.1536023e-04   8.4284914e-04  -2.1618431e-04   1.3691243e-06  -2.1291316e-04  -3.6405667e-04  -5.4946821e-04  -1.0719635e-03   2.5716887e-03   5.9761363e-04  -3.9615051e-04  -9.7448268e-04  -6.9577660e-04   3.1070827e-04   2.0148982e-03   2.0423246e-04   9.0857131e-05   3.1952714e-04   3.8017501e-04   1.3956726e-03  -2.4185411e-04  -6.7775615e-04   7.0668088e-04  -6.4402301e-04   1.3216499e-03  -2.2887002e-06   1.0001230e-03   9.9563552e-04  -5.1269232e-04  -4.2401976e-04   1.5020267e-03   2.0008665e-03  -1.4817470e-03  -4.9555316e-03
  -2.6114998e-04  -4.0583915e-04   5.4422460e-05  -3.1935883e-04  -7.0428231e-04  -2.3554725e-04  -3.5206130e-04   2.7240862e-04  -1.8976585e-04   1.3183233e-03   4.1683437e-04   1.0136068e-03  -1.8450395e-04   3.0864525e-04  -8.8349415e-04   2.4597594e-04   9.5003773e-04   8.2300388e-04   7.1030743e-05   7.5644304e-05  -1.4879341e-04  -3.2052828e-04  -6.2677485e-04  -1.1850046e-03   2.5458890e-03   5.0684169e-04  -2.4534794e-04  -1.0040837e-03  -7.1340904e-04   2.5786858e-04   2.0957005e-03   1.9596367e-04   1.8378369e-04   2.6107414e-04   2.7073780e-04   1.3231566e-03  -3.6388432e-04  -6.9085398e-04   6.8264664e-04  -6.7008584e-04   1.3480869e-03  -1.0878722e-04   1.2950242e-03   1.1250658e-03  -7.1510678e-04  -8.8940980e-04   1.4562834e-03   1.5241705e-03  -1.7740265e-03  -3.1815383e-03
  -3.5797953e-04  -5.2068254e-04  -1.2012707e-05  -3.8629016e-04  -7.9905399e-04  -3.6009963e-04  -4.4529920e-04   1.8537468e-04  -4.4317351e-04   9.0534415e-04   1.0332950e-04   6.7407696e-04  -2.7180678e-04   3.0787225e-04  -9.1413921e-04   2.9941415e-04   9.4650284e-04   7.7733665e-04  -3.0737876e-05  -4.3815198e-05  -2.2357905e-04  -3.3497947e-04  -6.3851615e-04  -1.3271340e-03   2.4861046e-03   4.6912653e-04  -2.2731911e-04  -1.0596490e-03  -7.2337262e-04   1.9597349e-04   2.1038123e-03   1.4033013e-04  -1.9537883e-04   1.9633799e-04   2.0352975e-04   1.2963440e-03  -4.1047769e-04  -6.6972483e-04   6.6741288e-04  -8.2050398e-04   1.4532881e-03  -1.0188277e-05   1.1784390e-03   8.1708495e-05  -7.3008530e-04  -5.9438642e-04   1.5167644e-03   1.3247443e-03  -2.1177731e-03  -2.6970601e-03
  -1.3816128e-04  -4.1019908e-04   8.4875210e-05  -3.2319187e-04  -7.0229254e-04  -1.9811894e-04  -2.6460993e-04   4.6084856e-04  -1.5721015e-04   1.2487775e-03   4.8444368e-04   7.4264582e-04  -1.7530526e-04   3.9600153e-04  -7.5415877e-04   3.5673159e-04   1.0960990e-03   7.4671360e-04  -1.5906951e-05   3.9278912e-05  -1.7247969e-04  -3.1831587e-04  -5.0873129e-04  -1.2395617e-03   2.4850604e-03   6.3554395e-04  -2.6247595e-04  -1.0090333e-03  -1.0523924e-03   2.8404346e-04   2.2344773e-03   1.8188320e-04   2.4940688e-04   3.4384499e-04   2.8755487e-04   1.4947413e-03  -2.9515679e-04  -6.7417655e-04   6.3513219e-04  -7.4924080e-04   1.9000813e-03   1.4266254e-04   1.7720228e-03   5.4950919e-04  -7.4537785e-04  -5.4353027e-04   1.5884882e-03   9.8636851e-04  -1.8631336e-03  -3.1103566e-03
  -2.4244457e-04  -4.1129944e-04   1.3383366e-04  -2.9430474e-04  -7.2169310e-04  -2.4049051e-04  -3.1082844e-04   3.1098293e-04  -3.2068795e-04   9.6133864e-04   3.4775134e-04   4.6226673e-04  -2.4354448e-04   4.7042649e-04  -6.9887005e-04   3.1767107e-04   1.1962575e-03   6.7998917e-04   3.8322710e-06   2.5632733e-05  -2.2176896e-04  -4.0827133e-04  -6.0212484e-04  -1.4275196e-03   2.4770808e-03   5.7044538e-04  -2.4674024e-04  -1.0151691e-03  -8.4247824e-04   2.8294252e-04   2.2420851e-03   1.6028804e-04  -1.1575542e-04   2.3593361e-04   2.4780392e-04   1.4304779e-03  -3.5330214e-04  -7.8615459e-04   8.5054728e-04  -6.3998130e-04   1.7346658e-03   7.9988196e-05   1.9630548e-03  -2.8855604e-04  -8.6111936e-04  -6.5215101e-04   1.3912084e-03   1.2711646e-03  -1.8372277e-03  -2.4023021e-03
  -3.8911623e-04  -5.6824280e-04   1.8777147e-05  -3.9337680e-04  -8.3420734e-04  -3.6869018e-04  -3.7929683e-04   1.5654790e-04  -5.5868959e-04   6.0048734e-04   6.9334630e-05   1.5849374e-04  -3.7073711e-04   4.5616031e-04  -1.0253229e-03   3.1148718e-04   1.1230414e-03   6.3839013e-04  -8.6115229e-05  -5.3373271e-05  -3.0257509e-04  -4.0420465e-04  -5.7211431e-04  -1.5167069e-03   2.4443592e-03   6.2705396e-04  -2.0902125e-04  -1.0356553e-03  -8.9938601e-04   2.8587744e-04   2.2405814e-03   1.3955700e-04   4.1461612e-06   2.3121641e-04   3.1034712e-04   1.3600996e-03  -5.0694024e-04  -7.6543499e-04   6.4819539e-04  -6.1482878e-04   1.8392586e-03   1.2647398e-04   9.0413936e-04   6.6730828e-04  -5.7878398e-04  -7.7262003e-04   1.5785320e-03   1.1573604e-03  -1.9035497e-03  -3.2353946e-03
  -1.6957492e-04  -3.6837941e-04   1.8661149e-04  -2.4124513e-04  -7.2865770e-04  -2.1820243e-04  -2.9665389e-04   4.2020736e-04  -3.1256460e-04   9.7082637e-04   4.4114294e-04   3.6908130e-04  -2.5570136e-04   6.1661756e-04  -7.1837165e-04   2.7744289e-04   1.3873868e-03   6.7682937e-04   2.4020085e-04   2.7126633e-05  -2.7752490e-04  -3.8611333e-04  -5.8535801e-04  -1.5092070e-03   2.6690483e-03   5.2840094e-04  -4.8823615e-05  -1.0312243e-03  -8.4377953e-04   3.5402735e-04   2.5914190e-03   2.6852949e-04   1.6490398e-04   3.5722845e-04   2.3883775e-04   1.4644118e-03  -4.8853306e-04  -8.1972487e-04   6.6916813e-04  -5.9299241e-04   1.7534397e-03   4.6952304e-05   1.7348948e-03   6.7447964e-04  -8.1436004e-04  -5.1693677e-04   1.3975675e-03   1.0354411e-03  -2.8601759e-03  -3.4560419e-03
  -3.3075639e-04  -5.1532470e-04   1.5083796e-04  -3.4186305e-04  -8.0195942e-04  -2.9353061e-04  -3.2616637e-04   4.2362080e-04  -4.9407623e-04   6.3762337e-04   2.1262164e-04   6.8579022e-05  -3.3781122e-04   7.0950290e-04  -9.7948418e-04   2.4531927e-04   1.4453117e-03   6.6642847e-04  -7.2432762e-05  -3.2116677e-05  -3.8100110e-04  -5.0847884e-04  -6.1855774e-04  -1.6431665e-03   2.6869811e-03   4.1911867e-04  -1.0897908e-04  -1.0850375e-03  -1.0807101e-03   3.0607119e-04   2.6168670e-03   2.3301493e-04  -4.7387719e-05   2.6846625e-04   1.7328653e-04   1.4908587e-03  -5.2133255e-04  -8.4929005e-04   7.1832904e-04  -7.6493860e-04   1.4989462e-03  -2.3601585e-04   7.0839323e-04   6.2283856e-05  -9.1536349e-04  -2.2346049e-04   1.1965091e-03   1.2845472e-03  -2.1162361e-03  -3.6377073e-03
  -3.5445852e-04  -4.8128754e-04   6.6591099e-05  -3.3020001e-04  -7.3667977e-04  -1.8204475e-04  -2.6515566e-04   4.9144961e-04  -2.6830006e-04   9.7456109e-04   4.7282493e-04   4.1671420e-04  -2.7667396e-04   6.9436833e-04  -7.5023191e-04   3.6536565e-04   1.3710306e-03   7.4578181e-04   1.2690322e-04   4.7354068e-05  -3.6422719e-04  -4.8604602e-04  -5.4655853e-04  -1.4917664e-03   2.7930948e-03   5.7877478e-04  -1.1532483e-04  -1.0469966e-03  -1.0231701e-03   3.2575461e-04   2.5768138e-03   3.6587080e-04   1.9276691e-05   4.1312005e-04   2.8616795e-04   1.5163762e-03  -4.5331827e-04  -7.7317690e-04   6.7470956e-04  -5.5573671e-04   1.6095125e-03  -1.3588872e-04   1.9326501e-03   2.2152439e-04  -7.4174418e-04  -3.9359709e-04   1.1234026e-03   9.3894656e-04  -1.6644110e-03  -3.7049444e-03
  -2.4569206e-04  -4.2560548e-04   1.3675849e-04  -2.7936563e-04  -7.1919110e-04  -1.8361640e-04  -2.7894203e-04   3.8636976e-04  -3.2795826e-04   7.9650729e-04   3.9936145e-04   2.1241554e-04  -2.9838237e-04   7.4575789e-04  -7.2509743e-04   3.7324871e-04   1.4442479e-03   7.5014634e-04   1.2620073e-04   7.9840487e-05  -3.5390942e-04  -4.7573721e-04  -6.1739230e-04  -1.5022861e-03   2.7789206e-03   4.7104046e-04  -6.0044949e-05  -1.0280864e-03  -6.2526780e-04   3.6533372e-04   2.4982558e-03   2.9108577e-04   5.4970613e-05   3.5439088e-04   3.1393563e-04   1.2898884e-03  -6.1579852e-04  -7.2509976e-04   5.8876275e-04  -7.0487510e-04   1.4333401e-03  -3.3239927e-04   1.4977455e-03   4.0553216e-05  -7.4402400e-04  -5.3721084e-04   1.0561952e-03   2.0164689e-03  -1.9567776e-03  -3.0384588e-03
  -3.9180426e-04  -5.2812125e-04   2.2576292e-05  -3.3668868e-04  -7.9333142e-04  -3.7535329e-04  -3.8553897e-04   4.2138476e-04  -6.2851253e-04   4.7203855e-04   9.3939554e-05   9.2922957e-05  -3.8410808e-04   4.9359305e-04  -9.0359955e-04   3.8595384e-04   1.2373734e-03   6.5748504e-04  -4.5725908e-05  -1.8995197e-05  -4.2604312e-04  -5.7374826e-04  -7.1125099e-04  -1.6271973e-03   2.7118977e-03   3.4404462e-04  -1.6454900e-04  -1.0097497e-03  -7.2265259e-04   2.8771252e-04   2.4423513e-03   2.5964942e-04  -1.7569927e-04   2.7706634e-04   3.1692651e-04   1.2691998e-03  -7.1953586e-04  -6.9158693e-04   6.8578514e-04  -6.3201430e-04   1.4708948e-03  -1.9446877e-04   1.6042890e-03   5.0251547e-04  -6.9331349e-04  -7.8852690e-04   1.0155579e-03   1.3363082e-03  -2.0883614e-03  -3.4256920e-03
  -3.0379021e-04  -3.4150947e-04   1.6228438e-04  -1.9289317e-04  -6.0834887e-04  -1.1729386e-04  -1.7386269e-04   3.3924184e-04  -1.4627378e-05   1.0706821e-03   5.6915247e-04   5.8186968e-04  -1.6046346e-04   4.9872638e-04  -8.4005698e-04   3.8608009e-04   1.0843251e-03   7.0941396e-04   2.2995616e-04   2.0121483e-04  -3.0047089e-04  -4.2768294e-04  -5.9008010e-04  -1.3037815e-03   2.7028341e-03   5.2736403e-04  -2.0961002e-04  -1.0220300e-03  -9.1396837e-04   3.6362605e-04   2.3312825e-03   3.8457595e-04   3.0008197e-05   3.9363158e-04   3.5947209e-04   1.2974610e-03  -5.5876991e-04  -5.6469114e-04   6.5005338e-04  -5.3102896e-04   1.2614523e-03  -2.4412226e-04   1.2300733e-03   1.7547866e-04  -6.0743903e-04  -7.4206706e-04   1.0008825e-03   1.1589139e-03  -1.2528145e-03  -2.4740405e-03
  -2.6473260e-04  -3.3242427e-04   7.6336961e-05  -1.2528095e-04  -5.9162575e-04  -1.4734249e-04  -1.7547491e-04   3.2409516e-04  -2.1478110e-04   8.9591928e-04   3.5815383e-04   5.6437263e-04  -1.4143701e-04   2.1685078e-04  -8.1217522e-04   4.2533517e-04   8.0157822e-04   6.3828460e-04  -4.7276902e-05   2.1287827e-04  -2.8334180e-04  -4.1424716e-04  -5.8642175e-04  -1.0859504e-03   2.6053942e-03   3.8050761e-04  -2.4848114e-04  -9.6673972e-04  -6.4185896e-04   3.2864072e-04   1.8987175e-03   2.0122749e-04  -1.9798314e-04   2.0775631e-04   3.4420210e-04   1.1120314e-03  -3.8349826e-04  -6.1928271e-04   5.0019310e-04  -6.9865357e-04   1.0724128e-03  -3.4196771e-04   1.5165342e-03   6.6073221e-04  -7.4460596e-04  -1.0652632e-03   6.2759710e-04   1.5121704e-03  -2.4938991e-03  -3.4606552e-03
  -3.3284313e-04  -4.6561094e-04   2.9806517e-05  -2.4393119e-04  -6.6853315e-04  -3.1007593e-04  -3.1573162e-04   2.0306603e-04  -3.2634899e-04   7.9436810e-04   2.1124496e-04   2.9180804e-04  -1.9713660e-04   2.7561368e-04  -6.8396475e-04   3.9112839e-04   9.0926350e-04   6.1896129e-04   1.1658273e-04   1.2898493e-04  -3.0571781e-04  -4.8019609e-04  -6.4335432e-04  -1.2076412e-03   2.3710749e-03   3.2429484e-04  -2.2616582e-04  -9.6039503e-04  -7.1524084e-04   4.3885145e-04   2.0114048e-03   2.7142468e-04  -4.1386702e-05   2.6598712e-04   3.3509152e-04   1.1356958e-03  -5.3433876e-04  -4.8936461e-04   4.7604190e-04  -5.4767128e-04   1.1778467e-03  -3.0291971e-04   5.7449320e-04  -4.4843304e-04  -4.8447441e-04  -7.6742843e-04   7.2747417e-04   2.8546306e-03  -2.2705507e-03  -1.7736766e-03
  -7.8044155e-05  -2.2237134e-04   1.5338781e-04  -3.9344064e-05  -5.3671992e-04  -1.1054218e-04  -1.7785783e-04   4.6358141e-04  -1.5538311e-05   1.0484328e-03   4.7169250e-04   4.6261176e-04  -8.3469364e-05   3.1735963e-04  -6.5519090e-04   3.8337681e-04   8.8186655e-04   6.1165268e-04   6.4678675e-06   2.8755490e-04  -2.4286297e-04  -4.0618129e-04  -4.4622083e-04  -1.1600108e-03   2.4568378e-03   3.9408225e-04  -3.0293775e-04  -8.7429502e-04  -5.3473236e-04   3.9479081e-04   1.8602025e-03   2.7512823e-04   5.1340176e-05   2.6487364e-04   3.5067563e-04   1.0954894e-03  -5.2182010e-04  -5.2864646e-04   5.3244887e-04  -4.1529475e-04   1.1047383e-03  -3.1799480e-04   1.1560706e-03   7.4016355e-04  -5.3190032e-04  -7.5009797e-04   6.8981497e-04   1.6051893e-03  -6.5757567e-04  -3.5331878e-03
  -2.7614908e-04  -2.7785212e-04   9.3383089e-05  -5.9664162e-05  -5.4666941e-04  -2.0203667e-04  -2.1474459e-04   9.9077777e-05  -2.1529455e-04   8.0282782e-04   2.5295373e-04   2.7732298e-04  -1.0581361e-04   2.0536290e-04  -6.4618367e-04   2.6471840e-04   7.2233850e-04   4.6464617e-04   7.5585027e-05   1.9505096e-04  -2.9071185e-04  -5.1748258e-04  -6.7728065e-04  -1.2185803e-03   2.2626095e-03   3.0665021e-04  -4.1034209e-04  -8.1852154e-04  -6.5764523e-04   3.3282084e-04   1.6964501e-03   1.5965011e-04  -3.3083031e-04   1.9699005e-04   2.0635207e-04   8.5254078e-04  -5.8058742e-04  -5.9128576e-04   3.8115770e-04  -5.6707766e-04   1.0052985e-03  -3.9381871e-04   6.7802949e-04   2.7984555e-04  -5.8995513e-04  -1.1781337e-03   5.8946374e-04   1.6865554e-03  -1.8012271e-03  -2.1385727e-03
  -2.6569329e-04  -2.4658538e-04   8.1097438e-05  -3.7168968e-05  -5.2718614e-04  -1.7810616e-04  -1.3478429e-04   3.1019005e-04  -5.8761922e-05   1.0384420e-03   4.7164480e-04   3.3293496e-04  -4.1590785e-05   2.3041369e-04  -5.9741974e-04   3.5036565e-04   7.6435611e-04   4.4366551e-04   1.4403780e-04   2.1608734e-04  -2.6000608e-04  -4.5241188e-04  -5.1861181e-04  -1.3043481e-03   2.2076035e-03   3.7996564e-04  -2.9299612e-04  -8.0856902e-04  -8.1576954e-04   4.0501158e-04   1.7786673e-03   2.2139457e-04  -1.4921909e-04   2.5579028e-04   3.1312837e-04   1.1472187e-03  -4.7779275e-04  -5.3638365e-04   4.8954878e-04  -2.9920091e-04   1.1999767e-03  -1.8805214e-04   1.1124654e-03   3.9499885e-04  -4.8251214e-04  -8.0192939e-04   7.4152765e-04   1.6841477e-03  -1.8592874e-03  -2.0037089e-03
  -1.6460450e-04  -1.8104549e-04   9.7669283e-05   7.1292998e-05  -4.7611730e-04  -1.6411152e-04  -8.6941400e-05   4.9842836e-04   3.0798223e-05   9.9672552e-04   4.8126487e-04   2.5514726e-04  -6.6816370e-05   2.1611205e-04  -5.5588706e-04   3.3227034e-04   8.1448030e-04   4.0629352e-04   4.1791674e-04   2.2979444e-04  -2.6195473e-04  -4.2510309e-04  -4.7507341e-04  -1.2300685e-03   2.2365209e-03   4.0775811e-04  -3.0191307e-04  -8.3188486e-04  -5.6115835e-04   4.1854801e-04   1.7634776e-03   1.5084070e-04   7.9239413e-05   2.5113038e-04   2.7244733e-04   1.0774094e-03  -6.1702332e-04  -5.7724136e-04   4.7574204e-04  -3.8102004e-04   8.1114651e-04  -1.4362915e-04   1.4335811e-03   8.5220154e-04  -5.8024807e-04  -8.3203561e-04   7.9005159e-04   2.2845855e-03  -1.4989898e-03  -2.0243730e-03
  -2.1541612e-04  -3.0203935e-04   6.3607185e-05   1.0014365e-05  -5.9525034e-04  -2.2304867e-04  -2.1073586e-04   2.3286286e-04  -2.0548726e-04   6.7418633e-04   2.1872697e-04  -5.7367153e-05  -2.2997848e-04   2.1866789e-04  -7.0361188e-04   2.3079388e-04   8.6521963e-04   3.6933468e-04  -1.4606067e-04   7.6157332e-05  -3.6631786e-04  -5.0995086e-04  -6.1995635e-04  -1.3880810e-03   2.1385557e-03   2.7478489e-04  -3.0275044e-04  -8.1033009e-04  -7.7840971e-04   3.5485104e-04   1.8226040e-03   1.8562228e-04  -1.3477380e-04   2.4450239e-04   2.5608900e-04   9.9815603e-04  -5.8866042e-04  -5.2173767e-04   5.3964125e-04  -4.0457005e-04   1.4517773e-03  -4.9573438e-05   1.3015289e-03   4.8116164e-04  -6.1622594e-04  -1.1126997e-03   7.3228875e-04   1.3125647e-03  -5.5969547e-04  -3.4063305e-03
  -1.9885747e-04  -1.8148209e-04   9.2605951e-05   9.1979506e-05  -5.1019812e-04   1.4700555e-05   3.2354030e-05   2.0047586e-04   4.2562574e-04   1.1626285e-03   6.8157178e-04   2.7430276e-04  -8.2563514e-05   3.8059859e-04  -6.1023678e-04   2.9946296e-04   9.2474697e-04   3.9217560e-04   2.1208618e-04   2.3894648e-04  -2.8833793e-04  -4.6599811e-04  -4.8452246e-04  -1.2406998e-03   2.1395695e-03   5.2861567e-04  -2.6989626e-04  -8.1194990e-04  -5.7766971e-04   4.4995939e-04   1.9413233e-03   2.3933871e-04   1.0324364e-04   3.7079217e-04   3.0770086e-04   1.2314555e-03  -4.1503677e-04  -5.4870971e-04   5.9987698e-04  -1.8565357e-04   1.3865934e-03   4.8023889e-05   1.0738943e-03   1.3014708e-03  -4.5585027e-04  -6.9581909e-04   7.9028681e-04   1.2782565e-03  -1.7681054e-03  -2.8577279e-03
  -2.2194073e-04  -2.2262498e-04   9.2611575e-05   1.0701646e-04  -5.4004829e-04  -6.8191031e-05  -7.3246920e-05   2.9659737e-04  -2.5406193e-06   9.4610907e-04   4.8935588e-04   1.3301960e-04  -1.5219062e-04   3.3351028e-04  -5.8558752e-04   1.7411716e-04   9.7013195e-04   3.9255244e-04   1.7981329e-04   1.6838248e-04  -3.2203246e-04  -5.3108350e-04  -6.1243598e-04  -1.2864883e-03   2.1800785e-03   3.9845216e-04  -2.9133068e-04  -8.1467879e-04  -5.1563367e-04   4.0421661e-04   1.8303678e-03   1.9300377e-04  -1.4449198e-04   2.5467976e-04   3.0172453e-04   1.0539735e-03  -3.8464481e-04  -5.4345524e-04   5.1233073e-04  -3.5495579e-04   1.3032005e-03  -3.7821665e-05   1.3180409e-03   8.3411270e-04  -6.2354241e-04  -1.2484198e-03   6.7556620e-04   2.0121809e-03  -2.4332569e-03  -2.6807974e-03
  -4.0226476e-04  -3.6299761e-04   9.3846656e-06   2.1004100e-06  -5.7311699e-04  -1.6472503e-04  -8.0408194e-05   5.4259953e-04   6.0582715e-05   9.7083446e-04   4.7954664e-04   1.3664164e-04  -1.9008773e-04   3.6433761e-04  -8.0612843e-04   2.8400274e-04   9.6417876e-04   4.1855362e-04   2.1792282e-04   1.2525081e-04  -3.3087138e-04  -4.8039499e-04  -4.3737763e-04  -1.2942144e-03   2.1849391e-03   5.1295385e-04  -1.9651883e-04  -7.8419613e-04  -4.9584336e-04   4.5960883e-04   2.0149201e-03   2.5612084e-04   1.6693656e-04   3.4540810e-04   3.0377766e-04   1.2841326e-03  -5.4533733e-04  -5.0366751e-04   6.7452749e-04  -1.6254255e-04   1.2691660e-03   2.2220827e-04   1.4196899e-03   1.1537676e-03  -4.4770440e-04  -1.0006571e-03   9.7129669e-04   2.3629235e-03  -2.1612276e-03  -1.5419341e-03
  -1.8210478e-04  -1.6939829e-04   6.9319831e-05   1.7286086e-04  -4.9727544e-04   2.1857713e-05   2.5443873e-05   1.7234866e-04   1.2110278e-04   1.2037551e-03   7.1524631e-04   3.6182022e-04  -1.2744419e-04   2.9986948e-04  -6.3694047e-04   2.2977685e-04   9.8264928e-04   4.4761033e-04   2.5514115e-04   2.2456878e-04  -2.5768107e-04  -4.9855525e-04  -4.2860676e-04  -1.0743611e-03   2.2127591e-03   4.9306930e-04  -2.4386663e-04  -8.2031748e-04  -6.8053830e-04   4.5484377e-04   2.0456796e-03   3.2443524e-04   7.7638550e-05   3.8975623e-04   3.6395114e-04   1.2323410e-03  -5.0999882e-04  -4.5681748e-04   8.2148239e-04  -2.5871812e-04   1.0933705e-03   1.2505449e-04   1.5279875e-03   6.3014384e-05  -5.6243833e-04  -8.5892354e-04   1.0009817e-03   1.3451821e-03  -7.5520505e-04  -3.6334028e-03
  -2.4632923e-04  -2.7425794e-04   5.6116983e-06   1.0465396e-04  -5.5524911e-04  -7.2210059e-05  -2.2950508e-05   3.6007847e-04   7.1774062e-05   9.3307305e-04   4.9632305e-04   2.0576686e-04  -2.3321736e-04   3.3351002e-04  -6.7228416e-04   1.5419873e-04   9.8319724e-04   4.4486529e-04   7.5459182e-05   8.4769687e-05  -3.1157336e-04  -5.7020405e-04  -5.9348095e-04  -1.1587660e-03   2.1070105e-03   3.3167723e-04  -2.9270267e-04  -8.1787084e-04  -6.5763993e-04   4.0852354e-04   1.9609663e-03   2.1717069e-04  -9.9302619e-05   2.4292291e-04   2.3164488e-04   1.0894662e-03  -4.7394636e-04  -5.3665286e-04   6.0995290e-04  -2.9300959e-04   1.3813539e-03   9.4955562e-05   1.7298048e-03   6.6199678e-04  -7.1040774e-04  -9.9774986e-04   8.6329016e-04   1.7119662e-03  -1.1285649e-03  -3.1487567e-03
  -3.8025883e-04  -3.7189628e-04  -4.2854819e-05   1.2561522e-05  -5.5496197e-04   7.0872106e-06  -3.1069769e-05   1.3829549e-04   1.5744311e-04   1.1881962e-03   6.1312079e-04   4.4408059e-04  -1.9782815e-04   2.2748686e-04  -6.9701351e-04   1.9495537e-04   8.6958852e-04   4.4470929e-04   2.1986236e-04   5.2350493e-05  -2.8647709e-04  -5.3039787e-04  -4.6849917e-04  -9.9835452e-04   2.1154699e-03   4.6169819e-04  -4.1937991e-04  -8.4979361e-04  -5.5207504e-04   4.3511536e-04   1.9604866e-03   2.3816928e-04  -1.4946911e-04   4.0114979e-04   3.2509986e-04   1.2134644e-03  -4.3842834e-04  -5.2643556e-04   6.4934918e-04  -1.7358293e-04   1.5246123e-03   3.2493108e-04   1.5941103e-03   4.4737934e-04  -3.8773520e-04  -7.2796521e-04   9.5148606e-04   1.3359357e-03  -1.8680660e-03  -4.5228745e-03
  -1.9611791e-04  -1.9426957e-04   4.3847285e-05   1.3696117e-04  -4.9094588e-04   8.0781087e-05   5.0025545e-05   1.5325214e-04   2.1381873e-04   1.2426365e-03   7.5814605e-04   4.2262487e-04  -1.5374176e-04   1.9486547e-04  -6.1981886e-04   2.3276477e-04   8.6997275e-04   3.7968330e-04   1.5356341e-04   8.5834748e-05  -2.0970969e-04  -4.0250242e-04  -4.1510674e-04  -1.0938448e-03   2.0963550e-03   4.8910681e-04  -3.4638878e-04  -8.2058186e-04  -6.4978428e-04   4.2719970e-04   1.8118101e-03   2.1164285e-04  -5.2042426e-05   2.4852771e-04   2.8216871e-04   1.1503595e-03  -2.6276187e-04  -4.8704480e-04   7.4645859e-04  -2.1157207e-04   1.3182644e-03   2.8805234e-04   1.8070301e-03   1.4446852e-04  -4.5783640e-04  -6.9346197e-04   1.1396133e-03   2.0396784e-03  -1.2505702e-03  -3.0508703e-03
  -3.3708217e-04  -2.8614263e-04  -1.9283028e-05   5.4661727e-05  -5.6915375e-04  -3.8163773e-05  -7.8603523e-05   2.2051198e-04  -6.3389991e-05   9.4953325e-04   5.0351780e-04   2.9715686e-04  -2.3504870e-04   1.6494727e-04  -7.6796516e-04   7.5241922e-05   8.6788309e-04   2.9893950e-04   3.0263371e-04  -8.8103414e-05  -2.7598947e-04  -4.5494692e-04  -5.7023671e-04  -1.1601647e-03   1.9809927e-03   3.2581270e-04  -2.8882682e-04  -8.4979320e-04  -8.2789583e-04   3.7558828e-04   2.0885267e-03   1.5884348e-04  -1.0392911e-05   1.6142629e-04   2.1147316e-04   1.1726855e-03  -5.5293139e-04  -6.9443521e-04   6.1458128e-04  -4.2340931e-04   1.4166614e-03   1.5974347e-04   1.3002045e-03   5.4136565e-04  -8.9844229e-04  -8.5365603e-04   1.1871334e-03   1.1989269e-03  -1.7160428e-03  -3.2893335e-03
  -4.7215159e-04  -4.8198565e-04  -1.2053758e-04  -1.3162763e-04  -6.8688166e-04  -1.7028735e-05  -5.8002988e-05   4.1444856e-04   3.4606379e-05   1.0175940e-03   6.5809221e-04  -3.3026641e-05  -3.8600701e-04   4.9396901e-04  -7.6198165e-04   8.9502726e-05   1.3074129e-03   3.5877238e-04   4.5322253e-05  -2.1750314e-04  -3.7315438e-04  -6.1859668e-04  -6.5021985e-04  -1.3067748e-03   2.1895966e-03   5.6167849e-04  -3.4239722e-04  -9.2285936e-04  -9.7193121e-04   4.3288528e-04   2.4056025e-03   2.2049742e-04   2.0875635e-04   3.3096329e-04   2.5154997e-04   1.3391149e-03  -3.2384956e-04  -7.4675202e-04   8.1912521e-04  -3.8957704e-04   1.6029757e-03   2.6311123e-04   7.3519797e-04   1.3590915e-03  -6.0631940e-04  -6.2030199e-04   1.3167073e-03   9.5450733e-04  -1.7956321e-03  -2.9950456e-03
  -4.1534888e-04  -3.1123939e-04  -3.8060833e-05  -4.6365207e-05  -6.0738903e-04  -8.1837243e-06  -2.1260475e-05   1.5328835e-04   6.4278611e-05   1.1642753e-03   8.4014831e-04   4.2805512e-04  -2.7267961e-04   1.6375673e-04  -8.8902301e-04   5.7903744e-05   9.8938379e-04   2.9350864e-04  -1.0331253e-04  -1.2093215e-04  -2.7326183e-04  -4.7266498e-04  -5.4394989e-04  -1.0912411e-03   2.0149357e-03   4.9711275e-04  -3.9045388e-04  -9.9372643e-04  -8.1259530e-04   3.4865818e-04   1.9564731e-03   1.1079426e-04   6.7555484e-05   2.1025455e-04   2.6981143e-04   1.2118643e-03  -2.9210889e-04  -7.5560214e-04   5.6365825e-04  -2.4668023e-04   1.5700809e-03   2.7556636e-04   1.3043758e-03   7.9637970e-04  -5.1012548e-04  -8.3696161e-04   1.2125338e-03   1.7264299e-03  -1.3479595e-03  -2.4853400e-03
  -3.3975826e-04  -3.7219518e-04  -1.4058975e-04  -8.4572028e-05  -6.4990093e-04  -1.3062148e-04  -1.7976671e-04   9.0631642e-05  -8.0092606e-05   9.3184772e-04   5.6793122e-04   4.7959966e-04  -3.0189278e-04  -5.3801934e-05  -7.9184660e-04  -6.9341615e-05   5.7852303e-04   2.4234907e-04  -1.5540332e-04  -2.2250977e-04  -2.5990797e-04  -4.6108692e-04  -6.6244771e-04  -9.3722786e-04   2.0539106e-03   2.4869962e-04  -5.2622473e-04  -8.6336647e-04  -9.6561661e-04   2.0866616e-04   1.4005844e-03  -9.3609779e-05  -5.8633792e-05   5.0842253e-05   1.2129227e-04   8.3307916e-04  -7.3072687e-04  -8.0149353e-04   4.8603478e-04  -5.0965318e-04   9.2173769e-04  -7.5696982e-05   1.2080290e-03   3.5177916e-04  -3.5000773e-04  -8.1799278e-04   8.6625631e-04   1.8228926e-03  -9.2642935e-04  -2.0612055e-03
  -2.9252857e-04  -2.4542221e-04  -1.4976067e-04  -3.0593183e-05  -4.8748340e-04  -1.3502453e-04  -9.7015392e-05  -4.3640808e-05   3.0708604e-04   1.3883134e-03   7.9304865e-04   8.8287034e-04  -1.3030312e-04  -2.4732907e-04  -6.6932139e-04   1.6204040e-06   1.5079738e-04   1.7591285e-04  -1.5655080e-04  -2.1610531e-04  -6.2558167e-05  -2.1717668e-04  -4.0619855e-04  -7.2671520e-04   1.7945403e-03   3.3869044e-04  -4.7370821e-04  -5.0001900e-04  -7.8627456e-04   1.5958479e-04   8.4739382e-04  -2.3648502e-04  -7.9828569e-05   1.5363064e-04   1.7114448e-04   8.6850143e-04  -4.4250971e-04  -8.1271993e-04   3.3136329e-04  -3.0240635e-04   1.0182502e-03   1.2377168e-04   7.2849152e-04   1.1155872e-03  -2.3333785e-04  -8.5850403e-04   8.0819894e-04   1.9101012e-03  -2.7561645e-04  -2.1870809e-03
  -2.7489578e-04  -1.7455805e-04  -1.1253778e-04   2.7011272e-05  -5.0493708e-04  -2.3929476e-04  -1.3161001e-04  -2.2903185e-04  -4.5134559e-05   1.2253119e-03   6.8337761e-04   7.2372239e-04  -8.2248465e-05  -1.7192420e-04  -7.1168458e-04  -4.7470177e-05   1.8528252e-04   1.1771527e-04  -1.2779453e-04  -2.3390369e-04  -2.9691244e-05  -2.4069502e-04  -4.9633230e-04  -6.9578068e-04   1.7359674e-03   2.7509432e-04  -4.6232357e-04  -4.3984925e-04  -9.5331494e-04   4.5917241e-05   8.4873405e-04  -2.3702501e-04  -2.8644604e-04   2.6124892e-05   8.2661805e-05   8.1110938e-04  -5.2888948e-04  -8.7321777e-04   2.9995877e-04  -3.9289205e-04   1.0497285e-03   3.7641694e-05   1.2351127e-03   4.8750950e-04  -3.5389958e-04  -8.2368794e-04   8.3679805e-04   1.9381277e-03  -9.9133409e-04  -1.3062711e-03
  -4.1483945e-04  -2.8710798e-04  -2.2448605e-04  -7.8890771e-05  -5.8992422e-04  -3.0467915e-04  -2.8462242e-04  -2.4303925e-04  -2.0624881e-04   9.3319314e-04   4.2699871e-04   5.2343204e-04  -1.6746743e-04  -2.4260188e-04  -7.1829953e-04  -1.1543532e-04   5.4527394e-05   1.3289234e-04  -1.2939441e-04  -2.9835195e-04  -5.0455299e-05  -1.6212130e-04  -4.3861556e-04  -6.7483872e-04   1.6099513e-03   3.6798060e-04  -5.1104830e-04  -4.3889604e-04  -8.2560180e-04   7.7423188e-05   7.6479767e-04  -2.7703439e-04  -1.5357514e-04   1.0622447e-04   1.7159674e-04   9.5446093e-04  -6.1953824e-04  -8.6827908e-04   2.2828788e-04  -1.9003739e-04   1.0996191e-03   6.3129337e-05   1.7899974e-03   3.1656618e-04  -2.9306291e-04  -8.6011487e-04   9.3617587e-04   1.8363391e-03  -8.3618745e-04  -1.2204453e-03
  -1.4469364e-04  -8.8867804e-05  -6.6122266e-05   3.5911376e-05  -4.2548490e-04  -2.0528732e-04  -1.4894319e-04  -4.0310737e-05   4.5344983e-05   1.2417760e-03   7.4876705e-04   6.8149040e-04  -3.9578517e-05  -1.3933620e-04  -5.5152364e-04  -1.2199736e-04   2.1431244e-04   1.5349136e-04  -1.7280727e-04  -2.2548334e-04   4.7491878e-05  -1.1435415e-04  -3.2724914e-04  -6.9186545e-04   1.7239397e-03   3.8940829e-04  -4.1624685e-04  -4.2039691e-04  -7.5391342e-04   5.6255616e-05   8.8062877e-04  -2.0952326e-04   7.3764422e-05   1.3752018e-04   1.8991539e-04   8.4756606e-04  -5.7684816e-04  -8.3117612e-04   2.8257212e-04  -2.3526914e-04   9.2031172e-04   1.1313164e-04   9.8300457e-04   4.8325921e-05  -2.7519575e-04  -8.3455117e-04   9.0997550e-04   2.1760841e-03  -1.1741619e-03  -2.6658358e-04
  -2.7852421e-04  -1.9457874e-04  -3.6345307e-05  -2.2984712e-05  -4.8253615e-04  -3.0538897e-04  -2.2905141e-04  -7.2942552e-05  -1.2112994e-04   1.0010656e-03   5.0445629e-04   5.4570328e-04  -3.9476014e-05  -1.1454121e-04  -6.8339496e-04  -8.2293605e-05   1.9635916e-04   1.7218466e-04  -1.6461578e-04  -2.8769209e-04   1.0927917e-05  -1.6186836e-04  -4.9801404e-04  -7.2898070e-04   1.6503785e-03   1.9126857e-04  -3.6103447e-04  -3.8848433e-04  -9.1398373e-04   2.0320509e-05   9.1093447e-04  -2.5569712e-04  -8.0934064e-05   6.3831474e-05   1.3776720e-04   7.5321057e-04  -6.3695910e-04  -9.0222334e-04   2.3359417e-04  -4.7446715e-04   9.4834052e-04  -6.8688147e-05   6.2709540e-04   9.4618602e-04  -4.6025508e-04  -6.6716044e-04   6.1384321e-04   2.3542093e-03  -5.3281046e-04  -2.3020289e-03
  -2.4819051e-04  -2.1647505e-04  -9.5941068e-05  -7.0155831e-05  -4.3574572e-04  -2.4007779e-04  -1.8192966e-04   5.3990334e-05   9.2555762e-05   1.2074080e-03   6.4095866e-04   6.9035316e-04   2.8870045e-05  -1.3475041e-04  -6.6224037e-04   3.6142796e-05   8.6866101e-05   2.0153176e-04  -1.7245010e-06  -2.2834491e-04   3.2865744e-05  -1.4434323e-04  -2.9919975e-04  -5.4752850e-04   1.6856069e-03   3.7545449e-04  -3.8502857e-04  -3.5449711e-04  -6.3959212e-04   5.6652047e-05   9.0852001e-04  -1.6876157e-04  -1.4234646e-04   1.5177569e-04   1.8940846e-04   7.7185017e-04  -3.2048588e-04  -7.2498387e-04   1.5744974e-04  -3.7417238e-04   9.7005808e-04   1.7234297e-04   1.1434924e-03   5.3293968e-04  -2.2431601e-04  -7.4655400e-04   6.1490544e-04   2.2536053e-03  -4.3873256e-04  -9.4005105e-04
  -1.9800103e-04  -9.7339587e-05   3.0586914e-05  -4.5107868e-06  -3.7983790e-04  -1.4280422e-04  -1.9426252e-04   2.6035574e-04   8.9036417e-05   1.1323991e-03   6.5681041e-04   5.9573149e-04   9.0339454e-05  -9.4864081e-05  -5.5483775e-04   1.0511973e-04   2.0189826e-04   1.9604342e-04  -4.8830298e-05  -2.0012069e-04   6.3434789e-05  -1.1021931e-04  -3.2413669e-04  -6.5936055e-04   1.6775109e-03   3.5373028e-04  -4.0126880e-04  -3.2436766e-04  -6.1050558e-04   4.3052263e-05   8.5072574e-04  -2.1908573e-04   1.1454755e-04   1.0607415e-04   1.2347344e-04   7.1462680e-04  -4.6154566e-04  -7.7068357e-04   1.1014727e-04  -4.2937163e-04   8.3987135e-04  -1.8732599e-05   1.0876519e-03   6.7378319e-04  -2.9259533e-04  -8.5388729e-04   6.1271107e-04   2.0644071e-03  -7.4703799e-04  -2.4917147e-03
  -2.4462014e-04  -2.1420498e-04  -5.9890135e-05  -9.2846414e-05  -4.6885115e-04  -2.5421981e-04  -2.2550419e-04   1.3270009e-04  -1.8530415e-04   7.6001120e-04   3.5438238e-04   3.0915768e-04  -5.7833069e-05  -1.3448037e-04  -6.8430632e-04   7.2289749e-06   1.0683377e-04   1.4231956e-04  -1.6526491e-04  -3.1000940e-04  -1.0705059e-05  -1.3267566e-04  -3.5787126e-04  -6.8406574e-04   1.5831410e-03   1.4187205e-04  -3.6334142e-04  -2.5317376e-04  -7.2040595e-04  -2.7678219e-05   7.7094603e-04  -2.2574417e-04  -2.2534840e-04   7.6487042e-05   4.2596836e-05   7.1683596e-04  -4.7073836e-04  -7.7082502e-04   2.2929224e-05  -5.9512106e-04   6.2617072e-04  -1.4703975e-04   1.2352443e-03  -2.0176276e-05  -4.3166860e-04  -8.6477573e-04   5.9231062e-04   1.8278300e-03  -4.1034250e-04  -9.4708963e-04
  -2.4953071e-04  -1.7293119e-04  -4.8734146e-05  -7.6961798e-05  -4.5769766e-04  -2.0185324e-04  -2.0787914e-04   5.1303137e-05   1.7157446e-04   1.0865624e-03   5.4132496e-04   5.1154493e-04   3.2699623e-05  -1.4400076e-04  -6.4758281e-04   1.0082691e-04   1.3375390e-04   1.9760698e-04  -8.9079826e-05  -2.3481523e-04   6.4725782e-06  -1.0422708e-04  -1.9372260e-04  -6.1784178e-04   1.6964572e-03   2.8157129e-04  -2.9266396e-04  -2.3754535e-04  -4.5617958e-04   9.8599732e-05   9.3406055e-04  -1.3844413e-04  -1.2063127e-04   1.4105391e-04   1.4592115e-04   6.8908464e-04  -3.7570013e-04  -7.0325326e-04   1.1582822e-04  -4.4934824e-04   8.7708008e-04   1.4575401e-04   1.0493331e-03   3.6228012e-04  -1.6372773e-04  -9.7374257e-04   6.8080425e-04   1.6725329e-03  -7.4433791e-04  -9.1487204e-04
  -2.5466373e-04  -1.3289417e-04  -6.0174966e-07  -3.6954687e-05  -3.8684794e-04  -1.1900546e-04  -1.6533906e-04   4.9972068e-06   9.1022499e-05   9.7262039e-04   4.7356804e-04   4.2266009e-04   3.0741336e-05  -7.3237083e-05  -5.8632973e-04   9.7399963e-05   1.3431530e-04   2.0222225e-04  -1.0818129e-04  -2.0547223e-04  -1.8288525e-05  -1.0883970e-04  -1.7482859e-04  -5.4836442e-04   1.7115085e-03   3.3399987e-04  -4.0278712e-04  -1.6832043e-04  -5.8666489e-04   4.4910812e-05   9.1193942e-04  -1.3932625e-04  -8.1355865e-05   1.0673075e-04   5.9007722e-05   5.4846436e-04  -5.1627203e-04  -7.2065863e-04   4.3753949e-05  -4.9606507e-04   8.2298042e-04  -1.0536605e-04   1.6048520e-03  -5.3806818e-04  -3.3285434e-04  -9.4537251e-04   4.4468007e-04   1.5756685e-03  -1.4350888e-03  -1.1051262e-03
  -3.4621815e-04  -2.9382642e-04  -8.9913054e-05  -1.4045635e-04  -4.9900240e-04  -2.5887517e-04  -2.8790202e-04  -9.1110582e-05  -3.3777152e-04   5.3110189e-04   1.2024416e-04   3.5105710e-05  -7.6526892e-05  -9.5605908e-05  -7.1942725e-04  -4.4648077e-06   1.1816949e-04   1.2942056e-04  -2.2140161e-04  -3.4655136e-04  -1.3151212e-04  -2.5594566e-04  -4.8299783e-04  -7.9477415e-04   1.5362562e-03   8.8158093e-05  -3.1727960e-04  -1.9055736e-04  -9.3881378e-04  -6.9497721e-05   8.7220711e-04  -1.8669183e-04  -2.4179117e-04   4.8768165e-06   8.8351526e-06   5.1059143e-04  -7.8440347e-04  -7.2549569e-04  -1.0983825e-04  -7.2542467e-04   7.2105986e-04  -1.7793090e-04   8.4739202e-04   7.2055855e-07  -5.2559748e-04  -1.0611839e-03   5.1253580e-04   1.1281547e-03  -1.2392662e-03  -2.3790696e-03
  -3.0572410e-04  -1.7041774e-04  -7.7238779e-05  -9.7081916e-05  -4.1320798e-04  -1.5915697e-04  -1.8656233e-04  -1.7047605e-05   1.1083425e-05   9.4803900e-04   3.9944434e-04   3.4066293e-04  -6.4970218e-06  -1.4264387e-04  -5.2358280e-04   1.2949454e-04   7.2253330e-05   1.3709760e-04  -1.7542439e-04  -2.5092441e-04  -9.4471943e-05  -2.0751638e-04  -2.4032578e-04  -5.4200698e-04   1.5422134e-03   1.9845225e-04  -3.8383220e-04  -1.9035459e-04  -6.7559973e-04   4.1890838e-05   8.0805435e-04  -1.0025270e-04  -2.4949096e-04   8.6598877e-05   3.1257747e-05   6.6478288e-04  -4.5281454e-04  -6.5076019e-04   6.2765548e-06  -4.6094513e-04   8.8290719e-04  -2.8522783e-05   5.3103833e-04   6.0498103e-04  -2.2403870e-04  -8.5842167e-04   4.3811728e-04   1.7705385e-03  -1.0579953e-03  -5.3959631e-04
  -3.7516528e-04  -1.6885759e-04  -2.4111598e-05  -7.1440896e-05  -3.8382248e-04  -1.3536745e-04  -2.0727748e-04  -3.6502159e-05  -1.4752452e-04   7.3953456e-04   1.9164525e-04   1.8149751e-04  -7.5943331e-05  -9.4313444e-05  -5.4489024e-04   5.5801498e-05   5.4258278e-05   1.1498423e-04  -1.4203344e-04  -2.6698652e-04  -1.5818431e-04  -3.2623598e-04  -2.9444305e-04  -6.6344533e-04   1.5600398e-03   1.2143153e-04  -4.2611244e-04  -1.2918950e-04  -5.8176165e-04   3.9203158e-05   7.8012509e-04  -1.7179878e-04  -2.0050410e-04   5.8442398e-05   3.3261964e-05   5.0856412e-04  -5.8515364e-04  -6.8026182e-04  -1.8877952e-05  -6.2906049e-04   5.5731426e-04  -1.7263377e-04   9.0674026e-04   3.0311997e-04  -4.6613123e-04  -1.0186820e-03   3.3989787e-04   1.4804440e-03  -1.3555693e-03  -3.2035271e-03
  -3.9416543e-04  -3.2471077e-04  -1.7947714e-04  -1.4216632e-04  -4.7637132e-04  -2.5452522e-04  -3.1532408e-04  -1.1097376e-04  -4.4237217e-04   3.4274804e-04  -1.9974691e-04  -1.3992489e-04  -2.0757261e-04  -2.2103301e-04  -6.3417666e-04  -5.0954797e-05  -4.4072560e-05   1.1548134e-04  -3.2814496e-04  -4.0680304e-04  -2.4240937e-04  -3.5246526e-04  -4.1192479e-04  -8.1284996e-04   1.5108502e-03  -4.0225808e-05  -4.8901740e-04  -8.2428211e-05  -6.4304844e-04   3.1579828e-05   7.6705316e-04  -1.5302205e-04  -3.9602170e-04   4.7467172e-05  -4.8054103e-06   5.2515342e-04  -3.6621635e-04  -6.9825083e-04   3.8551470e-06  -5.4206850e-04   5.1244994e-04  -1.8973534e-04   6.6004699e-04   8.9474175e-05  -4.3889123e-04  -1.0371336e-03   4.0774132e-04   1.9157099e-03  -4.1275565e-04  -2.1685380e-03
  -3.1176984e-04  -1.6915903e-04  -7.7788929e-05  -5.0334656e-05  -3.8513605e-04  -1.1454216e-04  -1.5738017e-04  -8.0051599e-05  -1.0038845e-04   7.1519270e-04   1.0910547e-04  -1.1246783e-06  -6.2327359e-05  -1.4044873e-04  -5.6919665e-04  -5.2225651e-06   2.7230286e-05   8.9507885e-05  -1.2867204e-04  -2.9906913e-04  -2.1265198e-04  -3.2114558e-04  -3.5676130e-04  -8.1326813e-04   1.4902359e-03   5.1026742e-05  -4.7865466e-04  -1.2135081e-04  -5.7336397e-04  -1.1514086e-05   7.8196486e-04  -1.5179688e-04  -2.1084893e-04   6.0736387e-05   2.7067254e-05   5.8399985e-04  -5.7548587e-04  -7.3862023e-04  -1.4154540e-04  -3.8343042e-04   6.1303424e-04  -2.1239345e-04   6.0126267e-04   2.3587974e-04  -3.1451820e-04  -1.1277671e-03   3.4558066e-04   1.5832166e-03  -1.4347597e-03  -2.1796538e-03
  -4.8711267e-04  -2.4391279e-04  -1.2873340e-04  -9.3769624e-05  -4.5860835e-04  -2.9983057e-04  -3.0807705e-04  -1.2530324e-04  -3.3196172e-04   4.5681102e-04  -1.5507308e-04  -1.8057380e-04  -1.7118083e-04  -2.9145437e-04  -5.2336481e-04  -1.4835662e-04  -5.2616837e-05   5.2856558e-05  -1.6213690e-04  -3.4387270e-04  -2.6754450e-04  -3.8934694e-04  -4.2071653e-04  -8.2614151e-04   1.4445055e-03  -5.8122376e-05  -4.2110757e-04  -7.6482334e-05  -9.1117329e-04  -6.3995729e-05   6.2825822e-04  -2.1598919e-04  -4.4801930e-04  -2.2162043e-05  -5.8017238e-05   4.1476934e-04  -7.6946284e-04  -7.2991505e-04  -1.3609683e-04  -6.2647974e-04   3.1162277e-04  -4.1931262e-04   8.0227177e-04  -4.9815531e-04  -3.8064129e-04  -1.2132027e-03   2.0941853e-04   1.3923142e-03  -1.7509101e-03  -1.6486754e-03
  -4.2338192e-04  -2.2338264e-04  -1.2425496e-04  -6.4324791e-05  -4.0544497e-04  -2.3564827e-04  -2.2750042e-04  -1.0507063e-05  -1.5882701e-04   6.9144077e-04   1.1812836e-05  -2.4062070e-05  -1.1961775e-04  -2.6691591e-04  -4.9689907e-04  -1.8575003e-05  -7.1945884e-05   8.8882320e-05  -9.8413999e-05  -2.7473265e-04  -2.4357953e-04  -2.9771731e-04  -2.6633919e-04  -7.8061502e-04   1.4352512e-03   2.0419404e-05  -5.0738797e-04  -6.8560970e-05  -7.9117541e-04  -5.7253827e-05   6.6166220e-04  -1.3560502e-04  -2.4018798e-04   9.0731453e-05   4.6961562e-05   5.3312595e-04  -5.8016874e-04  -6.5127807e-04  -1.0448643e-04  -4.8805692e-04   7.0524408e-04  -5.1690091e-05   8.6358242e-04  -1.9627120e-04  -2.7509016e-04  -9.7946695e-04   1.8368331e-04   1.4188892e-03  -1.9483624e-03  -2.0197004e-03
  -4.2985554e-04  -1.8296261e-04  -9.5369687e-05   5.0938161e-06  -3.9644100e-04  -1.9382148e-04  -2.2687919e-04  -6.1740626e-05  -2.7017333e-04   5.6783861e-04  -1.0668206e-04  -1.4355074e-04  -1.1363583e-04  -2.4865998e-04  -3.7324612e-04  -1.1713488e-04  -3.1525939e-05   7.7652352e-05  -2.3802754e-04  -2.4418530e-04  -2.2281613e-04  -3.3668990e-04  -4.8054248e-04  -7.9906144e-04   1.3386809e-03   6.8028530e-05  -5.1929080e-04  -3.9197883e-05  -4.3116024e-04  -1.8974664e-05   6.3666841e-04  -1.5043339e-04  -3.9795015e-04   1.4554695e-05   1.8565957e-05   4.5237984e-04  -7.4729510e-04  -6.0025486e-04  -5.8876420e-05  -4.5128533e-04   5.9983961e-04  -1.3783906e-04   1.2920162e-03  -5.2957993e-04  -3.7686527e-04  -9.9107437e-04   2.4116992e-04   9.2801073e-04  -1.5536436e-03  -1.7940834e-03
  -5.2397058e-04  -3.1309074e-04  -1.9967326e-04  -7.0787879e-05  -4.6700079e-04  -3.7991561e-04  -3.0399603e-04  -5.5001776e-05  -2.9096610e-04   4.4846354e-04  -2.6709773e-04  -2.2025326e-04  -2.1492809e-04  -3.0621554e-04  -5.2498886e-04  -6.4123800e-05  -6.1678249e-05   8.7373970e-05   3.9860395e-05  -2.4418693e-04  -2.3726511e-04  -3.2416431e-04  -3.4344426e-04  -8.5075753e-04   1.3518599e-03   1.5651723e-04  -5.0143065e-04  -3.0641541e-08  -5.5429217e-04   9.7182538e-06   6.7940395e-04  -8.8618872e-05  -4.4317613e-04   9.0629394e-05   6.3292013e-05   5.4126180e-04  -5.7757500e-04  -5.0974370e-04  -1.4085960e-05  -3.8779128e-04   5.6299241e-04  -1.2308391e-04   4.9304002e-04   1.4516851e-04  -2.1600944e-04  -1.0363441e-03   3.8849379e-04   9.9106936e-04  -1.0552031e-03  -1.2769987e-03
  -4.2759007e-04  -1.1693497e-04   3.7111106e-06   1.0257875e-04  -3.1330917e-04  -1.1863878e-04  -1.1289470e-04   5.2759997e-06  -9.8700380e-05   7.2920532e-04  -2.8013364e-05   1.0370743e-05  -7.5144359e-05  -2.4107599e-04  -3.4418667e-04  -3.8927905e-05  -2.4235071e-05   9.1832160e-05   1.0862398e-05  -1.0270131e-04  -1.6412094e-04  -3.1577499e-04  -3.3007670e-04  -7.6795899e-04   1.4056127e-03   8.4599742e-05  -4.7796412e-04   1.4949201e-05  -3.7449301e-04   5.5221249e-06   6.2053086e-04  -9.9906560e-05  -3.5863131e-04   9.7016811e-05   8.2673563e-05   6.5629918e-04  -5.9064443e-04  -5.2961893e-04   1.4201432e-05  -2.8159871e-04   5.7849602e-04  -1.3152571e-04   5.3366605e-04   5.2243989e-04  -1.8629195e-04  -7.9426862e-04   4.2648436e-04   9.0540433e-04  -9.9297450e-04  -2.1017040e-03
  -4.7335733e-04  -2.1576407e-04  -6.5298053e-05   4.8998456e-05  -3.6571009e-04  -2.7645449e-04  -1.1346672e-04  -2.4565967e-04  -2.9985534e-04   5.0925527e-04  -2.3464092e-04  -1.1972578e-04  -1.5167319e-04  -2.7969884e-04  -4.3270338e-04  -3.3695203e-05  -9.5573763e-05   6.0947048e-05   2.9344284e-05  -1.6774636e-04  -1.9188544e-04  -2.7375348e-04  -4.4945910e-04  -8.1374688e-04   1.3848451e-03   2.6760499e-05  -4.3887415e-04   2.7154368e-07  -5.7993719e-04  -6.2786326e-05   4.6255218e-04  -1.9186545e-04  -4.0174558e-04   1.5634951e-05   5.1941461e-06   6.1579468e-04  -3.9298332e-04  -5.2366470e-04  -4.9912036e-05  -3.4690253e-04   5.5691780e-04  -1.3617925e-04   6.4707990e-04   4.3128624e-05  -2.1370233e-04  -8.1221678e-04   4.1391331e-04   1.3562889e-03  -9.0869860e-04  -3.9814677e-04
  -2.8538227e-04  -1.4606520e-04   2.9669964e-06   9.5093637e-05  -2.8034713e-04  -1.0630593e-04  -7.1348991e-06  -1.9377909e-04   2.1634849e-04   8.7981916e-04   6.8983529e-05   1.4690682e-04  -4.5759527e-05  -2.5764428e-04  -4.1977054e-04   4.3575833e-06  -3.2554512e-05   7.3264717e-05   2.4584681e-04  -7.5356962e-05  -1.2060697e-04  -2.1137879e-04  -1.8983586e-04  -6.9321221e-04   1.3704444e-03   2.0311392e-04  -4.9438915e-04   1.8618462e-05  -4.5107485e-04   2.3782830e-05   5.4944359e-04  -9.3982904e-05  -1.5557886e-04   1.2705692e-04   1.4202393e-04   6.8899523e-04  -5.0058559e-04  -4.6778200e-04   9.1570937e-06  -2.0640207e-04   8.1470056e-04  -2.4171242e-05  -3.1459080e-05   8.9757709e-04  -2.4396386e-05  -6.8089971e-04   5.3041580e-04   6.7904376e-04  -2.0194435e-03  -1.6338952e-03
  -3.3747152e-04  -1.3440437e-04   1.2746191e-05   1.4460103e-04  -2.9949489e-04  -1.8219660e-04  -3.9943046e-05   1.0359494e-04   1.5760111e-04   7.3912943e-04   4.0288182e-06   5.8996357e-05  -5.4227323e-05  -2.5481315e-04  -4.6586266e-04   6.4648198e-06   1.4856337e-05   4.7407306e-05   3.0988365e-04  -4.6724184e-05  -1.1271727e-04  -2.3063413e-04  -3.4506459e-04  -6.8165705e-04   1.3655644e-03   2.0935832e-04  -4.1015440e-04   3.6399283e-06  -4.2381836e-04   5.0930870e-05   5.5584084e-04  -1.0643951e-04  -2.8238972e-04   4.6803896e-05   4.4618355e-05   6.1077689e-04  -4.1493465e-04  -4.6148023e-04   9.0875561e-05  -1.7780083e-04   7.7290210e-04  -7.1325885e-05   9.7555421e-05   6.7443599e-04  -1.6697717e-04  -7.1167818e-04   4.7254990e-04   7.2285824e-04  -1.0635090e-03  -3.0686095e-04
  -5.0829846e-04  -2.7123111e-04  -8.5428343e-05   4.8195900e-05  -3.8869129e-04  -2.4839825e-04  -7.2710565e-05  -2.9177118e-05  -2.6539047e-04   4.5798905e-04  -2.2590428e-04  -7.8071171e-05  -2.2285219e-04  -2.8358700e-04  -3.4829916e-04  -2.7953110e-05  -7.4568059e-05   8.0974660e-06   1.4280355e-04  -1.0598418e-04  -1.4388451e-04  -2.5276848e-04  -3.4971323e-04  -5.9043552e-04   1.3235407e-03   1.7071448e-04  -4.8001861e-04   4.0173760e-05  -5.2172632e-04   8.3029772e-05   5.2323926e-04  -1.4149830e-04  -2.0356514e-04   3.6086163e-05   1.0870254e-04   6.8292679e-04  -4.2525266e-04  -4.1556408e-04   1.0629131e-04  -1.1067843e-04   8.7012112e-04   1.1601461e-04   8.6803583e-04   8.5941819e-04  -7.9321195e-05  -7.0286432e-04   5.9435412e-04   1.3891539e-03  -2.4795349e-04  -1.2599382e-03
  -1.9757698e-04  -7.8574776e-05   3.1947449e-05   2.0178102e-04  -2.1675880e-04  -6.6711502e-05   9.5760064e-05  -5.8901864e-05   2.3868371e-04   8.4951567e-04   2.1143453e-04   1.9177687e-04   7.4694462e-06  -2.3879438e-04  -3.7775657e-04  -3.9559668e-06  -2.3278938e-06   1.4249375e-05   3.2047124e-04   7.6984761e-06  -6.2369334e-05  -1.5008038e-04  -2.3718967e-04  -6.0058862e-04   1.2930606e-03   1.8615453e-04  -4.2868173e-04   4.6273261e-05  -3.3384303e-04   3.8132563e-05   5.0532195e-04  -1.0132622e-04  -2.1339720e-05   1.2891678e-04   1.5308628e-04   8.8246621e-04  -4.2309225e-04  -4.0462735e-04   1.2600246e-04  -7.1303381e-05   7.2020246e-04   1.8119389e-04  -1.1028292e-04   1.1299627e-03   1.9525862e-05  -4.8071172e-04   4.6861640e-04   2.2896943e-03  -1.5153702e-03  -1.8586435e-03
  -2.0366833e-04  -1.6147320e-04   2.8963826e-05   1.3856756e-04  -2.6051636e-04  -1.1967009e-04   2.3465882e-05   1.0749818e-04   5.2536674e-05   6.2088773e-04   4.1934567e-05   1.1237485e-04  -4.3197684e-05  -2.1133292e-04  -3.7614093e-04  -4.4154745e-05  -4.3482290e-05  -1.2674293e-05   3.6402649e-04  -5.6938457e-05  -9.7104174e-05  -1.9799521e-04  -3.3184190e-04  -6.8349898e-04   1.2472714e-03   1.6156479e-04  -4.1815950e-04   8.6302629e-05  -7.2043348e-04   8.8806510e-06   5.0085335e-04  -2.1995137e-04  -2.0750730e-04  -1.6979642e-05   9.4257237e-05   7.1735209e-04  -4.5495352e-04  -4.4154955e-04   1.1426792e-04  -2.3379273e-04   7.1554905e-04   1.6241817e-07   9.9610700e-04   1.3560102e-04  -2.2926858e-04  -4.6347178e-04   3.9215930e-04   1.3866390e-03  -1.0416110e-03  -1.8923520e-03
  -2.7178772e-04  -2.4333697e-04  -8.3395033e-05   7.4717558e-05  -2.8646144e-04  -7.5812721e-05   3.2639058e-05  -2.5927852e-04   2.7369379e-04   7.4208330e-04   1.7835229e-04   2.1952220e-04  -3.6517205e-05  -2.9389371e-04  -5.3110241e-04   7.1752838e-05  -1.4120177e-04  -3.0701838e-05   3.9150470e-04  -6.2729079e-05  -7.9041056e-05  -1.5882477e-04  -3.2440640e-04  -6.1845838e-04   1.2798519e-03   1.8275730e-04  -5.0807052e-04   4.4181426e-05  -4.7772491e-04   6.1098915e-05   3.8357050e-04  -1.6801612e-04  -1.0690488e-04   1.0017148e-04   1.7292571e-04   8.4911054e-04  -1.4922365e-04  -3.5869467e-04   2.3781412e-04  -6.6314162e-05   8.4310165e-04   1.6413037e-04   1.4617882e-03   6.9797796e-04   3.0725529e-05  -6.9168437e-04   4.5299769e-04   1.1510951e-03  -5.3902238e-04   1.3852999e-05
  -4.4780951e-05  -7.2586401e-05   3.1379997e-05   2.1196014e-04  -1.9619103e-04   1.8466168e-06   1.4713766e-04  -1.6549460e-05   9.9964578e-05   7.3003460e-04   2.3523645e-04   3.1530621e-04   6.4903717e-05  -3.0281520e-04  -2.9537751e-04   6.0400176e-05  -2.2073125e-04  -2.5099842e-05   3.8936801e-04   3.0620797e-06  -3.3102726e-05  -1.3368511e-04  -1.6944567e-04  -5.2693923e-04   1.1672175e-03   2.0049287e-04  -4.4073645e-04   5.6937177e-05  -4.9970165e-04   6.3287611e-05   3.4509023e-04  -1.9346831e-04  -3.0571019e-04   2.3713632e-05   1.7112706e-04   7.3960650e-04  -2.5854670e-04  -3.4890146e-04   1.0882846e-04  -5.6189150e-05   7.9832907e-04   2.2560864e-05   1.5246426e-03   7.0968230e-04  -1.5896176e-05  -6.1483542e-04   1.9390378e-04   1.5792825e-03  -7.8042404e-04  -1.3719276e-03
  -2.4645415e-04  -1.5458871e-04  -1.2124818e-06   1.3671009e-04  -2.6734758e-04  -2.1362879e-04   2.6646361e-05  -9.4726267e-05  -5.5419009e-06   4.0301171e-04  -3.1333053e-05   1.2320171e-04  -5.6279703e-05  -3.7468318e-04  -4.1250780e-04  -3.9454273e-05  -3.3517269e-04  -7.1570204e-05   2.8164228e-04  -1.3028510e-04  -7.9309393e-05  -1.5467759e-04  -4.3345269e-04  -4.9627409e-04   1.0500747e-03   4.4046403e-05  -4.8816716e-04   1.0813498e-04  -5.0650979e-04  -2.9611920e-05   1.8177008e-04  -3.0844426e-04  -2.7729390e-04  -7.7257821e-05   6.7637018e-05   6.6796079e-04  -4.8828020e-04  -3.6808397e-04   7.0458831e-05  -1.8162216e-04   4.5090186e-04   6.4696742e-06   9.1935269e-04   7.3196797e-04  -2.0497586e-05  -7.4106210e-04   2.8857138e-04   1.5844980e-03  -1.3479868e-04  -9.0743444e-04
  -1.2550592e-04  -6.0480936e-05   3.5728121e-06   2.2083356e-04  -1.8704809e-04   9.9315157e-06   1.2000108e-04  -4.6260950e-05   2.5551495e-04   6.9902738e-04   2.4199918e-04   3.1514236e-04   8.2030369e-05  -3.9410457e-04  -5.0428824e-04   2.2044916e-05  -3.0760243e-04  -5.8907797e-05   4.2996745e-04  -6.8709989e-05  -2.3601566e-05  -9.2593364e-05  -1.6093977e-04  -4.1216746e-04   1.0584343e-03   2.0010660e-04  -5.0346606e-04   1.3509736e-04  -4.7393228e-04   4.6169713e-05   1.8464519e-04  -2.0855208e-04  -4.0920026e-04   2.7823666e-05   2.1632454e-04   7.6182937e-04  -2.0291921e-04  -3.6932004e-04   1.7428803e-04  -1.1858606e-04   6.2714104e-04   7.0313625e-05   5.5265013e-04   5.6713953e-04   1.6654805e-04  -5.5820443e-04   3.2389266e-04   1.4980371e-03  -4.8548530e-04   1.5369208e-04
  -3.0940111e-05  -3.4586876e-05   8.2140723e-05   2.5564298e-04  -1.7876735e-04  -9.0235335e-05   1.1006857e-04  -1.9032251e-04   1.4513878e-04   5.0222519e-04   1.1432631e-04   2.2777935e-04   5.7698995e-05  -4.0350787e-04  -2.7018297e-04  -4.6027671e-05  -3.3219907e-04  -6.5771084e-05   1.5413189e-04  -8.4748892e-05  -2.1367729e-05  -1.0175884e-04  -3.0056239e-04  -4.7779447e-04   1.0156294e-03   6.2405881e-05  -5.2931358e-04   1.3888952e-04  -5.8283651e-04   9.7379034e-06   1.3439551e-04  -2.7125192e-04  -3.1120074e-04  -5.2414995e-05   1.3299899e-04   7.5207872e-04  -5.0467480e-04  -3.3102903e-04   9.8559547e-05  -4.6323301e-05   6.3101703e-04   9.8924982e-05   1.1203673e-03   1.2592596e-04   1.0368463e-04  -6.4355560e-04   1.6922495e-04   1.2094377e-03  -1.2339164e-03  -6.2211405e-04
  -1.3001640e-04  -1.4419945e-04  -4.3825214e-05   1.7780604e-04  -2.1061763e-04  -7.2194460e-05   6.5873253e-05   2.4054603e-05   1.4537513e-04   4.6711933e-04   7.1996685e-05   1.7211589e-04  -3.8249062e-05  -3.5081775e-04  -3.7530100e-04  -1.0159049e-05  -3.3088753e-04  -6.2025989e-05   2.4201391e-04  -1.4939351e-04  -3.6053694e-05  -9.4118455e-05  -1.6355670e-04  -4.7392529e-04   9.9210709e-04   1.9968918e-04  -4.5749667e-04   1.5395539e-04  -4.5854208e-04   2.1630103e-05   2.0297356e-04  -2.2626022e-04  -2.7845023e-04   6.3491352e-05   1.9622825e-04   6.7635637e-04  -1.8420898e-04  -2.9030780e-04   2.0006286e-04   4.9075108e-05   8.4412971e-04   1.3957715e-04   1.2895276e-03   1.0247504e-03   1.1944722e-04  -5.5746129e-04   2.6457242e-04   1.0744358e-03  -7.0309167e-04  -1.4491788e-03
   9.6514072e-05   4.9069698e-05   1.5253437e-04   3.1016703e-04  -1.0579814e-04  -1.1409700e-05   1.2231446e-04   1.4665537e-04   1.9341284e-04   5.3659850e-04   2.1277239e-04   2.3513802e-04   5.2938496e-05  -2.7997821e-04  -3.2704655e-04  -1.7927327e-05  -2.4527503e-04  -1.6956687e-05   2.2732824e-04  -1.1403442e-04   2.9920695e-05  -4.6842244e-05  -1.6712461e-04  -4.7380914e-04   9.9296693e-04   2.3125044e-04  -4.7379063e-04   1.9056011e-04  -5.9385208e-04  -1.9823143e-05   2.2812346e-04  -1.7034325e-04  -1.3552714e-04   9.3027360e-05   2.0441272e-04   6.5533281e-04  -2.4801443e-04  -2.9525856e-04   1.7182771e-04   6.3024090e-05   6.4840552e-04   3.6558005e-05   5.6000199e-04   8.0682384e-04   3.7532322e-05  -3.7936884e-04   3.4102818e-04   1.3797370e-03  -1.3939731e-03  -1.6079176e-03
  -4.3080104e-06  -3.5780991e-05   7.6112177e-05   2.3458095e-04  -1.7447316e-04  -6.7136680e-05   7.6782198e-05  -2.2809884e-04  -2.5375688e-05   2.8456107e-04  -1.1505068e-06   8.5528685e-05  -2.2891003e-05  -3.2919843e-04  -2.9764319e-04  -9.5054362e-05  -2.5767213e-04  -1.5299694e-05   1.6106902e-04  -2.2250676e-04  -3.2695920e-05  -1.1659964e-04  -2.0753944e-04  -5.4355530e-04   9.6657418e-04   2.1288339e-04  -3.6603876e-04   1.4888078e-04  -6.5939757e-04  -1.7083540e-06   2.1999798e-04  -1.8581082e-04  -3.1972502e-04   4.8080932e-05   1.4779977e-04   6.1425485e-04  -2.3889977e-04  -3.0649721e-04   1.4496203e-04  -1.3701367e-04   8.2545914e-04   6.2744730e-05   9.3040307e-04   7.2363031e-04  -2.0492176e-05  -4.8986846e-04   2.7993496e-04   5.9612410e-04   1.7927638e-04  -1.6054781e-03
   2.0414233e-04   5.4771252e-05   1.1518313e-04   2.9827465e-04  -9.3746909e-05   4.7437286e-05   1.3006417e-04   6.8625814e-05   2.9328300e-04   6.2373193e-04   2.9633968e-04   2.6729939e-04   8.8077853e-05  -2.3075499e-04  -3.8263111e-04   9.1151829e-05  -1.7636048e-04  -8.7405135e-07   2.7000403e-04  -1.3971965e-04   4.2468637e-05  -1.9739960e-05  -1.4649218e-04  -3.0560410e-04   1.0402418e-03   3.2617987e-04  -4.3133998e-04   1.7280309e-04  -4.4697017e-04   4.7806749e-05   3.2679137e-04  -1.7602103e-04   2.5572264e-05   1.9063838e-04   1.8436390e-04   7.6907605e-04  -3.3321421e-04  -2.5998609e-04   2.8885464e-04   1.1483248e-04   8.7558420e-04   3.0070345e-04   8.5854210e-04   6.2550150e-04   6.9946291e-05  -2.5723994e-04   2.8375752e-04   2.1824057e-03   4.6581245e-04  -4.4627537e-04
   2.5135500e-04   8.7651097e-05   1.7678256e-04   2.9787855e-04  -1.0779405e-04   1.3084324e-04   1.8433854e-04   1.0710178e-04   8.1395403e-05   4.5616413e-04   1.7968241e-04   1.7439862e-04   6.6830318e-05  -2.5007137e-04  -3.6963882e-04  -1.5637364e-05  -1.4395468e-04  -1.9074703e-05   1.9074164e-04  -1.8870810e-04   2.4262654e-05  -2.4260256e-05  -1.4448613e-04  -3.8527770e-04   1.0041597e-03   2.7547911e-04  -4.6095383e-04   1.7622847e-04  -5.1267527e-04   8.2996623e-05   3.2975417e-04  -1.8809954e-04  -7.5798955e-05   1.1618717e-04   1.1349268e-04   6.9031370e-04  -2.2462051e-04  -2.7766588e-04   2.2172410e-04  -7.5596363e-05   8.0289983e-04   1.0559340e-04   1.2854671e-03  -1.3286591e-04   5.1819025e-05  -3.5974957e-04   2.3864249e-04   1.3293308e-03   1.0406692e-03  -8.7851257e-04
   4.6417765e-05  -6.4145876e-05   1.2237395e-04   1.9411795e-04  -2.1759489e-04  -4.8475980e-05   2.2687524e-05  -2.2607134e-04  -2.3725536e-04   1.6375710e-04  -1.0094431e-04  -3.8975300e-05  -4.1021267e-05  -1.9474178e-04  -3.7767176e-04   4.6849277e-06  -1.7401182e-04  -2.3684308e-05   1.5727962e-04  -3.3523646e-04  -6.3290252e-05  -1.8594971e-04  -3.5424691e-04  -5.3021155e-04   1.0331621e-03   3.7851416e-05  -3.5623153e-04   1.9662334e-04  -4.8884656e-04  -3.1456537e-05   3.7179518e-04  -1.9852613e-04  -2.9761082e-04   7.6796925e-05   4.4285422e-05   6.8795099e-04  -3.4461022e-04  -2.6551605e-04   1.5711033e-04  -1.1554308e-04   7.9672848e-04   1.3679497e-04   9.6801453e-04   1.6039622e-03  -1.3867868e-04  -4.6292366e-04   2.7920242e-04   1.3869950e-03  -5.6810770e-04   8.8134914e-04
   1.4943228e-04   8.6282285e-05   1.6141270e-04   2.5016398e-04  -7.4401287e-05   2.1416951e-04   1.8732979e-04   2.7018404e-04   2.9111176e-04   6.1945559e-04   2.8879871e-04   2.4473199e-04   1.5698095e-04  -1.7931280e-04  -4.5038966e-04   1.5153512e-05  -1.3102677e-04  -3.3764604e-06   1.3890295e-04  -2.3205215e-04   1.9687288e-05  -5.7329878e-05  -2.0066082e-05  -3.3955529e-04   1.0185818e-03   3.0051547e-04  -4.2702074e-04   2.2471847e-04  -4.8464828e-04   1.2707818e-04   3.7774470e-04  -1.2041999e-04  -2.6990080e-04   1.8796585e-04   2.0507634e-04   6.5501820e-04  -5.8716658e-05  -2.6600904e-04   2.4912829e-04  -2.6903796e-05   8.5518940e-04   2.7520538e-04   1.0867277e-03   3.4083548e-04  -7.5229400e-05  -4.1954804e-04   3.5650530e-04   1.6425598e-03   1.3745652e-04  -4.3620061e-04
   1.5532768e-04   8.3492137e-05   1.4946722e-04   2.5130124e-04  -1.1169161e-04   4.3326192e-05   1.2765157e-04   1.2501029e-04   1.6558914e-04   4.1939196e-04   1.5206891e-04   1.3544119e-04   8.2190418e-05  -2.1372248e-04  -4.0524109e-04   8.8137123e-05  -1.9044359e-04  -4.1537196e-06   5.1690422e-05  -2.6493549e-04  -1.6995501e-06  -6.2026789e-05  -6.6909277e-05  -4.1635917e-04   9.4377628e-04   2.3660100e-04  -3.2519075e-04   1.8098966e-04  -7.3708378e-04   6.7993053e-05   4.0114432e-04  -1.7761072e-04  -1.4561210e-04   7.5869822e-05   1.2420041e-04   6.3346687e-04  -3.4879733e-04  -3.3146661e-04   2.1307421e-04  -1.2258194e-04   6.3068449e-04   7.5325952e-05   8.6743693e-04   6.2885485e-04  -1.7387228e-04  -2.7237396e-04   3.5342903e-04   1.3906517e-03  -2.3368753e-04  -7.4521091e-04
  -9.3352930e-05  -7.1870039e-05   7.7071294e-05   1.5038329e-04  -2.2889092e-04  -1.0010923e-04  -4.2292040e-06  -9.1639435e-05  -2.4671081e-04   9.3245253e-05  -1.7454423e-04  -1.3709966e-04  -4.3143293e-05  -3.1888386e-04  -3.9369680e-04  -4.8335019e-06  -1.9102539e-04  -5.9567286e-05  -1.0233831e-04  -4.2261064e-04  -1.0278799e-04  -2.1038204e-04  -3.3505209e-04  -6.1389699e-04   9.8648202e-04   1.5342134e-04  -3.3072755e-04   1.8333801e-04  -4.4983113e-04  -2.7321689e-06   3.8970215e-04  -2.0670422e-04  -2.7799938e-04   3.8002967e-05   1.1024022e-04   5.8621465e-04  -1.4439216e-04  -3.5902171e-04   2.2275675e-04  -3.3258479e-05   8.0024579e-04   1.5263727e-04   3.4023833e-04  -2.1180650e-04  -1.8427763e-04  -5.8543088e-04   3.3021031e-04   1.2108965e-03  -5.1292940e-04  -1.8191767e-04
   5.3767915e-05   8.4094303e-05   1.3368692e-04   2.3368161e-04  -1.0707151e-04   9.4210045e-05   9.5067648e-05  -4.1691535e-05   2.1458061e-04   5.8045873e-04   2.2576493e-04   1.8381567e-04   9.6853495e-05  -3.1266990e-04  -3.9264126e-04   5.1818279e-05  -2.2009766e-04   1.3616545e-06   1.2296942e-04  -3.1629505e-04  -3.2891377e-05  -8.7445042e-05  -7.9247322e-05  -4.4617552e-04   1.0959452e-03   3.6926245e-04  -4.1635823e-04   1.7471310e-04  -3.8993719e-04   1.1126079e-04   4.1777466e-04  -1.6131376e-04  -1.6461103e-04   1.1869533e-04   1.6507952e-04   6.7652855e-04  -1.9857340e-04  -2.7721759e-04   2.5788069e-04   3.1283678e-05   1.0623186e-03   1.0623471e-04   4.5042014e-04   2.8993105e-04  -7.8561876e-05  -7.9378352e-04   3.7314877e-04   1.3758745e-03  -9.5011137e-04  -9.2897291e-04
   8.9987640e-05   6.1370316e-05   7.9911391e-05   2.0519373e-04  -1.6857254e-04   9.5407937e-05   1.0522388e-04   1.4960246e-04   1.1686964e-05   3.4643867e-04   4.5864152e-05   6.7677232e-05   5.0130810e-05  -3.0278735e-04  -4.2675508e-04  -8.9724010e-05  -2.9942006e-04  -6.3988140e-05  -5.3892996e-05  -3.8590303e-04  -7.6980206e-05  -1.6176127e-04  -2.3498089e-04  -5.2418432e-04   1.0373901e-03   2.6435472e-04  -4.2243564e-04   1.9308573e-04  -6.0666236e-04  -9.8440696e-06   3.0954983e-04  -2.5904641e-04  -2.2267348e-04  -5.4174035e-07   3.5514742e-05   5.2473502e-04  -3.6777018e-04  -3.5860279e-04   1.7017897e-04  -1.8112375e-04   5.9538009e-04   8.4856430e-05   6.3822861e-04  -2.9273264e-04  -2.1834197e-04  -7.7412277e-04   1.5919103e-04   1.7112625e-03  -2.8704791e-04  -7.2253158e-04
  -1.4358618e-04  -9.6334596e-05  -5.9683657e-06   6.4722459e-05  -2.6255957e-04  -3.8697828e-05  -5.7987971e-05  -8.8322202e-05  -2.3533244e-04   3.7909740e-05  -2.7796559e-04  -1.5247468e-04  -1.1732635e-04  -3.9947359e-04  -4.7389488e-04  -1.4761798e-05  -3.7746987e-04  -8.3334977e-05  -1.9190063e-04  -5.0255982e-04  -1.6896958e-04  -2.4088945e-04  -2.3086157e-04  -5.1496550e-04   1.0523945e-03   9.8567405e-05  -4.2166963e-04   2.0265661e-04  -5.1052001e-04   5.0936546e-06   3.1903363e-04  -2.6076607e-04  -2.8862353e-04   7.0488422e-05   4.4296230e-05   6.1981403e-04  -2.8592866e-04  -3.7932215e-04   9.3508679e-05  -1.4904171e-04   5.9544609e-04   1.6066318e-04   5.8062002e-04   6.8000620e-05  -1.7130564e-04  -6.7790609e-04   2.0523256e-04   1.1027557e-03  -8.8440481e-04  -9.3399733e-04
   1.5668705e-06   8.7610752e-05   1.0083116e-04   2.0468819e-04  -1.5992366e-04   5.5411459e-05   9.4000039e-05   1.1278538e-04   1.2531203e-04   4.5893123e-04   4.1240535e-05   8.4159932e-05  -1.9365207e-05  -3.2236791e-04  -4.0550422e-04  -1.4635154e-07  -3.8725865e-04  -7.5013995e-05  -3.0128969e-05  -4.0125349e-04  -9.9903911e-05  -1.8244593e-04  -2.5673673e-04  -5.5106072e-04   9.9535461e-04   1.6268561e-04  -5.6948839e-04   1.6632977e-04  -7.6383760e-04  -2.8823086e-05   2.3024665e-04  -2.0983021e-04  -2.1137972e-04   2.7487762e-05   7.7366843e-05   4.4410085e-04  -2.5137031e-04  -4.3519601e-04   1.7344108e-04  -1.4316343e-04   6.7999039e-04   7.0220725e-05   1.0135440e-03   2.7686905e-04  -1.0671709e-04  -8.6643395e-04   2.3842491e-04   1.0527604e-03  -7.4806926e-04  -1.0207015e-04
  -3.4434615e-05   9.8431592e-06   1.1233336e-05   1.4940400e-04  -2.2621099e-04  -1.1400523e-05  -7.3366355e-05   6.8128291e-05  -1.6790236e-04   2.2309493e-04  -1.5501738e-04  -8.2722036e-05  -1.1112276e-04  -3.5239896e-04  -4.0371635e-04  -1.5452973e-05  -4.1570887e-04  -7.6638091e-05  -1.8024615e-04  -4.9542380e-04  -1.4532112e-04  -2.2543823e-04  -4.0584928e-04  -6.6194258e-04   1.0054415e-03   7.7061668e-05  -5.1234860e-04   1.4271097e-04  -6.7639974e-04  -7.4464791e-05   2.6349796e-04  -3.1425047e-04  -4.8042848e-04  -1.0033155e-04   4.0736381e-06   3.5904557e-04  -4.5681681e-04  -4.9575511e-04  -4.8767393e-05  -2.4020832e-04   5.6890585e-04  -7.7021905e-05   2.3238332e-04   5.5778219e-05  -2.9705657e-04  -7.1493920e-04   2.4479660e-04   1.1179178e-03  -7.1710593e-04  -1.4380210e-03
  -1.3013803e-04  -1.7545573e-05  -3.6802394e-05   1.1443817e-04  -2.3407684e-04  -6.8707326e-05  -4.0070649e-05  -5.0031456e-05  -9.0951915e-05   3.7170225e-04  -6.0398954e-05  -5.4058262e-05  -1.0381849e-04  -3.0555669e-04  -4.3675635e-04  -8.7656663e-05  -3.7282545e-04  -6.9691174e-05  -2.8052225e-04  -4.8979383e-04  -1.4647754e-04  -2.0974803e-04  -3.4881855e-04  -6.4506067e-04   1.0297417e-03   1.6375324e-04  -4.6886742e-04   1.4112443e-04  -5.4006552e-04  -5.3843232e-05   2.9915111e-04  -1.8792992e-04  -3.5005060e-04   2.9794599e-05  -1.1598521e-05   4.5122768e-04  -4.2276966e-04  -4.6132656e-04   2.1394723e-04  -1.6436353e-04   7.6380692e-04   1.3298243e-04   1.0146305e-03  -3.8934441e-04  -1.0412022e-04  -6.2072166e-04   1.8871299e-04   9.4577088e-04  -3.9215453e-04   2.4880804e-04
  -1.0374490e-04   4.2367534e-05   3.5505123e-05   1.7280185e-04  -2.4085131e-04   6.9181774e-06  -3.6208465e-05  -2.4073149e-04  -6.3394888e-05   3.1478459e-04  -8.5847772e-05  -6.4992266e-05  -1.4673613e-04  -2.6945808e-04  -5.3478853e-04  -1.1092056e-04  -3.0901202e-04  -5.0913543e-05  -1.6801116e-04  -4.5633965e-04  -1.4488776e-04  -2.1212350e-04  -4.1420330e-04  -6.0220918e-04   1.0464379e-03   1.4407457e-04  -3.2643808e-04   1.8938091e-04  -5.5144698e-04  -3.5382804e-05   3.6037975e-04  -2.1469627e-04  -2.8846820e-04  -2.0257585e-05  -2.1090220e-05   5.1144825e-04  -2.9381367e-04  -4.3631243e-04   5.0137896e-05  -3.7625778e-04   7.0706278e-04  -3.1312459e-06   1.0997056e-03   7.3289487e-04  -2.4331220e-04  -9.3531568e-04   1.9193714e-04   1.0879334e-03  -4.2265956e-04  -2.4969992e-03
  -3.4175251e-04  -9.5099211e-05  -8.5532614e-05   5.1177503e-05  -3.4835516e-04  -1.1095676e-04  -1.9452268e-04  -8.3532632e-06  -3.5477208e-04  -1.7122095e-05  -3.9029101e-04  -3.4100853e-04  -2.3927477e-04  -3.0324393e-04  -4.3413401e-04  -1.3585953e-04  -2.7313523e-04  -5.2591258e-05  -4.0514884e-04  -5.6333136e-04  -2.1380484e-04  -2.6009305e-04  -6.5552472e-04  -8.1490405e-04   9.7936194e-04   6.3058236e-05  -4.5916077e-04   1.9046094e-04  -4.8531868e-04  -8.0274724e-05   3.4186390e-04  -2.7089682e-04  -2.8219822e-04   2.5899983e-05  -1.0237947e-05   4.7170327e-04  -5.5224262e-04  -4.0776673e-04   2.4620901e-04  -2.5016430e-04   7.6771970e-04  -3.4377426e-05   9.2373387e-04   2.3556694e-04  -1.7468036e-04  -7.7705417e-04   1.4134303e-04   1.3657777e-04  -7.0614164e-04  -1.6707886e-03
  -2.7680362e-04   5.8294889e-05   1.9128543e-05   1.5818559e-04  -2.4602684e-04   2.5526680e-05  -7.7510131e-06   1.8638220e-05   1.6783937e-04   4.3400211e-04   1.6512073e-05  -5.0342918e-05  -1.1021601e-04  -2.2676404e-04  -5.3445302e-04   5.9476497e-06  -1.9450457e-04  -3.1293243e-05  -2.0227359e-04  -4.3111449e-04  -1.3126375e-04  -2.3010255e-04  -4.1180573e-04  -7.6597568e-04   1.0336412e-03   2.5620247e-04  -3.4908185e-04   2.0252969e-04  -4.9372547e-04   3.7345319e-05   4.1491492e-04  -1.8930118e-04  -2.9907163e-04   2.3437637e-05   4.0614530e-05   4.6966012e-04  -4.9525517e-04  -3.4886444e-04   7.9405283e-05  -2.8196565e-04   6.6321704e-04   2.2922957e-05   9.8300725e-04   1.0597518e-04  -1.7895242e-04  -6.7258556e-04   1.5689882e-04   8.4208127e-04  -5.2503706e-04  -1.5419212e-04
  -1.9856569e-04  -1.2990814e-05  -7.8469224e-05   8.8494111e-05  -3.2091941e-04  -1.1936521e-04  -1.0098430e-04  -6.7455956e-05  -8.6770262e-05   2.0197690e-04  -1.7382232e-04  -1.6745763e-04  -2.3652017e-04  -2.2368525e-04  -3.7360218e-04   3.0091491e-05  -2.1811310e-04  -6.0106308e-05  -2.5567340e-04  -4.5140024e-04  -1.7362967e-04  -2.3124824e-04  -4.0606011e-04  -8.2113256e-04   1.0425274e-03   9.5921008e-05  -3.6960313e-04   1.8666284e-04  -5.2274688e-04  -1.2217594e-05   3.9622426e-04  -2.1517955e-04  -3.7999306e-04  -1.5781303e-05  -5.3322903e-05   2.7606718e-04  -5.6110724e-04  -4.6649651e-04   7.5437158e-05  -4.0181141e-04   5.2428414e-04   9.9112603e-06   9.6151943e-04  -5.2058051e-04  -2.0589650e-04  -1.0028625e-03   6.8323148e-05   1.0917051e-03   6.0144892e-05   1.7276831e-04
  -4.6800516e-04  -1.9429604e-04  -1.2105974e-04   1.9898889e-06  -3.9562405e-04  -1.5371943e-04  -2.0165133e-04  -3.7181817e-04   9.1564136e-05   2.8622628e-04  -1.5343275e-04  -1.2350339e-04  -2.9465076e-04  -2.0101035e-04  -3.5196519e-04  -2.4173107e-05  -1.9704131e-04  -1.5821597e-05  -3.8147104e-04  -4.8148938e-04  -1.8615746e-04  -2.3741391e-04  -5.0659070e-04  -7.4826169e-04   9.9954696e-04   1.2481725e-04  -4.4239941e-04   2.4230800e-04  -5.9761741e-04   6.9620852e-05   4.8235658e-04  -1.2746391e-04  -1.9866833e-04   6.5717533e-05  -5.3111198e-05   4.2470396e-04  -2.4415346e-04  -3.1471127e-04   1.3240745e-04  -2.8329430e-04   9.5048192e-04   7.0642505e-05   6.9950952e-04   5.2312453e-04  -1.6762126e-04  -6.5220392e-04   4.1876003e-05   1.1614613e-03  -9.2952343e-04  -4.6678490e-04
  -3.3072653e-04   1.2909280e-05   3.3416072e-05   1.4140406e-04  -2.8207825e-04  -5.7161076e-05  -2.9480818e-05  -5.3740448e-05   2.6069305e-04   4.0622236e-04   3.3085213e-05  -5.0931198e-05  -1.7708084e-04  -9.7587734e-05  -2.7496638e-04   1.2364832e-05  -1.0291820e-04  -2.1829623e-05  -1.7235125e-04  -3.7421277e-04  -1.4705969e-04  -2.1409155e-04  -4.0291087e-04  -8.0256345e-04   1.0972199e-03   1.8770035e-04  -3.1327867e-04   2.1944777e-04  -4.3402080e-04   7.9949241e-05   5.6182320e-04  -1.2092898e-04  -1.6078955e-04   9.4067022e-05   9.4134253e-07   4.9316674e-04  -4.5062084e-04  -3.4469421e-04   1.3242474e-04  -2.6484954e-04   9.1086130e-04   7.8404977e-05   7.3253899e-04  -2.7100687e-04  -2.6189609e-04  -5.0529919e-04   1.7481383e-04   9.1880263e-04  -5.7799823e-04  -1.4884139e-03
  -4.1681217e-04  -8.2670937e-05  -3.3754422e-05   7.2950708e-05  -3.6420542e-04  -1.8596493e-04  -1.0885092e-04  -1.7614757e-04   2.6000022e-05   1.6258769e-04  -1.7008992e-04  -1.9082705e-04  -2.7125372e-04  -1.2354102e-04  -3.3845202e-04  -2.8927050e-05  -9.5263742e-05  -3.9632487e-05  -1.5919434e-04  -4.2993724e-04  -1.9715064e-04  -3.1871049e-04  -5.9508340e-04  -8.3596830e-04   1.0300003e-03   6.3641535e-05  -3.2899069e-04   1.8834135e-04  -5.9731462e-04   6.0832412e-05   5.8166677e-04  -1.4981133e-04  -1.5569694e-04   2.3272331e-05  -1.0976553e-04   4.5891624e-04  -4.3067776e-04  -4.1468954e-04   7.9239115e-05  -4.1450668e-04   5.8001286e-04   1.0004744e-05   1.6213235e-03   2.4685779e-04  -3.7219326e-04  -6.1258714e-04   8.7198459e-05   9.7978243e-04  -9.4678689e-04  -1.3221694e-03
  -3.6189440e-04  -5.5080873e-05  -4.8019196e-05   7.6528173e-05  -3.3390117e-04  -1.6258078e-05  -7.1381255e-05   1.0442923e-05   2.9267289e-04   4.5888612e-04   5.5014672e-05   2.2128599e-05  -2.2841248e-04  -1.4406063e-04  -3.7925981e-04  -3.0549214e-05  -1.0771309e-04  -1.0159397e-05  -4.8945723e-05  -3.5642559e-04  -1.6303349e-04  -2.1999481e-04  -3.6587831e-04  -6.6860649e-04   1.1196356e-03   9.4393174e-05  -3.2179538e-04   2.5561394e-04  -5.9011951e-04   1.7538422e-04   5.4524670e-04  -4.1581534e-05  -2.8479315e-04   1.4707698e-04   1.5391999e-05   5.7976786e-04  -1.1559488e-04  -2.8021930e-04   1.3233170e-04  -2.7848643e-04   1.0102970e-03   2.0964304e-04   1.1792447e-03   1.5226712e-04  -8.2692204e-05  -5.6895457e-04   1.0564699e-04   1.0040792e-03  -2.6875219e-04  -5.4597063e-04
  -3.0484560e-04   4.3760765e-06  -1.8422534e-05   1.3748670e-04  -3.0464798e-04   6.3161620e-05  -6.3225256e-05   1.9231089e-04   2.2501372e-04   4.1016706e-04   6.4195534e-05   7.3885021e-05  -1.6235592e-04  -1.5156575e-04  -3.9851104e-04   8.5103413e-05  -1.0736748e-04  -2.7057364e-05  -1.9486088e-04  -2.9859963e-04  -1.3925041e-04  -2.2529272e-04  -4.9470650e-04  -6.3640153e-04   1.0807562e-03   1.9217610e-04  -3.3619581e-04   2.2020070e-04  -4.5805480e-04   1.6314765e-04   5.0369854e-04  -8.4220454e-05  -3.1459163e-04   5.9724181e-05  -5.9080594e-05   4.8412205e-04  -1.7883362e-04  -3.0746515e-04   2.2070650e-04  -2.7797351e-04   9.3332055e-04   6.0724411e-05   9.0098399e-04   2.0764457e-04  -3.1456316e-04  -6.7300157e-04  -1.1088088e-05   4.4660593e-04  -6.1622780e-04  -8.9840486e-04
  -3.7085990e-04  -1.2944434e-04  -3.8928309e-05   6.0151968e-05  -4.1465450e-04  -1.4582020e-04  -1.5131218e-04  -5.9551297e-05  -1.8195660e-04   8.1948594e-05  -2.0771506e-04  -1.6739886e-04  -3.1742160e-04  -1.5737799e-04  -4.3230099e-04   2.3787696e-05  -8.8245790e-05  -3.7236412e-05  -2.9279877e-04  -4.0394400e-04  -2.1713885e-04  -2.6231247e-04  -5.1108794e-04  -7.5639813e-04   1.0692236e-03   1.1416547e-05  -2.7167171e-04   2.4280664e-04  -4.8544264e-04   1.2794422e-04   5.1058736e-04  -1.0658252e-04  -3.5788363e-04   3.7434649e-05  -5.3502219e-05   3.6301109e-04  -2.8143247e-04  -3.2910143e-04   1.2453395e-04  -3.6507510e-04   8.4791193e-04  -6.5043627e-05   4.0069156e-04  -5.3913647e-04  -1.6355589e-04  -6.0266344e-04  -3.0727842e-05   7.2389131e-04  -6.3851045e-04  -7.7961117e-04
  -1.8714958e-04  -8.6045911e-06   1.5935166e-05   1.4160559e-04  -3.1636166e-04   4.0525902e-05  -7.9972291e-05  -1.7295062e-04   2.4882593e-04   4.5751935e-04   1.3747990e-04   7.3084862e-05  -1.6949375e-04  -3.6041944e-05  -3.1404081e-04   1.0830441e-04  -1.5466585e-05  -2.5536967e-05  -5.6604560e-05  -2.6885598e-04  -1.5224167e-04  -2.8571178e-04  -4.5714737e-04  -6.3517451e-04   1.0822017e-03   2.1946768e-04  -3.1768865e-04   2.4249479e-04  -4.5354961e-04   1.5813425e-04   5.4142100e-04  -3.1335894e-05  -1.6214776e-04   5.4974236e-05   1.6045034e-05   5.9165037e-04  -3.9288920e-04  -3.0037129e-04   1.8820648e-04  -2.4756655e-04   8.1333879e-04   8.8827264e-06   9.8391704e-04   5.8764155e-04  -1.2510347e-04  -2.6712060e-04  -3.1792017e-06   8.1975921e-04  -5.6089498e-06   2.0590219e-04
  -2.1481529e-04  -4.1242874e-05   2.8517443e-06   1.4005940e-04  -3.3672608e-04  -6.3843640e-05  -1.3949956e-04  -2.9361038e-04   5.7272537e-05   2.5503719e-04  -1.7223469e-05   5.5650562e-05  -2.0173410e-04  -1.4045429e-04  -3.8236345e-04   1.7793635e-06  -7.2452312e-05  -2.0923155e-05  -3.5346937e-05  -2.7765078e-04  -1.5268596e-04  -2.7159558e-04  -4.6570672e-04  -6.2685367e-04   1.1116143e-03   1.0159971e-04  -3.8882610e-04   2.3141126e-04  -5.2982708e-04   1.6072093e-04   5.2878476e-04  -1.0658010e-04  -2.3095428e-04   5.7138837e-05   2.2500490e-05   4.9578585e-04  -3.0020738e-04  -3.4553939e-04   1.0406406e-04  -2.4527352e-04   9.7033923e-04  -5.1023646e-05   6.8329013e-04  -8.9520606e-04  -2.5941152e-04  -3.1949917e-04   3.6319787e-05   3.6268501e-04  -1.1425115e-03  -1.0447920e-03
  -4.2086450e-04  -8.1960563e-05  -1.3636210e-05   1.3126849e-04  -3.4605782e-04   4.9071032e-06  -1.2465997e-04   2.9915123e-04   1.1653711e-04   3.7547149e-04   8.5160282e-05   1.1560792e-04  -1.8328101e-04  -1.0218185e-04  -3.1811220e-04  -1.0913868e-05  -1.5287485e-05   1.5344306e-06  -3.0145224e-05  -2.5037871e-04  -1.3049148e-04  -2.1113655e-04  -4.6237756e-04  -6.0362287e-04   1.0708169e-03   2.7503769e-04  -2.7582780e-04   2.5103189e-04  -3.3154545e-04   2.0984508e-04   5.9775967e-04  -2.7897075e-05  -1.7642954e-04   1.4442101e-04   9.8603014e-05   6.1977573e-04  -1.3389021e-04  -2.8540855e-04   2.4605711e-04  -2.5441946e-04   1.0214176e-03   1.1775292e-04   3.4592181e-04   3.1499282e-04  -1.1375888e-04  -3.7917291e-04   6.7733745e-05   8.7016250e-04  -1.6164237e-04  -7.4194261e-04
  -3.6826823e-04   1.9772058e-05   1.2811660e-04   2.3778636e-04  -3.0200905e-04  -6.8103538e-05  -1.1459154e-04  -1.2430901e-04  -1.0204594e-04   3.2974928e-04   9.5849646e-05   1.1894647e-04  -2.1426639e-04  -4.8404061e-05  -2.7265810e-04   4.0257139e-05   1.1007034e-04  -1.8361234e-05   1.1247871e-04  -1.8610412e-04  -7.9535181e-05  -1.7606348e-04  -4.6922508e-04  -4.8851024e-04   1.1163083e-03   9.6808988e-05  -2.6286484e-04   2.0514676e-04  -2.7118772e-04   1.8038011e-04   6.6472800e-04   1.1702487e-05  -2.5504484e-04   2.2707359e-04   1.4098422e-04   7.5011322e-04  -3.8851530e-04  -3.0132610e-04   1.8738105e-04  -1.5467302e-04   1.1234048e-03   8.6164742e-05   3.6171454e-04  -3.7081051e-04  -2.8672913e-04  -6.1060808e-04   8.9253510e-05   3.8836754e-04   4.5628866e-04   1.1389278e-03
  -3.1809942e-04  -1.0377118e-04   4.4690536e-05   1.4743891e-04  -3.6744817e-04  -1.4406494e-04  -1.6668296e-04   7.5652271e-05  -1.9407220e-04   1.8162118e-05  -1.2999515e-04  -1.0606526e-04  -3.1607377e-04  -1.3447598e-05  -3.3864487e-04   3.1001935e-06   1.6602055e-04   1.4725929e-05  -1.6602833e-05  -2.6339010e-04  -1.1371729e-04  -2.2486753e-04  -5.5771676e-04  -5.9018360e-04   1.1328316e-03   1.7474961e-04  -2.5997646e-04   2.5301421e-04  -4.1620107e-04   2.1998592e-04   7.8180473e-04   9.4861549e-05  -4.6462068e-05   1.7747280e-04   1.4239611e-04   6.9339824e-04  -2.7142829e-04  -1.9682542e-04   2.7768221e-04  -2.4104763e-04   1.0366583e-03   6.9299436e-05   1.3846307e-03   2.7262836e-04  -1.1109781e-04  -3.3517962e-04   1.3053551e-04   1.1491915e-03  -4.0924703e-04  -2.2438930e-03
  -1.5226658e-04   6.2262901e-05   2.2556154e-04   2.7178312e-04  -2.4583950e-04   3.0639512e-05   3.1963405e-06  -1.5864339e-04   2.0192467e-04   4.0133754e-04   1.9983805e-04   1.6061035e-04  -1.4012160e-04   9.1391121e-05  -2.6117594e-04   5.9192902e-05   3.0582029e-04   5.5903551e-05   1.2365219e-04  -1.2237532e-04  -2.9973051e-05  -1.1946710e-04  -3.9206108e-04  -4.0445992e-04   1.2685648e-03   3.5883038e-04  -2.2813205e-04   2.8373400e-04  -5.1414652e-04   3.1719171e-04   8.1319758e-04   7.5903939e-05  -1.0113709e-04   2.3874776e-04   1.8226751e-04   8.6997135e-04  -2.6258948e-04  -2.3326250e-04   2.5383942e-04  -1.7813957e-04   1.1003878e-03   1.0003453e-04   1.0534460e-03   4.9425999e-04  -1.8837648e-04  -4.6445211e-04   2.1174757e-04   1.0054761e-03  -1.2159413e-03  -1.2753850e-03
  -1.4929631e-04  -3.5149467e-05   1.7144544e-04   1.8966837e-04  -2.8581810e-04   3.5162608e-05  -7.9746154e-05   3.1836974e-04  -2.7522243e-05   1.3415769e-04  -2.1177128e-05   1.4868071e-05  -2.2681672e-04   1.1217770e-04  -3.1168567e-04   9.4160278e-05   3.0497953e-04   4.5433375e-05  -1.5270716e-06  -1.7282701e-04  -6.5487329e-05  -1.9206420e-04  -2.9334676e-04  -5.2587118e-04   1.2862901e-03   2.8108203e-04  -1.3744288e-04   2.6286760e-04  -3.2741489e-04   2.8194083e-04   8.0153369e-04   5.2185678e-05  -1.8696133e-04   2.1277234e-04   8.2498191e-05   6.9630198e-04  -4.4582228e-04  -2.3451312e-04   2.8388205e-04  -2.9248683e-04   9.8018139e-04   1.5795282e-04   3.7873577e-04  -4.0418826e-04  -4.1095441e-04  -2.8301356e-05   1.6361856e-04   1.3763544e-03  -2.8326869e-04  -1.1846457e-03
  -3.2314099e-04  -1.8012061e-04   1.0886910e-04   9.6002368e-05  -3.6262776e-04  -3.3341610e-05  -1.3488384e-04   1.9178664e-05  -6.8426125e-05   2.5544211e-04   5.0986531e-05   9.6043361e-05  -1.8869201e-04   1.4733036e-04  -2.9821895e-04   1.3024508e-04   2.7884977e-04   6.3479994e-05   5.6244837e-05  -1.9209750e-04  -7.4334923e-05  -2.3460109e-04  -3.7666335e-04  -3.5450057e-04   1.1970863e-03   3.6783295e-04  -1.2161981e-04   3.1376336e-04  -4.9582316e-04   3.5483166e-04   8.0659747e-04   9.4694173e-05   1.0096456e-04   2.2524099e-04   1.7784342e-04   8.0941583e-04  -1.2459831e-04  -1.6232386e-04   2.8405772e-04  -1.6430012e-04   1.0444971e-03   3.5156199e-04   1.4875157e-04   1.9051531e-05  -1.3875915e-04  -2.1522213e-04   1.4787653e-04   1.3717323e-03   2.6356871e-04   3.8216461e-04
  -1.7072737e-06   2.5837378e-05   2.5199447e-04   2.1823673e-04  -2.2483239e-04  -1.3531513e-05  -7.6458462e-05   5.8798239e-05   4.5532241e-05   3.0419286e-04   1.2883938e-04   1.3687220e-04  -1.2301322e-04   1.4525010e-04  -1.5724222e-04   2.2155420e-04   3.3810019e-04   7.4846685e-05   7.3331670e-05  -1.1521085e-04  -2.8803950e-05  -1.5092951e-04  -3.3699450e-04  -3.3898873e-04   1.2981171e-03   3.7953010e-04  -1.2129272e-04   3.0437188e-04  -3.1214536e-04   3.1918517e-04   8.2248758e-04   1.0722283e-04  -2.1307141e-04   2.5725935e-04   2.2511381e-04   6.8162696e-04  -4.3717728e-04  -1.8105483e-04   2.8344983e-04  -2.1383897e-04   1.0087135e-03   3.3163666e-04   9.5921906e-04   1.4327891e-04  -2.7721477e-04  -7.1866736e-05   6.5969871e-05   7.0206629e-04  -4.8425401e-04  -5.1533815e-04
  -1.4217451e-04  -1.0192025e-04   2.1319177e-04   1.4705304e-04  -3.3985524e-04   4.0319712e-05  -9.7539232e-05  -1.4660522e-04  -3.3929132e-04  -8.7383951e-06  -1.4917567e-04  -8.9075140e-05  -2.4038991e-04   9.6001364e-05  -3.2889858e-04   1.3370218e-04   3.1078252e-04   5.8017737e-05  -2.9877472e-05  -2.1706522e-04  -1.0673604e-04  -2.5437208e-04  -3.4632738e-04  -4.2856499e-04   1.1671029e-03   1.5153705e-04  -2.4319322e-04   2.8702928e-04  -1.1704186e-04   2.2880007e-04   8.6772611e-04   5.1460356e-05  -3.3319427e-04   1.6173562e-04   6.9985588e-05   5.9612590e-04  -4.9016200e-04  -3.0411882e-04   1.9891433e-04  -3.7100003e-04   7.2056521e-04   9.0582231e-05   4.2443327e-04  -8.4975269e-05  -4.6281936e-04  -6.2098575e-04  -3.4232133e-05   1.0554824e-03   3.9171911e-04   8.3069422e-04
  -1.2452643e-04  -9.0544665e-05   1.9058149e-04   1.2055659e-04  -2.7885818e-04   1.9386413e-05  -6.6445718e-05   1.4770337e-04  -4.5098575e-05   2.3517510e-04   3.1329924e-05   3.0614105e-05  -1.5242989e-04   6.9468842e-05  -4.0957594e-04   2.0604435e-04   3.1003993e-04   8.2010323e-05  -1.2056724e-04  -2.1009985e-04  -1.1086203e-04  -1.4560389e-04  -2.7853914e-04  -3.6238143e-04   1.2797958e-03   2.6312086e-04  -1.5368441e-04   2.9672118e-04  -1.6766919e-04   4.0456466e-04   8.0347789e-04   1.3411592e-04   1.9920159e-05   2.7425814e-04   2.1537000e-04   7.6428312e-04  -2.3037138e-04  -1.9557282e-04   1.8647630e-04  -9.7642740e-05   1.0612427e-03   2.0862691e-04   9.5409789e-04  -4.4721080e-04  -1.9758396e-04  -1.6322684e-04  -2.6835958e-05   1.2123416e-03  -7.5917161e-04  -7.4436786e-05
  -5.4820328e-05  -9.6613267e-06   2.2410655e-04   1.8267616e-04  -2.5632675e-04   5.7060453e-05   4.0429481e-05   2.5865843e-04  -6.2153260e-05   2.1611310e-04   7.1519489e-06   1.3023539e-04  -1.1866966e-04   8.5946795e-06  -2.9884235e-04   1.4184978e-04   1.8052499e-04   6.0856502e-05   8.6355525e-05  -1.7374559e-04  -1.0537064e-04  -2.3202806e-04  -2.1698934e-04  -2.2806981e-04   1.2410426e-03   2.6380710e-04  -2.8732512e-04   2.7558269e-04  -5.3816359e-04   3.5388285e-04   7.6656003e-04   9.0866939e-05  -2.6243311e-04   1.9242603e-04   2.0733957e-04   6.8120228e-04  -3.1304514e-04  -2.1890366e-04   2.2968760e-04  -2.3191652e-04   8.7151089e-04   6.0178831e-05   5.3896237e-04   3.3472237e-04  -2.7465259e-04  -5.5960583e-04   4.9504317e-05   7.2968577e-04  -2.4405956e-04  -3.7340831e-04
  -1.7708943e-04  -1.2548674e-04   1.3714797e-04   8.0490536e-05  -3.1512158e-04  -7.8975885e-05  -9.6866184e-05  -2.9252671e-05  -2.7318794e-04  -1.1645409e-04  -3.1029352e-04  -1.3154271e-04  -2.3876637e-04  -1.1922250e-04  -2.7420110e-04   1.5279811e-04   4.3566284e-05   2.7507944e-05  -3.9709466e-05  -2.8685789e-04  -1.9462286e-04  -3.5589884e-04  -3.5720508e-04  -4.7389290e-04   1.2003842e-03  -1.6529542e-05  -3.4050550e-04   2.7910253e-04  -4.8797383e-04   2.2142270e-04   6.0599617e-04   1.3449104e-05  -2.7211322e-04   9.2878130e-05   9.2136470e-05   4.3093113e-04  -3.8819827e-04  -2.1959233e-04   2.2503892e-04  -4.8833078e-04   8.3809084e-04  -5.0925508e-05   6.6618988e-04   3.8549729e-04  -1.9158774e-04  -4.9145910e-04  -1.3632448e-04   1.0119850e-03  -6.7949702e-04  -5.6590524e-04
  -8.3383442e-05  -1.3641816e-05   1.5214433e-04   1.3998475e-04  -2.1809059e-04   1.2971893e-04  -7.8710791e-06  -4.3774242e-05  -9.1992129e-05   2.5299788e-04  -2.4254095e-05   7.2490584e-05  -1.2746805e-04  -1.1005629e-04  -2.3532409e-04   1.3574259e-04   1.8703335e-05   5.5966200e-05  -1.6524788e-04  -2.1740592e-04  -1.6780847e-04  -2.4439540e-04  -2.9153773e-04  -2.0378898e-04   1.2552772e-03   2.5567345e-04  -3.1033726e-04   2.6998005e-04  -4.6117051e-04   2.4568889e-04   6.5534032e-04   5.8290287e-05  -1.8646548e-04   1.2006090e-04   1.8076322e-04   5.5291527e-04  -2.8419564e-04  -2.3272169e-04   2.0467797e-04  -3.0668231e-04   9.6947083e-04   1.0521702e-04   8.0851000e-04   2.5535794e-04  -1.6655277e-04  -7.4170384e-04  -2.2223921e-05   5.1264447e-04  -1.8040549e-04  -4.0753340e-04
  -6.2729494e-05  -7.2306611e-06   1.5770100e-04   1.6952440e-04  -2.5730507e-04   9.3045537e-06  -3.6167712e-05  -9.5921125e-05  -1.7833915e-04   7.1290902e-05  -1.9657481e-04  -7.6720113e-05  -1.0881410e-04  -1.2309061e-04  -2.8221935e-04   1.1709897e-04  -4.3226672e-05   3.3857730e-05  -1.6732365e-04  -2.5087353e-04  -2.0147613e-04  -3.1882102e-04  -4.1817600e-04  -3.7456659e-04   1.1956758e-03   1.3954958e-04  -4.1870383e-04   2.8419620e-04  -3.4635558e-04   2.1805434e-04   5.7192746e-04   2.0596290e-05  -2.3538065e-04   1.5608620e-04   9.7528820e-05   5.2312750e-04  -3.7180999e-04  -3.0032048e-04   2.3459968e-04  -4.1435930e-04   5.1302923e-04   3.1558440e-05   2.3626178e-04  -5.9070439e-06  -2.0157195e-04  -7.7517843e-04  -1.4280455e-04   7.5973786e-04  -1.6352278e-04   2.3001239e-04
  -3.5209127e-04  -1.6343227e-04   8.0795420e-05   6.4900953e-05  -3.3316680e-04  -6.6219582e-05  -2.1853023e-04  -7.8849909e-05  -1.9991190e-04   5.3007702e-06  -3.0929814e-04  -1.9368748e-04  -2.1805201e-04  -1.9511444e-04  -2.7733439e-04   9.5775576e-05  -4.8696362e-05   4.0014031e-05  -1.6430180e-04  -3.0108105e-04  -2.4017834e-04  -3.6488482e-04  -3.6140985e-04  -3.9036380e-04   1.1858188e-03   1.9933528e-04  -4.0621124e-04   3.0902258e-04  -4.5189293e-04   2.3140479e-04   6.4248394e-04  -5.5406149e-06  -3.0595870e-04   1.9017988e-04   1.4352857e-04   5.7162880e-04  -4.9160654e-04  -2.9558127e-04   2.8645326e-04  -3.7550996e-04   8.3927612e-04   1.7364119e-04   2.3355024e-04  -9.2373928e-04  -7.0360897e-05  -6.1689370e-04   9.7430551e-05   8.9175650e-04  -1.3915170e-03  -7.5140363e-04
  -2.1039463e-04   3.3285869e-05   1.5195606e-04   1.9300084e-04  -2.0699155e-04   1.5636018e-05  -7.9943988e-05  -4.5006175e-04  -1.7215435e-04   1.3554946e-04  -1.6755599e-04  -1.8545685e-04  -1.3233174e-04  -1.2913649e-04  -2.1788143e-04   6.1817438e-05   2.6045467e-05   4.2555977e-05  -3.9938979e-05  -2.3153571e-04  -2.0333752e-04  -2.8087234e-04  -3.6596687e-04  -5.2047829e-04   1.2528271e-03   1.8816047e-04  -3.6482228e-04   2.6911500e-04  -4.8833486e-04   2.3609909e-04   6.6625315e-04   5.9009057e-05  -1.5743509e-04   1.7098011e-04   1.3831828e-04   5.2245485e-04  -2.2675667e-04  -2.6628992e-04   2.5343450e-04  -3.0629849e-04   8.5832563e-04   4.6642886e-05   9.7660068e-04  -2.9836257e-04  -2.7783099e-04  -6.2150660e-04   8.3363069e-05   9.2079031e-04   1.0720346e-06  -3.8435590e-04
  -3.1835042e-04  -7.9311176e-05   1.0581604e-04   1.2447659e-04  -2.8933733e-04  -8.4398562e-05  -1.0500874e-04  -3.4360201e-04  -4.5444586e-04  -1.4644511e-04  -4.1893023e-04  -4.1403432e-04  -2.3811171e-04  -1.2285833e-04  -2.2314058e-04   9.1802147e-05   1.7776585e-05   3.9120139e-05  -9.3541494e-05  -3.2852273e-04  -2.6653550e-04  -3.3075397e-04  -3.7430291e-04  -5.8632862e-04   1.1567926e-03   9.7573800e-05  -2.2487629e-04   2.7392406e-04  -2.2757931e-04   1.3163546e-04   6.9051998e-04  -1.6673583e-05  -4.1945034e-04   1.7348105e-04   1.5350075e-04   4.8816708e-04  -3.1468092e-04  -2.5208437e-04   2.4947623e-04  -4.0232725e-04   9.1900508e-04  -6.8213129e-05   3.0581746e-04  -7.6812092e-04  -1.7335895e-04  -6.8850414e-04   3.3470228e-06   6.1210658e-04  -1.2013923e-03  -8.7329236e-06
  -8.9518864e-05   4.0757295e-05   1.9287475e-04   2.1082100e-04  -2.1439783e-04   4.6890702e-05  -6.8953777e-05  -2.5381354e-04   3.3039925e-07   2.8327506e-04  -8.7285473e-05  -1.6673344e-04  -9.1560716e-05  -8.6709471e-05  -1.5926751e-04   1.8527757e-04   4.0555915e-05   9.5157578e-05  -6.8069479e-05  -1.7997305e-04  -1.9977483e-04  -2.7124738e-04  -3.1657054e-04  -3.5084036e-04   1.2352127e-03   2.8109219e-04  -2.3559983e-04   3.0671226e-04  -4.2714321e-04   1.7397282e-04   7.0560729e-04   5.1588784e-05  -1.8573570e-04   2.1065562e-04   2.1879458e-04   5.9453514e-04  -4.6043220e-04  -2.1351253e-04   2.5200730e-04  -3.0508623e-04   6.2451576e-04   6.7346787e-06   1.0021945e-03  -5.8410020e-04  -1.4563055e-04  -7.2334806e-04  -7.3187759e-05   6.1469740e-04  -3.4372773e-04   1.3399529e-03
  -2.1291418e-04   9.6298263e-06   1.7452006e-04   2.2133347e-04  -2.1125350e-04  -1.0736163e-05  -5.2465844e-06   5.4029184e-05  -2.9850102e-04   9.6476411e-05  -2.5831640e-04  -2.5536044e-04  -1.3737478e-04  -1.1977040e-04  -2.3198429e-04   1.1968709e-04  -8.3276618e-06   9.2410301e-05  -1.3342313e-04  -1.9790283e-04  -2.1603720e-04  -3.0509033e-04  -4.7925298e-04  -5.1668414e-04   1.2073090e-03   1.3244625e-04  -2.8247171e-04   3.1666135e-04  -2.1833916e-04   1.6126342e-04   5.8521802e-04   2.4602166e-05  -5.4821122e-04   1.4764564e-04   1.4642056e-04   4.6224479e-04  -3.7592044e-04  -2.8812332e-04   2.3220397e-04  -3.8815892e-04   5.4796785e-04  -6.7395835e-05   1.1979011e-03   2.9559483e-04  -2.1017839e-04  -6.8585156e-04  -3.0825235e-05   1.1536152e-03  -6.8239815e-04  -4.1471908e-04
  -3.8522331e-04  -1.4727435e-04   4.8153746e-05   9.3257484e-05  -3.3396552e-04  -9.4075651e-05  -1.7072987e-04  -1.1684431e-04  -7.9799065e-05   1.0260291e-04  -3.2129983e-04  -2.7628653e-04  -1.4880449e-04  -1.4528335e-04  -2.9467544e-04   1.4902587e-04  -2.4330910e-05   8.3819490e-05  -1.1082048e-04  -2.4089358e-04  -2.2565330e-04  -3.0931781e-04  -3.2405189e-04  -4.1996359e-04   1.1961961e-03   2.2768689e-04  -2.7758305e-04   3.1961297e-04  -4.5622638e-04   2.1569610e-04   6.2027341e-04   6.5926266e-05  -3.9236937e-04   1.7633227e-04   2.3178475e-04   5.0109712e-04  -1.6078590e-04  -2.2390971e-04   9.7029224e-05  -2.2930240e-04   7.6162961e-04   1.0976652e-04   1.4901591e-03   1.6618142e-04   8.2438264e-06  -4.3745851e-04   6.8241396e-05  -2.3482369e-05   5.8959401e-04  -1.6007706e-03
  -1.4105570e-04   7.2082192e-05   1.5624306e-04   2.3325984e-04  -2.1903729e-04   1.1531862e-04  -2.2446652e-06  -9.6002086e-06  -1.0986486e-04   3.3755213e-04  -1.1637979e-04  -1.1821682e-04  -4.5308578e-05  -1.1420335e-04  -3.1990474e-04   1.5135585e-04  -1.4377916e-05   8.3658517e-05  -1.2180521e-05  -1.2658144e-04  -1.7477445e-04  -2.6281574e-04  -2.8183294e-04  -3.3216592e-04   1.2520772e-03   3.5963737e-04  -4.0673322e-04   3.2955330e-04  -5.2176847e-04   2.1206609e-04   5.6551467e-04   2.2033164e-05  -4.2012788e-04   1.6568579e-04   2.1172724e-04   6.1260269e-04  -2.7234826e-04  -2.0218629e-04   2.6009357e-04  -2.6183386e-04   6.5948936e-04   8.3733095e-05   1.0455081e-03   4.3848553e-04  -5.2093892e-05  -5.6275330e-04  -8.1367609e-05   9.3872106e-04  -1.2940596e-04  -7.4843870e-04
  -2.5119787e-04  -3.5458244e-05   1.0434708e-04   1.4028090e-04  -2.5683295e-04  -8.5331340e-05  -9.9655561e-05  -2.1067665e-04  -1.7489669e-04   1.1051737e-04  -3.1482006e-04  -2.5942753e-04  -1.3112889e-04  -1.5981773e-04  -2.6132271e-04   1.6522360e-04  -6.7265624e-05   5.5994278e-05  -1.1872589e-04  -2.1837169e-04  -2.2658720e-04  -3.3973422e-04  -3.5100512e-04  -5.0508062e-04   1.2213901e-03   9.0564849e-05  -3.3693304e-04   2.8826197e-04  -1.2082862e-04   1.3684644e-04   5.5975729e-04  -6.3647065e-05  -4.8210711e-04   1.4634510e-04   1.0685196e-04   4.3356392e-04  -3.4808819e-04  -3.2073923e-04   1.4463278e-04  -3.8201583e-04   5.0781725e-04   3.8411839e-05   9.6526300e-04   1.2752692e-04  -3.9189163e-05  -7.5808686e-04  -1.3236803e-05   5.7673309e-04  -7.5030251e-04  -1.8011234e-03
  -1.9901030e-04   9.5064424e-06   7.2198658e-05   1.7055248e-04  -2.5652119e-04   4.5864766e-05  -9.5449512e-05  -2.2532262e-05   1.9259016e-04   4.2774237e-04  -7.2738214e-05  -8.7094777e-05  -8.5879641e-05  -1.3872184e-04  -1.0996073e-04   1.7522395e-04  -6.5695393e-05   8.0607286e-05  -1.0984038e-05  -1.7788542e-04  -1.9890763e-04  -3.3053834e-04  -1.6983961e-04  -3.4255954e-04   1.2418923e-03   3.0059452e-04  -3.3467938e-04   3.2498254e-04  -5.0574768e-04   2.8049256e-04   5.4058834e-04   7.7594177e-06  -3.0877322e-04   2.2019184e-04   2.0321575e-04   4.0782406e-04  -2.0715476e-04  -1.6895504e-04   2.3761383e-04  -2.8009526e-04   7.1370130e-04   1.8124255e-04   4.9612182e-04   6.7672331e-04  -9.8803706e-05  -5.9561495e-04   5.5637767e-05   8.7638432e-04  -4.8934377e-04   5.0733169e-04
  -2.3801185e-04   5.9603706e-05   1.0042332e-04   2.2502463e-04  -2.0874842e-04   1.0477611e-04  -1.0312381e-04   7.4144707e-05   7.6153221e-05   4.2807611e-04  -6.1633931e-05  -1.1334163e-05  -2.5265479e-05  -1.8916550e-04  -1.3098006e-04   1.3943958e-04  -1.8088316e-04   3.0219921e-05   5.2852185e-05  -1.4300886e-04  -1.9656516e-04  -2.6108330e-04  -9.5324249e-05  -3.1280573e-04   1.1701094e-03   1.8570657e-04  -3.4734522e-04   3.0055334e-04  -2.8712719e-04   1.8978864e-04   4.4659487e-04  -3.7417383e-05  -4.9370981e-04   1.3702056e-04   7.0456008e-05   4.6790272e-04  -1.4144061e-04  -1.7774876e-04   1.1734638e-04  -3.2773937e-04   7.2480657e-04   1.4645064e-05   7.8792142e-04   2.3099766e-04  -4.5202032e-05  -6.2722858e-04  -2.3965044e-06   5.2843371e-04  -8.7080276e-05   2.1019430e-04
  -2.3877759e-04  -5.7923957e-05   1.4125901e-05   1.2616572e-04  -3.0980789e-04  -1.2168284e-04  -1.8567486e-04   8.1186372e-05  -1.7109835e-04   1.2823890e-04  -3.2263034e-04  -2.0947165e-04  -7.6346339e-05  -2.4564654e-04  -1.7252614e-04   1.4959383e-04  -3.3319579e-04  -2.8839755e-05  -1.6561145e-04  -2.8043942e-04  -2.6211783e-04  -3.2819714e-04  -3.4634539e-04  -2.8600876e-04   1.0651520e-03   5.7314541e-05  -4.2387701e-04   3.6106780e-04  -4.1123937e-04   1.6097065e-04   1.8840918e-04  -1.0962423e-04  -3.7216177e-04  -1.7599531e-06   8.2794941e-05   3.0840145e-04  -2.1536485e-04  -1.9640703e-04   1.4040689e-04  -2.2256649e-04   6.5736118e-04   1.5581815e-04  -6.2332183e-05  -5.5978441e-04   4.2548410e-05  -7.4472628e-04   1.8865494e-05   9.3785895e-04  -3.1254481e-04  -2.2923972e-03
  -8.4701853e-05   9.6898970e-05   8.0543003e-05   2.0228820e-04  -1.5334488e-04   9.9858524e-05  -4.8864618e-05   1.3084109e-05   2.9857273e-04   6.0662231e-04   6.3218031e-05   9.2496026e-05  -1.4748536e-05  -2.2947764e-04  -1.3515141e-04   1.2903092e-04  -3.4135926e-04  -3.0262172e-05   8.1086248e-05  -1.4785092e-04  -1.9635534e-04  -2.2225089e-04  -1.7734012e-04  -1.8010558e-04   9.3926449e-04   1.1840419e-04  -4.0740988e-04   3.6832376e-04  -4.8171968e-04   1.5153692e-04   1.6364330e-04  -1.0684678e-04  -2.3362470e-04   1.0534517e-04   1.1642829e-04   3.1854855e-04  -4.0023756e-04  -1.5626337e-04   1.5413300e-04  -1.3792586e-04   7.6986611e-04   9.1271817e-05   5.5470149e-04  -3.5996351e-04   7.0603710e-05  -6.2615058e-04   1.5961798e-04   9.6218829e-04  -3.2911793e-04   8.1309985e-04
  -3.2019845e-04   8.6385466e-05   8.9934343e-05   2.0136715e-04  -1.7235808e-04  -8.0170117e-05  -9.8192300e-05   1.3098257e-04   1.0350859e-05   3.7686803e-04  -6.5518820e-05  -6.3797779e-05  -2.5393572e-05  -3.7812733e-04  -7.2515199e-05   1.4792554e-04  -4.5890352e-04  -7.9883197e-05   3.8833050e-06  -1.7354377e-04  -1.9205987e-04  -2.4248660e-04  -1.8800235e-04  -2.4928548e-04   8.1120769e-04   1.3709468e-04  -4.2956794e-04   3.4814514e-04  -3.2250959e-04   9.9643003e-05  -2.9607676e-05  -2.4263978e-04  -4.9594662e-04  -4.3593054e-06   1.2296453e-04   1.7972886e-04  -5.0649326e-04  -2.1572078e-04   1.1947496e-04  -3.2248729e-04   3.3334555e-04  -2.3458942e-05   7.9681230e-04   4.7288981e-07  -8.4060273e-05  -5.5567868e-04  -1.8058956e-04   7.7519135e-04  -7.8005198e-04   1.7333365e-04
  -4.0253691e-04  -1.9602085e-05  -5.0992327e-05   1.5137294e-04  -1.7674459e-04  -8.5145068e-05  -1.5508218e-04  -6.2987747e-05   1.6930053e-04   5.0166732e-04  -2.1531379e-05   1.8613731e-05   1.2350931e-05  -3.9830164e-04  -1.7620894e-04   1.9591907e-04  -5.2276929e-04  -6.4980712e-05   8.7338776e-05  -1.8006194e-04  -1.7374198e-04  -2.6190697e-04  -3.7725000e-05  -5.0826260e-05   7.7775150e-04   1.9257593e-04  -3.2482334e-04   3.8648184e-04  -2.6089625e-04   1.7807033e-04  -6.1782448e-05  -2.0040787e-04  -1.6576382e-04   2.7071599e-05   8.4697967e-05   3.3758220e-04  -3.8995640e-04  -1.3397408e-04   2.0932703e-04  -1.7471767e-04   5.4124562e-04   6.3522144e-05   6.5512653e-04   3.6834105e-04   1.6715541e-04  -3.3989406e-04   8.1439728e-05   7.9382741e-04   2.7685857e-04   3.7629495e-04
  -1.4361554e-04   1.7952912e-04   5.9879920e-05   2.7922314e-04  -7.0023612e-05  -6.9385111e-05  -2.0713644e-05  -6.7224668e-05   3.0467098e-04   5.4862042e-04   1.0375692e-04   6.3135718e-05   1.0967161e-04  -3.3823933e-04  -5.3421987e-05   7.2284813e-05  -5.1676499e-04  -8.1269798e-05   9.0512229e-05  -7.9691876e-05  -9.5752359e-05  -1.4268182e-04  -7.1535142e-05  -3.9505871e-05   6.2613143e-04   1.8424036e-04  -3.0934357e-04   3.8789058e-04  -1.9847736e-04   1.2487535e-04  -9.3783696e-05  -2.5483477e-04  -2.9716160e-04  -6.0525617e-05   3.1132058e-05   2.4985604e-04  -9.2478076e-05  -9.3959789e-05   1.9636309e-04  -1.0459848e-04   5.6662777e-04   1.0206811e-04   2.0519400e-04   8.2824542e-04   1.0111031e-04  -6.2774809e-04  -1.0259655e-04   7.7242585e-05   1.9035142e-04   1.5564623e-03
  -2.6500213e-05   9.1847767e-05   2.5834750e-05   2.0775360e-04  -1.0985501e-04  -7.9491976e-05  -9.9331563e-05  -1.8837249e-04  -4.5902863e-05   2.2887370e-04  -1.2091711e-04  -2.0664315e-04  -7.5738142e-05  -3.6332151e-04   1.7670889e-05   1.3273561e-04  -5.0764834e-04  -1.4352228e-04  -1.4377834e-04  -1.4742209e-04  -1.2298883e-04  -1.7950837e-04  -1.8334731e-04  -2.3968924e-04   4.5157378e-04   3.7031656e-05  -2.7499328e-04   3.4384651e-04  -2.1210086e-04   4.8938378e-05  -1.6414974e-04  -3.4852003e-04  -5.2060967e-04  -1.1729304e-04  -1.6321226e-06   3.1901672e-04  -2.2755546e-04  -2.1993692e-06  -2.4170660e-05  -1.8935940e-04   4.5284847e-04  -8.3661296e-05   9.5739670e-04   4.9030373e-04   1.0227553e-04  -4.8457130e-04  -3.9846196e-05   3.4912187e-04  -6.6859653e-04   5.7606568e-04
  -4.1535670e-05   1.7836851e-04   6.5384025e-05   2.4084297e-04  -3.4182813e-05   8.6918284e-05   4.5846125e-05  -4.9206272e-05   4.5587090e-04   5.6818465e-04   2.1298065e-04  -2.3780201e-05   5.0548155e-05  -2.0813137e-04  -7.9117584e-05   2.1362168e-04  -3.9855513e-04  -2.0587342e-04   7.4984782e-05  -4.8411301e-05  -4.0621431e-05  -1.0819800e-04   2.0469595e-05  -1.7926453e-04   4.1615363e-04   1.3289302e-04  -2.8357268e-04   3.7634550e-04  -2.2728783e-04   1.6743875e-04  -1.1053167e-04  -2.9488918e-04  -1.5277728e-04   4.1949446e-05   7.6612741e-05   3.5266334e-04  -1.7343313e-04  -2.7880691e-05   1.2747238e-04  -1.1107578e-04   2.7802019e-04   1.0449398e-04   2.6602609e-04   4.0021518e-04   2.4881429e-04  -3.3854437e-04   7.0805589e-05   1.2294532e-03  -1.3093755e-04  -1.8228590e-04
  -1.4474909e-04   1.7858326e-04   9.8108874e-05   2.6896817e-04  -7.5411212e-05   2.2472776e-05  -5.3524368e-06  -7.6798469e-06   1.7125774e-04   3.2782470e-04   6.7650530e-05  -2.3258165e-04   1.7011450e-06  -1.8153140e-04  -4.0472027e-05   1.4851481e-04  -2.6251597e-04  -3.0406180e-04   1.4710521e-04  -8.7086621e-05  -5.6816516e-05  -1.0069540e-04  -5.3962096e-05  -2.9202408e-04   3.9319499e-04   4.4224053e-05  -2.3896559e-04   3.9906270e-04  -3.7485640e-04   1.3995254e-04  -9.7592419e-05  -3.6471986e-04  -4.0748052e-04  -7.6784949e-05   6.7813312e-06   2.5255120e-04  -2.1433318e-04  -1.4904975e-04   3.2055759e-05  -9.1039772e-05   4.2999233e-04   1.0185443e-05   4.5782523e-04   8.4995874e-04   8.7805187e-05  -1.9712934e-04  -1.3671114e-04   5.8221456e-04  -1.8198078e-04   1.1908673e-03
  -1.7215208e-04   1.7331191e-05  -2.8845541e-05   1.4321665e-04  -1.7826250e-04  -1.2050987e-04  -1.2788502e-04  -1.1781638e-04  -3.4844707e-05   5.0042661e-05  -1.5460442e-04  -3.0358954e-04  -1.4641455e-04  -2.5030071e-04  -8.2321254e-05   1.2839894e-04  -3.5403616e-04  -3.1110845e-04   3.2255528e-05  -1.3700446e-04  -7.9284728e-05  -1.4089877e-04  -1.6581021e-04  -2.2807109e-04   4.0078996e-04   1.3066130e-04  -2.1651712e-04   4.1637724e-04   8.5162392e-05   1.6511361e-04  -1.1557317e-04  -3.6544784e-04  -5.3230039e-04  -1.6956177e-05   7.1781164e-05   1.9582223e-04  -1.7826093e-04   5.3570534e-06   2.3879446e-04  -9.1551403e-05   5.8559887e-04   6.2577194e-05   5.5973843e-04   8.7297789e-04   2.5268568e-04  -2.8144501e-04   9.4589450e-05   7.4292609e-04   6.2604906e-04   1.7456601e-03
  -3.5197998e-05   2.2263952e-04   8.1213439e-05   2.5755260e-04   1.2370138e-05   1.2534582e-04   7.4302632e-05   2.2963596e-04   3.1249170e-04   5.7686865e-04   3.2544779e-04   9.1276248e-05   4.9523202e-05  -2.7274812e-04   1.2966605e-04   9.9953359e-05  -3.5104144e-04  -3.0894918e-04   1.5660694e-04   1.8601993e-05   2.0410656e-05  -4.2277232e-05   9.6353055e-05  -3.9742765e-05   3.4106462e-04   2.8483622e-04  -2.7422392e-04   3.8689966e-04  -1.1289302e-04   1.3993628e-04  -1.6272187e-04  -2.4327985e-04  -2.5390135e-04  -3.0223207e-05   8.8016146e-05   1.3072195e-04  -1.4310944e-04   1.0535122e-04   1.5866752e-04  -9.1482456e-05   3.5868402e-04  -2.2670489e-05   2.6819846e-04   3.5815814e-04   3.0130529e-04  -2.8672506e-04   9.4135496e-05   9.3129859e-04  -3.8015115e-04   1.5556151e-03
   1.2648369e-04   1.7522012e-04   4.2266587e-05   1.8203705e-04  -2.3243991e-05  -6.5645040e-06   1.6941794e-05  -2.9620560e-05   3.0561999e-04   3.5306023e-04   1.3916944e-04  -4.2696265e-05   2.0521918e-05  -2.0070041e-04   6.1331280e-05   7.4994692e-05  -3.4932111e-04  -3.2478780e-04   1.7281286e-04  -1.8192746e-05   4.6717932e-06  -6.2988584e-06  -4.1224135e-05  -4.4297234e-05   2.7518818e-04   8.7963155e-05  -3.1639711e-04   3.6860842e-04  -7.1791132e-05   6.9550617e-05  -1.7898191e-04  -3.3415706e-04  -4.2268823e-04   2.3338567e-05  -8.6969858e-06   1.4034084e-04  -7.5381249e-05   5.4640463e-05   4.7667196e-05   3.7838607e-05   2.1425368e-04  -1.4112756e-04   9.1961556e-04   2.2514696e-04   2.7612465e-05  -3.7716376e-04   2.3016539e-05   1.2359183e-03  -5.7114721e-05   1.3295452e-03
  -8.7867294e-05   8.7293338e-06  -3.5418521e-05   4.3773249e-05  -9.1599708e-05  -6.7145542e-05  -6.7326539e-05  -5.2583589e-05   1.4313142e-04   3.6372602e-04   1.1699925e-04  -7.1014132e-05  -6.8509158e-05  -2.0379880e-04  -6.0837687e-05   1.1298408e-04  -2.8165383e-04  -3.4968407e-04   2.1146704e-04  -6.4269036e-05  -1.1568134e-05  -5.1949024e-05  -6.1543607e-05   2.0362389e-05   3.0441617e-04   1.3302245e-04  -1.5069518e-04   3.8437860e-04  -4.0989867e-04   1.8032138e-04  -8.1636361e-05  -2.5831931e-04  -7.7633500e-05   3.8711558e-05   2.0512678e-05   1.6091214e-04  -3.3632808e-04   1.2034334e-04   9.6830394e-05   8.9213434e-05   1.9824081e-04  -4.0335173e-05   2.3716841e-04   3.1763854e-04   2.6544995e-04  -4.0144060e-04   1.8214532e-04   6.2044541e-04  -6.2332791e-04   2.4108792e-04
   1.7768722e-04   2.2505142e-04   8.1435966e-05   1.8993854e-04   4.9200102e-05   1.0181761e-04   8.9450557e-05   7.0365706e-05   3.5774420e-04   5.9249270e-04   3.1944650e-04   2.9820681e-04   7.5877659e-05  -1.4450832e-04   9.0726528e-05   5.1934709e-05  -2.0172454e-04  -3.0104024e-04   2.9458763e-04   2.3173554e-05   3.6160178e-05  -4.1116909e-05   1.6316470e-05   1.4347617e-04   3.2378786e-04   2.2347779e-04  -1.1960758e-04   3.8379829e-04  -3.5750485e-04   1.4617319e-04   3.3900113e-05  -1.5960778e-04  -3.7237807e-04   1.3219859e-04   4.8213467e-05   2.0561775e-04  -1.6474489e-05   1.2696513e-04   1.3365549e-04  -1.0496331e-04   2.8511044e-04   2.8265024e-05   1.3693186e-03  -3.5908396e-04   5.4404436e-06  -2.4177007e-04  -4.7018526e-05   4.9488165e-04  -5.9672497e-04   5.6880894e-05
  -1.4774570e-05   9.0798356e-05   4.6383597e-05   8.0139536e-05  -7.6550583e-05   4.8082387e-05  -2.8884200e-05  -2.3169743e-04   1.0471109e-04   2.5201944e-04   3.4322660e-05  -3.8577557e-05  -5.4019260e-05  -1.0478354e-04  -7.9944730e-05  -6.0357954e-05  -9.5722738e-05  -3.2885603e-04   3.7943300e-05  -1.0974752e-04  -3.7755279e-05  -1.1871255e-04  -8.8751993e-05  -1.8615095e-06   2.9616008e-04   3.4642235e-05  -2.1619715e-04   3.8781922e-04  -3.5590245e-04   1.1096169e-04   1.7608574e-04  -1.1388111e-04  -3.0477151e-05   2.3553044e-05  -3.8905659e-05   1.5936297e-04  -2.8221298e-04  -1.6182159e-05   1.6649754e-04  -1.7881303e-04   1.5418643e-04  -1.0362652e-04   2.4881441e-04  -2.0440662e-04  -1.6973331e-04  -3.8765432e-04   4.6019937e-05   9.6757925e-04   1.3871268e-04   9.3777943e-04
   1.3177564e-04   8.3122417e-05   3.0687610e-05   3.7482361e-05  -7.6074117e-05   1.1375952e-05  -6.5287742e-05  -1.5293900e-04   1.5054972e-04   4.7062762e-04   1.7529423e-04   8.4071151e-05  -3.8501501e-05  -1.0415851e-04   5.9183069e-05  -8.5934786e-05  -2.2855000e-05  -3.1856529e-04   2.9915149e-04  -8.8789820e-05  -4.9480535e-05  -1.1504543e-04  -5.7490914e-05   1.6575953e-04   3.2560629e-04   2.0416031e-04  -1.3678077e-04   4.0458704e-04  -6.3686626e-04   1.5962386e-04   2.7355333e-04  -3.5293273e-05  -1.1996592e-04   1.7545930e-04   1.9464362e-05   2.8609365e-04  -1.3953482e-04   2.6768463e-05   1.8273506e-04  -3.4747893e-05   5.5520714e-04   2.1884996e-04   2.5980131e-04  -3.2233543e-04   7.1989925e-06  -2.4156140e-04   1.6754224e-04  -1.4573378e-04   4.1140657e-04  -7.8695006e-04
