  -3.2310426e-04  -8.8941772e-05  -2.1038533e-04  -5.2146454e-05  -2.1812509e-04  -4.0887049e-04  -3.8606458e-04  -5.1592360e-04  -7.3007174e-04  -3.3182174e-04  -3.1190543e-04  -3.2570842e-04  -2.0103852e-04  -1.3001308e-04   3.1501095e-05  -2.5273956e-04   2.3535906e-05  -2.8660505e-05  -2.9451252e-04  -2.0165899e-05  -1.6156127e-05   2.9431836e-05  -1.6185977e-04  -1.0518682e-04   4.3032174e-05  -2.5394230e-04   2.6700227e-05   1.7689668e-04  -1.5613463e-04  -1.2187767e-04   8.4494714e-05   1.4651207e-04  -1.2199986e-04   3.8517417e-05  -1.2041292e-04  -2.2479912e-04  -3.0304739e-04  -2.3139793e-04  -9.1317474e-05  -2.3557665e-04  -1.0496449e-04  -2.0623421e-04  -2.9318573e-04  -6.9160433e-04  -9.7594180e-05   6.7111781e-05  -1.0627306e-04  -2.0543652e-04   2.7150502e-06   3.7039688e-05
  -3.8746692e-04  -8.2633262e-05  -2.1270283e-04  -6.1808059e-05  -2.0926306e-04  -3.4256565e-04  -4.0308392e-04  -3.5403820e-04  -7.5078540e-04  -3.1486264e-04  -2.8968899e-04  -2.6585851e-04  -2.0367796e-04  -7.5688178e-05  -6.9148089e-05  -2.7657370e-04   4.4006342e-06  -3.5828471e-05  -3.6878465e-04  -3.9405531e-05  -3.0445959e-05   1.5780437e-05  -1.8052122e-04   1.6080912e-05   1.4002358e-05  -2.9102227e-04   6.3603416e-05   1.5785168e-04  -3.9954510e-04  -1.6906165e-04   9.2566705e-05   1.6975142e-04  -1.2523944e-04   3.3477678e-05  -2.0050818e-04  -2.7543667e-04  -6.1156414e-04  -2.4184264e-04  -7.3133531e-05  -2.9754330e-04  -2.3184884e-04  -2.2636745e-04   3.7398550e-04   2.3320546e-04  -1.4481715e-04   6.9866283e-06  -2.1347728e-04   2.0548432e-04  -6.2525133e-04  -7.0845307e-04
  -4.3105864e-04  -8.0765843e-05  -2.2912821e-04  -5.1036710e-05  -1.7619954e-04  -3.8001515e-04  -4.0140914e-04  -5.5656902e-04  -8.0705900e-04  -3.1961233e-04  -3.1486995e-04  -2.7068600e-04  -1.9445248e-04  -9.9555189e-05   2.5558797e-05  -2.5584866e-04  -1.3543436e-05  -5.8381880e-05  -3.5015249e-04  -4.5557095e-05  -1.5667720e-05   1.9583866e-05  -1.8454426e-04   1.6574139e-08   6.3821863e-05  -2.0823942e-04   7.5833468e-06   1.4609605e-04  -2.0990442e-04  -1.2003472e-04   7.5164986e-05   1.4494304e-04  -3.2171531e-04   3.9359988e-05  -1.6028769e-04  -2.4648552e-04  -5.7506061e-04  -2.1871073e-04  -1.0809526e-04  -2.8907787e-04  -1.4147221e-04  -3.2161432e-04  -9.4775656e-05   3.3616213e-04  -1.3177482e-04  -1.0232966e-04  -1.6609149e-04  -5.9583411e-04  -2.3773844e-04   1.0072938e-03
  -4.8395267e-04  -7.5021861e-05  -1.9149425e-04  -3.6585243e-05  -1.8542209e-04  -3.1497670e-04  -3.5143300e-04  -5.3014059e-04  -7.8163034e-04  -3.2709166e-04  -3.0170043e-04  -2.4000823e-04  -2.2751250e-04  -1.7520730e-04   6.8144611e-05  -2.2217214e-04  -2.6037907e-05  -4.3093441e-05  -2.8972366e-04  -2.9775401e-05  -2.2466165e-05   1.9887064e-05  -1.6737348e-04  -4.3906628e-05  -7.4144095e-06  -3.1036281e-04   7.0362980e-06   1.5067683e-04  -1.5020272e-04  -1.2901389e-04   7.9028374e-05   1.3470405e-04  -3.0787213e-04   6.9689697e-05  -1.5571860e-04  -2.6088781e-04  -4.5193138e-04  -1.9971270e-04  -1.5310278e-04  -3.7694437e-04  -1.2029043e-04  -2.1525365e-04  -5.9046084e-04  -4.7813440e-04  -1.4202912e-04  -2.7213246e-04  -1.1556452e-04  -2.1548955e-04  -3.3472225e-04  -5.2584077e-05
  -4.5475786e-04  -7.3238436e-05  -2.2754385e-04  -4.9965125e-05  -2.0876937e-04  -3.6921698e-04  -3.7429301e-04  -6.5049931e-04  -7.5069419e-04  -3.0511396e-04  -2.8524862e-04  -2.2257236e-04  -1.9801709e-04  -1.6404159e-04   4.0519739e-05  -2.9233412e-04  -2.8379809e-05  -5.3346856e-05  -3.8628030e-04  -1.1368547e-05  -1.7345043e-05   9.4486459e-06  -2.2218747e-04  -5.7603385e-05   4.0972456e-05  -2.5024530e-04  -3.6161550e-06   1.4981504e-04  -8.9687237e-05  -2.0424758e-04   1.2112072e-04   1.6522390e-04  -1.8840507e-04   8.5129301e-05  -2.0552188e-04  -2.1670810e-04  -3.4033912e-04  -2.7122759e-04  -1.4779429e-04  -2.6347858e-04  -1.1074040e-04  -1.8791793e-04  -4.2085999e-04  -3.6960840e-04  -1.8606948e-04   9.8882592e-05  -8.5723608e-05   6.9080875e-04  -4.3181065e-04   5.9997299e-05
  -3.2921307e-04  -7.4152893e-05  -2.1319612e-04  -6.3131512e-05  -1.8821837e-04  -3.6472545e-04  -4.0301643e-04  -6.4125162e-04  -6.7340891e-04  -3.0949188e-04  -2.8756305e-04  -2.1203415e-04  -1.9224868e-04  -1.4121998e-04   1.0905698e-04  -2.7496630e-04  -3.0941796e-05  -4.1780007e-05  -4.6925957e-04   1.6706202e-06   3.4637135e-06   6.1184001e-05  -2.1213500e-04  -1.5630485e-05   8.3477389e-06  -2.7457534e-04  -1.1649513e-05   1.3963423e-04  -2.7545652e-04  -1.3274877e-04   3.7050646e-05   1.7126901e-04  -4.5425739e-04   8.0168402e-06  -1.5389487e-04  -3.0901676e-04  -5.2254926e-04  -2.7158528e-04  -9.5256830e-05  -3.2934378e-04  -2.6991293e-05  -1.8521686e-04  -3.2624573e-04  -2.2113111e-04  -1.8280768e-04  -1.0133710e-05  -1.1386230e-04  -1.1120221e-04  -5.9388531e-04  -6.6639500e-04
  -3.3526783e-04  -6.2724052e-05  -2.4500320e-04  -5.8869857e-05  -1.7437642e-04  -3.7280328e-04  -3.7048326e-04  -4.8779193e-04  -7.1902288e-04  -2.9440640e-04  -2.5041937e-04  -1.8335049e-04  -2.0095757e-04  -1.1640667e-04   1.0050541e-04  -2.7225024e-04  -3.7370482e-05  -3.5455116e-05  -2.6258596e-04   1.5738506e-06  -2.5141328e-05  -1.3222775e-05  -1.9160933e-04  -4.7636572e-06  -2.7321194e-05  -2.9135705e-04   2.6244688e-05   1.6898151e-04  -2.6615054e-04  -2.1773341e-04   1.0633771e-04   1.7349081e-04  -3.0518699e-04   1.9571957e-05  -8.6118605e-05  -2.5642992e-04  -4.4289621e-04  -2.5468640e-04  -7.5262578e-05  -2.3755063e-04  -1.1567398e-04  -1.7638772e-04  -3.2828658e-04  -1.0799793e-04  -1.6773920e-04  -3.8369966e-04  -1.3211110e-04  -3.7922052e-04   2.5955337e-04  -4.8755479e-04
  -4.1481407e-04  -7.1855022e-05  -2.2844513e-04  -6.8752277e-05  -1.7204160e-04  -3.0531693e-04  -3.3196030e-04  -8.1352924e-04  -7.5784483e-04  -3.0374870e-04  -2.6073190e-04  -1.9486838e-04  -2.1343028e-04  -1.9154116e-04  -7.7327531e-05  -2.6088068e-04  -1.9223287e-05  -2.5081870e-05  -1.5082539e-04   1.6706449e-06  -4.8336074e-06   1.9806026e-05  -1.6589572e-04   9.9798190e-06   6.3338222e-05  -3.2106508e-04   4.6614823e-05   1.5537777e-04  -2.0809185e-04  -1.2554615e-04   4.6852889e-05   1.6100056e-04  -3.1312343e-04   2.0010029e-05  -1.3277822e-04  -2.6024834e-04  -4.9806281e-04  -2.5231106e-04  -1.4503230e-04  -2.4978278e-04  -2.5668231e-04  -1.4620103e-04   2.2406016e-04  -6.8006187e-04  -1.3361940e-04  -1.6336955e-04  -7.1026952e-05  -3.7183359e-04   7.1804177e-05  -6.6393218e-04
  -4.0491938e-04  -6.0458562e-05  -1.9236883e-04  -4.3325206e-05  -1.5539296e-04  -2.9430029e-04  -3.2741847e-04  -4.2710546e-04  -7.4881373e-04  -2.9291472e-04  -2.4536796e-04  -1.5556051e-04  -2.1825881e-04  -1.2990125e-04   8.3730047e-06  -2.8161131e-04  -5.1222596e-05  -2.6384707e-05  -2.4231467e-04   4.8245838e-06  -1.9685142e-05  -9.3655080e-06  -1.6164979e-04  -6.1355080e-05   4.7315010e-05  -2.4337501e-04  -6.3015737e-05   1.6176546e-04  -1.8155371e-04  -2.0334490e-04   5.9269449e-05   1.5426286e-04  -2.6684193e-04   3.2072086e-05  -2.0189317e-04  -2.4754280e-04  -4.9998006e-04  -2.7435375e-04  -9.3625356e-05  -2.3689044e-04  -2.4223390e-04  -6.0813221e-05  -4.6016858e-04   3.1782562e-04  -1.7709110e-04  -2.8090517e-04  -1.2265451e-04  -2.2392480e-04  -3.2776548e-04  -1.1546317e-03
  -3.0030261e-04  -5.8023259e-05  -2.2644020e-04  -5.3682688e-05  -1.7570004e-04  -3.0336829e-04  -4.0550958e-04  -5.0024758e-04  -6.6625094e-04  -2.9139372e-04  -2.3556864e-04  -1.6210838e-04  -1.7769779e-04  -1.4922467e-04   5.7071211e-05  -3.2102651e-04  -5.2085958e-05  -4.1588741e-05  -3.4582699e-04   1.0965936e-05  -3.6379067e-06  -2.0763084e-05  -1.8009832e-04  -6.3840016e-05   5.7019231e-05  -2.2769644e-04  -4.4721495e-05   1.5456107e-04  -2.4290170e-04  -2.1508460e-04   5.2859621e-05   1.5335569e-04  -4.4308262e-04  -1.8175362e-05  -1.5213439e-04  -2.9203336e-04  -5.1886658e-04  -2.3708094e-04  -1.4023580e-04  -2.5050231e-04  -1.7880260e-04  -2.1213904e-04  -4.2282173e-04  -7.7487534e-04  -1.8513323e-04  -1.3167616e-04   1.4715506e-05  -1.0455087e-03  -4.6142368e-04   2.7475975e-04
  -3.2579899e-04  -5.7394547e-05  -1.7505756e-04  -7.2114562e-05  -1.5528384e-04  -2.9870137e-04  -3.2080288e-04  -5.5529847e-04  -6.4396905e-04  -2.9801601e-04  -2.4408505e-04  -1.5794503e-04  -2.0153179e-04  -1.4382250e-04   2.5554917e-05  -2.2747340e-04  -6.9603113e-05  -3.9308274e-05  -3.4073222e-04   1.3448934e-05   4.8268048e-06   3.5856727e-05  -1.6885286e-04  -1.0111640e-05  -1.7401522e-05  -2.6656437e-04  -1.2287519e-04   1.3967647e-04  -1.0244607e-04  -1.3202279e-04   6.3830936e-05   1.2489512e-04  -3.3835744e-04  -1.5071463e-05  -2.0484682e-04  -2.8605992e-04  -3.9288355e-04  -2.6128010e-04  -1.8058403e-04  -2.3886014e-04  -2.5986833e-04  -1.1504955e-04   2.5553213e-04  -1.7388834e-04  -1.8014721e-04  -2.2525288e-04  -3.0520514e-06   2.9895574e-04   1.8930525e-05  -3.8049810e-04
  -2.8901407e-04  -4.5610162e-05  -2.1608158e-04  -6.0251692e-05  -1.2982583e-04  -3.1532467e-04  -3.9661292e-04  -3.7282330e-04  -6.0127303e-04  -2.7441696e-04  -2.1413842e-04  -1.2683173e-04  -1.7615188e-04  -9.9451230e-05  -3.9483035e-05  -2.1670441e-04  -8.1070655e-05  -4.4787408e-05  -3.3104516e-04   1.8993669e-05  -1.0533812e-05   3.1230913e-05  -1.0001974e-04   1.4818284e-05   9.7085458e-06  -1.9944076e-04  -3.0252908e-05   1.4960597e-04  -1.9570343e-04  -1.8929360e-04   1.1019560e-05   1.5823336e-04  -4.7629772e-04  -4.1644700e-05  -1.7074683e-04  -2.9408940e-04  -4.5901799e-04  -2.5782292e-04  -1.6698505e-04  -3.0862237e-04  -1.6264239e-04  -3.8185426e-05  -2.8691697e-04  -6.6330761e-04  -1.3949146e-04  -7.5650285e-05  -1.9635268e-05  -4.4894061e-04  -4.0494508e-04  -5.8122171e-04
  -2.1407614e-04  -4.8607031e-05  -1.6912373e-04  -6.7526773e-05  -1.2062586e-04  -2.7869659e-04  -3.3353121e-04  -5.9163530e-04  -7.1347342e-04  -2.7477386e-04  -2.1777819e-04  -1.3208625e-04  -1.6866442e-04  -1.9533439e-04   5.9334572e-05  -2.2451725e-04  -8.8468863e-05  -4.5140358e-05  -3.0102226e-04   1.3077462e-05  -1.6776519e-07   5.9629776e-05  -2.1494302e-04  -6.2716252e-05  -6.1838609e-06  -2.8003298e-04  -8.2867693e-05   1.3947567e-04  -6.6703310e-06  -1.6150565e-04   1.5269365e-05   1.2869088e-04  -3.2743107e-04  -1.9977659e-05  -1.6563652e-04  -2.2930148e-04  -2.9468274e-04  -2.5318610e-04  -1.3984434e-04  -3.9232452e-04  -5.1173076e-05  -7.5701770e-05  -7.2002251e-05  -2.7019816e-04  -1.8125518e-04  -2.4784438e-04   1.6446842e-05  -3.5380031e-04   8.0073034e-05  -2.4488926e-04
  -2.4904800e-04  -4.3292053e-05  -1.6927121e-04  -5.4399243e-05  -1.1881426e-04  -3.0960835e-04  -3.4041092e-04  -5.6333560e-04  -5.5183028e-04  -2.4781263e-04  -1.9019861e-04  -9.8984536e-05  -1.8579351e-04  -6.3538668e-05   3.3514592e-05  -2.4618168e-04  -8.7352848e-05  -4.4056156e-05  -2.6900339e-04   1.8722958e-05  -1.1412484e-05   8.4109734e-06  -9.3564217e-05  -6.6999113e-05  -3.7019232e-05  -2.1310512e-04  -4.5755536e-05   1.5234604e-04  -1.7998951e-04  -1.7801802e-04   5.0464943e-05   9.9853118e-05  -2.7176132e-04  -8.6888704e-06  -1.7600232e-04  -2.3990784e-04  -3.3491716e-04  -2.8666930e-04  -1.8832376e-04  -2.5974930e-04  -1.8045199e-04  -1.9224508e-04  -7.5174239e-04  -6.2360719e-04  -2.0613630e-04  -1.4569584e-04   7.3788389e-05   7.0641557e-04  -3.4421039e-04  -7.4784696e-04
  -2.7835625e-04  -4.4247445e-05  -1.5860525e-04  -4.1377909e-05  -1.3154357e-04  -3.1853680e-04  -3.2628258e-04  -6.2710774e-04  -6.2091596e-04  -2.5205512e-04  -2.0234406e-04  -1.0355680e-04  -1.6527282e-04  -1.3602927e-04  -7.4352829e-05  -2.4806202e-04  -9.1939997e-05  -3.9302548e-05  -1.9843280e-04   4.6826390e-06   4.2791808e-06   3.7953454e-05  -1.7546570e-04  -1.6416443e-05  -6.5015092e-06  -2.7528490e-04  -1.2750698e-04   1.3970271e-04  -1.2976096e-04  -1.6887617e-04   2.9878158e-05   1.1150890e-04  -7.0833550e-05  -2.1167833e-05  -1.7606042e-04  -1.4063882e-04  -2.5908294e-04  -2.3508574e-04  -1.4479778e-04  -2.8466288e-04  -2.3058626e-04  -9.0011737e-05  -7.8609635e-05  -4.3504155e-04  -1.6825921e-04  -1.7892708e-04  -3.5171648e-05  -8.7308552e-04  -6.0092082e-04  -7.9201319e-04
  -2.2086326e-04  -4.0568480e-05  -1.6668363e-04  -4.8230726e-05  -1.0962815e-04  -2.7035165e-04  -2.9726655e-04  -2.9956995e-04  -4.7576553e-04  -2.4755677e-04  -1.9863207e-04  -7.4771793e-05  -1.9548478e-04  -2.0452113e-04   3.6476009e-05  -2.0799163e-04  -1.0737547e-04  -4.7636062e-05  -2.8393549e-04   1.9082494e-05  -7.5736461e-06   3.3291806e-05  -2.1163507e-04  -1.7561779e-05  -1.0664979e-05  -2.5151309e-04  -9.5700198e-05   1.2375368e-04  -1.5071922e-04  -1.5772556e-04   1.6680166e-05   1.0766173e-04  -2.2537592e-04  -6.9752214e-06  -1.8767422e-04  -2.1956192e-04  -4.5208243e-04  -2.7402252e-04  -2.0202990e-04  -2.3690499e-04  -5.4266475e-05  -4.8067766e-05  -3.7247859e-04  -3.1174367e-04  -1.5511057e-04  -4.0136263e-04  -9.1699876e-05   3.6812041e-04  -2.6961911e-04  -8.5413957e-04
  -2.6401487e-04  -3.7964448e-05  -1.7394901e-04  -6.1090737e-05  -1.0157053e-04  -2.9907242e-04  -3.4840300e-04  -3.5139552e-04  -4.7916759e-04  -2.2827003e-04  -1.8833060e-04  -7.9357116e-05  -1.4885716e-04  -1.4053450e-04  -1.5889622e-05  -2.8583975e-04  -1.0684590e-04  -3.9863735e-05  -1.6845454e-04   1.2348996e-05   6.4139085e-06   1.0450224e-04  -2.2347542e-04  -1.2829472e-04   1.5102828e-05  -2.7957076e-04  -9.5512129e-05   1.4184492e-04  -2.5241470e-04  -1.5956769e-04   1.8061581e-06   8.6242326e-05  -3.0979785e-04  -4.4248602e-05  -1.7093380e-04  -2.1080233e-04  -5.9746281e-04  -2.4667670e-04  -1.4164711e-04  -1.7778187e-04  -2.2944133e-04  -1.0908061e-04  -4.7816505e-04  -5.2444357e-04  -1.4016058e-04  -3.6109606e-04   6.3274601e-05   2.6408784e-04  -2.3122018e-04  -7.8925746e-04
  -2.8225506e-04  -3.8817161e-05  -1.3720694e-04  -4.0139817e-05  -1.1154106e-04  -2.9222394e-04  -2.8201161e-04  -5.2619627e-04  -4.9688702e-04  -2.2281750e-04  -1.9354689e-04  -7.3349613e-05  -1.6449203e-04  -1.6623522e-04  -2.8498262e-05  -2.0658992e-04  -1.2694691e-04  -2.1109066e-05  -2.7089080e-04   3.9912229e-06   2.2064469e-05   3.9917810e-05  -1.3470043e-04  -7.2325907e-05  -2.8203167e-05  -2.7500166e-04  -4.7753765e-05   1.3985510e-04  -1.3299534e-04  -1.6731619e-04   4.1198142e-05   1.1333035e-04  -3.5876286e-04  -1.0996078e-05  -1.4204193e-04  -1.9982866e-04  -3.8054172e-04  -2.7516499e-04  -1.1287026e-04  -3.0798401e-04  -2.3279780e-04  -5.8657322e-05   7.8654239e-07  -1.1198855e-03  -1.2665590e-04  -7.1779235e-05  -4.8363236e-06  -5.5512931e-04  -9.8341288e-06  -1.5510207e-04
  -2.0963367e-04  -3.4973564e-05  -1.6139145e-04  -3.7072015e-05  -9.9444158e-05  -3.6756627e-04  -3.3903125e-04  -4.3901318e-04  -4.7337334e-04  -2.0698695e-04  -1.7605633e-04  -5.4029158e-05  -1.9739680e-04  -1.3477133e-04   5.3030348e-05  -2.6141820e-04  -1.1800264e-04  -2.6998470e-05  -3.5009420e-04   6.8840122e-06   8.8180068e-06   4.1996293e-05  -1.9965408e-04  -9.8012359e-05   2.0047024e-05  -2.5944953e-04   4.1662352e-06   1.3597037e-04  -2.0142733e-04  -2.0586804e-04   3.2710948e-05   1.3928313e-04  -1.9857695e-04   1.2446858e-05  -1.4675010e-04  -2.5059664e-04  -5.0679262e-04  -2.4528478e-04  -1.0077890e-04  -3.4049677e-04  -8.6999149e-05  -3.3322096e-05  -7.9070928e-04  -4.0397004e-04  -1.5524641e-04  -2.4789572e-04   3.2567936e-05  -4.2201023e-04  -4.0497509e-04  -5.5859273e-04
  -2.2708192e-04  -3.4956909e-05  -1.5730892e-04  -4.8153222e-05  -9.6094518e-05  -2.9745692e-04  -3.3277800e-04  -5.5910979e-04  -4.7956817e-04  -2.1906928e-04  -2.0137757e-04  -7.1750284e-05  -1.5905093e-04  -1.7175871e-04   1.0063242e-04  -2.6096852e-04  -1.0109395e-04  -1.9464806e-05  -2.3285337e-04  -2.6211981e-05   1.1993845e-05   8.2452076e-05  -1.9468660e-04  -7.9873578e-05   5.9088088e-06  -2.5183213e-04  -6.0621300e-05   1.6622001e-04  -7.4244395e-05  -2.3467247e-04   1.0360904e-05   1.2705447e-04  -5.2680367e-05   1.6971730e-05  -1.8167413e-04  -2.1669468e-04  -3.8739099e-04  -2.5805694e-04  -1.9113942e-04  -3.1567409e-04  -1.3756294e-04  -5.9829574e-05   4.6063113e-04  -2.3944763e-04  -1.8718537e-04  -1.9533644e-04   3.4768105e-05   3.3256490e-04  -3.4146113e-04  -7.4529200e-04
  -2.6520534e-04  -4.2641681e-05  -1.5869786e-04  -6.0275328e-05  -8.7906192e-05  -3.0008404e-04  -2.9128496e-04  -2.7994133e-04  -4.3385365e-04  -2.1441086e-04  -1.9814762e-04  -7.0693481e-05  -1.9811663e-04  -1.7444772e-04   1.8493485e-05  -2.2158357e-04  -1.0210208e-04  -2.5612639e-05  -1.8765892e-04  -4.8259022e-05  -1.2394019e-05   1.7015350e-06  -2.1374221e-04  -1.2799371e-04   1.9836851e-05  -2.4390133e-04  -1.1393508e-04   1.4900921e-04  -2.4041923e-04  -2.3615523e-04   1.2100173e-05   1.0727442e-04  -3.7578866e-04  -1.4941703e-05  -1.7560783e-04  -2.7383314e-04  -3.6055871e-04  -2.5046751e-04  -1.3849849e-04  -2.9766548e-04  -1.9950482e-04  -1.1415137e-04   2.0309952e-04  -9.4609935e-04  -1.9520968e-04  -8.6638298e-05  -1.7129010e-04  -1.4170315e-04  -8.3188206e-04  -5.0277577e-04
  -1.6759000e-04  -4.2442614e-05  -1.7199785e-04  -5.6488720e-05  -9.8729506e-05  -3.1847143e-04  -3.3309663e-04  -4.9784762e-04  -5.4810307e-04  -2.1943920e-04  -2.2268304e-04  -8.2650367e-05  -1.5845768e-04  -1.4133149e-04   1.8781242e-05  -2.7322758e-04  -1.1848589e-04  -3.6959886e-05  -2.5540567e-04  -5.1750911e-05   6.2547647e-06   5.9323247e-05  -1.9793604e-04  -7.4384392e-05   2.4824096e-06  -3.3110986e-04  -2.6213223e-05   1.4712397e-04  -1.4497702e-05  -1.7345147e-04   5.0496119e-06   8.7537141e-05  -3.0865328e-04  -1.6316344e-05  -1.7199702e-04  -3.2921080e-04  -3.6586175e-04  -2.0290788e-04  -1.9195357e-04  -2.3075847e-04  -2.0942606e-04  -5.1603940e-05  -1.6919448e-04  -2.2301737e-04  -2.1630083e-04  -3.1837769e-04  -2.2434198e-05   2.0824066e-04  -2.1677480e-04   5.9180404e-04
  -2.1389969e-04  -4.3433978e-05  -1.4607594e-04  -5.2433621e-05  -8.2301871e-05  -2.4673803e-04  -2.5315108e-04  -4.3831157e-04  -4.5952181e-04  -2.1612382e-04  -2.3614563e-04  -7.3298332e-05  -2.0894394e-04  -1.8802827e-04   5.7819839e-06  -2.4622888e-04  -1.1485094e-04  -3.0199613e-05  -1.5954982e-04  -6.8977846e-05  -1.4554605e-05   3.1854121e-05  -1.7850069e-04  -9.8650373e-05   3.3286371e-05  -2.8532150e-04  -6.3432970e-05   1.4954842e-04  -2.4727031e-04  -2.2622538e-04  -2.4439878e-05   8.8397443e-05  -2.3932925e-04   1.2337431e-05  -2.0071500e-04  -2.1137523e-04  -4.6920247e-04  -2.5940317e-04  -1.8576549e-04  -2.9324493e-04  -1.1670814e-04  -1.2854008e-04  -1.1231496e-03  -5.2699784e-04  -1.2902509e-04  -3.4993872e-04  -1.2884458e-04  -1.7876919e-04  -1.9618866e-04  -5.8084587e-04
  -1.8919128e-04  -4.3970380e-05  -1.7825875e-04  -7.4185846e-05  -8.7396758e-05  -3.4376004e-04  -3.0991403e-04  -1.2238436e-04  -4.7076575e-04  -2.1605624e-04  -2.3906813e-04  -7.5517448e-05  -1.6979550e-04  -1.5856387e-04   7.2409573e-05  -2.4274045e-04  -1.1058630e-04  -4.2998352e-05  -2.7446618e-04  -7.6182987e-05  -1.0920385e-05   4.8240930e-05  -1.2417418e-04  -9.8315999e-05  -1.1287862e-05  -2.1909850e-04  -7.8659679e-05   1.1506620e-04  -1.7639851e-04  -1.6046780e-04   8.0083146e-06   1.0554885e-04  -4.3120334e-04   4.0681371e-06  -2.1758433e-04  -1.7081818e-04  -5.3290272e-04  -2.2011097e-04  -2.1359828e-04  -3.2530638e-04  -2.1332405e-04  -1.2690805e-04   5.1176327e-04  -8.0900319e-04  -1.6718010e-04  -2.3159778e-04  -1.4964129e-04   5.9111213e-04  -7.0839748e-04  -4.2875479e-05
  -1.2534826e-04  -4.6611593e-05  -1.6226614e-04  -7.4636853e-05  -6.4815948e-05  -3.1310739e-04  -3.4996998e-04  -2.8029151e-04  -5.4645655e-04  -2.2190985e-04  -2.5255739e-04  -8.5610474e-05  -1.9976289e-04  -1.7769438e-04  -2.4712319e-05  -1.6827803e-04  -1.3810175e-04  -3.2861200e-05  -3.6722430e-04  -8.3884603e-05  -1.4749766e-06   3.0818010e-05  -1.8596153e-04  -1.7143013e-04  -5.3199401e-05  -3.3723039e-04  -1.2452863e-04   1.2746043e-04  -1.0150260e-04  -1.6108730e-04  -1.6682290e-05   5.2054795e-05  -2.7248007e-04  -7.7270866e-05  -2.0448321e-04  -1.7227599e-04  -3.3281077e-04  -1.9100425e-04  -3.3266121e-04  -2.5084944e-04  -3.0274250e-04  -7.4318836e-05   3.0641415e-04  -8.7937973e-05  -1.4137088e-04  -2.1694074e-04  -1.1425504e-04  -4.1236804e-04  -4.7658544e-04   9.5295851e-05
  -2.6514829e-04  -4.2233762e-05  -1.4744303e-04  -7.2601841e-05  -7.0007802e-05  -3.8488681e-04  -3.4208989e-04  -2.9671701e-04  -5.4646179e-04  -2.0532944e-04  -2.2320816e-04  -4.1218977e-05  -1.8231172e-04  -2.4184721e-04   1.0652314e-04  -2.1284851e-04  -1.5320894e-04  -4.5345780e-05  -3.2903734e-04  -8.5695749e-05  -1.2180141e-05  -3.1785185e-05  -2.3703973e-04  -9.3786577e-05   1.5481202e-05  -2.9826982e-04  -1.3599859e-04   1.4297551e-04  -2.7117311e-04  -1.5745676e-04  -7.2345450e-05   4.8958380e-05  -1.7496206e-04  -6.9426605e-05  -1.6323244e-04  -1.2185377e-04  -3.6242939e-04  -2.3590591e-04  -2.2798190e-04  -2.5991921e-04  -1.6469884e-04  -1.8011448e-04   1.1524616e-06  -3.9082640e-04  -1.6789175e-04   5.1716295e-05  -2.2621120e-05  -8.4160332e-04  -8.2155940e-04   4.5498525e-04
  -1.6786643e-04  -4.4197095e-05  -1.8327619e-04  -7.7855861e-05  -6.7077141e-05  -3.5159697e-04  -3.3824943e-04  -3.5988836e-04  -5.3917011e-04  -2.0976327e-04  -2.3402176e-04  -3.5439774e-05  -2.1191494e-04  -2.3027547e-04  -2.3554177e-05  -2.3190025e-04  -1.7614072e-04  -5.2127798e-05  -3.0872226e-04  -9.0660440e-05  -3.5087164e-06   5.4950575e-05  -1.7132066e-04  -9.4198724e-05  -5.4170945e-05  -3.8797315e-04  -3.4023513e-05   1.1638236e-04  -1.2887950e-04  -2.0227350e-04  -5.5333679e-05   7.3576652e-05  -2.8637459e-04  -4.5299868e-05  -2.4344491e-04  -1.7525637e-04  -3.8060834e-04  -2.5228388e-04  -1.2553354e-04  -2.7275211e-04  -4.0597246e-05  -8.6267522e-05  -7.3940645e-04  -5.1685720e-04  -1.9083805e-04  -3.8448977e-04  -4.2114327e-05  -1.2469902e-03   1.2666942e-04   5.1548093e-04
  -1.7317348e-04  -4.0622272e-05  -1.3099777e-04  -6.3432301e-05  -9.0321584e-05  -3.3569970e-04  -3.2878673e-04  -4.4395158e-04  -5.1950512e-04  -2.0076388e-04  -2.1124659e-04  -1.3834980e-06  -1.8793749e-04  -2.5816888e-04  -8.1576676e-05  -2.5968146e-04  -1.8793975e-04  -3.5144771e-05  -5.2006001e-04  -1.0888602e-04  -2.9471179e-05  -1.2253980e-05  -2.7301890e-04  -1.9398278e-04  -1.1956973e-04  -3.0004617e-04  -2.1047740e-04   1.2908436e-04  -3.7006321e-04  -2.1395506e-04  -1.1736929e-04   7.7651304e-05  -1.6918271e-04  -1.1024764e-04  -1.7540623e-04  -1.8325861e-04  -5.2657072e-04  -2.5793238e-04  -2.1750422e-04  -3.6914865e-04  -2.6133261e-04  -4.7498528e-05  -1.4149881e-04   1.3824497e-04  -2.3820177e-04  -2.0364381e-04  -3.3922846e-05   5.8091991e-04  -3.6570139e-04   7.1153644e-04
  -1.9535911e-04  -4.2349482e-05  -1.8340991e-04  -6.1178500e-05  -8.2136547e-05  -3.7566753e-04  -3.4666550e-04  -4.0957495e-04  -6.0368294e-04  -2.0105450e-04  -2.1983433e-04  -2.3519338e-05  -1.8359460e-04  -2.8216938e-04   6.0924584e-05  -2.3334488e-04  -1.6158441e-04  -3.4690245e-05  -4.1425164e-04  -1.1828177e-04  -9.4081497e-06  -6.1868523e-06  -1.9024441e-04  -1.1805492e-04   1.3419021e-05  -2.9492535e-04  -3.0521085e-04   1.3047637e-04  -7.7185337e-05  -1.7183711e-04  -8.0342237e-05   9.7084914e-05  -1.7133712e-04  -1.2498096e-05  -2.4706050e-04  -2.2003611e-04  -4.5175388e-04  -2.4262542e-04  -2.9885635e-04  -2.9061225e-04  -1.8233537e-05  -1.5129615e-04  -2.8160532e-04  -6.3166360e-04  -2.2206341e-04  -4.9199176e-04   4.7710055e-05  -4.5167099e-04   5.9577549e-04   2.2330755e-04
  -2.4149359e-04  -4.6299276e-05  -1.4724203e-04  -7.3037307e-05  -7.7080193e-05  -3.0672332e-04  -3.3744524e-04  -2.6327712e-04  -4.8911665e-04  -2.0994751e-04  -2.3460525e-04  -2.2874541e-05  -1.9869633e-04  -1.6488360e-04  -4.0400282e-05  -2.1071969e-04  -1.4337956e-04  -1.6707590e-05  -4.8397444e-04  -1.3615578e-04  -2.3984305e-05   3.2441176e-06  -1.5920056e-04  -1.4527587e-04  -1.2933123e-05  -2.8650271e-04  -1.2486200e-04   1.3431207e-04  -1.8880810e-04  -2.5235803e-04  -7.3758973e-05   7.8872428e-05  -2.9146293e-04  -2.7558841e-05  -2.1524975e-04  -2.8846442e-04  -5.1616668e-04  -2.5661814e-04  -2.0124960e-04  -2.9869992e-04  -1.3719421e-04  -8.6161817e-05  -4.7813787e-04  -7.4907177e-04  -2.5833206e-04  -3.5719556e-04   1.7004586e-05  -1.0921565e-04  -2.6214332e-04  -2.4694271e-04
  -1.7156245e-04  -4.5388166e-05  -1.5308605e-04  -7.9137986e-05  -9.7843331e-05  -4.3857782e-04  -3.5721133e-04  -5.2446959e-04  -5.0671224e-04  -2.0854161e-04  -2.3507416e-04  -5.2973181e-05  -1.9110893e-04  -2.3532193e-04  -1.2314330e-05  -2.8301033e-04  -1.2016844e-04  -7.1626882e-06  -6.1054068e-04  -1.2659263e-04  -2.7221953e-05  -4.5811353e-06  -1.9611479e-04  -1.6347259e-04  -4.9703143e-05  -3.9490600e-04   1.1348520e-05   1.4457673e-04  -1.7563070e-04  -1.9159896e-04  -3.9836348e-05   8.8721514e-05  -2.7526071e-04  -6.3642998e-05  -1.4258098e-04  -2.1864420e-04  -4.6193993e-04  -2.8734273e-04  -1.8413739e-04  -3.5156473e-04  -2.3571993e-04  -3.2180615e-05  -2.5109723e-04  -3.6956189e-04  -1.9437882e-04  -3.8658973e-04   2.2054875e-05  -3.9702895e-04  -2.1261770e-04   4.5910463e-04
  -2.2452680e-04  -5.4974593e-05  -1.5644466e-04  -7.6070057e-05  -6.8394278e-05  -4.0458108e-04  -3.6626688e-04  -4.3890270e-04  -6.8620493e-04  -2.1507748e-04  -2.6646454e-04  -7.8297053e-05  -1.8330793e-04  -1.9926739e-04   5.4891869e-05  -2.0825828e-04  -1.3062029e-04  -1.6648721e-05  -3.8833680e-04  -1.2551043e-04  -2.5965341e-05   1.0497975e-05  -2.8322233e-04  -1.2343032e-04  -1.6038266e-05  -3.7687557e-04   3.2548047e-05   1.5041849e-04   4.7432539e-05  -1.6798965e-04  -6.4568136e-05   9.4937430e-05  -3.7710476e-04  -3.1868043e-05  -2.4774554e-04  -2.9452742e-04  -3.9823353e-04  -2.9626326e-04  -1.9515715e-04  -2.4704367e-04  -2.2458527e-04  -1.6375093e-04  -1.5110816e-04  -1.6814147e-04  -2.8387547e-04  -2.3204983e-04  -4.3922319e-05   1.6427587e-04  -2.0142045e-04   4.5759315e-04
  -2.8201210e-04  -5.0875995e-05  -1.4390991e-04  -9.7421624e-05  -8.9113746e-05  -3.2634643e-04  -3.4667959e-04  -5.6780520e-04  -4.7088697e-04  -1.9756024e-04  -2.3422317e-04  -5.2781463e-05  -2.0081189e-04  -1.9870391e-04   5.6563462e-05  -2.2225332e-04  -1.2585566e-04  -2.3117189e-05  -3.6264033e-04  -1.2264347e-04  -3.5518220e-05  -1.1851049e-05  -2.2980984e-04  -1.9211280e-04  -4.8470038e-06  -2.7830381e-04  -1.3904145e-04   1.2880303e-04   4.8370799e-05  -2.1639498e-04  -1.0139542e-04   6.1179249e-05  -2.2296677e-04  -7.1223047e-05  -2.1088112e-04  -2.8968972e-04  -5.5878796e-04  -2.5936199e-04  -3.0744655e-04  -2.8288277e-04  -2.9638864e-04  -9.4566996e-05  -4.3689896e-04  -9.9236867e-04  -2.7063061e-04  -2.8379983e-04  -4.4078402e-05   6.1492238e-04  -1.9839549e-04  -1.0687683e-04
  -2.5380601e-04  -5.4021006e-05  -1.3811523e-04  -9.0189911e-05  -8.3485938e-05  -3.7134651e-04  -3.7107425e-04  -3.5140268e-04  -5.8210542e-04  -2.0076150e-04  -2.2201368e-04  -3.8600901e-05  -1.9824351e-04  -2.4432305e-04  -8.5503361e-06  -2.1399336e-04  -1.4759960e-04  -2.4857254e-05  -4.1503445e-04  -1.2321932e-04  -1.8031569e-05   6.6232469e-06  -1.7273589e-04  -1.4506947e-04  -6.4258624e-05  -3.3769550e-04  -6.5471300e-05   1.1999963e-04  -1.8115730e-04  -1.8041876e-04  -1.5158770e-05   7.5308519e-05  -2.1657022e-04  -9.0245485e-05  -1.8447608e-04  -1.5569157e-04  -5.1020645e-04  -2.2835375e-04  -2.1869299e-04  -2.5937558e-04  -5.1429364e-05  -1.8517163e-05  -2.1598590e-04  -7.1846572e-04  -2.6223835e-04  -2.1131465e-04   1.5663851e-05   1.0634030e-04  -6.2922999e-04  -1.1597549e-03
  -2.1380441e-04  -4.8979538e-05  -1.4761458e-04  -7.8039520e-05  -6.3842650e-05  -4.0389202e-04  -2.9717316e-04  -3.5210542e-04  -5.7793944e-04  -1.8268975e-04  -2.0716641e-04  -1.5722318e-05  -1.8124768e-04  -2.2211293e-04  -1.1412812e-05  -1.8952713e-04  -1.5737966e-04  -1.9376086e-05  -2.0411343e-04  -1.2956785e-04  -2.1891219e-05  -5.4377408e-05  -1.9182499e-04  -1.2825972e-04   4.1806910e-05  -3.1041179e-04  -7.8816112e-05   1.1280079e-04  -2.3528427e-04  -1.9888450e-04  -8.4874744e-05   7.3813993e-05  -3.3868622e-04  -9.1586109e-05  -2.1784990e-04  -2.2908031e-04  -5.6747854e-04  -2.5447118e-04  -2.2574715e-04  -3.2929642e-04  -2.8866166e-04  -1.0820517e-04   1.2489922e-04  -9.4750710e-04  -2.3597092e-04  -3.9072611e-04  -5.1389441e-05  -3.7708916e-04  -4.0103067e-04  -3.8018826e-04
  -1.7873870e-04  -4.6815698e-05  -1.2830971e-04  -8.4708852e-05  -8.0929181e-05  -3.5506001e-04  -3.4238334e-04  -4.2898231e-04  -6.4597448e-04  -1.8020463e-04  -2.1432240e-04  -5.8787919e-06  -1.8854476e-04  -2.4146702e-04   2.6691503e-05  -1.8044452e-04  -1.6789099e-04  -3.5418248e-05  -3.0942311e-04  -1.2863551e-04  -1.7267186e-05   4.0811043e-05  -2.2889889e-04  -3.6857331e-05   4.8436024e-05  -2.6792378e-04  -5.1779167e-05   1.4237310e-04  -1.2635598e-04  -1.7821349e-04  -8.3331259e-05   8.6994776e-05  -3.0194074e-04  -3.5116769e-05  -2.5442464e-04  -2.7434190e-04  -3.4904986e-04  -2.4726024e-04  -2.3318006e-04  -1.3200086e-04  -3.3416742e-04  -1.4075851e-04  -5.6216231e-04  -5.3488580e-04  -2.5889752e-04  -4.0656529e-04   9.3150600e-05  -2.3266111e-05  -2.1740480e-04  -4.4411744e-04
  -2.0663378e-04  -4.6062181e-05  -1.6130203e-04  -8.2684302e-05  -8.8414286e-05  -3.7205711e-04  -3.3357710e-04  -3.6409387e-04  -5.5722869e-04  -1.7071704e-04  -2.1319037e-04  -1.4730807e-05  -1.9088099e-04  -2.5033497e-04   3.5104335e-05  -1.6728739e-04  -1.6146616e-04  -7.0933675e-06  -2.5134342e-04  -1.0605012e-04  -1.0475388e-05   3.0992443e-05  -2.5420927e-04  -7.8230536e-05  -2.0166979e-05  -2.8235724e-04  -8.4015817e-05   1.2762856e-04  -1.9751278e-04  -1.5899990e-04  -5.0947772e-05   8.0075370e-05  -3.3707454e-04  -3.5076751e-05  -1.9079330e-04  -1.4038941e-04  -4.1361735e-04  -2.6267770e-04  -2.3558494e-04  -2.3518619e-04  -1.2576130e-04  -2.6891485e-05  -5.5744062e-04   4.7191563e-05  -2.7166583e-04  -3.9393856e-04   5.9441045e-05  -1.0103872e-03  -1.5673450e-04  -5.1850820e-04
  -1.7725375e-04  -3.6366688e-05  -1.3635014e-04  -8.6597756e-05  -5.5027369e-05  -3.6862143e-04  -3.7177533e-04  -5.0420617e-04  -4.7674362e-04  -1.4694397e-04  -1.7961918e-04   2.4385172e-05  -2.0061432e-04  -2.0327784e-04  -5.9680438e-06  -2.1796329e-04  -1.6875502e-04  -1.3760655e-05  -2.6962379e-04  -1.0195184e-04  -1.2866608e-05   9.4991719e-06  -2.0100852e-04  -7.7257580e-05  -3.9410410e-05  -2.5420674e-04  -1.0194512e-04   1.3518640e-04   2.9491157e-05  -2.1504586e-04  -8.6380620e-05   7.7439072e-05  -4.4586300e-04  -5.3511169e-05  -1.8174046e-04  -8.3045146e-05  -5.6896539e-04  -2.5486326e-04  -2.6893496e-04  -3.0666607e-04  -3.0237352e-04  -3.8324160e-05  -3.9144309e-04  -3.9013146e-04  -3.5240885e-04  -5.1979290e-04   4.3388631e-05   2.0760529e-04  -3.6913450e-04  -1.4410560e-03
  -5.6844103e-05  -4.2025185e-05  -1.5116225e-04  -6.2166502e-05  -6.6904584e-05  -3.1190552e-04  -3.7127614e-04  -4.7925630e-04  -4.8912293e-04  -1.4967688e-04  -1.7809717e-04   2.4987819e-05  -1.8478076e-04  -1.8596131e-04  -1.2618513e-04  -2.0340853e-04  -1.6297819e-04  -1.7373570e-05  -4.5796839e-04  -1.0617850e-04   4.2260872e-06  -1.0089832e-05  -2.2216931e-04  -2.2963144e-05   1.8556027e-05  -2.2391732e-04  -1.3007774e-04   1.3995580e-04  -3.4856453e-04  -1.8720482e-04  -5.2937499e-05   9.9840807e-05  -2.8969449e-04  -1.3154925e-05  -2.4855215e-04  -2.7439417e-04  -5.1077979e-04  -2.5314864e-04  -1.3317773e-04  -2.7004714e-04  -3.3644162e-04  -5.6689998e-05  -7.7975006e-04  -1.0114792e-03  -2.7910579e-04  -1.3186896e-04   5.8037822e-05  -3.7237385e-04  -6.9259800e-04   1.2682198e-05
  -8.2469982e-05  -2.5224754e-05  -1.4179082e-04  -7.2598457e-05  -7.5336742e-05  -3.4614126e-04  -3.3368613e-04  -3.6183844e-04  -6.0752436e-04  -1.3742146e-04  -1.5704562e-04   5.2181193e-05  -1.8222682e-04  -2.0016629e-04   9.5607584e-07  -2.5067411e-04  -1.8628359e-04  -1.6589896e-05  -2.9016339e-04  -1.0991175e-04  -1.4651650e-05   2.3268380e-05  -1.6118394e-04  -1.5355862e-04  -3.3234475e-05  -2.5156836e-04  -1.1198120e-04   1.3352676e-04  -1.6374336e-04  -2.3770473e-04  -9.7268457e-05   7.2314717e-05  -3.3314771e-04  -2.3493985e-05  -1.1704689e-04  -1.7836141e-04  -3.1267520e-04  -2.9407575e-04  -1.9204784e-04  -1.6455354e-04  -1.4457903e-04  -1.3349965e-04  -6.1510393e-04  -2.3054921e-04  -2.4598156e-04  -2.0306146e-04  -4.3161599e-06  -6.2507042e-04  -5.7118811e-04   3.0247110e-04
  -2.5794553e-04  -3.2208896e-05  -1.2845334e-04  -6.7989124e-05  -3.4885892e-05  -3.3174903e-04  -3.2362866e-04  -3.5747633e-04  -5.7795201e-04  -1.5178084e-04  -1.8849885e-04   1.4891963e-05  -1.8221271e-04  -2.2130560e-04   2.4013514e-05  -1.9522554e-04  -1.6864658e-04  -2.4070121e-05  -3.2843027e-04  -1.0301224e-04  -5.4595321e-06   4.8888702e-05  -2.1625958e-04  -5.2438088e-05   2.0046441e-06  -2.4719647e-04  -1.3293845e-04   1.3480448e-04  -2.7475291e-04  -1.7851703e-04  -8.2433857e-05   4.2635169e-05  -3.8796131e-04  -2.6638563e-05  -1.9566338e-04  -2.2756799e-04  -3.8200390e-04  -2.3161780e-04  -1.9383260e-04  -1.6667832e-04  -4.1241301e-04  -6.2818828e-05   8.0263824e-05   1.3776265e-04  -3.5840535e-04  -1.5480489e-04   6.1353326e-06  -1.1610051e-03  -2.6959737e-04  -1.1534309e-04
  -1.1592362e-04  -2.6299022e-05  -1.2541916e-04  -6.6629633e-05  -3.6070440e-05  -3.5336442e-04  -3.3651886e-04  -3.7102509e-04  -5.2880746e-04  -1.4588691e-04  -1.7462210e-04   5.2752330e-05  -1.7745724e-04  -3.1706324e-04  -1.1193170e-04  -2.0472654e-04  -2.2387739e-04  -4.4118497e-05  -2.6497181e-04  -1.0478071e-04  -1.5774596e-05  -6.0143047e-06  -2.2390181e-04  -1.0684508e-04  -1.7404212e-05  -2.2752596e-04  -2.2046852e-04   1.4214159e-04  -1.1406469e-04  -2.2926972e-04  -1.4187685e-04   5.0191080e-05  -2.3700940e-04  -6.0109811e-05  -2.5451495e-04  -1.4130837e-04  -4.5826350e-04  -2.3958353e-04  -2.1955324e-04  -3.9977056e-04  -1.3754220e-04  -6.1661856e-05  -6.1688438e-04  -7.3162088e-04  -2.4226306e-04  -2.0738706e-04   1.5144778e-05  -1.3549803e-04  -1.7418795e-04  -3.6313894e-04
  -1.4471839e-04  -2.6538777e-05  -1.6489350e-04  -7.3088966e-05  -4.4965964e-05  -3.5645522e-04  -3.2623138e-04  -3.6136751e-04  -4.6998897e-04  -1.4695671e-04  -1.9149964e-04   3.6347144e-05  -1.6320772e-04  -2.3238492e-04  -2.9137269e-05  -2.4487131e-04  -2.0202211e-04  -2.6098927e-05  -3.7889197e-04  -1.1383981e-04  -6.7334076e-06   1.2487473e-05  -1.4975261e-04  -2.7553348e-05   7.0192968e-05  -2.3994659e-04  -1.3881104e-04   1.3948376e-04  -2.0953198e-04  -2.2088540e-04  -7.4340605e-05   2.7313496e-05  -2.9200545e-04  -4.4932814e-05  -2.1393652e-04  -1.6614952e-04  -6.9296669e-04  -3.1413208e-04  -1.9823815e-04  -2.5610870e-04  -1.0249507e-04  -1.2158923e-04  -1.9578448e-04  -4.7801822e-04  -3.1659447e-04  -2.8111454e-04   1.0209566e-04   2.8485543e-04  -5.1563443e-04  -2.4067785e-05
  -9.5070944e-05  -2.8179556e-05  -1.5643316e-04  -6.9697431e-05  -5.4876607e-05  -3.3806093e-04  -3.4248724e-04  -3.5464120e-04  -6.1145413e-04  -1.5726135e-04  -2.0747643e-04   1.5842910e-05  -1.9151773e-04  -2.2030190e-04  -8.4656174e-05  -2.0241452e-04  -1.8527510e-04  -2.9878211e-05  -3.9569571e-04  -1.1080950e-04  -2.4688006e-05  -4.0670816e-06  -2.2251323e-04  -1.1273429e-05   4.2528345e-06  -2.8998664e-04  -1.4308683e-04   1.3120493e-04   9.3287767e-05  -2.1130411e-04  -1.2296248e-04   4.7138376e-05  -4.2445751e-04  -1.0851570e-04  -1.8615874e-04  -2.9250374e-04  -4.1424949e-04  -2.7645653e-04  -2.2814221e-04  -2.7332723e-04  -1.2839952e-04  -1.6043558e-04  -2.1712019e-04  -9.1553992e-04  -3.1765926e-04  -3.2021274e-04   8.0063968e-05   2.5065697e-04  -1.6129849e-04  -5.3695450e-04
  -5.1523020e-05  -3.1711083e-05  -1.2923100e-04  -6.3887164e-05  -3.8974489e-05  -3.4446237e-04  -3.5106650e-04  -3.6045685e-04  -5.9672841e-04  -1.4955779e-04  -2.0352527e-04   1.1427182e-06  -1.6735611e-04  -2.0054413e-04  -1.7550277e-05  -1.9348576e-04  -1.6306543e-04  -3.7784204e-05  -4.0142317e-04  -1.1647334e-04  -1.4138224e-05   2.0778294e-05  -2.2930789e-04  -4.5798064e-05  -6.8001762e-05  -2.3169807e-04  -8.8374312e-05   1.2004933e-04  -2.2300599e-04  -1.9778013e-04  -8.0388963e-05   6.0882972e-05  -2.9749807e-04  -7.5910291e-05  -2.2029987e-04  -1.9392518e-04  -5.2123907e-04  -2.5027635e-04  -2.3790683e-04  -2.4761344e-04  -2.5048430e-04  -1.3915601e-04  -3.6020143e-04  -6.2442145e-05  -2.7068151e-04  -1.7082292e-04  -2.5273734e-05  -1.1123443e-03  -6.2083338e-05   9.2038690e-06
  -9.1898932e-05  -2.9960418e-05  -1.3801083e-04  -7.8344783e-05  -4.6874935e-05  -2.6206169e-04  -3.7398061e-04  -2.7659952e-04  -4.9195427e-04  -1.5609992e-04  -2.2464662e-04  -4.0181931e-05  -1.6429184e-04  -1.8160348e-04   6.9341154e-06  -2.0190893e-04  -1.2679183e-04  -4.2462187e-05  -4.5902081e-04  -1.2878751e-04  -1.2003755e-05  -1.9403853e-05  -2.2069593e-04  -3.7276735e-05  -2.6865571e-05  -2.9987286e-04  -5.0545350e-05   1.1640069e-04  -6.5014974e-05  -1.7021729e-04  -7.7995966e-05   7.2678558e-05  -2.1479074e-04  -5.2168329e-05  -2.2519640e-04  -2.0415957e-04  -4.4629353e-04  -2.5469036e-04  -1.8314061e-04  -1.7722110e-04  -9.7670054e-05  -1.1656298e-04  -2.4157987e-04   8.9236077e-05  -2.4840605e-04  -3.4511529e-04   1.1066888e-04  -3.8356913e-04  -7.2462356e-04   5.9791353e-07
  -1.4463901e-04  -2.9404169e-05  -1.4696464e-04  -7.7755351e-05  -5.3329637e-05  -2.6845370e-04  -2.7525696e-04  -3.7079182e-04  -4.6285248e-04  -1.4109079e-04  -2.0371703e-04  -1.9638463e-05  -1.8049702e-04  -1.8160064e-04  -1.8143246e-05  -1.6877132e-04  -1.3616799e-04  -3.9456376e-05  -4.6218163e-04  -1.2505399e-04  -2.8613775e-05  -4.7458980e-05  -1.4763030e-04   6.8772438e-06  -4.8223104e-05  -2.4717348e-04  -1.5240960e-04   1.1909566e-04  -4.6196219e-05  -1.8524332e-04  -9.3343799e-05   3.7807284e-05  -1.8466516e-04  -7.4462696e-05  -1.8891750e-04  -2.0863494e-04  -3.2493332e-04  -2.2244551e-04  -2.7490509e-04  -1.9279815e-04  -2.4658957e-04  -7.0163172e-05  -2.7291584e-04  -4.8455884e-04  -3.0502779e-04  -2.5927642e-04  -6.6954577e-05   2.2395963e-05  -6.7610596e-04  -7.3048938e-04
  -1.6376506e-04  -3.7077516e-05  -1.3059020e-04  -7.8619378e-05  -4.1363812e-05  -2.8829096e-04  -3.4266361e-04  -4.6718618e-04  -5.2592851e-04  -1.4828349e-04  -2.1124542e-04  -2.4061528e-05  -1.4645983e-04  -2.0703145e-04  -8.2363949e-05  -1.8796808e-04  -1.4037309e-04  -3.6235575e-05  -4.5173860e-04  -1.2324065e-04  -1.3606619e-05  -1.9497544e-05  -2.3056645e-04  -8.6747241e-05  -7.5092321e-06  -3.4586206e-04  -6.0822011e-05   1.1788119e-04   8.0064121e-05  -1.6930068e-04  -8.2592116e-05   4.5050750e-05  -3.5867689e-04  -5.7291265e-05  -2.0760475e-04  -1.8667936e-04  -4.7297461e-04  -2.0414373e-04  -2.1832710e-04  -2.3949296e-04  -2.0287003e-04  -1.4103318e-04  -3.4019619e-04  -7.2346604e-04  -2.7702079e-04  -3.5759946e-05   3.3715129e-05  -5.2533997e-04  -4.7883205e-04  -6.5920845e-04
  -1.6026934e-04  -3.6984969e-05  -1.2369882e-04  -5.7309015e-05  -4.0268074e-05  -2.9068606e-04  -3.1793819e-04  -5.1542744e-04  -4.7642508e-04  -1.4222467e-04  -1.9077200e-04   7.2224379e-06  -1.8790105e-04  -1.9794506e-04  -4.2884956e-05  -1.8160229e-04  -1.3208756e-04  -2.7490731e-05  -4.1970413e-04  -1.3877073e-04  -3.4188182e-05   1.0806289e-05  -1.8694726e-04  -3.3220269e-05  -5.7209729e-07  -2.5799143e-04  -1.3998136e-04   1.1634325e-04  -2.9336129e-04  -1.5714382e-04  -4.5468307e-05   1.8250064e-05  -4.2673555e-04  -5.9136964e-06  -2.0593652e-04  -1.8918129e-04  -5.2620989e-04  -2.4890908e-04  -2.4802081e-04  -2.1886722e-04  -2.7917474e-04  -6.0792459e-05  -2.7692114e-04  -3.6948064e-04  -3.4380765e-04  -3.6957869e-04   5.6384801e-05  -3.5763072e-04  -3.6883715e-04  -3.2043009e-04
  -4.8234073e-05  -2.7541180e-05  -1.3615705e-04  -8.0217513e-05  -4.2447358e-05  -3.2804045e-04  -3.3869667e-04  -4.1725431e-04  -5.0947058e-04  -1.4027146e-04  -1.8972378e-04   3.1800987e-06  -1.5483279e-04  -1.9099878e-04   2.9257119e-05  -1.5142416e-04  -1.4793407e-04  -3.6690413e-05  -2.6142425e-04  -1.2816284e-04  -2.6137928e-05  -1.1641459e-06  -1.9446903e-04  -5.0866536e-05   3.1887608e-05  -3.4351187e-04  -1.7275280e-04   1.3353335e-04  -2.5048581e-04  -1.4070615e-04  -6.1440856e-05   2.3287132e-05  -5.0531409e-04  -1.1939788e-04  -1.9247533e-04  -2.0728687e-04  -1.8685183e-04  -1.8608141e-04  -2.8108957e-04  -3.4091398e-04  -1.2930406e-04  -1.3948437e-04  -1.8590140e-04  -8.4565557e-04  -3.0879155e-04  -2.6465728e-04   1.8895655e-05   4.3455089e-04  -3.4158083e-04  -5.3937593e-04
  -5.5239077e-05  -3.0697836e-05  -1.0190529e-04  -6.3075880e-05  -4.4304175e-05  -3.0678901e-04  -2.9698617e-04  -1.7825811e-04  -5.7017169e-04  -1.5007940e-04  -1.9874820e-04   2.8079265e-05  -1.5848714e-04  -2.3857046e-04   8.7945598e-05  -1.1987983e-04  -1.6039435e-04  -4.9446870e-05  -3.4707459e-04  -1.1474871e-04  -3.3708387e-05  -2.2650456e-05  -2.5323301e-04  -8.3360334e-05  -5.6833705e-05  -2.6011682e-04  -1.1836882e-04   1.1722514e-04  -1.3122607e-04  -1.5722107e-04  -3.0861764e-05   1.3648068e-05  -5.2264263e-04  -8.5358530e-05  -1.5853450e-04  -1.8745975e-04  -3.4102684e-04  -2.0867208e-04  -2.2969261e-04  -3.1681484e-04  -7.5833086e-05  -9.6397831e-05  -1.5892783e-04  -2.3641350e-04  -2.4485786e-04  -3.5059589e-04   4.7025322e-05  -3.0060645e-04  -4.6485299e-04  -9.0163457e-04
   2.5266013e-07  -2.2233080e-05  -1.4278744e-04  -6.7157482e-05  -4.2504034e-05  -2.3676283e-04  -3.2922821e-04  -4.2027837e-04  -4.8998423e-04  -1.4120663e-04  -1.6990981e-04   1.9624205e-05  -1.7612911e-04  -2.1033462e-04  -5.1063023e-05  -1.9985421e-04  -1.4137513e-04  -4.2795487e-05  -3.9057859e-04  -1.2153762e-04  -3.8860191e-05  -3.1294989e-05  -1.4808489e-04  -6.4902226e-05  -4.7253023e-05  -2.7918222e-04  -3.7588085e-05   1.1525758e-04  -8.7853790e-05  -1.8311144e-04  -7.4049312e-05   1.2589459e-05  -2.4031561e-04  -4.6638539e-05  -2.5502028e-04  -1.1611758e-04  -3.5406274e-04  -2.2376531e-04  -1.7185020e-04  -1.8874858e-05  -1.1853284e-04  -1.3014635e-04  -3.1980660e-04  -8.7614509e-04  -3.0064289e-04  -3.8723231e-04   2.9266916e-05  -2.4026651e-05  -1.1324960e-04  -2.0434603e-04
  -3.0872954e-05  -2.4980425e-05  -1.1855881e-04  -6.7053399e-05  -5.9790971e-05  -2.0987679e-04  -3.1727957e-04  -3.4472332e-04  -4.7011999e-04  -1.4727782e-04  -1.7560059e-04  -6.7945025e-06  -1.2975198e-04  -2.4023984e-04  -6.0118044e-05  -1.8922160e-04  -1.3894726e-04  -4.6886576e-05  -4.0063629e-04  -1.2047292e-04  -2.4165667e-05  -1.9096891e-05  -1.5131093e-04  -4.6896421e-05  -2.0772450e-05  -2.6917399e-04  -4.1125262e-05   1.0928356e-04  -4.3884851e-04  -1.0909790e-04   1.4971186e-05   1.3757451e-05  -3.6787303e-04  -5.9437920e-05  -2.0542320e-04  -1.8752525e-04  -2.9650514e-04  -2.4340347e-04  -2.4046945e-04  -1.9785490e-04  -2.6994824e-04  -1.1033583e-04  -8.7032007e-04  -7.4842438e-04  -2.7976156e-04  -4.3348107e-04   1.2969594e-04   1.0294207e-04  -4.7998983e-04  -1.6197551e-03
  -1.2181621e-04  -1.8345305e-05  -1.2669576e-04  -7.6216900e-05  -6.5750923e-05  -3.2434461e-04  -3.9267802e-04  -5.0990656e-04  -3.3331569e-04  -1.4506678e-04  -1.6762038e-04   1.2592713e-05  -1.3620718e-04  -2.2117257e-04  -4.2173855e-05  -2.2326277e-04  -1.5202572e-04  -5.6789217e-05  -2.2579174e-04  -1.1996457e-04  -4.2961594e-05  -4.6226673e-05  -1.8501807e-04  -4.1945554e-05  -1.2657255e-05  -3.1670806e-04  -1.7344792e-04   1.0787013e-04   1.9635337e-04  -1.5782528e-04  -3.5518045e-05   3.9454815e-05  -4.1510738e-04  -2.9039003e-05  -1.4806446e-04  -1.3202794e-04  -4.5016632e-04  -2.3281408e-04  -2.6241524e-04  -2.1443484e-04  -9.8192773e-05  -1.6783774e-04  -5.0033204e-04  -4.5506936e-04  -2.8363083e-04  -3.6319200e-04   6.7598839e-06  -5.5313074e-05  -7.0636446e-04   3.6275349e-04
  -9.0562571e-05  -3.0061616e-05  -1.2179837e-04  -7.1158902e-05  -4.9691600e-05  -2.6714546e-04  -3.6803019e-04  -1.9244746e-04  -5.0706719e-04  -1.5520498e-04  -1.7310491e-04  -1.7588147e-05  -1.5245980e-04  -1.5373006e-04   9.9229037e-06  -1.8043179e-04  -1.2566325e-04  -6.1116640e-05  -4.5441109e-04  -1.0938620e-04  -2.8328228e-05  -5.9481015e-05  -2.1261856e-04  -2.8816447e-05  -9.9740020e-05  -2.4977585e-04  -1.0119620e-04   1.0926622e-04  -8.4856445e-05  -1.8993556e-04  -3.3938970e-05   4.7376394e-05  -4.8574538e-04  -4.7769223e-05  -2.0416349e-04  -1.8787532e-04  -4.3388555e-04  -1.8120976e-04  -2.6185531e-04  -3.1874300e-04  -5.9938684e-05  -1.0380453e-04  -5.4029142e-06  -2.9211299e-04  -3.6819992e-04  -3.3246411e-04   6.6183173e-05  -7.4598292e-04  -3.4116450e-04   7.8321341e-04
   6.4680594e-06  -2.1689981e-05  -1.3890392e-04  -7.1033108e-05  -6.3962587e-05  -3.3163521e-04  -3.8854609e-04  -6.1194226e-04  -3.8289436e-04  -1.5563682e-04  -1.5835608e-04  -2.9621091e-05  -1.4290216e-04  -1.4147424e-04  -1.8792511e-05  -2.7383928e-04  -1.1531884e-04  -4.7314810e-05  -4.2252371e-04  -1.2315906e-04  -5.3287524e-05  -1.0197372e-04  -1.9327003e-04  -9.7467055e-05  -6.9169626e-05  -2.1834744e-04  -4.1560594e-05   1.1730457e-04  -1.4155588e-05  -2.2956099e-04  -6.7385605e-05   4.6885565e-05  -4.0029979e-04   3.2569296e-05  -2.1843860e-04  -1.3553574e-04  -2.9302892e-04  -2.3471023e-04  -2.1479590e-04  -2.7170847e-04  -1.5217272e-04  -1.2483609e-04  -2.7178047e-04  -1.6499146e-04  -3.4510097e-04  -4.7555039e-04  -8.5366246e-06   2.6159818e-04  -4.3694384e-04  -1.8688523e-04
   5.0347051e-05  -2.2472430e-05  -1.2606340e-04  -7.9249738e-05  -6.4947533e-05  -2.7394356e-04  -3.9056811e-04  -3.3510066e-04  -4.8096769e-04  -1.6454034e-04  -1.7770223e-04  -4.6054723e-05  -1.2682301e-04  -1.7096438e-04   2.2662043e-07  -1.8111368e-04  -9.6378812e-05  -3.8415998e-05  -4.3809271e-04  -1.3361711e-04  -5.8518937e-05  -6.8943918e-05  -1.2947861e-04  -9.3237861e-05  -1.8322013e-05  -2.9589317e-04  -4.5038840e-05   9.6585762e-05  -1.1867521e-04  -1.5363074e-04  -2.6134032e-05   7.3350464e-05  -3.8768508e-04  -2.2864901e-05  -1.4865624e-04  -7.9224956e-05  -4.4576076e-04  -2.4994442e-04  -2.4540472e-04  -1.2293573e-04  -3.9219862e-04  -1.7095194e-04  -2.8547482e-04  -5.0289521e-04  -3.2765543e-04  -2.3683329e-04   5.1485968e-05  -4.1186134e-04  -8.0748857e-04   2.1273371e-04
  -1.6662845e-05  -2.1573082e-05  -1.2268533e-04  -6.3970612e-05  -4.3892196e-05  -1.8636028e-04  -3.7401251e-04  -4.9548957e-04  -4.8637117e-04  -1.6288132e-04  -1.8361659e-04  -3.5541681e-05  -1.4863467e-04  -2.1039754e-04  -4.6405228e-05  -1.7583556e-04  -1.1464816e-04  -3.2455213e-05  -4.6345952e-04  -1.1473508e-04  -8.2280196e-05  -8.9164176e-05  -9.8480377e-05  -5.8376248e-05   7.2094244e-06  -2.7912963e-04  -1.6974978e-05   1.1189269e-04  -1.1600368e-04  -1.6665034e-04   4.8880189e-05   6.0867194e-05  -2.9781670e-04  -3.1836971e-05  -2.4085373e-04  -1.9759504e-04  -2.4791813e-04  -2.7168469e-04  -2.1256728e-04  -1.4642722e-04  -2.1982921e-04  -1.4394552e-04  -1.1065153e-04  -4.5854153e-04  -3.3449603e-04  -3.4786743e-04   7.4169351e-05   2.2868470e-04  -7.4341189e-04  -2.4659905e-04
  -3.5277480e-05  -1.1257465e-05  -1.6019157e-04  -8.3243780e-05  -4.7094250e-05  -2.7743648e-04  -3.9060359e-04  -4.9438165e-04  -5.0679181e-04  -1.5945053e-04  -1.6643194e-04  -2.0602387e-05  -1.3736234e-04  -1.6515621e-04   4.7970767e-05  -2.2011819e-04  -1.2933447e-04  -3.6516783e-05  -4.4776194e-04  -1.2194923e-04  -7.4359705e-05  -7.8256795e-05  -1.6899512e-04   4.5787649e-05  -6.5962093e-05  -3.0561132e-04  -9.2546732e-05   1.1980004e-04  -1.0836584e-04  -1.3221095e-04  -3.0821833e-05   3.5634144e-05  -2.7733666e-04  -2.0018048e-05  -1.9510843e-04  -1.5147234e-04  -3.3270236e-04  -2.6549990e-04  -2.3389855e-04  -3.3807263e-04  -1.4562096e-04  -9.9035533e-05  -1.6078976e-04  -3.8690984e-04  -2.6408909e-04  -2.8213783e-04   1.1988309e-04   7.5336569e-04  -7.4489968e-04   4.6472074e-04
   5.3637723e-05  -1.5947078e-05  -1.1584895e-04  -7.2572504e-05  -4.5242265e-05  -1.6428316e-04  -3.6014686e-04  -4.4244959e-04  -4.2258410e-04  -1.7105034e-04  -1.9567306e-04  -4.6506597e-05  -1.2937649e-04  -2.0165691e-04   3.0474946e-05  -1.6673011e-04  -1.2572235e-04  -3.5699915e-05  -3.7008192e-04  -1.3898793e-04  -6.8113040e-05  -5.1746127e-05  -1.7301644e-04  -5.5097687e-05  -5.6939803e-05  -2.7464092e-04  -8.9476751e-05   9.9955243e-05  -4.0822288e-06  -1.5439466e-04  -2.5792606e-05   5.5315548e-05  -4.2156613e-04  -5.0438008e-05  -1.8266066e-04  -1.8160064e-04  -6.1706989e-04  -2.6143080e-04  -2.9748891e-04  -1.8496513e-04  -1.0888746e-04  -6.5189626e-05  -2.1156255e-05  -8.8466820e-04  -3.5098687e-04  -2.4090080e-04   5.7356367e-05  -4.0558929e-04  -5.1198638e-04  -6.0473987e-05
   3.1773867e-05  -1.3054090e-05  -1.4965732e-04  -6.9189664e-05  -5.3697473e-05  -2.6292368e-04  -3.9941937e-04  -2.4381361e-04  -3.7683672e-04  -1.5150757e-04  -1.6422581e-04  -2.6876423e-05  -1.3916712e-04  -1.8115088e-04  -1.6997768e-05  -1.9972038e-04  -1.2975458e-04  -4.4975091e-05  -4.5038800e-04  -1.1161898e-04  -7.8309567e-05  -1.1044192e-04  -1.4973662e-04  -4.1844196e-05  -9.8496719e-05  -2.8115485e-04   1.7980276e-05   1.2233036e-04  -1.2189843e-04  -1.6182248e-04  -5.6899016e-06   2.8561000e-05  -3.5976901e-04  -2.0593643e-05  -1.8955165e-04  -1.5539088e-04  -3.6608716e-04  -2.1978267e-04  -2.2535531e-04  -2.2607308e-04  -3.8428203e-05  -8.4879903e-05  -3.2955586e-04  -1.0187230e-03  -3.4504104e-04  -5.5151264e-04   5.0959832e-05  -7.3361461e-04  -9.1880118e-04  -9.4456575e-04
  -3.0032379e-05  -1.5049260e-05  -1.3614037e-04  -7.9958445e-05  -7.4144242e-05  -2.1165477e-04  -4.2176063e-04  -2.4123730e-04  -4.5273907e-04  -1.5934539e-04  -1.8476722e-04  -3.6200974e-05  -1.1824556e-04  -1.6589359e-04  -5.7443860e-05  -1.9694011e-04  -1.3757021e-04  -5.2046718e-05  -3.6214315e-04  -1.0773345e-04  -6.6185334e-05  -7.8122219e-05  -9.3023395e-05  -3.7539680e-06  -3.0414194e-05  -1.9975212e-04  -1.1138175e-04   8.9031622e-05   9.9033750e-05  -1.4980638e-04  -4.3863714e-05   7.3523543e-06  -5.3960225e-04   1.7719174e-06  -2.1634548e-04  -1.0369829e-04  -3.0533798e-04  -2.4097880e-04  -2.0798526e-04  -3.0824784e-04  -3.0367752e-05  -1.0079524e-04  -6.3213141e-05  -2.6782177e-04  -3.5730732e-04  -2.4110719e-04   8.0265854e-05  -3.7455483e-04  -3.0438372e-04  -1.5292375e-04
   9.2984497e-05  -1.3602043e-05  -1.3746292e-04  -6.7280416e-05  -5.8394664e-05  -1.9846956e-04  -3.7372261e-04  -6.8417656e-05  -3.6215677e-04  -1.4425446e-04  -1.6757006e-04   2.3456319e-05  -1.2060228e-04  -1.8353375e-04  -9.0236645e-05  -2.0907394e-04  -1.8099693e-04  -5.5801240e-05  -5.0579052e-04  -1.0103741e-04  -8.6110369e-05  -6.2282634e-05  -1.2507690e-04  -1.0284152e-04  -5.7929741e-05  -2.2146991e-04  -1.3127897e-04   1.0584755e-04  -5.3981003e-05  -1.3564884e-04  -9.2727503e-05   4.7709868e-06  -2.0944426e-04  -7.9964986e-05  -1.4314886e-04  -1.5009877e-04  -3.3820650e-04  -2.3676280e-04  -1.9403927e-04  -1.6796164e-04  -3.6342125e-04  -1.1013480e-05  -6.1639521e-04  -9.0312166e-04  -2.6243515e-04  -3.8315495e-04  -1.0306178e-05  -1.0440355e-03  -2.8868808e-04  -5.1734381e-04
  -2.1431071e-05  -2.4866840e-06  -1.3117098e-04  -5.1936171e-05  -4.6355781e-05  -1.9573011e-04  -3.9307401e-04  -2.1277819e-04  -4.6584429e-04  -1.3762043e-04  -1.5245634e-04   1.8168914e-05  -1.2111302e-04  -1.5029609e-04  -2.7969520e-05  -1.8453762e-04  -1.8200670e-04  -5.5047243e-05  -3.0706514e-04  -9.5444768e-05  -6.4692969e-05  -5.8576799e-05  -7.6721990e-05  -4.4201919e-05  -1.2759734e-05  -1.7538189e-04  -1.0078748e-04   8.7715125e-05  -8.7640881e-05  -1.6172623e-04  -6.7867237e-05   2.6362164e-05  -2.6521235e-04  -9.8014425e-05  -2.2690356e-04  -9.4193194e-05  -3.1822574e-04  -2.5451725e-04  -1.9591936e-04  -3.2977012e-04  -2.9636885e-04  -7.3525771e-05  -1.1948086e-04  -5.5391465e-05  -3.0183687e-04  -3.6213483e-04   2.6351461e-05   1.7157188e-04  -2.3944766e-04  -3.3011795e-05
  -1.2076739e-04  -2.0620170e-07  -1.4302805e-04  -5.3031075e-05  -5.3257165e-05  -2.1127942e-04  -3.8183510e-04  -4.5692240e-04  -5.3591252e-04  -1.3689614e-04  -1.7162200e-04   2.0450258e-05  -1.0180764e-04  -2.0431058e-04   1.5096243e-05  -1.6257344e-04  -2.0492522e-04  -4.6848625e-05  -2.9949797e-04  -7.4555937e-05  -5.3103318e-05  -6.2593848e-05   2.3777560e-05  -7.2602152e-06  -1.0198505e-04  -2.1530206e-04  -1.0470548e-04   6.8369984e-05  -1.1436886e-04  -1.1147574e-04  -1.1360566e-04  -1.3363282e-05  -4.0607477e-04  -6.4780766e-06  -2.7778404e-04  -1.2813056e-04  -3.0163146e-04  -2.2128804e-04  -2.4399952e-04  -2.4756757e-04  -2.4475093e-04  -9.9587458e-05   5.7099303e-05  -1.2652382e-04  -3.2793990e-04  -2.2106733e-04   9.0740352e-05  -1.1029467e-04  -7.6300505e-04  -4.4248957e-04
   1.1545069e-04   9.6831000e-06  -1.8881597e-04  -4.5056335e-05  -2.0663683e-05  -1.5487726e-04  -3.4107902e-04  -2.2774177e-04  -3.7814651e-04  -1.1988878e-04  -1.4403790e-04   5.1594627e-05  -8.7738881e-05  -1.3930065e-04  -1.2236810e-04  -1.8916567e-04  -2.2364898e-04  -5.7503152e-05  -4.6425607e-04  -6.4333821e-05  -4.6595236e-05  -6.6207132e-05  -6.1303639e-05   3.7224875e-06  -7.5981261e-05  -2.2931646e-04  -6.6172848e-05   8.3684463e-05  -3.1336735e-05  -1.4938010e-04  -1.1458095e-04   1.1621120e-05  -5.3983537e-04  -3.9191955e-06  -1.8693449e-04  -8.3117584e-06  -4.2459354e-04  -2.2829307e-04  -1.3119598e-04  -3.0590396e-04  -1.4606207e-04  -1.1880926e-04  -3.9147219e-04  -2.2856884e-04  -3.0169211e-04  -1.7019492e-04   8.4335501e-05   7.3988148e-04  -3.0179744e-04  -7.5536454e-04
   1.0614646e-04   8.1726048e-06  -1.5711595e-04  -5.6927143e-05  -3.6465844e-05  -1.3187768e-04  -3.4009104e-04  -2.5679951e-04  -4.0500544e-04  -1.2741744e-04  -1.6280897e-04   3.8688333e-05  -9.5538649e-05  -1.4872348e-04  -4.5891487e-05  -2.5058334e-04  -2.2496692e-04  -4.3182026e-05  -4.4967592e-04  -4.9836319e-05  -3.4287372e-05  -4.7679987e-06  -7.5306263e-05  -1.5980822e-05  -6.0706574e-05  -2.2413542e-04  -1.3611386e-04   9.2732829e-05  -1.2598655e-04  -1.1720794e-04  -7.3532749e-05   4.1763942e-06  -3.0386145e-04  -2.3379716e-06  -2.9148764e-04  -5.7786783e-05  -4.3392362e-04  -2.5885040e-04  -2.0329453e-04  -2.2592966e-04  -1.8550424e-04  -4.9574861e-05  -4.5533621e-04  -7.0896710e-04  -3.1368705e-04  -1.3930768e-04   9.5287382e-05  -1.2476700e-04  -4.2153327e-04  -6.6894235e-04
   1.2085746e-04   1.7256121e-05  -1.4640155e-04  -4.1179661e-05  -4.1954656e-05  -1.5658404e-04  -3.5786527e-04  -2.6095301e-04  -3.8099880e-04  -1.1158245e-04  -1.5300287e-04   4.9106442e-05  -9.7614087e-05  -1.9509938e-04  -1.0547122e-04  -1.5652546e-04  -2.0012037e-04  -3.2540655e-05  -2.9815131e-04  -5.6796209e-05  -5.0832597e-05  -9.1347947e-06  -6.6660083e-05  -3.4457848e-05  -5.3299103e-05  -1.8184783e-04  -9.2701150e-05   7.2979434e-05  -5.2545234e-05  -1.1750431e-04  -6.1870647e-05   1.8006131e-05  -3.7950379e-04  -6.4124331e-05  -1.9469322e-04  -1.0481910e-04  -3.5848972e-04  -3.1474320e-04  -2.7133655e-04  -1.2993488e-04  -1.6933848e-04  -1.0931732e-04  -5.2846142e-04  -5.5203383e-04  -3.1269010e-04  -3.4687429e-04   5.0551280e-05  -9.6754055e-04  -5.1663333e-04   2.5076064e-04
   8.6247652e-05   1.4750038e-05  -1.5836385e-04  -5.1342602e-05  -3.3806518e-05  -1.4132750e-04  -3.0418081e-04  -3.0352589e-05  -3.6730664e-04  -1.1928046e-04  -1.6764003e-04   1.3638391e-05  -7.8851634e-05  -2.0036194e-04   3.0049248e-05  -1.3719771e-04  -1.8334039e-04  -2.7374725e-05  -3.8102613e-04  -3.8675549e-05  -3.3032200e-05  -7.6427401e-05  -8.1793834e-05  -4.7113812e-05  -4.8597907e-05  -2.2190926e-04  -4.5120840e-05   9.1929272e-05  -2.9946241e-04  -1.0660444e-04  -1.3700244e-04   9.7894517e-06  -4.1956198e-04  -3.7777401e-05  -2.5100799e-04  -1.3026714e-04  -3.2035654e-04  -2.6290814e-04  -2.4574035e-04  -2.3731399e-04  -2.0045823e-04  -1.0274810e-04  -7.4999675e-04  -3.1528526e-04  -2.7681186e-04  -3.6573547e-04   7.8141340e-05  -6.6566124e-04  -5.2857271e-04  -9.3518502e-05
   3.9985131e-05   1.3728145e-05  -1.2591128e-04  -4.7205791e-05  -2.6606256e-05  -7.3059971e-05  -3.5751535e-04  -1.3504372e-04  -4.5815643e-04  -1.2834158e-04  -1.8610946e-04  -8.1922572e-06  -1.0225172e-04  -9.4950701e-05  -7.4993557e-05  -1.5239856e-04  -1.6603251e-04  -1.8596709e-05  -2.9648255e-04  -3.1507192e-05  -3.3459040e-05  -1.7986787e-05   5.5784158e-06  -5.6848348e-05   3.0013749e-05  -1.9102244e-04  -1.4458425e-04   8.3928826e-05  -1.8884872e-04  -9.1488997e-05  -5.7677982e-05   1.4176656e-05  -3.1852047e-04  -4.0984301e-05  -1.8051753e-04  -1.0324505e-04  -2.0635643e-04  -1.9621875e-04  -3.2395794e-04  -2.6626070e-04  -1.7171232e-04  -4.6729965e-05  -2.5747906e-04  -3.8425790e-04  -2.8893590e-04  -1.5593813e-04   1.8762477e-04  -1.8908901e-04  -4.6234776e-04  -8.7948336e-04
   7.3544164e-05   1.6824741e-05  -1.5254701e-04  -6.4133732e-05  -4.2595144e-05  -1.0604565e-04  -2.9934238e-04  -3.0197832e-04  -3.3313269e-04  -1.1067741e-04  -1.7729442e-04  -6.8751478e-06  -7.6398195e-05  -9.6683973e-05  -9.1416492e-05  -1.6436256e-04  -1.5677264e-04  -3.5504094e-05  -2.5329887e-04  -3.4061697e-05  -2.8697699e-05  -5.9069521e-06  -3.4894860e-05  -4.2076372e-05  -4.8727110e-05  -2.4598005e-04  -7.2271461e-05   9.8296041e-05  -3.6418583e-05  -1.7938094e-04  -8.6534077e-05   3.2394906e-05  -3.1001313e-04  -3.2828906e-05  -1.9518935e-04  -9.1400994e-05  -2.7463777e-04  -3.0962631e-04  -2.4955682e-04  -3.5133670e-04  -1.3352172e-04  -7.0238973e-05   3.8102985e-04  -4.7635284e-04  -3.2692999e-04  -5.4762268e-04   1.4258821e-04   1.3779935e-04  -5.2660430e-04  -4.5577635e-05
   1.0211379e-04   1.0656113e-05  -1.0509205e-04  -4.1864034e-05  -3.9154358e-05  -1.7221976e-04  -2.8634912e-04  -5.0473341e-04  -3.1369302e-04  -1.1423675e-04  -1.8220060e-04  -2.7957123e-05  -8.7555840e-05  -1.4366691e-04   4.0846226e-06  -1.6579343e-04  -1.6631547e-04  -4.6699704e-05  -1.3417014e-04  -2.3868948e-05  -8.5533038e-06  -5.7060215e-06  -4.0368366e-05  -3.7912785e-05  -2.0921154e-06  -2.4788326e-04  -9.2576731e-05   9.7242031e-05  -3.0551404e-05  -6.5086257e-05  -1.0125153e-04  -4.9692671e-06  -2.7117989e-04  -6.9453723e-05  -2.3167454e-04  -8.2425024e-05  -3.5461778e-04  -1.8521975e-04  -2.2491092e-04  -9.1587877e-05  -2.3128258e-04  -1.9348247e-04  -8.0894929e-04   4.5421435e-05  -2.8684261e-04  -3.8828157e-04   4.7977748e-05   3.1276239e-04  -5.8336800e-04   9.7518892e-04
   1.5936058e-04   2.0062176e-05  -1.4243413e-04  -4.4604360e-05  -1.4304649e-05  -1.0590276e-04  -2.7094950e-04  -2.0821026e-04  -3.5425980e-04  -9.6087191e-05  -1.4300311e-04   1.1957691e-05  -7.5795971e-05  -1.4046159e-04  -1.9799847e-05  -1.6980041e-04  -1.9445468e-04  -4.7190464e-05  -2.1975081e-04  -2.1900634e-05  -2.2741564e-05  -1.2462178e-05   7.8435944e-05  -7.4924836e-05  -1.0916307e-05  -2.3876737e-04  -1.8455584e-04   8.2566643e-05  -9.9203426e-05  -1.1421793e-04  -9.1405120e-05  -2.0238042e-05  -4.8431370e-04  -1.6590080e-05  -1.9867510e-04  -1.1303082e-04  -2.6804497e-04  -2.1968405e-04  -2.8418953e-04  -1.8842886e-04  -3.4541114e-05  -7.3244824e-05  -4.4370815e-04  -5.6131429e-04  -3.0898908e-04  -2.3329142e-04   1.4986933e-04  -4.3292451e-04  -5.5353047e-04  -7.5869815e-04
   1.4884916e-05   1.9147528e-05  -1.0720214e-04  -4.5064568e-05  -2.6930480e-05  -7.8664343e-05  -2.4326918e-04  -5.7453446e-05  -3.8751157e-04  -9.5016367e-05  -1.4982314e-04   9.3494291e-06  -9.3045172e-05  -1.9730127e-04   4.5547886e-06  -1.4389410e-04  -2.0829846e-04  -4.5743382e-05  -1.5053884e-04  -6.4194473e-06  -3.5543819e-06  -1.7521239e-05   3.6060130e-05  -9.1877177e-05  -6.1737424e-05  -1.8348932e-04  -7.4338190e-05   8.7246684e-05  -8.0326217e-06  -1.0982133e-04  -1.0229169e-04  -1.4180146e-05  -3.2645534e-04  -6.4559164e-05  -2.1171922e-04  -1.3078906e-04  -1.8558028e-04  -2.4537891e-04  -2.3282639e-04  -1.6155007e-04  -1.5925735e-04  -3.3026572e-05  -1.0692298e-04  -1.8047006e-04  -2.8109818e-04  -1.7769898e-04   2.3089527e-04  -8.2037086e-04  -7.2728860e-04  -3.8133535e-04
   7.2937430e-05   1.9066145e-05  -1.0062924e-04  -3.7702386e-05  -1.4785505e-05  -1.2442686e-04  -2.4158154e-04  -2.1801210e-05  -3.2420515e-04  -9.6533477e-05  -1.6054434e-04   1.6226031e-05  -8.0232625e-05  -1.1818476e-04  -2.7758746e-05  -9.6543336e-05  -1.8926861e-04  -4.5193970e-05  -1.3034475e-04  -1.4296123e-05  -6.5616846e-06  -2.0687592e-05  -3.9371651e-05  -3.4450954e-05  -2.6067000e-05  -1.9738493e-04   1.6197921e-05   7.0241964e-05  -1.2430932e-05  -8.3342034e-05  -1.1816483e-04  -1.9420329e-05  -2.1349917e-04   2.7243232e-06  -1.6998123e-04  -1.1355825e-04  -3.9914472e-04  -2.1307400e-04  -2.3931095e-04  -1.9409215e-04  -1.6362651e-04  -4.0482366e-05  -1.8955278e-04  -6.2479603e-04  -2.2896750e-04  -4.9862667e-04   1.6408133e-04  -1.2066137e-03  -2.6337063e-04  -4.1722457e-04
   1.5030595e-04   2.8873821e-05  -1.0866032e-04  -2.6285303e-05  -9.1762186e-06  -2.3928085e-05  -2.7326136e-04  -1.2984607e-04  -2.4203748e-04  -7.5442076e-05  -1.3522527e-04   2.3186387e-05  -8.8002933e-05  -2.0404806e-04   5.7461812e-06  -1.4845004e-04  -1.9706626e-04  -5.7725567e-05  -2.3673747e-04  -1.3592134e-05  -8.1439885e-06  -1.6745785e-06  -3.0806186e-05  -1.3705814e-04   3.6275185e-05  -2.0834047e-04  -1.4482741e-04   6.4682710e-05   1.3611103e-04  -8.3988489e-05  -1.1919004e-04  -1.9355350e-05  -1.4393902e-04  -9.6839583e-05  -1.6056195e-04  -1.3873288e-04  -3.5294617e-04  -2.1911628e-04  -2.3544654e-04  -1.6230601e-04  -1.5981276e-04  -1.7642384e-05   1.5016638e-04  -3.2727706e-04  -2.4606974e-04  -3.1508665e-04   1.4270004e-04  -3.8694579e-04   2.2128677e-04   1.4689035e-05
   8.8808112e-05   3.0618499e-05  -1.1632658e-04  -2.9251411e-05  -1.2254422e-05  -1.1872551e-04  -2.4245687e-04  -6.5997003e-05  -2.6375471e-04  -7.4306881e-05  -1.3882738e-04   1.2560924e-05  -5.6947974e-05  -9.3053764e-05  -1.6384278e-04  -1.3866278e-04  -2.0585148e-04  -6.7992551e-05  -7.1271897e-05  -1.9102021e-05   3.9302381e-06   1.5090657e-06  -4.4741257e-05  -1.4383123e-04  -4.7044767e-05  -2.1204172e-04  -2.0828671e-04   5.4733762e-05  -5.7398225e-05  -1.0164758e-04  -1.0838039e-04   2.6469129e-06  -3.7432148e-04  -9.3371986e-05  -2.8185998e-04  -1.3255353e-04  -1.5735863e-04  -2.3668011e-04  -2.2487243e-04  -1.6316780e-04  -2.6687127e-04  -3.7084777e-05  -3.8970413e-04  -5.6650414e-04  -2.6297240e-04  -2.6271309e-04   1.5509542e-04   3.2433131e-04  -3.6998632e-04  -8.3584659e-04
   1.5925223e-04   3.6852969e-05  -7.0889102e-05  -2.5022373e-05  -1.9594588e-06  -1.0392626e-04  -1.4886298e-04  -1.2098857e-04  -1.7099036e-04  -6.4457279e-05  -1.1050783e-04   5.6870900e-05  -1.0304685e-04  -1.4779493e-04   8.0854943e-06  -1.4318169e-04  -2.2615479e-04  -6.7246438e-05  -1.9741578e-04  -1.4042431e-05  -1.7987581e-05  -1.4840435e-05  -7.6070050e-05  -1.0200989e-04  -5.5412384e-05  -2.1164052e-04  -2.0121931e-04   4.7269798e-05  -6.9176131e-05  -1.2513739e-04  -8.4940839e-05  -4.2173109e-05  -2.4907745e-04  -5.7422301e-05  -2.1592659e-04  -1.2600103e-04  -2.5874047e-04  -2.1200541e-04  -2.4928350e-04  -1.4852991e-04  -8.0222992e-05  -4.2502084e-05   2.2360822e-04  -5.2363059e-04  -2.6817989e-04  -3.0601164e-04   1.2379246e-04  -4.1507653e-04  -1.9469250e-04   7.8679947e-04
   8.3094732e-05   3.4310651e-05  -1.1088447e-04  -1.7405211e-05  -1.7282458e-05  -5.9097543e-05  -2.0391932e-04  -3.5853538e-04  -2.3019723e-04  -7.1731272e-05  -1.1386802e-04   2.3926330e-05  -9.5693264e-05  -1.5852154e-04  -1.5001388e-04  -1.6935841e-04  -2.1243059e-04  -5.9166043e-05  -1.7578209e-04  -1.5658283e-05  -2.5988545e-06  -6.9243099e-05  -1.7128896e-05  -1.5906613e-04  -4.9035301e-05  -1.7532942e-04  -1.4564277e-04   5.6454788e-05   4.6594505e-05  -1.3468013e-04  -7.3830583e-05  -5.6879330e-06  -2.2184999e-04  -3.0789575e-05  -1.9073946e-04  -5.0187453e-05  -1.4105081e-04  -2.6960394e-04  -2.6679155e-04  -6.9237154e-05  -2.4151929e-04   9.0571666e-06   1.2607547e-04  -1.2102157e-03  -2.7559898e-04  -7.5863260e-05   1.2892042e-04  -1.4270041e-05  -2.1028903e-04  -7.1616814e-04
   8.7072098e-05   3.2992655e-05  -9.2438910e-05  -6.0272723e-06   6.1520514e-06  -7.4974152e-05  -2.3730501e-04  -2.0334027e-04  -7.0393558e-05  -6.4193700e-05  -1.2055781e-04   3.1947926e-05  -8.4211613e-05  -1.8103198e-04   5.0839484e-05  -1.6074472e-04  -1.7231271e-04  -4.9244376e-05  -1.0647965e-04  -2.0393729e-05  -1.3656408e-05  -5.3317628e-05   2.6471474e-05  -1.1205299e-04  -1.1848606e-05  -1.6700602e-04  -1.3124011e-04   7.1583010e-05  -1.9034116e-04  -1.0117247e-04  -5.4490272e-05  -1.5776592e-06  -1.2604671e-04  -3.4040728e-05  -2.0711412e-04  -1.8383151e-04  -4.1691627e-04  -2.4874345e-04  -2.9081898e-04  -3.3214994e-04  -1.5916403e-04  -1.8807212e-05  -7.7638117e-04  -4.3502459e-04  -2.8250134e-04  -2.5488401e-04   1.1004550e-04   6.9194974e-04  -4.3299244e-04  -8.2783186e-04
   5.8326492e-05   3.2325970e-05  -9.8332399e-05  -9.6658105e-06   9.1146230e-06  -1.0080836e-04  -2.6406671e-04  -4.3743130e-04  -1.5445899e-04  -7.3125368e-05  -1.3714436e-04   4.0506575e-06  -9.4880546e-05  -1.2887781e-04  -7.5331416e-05  -1.3368015e-04  -1.4601936e-04  -3.4628469e-05  -2.0176699e-04  -4.0989024e-05  -9.8264927e-06  -7.4843840e-05  -1.8625258e-05  -1.3250354e-04  -2.0995785e-05  -1.8488879e-04  -4.9848095e-05   7.2676907e-05  -2.5036559e-04  -1.4851475e-04  -9.7707256e-05  -6.0365517e-07  -3.5993537e-04  -6.4548236e-05  -1.8945998e-04  -4.7616199e-05  -2.0426187e-04  -2.3958187e-04  -2.3032966e-04  -2.3266353e-04  -1.4626489e-04  -3.4221081e-05  -4.1376340e-04  -8.0383080e-04  -2.2124994e-04  -2.9990080e-04   1.0104426e-04  -6.2785155e-05  -1.8413817e-04  -4.9769002e-05
   5.5877150e-05   2.8153863e-05  -8.3497842e-05  -1.7361092e-05   1.7354145e-05  -1.4380724e-04  -2.0327410e-04   1.1724322e-05  -1.5271798e-04  -8.6711290e-05  -1.4888970e-04   3.5712762e-06  -1.1451362e-04  -1.6104631e-04  -4.4278175e-05  -1.4482593e-04  -1.4455616e-04  -3.5625497e-05  -1.3626514e-04  -3.3923952e-05  -1.7406417e-05  -9.0073836e-06   1.6400678e-05  -1.0504889e-04   1.6500628e-05  -1.9500498e-04  -1.9806112e-05   8.1632221e-05  -5.6749093e-05  -9.7462937e-05  -1.1456040e-04   3.0012779e-06  -1.9743700e-04  -5.0711264e-05  -2.3584586e-04  -7.3570991e-05  -3.1196722e-04  -2.3107867e-04  -1.7443455e-04  -2.5238105e-04  -1.3768180e-04  -2.3494322e-05   4.3961481e-04  -7.4116723e-04  -3.1302604e-04  -3.3595835e-04   9.9600429e-06  -3.4220234e-04  -4.4516285e-04   9.6486398e-04
   4.9820908e-05   3.6937290e-05  -6.9394009e-05  -2.7376432e-06   8.0757439e-07  -6.9111840e-05  -2.1419456e-04   1.2447781e-05  -7.4313422e-05  -7.3235657e-05  -1.2869481e-04   2.7971739e-05  -9.1338159e-05  -1.6312883e-04  -4.8988477e-06  -1.2073012e-04  -1.6605838e-04  -4.4529905e-05  -2.7661721e-04  -3.7095375e-05  -2.9130393e-05  -5.9390462e-05  -6.8049972e-05  -1.1496432e-04  -1.0759227e-04  -1.3675859e-04   1.0713295e-04   8.0561666e-05  -1.6117508e-04  -1.1674854e-04  -1.0139639e-04  -7.2749032e-07  -2.9125536e-04  -2.3652603e-05  -8.8290719e-05  -3.8937469e-05  -3.0364338e-04  -1.8594747e-04  -1.7984763e-04  -2.0357905e-04  -5.6675100e-05  -1.6451909e-04  -1.9794767e-04  -3.3223009e-04  -2.8844245e-04  -2.0616039e-04   1.4594999e-04   9.5696756e-05  -7.5358275e-04  -7.7103724e-04
   1.4799052e-04   3.4855228e-05  -1.0629564e-04  -2.7104229e-06   9.6179647e-06  -8.1009690e-05  -1.6903831e-04  -4.0250929e-04  -2.1462138e-04  -7.8322148e-05  -1.3273707e-04   2.1926320e-05  -9.9451652e-05  -1.9821628e-04  -9.0785456e-05  -9.9459714e-05  -1.8809375e-04  -5.3567848e-05  -2.0802194e-04  -1.9623496e-05  -3.3437047e-06  -7.9564234e-05  -1.7772285e-04  -6.2492640e-05  -5.5979181e-05  -9.4457799e-05  -3.0150311e-05   6.8354748e-05  -7.0510585e-05  -8.8384368e-05  -9.1773669e-05   4.0726595e-06  -4.7923884e-04   5.3180702e-06  -1.6235288e-04  -3.4786208e-05  -5.0154486e-05  -1.9546793e-04  -1.9278491e-04  -2.1386049e-04  -1.0112558e-04  -5.1815627e-05  -1.0342954e-03  -1.6903885e-04  -2.3161016e-04  -2.5839807e-04   6.7780471e-05  -5.9298193e-04  -1.3767905e-04   4.1869764e-05
   1.3886354e-04   3.9660707e-05  -8.4320862e-05   9.4227807e-06   1.7607834e-05  -1.5723374e-05  -2.5769367e-04  -1.8477975e-04  -1.8053586e-04  -7.1188362e-05  -1.1181163e-04   5.3397624e-05  -9.9491124e-05  -1.6950963e-04  -2.2867571e-05  -8.1987120e-05  -1.7962900e-04  -5.4425051e-05  -2.6684973e-04  -4.1707051e-05  -2.1654610e-05  -1.2705060e-05  -8.5572094e-05  -1.0761430e-04  -1.1093606e-04  -1.9474879e-04  -3.9969305e-05   6.3672502e-05  -7.6072945e-05  -1.0099747e-04  -9.4702045e-05  -2.1633763e-05  -4.4796351e-04  -2.6125828e-05  -1.6770164e-04  -7.2961448e-05  -4.8639721e-04  -1.7332494e-04  -2.6053636e-04  -1.1904334e-04  -2.0907109e-04  -1.1362072e-04  -2.8915450e-05  -5.5825996e-05  -2.7966185e-04  -3.8899982e-04   1.0727783e-04   5.6888261e-05  -6.3372997e-04   9.1436133e-04
   2.2591552e-04   3.3859600e-05  -8.3294406e-05  -1.5646059e-05   1.3867317e-05  -1.5850779e-05  -2.1900138e-04  -1.8401232e-04  -1.4998640e-04  -7.7094883e-05  -1.3943431e-04   1.8841609e-05  -7.1004091e-05  -9.5787371e-05   4.5853758e-06  -1.0832829e-04  -1.4569373e-04  -4.1234201e-05  -2.6769249e-04  -4.4554643e-05  -7.2914081e-06  -4.2209609e-05  -1.2876697e-04  -5.1858020e-05  -9.4878269e-06  -1.1084044e-04  -9.2644623e-05   6.3602027e-05   7.3920390e-05  -9.1069822e-05  -1.0674237e-04  -1.3144823e-05  -2.1056893e-04  -8.8772249e-05  -2.2057441e-04  -2.8336182e-05  -1.9739629e-04  -1.7962616e-04  -2.7602343e-04  -1.1103013e-04   2.0316552e-04   3.7132231e-06  -3.4236786e-04  -6.9775846e-04  -2.3520117e-04  -6.5931526e-05   4.6587949e-05  -8.6717971e-04  -3.1800804e-04  -2.5501737e-04
   1.8309304e-04   2.7664737e-05  -7.3872987e-05  -1.3180877e-05  -3.6350596e-06  -6.3089916e-05  -1.9195478e-04  -2.1653541e-04  -2.2335167e-04  -7.2822666e-05  -1.2523623e-04   4.9829803e-05  -9.4945448e-05  -1.0578502e-04  -1.8951790e-05  -8.1602113e-05  -1.6097804e-04  -7.6763143e-05  -1.8626898e-04  -4.5577432e-05  -2.8269209e-05  -2.8138691e-05  -1.0653659e-04  -1.3600121e-04  -4.7924092e-05  -1.1363552e-04  -4.5187171e-05   3.7771919e-05  -1.4468830e-04  -6.1704748e-05  -1.3078650e-04  -4.4448807e-05  -4.3596039e-04  -1.2970484e-04  -1.6938910e-04  -5.5156703e-05  -9.5540825e-05  -1.9794707e-04  -1.9562789e-04  -2.0216203e-04  -1.2922865e-04  -4.2144562e-05  -1.3171794e-04  -8.9929445e-04  -2.8272910e-04  -3.4458874e-04   1.1743712e-04   7.5105566e-04  -4.9917627e-04  -5.4941484e-04
   2.2380480e-04   3.3557328e-05  -9.9447469e-05  -1.7660701e-05   6.5076606e-06  -3.9129296e-05  -2.4146466e-04  -9.9820776e-05  -1.8730630e-04  -7.5879732e-05  -1.2817506e-04   2.8624750e-05  -8.9428526e-05  -1.7452821e-04  -1.4832562e-04  -1.3174585e-04  -1.5364081e-04  -7.5594180e-05  -2.3759034e-04  -4.3485561e-05  -3.0225885e-05  -4.6250723e-05  -1.8097195e-04  -8.1881910e-05  -1.2808171e-04  -1.7174767e-04  -1.3006722e-05   3.5269979e-05  -1.1183147e-04  -5.7030957e-05  -8.1906299e-05  -2.6165435e-05  -2.2619270e-04  -1.3638751e-04  -1.3563529e-04  -1.9181727e-05  -7.7428020e-05  -1.8726118e-04  -1.7093739e-04  -1.3324291e-04   4.8635295e-05  -4.4374192e-05  -1.1878565e-04  -5.7725259e-04  -2.7102887e-04  -3.6984682e-04   1.6813997e-04   3.6864573e-04  -2.4375580e-05   4.0078477e-04
   1.9265599e-04   2.7275652e-05  -8.7254266e-05  -3.5219880e-06   2.4660925e-05  -1.1138264e-04  -2.3287216e-04  -1.4239529e-04  -2.0942278e-04  -8.1073864e-05  -1.5938892e-04   7.2602666e-06  -1.0272956e-04  -9.8017998e-05  -7.3237949e-05  -6.2584884e-05  -1.4672415e-04  -5.9594342e-05  -2.5452435e-04  -3.4131201e-05  -3.4064997e-05  -7.3428906e-05  -1.4198202e-04  -8.0592108e-05  -7.4076579e-06  -1.1341793e-04   4.5844197e-05   5.1890362e-05  -1.7013038e-04  -4.5266141e-05  -2.5610545e-05  -6.6536406e-05  -1.9904735e-04  -3.7163605e-05  -1.3519026e-04  -5.6499717e-05  -3.1510057e-04  -1.5852493e-04  -1.7717495e-04  -5.3445565e-05  -1.4025366e-04  -6.7978697e-05  -1.9225491e-04  -2.6074282e-04  -2.4155286e-04  -1.7268005e-04   2.6786176e-05   1.3326701e-04  -3.7806449e-04   5.0319431e-05
   1.4832374e-04   3.2681335e-05  -8.7689346e-05  -1.0553460e-05  -2.0480165e-05  -1.0849843e-04  -2.3134757e-04   3.6837384e-06  -1.6610560e-04  -6.9015608e-05  -1.3574070e-04   1.6896007e-05  -8.8183886e-05  -1.4149644e-04  -3.6411246e-05  -1.4984905e-04  -1.4284712e-04  -7.4427764e-05  -2.4962524e-04  -3.5211182e-05  -2.8624827e-05  -1.0892887e-06  -7.8464996e-05  -9.5821226e-05  -3.6838206e-05  -2.0433161e-04   8.6235750e-06   4.4019907e-05  -1.7145737e-04  -8.0476777e-05  -6.6692075e-05  -3.9544324e-05  -2.1740115e-04  -9.0747053e-05  -1.5551815e-04   1.3536450e-05  -2.9490193e-04  -1.7402717e-04  -2.4688273e-04  -9.0239599e-05  -6.2327585e-05  -3.2253294e-05  -8.1915779e-05  -5.5838953e-04  -2.5387405e-04  -1.8758427e-04   2.0123666e-04  -2.1601225e-04  -2.5622535e-04  -1.0480905e-04
   1.5108770e-04   2.0372481e-05  -1.1464542e-04  -5.8097553e-06  -2.5125919e-06  -9.4147086e-05  -2.1391420e-04  -1.0342599e-04  -2.2431143e-04  -7.7336736e-05  -1.5757547e-04  -1.1482070e-05  -9.6603704e-05  -1.1269900e-04  -6.3856744e-05  -1.3773261e-04  -1.4027971e-04  -6.2066727e-05  -1.9847308e-04  -2.8861594e-05  -1.3905492e-05  -7.7750410e-05  -1.4904805e-04  -1.5440532e-04  -7.7751378e-05  -1.2959642e-04   1.6715518e-05   5.4745295e-05   3.4353467e-05  -5.2791587e-05  -2.6025731e-05  -1.3588778e-05  -3.4355995e-04  -2.9778977e-05  -1.7717677e-04  -9.7461147e-05  -1.4150592e-04  -1.6916836e-04  -1.9600852e-04  -1.3852477e-05  -1.7166845e-05  -1.7578196e-04  -7.5359734e-05  -6.3282793e-04  -2.8797812e-04  -1.8085886e-04   1.4438582e-04   8.4206497e-04  -5.5565074e-04   3.8051102e-04
   1.8516985e-05   3.0546664e-05  -1.1072661e-04   9.2936705e-07  -2.0577778e-05  -1.2641093e-04  -2.0839347e-04  -3.7640138e-04  -2.0899493e-04  -6.9987065e-05  -1.4408321e-04  -6.3533016e-06  -1.0875480e-04  -1.3174703e-04  -5.8218189e-05  -8.8854045e-05  -1.0835840e-04  -4.0239258e-05  -2.3340652e-04  -3.9428978e-05  -2.5257008e-05  -1.0282976e-04  -1.0992734e-04  -9.1774258e-05  -4.2819414e-05  -9.1277565e-05  -1.8507233e-05   4.5590732e-05   2.1952526e-05  -1.1057709e-04  -8.3282823e-05   2.1814936e-05  -2.2393058e-04  -1.0955337e-06  -1.9238995e-04  -1.6017768e-05  -1.8484237e-04  -1.5930997e-04  -1.8014354e-04  -1.1464606e-04  -6.7904228e-05  -1.1011627e-04  -2.3012666e-04  -3.9481890e-04  -3.0379108e-04  -5.4720195e-04   9.4604380e-05   5.5846880e-04  -2.9106269e-04  -6.1847799e-04
  -1.2877266e-04   1.4850786e-05  -1.0562238e-04  -9.0144667e-06  -3.2558713e-05  -1.3814577e-04  -2.2552744e-04  -1.5629640e-04  -2.0987543e-04  -8.3449428e-05  -1.7004284e-04  -3.0362271e-05  -9.4620809e-05  -8.7427645e-05  -2.3596751e-05  -1.2724577e-04  -8.9446490e-05  -4.2848897e-05  -1.7396726e-04  -2.9996230e-05  -2.3979987e-05  -6.7790308e-05  -1.2396467e-04  -1.4336783e-04  -2.6979944e-05  -1.4522907e-04  -5.3860764e-05   6.8955276e-05  -5.7421234e-06  -1.0260107e-04   1.1530187e-07   9.0015719e-06   1.0613278e-05   4.2142769e-05  -1.1716411e-04  -8.6363318e-05  -4.2309039e-05  -1.3423651e-04  -2.2051833e-04  -1.1074774e-04  -1.4998314e-04  -1.3520513e-04   8.6794658e-05  -4.6645675e-04  -2.5543809e-04  -1.7120315e-04   1.3097251e-06   4.0520272e-06  -9.1534515e-04  -3.2075151e-04
   4.3041822e-05   2.2518585e-05  -1.3114965e-04  -1.1232395e-05  -3.1730367e-05  -1.4206278e-04  -2.5620815e-04  -8.8623703e-05  -2.4265541e-04  -7.9997539e-05  -1.5589068e-04  -2.2131018e-05  -8.9870809e-05  -1.5403342e-04  -9.7080730e-05  -1.0846869e-04  -1.0145333e-04  -3.9874798e-05  -2.8706237e-04  -3.7342907e-05  -3.8982798e-05  -7.2881470e-05  -1.2215647e-04  -8.6584885e-05  -5.3333297e-05  -2.0973870e-04  -4.8691225e-05   6.6273184e-05   4.1170410e-05  -1.1715214e-04  -4.7362890e-05  -1.2391350e-05  -3.2521319e-04  -2.2258122e-05  -1.4503961e-04  -1.1955636e-04  -2.7610926e-04  -1.2404530e-04  -2.1292444e-04  -1.5773455e-04  -2.6314627e-05  -6.4327665e-05  -6.1504391e-04  -1.5882852e-04  -2.8075837e-04  -4.6364134e-04   1.1771094e-04  -4.9308239e-04   2.8010271e-04  -3.3207075e-04
   5.4030348e-05   1.3757627e-05  -9.5370684e-05  -3.9698421e-06  -3.4472701e-05  -1.4674065e-04  -2.6815521e-04  -3.3315254e-04  -2.7240548e-04  -9.1303766e-05  -1.6337614e-04  -4.0598465e-05  -7.2832088e-05  -1.5409770e-04  -4.1604490e-05  -1.5889884e-04  -1.0827364e-04  -3.9897972e-05  -2.4364691e-04  -3.0777261e-05  -2.2656965e-05  -4.5241999e-05  -2.1334139e-04  -1.3131519e-04  -7.8583776e-05  -1.1821940e-04   2.8422503e-05   6.4234584e-05  -1.7212271e-05  -9.1431233e-05  -3.5338999e-05  -2.5051815e-05  -1.2082748e-04  -3.8179634e-05  -1.8576263e-04  -5.8567853e-06  -3.2100885e-04  -1.7161576e-04  -2.4877817e-04  -1.2035137e-04  -2.4588013e-04  -1.2577213e-04  -1.4388814e-04  -9.1004891e-05  -2.8203172e-04  -2.8268356e-04   4.3426564e-05   5.2493741e-04  -3.3974944e-04  -9.2416554e-04
   3.9337858e-05   1.4640909e-05  -1.4397959e-04   6.8127247e-06  -2.3652534e-05  -1.7209946e-04  -2.1057217e-04  -2.4127262e-04  -1.9831702e-04  -9.4440904e-05  -1.6627251e-04  -1.6862896e-05  -8.7490684e-05  -1.8110836e-04   3.1818770e-05  -1.1186766e-04  -1.1425444e-04  -5.6868561e-05  -2.4073372e-04  -2.2124275e-05  -3.7474569e-05  -7.4450865e-05  -1.0579032e-04  -8.0786005e-05  -1.1640477e-04  -2.2852760e-04  -9.0556656e-05   6.3394575e-05  -9.3708251e-05  -7.6530996e-05  -7.5911317e-05  -1.7255613e-06  -3.2623866e-04  -3.5983336e-05  -1.7655610e-04  -1.5723585e-04  -5.5571087e-05  -1.8416530e-04  -2.2176700e-04  -2.4029176e-04  -1.5921277e-04  -1.4863350e-05   6.9617388e-05  -4.2217711e-04  -1.9021498e-04  -3.7847066e-04   1.0899336e-04   2.6496949e-05  -2.0114216e-05  -4.9378967e-04
  -5.9047550e-05   1.3620068e-05  -1.3871538e-04  -6.8038030e-06  -3.1970379e-05  -1.0339410e-04  -2.8178943e-04  -2.4581962e-04  -2.9403644e-04  -9.0863061e-05  -1.6615262e-04  -2.3629256e-05  -8.3031926e-05  -1.5595832e-04  -8.7814187e-05  -8.8857254e-05  -1.1818903e-04  -5.9079804e-05  -2.9988246e-04  -1.3350790e-05  -3.1056232e-05  -1.1073003e-04  -2.1109999e-04  -1.4394995e-04  -7.3592608e-05  -2.1347032e-04  -7.5687203e-05   5.9589707e-05  -1.2664487e-04  -5.2896103e-05  -8.5739011e-05  -2.1760528e-05  -2.8095915e-04  -6.2873005e-05  -1.6840811e-04  -3.0270256e-05  -2.5243365e-04  -1.2559924e-04  -2.3169514e-04  -7.3277915e-05  -8.2873396e-07  -9.6891374e-05   1.1494414e-04  -1.6582207e-04  -2.4579430e-04  -3.4995604e-04   1.2686773e-04  -4.6799669e-05   1.2078830e-04   1.2735345e-03
   9.1705588e-06   1.3111891e-05  -1.3187581e-04   1.1167664e-05  -4.4096170e-05  -1.5205040e-04  -2.4299719e-04  -1.0607365e-04  -3.7124127e-04  -9.3293776e-05  -1.6382067e-04  -2.6772212e-05  -5.6023691e-05  -1.8675486e-04  -3.3705146e-05  -1.2602564e-04  -1.3721656e-04  -7.4056697e-05  -2.6053353e-04   9.8088904e-06  -1.3221044e-05  -9.5269977e-05  -1.0113253e-04  -8.5688531e-05  -9.9820347e-05  -2.0100048e-04   5.6819194e-05   3.6185218e-05  -1.5545373e-04  -4.1583015e-05  -9.2366194e-05  -2.3990000e-05  -3.0353953e-04  -5.5623266e-05  -1.2028636e-04  -5.5053402e-05  -2.6402116e-04  -2.0853346e-04  -1.1225734e-04  -1.3963028e-04  -1.2256848e-04  -7.8544705e-05   1.1469948e-04   1.4268776e-04  -1.9198560e-04  -4.7777483e-04   1.0021088e-04  -2.9922488e-05  -2.6402803e-04  -7.1688468e-04
   5.5898076e-05   2.1250273e-05  -1.4889322e-04   3.6044730e-06  -4.2866635e-05  -1.5413237e-04  -1.8922311e-04  -1.9433681e-04  -2.3069445e-04  -8.9082852e-05  -1.3509858e-04   1.0751986e-05  -8.7398330e-05  -2.2173778e-04  -2.6499540e-05  -1.7519243e-04  -1.5952699e-04  -7.9585101e-05  -9.3956936e-05   7.0902356e-06  -3.0190544e-05  -1.1649848e-04  -3.8206836e-05  -1.0824938e-04  -1.3565975e-04  -1.7762270e-04   1.5188315e-05   4.4221470e-05  -3.0112997e-05  -3.4554781e-05  -8.9854468e-05  -5.5460700e-05  -1.3766333e-04  -1.3988306e-05  -1.7313359e-04  -1.8335547e-04  -1.2329141e-04  -1.5948137e-04  -1.9775450e-04  -1.0819572e-04  -5.5338642e-05  -1.0616223e-04  -7.2698698e-05  -9.9037949e-04  -2.1821176e-04  -5.2363554e-04   1.6637845e-04  -4.9611728e-04  -6.3008239e-04  -6.9832272e-04
   4.0176292e-05   1.8506567e-05  -1.4902517e-04   3.3623996e-07  -3.7073722e-05  -1.7059021e-04  -2.4464316e-04  -3.8435988e-04  -3.5146542e-04  -1.0059090e-04  -1.5099908e-04   1.3575632e-07  -7.5568605e-05  -1.7715344e-04  -7.4248092e-05  -1.5885087e-04  -1.5857446e-04  -7.7547571e-05  -1.9127909e-04   2.7322018e-05  -8.9101477e-06  -9.0242022e-05  -1.8927015e-04  -9.0750604e-05  -1.4764283e-04  -1.6387946e-04  -1.0089845e-04   2.7099419e-05   3.7971287e-05  -5.5114637e-05  -1.4535266e-04  -3.7575228e-05  -3.4932952e-04  -3.6066016e-05  -2.5229901e-04  -1.1493740e-04  -1.8863985e-04  -1.7251620e-04  -2.0213684e-04  -6.9882721e-05  -6.7047622e-05   6.9478347e-06  -1.3554284e-04  -1.4160534e-04  -2.3902950e-04  -2.1512233e-04   1.3999606e-04  -4.4759410e-04  -5.4630707e-04   4.2466450e-04
   7.2390108e-06   2.3611972e-05  -1.5031974e-04   1.6057653e-05  -3.3108816e-05  -1.2763434e-04  -2.1037676e-04  -1.6057727e-04  -2.1287988e-04  -1.0467080e-04  -1.5490261e-04   2.2353222e-05  -7.4892487e-05  -1.4940412e-04  -1.9023393e-04  -1.6727622e-04  -1.7225572e-04  -7.8367659e-05  -1.3019714e-04   3.5127658e-05  -1.8718336e-05  -8.4236250e-05  -9.8205055e-05  -7.5007127e-05  -8.5830339e-05  -1.5685972e-04  -3.5256224e-05   3.9766463e-05   8.6224944e-05  -3.5657402e-05  -1.3711400e-04  -4.2258274e-05  -3.8023523e-04  -8.1892053e-05  -1.3734055e-04  -3.9438761e-05  -1.7977056e-04  -1.7787042e-04  -1.3208881e-04  -1.3204094e-04  -1.4506358e-04  -6.4431515e-05  -1.8123676e-04  -7.6589960e-04  -3.0622585e-04  -2.3052770e-04   1.3858134e-04  -8.2013384e-04  -6.4767612e-04  -1.2222896e-04
  -5.4505981e-06   2.1007376e-05  -1.6244213e-04   1.0007784e-05  -5.8188158e-05  -1.6696200e-04  -2.2709640e-04  -4.8268190e-05  -2.3974906e-04  -1.0431631e-04  -1.3505688e-04   1.5235454e-05  -4.3292093e-05  -1.9971204e-04  -1.0731479e-04  -1.4396930e-04  -1.6343522e-04  -7.7543424e-05  -2.2706350e-04   3.1273903e-05  -2.0720021e-05  -1.0119771e-04  -6.3512947e-05  -7.6508346e-05  -7.0232112e-05  -2.3409713e-04  -6.7396220e-05   3.6207093e-05  -4.3567557e-05  -9.8026590e-05  -5.7275789e-05  -8.0706566e-05  -3.7572318e-04  -4.9733331e-05  -1.4900020e-04  -1.6305593e-04  -3.2814246e-04  -1.4820321e-04  -1.2040023e-04  -9.3666722e-06   2.2416114e-05  -8.3660321e-05  -1.3483135e-04  -4.9977208e-04  -2.3129686e-04  -4.4477286e-04   1.0638472e-04   7.5156521e-04  -8.8961137e-04  -1.2530121e-03
  -4.1702726e-05   2.3186762e-05  -1.6338124e-04   4.6820169e-06  -3.8250397e-05  -1.8107344e-04  -2.3094744e-04  -4.8652353e-05  -4.1016197e-04  -9.8612487e-05  -1.4944510e-04   2.1011128e-05  -4.0200644e-05  -2.2842252e-04  -5.9650349e-05  -1.4299079e-04  -1.5745440e-04  -8.3190527e-05  -1.5861950e-04   5.9724229e-05  -1.5207733e-07  -8.3730229e-05  -6.1886945e-05  -5.8946815e-05  -3.8876016e-05  -1.7192960e-04  -1.1469217e-04   3.2562752e-05   9.1681584e-05  -5.0514856e-05  -1.2996233e-04  -4.1682139e-05  -3.8262302e-04  -6.8931280e-05  -1.6009901e-04  -1.0237673e-04  -2.1486486e-04  -1.3962023e-04  -1.2734786e-04  -1.4134109e-04  -1.0609977e-04  -4.9992228e-05  -5.9315054e-05  -3.5039664e-04  -1.0546600e-04  -1.4734706e-05   1.4823680e-04  -1.3677186e-03  -3.4208081e-04  -2.6698917e-04
   8.6569935e-07   3.2634514e-05  -1.6334272e-04   1.8307212e-05  -4.4255008e-05  -1.5591946e-04  -2.4276086e-04  -2.3254409e-04  -3.8380930e-04  -9.5361589e-05  -1.2752590e-04   5.8255217e-05  -5.6973935e-05  -2.0115891e-04  -1.1662122e-04  -1.8897255e-04  -1.7551884e-04  -7.4633499e-05  -5.0278952e-05   5.3399905e-05  -2.3749963e-05  -3.9399016e-05  -7.0664471e-05  -1.6815116e-05  -9.3980416e-05  -1.1257199e-04  -1.6385228e-04   1.8611288e-05   1.3079551e-04  -9.7912081e-05  -8.3897510e-05  -6.2537962e-05  -4.7931090e-04  -5.2406300e-05  -2.2191655e-04  -4.5931720e-05  -3.3324934e-04  -1.9860707e-04  -1.8960837e-04  -5.7799698e-05  -1.0915140e-04  -1.0803359e-04  -3.5578397e-04  -6.6116644e-04  -1.7997411e-04  -3.0997730e-04   1.3974345e-04  -1.0483006e-04   5.1622272e-05   4.1412711e-04
   2.6742217e-05   3.0435469e-05  -1.9418835e-04   2.8181588e-05  -5.2464769e-05  -1.7397196e-04  -2.4479933e-04  -1.2137172e-04  -4.2735506e-04  -1.0114308e-04  -1.4221344e-04   3.6511305e-05  -5.9442846e-05  -1.6449252e-04  -1.1411640e-04  -1.8078402e-04  -1.6886969e-04  -5.8567915e-05  -2.0574621e-04   5.3721520e-05  -1.3630885e-06  -5.0625888e-05  -4.4385986e-05  -9.7725817e-05  -4.6524954e-05  -1.0222931e-04  -1.1090300e-04   3.4716020e-05   1.0747273e-05  -9.1010159e-05  -1.5890502e-04  -5.1211013e-05  -3.8866466e-04  -6.7252440e-05  -1.4377601e-04  -1.1945049e-05  -1.9701236e-04  -1.9142605e-04  -1.4277108e-04  -8.5357089e-05  -1.0289480e-04  -4.1489646e-05  -1.8835098e-04  -1.4574791e-04  -1.2904032e-04  -3.6649560e-04   1.2929781e-04  -5.6392187e-04  -9.4167067e-04   9.7714819e-04
  -1.0523891e-05   2.5116460e-05  -1.7483371e-04   1.0598713e-05  -4.1848099e-05  -1.3134783e-04  -2.2986805e-04  -2.1850094e-04  -2.6300974e-04  -1.0047374e-04  -1.1581593e-04   4.6072353e-05  -6.9648813e-05  -1.9722748e-04  -9.5924996e-05  -1.3962849e-04  -1.5593680e-04  -4.8924088e-05  -6.9755821e-05   4.8972212e-05  -2.9308509e-05  -3.1477441e-05  -1.3019030e-04  -3.2933265e-05   5.0891585e-06  -1.3992428e-04  -1.7322291e-04   3.4697947e-05  -4.2200478e-05  -6.7235058e-05  -1.2116338e-04  -3.6973965e-05  -2.5643833e-04  -6.0414004e-05  -1.1457291e-04  -8.0347570e-05  -1.8649947e-04  -1.4314738e-04  -1.9376492e-04  -2.4890271e-04  -1.4358795e-04  -3.3240580e-05  -8.9472777e-04  -6.7193282e-04  -1.9164725e-04  -2.5763552e-04   1.7476045e-04  -4.7782849e-04  -1.4860243e-04  -5.0098432e-04
   3.2812222e-05   3.0836833e-05  -1.8029430e-04   2.1038508e-05  -2.9521814e-05  -1.4818720e-04  -1.7930646e-04  -1.7582574e-04  -2.6432876e-04  -9.3308299e-05  -1.3160883e-04   4.0693409e-05  -2.2324022e-05  -2.3167957e-04  -9.1606264e-05  -1.0267618e-04  -1.5521460e-04  -3.3435412e-05  -5.9919235e-05   6.5932465e-05  -8.5081183e-06  -7.2528230e-05  -1.0099381e-04  -9.2841241e-05  -1.0372686e-04  -1.7060518e-04  -1.1917068e-04   6.1338935e-05  -8.7428387e-05  -7.6178330e-05  -9.2878290e-05  -3.8867351e-05  -3.3996181e-04  -1.4564471e-05  -1.6254318e-04  -1.3729760e-04  -1.5000942e-04  -1.4891493e-04  -1.4030049e-04  -3.8432401e-05  -2.5269366e-04  -1.2343064e-04  -1.6668504e-04  -8.2900217e-05  -1.5851992e-04  -6.1219776e-05   1.8170768e-04  -2.7220789e-04  -4.4547211e-04   3.4758286e-04
   4.9335064e-05   2.1811898e-05  -1.5856416e-04   1.0771885e-05  -4.6966965e-05  -1.4900875e-04  -1.7576781e-04  -4.0700677e-04  -3.2659346e-04  -8.8273933e-05  -1.3568686e-04   3.8574693e-05  -1.0475282e-05  -1.7858749e-04  -6.5752101e-05  -1.3744875e-04  -1.3873991e-04  -3.7536171e-05  -4.8825514e-05   6.0714534e-05  -1.5662372e-05  -2.8934046e-05  -6.3061809e-05  -2.6270300e-05  -6.0893286e-05  -1.2669766e-04  -1.0568971e-04   7.5365278e-05  -4.5885277e-05  -4.3200711e-05  -9.3164817e-05  -1.4007906e-05  -2.5489024e-04  -1.4847733e-05  -1.3535943e-04  -5.7526417e-05  -1.6166772e-04  -1.6363992e-04  -1.3637546e-04  -4.9636477e-05  -2.3338017e-04  -7.7824494e-05   9.4212010e-05  -2.9591352e-04  -1.6216763e-04  -2.4850649e-04   6.4864391e-05   2.6758305e-05  -2.0926795e-04   4.7560735e-04
   4.2323842e-05   2.7543532e-05  -1.7052970e-04   2.0910093e-05  -4.9445138e-05  -9.4934898e-05  -2.0819307e-04  -8.2678314e-05  -1.6219629e-04  -7.3659379e-05  -1.1278132e-04   6.2462561e-05  -2.6325913e-05  -1.9052174e-04  -1.3853681e-04  -1.5201261e-04  -1.4466672e-04  -4.9088823e-05  -2.0899790e-04   7.6438417e-05  -3.0307259e-05  -7.1040951e-05  -3.6704139e-05   2.5641717e-05  -3.0840089e-05  -1.1214742e-04  -5.5348541e-05   5.5709759e-05   5.3519783e-05  -5.0380302e-05  -9.0755304e-05  -4.9752369e-05  -2.0868356e-04  -4.5830031e-05  -1.5226458e-04   4.7137280e-05  -7.3049385e-05  -1.4434138e-04  -1.8349808e-04  -7.0069545e-05  -5.7221888e-07  -4.5842120e-05  -3.9586215e-04  -2.7898190e-04  -1.6720226e-04  -2.2685037e-04   1.9684876e-04  -9.1552990e-04   4.5295983e-05  -1.0644211e-03
  -1.0308803e-05   2.6161424e-05  -1.6161303e-04   9.9323952e-06  -4.8845504e-05  -1.4200213e-04  -2.0153634e-04  -2.0032274e-04  -2.3817064e-04  -7.4355747e-05  -1.1101341e-04   4.9088827e-05  -8.0227221e-07  -1.9426273e-04  -1.2290504e-04  -1.2434389e-04  -1.6751249e-04  -5.2423635e-05  -9.5442636e-05   7.4151831e-05  -1.9102183e-06  -2.2323098e-05  -1.4129288e-04   4.0668874e-05  -1.7707020e-05  -1.3418573e-04  -1.5273296e-04   5.5263310e-05  -1.6798451e-05  -4.3521675e-05  -1.4509106e-04  -4.4320572e-05  -1.2298577e-04  -6.8783535e-05  -1.8116436e-04  -3.4031407e-05  -2.5485747e-04  -9.1919668e-05  -1.7560252e-04   3.1007090e-05  -1.3511129e-04  -3.0034855e-06  -3.0173626e-04  -5.0363055e-04  -1.8334565e-04  -2.5105086e-04   1.4677599e-04   3.7268980e-04  -3.7946834e-04  -7.5666566e-04
  -5.3652570e-07   3.2479969e-05  -1.4219517e-04   2.6069089e-05  -3.1198309e-05  -8.5884247e-05  -2.0599728e-04  -6.7808651e-05  -1.1953173e-04  -6.5782406e-05  -8.9037792e-05   6.8694746e-05  -4.5269047e-05  -1.9261218e-04  -1.4550047e-04  -1.5275947e-04  -1.7304592e-04  -4.8170448e-05  -8.9268484e-05   8.5258398e-05  -1.9386066e-06  -1.1427096e-05   8.4711983e-06   5.6766487e-05  -7.1240283e-05  -9.6008538e-05  -1.1103427e-04   4.2504122e-05  -5.5829434e-05  -3.7802783e-05  -1.0142288e-04  -4.4041528e-05  -2.1387417e-04  -6.5902685e-05  -2.2885739e-04  -8.3926003e-05  -1.9756790e-04  -1.4726794e-04  -9.7308992e-05  -7.4813179e-05  -2.9351574e-04  -5.9649356e-05  -7.1576319e-04  -4.6312623e-04  -1.7847729e-04  -3.8871265e-04   8.7158398e-05  -3.0871591e-04   1.7343213e-04   4.3628484e-04
   1.0380174e-04   3.6067831e-05  -1.5939964e-04   3.7089270e-05  -4.9642167e-05  -9.6544420e-05  -1.5192990e-04  -1.7406092e-04  -1.5581791e-04  -5.4961121e-05  -9.0510170e-05   6.5041291e-05  -5.9494596e-06  -1.5888663e-04  -1.6599294e-04  -1.3762624e-04  -1.8315614e-04  -7.6017110e-05  -1.2015206e-04   9.8334225e-05   7.5295566e-06  -1.1490998e-05  -2.0849180e-05   2.4331235e-05  -1.1069593e-04  -1.0011048e-04  -1.1867008e-04   4.7145284e-05   9.9603612e-06  -3.8615701e-05  -9.3433860e-05  -6.2343090e-05  -9.7634649e-05   9.6529620e-06  -1.2078339e-04  -2.5503688e-05  -2.4767304e-04  -1.1877254e-04  -1.3831974e-04  -3.4208795e-05  -1.7588238e-04  -1.2163887e-05  -2.7278211e-04  -5.4156326e-04  -2.0324743e-04  -1.8114960e-04   1.3929376e-04  -1.1756005e-04  -1.5143793e-04   1.5174317e-04
   6.0841085e-05   3.2812670e-05  -1.5477261e-04   3.5274847e-05  -2.5468669e-05  -6.3499829e-05  -1.7202846e-04  -2.2008328e-04  -1.6245422e-04  -5.6265941e-05  -9.6657641e-05   6.4801388e-05  -3.7284513e-05  -2.1065072e-04  -4.9374092e-05  -1.1928687e-04  -1.9201823e-04  -8.4307889e-05   9.5060914e-06   8.9129120e-05   2.1369182e-05   1.5002444e-08  -1.1606987e-05   7.3723727e-06  -1.9433868e-05  -7.7885568e-05  -1.0522472e-04   2.7929438e-05  -1.1839522e-04   2.7129295e-06  -1.8112289e-04  -5.1701594e-05  -2.3738309e-04  -1.6975473e-05  -1.7354368e-04  -1.0386245e-04   1.0703080e-04  -9.3522009e-05  -1.8420017e-04  -1.6672175e-05   8.6350330e-05  -4.5508961e-05   1.2440067e-04  -2.9192280e-04  -1.9130074e-04  -1.7440064e-04   1.2269620e-04  -6.3790503e-04  -6.0367813e-05  -4.4157784e-04
   3.2171160e-05   4.3366646e-05  -1.3316885e-04   4.6298101e-05  -2.2236320e-05  -5.5096374e-05  -1.8518622e-04  -3.4718175e-04  -1.3590496e-04  -4.1576775e-05  -6.8482470e-05   8.0172264e-05   2.9762316e-06  -1.6010040e-04  -6.5869186e-05  -1.3640459e-04  -1.8387934e-04  -8.4107160e-05   7.5812684e-05   9.5817319e-05   2.7525139e-05  -7.2939052e-05  -1.3150308e-05   2.6606556e-05   2.0858772e-06  -7.2124574e-05  -1.2264666e-04   1.9745976e-05  -7.0687449e-05  -8.6107619e-05  -1.3650730e-04  -7.1832197e-05  -2.8475019e-04  -9.3080969e-05  -5.9442867e-05  -9.6790882e-06  -2.8743343e-05  -1.2480943e-04  -1.3196793e-04  -3.5022294e-05  -7.2835021e-05   4.7348080e-05   6.1672828e-05  -3.3866600e-04  -8.7732100e-05  -2.1833430e-04   9.7111668e-05   7.6996989e-04  -3.4426805e-04  -5.4111246e-05
   1.2775831e-04   5.0244278e-05  -1.6396811e-04   5.7064583e-05  -2.0701997e-05  -8.6237596e-05  -1.3508796e-04  -2.2053733e-04  -1.7396780e-04  -5.5342418e-05  -6.7948276e-05   7.3442090e-05   1.8711637e-05  -1.4581856e-04  -7.6715143e-05  -1.7996087e-04  -1.7492674e-04  -7.2317460e-05  -6.6555789e-05   1.0247547e-04   3.0949737e-05  -9.1913462e-06   9.5077521e-05   4.4563720e-05  -9.6342395e-05  -8.1403639e-05  -1.0650351e-04   3.4175642e-05   1.2957834e-04  -4.3420459e-05  -1.4385524e-04  -5.5128752e-05  -2.2687519e-04  -5.2106428e-05  -9.8446122e-05  -6.7043540e-05  -3.9393301e-05  -1.2240645e-04  -6.2501735e-05  -7.1554852e-05  -1.0209269e-04  -2.1820213e-04  -5.7214312e-04   7.9229787e-05  -1.0981971e-04  -3.1665651e-04   1.3748511e-04  -4.0739452e-04  -4.9958340e-05  -6.7133427e-04
  -1.5369525e-05   5.7393176e-05  -1.6182686e-04   4.9069167e-05   6.0253114e-07  -5.7603233e-05  -8.5014581e-05  -3.5107470e-04  -1.1303477e-04  -5.1599964e-05  -5.7477362e-05   8.8796936e-05  -3.8901315e-05  -1.4646571e-04  -6.9380235e-07  -1.6289826e-04  -1.7855898e-04  -6.3751781e-05  -1.9781392e-05   9.3463466e-05   1.8976461e-05  -5.9398506e-05  -1.0956528e-04   6.2478801e-05  -3.2223285e-05  -1.4420266e-04  -1.7423482e-04   1.3940024e-05  -8.8736364e-05  -1.2249328e-05  -1.2575029e-04  -9.4056020e-05  -2.1423995e-04  -4.8454021e-05  -1.1092379e-04   5.8945329e-07  -2.0263880e-04  -1.5670653e-04  -1.4098450e-04  -1.7140896e-04  -1.3743686e-04  -7.2241775e-05  -8.2596714e-05  -6.2692934e-04  -1.6072229e-04  -3.2243994e-04   1.4430017e-04   3.3252325e-04  -4.5226459e-04  -5.5568333e-04
   2.6153703e-04   5.8094309e-05  -1.4732685e-04   3.8883471e-05  -2.5476114e-05  -5.5502118e-05  -1.1570076e-04  -1.0299841e-04  -1.0540195e-04  -6.2404550e-05  -7.9554367e-05   6.4594962e-05   1.1084692e-05  -1.7193829e-04  -3.3288019e-05  -4.6464516e-05  -1.5207332e-04  -4.1341926e-05   4.4073440e-05   9.1304923e-05   2.6878542e-05   1.9777815e-05  -4.3644519e-05   1.6295870e-05   1.4253373e-05  -8.8877343e-05  -7.0455309e-05   5.3464497e-05  -2.2030964e-04  -1.3160857e-05  -2.0445135e-04  -3.3526594e-05  -7.9793019e-05  -4.4735578e-05  -1.1193236e-04  -7.8246212e-06  -7.4224285e-05  -8.0440368e-05  -1.4447237e-04  -4.4079636e-05  -2.3320800e-04  -4.4134908e-05  -1.8198040e-04  -4.2097503e-04  -1.6219894e-04  -1.8173942e-04   1.6287228e-04  -1.3688578e-04  -1.4912662e-04  -8.1479974e-04
   9.3628601e-05   5.8496036e-05  -1.4046168e-04   4.8579241e-05  -6.9223493e-06  -4.5960602e-05  -9.3765964e-05   2.3572871e-05  -4.2682888e-05  -5.9983999e-05  -7.5290824e-05   7.3160976e-05  -2.1465816e-05  -1.1371401e-04  -2.6780621e-05  -6.6721637e-05  -1.5761798e-04  -2.6950671e-05  -6.1048457e-05   8.9115383e-05   4.7259932e-06  -2.7894512e-05  -1.3128467e-05   1.7510729e-05  -2.9122129e-05  -1.0857206e-04  -4.5793502e-05   5.2207513e-05   1.2357358e-04  -4.6772700e-05  -1.7102985e-04  -6.0836679e-05  -1.6836126e-04  -9.9854202e-05  -1.2420726e-04   2.1863310e-05  -5.6284603e-05  -1.8100104e-04  -1.7620563e-04   6.2893654e-05  -1.9554747e-04  -3.3068689e-05   3.8535083e-05  -1.8482310e-04  -1.0184843e-04  -3.9865830e-04   1.6085160e-04   2.5357024e-04  -3.7544055e-04  -4.9041410e-04
   1.3899323e-04   6.5051121e-05  -1.6011042e-04   4.8541810e-05  -1.0209050e-05  -6.2286170e-05  -8.1804821e-05   3.4738030e-05  -5.4496340e-05  -6.4371794e-05  -6.2512365e-05   6.9060858e-05   2.7318247e-05  -1.8943858e-04  -5.8552185e-05  -5.4612676e-05  -1.6086627e-04  -3.0160820e-05   9.0608344e-05   9.2187256e-05   1.7099594e-05   1.2058231e-05  -1.8702412e-05   2.4170864e-05  -4.2640251e-05  -1.3906097e-04  -1.2406016e-04   7.4761396e-05  -1.2056120e-05  -3.9767143e-05  -1.2147659e-04  -3.1119398e-05   6.5265987e-05  -4.3105290e-05  -7.3408235e-05  -3.8666069e-05  -1.5193857e-04  -6.2425061e-05  -9.0464695e-05  -7.7929086e-05  -2.6913576e-05  -3.2628486e-05   3.4588165e-04   3.8495873e-05  -1.3746135e-04  -2.8131239e-04   2.2690548e-04   5.3416088e-04  -2.5654390e-05  -2.7461664e-04
   1.7076943e-04   6.5179222e-05  -1.5152553e-04   5.3031989e-05   2.1244770e-05   1.6032613e-05  -5.0672745e-05   3.0723197e-04  -2.6223981e-05  -6.7700275e-05  -8.7262706e-05   8.5792621e-05   1.3758012e-05  -1.7512323e-04  -1.0884976e-04  -8.7390756e-05  -1.7297757e-04  -2.1189699e-05   2.7888784e-05   8.2860141e-05   5.9571312e-06  -3.7128893e-06   3.9949711e-05   3.9147842e-05   1.2644627e-05  -9.9508135e-05  -1.2126910e-04   4.9870356e-05   7.7673685e-06  -6.1850966e-05  -1.3470433e-04  -4.9265673e-05  -8.0390600e-05  -6.0718565e-05  -8.8922068e-05  -3.1556614e-05   3.6213525e-05  -1.1126024e-04  -1.0281584e-04  -1.1081535e-04  -5.8923644e-05  -8.0244907e-05  -1.7106245e-04  -5.2178634e-04  -6.8100482e-05  -2.7763654e-04   1.7474910e-04  -4.9566227e-04   2.3467733e-04   8.2647445e-04
   2.4332365e-04   6.4894288e-05  -1.3160371e-04   7.2300063e-05  -7.3412212e-07  -1.7226635e-05  -8.0212209e-05  -1.1267341e-04  -8.3529107e-05  -6.8080648e-05  -6.2639912e-05   7.9957121e-05   3.5466819e-05  -2.3368570e-04  -1.5522589e-04  -1.2258830e-04  -1.7969863e-04  -3.1854855e-05   1.9829113e-05   8.2034043e-05   2.9278926e-06  -4.7921196e-05   1.0751539e-04   9.8430394e-07  -4.9672202e-05  -8.6253669e-05  -2.1556549e-04   6.0048671e-05   5.8409831e-05  -6.9786861e-06  -1.4769344e-04  -7.6382843e-05  -1.1026466e-04  -3.3048243e-05  -1.0460119e-04  -1.5411364e-04  -1.3245210e-04  -7.1615723e-05  -1.5106698e-04   2.5562062e-05  -6.6064422e-05   1.1590406e-05  -2.4622402e-04   3.8442874e-04  -1.2224755e-04  -2.6396639e-04   1.7399987e-04   5.3268287e-04  -1.5684043e-04   8.3484076e-04
   1.9793354e-04   6.6370099e-05  -1.5955506e-04   6.5194137e-05   4.4596229e-05  -7.6456699e-06  -8.0873324e-05  -1.2159873e-04  -1.3051285e-04  -7.4320837e-05  -7.6283177e-05   6.0653652e-05   6.6314024e-05  -1.6961106e-04   5.7966354e-05  -5.9416554e-05  -1.7556544e-04  -3.2537340e-05   6.1017508e-06   8.2198050e-05   1.6976939e-05  -8.6253867e-06   2.2558645e-05   1.7474587e-05  -3.7810085e-05  -7.5816846e-05  -1.7342683e-04   6.3382751e-05  -4.4119392e-06  -5.9265680e-05  -2.4442511e-04  -6.8249472e-05  -1.6350352e-04  -9.9097080e-05  -1.1340853e-04  -4.4473596e-05  -1.2832548e-04  -5.1050876e-05  -5.3065207e-05   9.0058034e-05  -6.2314146e-05  -8.3707062e-05   7.0766822e-05  -7.7019673e-04  -9.6524658e-05  -1.2060291e-04   1.4880870e-04   1.0949465e-05  -2.1872451e-04  -3.8245998e-04
   2.3902720e-04   6.9259731e-05  -1.4838773e-04   6.0838465e-05   2.6448473e-05  -2.0208830e-05  -4.0781590e-05  -2.8845383e-04  -7.6088763e-05  -6.9077789e-05  -5.1809184e-05   8.5630847e-05   2.7551765e-05  -1.4283200e-04  -1.9243450e-04  -1.1234584e-04  -1.9685269e-04  -4.6653571e-05  -2.9285462e-05   8.5737345e-05   1.8334247e-06  -3.3386335e-05   4.9954375e-05   1.6483269e-05   1.5220081e-05  -1.1733075e-04  -2.0172054e-04   5.7521822e-05  -1.5327023e-04  -3.8262457e-05  -2.1465088e-04  -9.4151910e-05  -2.7556092e-04  -3.3862252e-05  -1.1876502e-04  -3.3977158e-05  -1.8911566e-04  -8.6633001e-05  -7.6095384e-05   6.5801447e-07  -2.7288613e-04  -6.4144842e-05   5.9653388e-04  -3.2660106e-04  -4.9324459e-05  -2.5216740e-04   1.5221158e-04   6.2968465e-04  -1.8833071e-04   1.4729134e-04
   2.4355628e-04   7.3686242e-05  -1.4543397e-04   6.9875183e-05   1.9070907e-05  -5.7396875e-05  -5.6068158e-05   2.1444936e-05  -7.5171520e-05  -8.2456419e-05  -6.0458649e-05   8.2940176e-05   5.8714213e-05  -1.6439163e-04  -1.1819018e-04  -6.5844164e-05  -1.9853833e-04  -4.5274377e-05  -5.1241608e-05   8.9688983e-05   2.0991649e-05   4.8148681e-06  -3.6917729e-05  -4.3610100e-05  -3.8752616e-05  -7.0712689e-05  -1.9200006e-05   2.5786658e-05   1.9969560e-04  -4.0753753e-06  -1.8745454e-04  -5.9487233e-05  -6.9779649e-05  -7.2219817e-05  -3.8692564e-05  -7.0252163e-06   3.2523340e-06  -2.9275239e-05  -1.3407212e-04   5.2323656e-05  -1.5080617e-04  -1.4036581e-05  -2.7994797e-04  -3.9320956e-05  -1.0907907e-04   8.2323451e-05   1.9058934e-04   5.6307113e-06  -3.9096936e-04   1.3823219e-04
   1.4743842e-04   7.4144424e-05  -1.7031627e-04   6.4512569e-05   8.2464985e-06  -7.9560677e-06  -4.2603704e-05   2.2583510e-04  -4.2457828e-05  -7.6631586e-05  -4.4740009e-05   1.1009578e-04   6.6394619e-05  -1.4320917e-04  -1.5563589e-04  -1.0621150e-04  -1.9291314e-04  -5.2055071e-05  -8.8920227e-05   9.1683549e-05  -1.5371876e-06   3.1465152e-05   2.6560765e-05  -4.9527291e-05  -3.7372803e-05  -7.8393175e-05  -1.0248340e-04   3.7554993e-05  -1.7095083e-05  -4.6129557e-05  -1.6504248e-04  -8.0421931e-05  -2.5686942e-04  -8.1235703e-05  -1.0169380e-04  -4.3536413e-05   1.4538497e-04  -9.5921125e-05  -1.6669049e-04   2.9532501e-05   2.1948208e-05  -7.0618888e-05  -5.2642421e-04  -1.6500888e-04  -7.1999682e-05  -3.3413802e-04   8.7577646e-05  -1.6558332e-04   3.1307849e-04  -1.0257890e-03
   8.1899321e-05   7.1094051e-05  -1.6880054e-04   6.9628200e-05   2.1946134e-05  -4.5248216e-06  -8.8328612e-05  -5.0476876e-05  -4.1420441e-05  -8.3074432e-05  -4.3252534e-05   1.0439110e-04   5.7955061e-05  -1.8953392e-04  -1.2930686e-04  -1.5686972e-04  -1.9093596e-04  -4.2504926e-05  -1.5877446e-04   1.0470518e-04   1.6225948e-05  -1.4538406e-06  -1.7989095e-06  -4.5170938e-05  -9.0270900e-05  -1.3947097e-04  -2.2526360e-04   1.7004688e-05   2.0194564e-04   1.1616100e-05  -1.5388858e-04  -5.5665263e-05  -8.7507615e-05  -9.4440860e-05  -3.7237463e-05   1.5176637e-05  -2.6433903e-04  -3.8533697e-05  -1.8527049e-04   2.5565949e-05  -4.9113201e-05   2.8672679e-05  -4.2145440e-04  -3.5066751e-04  -1.2991896e-04  -1.4560400e-04   1.3754480e-04  -2.2735886e-04  -2.3728696e-04  -2.4959736e-04
   2.3921678e-04   7.0046575e-05  -1.7509013e-04   5.8511629e-05  -1.1280503e-06   2.7803004e-05  -1.0966462e-04  -7.9639995e-06  -8.1614766e-05  -8.3899686e-05  -4.9785420e-05   1.1135980e-04   5.2897220e-05  -1.1908136e-04  -8.1326732e-05  -1.0908435e-04  -1.7895074e-04  -3.5904599e-05   5.5849094e-05   8.6289321e-05  -4.3226087e-06  -2.7046210e-05  -2.5492478e-05  -4.5192387e-06  -8.1187623e-05  -1.0543375e-04  -1.2074918e-04   5.9799528e-05  -2.0068989e-04  -3.6046586e-05  -1.6201181e-04  -6.4647407e-05  -2.0823229e-04  -5.8803995e-05  -1.1028258e-04  -5.1739225e-05  -6.7601322e-05  -7.7811383e-05  -1.1977238e-04   2.6693808e-05  -2.9142760e-04  -1.3884225e-04  -5.8572710e-04  -6.6950583e-05  -1.2659060e-04  -1.9232622e-04   1.3200397e-04  -1.3364031e-04  -5.7383080e-04  -2.6937420e-04
   2.1550283e-04   6.5102839e-05  -1.5131889e-04   5.0855990e-05  -7.7274008e-06  -2.0740916e-05  -7.5688324e-05   1.0605923e-04  -2.6979675e-05  -9.1651586e-05  -7.2310664e-05   6.9727124e-05   1.6585229e-05  -1.5224720e-04  -9.8116478e-05  -9.5440271e-05  -1.4669089e-04  -3.0101633e-05  -1.2712294e-04   8.3428815e-05   1.0112823e-05   1.4006131e-05  -7.2123301e-05   3.0133035e-05  -2.1937492e-05  -3.3464152e-05  -1.0934033e-04   5.6889727e-05  -5.1537438e-05  -8.7612476e-05  -1.6486431e-04  -2.7194550e-05   3.6585021e-05  -7.2618699e-05  -1.2164003e-04  -1.1118077e-04  -4.6180703e-05  -2.0226644e-05  -1.0798857e-04   4.9110407e-05  -2.6557909e-04  -7.3999639e-05  -4.5049752e-04  -2.4677755e-04  -7.7153236e-05  -6.3261999e-05   6.8013338e-05   2.7908280e-04  -1.3074469e-04   1.1598896e-04
   1.9026468e-04   5.7020057e-05  -1.4977183e-04   4.6460904e-05  -6.5575664e-06   1.8355444e-05  -1.2554473e-04   1.1153788e-04  -1.4135242e-04  -1.0225740e-04  -7.2027287e-05   6.8359695e-05   1.9393858e-05  -1.2231660e-04  -1.9084192e-04  -6.0725317e-05  -1.2963198e-04  -1.5489641e-05  -1.1305349e-04   7.0947433e-05  -3.1247139e-06  -3.5818047e-07  -3.8659913e-05  -6.2112733e-05   1.9973838e-06   2.4387500e-05  -7.5842559e-05   6.6925997e-05  -2.2438607e-04  -3.6681500e-05  -1.3383995e-04  -2.7482070e-05  -1.4088812e-04  -6.0804163e-05  -5.7346053e-05  -5.5020977e-05   4.4610126e-05  -6.0437273e-05  -1.2256285e-04  -5.0435392e-05  -3.8077356e-04  -1.0822241e-04  -8.6711161e-04  -7.5267664e-05  -7.4114527e-05  -3.9310040e-04   1.3206035e-04  -5.1213397e-06  -1.8399204e-04  -4.8703965e-05
   1.3300995e-04   6.1753984e-05  -2.0952409e-04   5.7311448e-05  -1.9360654e-05   2.6986208e-05  -1.1538880e-04  -5.1191106e-05  -1.5814671e-04  -9.1032773e-05  -8.9569832e-05   5.8746769e-05   1.3173223e-05  -1.8444183e-04  -1.8666753e-04  -1.0635548e-04  -1.3273059e-04  -2.4887864e-05  -4.6950772e-05   6.7758614e-05  -2.0652283e-07  -6.3057079e-05  -6.5954468e-05   1.3430310e-05   1.4008781e-05  -3.7946560e-05  -3.6920450e-05   6.2445120e-05  -1.2872115e-04  -2.8968721e-05  -1.4085167e-04  -4.1003579e-05  -3.8552800e-05  -5.5019340e-05  -7.8343481e-05  -9.0928363e-05   1.4513952e-04  -2.2839522e-06  -7.7432042e-06  -6.3885673e-06  -1.4562283e-04  -1.1677897e-04  -6.2912510e-04  -3.4426068e-04  -1.1677097e-04  -1.0865073e-04   1.2579646e-04   1.6668299e-04  -1.3464940e-04  -5.2615179e-04
   1.9767410e-04   5.9078451e-05  -1.7811675e-04   6.8952373e-05  -1.3857604e-05  -3.7177633e-05  -1.1246610e-04  -5.0108243e-05  -1.5600146e-04  -9.8401390e-05  -8.6406704e-05   4.7528149e-05   2.3612929e-05  -1.3957680e-04  -1.1252774e-04  -8.9342851e-05  -1.2337969e-04  -3.8318631e-05   1.0164343e-06   7.5721749e-05   1.0582681e-05   5.5470759e-06  -8.9839676e-05  -7.0980488e-05  -1.1937701e-04  -7.1744311e-05  -5.2065599e-05   4.8051101e-05  -1.2408975e-04  -1.4722687e-05  -1.7593650e-04  -4.7908619e-05  -5.3467258e-05  -1.2753652e-06  -1.0936645e-04  -1.2571421e-04  -1.2652671e-04   6.3112202e-05  -8.8625049e-05  -4.6200497e-05  -2.7708962e-04  -1.1150534e-04  -4.9001974e-04  -4.7910088e-04  -6.8414411e-05  -2.6463635e-05   1.8597316e-04  -5.2298204e-04  -3.1735128e-04  -2.1104171e-04
   1.6695687e-04   6.0515602e-05  -1.8838147e-04   5.4485092e-05  -3.3201621e-05   2.9778892e-06  -9.5157760e-05  -1.9126807e-04  -9.1725044e-05  -7.9470869e-05  -7.5874952e-05   6.1572631e-05   1.1391960e-05  -7.7793156e-05  -1.3725100e-04  -1.1233141e-04  -1.2388715e-04  -4.2445485e-05  -4.2991724e-05   6.4184649e-05  -4.8463539e-06  -2.5584881e-05  -8.2124971e-05   5.0801104e-06  -1.7323740e-05  -9.4157949e-05  -1.5663930e-04   4.2034328e-05   2.0548864e-04  -4.9933438e-05  -1.5284625e-04  -2.9355968e-05  -4.5533361e-05  -4.0658852e-05  -1.1869323e-04  -5.9218051e-05  -3.2727919e-05  -5.2714673e-05  -1.2534072e-04   6.6850462e-06  -2.4507951e-04  -1.1891196e-04   6.2787317e-04  -2.6138068e-05  -1.1794041e-04  -2.6920479e-04   1.7118784e-04  -4.0719978e-04  -6.6545559e-04   3.9269510e-04
   1.7852908e-04   6.1545026e-05  -1.9128474e-04   5.9141494e-05  -1.8709643e-05  -2.8997854e-05  -8.8575041e-05  -1.1521133e-04  -5.9310922e-05  -8.4727108e-05  -8.3561994e-05   5.8227721e-05   5.5579349e-05  -1.3119569e-04  -9.1210197e-05  -1.0641380e-04  -1.4559389e-04  -4.5088564e-05  -8.7423206e-05   5.3789990e-05   1.2026562e-05  -4.6371933e-05  -1.0825984e-04  -1.9030016e-05  -3.3306005e-05  -4.5457468e-06  -1.3930460e-04   3.7116613e-05   4.2768632e-05   4.1776625e-06  -1.7764402e-04  -7.4665892e-05   1.9957618e-04  -1.5585221e-05  -6.2028674e-05  -2.4316942e-05   3.0184836e-05  -3.1712781e-05  -4.3091171e-05   1.2854521e-05  -4.7712267e-05  -1.5433053e-04  -1.3945672e-04  -7.0600724e-04  -9.6098418e-05  -5.6013872e-05   1.5451301e-04  -1.9824250e-04   4.6479940e-06  -8.7993377e-04
   1.5929202e-04   6.7318178e-05  -1.8652070e-04   6.3578176e-05  -2.7485812e-05  -3.6207999e-05  -1.1993110e-04  -2.8499991e-05  -8.7505403e-05  -6.9349793e-05  -6.8393310e-05   9.7418400e-05   1.0482178e-05  -1.6505973e-04  -1.2595636e-04  -1.0753251e-04  -1.6515954e-04  -5.5014461e-05  -2.9029527e-05   5.3827283e-05  -4.8604052e-06   2.4315925e-05   3.5105753e-05   1.4050522e-06  -2.0072204e-05   3.3411001e-05  -1.5432219e-04   3.1683590e-05   1.3298249e-04  -9.4351926e-06  -1.8497150e-04  -5.8187776e-05   9.7232878e-06  -9.7221113e-05  -1.0099762e-04  -8.9825597e-05   1.0138447e-04  -5.2201354e-05  -9.3301860e-05   8.8064635e-06  -1.8195264e-04  -1.1209653e-04  -2.0760388e-04  -8.2743127e-04  -4.5978166e-05  -1.4889421e-04   2.6585278e-04   1.8970994e-04  -3.0450334e-04  -3.9625191e-04
   2.6186524e-04   6.3547574e-05  -1.8308171e-04   6.8155372e-05  -1.6681908e-05   3.5235630e-06  -1.2692942e-04  -1.8465445e-04  -1.1738489e-04  -7.2491304e-05  -6.2445921e-05   9.0013556e-05   4.3953503e-05  -1.4307999e-04  -1.1249035e-04  -1.1258902e-04  -1.6076805e-04  -5.1816802e-05  -7.1397684e-05   5.5463282e-05   4.3454847e-06   3.5436485e-06  -5.2674864e-06   2.0920229e-06  -3.8100032e-05  -9.6055584e-05  -2.1163629e-04   3.5313271e-05   6.9807342e-05  -5.0122293e-05  -2.1102160e-04  -7.3831827e-05   1.3323898e-05   2.3048565e-06  -3.3850734e-05  -6.0506834e-05   4.1550204e-05  -4.2900028e-05  -8.3644743e-05  -1.0287034e-06  -8.1791048e-05  -1.3552160e-05  -2.8449012e-04   8.2823484e-05  -5.3219028e-05  -3.2222783e-04   2.8384230e-04  -4.4216431e-04  -1.2217886e-04  -7.3453516e-04
   1.8326509e-04   6.4412656e-05  -1.8771768e-04   4.8768808e-05  -1.0643707e-05  -4.5373610e-05  -1.1033652e-04  -7.0581882e-05   1.3993557e-05  -8.3596417e-05  -8.1761420e-05   9.5967138e-05   1.2819995e-06  -2.0612033e-04  -1.1987401e-04  -9.5250914e-05  -1.5490374e-04  -5.3614360e-05  -1.9326719e-04   5.5132670e-05  -2.8433994e-06   1.7321998e-05  -1.4025506e-05  -2.2353472e-05   1.5430713e-05  -1.1304567e-04  -1.0559220e-04   3.4848599e-05  -8.8442037e-05  -1.9288560e-05  -1.6441820e-04  -4.2518437e-05   4.9385166e-05  -8.4022380e-05  -6.1296676e-05   7.3881088e-06  -9.5775518e-05  -9.1195551e-07  -3.7192185e-05  -7.5668067e-06  -1.8735749e-04  -1.1429251e-05  -4.2312904e-04  -1.6729809e-04  -3.3729477e-05   2.6039372e-05   2.0957537e-04  -2.8110808e-04  -2.4617996e-04  -4.6094083e-05
   2.0820080e-04   6.8126305e-05  -2.0699836e-04   7.1118098e-05  -3.5072611e-05   3.2494514e-05  -9.5327021e-05  -3.9248931e-04  -4.7460799e-05  -6.6653804e-05  -5.8715716e-05   9.7478209e-05   2.4719850e-05  -2.1900858e-04  -5.5224984e-05  -1.6555928e-04  -1.6591976e-04  -7.1070041e-05  -4.3577144e-05   5.9192920e-05  -3.0085632e-06   3.3587246e-05  -1.2690348e-04  -9.4983316e-06  -5.8922720e-05  -1.4078528e-04  -1.1712177e-04   7.9639321e-06  -1.7147137e-05  -2.5474277e-05  -1.3951660e-04  -8.4616528e-05  -8.5884792e-05  -7.8384015e-05  -4.6876477e-05  -4.1091556e-05  -7.1289513e-05   3.6913484e-06  -8.6650849e-05  -5.5434295e-05  -1.0254010e-04  -1.3105606e-04  -5.5176090e-04   4.0593094e-04  -6.0379047e-05  -4.3877732e-04   1.2085072e-04  -6.2906812e-04  -6.9415604e-04  -1.0643515e-03
   1.7290970e-04   6.2158571e-05  -1.8237636e-04   6.8343616e-05  -1.6466638e-05   2.1634509e-05  -1.4706257e-04   3.2156375e-05   1.0206913e-05  -7.2963587e-05  -6.1972263e-05   7.9143385e-05   1.2145262e-05  -1.7707214e-04  -1.3051528e-04  -1.2866769e-04  -1.6853883e-04  -5.7984424e-05  -7.8633246e-05   6.0942137e-05   5.7232896e-06   4.6643163e-06  -2.6431448e-05   1.8195557e-05  -5.1720388e-05  -7.6964250e-05  -2.1915007e-04  -5.8172810e-07  -3.7733567e-05  -4.1681506e-05  -1.7291002e-04  -1.0646740e-04   4.4033033e-05  -4.1265077e-05  -9.8158605e-05   5.5478056e-05   3.4620349e-05  -4.7004887e-05  -1.0535769e-04   5.7049619e-05  -1.7758891e-04  -5.3349577e-05  -2.8194871e-04  -1.8538260e-05  -3.7953007e-05  -1.3472715e-04   1.6814181e-04  -1.3953635e-04   6.3346488e-05  -3.6569347e-04
   2.1376359e-04   7.3055126e-05  -2.0076350e-04   4.8547485e-05  -2.1025400e-05   6.7487650e-05  -1.1556361e-04  -2.5000532e-05  -8.1071055e-05  -6.4750420e-05  -4.6290785e-05   9.6685209e-05   2.9290306e-05  -1.4372038e-04  -1.7069957e-04  -1.3541045e-04  -1.6484570e-04  -6.1070423e-05  -1.1264360e-04   5.4546857e-05   1.8489925e-06   3.4851168e-05  -2.5196146e-05   1.9035607e-08  -3.2067037e-05  -1.0499142e-04  -1.8974666e-04   2.0885846e-06   2.1950576e-05  -3.9246206e-05  -1.1788301e-04  -7.1061411e-05   9.9252225e-05  -3.6822163e-05  -8.4603234e-05   8.6423343e-06   1.3583258e-04  -5.4996181e-05  -1.1873143e-04   7.6977674e-05  -1.2444521e-04  -8.3754428e-05  -2.4043600e-05   2.2852906e-05  -1.4784360e-04  -2.5290943e-04   1.6459715e-04  -2.3407480e-04   9.3146497e-05   6.7229266e-04
   1.1043120e-04   6.3644715e-05  -2.1854084e-04   6.8754103e-05  -4.1074956e-05  -2.1518043e-05  -9.0429814e-05  -4.0323235e-04  -2.9615829e-05  -7.3851785e-05  -5.7302332e-05   6.7101966e-05   3.0820323e-05  -1.4833604e-04  -5.0828534e-05  -8.4532789e-05  -1.5390119e-04  -3.6086836e-05  -2.0128593e-04   7.1848626e-05   1.6795357e-05  -1.9448649e-05  -9.7790644e-06   7.8138082e-06  -1.2626457e-05  -5.3186541e-05  -1.0749043e-04   4.0779025e-05   7.7852361e-05  -3.9113496e-05  -1.5986899e-04  -4.1622436e-05  -3.0583142e-05  -3.9716160e-05  -3.0410432e-05   5.0149365e-06   2.9695901e-05  -6.5939101e-05  -3.5019962e-06   1.2688954e-05  -2.1094254e-05  -4.0470728e-05  -3.4312892e-04   6.4594196e-06  -2.4177727e-05  -1.6988207e-04   2.0016216e-04   2.6353778e-04  -5.6261756e-04  -5.3993211e-04
   1.2596037e-04   6.7644345e-05  -2.1542223e-04   6.4519983e-05  -3.0850544e-05  -5.2189007e-05  -9.1037211e-05  -3.0138281e-05   1.0486786e-05  -5.8863032e-05  -3.8885653e-05   9.2205104e-05   6.5750178e-06  -1.7119272e-04  -1.0517701e-04  -8.6307715e-05  -1.5136365e-04  -4.0225648e-05  -4.6983456e-05   8.8280947e-05   6.6154421e-06   2.3128416e-05  -4.9436381e-05   2.0964731e-05  -1.1468198e-05  -2.7391567e-05  -2.1073601e-04   1.1221161e-05   7.5654127e-05   6.0163361e-06  -1.3800820e-04  -6.5113345e-05  -3.4965309e-05  -4.8351852e-05  -2.3073462e-05  -5.3310764e-06   2.4813582e-04   3.2706273e-05  -7.1261624e-05  -8.7144872e-05  -5.2897763e-06   1.8442288e-05  -2.3367345e-06   9.4929812e-05  -9.7516015e-05  -1.6156996e-04   8.6722677e-05   4.6398854e-04  -6.1511018e-05   8.4064748e-05
   1.4311005e-04   7.0674731e-05  -2.0482052e-04   7.6232733e-05  -4.7234287e-05   3.4481332e-06  -1.5679658e-04  -1.0193594e-04  -2.1430669e-05  -5.7380297e-05  -3.5717865e-05   6.7414003e-05   2.0729813e-05  -1.5406446e-04  -2.4272232e-04  -8.1176768e-05  -1.4938977e-04  -4.2494419e-05  -1.4431778e-05   7.4638905e-05   1.8678991e-05   3.4535340e-05  -4.8602789e-05  -2.2407086e-05   5.8228110e-05  -6.3430940e-05  -2.3601241e-04   4.2659467e-05   2.6308288e-04  -1.1251773e-05  -1.9050049e-04  -7.1607144e-05  -5.7822785e-06  -1.3893681e-04   2.1940990e-05  -2.0094531e-06   1.1887134e-04  -9.9169065e-06  -2.1935331e-05   4.1984968e-05   2.2080867e-05  -8.4845451e-06  -6.9503963e-04  -4.9087842e-04   7.3231712e-07  -1.3390468e-07   1.9929500e-04   2.1753543e-04  -6.9341081e-04  -1.2943243e-03
   1.3948174e-04   6.3267158e-05  -2.0361155e-04   6.2557636e-05  -4.4779252e-05  -1.4211387e-05  -1.2172034e-04  -3.1779429e-05   1.3643452e-04  -4.3709573e-05  -2.5962294e-05   9.1425041e-05   4.7137961e-05  -1.4446781e-04  -1.5238610e-04  -1.0548337e-04  -1.6306777e-04  -3.1797859e-05  -1.0975945e-06   7.8476369e-05   9.2588180e-06   2.3030005e-05  -6.9105085e-06  -4.9105661e-06  -2.2495744e-05  -2.7237558e-05  -1.4740943e-04   3.9606908e-05   1.0016010e-04  -1.0804528e-05  -1.6594656e-04  -4.5660752e-05   1.4128588e-04  -4.2697418e-05   2.0230025e-05   3.8934853e-05   1.8690628e-04  -3.5783276e-05  -6.4183951e-05   1.7911307e-05  -2.1464867e-04   2.1053738e-06   6.0883111e-05  -4.9711147e-04  -1.4729116e-05  -3.5943004e-04   2.3027968e-04   1.7568114e-04  -3.3997261e-04  -6.5434619e-04
   1.4267417e-04   6.5091721e-05  -1.8996318e-04   9.2303293e-05  -3.7859303e-05  -4.0083294e-05  -1.2215816e-04  -3.1294164e-04   1.0896492e-04  -3.1142514e-05  -1.6243988e-05   9.1398688e-05   6.8618887e-05  -1.1839298e-04  -1.1816923e-04  -8.2753846e-05  -1.3511296e-04  -2.7412099e-05  -1.3824923e-05   9.4514828e-05   1.2027995e-05   3.7173417e-05  -2.4476691e-05   3.0268835e-05  -6.4950873e-05   2.3746727e-05  -4.0289378e-05   4.1329113e-05  -1.7652492e-05  -1.2949760e-05  -9.9192257e-05  -2.8596984e-05   1.5134060e-04  -6.2774656e-05  -1.1553696e-05   8.1816015e-06  -1.1234539e-04  -3.3380020e-05  -5.6975903e-05  -1.8139320e-04  -7.4908414e-05   1.0261332e-05  -2.6654423e-04   7.5574811e-05  -8.1093400e-05  -6.4330881e-05   2.5835884e-04   6.5209088e-04  -4.1232747e-04  -1.5703982e-03
   1.2579803e-04   6.6826309e-05  -2.1459305e-04   7.1342336e-05  -8.1042763e-06  -1.6084838e-05  -4.1223666e-05   1.5590274e-05   9.6626289e-05  -4.0504478e-05  -3.2150911e-05   8.2929968e-05   4.9571590e-05  -1.8147842e-04  -2.6882866e-05  -1.1568123e-04  -1.3418787e-04  -3.7693026e-05  -7.8248202e-05   8.4962456e-05   1.6677515e-05   4.1287953e-05  -4.7645415e-05   3.1011768e-05   3.5424237e-05   1.1616603e-05  -2.2531515e-04   3.6836762e-05   8.2225524e-05   3.3818706e-05  -1.7722227e-04  -4.9173519e-05   1.3537046e-04  -4.3926295e-05  -7.0907336e-06  -7.8898018e-05   1.2892345e-04  -7.1828904e-06  -2.6613869e-05  -2.6177975e-05  -1.1022687e-04  -3.6353827e-05  -8.8584668e-04  -6.4671377e-04   2.1905018e-05  -1.5398832e-04   2.5960646e-04   5.9415027e-04  -5.5718009e-04  -9.8574709e-04
   1.1571644e-04   6.6019158e-05  -1.7378668e-04   7.6586701e-05  -1.7356278e-05   6.8042660e-05  -7.4379954e-05  -7.5577038e-05   7.8677636e-05  -1.8618033e-05  -4.6845162e-06   8.8050030e-05   5.8213482e-05  -1.4038155e-04  -7.7587283e-05  -4.5858433e-05  -1.2451655e-04  -4.3222193e-05  -2.1085589e-05   8.7791508e-05   1.8285391e-05   6.4704167e-05   5.9734797e-05  -1.9783714e-07   3.5957852e-05  -1.1214513e-05  -2.0779298e-04   2.2944670e-05  -5.4468816e-05   3.4373454e-05  -1.1199406e-04  -6.3850122e-05  -3.5925270e-05  -5.8062786e-05   8.6607652e-06   4.1994273e-05  -1.8442741e-04   3.4919431e-05  -2.1278916e-05   3.7368143e-05  -4.5444710e-07   6.7495872e-05  -8.7051076e-04  -1.4922189e-04  -7.4515541e-05   4.8423684e-05   1.9450119e-04  -5.9638079e-04   3.7358997e-05  -1.5941594e-04
   1.4902352e-04   6.4207503e-05  -1.8678002e-04   7.1408489e-05  -2.7228436e-05  -6.3153884e-06  -2.1478048e-05  -1.3991438e-04   1.0402395e-04  -8.2249380e-06  -8.5426145e-06   8.0261016e-05   8.6189997e-05  -1.7010974e-04  -7.2575793e-05  -1.0666646e-04  -1.1385135e-04  -4.5042270e-05  -7.9925841e-05   1.0677891e-04   2.5265064e-05   2.5528589e-05   6.6612731e-05   4.2513602e-05   6.1412611e-05  -2.9377059e-05  -1.5521132e-04   3.4202338e-05   1.6235058e-04   6.6383946e-05  -1.4681061e-04  -4.9501727e-05   3.5545345e-05  -3.8312854e-05   3.0894792e-06   3.0783773e-05   3.1176841e-04  -4.2044303e-05  -4.7826870e-05   2.7025490e-05   8.3770108e-05   2.7824297e-05  -2.9943237e-04  -3.5997835e-04  -8.0026648e-06  -8.9870286e-05   2.2580965e-04  -2.5049248e-04   1.7207018e-04  -5.9841166e-04
   1.2245157e-04   6.4130661e-05  -1.9214593e-04   8.1455968e-05  -3.2375563e-05   2.4689542e-05  -4.4968667e-05  -7.6106633e-05   1.9837050e-04   4.2361839e-06   2.4351686e-05   9.3053452e-05   7.2633120e-05  -1.9729399e-04  -2.1667176e-05  -1.0235541e-04  -1.1723562e-04  -6.1335544e-05   5.1489937e-05   1.1335457e-04   9.4780698e-06   1.2568071e-05  -2.5250545e-05   7.7015888e-05  -6.5727349e-05   1.6242493e-05  -1.1709057e-04   1.7856108e-05   2.1118347e-05   2.9768315e-05  -1.0511844e-04  -7.3913179e-05  -2.4380706e-05  -2.2927132e-05   4.5626092e-07  -3.7696907e-05   4.7250865e-05  -1.5949077e-05  -2.9895924e-05   2.4644814e-05  -4.0253657e-05   5.8588619e-05   1.5605446e-04   1.1480363e-03   1.5702917e-05   1.0991411e-04   1.7147353e-04   6.3050698e-05  -1.8134434e-04   4.6996141e-04
   1.5829732e-04   6.9060501e-05  -1.6975692e-04   8.3038925e-05  -3.0308966e-05  -3.2013624e-05  -5.3367738e-05  -5.4884051e-05   4.0945240e-05   6.9399034e-06  -2.0629807e-06   5.6543176e-05   6.6324101e-05  -1.6856070e-04  -1.5525826e-06  -7.7036981e-05  -1.0926878e-04  -6.3503387e-05   6.4996748e-05   1.0945553e-04   2.7927683e-05  -4.2358402e-05   6.1380742e-05   9.6574164e-05   4.3897042e-05   1.5202308e-05  -1.1508469e-04   1.6699774e-05  -1.2849322e-04   3.8376165e-05  -1.2336444e-04  -6.9685819e-05   1.2253388e-04  -3.5946350e-06  -4.1807903e-06  -4.4812703e-05   9.8148332e-05  -4.5803909e-06  -3.8185004e-05  -1.1196373e-04  -7.7972480e-05   1.0861408e-04   2.6219382e-04  -2.9537556e-04   3.1487285e-05  -9.1040791e-05   1.3012688e-04  -3.8276575e-04  -7.2822077e-05   3.9926328e-04
