   3.0167200e-04   2.6597155e-04   3.5920792e-04   2.2720762e-04   1.5332796e-04   4.7765794e-04   5.3699053e-04   4.7167420e-04   7.8558910e-04   6.2489457e-04   8.6965249e-04   3.1635171e-04   3.9837247e-04   1.0830975e-05   4.6413878e-04   1.7898560e-04   2.8317675e-04   3.3233933e-05   7.3266745e-04   3.0066885e-04   2.3943574e-04   5.5734219e-04   3.9353917e-04   2.9069305e-04   2.2982324e-04   4.1928596e-04  -3.8611572e-04  -1.5365095e-04  -8.0216392e-05   4.1203655e-04   2.3073060e-04  -1.3188600e-04   1.0120731e-03   2.3167547e-04   3.9055693e-04   6.1441853e-04   6.6838367e-04   2.1164601e-04   4.8765092e-04   6.8678643e-04   7.7130966e-04   6.2784180e-04   1.6194739e-03   1.7453048e-03   5.1571662e-04   8.5618941e-04   1.1700564e-03   1.0548443e-04   1.2602264e-03   9.4669336e-04
   1.4629989e-04   2.7158568e-04   3.2150751e-04   2.2172072e-04   1.0406409e-04   4.1845182e-04   5.0690986e-04   4.5130056e-04   9.1940508e-04   6.6163111e-04   8.9165254e-04   4.1851171e-04   4.0236977e-04  -6.4244428e-05   5.5809558e-04   1.3409150e-04   1.7670522e-04   5.0087176e-05   8.1613805e-04   3.1786581e-04   2.7929773e-04   6.0645089e-04   4.4882612e-04   3.9974129e-04   1.9939066e-04   4.1198177e-04  -2.6312107e-04  -1.3850509e-04  -1.5381327e-05   4.5274856e-04   1.2710928e-04  -1.1809867e-04   6.8528950e-04   1.7734118e-04   3.9763557e-04   4.3750321e-04   4.9036636e-04   2.0422855e-04   4.6007446e-04   6.3939200e-04   5.0272880e-04   5.9262011e-04   8.2267617e-04   1.2928956e-03   6.4832944e-04   7.4618310e-04   1.2516623e-03   6.5399753e-04   4.1092612e-04   7.5245125e-04
   9.4591822e-05   2.7034758e-04   3.4010876e-04   2.1263353e-04   1.3980220e-04   4.4195581e-04   5.2028883e-04   2.5400077e-04   7.0083985e-04   6.2806474e-04   8.5070170e-04   4.0895166e-04   4.2126115e-04  -9.0155307e-05   4.1528113e-04   1.5902770e-04   1.5404000e-04   1.0464111e-04   7.1058969e-04   3.2277429e-04   2.7689259e-04   6.5396586e-04   5.4944324e-04   3.9903075e-04   1.6093141e-04   4.2143595e-04  -3.7605202e-04  -1.4326070e-04   1.4867750e-04   3.9536040e-04   9.2119386e-05  -1.5950750e-04   8.9247403e-04   1.7469107e-04   3.3864868e-04   4.0993904e-04   4.0176895e-04   1.4977047e-04   4.7117309e-04   6.6392985e-04   5.5516447e-04   4.7742354e-04   1.4096634e-03   1.0118359e-03   5.5710418e-04   7.4056315e-04   1.1811877e-03  -1.6108871e-04   5.5852433e-04   3.3488806e-04
   5.4975164e-05   2.7499412e-04   2.7181325e-04   2.0453482e-04   1.1909506e-04   3.6156480e-04   5.4114009e-04   2.9607967e-04   8.1661111e-04   5.9883425e-04   8.9037209e-04   3.4485705e-04   4.0999614e-04  -5.8223111e-05   4.7783449e-04   1.2158632e-04   1.9482215e-04  -8.5406464e-06   7.7571953e-04   2.8854964e-04   2.5670795e-04   5.9314858e-04   4.1544982e-04   3.0516725e-04   1.2886520e-04   4.1896180e-04  -3.9916116e-04  -2.0549688e-04   5.4012111e-05   4.0713276e-04   6.3227337e-05  -2.5445377e-04   7.8592735e-04   7.5827113e-05   3.3641854e-04   4.2610106e-04   7.0198678e-04   1.6311642e-04   5.6102511e-04   7.0393959e-04   5.6801067e-04   5.8876805e-04   1.6342308e-03   1.6261295e-03   5.8103527e-04   8.9750468e-04   1.0356903e-03   2.5644273e-05   5.5224152e-04   4.8607626e-04
   4.4054683e-05   2.5866777e-04   2.9198141e-04   1.9820695e-04   1.2679245e-04   4.0051716e-04   4.8502453e-04   4.0836315e-04   7.6629367e-04   5.4799218e-04   8.3293510e-04   3.3576376e-04   3.6479061e-04  -1.2209000e-04   5.5197946e-04   1.0628949e-04   1.7639212e-04  -2.0150401e-06   8.0387259e-04   2.8848313e-04   2.5459679e-04   6.2818866e-04   4.2108048e-04   3.0623365e-04   1.1304204e-04   3.8824099e-04  -3.6718286e-04  -1.8583133e-04   3.6720729e-05   4.4880298e-04   1.6699705e-04  -2.4538688e-04   7.6939049e-04   1.5881687e-04   3.9075682e-04   4.2128214e-04   4.9203174e-04   1.2860225e-04   5.1677239e-04   7.1474997e-04   4.4943171e-04   4.6017818e-04   1.1024929e-03   7.7099341e-04   6.0563139e-04   7.5123121e-04   1.1599428e-03   4.1373869e-04   4.2298093e-04   1.3252487e-03
   8.3089872e-05   2.7619608e-04   2.2400059e-04   2.1244123e-04   7.2471797e-05   3.9540121e-04   4.4157807e-04   3.5373258e-04   6.6401280e-04   5.7277095e-04   8.3441258e-04   4.3304931e-04   3.6688542e-04  -2.1516962e-04   3.0433940e-04   1.8366680e-05   8.4762345e-05  -2.7350357e-05   6.1361759e-04   2.8196242e-04   2.7050806e-04   5.6611787e-04   3.7911156e-04   3.0536327e-04   1.0506502e-04   4.1974732e-04  -6.3618965e-04  -2.0376933e-04   6.9846312e-05   3.8593056e-04  -4.8400748e-06  -2.2126280e-04   8.6577644e-04   1.5135141e-04   3.6362410e-04   5.1783695e-04   3.5288010e-04   1.9040344e-04   5.0174468e-04   5.5040553e-04   5.0421391e-04   4.8052304e-04   1.2925487e-03   1.0284279e-03   5.4391241e-04   9.2544034e-04   1.1820100e-03  -1.9417494e-04   8.1246858e-04   4.4084998e-04
   2.1796269e-04   2.8614479e-04   2.3648582e-04   2.4465853e-04   1.1426722e-04   4.2927542e-04   4.9019291e-04   4.5757325e-04   6.0058839e-04   5.5099651e-04   7.9032063e-04   4.5867672e-04   3.7652822e-04  -2.1815192e-04   3.4111817e-04   2.1610733e-05   1.9315095e-05  -7.5034084e-05   6.6261768e-04   3.0055642e-04   2.9441979e-04   6.0946908e-04   3.9708626e-04   2.8811523e-04   6.5352491e-05   3.5393288e-04  -5.7930982e-04  -2.1969220e-04  -1.2297337e-05   4.0558449e-04  -5.3938733e-05  -2.5968961e-04   6.4186583e-04   1.2563588e-04   3.7124113e-04   3.9125362e-04   4.2369656e-04   1.3075402e-04   4.1657983e-04   6.4006302e-04   4.7538328e-04   5.0411449e-04   8.3201478e-04   7.8945671e-04   5.4579554e-04   5.5586541e-04   1.1900683e-03   7.2253111e-04   9.4084680e-04   2.9867713e-05
   4.3803793e-05   2.9575941e-04   2.1078142e-04   2.5167988e-04   1.0488968e-04   3.2966846e-04   4.3996263e-04   3.2903461e-04   6.8482972e-04   5.3994084e-04   7.8097871e-04   4.6652684e-04   3.5364702e-04  -2.9221573e-04   3.4702916e-04  -7.0065151e-05  -2.0943153e-05  -7.1921473e-05   4.9096229e-04   2.7766032e-04   2.7955158e-04   6.1752612e-04   3.2851959e-04   2.0320808e-04   1.0240968e-04   4.5306855e-04  -6.3793262e-04  -2.4321910e-04   1.6036203e-05   3.6296208e-04  -1.0083784e-04  -2.9281902e-04   8.0507318e-04   1.2348924e-04   4.0402196e-04   3.9770643e-04   5.1599561e-04   9.4314491e-05   4.7709589e-04   6.3593051e-04   5.4262497e-04   3.9769657e-04   6.6327729e-04   1.2382271e-03   6.3051912e-04   7.3944178e-04   1.2563504e-03  -1.1647393e-04   8.9424680e-04  -9.7075397e-05
  -5.5520532e-06   2.9212789e-04   1.9672769e-04   2.5435607e-04   7.0719121e-05   3.1987147e-04   4.1815187e-04   2.0163821e-04   5.4494850e-04   4.8939168e-04   7.4346113e-04   4.0376943e-04   3.6902897e-04  -2.5753735e-04   3.4955348e-04  -1.1567287e-05   2.6266893e-05  -5.1590276e-05   5.5086776e-04   2.6193986e-04   2.7296398e-04   6.4144511e-04   3.6272581e-04   2.4826633e-04   7.0355862e-05   3.6089218e-04  -5.8854930e-04  -2.4995080e-04   1.0777590e-04   3.6265244e-04  -3.3928154e-05  -2.9123577e-04   6.2397274e-04   1.0312100e-04   3.5195611e-04   3.2525996e-04   3.3660550e-04   1.3438961e-04   4.6542985e-04   5.6957029e-04   3.7545394e-04   3.8222046e-04   1.0472398e-03   7.8808778e-04   5.4435240e-04   7.0988853e-04   1.1189292e-03  -7.8217610e-04   7.3294307e-04  -3.1358466e-04
   8.5315551e-05   2.8571844e-04   2.2506461e-04   2.1286275e-04   9.4749455e-05   3.1919684e-04   3.9412035e-04   1.0103784e-04   6.7630614e-04   4.7099718e-04   7.3342194e-04   3.8569604e-04   3.4556459e-04  -2.4013862e-04   3.9878432e-04  -4.3658354e-05   2.8860517e-05  -3.6966889e-05   6.2996882e-04   2.5070200e-04   2.4769167e-04   6.1853277e-04   4.0886665e-04   1.0178523e-04   6.4123378e-05   3.8176883e-04  -5.5883959e-04  -2.4247679e-04   4.4228236e-05   3.3332381e-04  -4.3937118e-05  -2.9164573e-04   8.9066155e-04   8.6701242e-05   3.0042147e-04   3.7101598e-04   4.5097264e-04   5.2106545e-05   4.6299241e-04   6.1822892e-04   3.4219548e-04   4.5947175e-04   8.4522140e-04   7.2844711e-04   5.3580193e-04   7.5556338e-04   1.1972868e-03   1.6663526e-03   4.8315641e-04   8.7455375e-04
   1.3358766e-05   2.8200229e-04   1.8794465e-04   2.1708310e-04   6.1161132e-05   3.1155255e-04   4.0149028e-04   1.0190783e-04   4.8841129e-04   4.4121951e-04   6.9062767e-04   3.9613937e-04   3.4981375e-04  -3.5669914e-04   2.2198587e-04  -2.7941869e-05  -1.0896289e-05  -3.8494032e-05   5.3449516e-04   2.3643544e-04   2.6426857e-04   6.2934414e-04   3.4432940e-04   1.8694592e-04   1.0484169e-06   4.6074486e-04  -6.7954580e-04  -2.8889425e-04   1.8461682e-05   3.0971237e-04  -8.9711328e-05  -2.9693995e-04   8.1763486e-04   9.1869399e-05   3.0469967e-04   3.2282833e-04   4.6855095e-04   6.2377978e-05   4.0541968e-04   4.6095197e-04   1.9297046e-04   3.9957854e-04   1.3315362e-03   1.2822464e-03   5.6507974e-04   5.9695548e-04   1.2337941e-03   1.8837487e-03   2.6362110e-04   1.3748198e-03
  -4.2412717e-05   2.7408410e-04   1.9936127e-04   2.1320784e-04   1.0455999e-04   3.5193985e-04   3.7638511e-04   1.2573166e-04   5.2366144e-04   4.0704620e-04   6.8198534e-04   3.8899481e-04   3.2406274e-04  -2.4852855e-04   2.1425114e-04  -4.2102449e-05  -1.7206768e-05  -1.7352106e-05   4.3945521e-04   2.3464377e-04   2.4867777e-04   6.4553582e-04   2.8223582e-04   1.4937877e-04  -4.6981182e-05   2.8981402e-04  -6.4794777e-04  -2.7601109e-04  -6.1977196e-05   3.4132935e-04  -7.7381017e-05  -2.3904897e-04   7.4730668e-04   8.1524951e-05   2.8722949e-04   2.8979988e-04   3.7971971e-04   3.1119736e-05   4.5400791e-04   4.2770308e-04   4.9590436e-04   4.1765504e-04   1.2078347e-03   1.6051162e-03   5.0476519e-04   4.8591886e-04   1.1844974e-03   1.1358089e-03   9.1383851e-04   5.5960063e-05
  -1.2444714e-06   2.7812526e-04   1.7522114e-04   2.0872180e-04   3.3424687e-05   2.5921094e-04   3.6800993e-04   1.1783514e-04   4.5869476e-04   3.9353088e-04   6.6118484e-04   3.8716616e-04   3.2504665e-04  -3.6885502e-04   3.0561234e-04  -6.6211491e-05  -5.4174183e-05  -1.9577563e-05   4.9897720e-04   2.3637258e-04   2.5275585e-04   6.1826297e-04   3.5854592e-04   1.9124457e-04  -2.4127119e-05   3.2534340e-04  -6.3221040e-04  -3.0631261e-04   2.7442529e-05   2.7186982e-04  -1.3075116e-04  -2.8363348e-04   5.9206143e-04   7.8949932e-05   3.2491612e-04   3.3450738e-04   1.9140425e-04   4.8100850e-05   3.9559961e-04   6.2124926e-04   3.5888408e-04   4.0319850e-04   5.0536654e-04   1.0309078e-03   5.2996661e-04   4.7423108e-04   1.1673655e-03   3.3458709e-04   5.5615581e-04   5.5893621e-04
  -1.0667784e-04   2.7225056e-04   1.8168690e-04   1.9264186e-04   6.7169625e-05   2.3157401e-04   2.9698972e-04   2.9258020e-04   3.6194260e-04   3.6188608e-04   6.0458365e-04   3.6291539e-04   2.9313235e-04  -3.5652606e-04   3.3625928e-04  -2.4514437e-05  -6.6976536e-05  -1.0110502e-05   4.1287186e-04   2.2099253e-04   2.8200189e-04   6.3749438e-04   3.3429850e-04   1.3733514e-04  -8.1462989e-05   3.3311066e-04  -5.7745544e-04  -3.2761306e-04   2.6593258e-04   2.8215602e-04  -1.4226552e-04  -2.9704612e-04   5.9371011e-04   3.5501398e-05   2.7631340e-04   2.8540735e-04   2.5251025e-04   7.7403281e-05   5.1860663e-04   4.1742052e-04   2.4496761e-04   3.1193582e-04   9.6208067e-04   1.2812370e-03   4.5233470e-04   6.3228572e-04   1.1864384e-03   9.2959893e-04   8.6798053e-04   1.7119142e-03
   3.5640267e-05   2.7905725e-04   1.5180906e-04   1.9758154e-04   4.3954482e-05   2.0532130e-04   3.4760893e-04   1.6763552e-04   3.6784995e-04   3.4779622e-04   6.2136701e-04   3.6564088e-04   3.2452543e-04  -3.8814597e-04   1.9024835e-04  -5.3221596e-05  -7.2122246e-05  -2.5830210e-05   3.2319044e-04   1.9309286e-04   2.5135541e-04   6.1058631e-04   2.9318893e-04   1.8939155e-04  -8.4712128e-06   2.7355016e-04  -6.8606023e-04  -3.2984812e-04   1.7947689e-04   2.5976062e-04  -1.8378336e-04  -3.7256128e-04   7.2958483e-04  -2.2513583e-05   2.4522553e-04   1.7439442e-04   3.5794385e-04   1.7359116e-05   4.5415203e-04   3.6198614e-04   9.8127704e-05   3.8500412e-04   4.3284419e-04   1.1125876e-03   4.3350182e-04   9.4213331e-04   1.0890968e-03   6.7506224e-04   3.6126468e-04   3.8092004e-04
  -5.5280459e-05   2.6783335e-04   1.7873876e-04   1.9859675e-04   4.0615574e-05   2.2889923e-04   3.3433895e-04   2.7196214e-04   3.4947388e-04   3.3062755e-04   5.8172911e-04   3.5116615e-04   2.9625991e-04  -3.7386219e-04   2.3277133e-04  -2.9639306e-05  -7.9940517e-05  -3.4577632e-05   4.3358706e-04   1.9632712e-04   2.6890889e-04   6.2418228e-04   2.9448987e-04   1.3296488e-04   6.6750031e-06   2.9301216e-04  -6.4622815e-04  -3.5851650e-04   2.6687505e-05   3.1726711e-04  -1.5409854e-04  -3.6955884e-04   7.0744060e-04   6.0729832e-07   2.2005267e-04   2.8583480e-04   3.0129941e-04   7.0865921e-05   4.1663082e-04   5.1244791e-04   1.9076855e-04   3.2954459e-04   8.9215284e-04   1.5892638e-03   5.6003226e-04   9.1268565e-04   1.1586320e-03  -3.2536837e-04   3.9312095e-04   1.1690351e-03
  -1.5004401e-04   2.6427468e-04   1.4878283e-04   1.9741377e-04   7.3024938e-05   2.4770404e-04   3.3630655e-04   1.8626245e-04   3.3161981e-04   3.1697511e-04   5.6431850e-04   3.9347171e-04   2.7152008e-04  -3.9466561e-04   3.0406268e-04  -7.5432821e-05  -1.2916856e-04  -3.8889968e-05   3.8694366e-04   1.8844368e-04   2.6381842e-04   6.6097250e-04   3.1921230e-04   1.0761768e-04  -3.4873170e-05   3.5499324e-04  -7.4568449e-04  -3.7078033e-04   2.4749512e-05   2.2575668e-04  -2.1705926e-04  -3.5218569e-04   5.8812456e-04  -6.3136977e-05   2.0945430e-04   2.8483869e-04   3.3052644e-04   7.9366664e-06   3.7291858e-04   4.2698326e-04   9.0486843e-05   2.9261564e-04   9.4181282e-04   8.7948982e-04   4.7966180e-04   8.1131572e-04   1.2047128e-03   6.7721430e-04   7.7619404e-04  -1.2711727e-04
  -3.8630678e-05   2.7739274e-04   1.4799827e-04   1.7545294e-04   3.9784605e-05   1.7814508e-04   2.7672807e-04   1.2911901e-04   2.6187830e-04   3.4264391e-04   5.5505714e-04   4.4108747e-04   2.8499658e-04  -4.6584272e-04   2.9436432e-04  -1.1739614e-04  -1.5252367e-04  -4.3636381e-05   4.3291104e-04   1.9762764e-04   2.8275899e-04   6.2979653e-04   3.5950751e-04   5.5531684e-05  -1.4162247e-04   3.0260923e-04  -7.8299036e-04  -3.9196579e-04  -1.9856792e-05   2.3148500e-04  -2.4887518e-04  -3.5046219e-04   4.5911290e-04  -2.6911961e-05   1.5570580e-04   2.4688430e-04   6.3768435e-05  -1.7773216e-05   3.4136977e-04   4.1643062e-04   1.3636040e-04   4.6830528e-04   7.4236823e-04   7.7952468e-04   5.2758207e-04   4.6714509e-04   1.2063903e-03   6.1563088e-04   4.2098225e-04   8.9389383e-04
   3.3048920e-05   2.6872123e-04   1.5990615e-04   2.0404620e-04   9.2038339e-05   2.6136311e-04   3.1778138e-04   7.7506265e-05   2.0593592e-04   3.3559126e-04   5.2790449e-04   3.9740928e-04   3.0721928e-04  -4.0166278e-04   2.5810045e-04  -4.4603508e-05  -1.3372871e-04  -7.4170333e-05   4.3357341e-04   1.9837487e-04   2.9997510e-04   6.5745338e-04   2.9790471e-04   1.6782993e-04  -4.3006759e-05   2.7683744e-04  -6.9487066e-04  -4.0112884e-04  -1.4844327e-04   2.5971522e-04  -2.8891361e-04  -3.8462839e-04   6.2108180e-04  -4.9748614e-06   2.8839367e-04   2.9200362e-04   4.2892114e-04   4.6022014e-05   3.6325358e-04   3.3228629e-04  -2.3386145e-05   3.6721656e-04   1.5495111e-03   6.7520456e-04   4.8585157e-04   7.8102789e-04   1.1781902e-03   9.1057515e-04   6.6067776e-05  -1.2098734e-04
  -7.8632684e-06   2.6943095e-04   1.2183703e-04   1.9221120e-04   5.5858363e-05   1.8034357e-04   2.5629695e-04  -1.4215190e-04   3.3132362e-04   3.4357200e-04   5.4497743e-04   4.5203234e-04   2.9241032e-04  -4.6481824e-04   1.4365694e-04  -1.4088451e-04  -1.6375708e-04  -8.9515117e-05   4.8546889e-04   1.9540853e-04   2.9533519e-04   5.9890392e-04   2.6034305e-04   6.6910150e-05  -9.3381714e-05   2.9698914e-04  -7.5280893e-04  -4.0432584e-04   7.4661439e-05   2.0932053e-04  -2.4418917e-04  -3.5265720e-04   5.3248944e-04   3.9032264e-05   2.7843984e-04   1.9261969e-04   2.5968926e-04   1.4068812e-06   4.3490692e-04   3.1887210e-04   1.2540215e-04   3.5221275e-04   1.1778583e-03   1.6331805e-03   4.4690649e-04   6.1335776e-04   1.2811936e-03   1.8194806e-03   1.0128584e-03  -2.3667843e-04
  -5.4099481e-05   2.6645436e-04   1.4747796e-04   1.9482814e-04   6.0076698e-05   1.7503349e-04   3.1911844e-04   4.1172325e-04   1.5354922e-04   3.3616411e-04   5.3185673e-04   4.1106757e-04   2.8945770e-04  -4.2934573e-04   1.4119492e-04  -1.0111216e-04  -1.6554925e-04  -8.5897278e-05   3.9903109e-04   1.8314744e-04   3.0168996e-04   6.3356268e-04   2.9921933e-04   9.8572025e-05  -1.4368199e-04   3.1720623e-04  -7.2542508e-04  -4.0334664e-04  -1.2099196e-05   2.4904011e-04  -3.1683160e-04  -4.1846817e-04   6.0063659e-04  -8.2358325e-05   1.3085082e-04   1.7463182e-04   1.9477902e-04   2.4224768e-05   3.0732871e-04   3.4708716e-04   1.1696795e-04   3.4915964e-04   2.5888573e-04   1.0526683e-04   4.7572813e-04   5.0046900e-04   1.2194511e-03   8.0499536e-04   3.2535795e-04   6.6487154e-04
   1.0383951e-05   2.7478262e-04   1.5834534e-04   1.9243790e-04   8.1557591e-05   2.1863468e-04   3.0403875e-04  -5.5247958e-05   3.0112200e-04   3.2655583e-04   5.1158213e-04   4.0921473e-04   2.7175021e-04  -3.7680057e-04   2.3149315e-04  -1.1851183e-04  -1.4158900e-04  -1.0168640e-04   3.7997152e-04   1.9032080e-04   2.9426324e-04   5.9133384e-04   3.7297542e-04   1.7101425e-04  -1.2484749e-04   3.1602680e-04  -6.9081131e-04  -3.8827435e-04   1.7170144e-04   2.1385861e-04  -2.3830075e-04  -3.9706012e-04   6.8863767e-04  -8.9325178e-05   2.1444020e-04   5.4828073e-05   2.4286720e-04  -6.6002767e-06   3.8648059e-04   3.8186109e-04   2.4496368e-04   3.8776459e-04   2.5996054e-04   4.2155961e-04   4.3958385e-04   7.4519118e-04   1.2576639e-03   1.2101540e-03   4.2544553e-04   4.6442822e-04
  -2.7718374e-05   2.5601307e-04   1.5908327e-04   1.7436173e-04   8.5583932e-05   2.1908090e-04   2.9643820e-04   3.6881909e-05   2.9358186e-04   3.2826726e-04   4.9497257e-04   3.7601113e-04   2.9347782e-04  -4.0591517e-04   2.0408139e-04  -1.0364049e-04  -1.1080071e-04  -1.0246627e-04   4.4991722e-04   1.8765264e-04   3.1136771e-04   5.9834059e-04   2.3368133e-04   1.5000100e-04  -1.2983290e-04   2.6645471e-04  -6.2663417e-04  -4.1753176e-04   5.5919900e-06   1.8127839e-04  -2.1653283e-04  -3.8711302e-04   7.2621420e-04  -6.4784283e-05   1.9402486e-04   2.7910157e-04   4.3837327e-04  -2.1007598e-05   4.1162077e-04   3.2236491e-04   1.4366121e-04   3.9706132e-04   8.5749803e-04   1.1825979e-03   4.4404907e-04   7.0131023e-04   1.1997808e-03   1.3306828e-03   3.0115331e-04   1.0919193e-04
   1.0984625e-05   2.5736939e-04   1.7518613e-04   1.7295599e-04   1.0801765e-04   1.7480181e-04   3.1226932e-04   9.6887212e-05   8.0805628e-05   3.1944018e-04   4.5303491e-04   3.3771049e-04   2.6715131e-04  -3.6441965e-04   2.1165003e-04  -1.3207675e-04  -7.4312149e-05  -1.0731278e-04   4.7261620e-04   1.7965093e-04   3.2218755e-04   6.0788164e-04   4.0174910e-04   1.1875613e-04  -1.5778083e-05   2.6539678e-04  -6.9037324e-04  -4.1112743e-04   9.6356300e-05   2.3369800e-04  -1.8989159e-04  -4.1835723e-04   4.2805224e-04  -3.6155696e-05   1.2696850e-04   2.0204925e-04   1.7794486e-04   2.8825463e-05   3.4431648e-04   4.7102690e-04   3.8101905e-04   3.4800961e-04   5.1543734e-04   8.1336760e-04   4.1333304e-04   5.0925481e-04   1.2541153e-03   1.2828334e-03   3.4323471e-04   4.0769955e-05
  -1.3714625e-05   2.5157770e-04   1.7656175e-04   1.6846931e-04   1.0182020e-04   1.7941784e-04   3.1336900e-04   1.6972161e-04   2.3341249e-04   3.3455892e-04   4.6863049e-04   3.4248023e-04   2.9205997e-04  -3.2709492e-04   3.4200473e-04  -1.0878340e-04  -6.2836545e-05  -1.1831272e-04   5.0347263e-04   1.6949886e-04   2.9407354e-04   5.8234954e-04   3.0957442e-04   1.3885608e-04  -2.2526541e-05   4.1629325e-04  -5.1131198e-04  -4.2497308e-04   7.1668459e-05   2.1637640e-04  -1.8257838e-04  -4.3579770e-04   4.8758421e-04  -9.6636402e-05   1.9705693e-04   8.7488996e-05   1.7933897e-04  -2.5428957e-05   3.3747399e-04   2.6528112e-04   8.9107169e-05   3.8198647e-04   1.1365910e-03   6.1055186e-04   4.0015415e-04   6.2707008e-04   1.2802214e-03   1.1311484e-04   7.1853213e-04   9.3565584e-04
  -2.0855303e-05   2.4360478e-04   2.0493615e-04   1.6806087e-04   9.6897013e-05   2.2609450e-04   3.0275589e-04   1.1530481e-05   2.2292939e-04   3.2791559e-04   4.3512945e-04   3.1108418e-04   2.7584037e-04  -3.1490996e-04   2.4486074e-04  -9.9131132e-05  -4.2642321e-05  -1.2380647e-04   4.2258354e-04   1.7121325e-04   3.1797553e-04   5.4371374e-04   2.2164946e-04   1.5913195e-04  -1.1974837e-04   2.5639212e-04  -6.1074295e-04  -4.1879629e-04  -1.5343579e-04   2.2829130e-04  -1.7438277e-04  -4.2685884e-04   2.5263996e-04  -1.2631559e-04   1.9449343e-04   2.1819296e-04   4.4136724e-04   2.4587673e-05   3.6662605e-04   3.2314239e-04   2.7738643e-04   3.0835904e-04   7.8127231e-04   5.7833787e-04   4.2687333e-04   4.2169375e-04   1.1959600e-03   1.2327754e-03   8.3037035e-04  -7.0558267e-04
   9.6600255e-05   2.4716614e-04   1.7658396e-04   1.3897671e-04   9.3338087e-05   2.5259177e-04   2.7599651e-04  -8.6148693e-06   3.1985596e-04   3.4504134e-04   4.7402509e-04   3.8751439e-04   2.7076571e-04  -3.7013370e-04   1.9639240e-04  -1.2858555e-04  -1.0398286e-04  -1.1632305e-04   3.9769427e-04   1.7250994e-04   3.0195597e-04   5.4227555e-04   2.8659927e-04   1.6956202e-04  -5.7624075e-05   2.7166691e-04  -6.7096530e-04  -4.0604454e-04   5.8479676e-05   1.9101749e-04  -2.7597684e-04  -4.6064297e-04   5.0872058e-04  -9.8815151e-05   1.6536315e-04   2.3838444e-04   1.3259851e-04   3.0338722e-05   3.5551228e-04   3.0754687e-04   2.6581730e-04   3.2215664e-04   1.5206940e-03   6.6986965e-04   4.2038958e-04   5.7186000e-04   1.2277931e-03   8.0841250e-04   5.6473853e-04   4.7405568e-04
   3.0833442e-05   2.5129205e-04   1.6491459e-04   1.4598279e-04   1.0766057e-04   1.9741089e-04   2.8434218e-04  -5.8901471e-05   2.7899479e-04   3.5071798e-04   4.7655962e-04   4.0794848e-04   2.9574070e-04  -3.7902413e-04   2.8567479e-04  -6.9485366e-05  -1.2199303e-04  -1.0583085e-04   4.9531547e-04   1.8260212e-04   3.1027722e-04   5.8664154e-04   3.3161321e-04   2.0923968e-04  -1.2159580e-04   2.1101616e-04  -5.7689351e-04  -4.3222081e-04  -2.4251014e-04   2.4808481e-04  -2.5514723e-04  -4.5951814e-04   7.1988202e-04  -1.2350018e-04   1.4594008e-04   2.6212187e-04   6.9022812e-05   2.3914712e-05   3.5879257e-04   3.3010807e-04   3.4522760e-04   3.3935445e-04   9.6511916e-04   9.5547538e-04   4.5814810e-04   4.1775289e-04   1.2030336e-03   1.8210812e-04   3.3783051e-04   1.7301097e-04
   1.3429698e-04   2.4339974e-04   1.9278251e-04   1.4522942e-04   1.1885526e-04   2.5238501e-04   3.1626571e-04  -3.3824159e-05   3.3168372e-04   3.5027420e-04   4.7171209e-04   4.0431271e-04   2.7832767e-04  -3.4717124e-04   3.0257663e-04  -6.5254600e-05  -1.0970254e-04  -1.2686895e-04   5.4631935e-04   1.8828326e-04   3.0245321e-04   5.7538651e-04   3.2923624e-04   2.1451688e-04  -1.1279306e-04   3.3875075e-04  -6.2558166e-04  -4.0674309e-04   2.2098636e-04   2.4571124e-04  -2.6334802e-04  -4.3561382e-04   4.8166106e-04  -8.9064808e-05   2.4780401e-04   2.0220625e-04   1.0853696e-04   3.7436639e-05   3.3765685e-04   3.0946924e-04   3.5282952e-04   3.6768618e-04   9.6277369e-04   9.1003132e-04   4.0170830e-04   4.6744733e-04   1.2656443e-03   5.4128445e-04   1.6340689e-04   1.2767984e-03
   1.1026819e-04   2.5280361e-04   1.6176228e-04   1.5139567e-04   1.0263398e-04   2.1172584e-04   2.9970999e-04   5.5053370e-05   2.3525819e-04   4.0235708e-04   5.1506545e-04   4.5259306e-04   2.7842834e-04  -4.4235488e-04   1.0196444e-04  -3.7659767e-05  -1.7897312e-04   4.9519436e-05   4.1148876e-04   2.1426180e-04   3.4278550e-04   6.0638151e-04   3.2698261e-04   2.6139099e-04  -6.1887331e-05   2.1653790e-04  -6.2678684e-04  -3.7524398e-04   2.7447034e-04   1.9305556e-04  -3.1815152e-04  -2.5523987e-04   3.9529157e-04  -3.6416801e-05   1.5632565e-04   1.1805871e-04   1.6389640e-04   3.3150818e-06   3.0683217e-04   3.5205222e-04  -1.2545772e-04   2.3915761e-04   6.5338716e-04   4.2058629e-04   4.6626080e-04   3.6189813e-04   1.1116136e-03   9.6602464e-04   5.4527749e-04   8.6863802e-05
   3.3188355e-04   2.8604807e-04   1.4381412e-04   2.2330236e-04   2.0693472e-04   2.4801478e-04   3.5255944e-04   1.3719843e-04   2.7306791e-04   4.5442613e-04   4.8414103e-04   5.0353311e-04   3.4916226e-04  -4.1823005e-04   1.3771925e-04   2.5763091e-05  -1.7606137e-04   7.9742771e-05   4.8140838e-04   2.1699471e-04   3.5369565e-04   5.3953117e-04   3.9409564e-04   2.7797994e-04  -1.3758727e-04   2.2729169e-04  -4.2054319e-04  -2.6962912e-04   1.1303641e-05   1.8742705e-04  -2.9508292e-04  -1.4881704e-04   5.5509247e-04   1.0465463e-05   2.4757904e-04   1.4693890e-04   2.3555799e-04   1.7543225e-05   2.9874570e-04   4.1532895e-04   1.1868417e-04   2.6416115e-04   1.1096437e-03   8.1617176e-04   4.7602554e-04   3.1486133e-04   1.1384566e-03   4.6217287e-04   4.6131594e-04   7.1919692e-04
   3.1616355e-04   2.9997466e-04   1.5948596e-04   2.0240841e-04   1.9368582e-04   2.5638958e-04   3.2233424e-04   7.8674231e-05   3.9135080e-04   4.6837513e-04   5.2210013e-04   5.0311262e-04   3.6174059e-04  -4.0827747e-04   2.5103320e-04  -3.1525360e-05  -1.1459168e-04  -8.9558662e-06   6.0620945e-04   2.0352454e-04   3.2589378e-04   5.3232478e-04   3.2890477e-04   2.4360466e-04  -3.5044304e-05   2.7995135e-04  -5.1405723e-04  -3.3685612e-04   1.9256090e-04   1.4149259e-04  -2.6524946e-04  -2.8481885e-04   4.2037782e-04  -7.9764708e-05   2.1329234e-04   1.2121678e-04   3.5952302e-04   1.6050730e-05   3.3214519e-04   3.0946126e-04   1.1730607e-05   3.9157551e-04   5.4816529e-04   1.1162121e-03   4.6241691e-04   3.7918359e-04   1.1045382e-03   2.2553331e-03   2.1939237e-04   6.5265811e-04
   2.7983281e-04   2.8590718e-04   2.1960017e-04   1.7282896e-04   1.6976448e-04   2.8139158e-04   3.0199863e-04   3.3172604e-04   4.1144813e-04   4.1538774e-04   5.2048633e-04   4.1132708e-04   3.6844745e-04  -3.1378324e-04   1.3865909e-04   9.3978779e-06  -6.9713278e-05  -9.3699135e-05   5.4386916e-04   1.9282114e-04   3.2895044e-04   5.6132930e-04   3.2186616e-04   2.0156494e-04  -1.1656577e-04   2.1131754e-04  -3.6920284e-04  -4.0814979e-04  -1.4840112e-06   2.3402594e-04  -3.0173300e-04  -3.4670648e-04   8.3831063e-04  -1.1421811e-04   1.0384415e-04   1.1777023e-04   3.2475108e-04   4.1238087e-05   3.5726896e-04   3.6482362e-04  -1.5342834e-04   3.2382147e-04   7.0179446e-04   9.9581981e-04   4.1772335e-04   7.3356694e-04   1.1369156e-03   9.3707768e-04   8.7642996e-04   3.6079454e-04
   2.6544268e-04   2.7072785e-04   2.0319823e-04   1.7751878e-04   1.6348572e-04   2.7290528e-04   3.1988401e-04   2.1081473e-04   3.6786040e-04   4.0595999e-04   5.0552859e-04   4.1871396e-04   3.4066511e-04  -3.0245187e-04   2.4555798e-04  -4.5457567e-05  -3.1152715e-05  -1.0736033e-04   5.8636093e-04   1.6699280e-04   3.1002166e-04   4.9034652e-04   3.7074377e-04   1.6156382e-04  -7.6613629e-05   2.5970460e-04  -3.5180571e-04  -3.9654013e-04   9.7175041e-05   2.2821390e-04  -1.3390034e-04  -3.8309724e-04   5.4666941e-04  -9.1871836e-05   2.1442893e-04   1.9833661e-04   1.1887594e-04  -2.0483772e-06   3.3389544e-04   2.4408207e-04   1.2526226e-04   3.9444913e-04   5.3335656e-04   6.5191975e-04   4.2446310e-04   3.8984881e-04   1.1266090e-03   5.9760071e-04   2.9628820e-04   4.2939527e-04
   2.3636525e-04   2.7011882e-04   1.9255912e-04   1.5646283e-04   9.1561116e-05   3.5673747e-04   3.4003731e-04   1.5236353e-04   3.4966474e-04   4.0253831e-04   5.1938015e-04   4.0850471e-04   3.4244728e-04  -2.8071273e-04   2.6659711e-04  -5.2229312e-05   6.4185633e-06  -1.3243074e-04   5.8547972e-04   1.7430240e-04   3.1128456e-04   5.0910021e-04   2.3684869e-04   1.3962279e-04  -2.7443002e-05   1.6046892e-04  -4.5766227e-04  -4.3202445e-04   3.0012941e-04   2.5042405e-04  -2.1211764e-04  -4.5120806e-04   4.8301875e-04  -1.8092469e-04   6.6320863e-05   1.4670588e-04   8.2742023e-05   2.7685104e-05   3.4880871e-04   3.3888861e-04   2.3948014e-04   3.1569955e-04   9.6241484e-04   5.7005027e-04   3.8743045e-04   6.3632586e-04   1.1662849e-03   8.2718703e-04   5.7392800e-04  -2.7607681e-04
   1.6283061e-04   2.5759448e-04   1.9206190e-04   1.5753049e-04   1.3126836e-04   2.7634820e-04   3.2428454e-04   2.3885831e-04   3.4377811e-04   3.9050414e-04   4.9817748e-04   3.8697894e-04   3.3172651e-04  -2.4406753e-04   1.5058428e-04  -1.2673930e-05   1.1093227e-05  -1.7369461e-04   5.9310102e-04   1.7444308e-04   3.1961242e-04   4.9203238e-04   3.1292930e-04   1.8381720e-04  -7.7979792e-05   2.6674502e-04  -3.7186380e-04  -4.2232077e-04  -5.2456882e-05   2.8524655e-04  -2.0639000e-04  -4.5876793e-04   3.1698000e-04  -1.0572710e-04   1.9120381e-04   2.3480080e-04   1.3528339e-04   3.5972102e-05   3.1089675e-04   2.1111115e-04   1.1983475e-04   2.4820681e-04   4.4894635e-04   1.0092023e-03   4.1174662e-04   4.4627269e-04   1.1857977e-03   4.8314509e-04   4.4416191e-04   2.4560027e-04
   1.9007378e-04   2.5882173e-04   1.7426349e-04   1.4775647e-04   1.0735123e-04   2.2510074e-04   3.0324201e-04   2.2645399e-04   4.0597352e-04   4.0419897e-04   5.0573208e-04   4.2477247e-04   3.2413699e-04  -2.9434540e-04   1.6695586e-04  -9.1104041e-05  -2.0362626e-07  -1.6558057e-04   5.2690424e-04   1.7038797e-04   2.9763690e-04   5.2139221e-04   2.5463320e-04   1.3039730e-04  -1.7139573e-04   2.8299150e-04  -4.2351140e-04  -4.3166551e-04  -7.7253695e-05   2.7838841e-04  -1.5950920e-04  -4.6382227e-04   4.8476289e-04  -1.5325051e-04   1.9822424e-04   1.2248267e-04   2.4438655e-04   7.7383600e-05   3.9200558e-04   3.6590875e-04   1.8895499e-04   3.6063365e-04   9.8075194e-04   1.5221720e-03   4.2669819e-04   4.8027642e-04   1.1712385e-03   1.8135530e-03   2.6791616e-04   2.5834588e-04
   2.7255566e-04   2.6137632e-04   1.9828106e-04   1.5968183e-04   1.2040781e-04   2.6306169e-04   2.6977769e-04  -5.1894669e-05   4.5474604e-04   3.8984956e-04   5.0176313e-04   4.0415782e-04   3.2844316e-04  -1.8458323e-04   2.1773356e-04  -3.2867902e-05  -1.7210923e-05  -1.5361198e-04   5.3134718e-04   1.5290809e-04   3.0250731e-04   5.3538877e-04   1.9486991e-04   1.4052319e-04  -4.8729624e-05   2.5140948e-04  -4.5189311e-04  -4.4407119e-04   1.0491836e-04   2.6898476e-04  -1.9277293e-04  -4.5528947e-04   4.3328703e-04  -1.1988311e-04   1.2686258e-04   1.1017275e-04   3.8083267e-04   2.3724313e-05   4.0134857e-04   2.7365386e-04   1.6093129e-04   3.6633119e-04   7.6877704e-04   2.5483855e-04   4.1506780e-04   3.2660933e-04   1.2114125e-03   4.4417934e-04  -6.9408328e-05   7.5138424e-04
   2.7238578e-04   2.6779005e-04   1.9754880e-04   1.5335511e-04   1.1245399e-04   2.5970634e-04   2.8608620e-04   1.0439147e-04   4.0101891e-04   4.0362048e-04   5.1888148e-04   4.2785000e-04   3.1506096e-04  -2.8802161e-04   3.0765304e-04  -7.0923867e-05  -1.6128659e-05  -1.3612106e-04   5.5689464e-04   1.5453486e-04   2.8320655e-04   5.0832180e-04   2.6397553e-04   3.0378354e-05  -1.1640891e-04   2.7998764e-04  -5.3213548e-04  -4.1906722e-04  -7.9870842e-05   2.6442195e-04  -2.0496279e-04  -4.3916391e-04   5.8208313e-04  -6.3717278e-05   1.1801661e-04   1.6476517e-04   1.1155027e-04   9.8333185e-05   3.0530200e-04   3.3107345e-04   2.2130822e-04   4.3696590e-04   8.7468891e-04   3.4168491e-04   3.1715803e-04   4.5979506e-04   1.2066115e-03   7.8707706e-04   7.8594417e-04  -2.8796363e-04
   1.3549022e-04   2.5867939e-04   1.6731524e-04   1.3966205e-04   7.8718673e-05   2.7825791e-04   2.8264956e-04   2.9049572e-04   4.8108539e-04   3.9636093e-04   5.0622068e-04   4.0353707e-04   3.4896293e-04  -2.9763445e-04   2.4245460e-04  -3.5373305e-05  -1.6451868e-05  -1.4073154e-04   5.2334805e-04   1.5953186e-04   2.8956827e-04   4.5638147e-04   2.8146629e-04   1.0460771e-04  -1.1516154e-04   2.2359044e-04  -4.8719029e-04  -4.2082707e-04  -7.1639144e-05   2.8484498e-04  -2.0645773e-04  -4.4301833e-04   5.8909418e-04  -1.6494270e-04   1.6897036e-04   1.0532510e-04   2.7563662e-04   7.7067976e-05   3.3789777e-04   2.4480096e-04   5.4518368e-05   3.5432031e-04   7.0230110e-04   2.9728250e-05   3.7429080e-04   5.6058314e-04   1.1997090e-03   7.0916937e-04   8.4503304e-04  -7.5396086e-04
   2.3943336e-04   2.5179912e-04   2.0307061e-04   1.3443521e-04   1.0974550e-04   2.7845413e-04   2.4425055e-04   2.4691626e-04   4.7678768e-04   3.8848823e-04   5.0787738e-04   3.9009334e-04   2.9719144e-04  -1.7784697e-04   2.3903254e-04  -3.0591043e-05   3.9918027e-06  -1.5831654e-04   6.2662829e-04   1.5833478e-04   2.7999457e-04   4.7369199e-04   1.7730596e-04   3.4825138e-05  -4.2007974e-05   2.2849184e-04  -4.1386424e-04  -4.3709431e-04   1.2379354e-04   2.9559250e-04  -1.9416628e-04  -4.6166990e-04   5.0025230e-04  -1.1886857e-04   9.5395757e-05   2.0087033e-04   2.6452917e-04   7.7525401e-05   3.8989083e-04   2.9136811e-04   1.9475653e-04   2.6509250e-04   1.0838283e-03   4.2256754e-05   3.4476194e-04   4.5218022e-04   1.2419914e-03   1.3490665e-03   6.9913967e-04  -1.0195384e-03
   1.0248980e-04   2.5386867e-04   1.7012193e-04   1.3207461e-04   8.6508880e-05   2.3679330e-04   3.1884850e-04   1.3622591e-04   4.1993323e-04   4.0838853e-04   5.0841848e-04   4.0315886e-04   3.1238649e-04  -2.6011557e-04   2.0029048e-04  -8.0128499e-05  -2.2177842e-06  -1.7112808e-04   6.1060680e-04   1.4111133e-04   2.6697572e-04   4.4056441e-04   2.4958185e-04   1.3122142e-05  -4.3567641e-05   2.5725606e-04  -4.5347036e-04  -4.4569932e-04   1.3168998e-05   2.2601384e-04  -1.6886581e-04  -4.6122199e-04   6.0738280e-04  -1.5508402e-04   1.3862482e-04   2.1379747e-04   6.5084176e-05   7.7806006e-05   3.6302034e-04   2.6753070e-04   2.0042225e-04   3.5970632e-04   8.3582645e-04   4.5821740e-04   3.3771028e-04   6.0850894e-04   1.2287080e-03  -9.3353425e-05   3.0338982e-04   4.0833454e-04
   1.5805803e-04   2.4921924e-04   1.7659595e-04   1.2447841e-04   1.0202659e-04   2.4293028e-04   2.7698648e-04  -2.9565905e-05   4.4573151e-04   3.9684484e-04   4.8733735e-04   3.5766649e-04   3.1370693e-04  -2.8892580e-04   3.1015812e-04  -2.9856905e-05   9.5179194e-06  -1.7711258e-04   6.9162529e-04   1.3995191e-04   2.6567202e-04   5.0759455e-04   2.2603481e-04   6.5047505e-05  -1.5251197e-04   2.4452232e-04  -3.3331569e-04  -4.4246440e-04  -1.6867662e-05   3.1025568e-04  -1.6115894e-04  -4.8800299e-04   5.1054324e-04  -1.6107933e-04   1.0563387e-04   1.1433340e-04   3.1805225e-04   6.5895612e-05   3.3996219e-04   2.4416565e-04   2.6235398e-04   3.7597559e-04   3.7037823e-04   7.1976241e-04   4.2618575e-04   3.8229948e-04   1.2568521e-03   5.0528866e-04   1.2047137e-04   1.7095136e-04
   2.1679235e-04   2.5012961e-04   2.0981352e-04   1.1366284e-04   1.3183015e-04   3.1780847e-04   3.1355725e-04   3.7084144e-04   4.1397280e-04   4.0785040e-04   5.0719845e-04   3.8608370e-04   2.8309840e-04  -2.3326131e-04   2.3672399e-04  -3.3900931e-05   2.4304493e-06  -1.7425120e-04   5.0879008e-04   1.3285936e-04   2.4720881e-04   4.7211442e-04   2.2961554e-04   2.0439687e-05  -4.8788450e-05   2.3435421e-04  -3.7771717e-04  -4.4265899e-04   3.2376367e-05   2.9490015e-04  -2.0854895e-04  -5.0737098e-04   6.5611076e-04  -1.5030066e-04   1.7076269e-04   1.5543534e-04   4.7697471e-05   8.0295948e-05   3.7779514e-04   2.6361295e-04  -9.0062049e-06   4.0885131e-04   3.9936026e-04  -8.9711742e-05   4.3391623e-04   4.7247967e-04   1.1861632e-03   3.1394485e-04   5.0668675e-04  -7.3176739e-04
   1.8632441e-04   2.5111286e-04   1.9690071e-04   1.2487490e-04   1.0438763e-04   1.9094560e-04   2.7607486e-04   7.6309152e-05   4.2006702e-04   4.0726576e-04   5.0054182e-04   3.8049286e-04   3.1353242e-04  -2.4910751e-04   2.5053596e-04  -5.2513911e-05  -1.3219935e-05  -1.7772835e-04   6.9671770e-04   1.2954378e-04   2.4618395e-04   4.8931869e-04   2.2983133e-04   2.7560081e-05  -1.5897409e-04   2.3311592e-04  -4.2522815e-04  -4.4330268e-04   5.8014597e-05   3.0756713e-04  -2.3217643e-04  -5.0926750e-04   6.8142370e-04  -1.7590055e-04   1.6398742e-04   1.4487267e-04   3.6189618e-04   9.5592426e-05   3.4089913e-04   3.0113547e-04   1.1935187e-04   3.2429682e-04   7.3706993e-05   2.7147782e-04   3.8378435e-04   5.9539516e-04   1.1664669e-03   2.0766752e-04  -2.7407348e-05   4.5519625e-04
   1.3840146e-04   2.4597891e-04   1.6945778e-04   1.3149634e-04   1.1659190e-04   1.9368574e-04   2.7531950e-04   2.0313305e-04   3.8547555e-04   3.9970447e-04   4.8376640e-04   3.6805068e-04   2.7289515e-04  -2.9183019e-04   2.2215080e-04  -4.0672781e-05  -1.9997813e-05  -1.6668794e-04   5.7509897e-04   1.2387063e-04   2.4877049e-04   4.4565005e-04   2.2428465e-04  -6.8616842e-05  -1.2759255e-04   2.1991246e-04  -4.3520640e-04  -4.3797880e-04   1.5299600e-04   2.8439768e-04  -2.3077511e-04  -4.9290067e-04   3.4112076e-04  -1.5937329e-04   2.0446361e-04   1.2942804e-04   2.4374922e-04   1.2348832e-04   3.5363992e-04   2.9179268e-04   1.1776675e-04   3.2419496e-04   5.8223453e-04   7.3478068e-04   3.8003334e-04   4.7417462e-04   1.2113418e-03   2.8106125e-04  -1.9721633e-04   4.2897495e-04
   1.8893408e-04   2.5241522e-04   1.9407427e-04   1.1959303e-04   1.1925487e-04   2.3042223e-04   2.8919947e-04   8.8650646e-05   4.2917006e-04   4.2698468e-04   4.9635314e-04   3.7942029e-04   2.9268974e-04  -3.0508765e-04   1.7857157e-04  -2.9497347e-05  -3.4611116e-05  -1.6388283e-04   5.2698323e-04   1.1890160e-04   2.5033631e-04   4.5657950e-04   1.5500111e-04  -2.4801736e-06  -1.2663283e-04   2.1882112e-04  -4.7933435e-04  -4.2339883e-04   7.2042538e-05   2.6414148e-04  -2.2670436e-04  -4.8194698e-04   4.5974506e-04  -2.2685916e-04   8.2547544e-05   1.4095611e-04   2.4447322e-04   8.8031171e-05   3.9828324e-04   1.8193462e-04   1.7174048e-04   2.7229433e-04   6.0079579e-04   8.7333977e-04   4.1180279e-04   5.7790644e-04   1.1567292e-03   1.2739530e-03   2.1215554e-04   5.6204799e-04
   1.2687281e-04   2.4678450e-04   1.5817666e-04   1.4220532e-04   1.1966433e-04   2.1013137e-04   2.5466701e-04   1.6270725e-04   4.6616190e-04   4.1326199e-04   4.8357877e-04   3.7761781e-04   2.9123030e-04  -3.3228585e-04   1.8530004e-04  -3.4770223e-05  -5.0626550e-05  -1.8190219e-04   6.2680937e-04   1.0930247e-04   2.5012100e-04   4.6310207e-04   2.1551558e-04  -5.4606262e-05  -1.5862584e-04   1.9667289e-04  -5.4146070e-04  -4.3175142e-04   1.5067680e-04   2.8294185e-04  -2.5044195e-04  -5.1276770e-04   6.2116497e-04  -1.9294732e-04   1.2329679e-04   8.4065185e-05   3.2960417e-04   9.9268007e-05   3.5859636e-04   2.2437064e-04  -1.1362180e-04   3.2293468e-04   2.4136783e-04   2.8118346e-04   4.0398480e-04   4.9395295e-04   1.1478316e-03   1.5975172e-03   1.1918016e-04   1.0582090e-03
   1.8579098e-04   2.4908991e-04   1.8138932e-04   1.3313231e-04   1.2852771e-04   2.4419214e-04   2.4554125e-04   5.0643383e-04   4.2113903e-04   4.2888770e-04   4.9997872e-04   4.0753864e-04   2.6018501e-04  -2.9712432e-04   2.3351090e-04  -7.6140816e-05  -6.1768522e-05  -1.7198884e-04   7.0290233e-04   9.4827577e-05   2.2766304e-04   4.2640607e-04   1.8934124e-04  -4.6205590e-05  -7.4576317e-05   2.0285074e-04  -4.5665825e-04  -4.1925587e-04  -3.3911401e-05   2.9179238e-04  -2.4123523e-04  -4.9469079e-04   4.4439733e-04  -1.5108296e-04   6.2806859e-05   1.3366110e-05   3.5034624e-04   4.8793419e-05   2.9975770e-04   2.8865685e-04   7.0482791e-05   3.7017558e-04   3.6678428e-04   1.0439488e-03   4.0273982e-04   3.6959830e-04   1.1759537e-03   9.8317361e-04   1.0514558e-04  -3.3262800e-04
   2.2128409e-04   2.5221240e-04   1.7684342e-04   1.3117089e-04   9.9636251e-05   1.7238506e-04   2.8240978e-04   1.3046784e-04   3.8230370e-04   4.2817564e-04   5.0186802e-04   4.0543618e-04   2.7537948e-04  -3.9134172e-04   6.0459090e-05  -4.1497049e-05  -7.3856725e-05  -1.8056307e-04   5.9044483e-04   9.7839111e-05   2.3226219e-04   4.6960555e-04   2.4744443e-04   1.1474001e-05  -1.3275669e-04   1.4541851e-04  -3.7284871e-04  -4.2595773e-04   1.1687743e-05   2.3404120e-04  -2.4617958e-04  -4.9719994e-04   5.2104524e-04  -1.5474463e-04   7.3707655e-05   1.1125662e-04   8.9656030e-05   1.1762111e-04   3.6168954e-04   1.5704536e-04  -1.7506272e-05   3.1829742e-04   1.1148674e-03   8.1722171e-04   3.8259468e-04   4.8379891e-04   1.1801515e-03   1.0560344e-04   2.8954868e-05  -1.6167328e-04
   1.4003225e-04   2.4667487e-04   1.9034510e-04   1.1588257e-04   1.2532448e-04   2.4028249e-04   2.8009730e-04   8.7156019e-05   3.0380761e-04   4.1217837e-04   4.8826422e-04   3.6292800e-04   2.7675519e-04  -2.1425268e-04   2.0278811e-04  -5.6247402e-05  -4.3307191e-05  -1.8820813e-04   5.6476780e-04   9.7955541e-05   2.3748436e-04   4.2549224e-04   1.9840870e-04  -8.4599287e-06  -2.3966197e-04   1.2562744e-04  -3.9300552e-04  -4.1238766e-04   1.9175674e-04   2.5645288e-04  -2.7512727e-04  -4.6813139e-04   5.3989619e-04  -1.8067053e-04   7.5333366e-05   1.5157950e-04   2.4788614e-04   9.5519426e-05   3.0097150e-04   2.6041642e-04  -2.2335942e-05   3.0452749e-04   8.7325560e-04   9.1599929e-04   4.2138234e-04   5.8720214e-04   1.3278645e-03   1.1748532e-03   3.3097540e-04   8.1144826e-04
   2.0978849e-04   2.4813108e-04   1.6164068e-04   1.4357567e-04   1.1127561e-04   2.2403433e-04   2.3575262e-04   1.2315738e-04   3.6766520e-04   4.2717319e-04   4.9395254e-04   3.7962597e-04   2.7264489e-04  -2.7505081e-04   2.3890022e-04  -7.3773124e-05  -4.1094223e-05  -1.8270692e-04   5.7611347e-04   9.5276067e-05   2.2227969e-04   4.2465242e-04   2.2309269e-04  -3.9863799e-06  -1.2831572e-04   1.7106325e-04  -4.4200357e-04  -4.2451537e-04  -1.2744525e-04   2.5784978e-04  -2.5187191e-04  -4.8065948e-04   4.7292683e-04  -1.7124078e-04   5.4146600e-05   1.5559311e-04   1.1202088e-04   1.3814321e-04   3.3084970e-04   3.0124284e-04  -2.8272565e-05   3.6775164e-04   4.4554676e-04   8.0721645e-04   3.2649311e-04   3.7317848e-04   1.1373960e-03   2.7763561e-04   3.2994393e-04   4.8394292e-04
   1.6806983e-04   2.4079497e-04   2.1226511e-04   1.2580999e-04   1.3241488e-04   2.0096730e-04   2.1933902e-04   2.5041192e-04   4.8603426e-04   4.0722295e-04   4.7101270e-04   3.3783630e-04   2.4405215e-04  -2.7100748e-04   2.0567594e-04  -2.2119666e-05  -4.6321467e-05  -1.6372721e-04   5.2197650e-04   9.0868787e-05   2.3145854e-04   4.7098228e-04   2.3945970e-04  -2.6331109e-05  -1.7816327e-04   1.8958306e-04  -4.7675773e-04  -4.3913216e-04  -1.7663620e-04   3.1517068e-04  -2.4480830e-04  -4.8264701e-04   3.5994317e-04  -1.4229525e-04   1.1345230e-04   9.5813368e-05   1.9561467e-04   1.1516314e-04   3.4892772e-04   2.7812255e-04   9.3334493e-05   3.4025512e-04   1.0481413e-03  -2.8762821e-04   4.4943666e-04   2.9856421e-04   1.1080754e-03   4.2602944e-04   2.1637681e-04   4.9761665e-04
   2.7708316e-04   2.3761527e-04   1.8521663e-04   1.3349908e-04   1.2426947e-04   1.7805339e-04   2.7957969e-04   1.8419849e-04   3.7480105e-04   4.1240040e-04   4.6841145e-04   3.6229828e-04   2.5667538e-04  -3.1712555e-04   2.3286486e-04  -4.8103615e-05  -4.7274356e-05  -1.5442533e-04   4.6504324e-04   8.4165789e-05   2.1179678e-04   3.7837276e-04   2.3204458e-04   1.7468369e-07  -1.1716903e-04   1.0781147e-04  -2.8851119e-04  -4.2361405e-04   5.6079378e-05   2.2284559e-04  -1.9451688e-04  -4.5488798e-04   4.1536504e-04  -1.8730763e-04   1.2629520e-04   4.2437045e-05   3.6438383e-04   8.9901252e-05   3.4881633e-04   2.0972859e-04  -1.3462979e-04   2.2998462e-04   8.7653607e-04   7.9920364e-04   3.1813057e-04   4.2052352e-04   1.1871425e-03   5.1972514e-04  -5.9130220e-05   1.0854878e-03
   1.2448506e-04   2.3858616e-04   1.8136566e-04   1.2676351e-04   1.4023054e-04   2.9712296e-04   2.5634893e-04   3.6149193e-04   4.1307617e-04   4.0447718e-04   4.6005347e-04   3.4327939e-04   2.4746510e-04  -2.3970751e-04   2.7696919e-04  -1.1187562e-05  -5.9807404e-05  -1.3360060e-04   4.5966724e-04   7.8478268e-05   2.1615038e-04   3.9099102e-04   2.3272631e-04   9.0472568e-06  -1.0165341e-04   1.3006209e-04  -4.0417665e-04  -4.2364909e-04  -6.0265378e-05   2.4062645e-04  -2.2179596e-04  -4.6140395e-04   4.4767332e-04  -1.5670348e-04   5.4450560e-05   1.1520189e-04   2.3670265e-04   5.7174297e-05   4.5216392e-04   2.9273515e-04   1.1588779e-04   3.9873336e-04   1.0261118e-03   1.3076734e-03   3.7140187e-04   5.3463643e-04   1.2175252e-03   1.2765810e-04   3.0708930e-04   1.2307997e-03
   2.2201840e-04   2.3178838e-04   1.9342493e-04   1.3835507e-04   1.3763922e-04   2.1073016e-04   2.5708898e-04   4.8651398e-04   4.5196779e-04   3.9036755e-04   4.4311301e-04   3.2654693e-04   2.7397575e-04  -2.3929456e-04   2.0035870e-04  -1.0857018e-05  -5.9049766e-05  -1.4423893e-04   5.1164074e-04   8.9023277e-05   2.1642215e-04   4.4397733e-04   1.5245161e-04  -2.1497352e-05  -1.0335363e-04   1.5300128e-04  -3.5746145e-04  -4.2350657e-04   3.0475510e-05   3.0361320e-04  -2.3506943e-04  -4.8910995e-04   2.9816077e-04  -1.7701311e-04   6.7604218e-05   6.0059167e-05   4.4640306e-05   1.0321943e-04   3.5858591e-04   2.2549104e-04  -3.3798271e-05   1.8001538e-04   1.1884666e-03   5.0011883e-04   4.4615404e-04   5.7077117e-04   1.1801639e-03   1.2317973e-03   5.9751823e-04   2.7738504e-05
   2.0865886e-04   2.4235816e-04   1.8486221e-04   1.1820813e-04   1.3299553e-04   2.2101302e-04   2.5062473e-04   2.3478708e-04   3.9931404e-04   4.0821312e-04   4.6983411e-04   3.5973729e-04   2.5030895e-04  -2.8288088e-04   1.7063052e-04  -4.4992925e-05  -6.4742613e-05  -1.4236297e-04   4.8218196e-04   6.9571077e-05   2.0461419e-04   3.7804016e-04   1.1868810e-04  -1.7810598e-05  -7.2387891e-05   1.8746970e-04  -3.8442455e-04  -4.0976459e-04  -1.1808654e-04   2.3047542e-04  -2.3008618e-04  -4.6708155e-04   7.2437490e-04  -1.4279732e-04   1.1449354e-04   3.6204115e-06   2.5878230e-04   1.0686721e-04   3.0375939e-04   2.6362637e-04   1.0159861e-04   2.2117479e-04   1.0555016e-03   3.1366709e-04   4.5301620e-04   5.2349828e-04   1.2168778e-03   2.4202511e-04   5.9796142e-04   1.4715636e-03
   1.6973351e-04   2.3712887e-04   1.8381252e-04   1.3013356e-04   1.1855061e-04   2.1870226e-04   2.3850372e-04   1.6669679e-04   4.3045706e-04   3.9410088e-04   4.4374322e-04   3.3535386e-04   2.3080361e-04  -2.5318481e-04   1.9345470e-04  -1.6395870e-05  -7.7243909e-05  -1.4197138e-04   5.2301632e-04   9.0622372e-05   2.2036982e-04   4.0830407e-04   2.1724781e-04   1.3718338e-05  -9.2428600e-05   1.5473354e-04  -4.9766497e-04  -4.1558928e-04   6.9596528e-05   2.6064017e-04  -2.7100384e-04  -4.6520162e-04   4.6789541e-04  -1.3014984e-04   1.2727850e-04  -6.9016955e-05   2.9624722e-05   1.3185845e-04   3.3034358e-04   2.4201545e-04   4.9034111e-06   3.0031861e-04   4.9158192e-04   8.3848555e-04   4.5196959e-04   4.5347508e-04   1.1397966e-03   7.3218188e-04   7.5657910e-04   5.7832373e-04
   2.8209615e-04   2.3093658e-04   2.0430869e-04   1.2649891e-04   1.3086386e-04   1.7917879e-04   2.2448649e-04   1.9195022e-04   4.7360107e-04   3.9818077e-04   4.5448975e-04   3.5631561e-04   2.3905885e-04  -3.1541806e-04   2.2200687e-04  -6.0010379e-06  -5.6961049e-05  -1.1949454e-04   4.0521356e-04   8.2076447e-05   2.0023799e-04   3.9676562e-04   2.1108524e-04   2.8140974e-05  -1.2758691e-04   1.7839920e-04  -5.0507102e-04  -4.1694354e-04   1.7457609e-05   2.4596037e-04  -2.3551480e-04  -4.2682869e-04   6.3596689e-04  -1.4951105e-04   9.6614378e-05   1.1008495e-04   4.3235374e-05   9.5605974e-05   2.8396479e-04   3.0566825e-04   1.8596047e-04   2.7681340e-04   1.9188265e-04   2.5034038e-04   3.5279544e-04   5.1302754e-04   1.1817607e-03   5.7392160e-04  -3.6390612e-04  -3.0495861e-04
   2.0795899e-04   2.4019693e-04   2.0608767e-04   1.2384135e-04   1.0688026e-04   2.0879293e-04   2.1541092e-04   2.2967180e-04   4.0356602e-04   4.0066266e-04   4.4642118e-04   3.5237183e-04   2.6712759e-04  -3.0962154e-04   1.3457488e-04  -3.9126902e-05  -6.3439635e-05  -1.2540897e-04   4.5594922e-04   8.1624523e-05   2.0036388e-04   4.0767854e-04   1.7843305e-04  -3.6289684e-06  -1.1363011e-04   1.9274202e-04  -4.4838461e-04  -4.2352936e-04   3.5530655e-05   2.7455858e-04  -2.8225256e-04  -4.5903953e-04   4.2774179e-04  -1.6077698e-04   1.2514208e-04   8.3170176e-05   1.4642761e-04   7.4904536e-05   2.9286207e-04   1.3044979e-04   1.9428899e-04   3.2561086e-04   8.4621424e-04   8.3656446e-04   4.4401936e-04   6.0148776e-04   1.1493759e-03   6.3719554e-04  -1.1564148e-04   9.1958622e-04
   1.5182790e-04   2.3369756e-04   2.2211256e-04   1.2058537e-04   1.3844724e-04   2.6512472e-04   2.4607457e-04   3.2787464e-04   4.8336058e-04   3.9450423e-04   4.3024184e-04   3.4345716e-04   2.5133620e-04  -2.9700340e-04   1.4118178e-04   2.2541004e-05  -6.7506488e-05  -1.4359645e-04   5.5934652e-04   1.0227344e-04   2.2524866e-04   3.9909472e-04   2.6328638e-04   1.9422579e-05  -1.1771530e-04   1.5107224e-04  -4.4246047e-04  -4.0867671e-04   9.3347495e-05   2.7104447e-04  -2.7853451e-04  -4.7145109e-04   4.3144802e-04  -2.0835157e-04   5.9629787e-05   9.1661219e-05   2.0887764e-04   1.0480642e-04   2.9161829e-04   1.7470533e-04   4.0428222e-05   3.0414169e-04   1.4585934e-03   5.8904442e-04   4.4540985e-04   4.4958637e-04   1.1232181e-03   3.8178463e-04   6.1355712e-04   7.8452396e-04
   2.6593384e-04   2.4385097e-04   2.1509458e-04   1.3256927e-04   1.1751473e-04   1.9763384e-04   2.0380173e-04   1.8123428e-04   5.8417668e-04   4.1420912e-04   4.7443772e-04   3.8514359e-04   2.5299512e-04  -3.0935986e-04   2.1048977e-04  -1.4697277e-05  -9.9330318e-05  -1.4202148e-04   4.5497401e-04   9.1255228e-05   2.1164211e-04   4.5484633e-04   1.8325634e-04  -6.9402937e-05  -1.1879375e-04   8.8419292e-05  -5.5241608e-04  -4.0599768e-04   1.1651640e-04   2.6139547e-04  -2.8718746e-04  -4.7866689e-04   4.1320352e-04  -1.5379291e-04   1.2379585e-04   6.4977474e-05   1.7986749e-04   7.9302910e-05   3.7989017e-04   1.3526290e-04   3.3995038e-05   3.1342809e-04   1.4648377e-03   6.8934588e-04   3.9268364e-04   3.2212894e-04   1.2161526e-03   1.2192170e-03   4.2394586e-04   2.7027290e-04
   2.7416885e-04   2.4245109e-04   1.7910608e-04   1.3430775e-04   1.3532260e-04   2.3842060e-04   2.3016983e-04   1.7731955e-04   5.0889899e-04   4.0155664e-04   4.5426225e-04   3.8037699e-04   2.7499450e-04  -3.4525385e-04   1.7615440e-04   3.1165426e-05  -1.2027158e-04  -1.5499022e-04   5.7939492e-04   1.1509796e-04   2.2145310e-04   4.5624588e-04   2.5772260e-04   3.2200143e-05  -1.6549048e-04   1.2458504e-04  -4.3735639e-04  -4.1568038e-04   1.1131319e-04   2.5644578e-04  -3.2944599e-04  -5.0223910e-04   4.7767788e-04  -2.1018762e-04   7.3380841e-05   6.2871499e-05   2.0527885e-04   1.3555131e-04   3.3922825e-04   2.4309613e-04   1.3044254e-04   3.5288557e-04   7.9169753e-04   6.5057079e-04   4.3326837e-04   6.2863791e-04   1.1521351e-03  -4.7144591e-04   2.9142515e-04  -4.4867766e-04
   2.6175790e-04   2.4655182e-04   2.1438964e-04   1.2028353e-04   1.2968086e-04   2.3475419e-04   2.6093170e-04   3.1823502e-04   6.2767329e-04   4.0086123e-04   4.5250909e-04   3.9719784e-04   2.6815836e-04  -2.5018724e-04   1.6235786e-04  -1.7316474e-05  -1.2276914e-04  -1.3031519e-04   5.1834650e-04   1.1279844e-04   2.0685703e-04   3.9953709e-04   2.4199138e-04  -6.3314747e-06  -1.2269340e-04   1.6277298e-04  -4.4959353e-04  -3.9705198e-04   8.2272745e-06   2.3519571e-04  -3.0495506e-04  -5.0151109e-04   4.8970029e-04  -2.0178723e-04   1.0509312e-04   4.1107960e-05  -7.9527690e-06   8.8672561e-05   3.1057288e-04   2.7059042e-04   3.5334389e-05   3.6416642e-04   5.3907069e-04   9.0493902e-04   3.7684958e-04   3.7641631e-04   1.1822572e-03   1.7893547e-04   2.6978808e-04  -1.5185255e-04
   2.9776874e-04   2.4776132e-04   1.8085595e-04   1.4712934e-04   9.7516568e-05   2.0517714e-04   2.5297710e-04  -2.7744927e-05   3.8119272e-04   3.8789050e-04   4.4276015e-04   3.7583234e-04   2.5310449e-04  -3.5103294e-04   1.2089008e-04   3.2662620e-06  -1.1572200e-04  -1.3203698e-04   5.8122555e-04   1.1680876e-04   2.0843283e-04   4.3103192e-04   2.8930014e-04  -6.0710522e-06  -1.3819896e-04   1.5548684e-04  -4.4246268e-04  -4.0726466e-04  -7.5066375e-05   2.5850307e-04  -2.9867588e-04  -4.7588648e-04   3.7131019e-04  -1.7597667e-04   9.6537697e-05   6.9044436e-05   2.3221024e-04   9.9630008e-05   2.8842015e-04   2.6293207e-04  -9.4092102e-06   3.0374640e-04   2.6436348e-04   6.4832135e-04   3.7782406e-04   4.4355367e-04   1.1507110e-03   1.3453128e-03   6.7755708e-04   6.1518286e-04
   1.4587058e-04   2.4083846e-04   2.1320899e-04   1.3338850e-04   1.1763324e-04   2.0131556e-04   2.4686201e-04   3.0264468e-04   4.7510790e-04   3.6041060e-04   4.2137704e-04   3.4225706e-04   2.7641773e-04  -3.0968757e-04   2.0984816e-04  -8.5704123e-06  -7.7973054e-05  -1.4670506e-04   6.1524019e-04   1.2169850e-04   2.2049496e-04   3.8703263e-04   2.1838835e-04   5.2144813e-05  -6.2390769e-05   1.4581418e-04  -4.8063076e-04  -4.1501847e-04   1.8857651e-04   2.5336185e-04  -2.4651320e-04  -4.8443116e-04   3.0218528e-04  -1.6394322e-04   9.1174654e-05   5.1461444e-05   1.8651149e-04   5.7433484e-05   2.8448369e-04   2.9391248e-04   5.6224535e-06   2.3139248e-04   4.9261004e-04   9.2412747e-04   4.1935808e-04   5.4482213e-04   1.1782959e-03  -9.1882241e-05   4.7195508e-04   5.0437357e-04
   1.3707693e-04   2.4120306e-04   1.9452522e-04   1.2884510e-04   1.1340696e-04   1.6969677e-04   2.2135874e-04   2.6913275e-04   4.7527006e-04   3.5601022e-04   4.2943991e-04   3.5935247e-04   2.8643568e-04  -3.6759453e-04   2.1145500e-04  -4.7204870e-05  -8.5460779e-05  -1.3038128e-04   5.7306001e-04   1.1988745e-04   1.8974100e-04   3.7097468e-04   1.6437333e-04   4.4247929e-05  -9.9251607e-05   8.4202838e-05  -4.4248661e-04  -4.0780255e-04   1.9074068e-04   2.3388614e-04  -2.8230099e-04  -4.7826662e-04   3.4902437e-04  -1.5075823e-04   2.8519627e-05   3.6053752e-05  -1.0278468e-05   7.8873389e-05   3.6516198e-04   2.7467741e-04   1.1358980e-05   3.1383827e-04   1.1204389e-03   7.9474295e-04   4.2474538e-04   4.0014257e-04   1.1426104e-03   1.1509762e-03   2.5193323e-05   1.3719574e-03
   1.7307990e-04   2.3563705e-04   1.8528220e-04   1.3311465e-04   1.0724320e-04   1.9429071e-04   2.0795735e-04   2.4994690e-04   3.9142123e-04   3.2785593e-04   4.0343011e-04   3.3665763e-04   2.5320853e-04  -3.3789547e-04   2.5001471e-04  -1.3877814e-05  -8.8819266e-05  -1.3420402e-04   4.4660538e-04   1.3622799e-04   1.9555842e-04   3.6670335e-04   2.3371185e-04   8.8498251e-05  -1.5348868e-04   1.7876898e-04  -4.2269233e-04  -4.1544714e-04  -2.1293235e-05   2.3496691e-04  -3.3445293e-04  -4.8663787e-04   5.6680455e-04  -1.6270044e-04   2.1876516e-05   3.8497888e-06   1.8673389e-05   7.3717551e-05   3.4009511e-04   1.4224276e-04   7.4533920e-05   2.3867414e-04   4.4495519e-04   5.6860573e-04   4.2723803e-04   2.7065389e-04   1.2463324e-03   8.2443620e-04  -2.8774099e-05   6.0201943e-04
   2.0852109e-04   2.4340638e-04   2.0768671e-04   1.4775002e-04   1.1388460e-04   2.0604732e-04   2.3073063e-04   2.3612430e-04   4.5435573e-04   3.1625023e-04   3.9773955e-04   3.2463481e-04   2.3601609e-04  -2.7094042e-04   1.4460902e-04   8.6755272e-06  -7.8345904e-05  -1.3463748e-04   4.8523862e-04   1.3481666e-04   1.7884838e-04   3.4964239e-04   2.4199461e-04   1.9117977e-06  -1.0482944e-04   1.5167004e-04  -4.7764630e-04  -4.1916088e-04   3.1078275e-04   2.3119613e-04  -2.2316400e-04  -4.6663737e-04   5.8902148e-04  -1.7924051e-04   1.1756046e-04   1.1206922e-05   7.9166020e-05   2.3195820e-05   1.7383130e-04   6.4335945e-05   1.6201924e-06   2.4265421e-04   9.6619967e-04   4.5048181e-04   3.2783844e-04   6.2432967e-04   1.1858224e-03   3.4874139e-04   2.8210832e-04   1.1053625e-03
   2.2319579e-04   2.3212584e-04   1.6026771e-04   1.3763423e-04   8.4270636e-05   1.5892749e-04   1.9591575e-04   2.4879136e-04   4.1906966e-04   3.0518559e-04   4.0237952e-04   3.2859147e-04   2.3842687e-04  -3.3548349e-04   1.3450037e-04   1.3497118e-05  -7.6318785e-05  -1.2702215e-04   5.7679263e-04   1.3679310e-04   1.6700273e-04   4.0086746e-04   1.2380369e-04   4.8053644e-05  -9.5180541e-05   1.5055011e-04  -5.2148761e-04  -4.2594367e-04   1.4650566e-04   2.0181567e-04  -3.2455620e-04  -5.0333841e-04   4.4350512e-04  -2.0883734e-04   1.5087615e-04   8.4668776e-05   9.4244642e-05   1.2979048e-04   2.8400728e-04   1.7978541e-04   3.1907995e-05   2.9599140e-04   5.6679093e-04   9.4926538e-04   3.7431269e-04   5.3009467e-04   1.1795637e-03   5.6513224e-04   5.5334263e-04   8.7205169e-04
   1.6782919e-04   2.3323270e-04   2.2581569e-04   1.2653573e-04   9.9270939e-05   2.0409786e-04   2.1276060e-04   2.3025922e-04   3.8084353e-04   2.8030740e-04   3.5204404e-04   2.9073824e-04   2.7101746e-04  -3.1031831e-04   1.4816830e-04  -5.6182630e-06  -5.7245703e-05  -1.4173810e-04   6.0945423e-04   1.4742224e-04   1.7709557e-04   3.7708320e-04   2.1298153e-04   3.5516245e-05  -9.3577313e-05   1.1960947e-04  -3.3894368e-04  -4.3551010e-04   2.6855295e-04   2.7786935e-04  -2.8562031e-04  -4.8597236e-04   2.8881198e-04  -1.5801161e-04   1.1867338e-04  -2.1154014e-05   3.3215058e-04   1.3330931e-04   3.0841766e-04   1.0172982e-04   1.0179951e-04   3.0592669e-04   1.4133266e-03   8.5488218e-04   5.0960196e-04   6.2560034e-04   1.2527219e-03   7.6455151e-04   4.7789252e-04   2.3230858e-04
   9.8746881e-05   2.3023663e-04   1.9372925e-04   1.3331084e-04   9.7499185e-05   1.9127539e-04   1.4253541e-04   3.8495800e-04   3.3334541e-04   2.9254184e-04   3.8726712e-04   3.1313239e-04   2.4104358e-04  -3.7121601e-04   8.6921034e-05  -2.0437174e-05  -6.9502457e-05  -1.4623498e-04   4.4662860e-04   1.2440559e-04   1.5208592e-04   3.5259416e-04   1.7764578e-04  -4.8704980e-05  -1.7387827e-04   5.9778165e-05  -4.9841404e-04  -4.4264283e-04   1.8522136e-04   2.5831306e-04  -2.6328696e-04  -4.7500397e-04   4.0931371e-04  -1.7284854e-04   1.0473022e-04   9.0306683e-05   1.0922487e-04   9.9175180e-05   2.8491425e-04   2.9260409e-04  -9.1297836e-05   2.5478841e-04   6.1026198e-04   2.4049643e-04   3.7973918e-04   7.0245267e-04   1.1449215e-03  -2.6872105e-04   8.8013592e-04   5.6019278e-05
   1.8770754e-04   2.2157430e-04   1.8460877e-04   1.2709868e-04   6.9083479e-05   9.7271186e-05   1.6024386e-04   2.1740580e-04   3.5488690e-04   2.7575967e-04   3.4676929e-04   2.9259484e-04   2.4941759e-04  -3.7526572e-04   1.5155411e-04  -3.7905982e-06  -6.3715554e-05  -1.6054300e-04   4.9266161e-04   1.4254733e-04   1.6378085e-04   3.8333202e-04   2.1796816e-04  -6.2077415e-05  -9.0314563e-05   1.3356295e-04  -4.3821134e-04  -4.5462610e-04   1.6503072e-05   2.5586531e-04  -2.9864485e-04  -5.1635562e-04   5.4305117e-04  -1.6294388e-04   5.1923114e-05  -2.9291778e-05   1.6707811e-04   7.1300790e-05   2.7561220e-04   1.3201390e-04  -1.0301726e-04   2.8185645e-04   1.0227283e-03   4.4235089e-04   3.4430690e-04   4.4444719e-04   1.1117678e-03   5.8796602e-05   9.4902975e-04   1.6408374e-04
   1.7067093e-04   2.1983693e-04   1.7631965e-04   1.3150305e-04   9.8803226e-05   1.5773736e-04   1.8451652e-04   3.6664685e-04   3.6762745e-04   2.6057326e-04   3.3843797e-04   2.8241583e-04   2.0515179e-04  -3.8546824e-04   2.2413679e-04  -5.3190710e-05  -3.7157613e-05  -1.5336143e-04   4.9996108e-04   1.4112330e-04   1.4616975e-04   3.4862786e-04   1.5666366e-04   4.2452364e-05  -1.5857459e-04   6.2286563e-05  -4.1029311e-04  -4.5570149e-04   1.4138852e-04   2.4821705e-04  -2.4160054e-04  -4.9632130e-04   3.3075389e-04  -2.1098694e-04   9.7262564e-05   1.1229348e-04   1.7314937e-04   6.3004525e-05   3.1310055e-04   3.4872600e-04  -8.3598272e-05   2.5303182e-04   8.4014214e-04   1.1004211e-03   4.1628673e-04   6.0146832e-04   1.1827421e-03   2.5308438e-04   3.6522833e-04   1.9381428e-04
  -1.4622782e-05   2.1650032e-04   2.0223181e-04   1.2335282e-04   5.7940782e-05   8.1090977e-05   1.6637998e-04   2.0100606e-04   3.8421890e-04   2.6290811e-04   3.3562025e-04   2.6870240e-04   2.6037591e-04  -3.1423173e-04   1.4332427e-04  -5.2732677e-05  -4.7358975e-05  -1.4308954e-04   6.0823176e-04   1.2609441e-04   1.3852445e-04   3.5692903e-04   1.2497754e-04   1.2522778e-05  -5.8644266e-05   8.2939368e-05  -4.8096315e-04  -4.4766572e-04   1.0570976e-04   1.5081848e-04  -2.7130029e-04  -4.8492907e-04   5.0465058e-04  -1.5233268e-04   1.0933515e-04  -4.8218721e-05   3.6134524e-04  -7.6258625e-06   2.8016008e-04   1.2374336e-04  -7.0733906e-05   2.0609454e-04   7.5011048e-04   4.0867765e-04   4.1999648e-04   4.1782003e-04   1.2093360e-03   8.1077532e-04   6.8824232e-04   1.0774378e-03
   7.3160409e-05   2.1016298e-04   2.0143013e-04   1.2191712e-04   5.1989897e-05   1.4196699e-04   2.1819753e-04   1.0427589e-04   2.7036326e-04   2.4671975e-04   3.1402821e-04   2.5369067e-04   1.9944244e-04  -3.1572100e-04   5.5765322e-05  -3.9374871e-05  -3.4721546e-05  -1.4635856e-04   5.3304486e-04   1.3807276e-04   1.5071171e-04   3.5615044e-04   1.4529844e-04  -7.6111628e-06  -6.5076209e-05   1.1036647e-04  -5.6120142e-04  -4.5604774e-04   1.9441187e-04   2.3241293e-04  -2.4731015e-04  -4.8145500e-04   4.5855271e-04  -2.0118609e-04   9.0912821e-05   8.3953608e-05   1.5884572e-04   1.7912411e-05   3.4049584e-04   2.0885179e-04  -3.7146485e-05   3.2106633e-04   1.3206170e-03   5.1173221e-05   4.1736453e-04   5.7914772e-04   1.1150927e-03   4.5323977e-05   5.4549950e-04  -5.5785174e-04
   1.8869051e-04   2.1681302e-04   2.2031237e-04   1.1461850e-04   8.3000457e-05   1.7384424e-04   1.9240964e-04   2.3504587e-04   2.9007162e-04   2.3994371e-04   3.2498670e-04   2.9785113e-04   1.8611054e-04  -3.8765758e-04   1.5995317e-04  -5.6986020e-05  -8.5593223e-05  -1.4928625e-04   5.2123348e-04   1.4371822e-04   1.4170721e-04   3.2407747e-04   1.9355268e-04  -5.4378153e-05  -7.5498392e-05   8.2184350e-05  -4.7309816e-04  -4.3161176e-04  -2.9725736e-05   2.1675201e-04  -2.8115945e-04  -4.9860933e-04   6.3140056e-04  -2.1055309e-04   4.2789838e-05   9.0772715e-05   6.4131959e-06   9.8531717e-05   2.3214826e-04   1.5790500e-04  -1.0489651e-04   2.7440468e-04   8.4680296e-04   2.3313018e-04   3.9468351e-04   5.4026610e-04   1.1427734e-03   1.2363205e-03   1.1215449e-03   5.0700619e-04
   3.8024009e-05   2.1656405e-04   1.9325674e-04   1.3994424e-04   7.0903028e-05   1.5186601e-04   1.3045799e-04   2.7888309e-04   2.6142833e-04   2.1897959e-04   3.2227137e-04   2.6424191e-04   2.4531406e-04  -3.7538027e-04   1.2807801e-04  -1.1842588e-04  -6.1055471e-05  -1.4557838e-04   5.7808438e-04   1.3262083e-04   1.3915880e-04   3.6265308e-04   1.5268763e-04  -7.1379640e-05  -1.2615582e-04   1.2525635e-04  -5.0149206e-04  -4.2796572e-04   1.5980002e-05   1.9800900e-04  -2.6682302e-04  -4.8512730e-04   2.6453551e-04  -2.1938783e-04   1.3881277e-04   3.8982082e-05   2.1768495e-04   5.1228373e-05   3.1282176e-04   1.7494573e-04  -1.6390184e-04   2.2812157e-04   3.3515945e-04   4.5844796e-04   4.4433441e-04   5.1139563e-04   1.0366141e-03   6.3346385e-04   7.6641641e-05   6.4710947e-04
  -4.9154663e-05   2.1407517e-04   1.9300866e-04   1.0560756e-04   6.1396800e-05   1.5627831e-04   9.8547353e-05   1.2757868e-04   2.5351645e-04   2.0179612e-04   2.7721361e-04   2.2498785e-04   2.2041149e-04  -3.4533182e-04   1.3594494e-04  -6.2304032e-05  -6.0684994e-05  -1.4462334e-04   5.3691992e-04   1.3822311e-04   1.5272468e-04   3.4053344e-04   1.2303803e-04  -1.2680486e-05  -1.4065862e-04   4.9738483e-05  -4.7050699e-04  -4.6203908e-04   1.7289171e-04   2.4568176e-04  -2.8795612e-04  -5.4290798e-04   2.7103946e-04  -1.6627127e-04   1.4326307e-04   1.9351646e-05  -6.4660248e-06   1.0749840e-04   2.4010862e-04   2.0905913e-04   5.7098445e-05   1.9476583e-04  -1.0359113e-04   7.8753417e-04   4.3898346e-04   2.9923394e-04   1.1486359e-03   1.0292672e-03   2.9115018e-04   3.2261385e-05
   9.1839618e-05   2.1198791e-04   2.0822771e-04   1.2345871e-04   7.9898411e-05   1.0707173e-04   1.4409381e-04   4.6591962e-05   3.0145361e-04   2.1068813e-04   3.0412697e-04   2.6611617e-04   2.0165776e-04  -4.3726034e-04   8.9598354e-05  -1.1949502e-04  -6.4023588e-05  -1.4672373e-04   5.0171663e-04   1.3666727e-04   1.3124695e-04   3.6323650e-04   7.5031407e-05  -1.2698989e-04  -9.5045900e-05   1.3165957e-04  -5.5267557e-04  -4.3705356e-04  -7.2601448e-05   1.8259909e-04  -2.8163003e-04  -4.9205497e-04   3.1051965e-04  -1.8825846e-04   7.3707291e-05   1.0850567e-04   2.3168745e-04   8.4811414e-05   2.9976378e-04   2.8986388e-04  -2.0997188e-04   1.2284951e-04   5.1489740e-04   1.0813822e-03   3.8405464e-04   6.2145904e-04   1.1380387e-03   9.9179090e-04   6.2113022e-04   1.3145655e-03
   7.1527786e-05   2.0638028e-04   2.0161002e-04   1.1695330e-04   4.3018936e-05  -2.7828989e-07   1.5063772e-04   2.8326172e-05   2.5140747e-04   1.8608132e-04   2.7720773e-04   2.3947419e-04   2.2241908e-04  -3.6438284e-04   6.3883577e-05  -4.4434644e-05  -7.4817304e-05  -1.3603143e-04   5.0972617e-04   1.2411254e-04   1.3697331e-04   3.7974276e-04   1.5542784e-04  -5.2456318e-05  -1.2857930e-04   2.7699614e-05  -4.4754241e-04  -4.4286932e-04   3.5870497e-05   1.9856424e-04  -2.8211696e-04  -5.0118397e-04   4.4380044e-04  -1.9922381e-04   1.2667873e-04  -1.0438914e-05   1.8852227e-04   1.9526751e-05   2.5327699e-04   2.5462880e-04  -2.9909055e-04   1.7409607e-04   6.1813626e-04   6.4871280e-04   3.9741598e-04   3.8097071e-04   1.1308383e-03   6.6204526e-04   6.1712525e-04   9.7500761e-06
   9.7859142e-05   2.0137260e-04   1.7803133e-04   1.2265716e-04   6.6719367e-05   1.1744925e-04   1.2363349e-04   8.1786056e-05   2.5748610e-04   1.7557165e-04   2.4638747e-04   2.1645974e-04   2.0210524e-04  -3.6106395e-04   1.3116059e-04  -3.4832025e-05  -4.2593707e-05  -1.4363884e-04   5.2637665e-04   1.2141998e-04   1.4683603e-04   3.2779746e-04   7.2204377e-05  -1.1966679e-04  -1.0846040e-04   7.4103627e-05  -3.4477323e-04  -4.4809672e-04  -1.3387961e-04   2.5015391e-04  -2.7493486e-04  -4.8750767e-04   1.4942388e-04  -2.0263605e-04   7.8576064e-05   7.8974117e-05   1.2000658e-04   5.0721908e-05   2.1638958e-04   6.6003930e-05  -1.8763787e-05   1.3331049e-04   1.0745522e-03   8.8002067e-04   4.0043818e-04   4.1176405e-04   1.1679814e-03   2.0255915e-05  -7.0583541e-05   7.8731729e-04
   4.5079014e-05   1.8880769e-04   2.2115244e-04   7.3126655e-05   2.3803834e-05   9.4674157e-05   1.4968276e-04   1.3709484e-05   2.2490963e-04   1.5839486e-04   2.4633211e-04   1.6785797e-04   1.9070397e-04  -2.3561993e-04   2.6932347e-04  -5.3564450e-05   1.3964447e-04  -1.1828472e-04   4.9572444e-04   9.1444621e-05   9.8342047e-05   2.8204438e-04   7.6804121e-05  -1.3106241e-04  -8.3705898e-05   4.9078967e-06  -3.3886576e-04  -4.6639645e-04   2.3490201e-04   2.1652454e-04  -1.2845184e-05  -5.1959167e-04   3.7288631e-04  -1.8854016e-04   2.3000556e-04   3.4837823e-05   6.9214468e-05   6.2353989e-05   3.0107910e-04   2.0165158e-04   8.6270476e-05   1.7488333e-04   1.5059310e-04   7.6089107e-04   4.1858820e-04   4.1005484e-04   1.1033388e-03   8.2302734e-04   6.4656849e-04  -5.5212132e-04
  -2.3869197e-04   1.4703326e-04   2.0641087e-04   8.7700600e-06  -3.6350273e-05   5.4660995e-05   6.9487884e-05   1.6282908e-04   2.3615120e-04   1.4978764e-04   1.8193986e-04   9.3955910e-05   2.0798709e-04  -3.0424801e-04   2.4655231e-04  -1.2932752e-05   1.0021450e-04  -5.4681586e-05   4.9468491e-04   8.7152381e-05   1.5479840e-04   3.2751777e-04   1.0075729e-04   2.9885674e-05  -7.6467928e-05  -3.0084113e-05  -2.8212563e-04  -4.1341459e-04   2.5597046e-04   2.0084428e-04  -2.4739906e-04  -6.5290771e-04   4.5268782e-04  -3.3767201e-04   1.4182838e-04   2.2382961e-05   2.0243470e-04   1.6445672e-05   2.6399113e-04   2.7483236e-04  -1.2628255e-04   1.5842830e-04   2.2362563e-04   1.1364718e-03   4.3725880e-04   4.8199936e-04   1.0211226e-03   5.6558003e-04   5.2399526e-04   4.3555794e-04
  -2.1016323e-04   1.2742588e-04   2.3008199e-04  -3.7080654e-06  -1.0416135e-05   9.7433767e-05   1.3940941e-04   2.7399257e-04   1.5527276e-04   1.1403798e-04   1.5322633e-04   5.0328839e-05   1.3541480e-04  -2.8786782e-04   2.8642194e-04   9.7788143e-05   1.6048894e-04  -7.7360884e-05   4.8848434e-04   8.0967511e-05   1.4913442e-04   3.6300335e-04   1.7291393e-04  -2.2486767e-05  -8.5419917e-05  -1.4920224e-05  -1.3539259e-04  -3.9862320e-04   6.1715989e-05   2.3810012e-04  -1.2587385e-04  -5.8479345e-04   5.0513772e-04  -3.1993189e-04   5.8451864e-05  -3.6205951e-05   1.9890731e-05   4.6641188e-05   4.1236228e-04   1.4923011e-04  -1.3984763e-04   1.9450077e-04   1.2396453e-03   1.1714367e-03   4.0034676e-04   5.6763575e-04   9.6675201e-04  -1.0046482e-03   4.9704325e-04   1.1390273e-04
  -2.6356132e-04   1.1734098e-04   2.2938041e-04  -3.6100602e-05  -1.5742078e-05  -1.4390753e-05   1.4452891e-04   2.0971573e-04   2.9479800e-04   1.2091453e-04   1.6975115e-04   2.0488054e-05   1.4703002e-04  -1.8964808e-04   4.2531610e-04   1.0087246e-04   2.4472666e-04  -1.3831640e-05   4.6557552e-04   5.6129818e-05   1.0189806e-04   2.7967410e-04   1.0808618e-04  -4.4139724e-05  -1.0118783e-04  -4.1820309e-05  -1.5331178e-04  -3.9252458e-04   8.4878309e-05   1.9028917e-04  -5.0753028e-05  -5.6542933e-04   3.8153084e-04  -3.1603058e-04   3.1551081e-05  -5.5009794e-05   1.1582034e-04  -7.7931090e-06   2.9720162e-04   3.7896159e-05  -1.1863049e-04   2.0712809e-04   1.2222140e-03   8.1007340e-04   3.9448027e-04   6.2107033e-04   9.5486257e-04  -1.7681575e-04   6.4678909e-04   1.1384957e-03
  -2.3196416e-04   1.0132704e-04   2.3145678e-04  -7.0102091e-05  -3.4385346e-05   7.2821480e-05   9.2858623e-05   2.2844395e-04   1.5147004e-04   1.1756344e-04   1.8000473e-04   9.6980279e-05   6.3926920e-05  -1.7566739e-04   2.7068291e-04   6.7748348e-05   2.1629527e-04   1.7607117e-05   5.2672910e-04   9.5192176e-05   1.4652222e-04   2.3242227e-04   1.1020839e-04   1.5036901e-05  -8.4372732e-05  -9.7338052e-05  -1.3356330e-04  -3.9187036e-04  -1.4689882e-05   2.4873228e-04   1.9018682e-05  -4.1506122e-04   4.9462821e-04  -1.9480413e-04   8.9203451e-05  -3.7964553e-05   2.0818262e-04   2.6099331e-05   3.2556988e-04   2.0758338e-04   1.5251877e-04   2.3848904e-04   4.8214186e-04   6.3559558e-04   2.8677614e-04   9.4529148e-04   1.0623847e-03   2.7830506e-04   4.8037036e-04   8.9962623e-04
  -1.6975838e-04   9.7082528e-05   2.4154609e-04  -3.4480483e-05  -4.6787052e-05   9.2188937e-05   1.5270925e-04   1.3354211e-04   1.8970192e-04   1.2809077e-04   1.8762093e-04   9.0082482e-05   6.7067042e-05  -1.2160386e-04   3.3259587e-04   9.9320314e-05   2.3464233e-04   7.2218812e-05   5.3909916e-04   8.9566376e-05   1.2008757e-04   2.5825729e-04   1.2745273e-04   9.3659590e-05  -1.3121241e-04  -6.6281882e-06  -5.1827927e-05  -3.6830024e-04   8.5904714e-05   2.4956575e-04   7.9556215e-05  -3.6139318e-04   6.9065187e-05  -6.1447121e-05   4.4256703e-05   1.2903214e-04   2.3924427e-04   2.6098529e-05   3.0527951e-04   3.0582974e-04  -4.4101631e-07   2.7812421e-04   6.1493734e-04   7.8144274e-04   3.8915419e-04   8.0045970e-04   1.0113952e-03  -3.3195518e-04   5.6081504e-04  -8.8697829e-04
  -3.1676790e-04   9.3506089e-05   2.8353653e-04  -6.1525221e-05  -6.7924964e-05   1.3005749e-04   1.4672587e-04   1.3158897e-04   1.5032338e-04   1.1352032e-04   1.9839095e-04  -2.9437386e-05   5.9111127e-05  -1.4683873e-04   3.2103475e-04   4.4463701e-05   3.4909905e-04   6.7120091e-05   3.7586497e-04   8.4038824e-05   8.9326815e-05   2.0083577e-04   1.1545176e-04   9.0296642e-05   9.7186246e-05  -8.2874263e-05   4.1920113e-05  -1.8908663e-04   1.2026435e-04   2.2184833e-04   4.0389094e-04  -1.7285066e-04   4.3641441e-04   3.1985310e-05   1.6364235e-04   9.1295791e-05   1.7441605e-04   3.7237172e-05   4.3210963e-04   1.3981287e-04   2.2168961e-04   5.0662481e-04   8.8517589e-04   7.5610401e-04   3.6812271e-04   7.6098600e-04   1.2052157e-03  -4.1858444e-04   8.6486741e-04   9.9159079e-05
  -3.8243443e-04   7.2071722e-05   2.8246167e-04  -1.1746242e-04  -6.5215427e-05   1.8684560e-04   1.6246199e-04   2.9569364e-04   1.5289309e-04   1.4404274e-04   1.3565169e-04  -8.5857144e-05   7.9917387e-05   1.4610561e-05   3.9931826e-04   2.3407768e-04   3.6232383e-04   5.1199587e-04   4.7721612e-04   1.4456564e-04   1.2105934e-04   1.2522706e-04   1.0313533e-04   2.4362939e-04   2.9744333e-04  -1.8095046e-04   2.8065397e-04   1.4691296e-04   6.6850553e-05   1.6329048e-04   4.5750139e-04   4.1148465e-04   3.8654654e-04   1.6583641e-04   1.6699528e-04   3.4240908e-05   5.7575289e-05   1.4324659e-05   3.1053860e-04   2.6163249e-04   3.0429443e-04   3.1958811e-04   1.5136823e-03   1.4406058e-03   3.6055068e-04   6.2571396e-04   1.1539776e-03   3.3359628e-04   1.3481026e-03   1.5451735e-03
  -3.2143295e-04   7.9413301e-05   4.1836471e-04  -1.1341165e-04  -1.8947489e-06   2.0755410e-04   2.2223454e-04   1.7825916e-04   3.5629424e-04   3.1653565e-04   1.9964097e-04   5.6285262e-05  -6.3506683e-05  -1.4853990e-04   3.3774131e-04   3.9827378e-04   3.6532909e-04   1.2127142e-03   4.5058641e-04   3.4412174e-04   2.1983161e-04  -3.8083031e-06   1.1154658e-04   5.7232485e-04   2.9078790e-04  -2.9104311e-04   3.7346376e-04   4.7349755e-04   7.2837436e-05  -7.2007351e-05   5.6039577e-04   1.2163088e-03   1.7169178e-04   6.4814667e-04   2.5560736e-04   5.9721853e-05   1.7609636e-04  -7.1985196e-05   2.3844570e-04   3.0033416e-04   8.3679269e-04   7.0224336e-04   1.4660603e-03  -3.9854345e-05   5.3370837e-04   6.7313918e-04   1.4929896e-03   3.1620814e-04   3.9959385e-04   3.7926773e-04
  -2.6129538e-04   9.6138880e-05   5.2490499e-04  -1.4051642e-04   3.1840176e-05   2.8526562e-04   2.6324252e-04   4.1239892e-04   6.0307165e-04   3.9483729e-04   1.8402224e-04   7.8658784e-05  -1.8633333e-04  -2.2059689e-04   2.1791500e-04   3.8340173e-04   2.8407745e-04   1.4239037e-03   3.7889543e-04   4.6909903e-04   3.3834777e-04   3.2611562e-05   2.6572970e-04   7.8981242e-04   2.3174347e-04  -1.1385860e-05   3.1761974e-04   4.9437059e-04   7.3720803e-05  -1.8373676e-04   4.7459838e-04   1.3012285e-03  -1.8996274e-04   5.3455465e-04   1.4562155e-04   1.0510605e-04   1.2578587e-04  -8.3763873e-05   2.3265195e-04   2.4532439e-04   9.0059254e-04   1.0662081e-03   6.2369398e-04   2.8873803e-04   5.6835602e-04   1.0310387e-03   1.5164299e-03   8.9620723e-04   7.8016572e-04   1.4831049e-03
  -1.5229298e-04   7.7421937e-05   5.2176794e-04  -1.8195048e-04   3.2562908e-05   3.1473016e-04   3.0433366e-04   5.2779948e-04   5.5462227e-04   4.1213678e-04   2.2324442e-04   1.0311991e-04  -2.4513478e-04  -2.3839874e-04   1.7950690e-04   3.4278509e-04   2.0241944e-04   1.3921579e-03   4.2703009e-04   5.0147029e-04   3.6732672e-04   2.2050150e-05   3.3863008e-04   7.0215482e-04  -5.0659000e-05  -5.6046547e-06   1.6848950e-04   4.2205118e-04  -1.9576422e-05  -2.2742357e-04   3.8292728e-04   1.1800156e-03   3.9948733e-05   5.4104347e-04   1.8998483e-04   2.5612605e-04   2.0758032e-04  -9.9864905e-05   2.0598083e-04   3.0823119e-04   9.8829868e-04   1.1300736e-03   2.0985801e-03   4.2421237e-04   5.3813297e-04   1.0682885e-03   1.4956212e-03   2.5682026e-04   6.2184915e-04   1.7367988e-03
  -3.4166695e-04   6.5318774e-05   4.5080009e-04  -1.8884415e-04  -4.4221742e-05   2.9371295e-04   3.0803439e-04   3.7259387e-04   6.4796396e-04   4.0452403e-04   2.0157149e-04   9.9127836e-05  -2.2895141e-04  -2.6849829e-04   5.9785263e-05   1.8242709e-04   1.0535601e-04   1.2509380e-03   2.0749557e-04   5.0938176e-04   3.9399136e-04   7.4315052e-05   3.7040119e-04   8.2596025e-04   3.7360769e-05  -1.1798901e-05   3.8929124e-05   3.5890462e-04   2.6069744e-04  -2.1295848e-04   2.3063648e-04   1.0379006e-03  -2.3041343e-06   3.7315668e-04   1.7542478e-04   2.3088905e-04   7.5590171e-05  -1.6635526e-05   2.1079728e-04   2.7329268e-04   7.9821516e-04   1.0537320e-03   1.6057601e-03   2.0381949e-04   6.4540369e-04   1.1112529e-03   1.6513509e-03   1.1513936e-03   1.6954188e-03   4.8573056e-04
  -3.3707786e-04   5.4012191e-05   4.4630939e-04  -1.8202425e-04  -3.7101530e-05   2.9350678e-04   3.2644896e-04   4.1106052e-04   4.5165946e-04   3.7124724e-04   1.9008176e-04   1.1884691e-04  -2.0706090e-04  -3.2794074e-04   1.9710683e-04   1.3223897e-04   2.8058206e-05   1.1305826e-03   3.1746447e-04   5.0700275e-04   3.8584569e-04   6.9240101e-05   2.9805471e-04   7.0527004e-04  -8.0333681e-05   9.8844284e-06   1.1434453e-04   3.3765243e-04  -4.0843697e-06  -1.9845685e-04   1.8071580e-04   8.5485080e-04   7.2771152e-05   1.9752675e-04   1.5728197e-04   3.3005650e-04   1.5467775e-04  -7.6735436e-05   2.4863592e-04   2.8986810e-04   8.2546892e-04   1.1437706e-03   1.5081543e-03   4.8005951e-04   6.1341381e-04   8.4933761e-04   1.9547381e-03   2.2286666e-03   5.0209661e-04   1.0610532e-03
  -3.9287368e-04   4.0060339e-05   3.9867035e-04  -2.2755103e-04  -8.6293432e-05   2.4729670e-04   2.4484788e-04   3.9459299e-04   4.3028771e-04   3.3251377e-04   1.8764165e-04  -9.1118382e-06  -1.8202042e-04  -2.9966360e-04   2.2973640e-04   1.0201862e-05   1.2980694e-04   9.4636896e-04   3.3961755e-04   4.1899525e-04   3.0067679e-04   1.5019360e-05   3.6830219e-04   6.8545825e-04   8.9718786e-05   8.7428380e-05  -3.8700095e-05   2.9160571e-04  -1.7654884e-04  -1.0766786e-04   2.7976418e-04   7.3143269e-04  -3.5584493e-05   2.9681929e-04   1.5036055e-04   3.1616740e-04   9.9884390e-05  -4.8834609e-05   3.0388776e-04   4.7160831e-04   9.0442260e-04   1.0827598e-03   2.1525607e-03   1.3259065e-03   6.6786486e-04   1.3717717e-03   2.0812796e-03   3.5138353e-04   1.2865633e-03   1.1336305e-03
  -5.1092089e-04   2.2246253e-05   4.0866097e-04  -2.4839211e-04  -9.5256306e-05   1.9992160e-04   2.2928497e-04   4.0563266e-04   3.6322119e-04   2.9545635e-04   1.3454469e-04  -7.4768031e-05  -1.6890420e-04  -1.4147699e-04   4.4681635e-04   2.0591043e-04   2.5160285e-04   1.1089382e-03   2.3534022e-04   4.3142826e-04   3.0557439e-04   4.0729243e-05   2.7371020e-04   7.4855320e-04   2.9976093e-04  -5.4949709e-05   2.0259513e-04   3.6863322e-04   5.6452387e-05  -1.1539748e-04   3.9039995e-04   9.9372095e-04   1.3565237e-04   3.4316789e-04   1.3147165e-04   3.2188033e-04   2.3619166e-04  -1.1114325e-04   2.3230507e-04   3.2699472e-04   1.1744765e-03   1.0501521e-03   1.5040373e-03   8.1760349e-04   6.9348514e-04   1.0168821e-03   1.7174927e-03   4.3625574e-04   1.3558546e-03   1.2120060e-03
  -5.1974581e-04   4.6762234e-06   3.4451415e-04  -2.4908845e-04  -1.2256052e-04   2.1423982e-04   1.8645574e-04   2.6158799e-04   4.5092075e-04   4.2781117e-04   1.4842648e-04   1.2467260e-04  -1.0711538e-04  -1.7737676e-04   3.2773192e-04   2.7916610e-04   1.3742910e-04   1.6115981e-03   3.5223717e-04   5.0558103e-04   3.8623172e-04   3.9431092e-05   1.2764307e-04   8.7303278e-04   3.1612642e-04  -1.6536657e-04   3.5206150e-04   3.2671139e-04  -1.2215413e-04  -3.1936765e-04   2.9446802e-04   1.3328984e-03   6.1533123e-05   5.3451752e-04   1.8761413e-04   2.0174090e-04   3.3151653e-06  -2.0410720e-04   2.3151048e-04   1.7479841e-04   8.7211718e-04   8.7691849e-04   1.0023139e-03   1.5785972e-03   6.3268567e-04   1.0459971e-03   1.6453525e-03   1.5177320e-03   1.0856303e-03   6.1417010e-04
  -4.7489122e-04   2.2303959e-05   3.8248597e-04  -2.5953678e-04  -9.0337337e-05   2.8239784e-04   2.4211021e-04   6.1494205e-04   4.9554830e-04   4.7995962e-04   1.7734735e-04   3.0537395e-04  -2.0418740e-04  -3.5976068e-04   7.1805989e-05   2.0546798e-04  -2.9886389e-06   1.5465781e-03   2.6391709e-04   5.4817129e-04   4.6549048e-04   1.5924432e-04   4.1404850e-04   9.4919530e-04  -3.9674483e-06  -6.0025315e-05   9.5526804e-05   2.0841601e-04   8.9854308e-05  -3.6749901e-04   1.1369437e-04   1.0841626e-03  -2.0253727e-04   3.8084917e-04   7.0782749e-05   3.0661587e-04   1.5286055e-04  -1.4350764e-04   2.0252593e-04   3.1974973e-04   7.0140860e-04   1.1305233e-03   1.8022460e-03   2.3827273e-04   6.7951303e-04   8.9953875e-04   1.9009259e-03   1.1427458e-03   7.8547164e-04   4.5500629e-04
  -3.2891426e-04   1.2182167e-05   4.0422133e-04  -2.3921461e-04  -5.2260366e-05   2.9863222e-04   3.0886702e-04   6.9461094e-04   4.7681716e-04   4.1035216e-04   1.7142118e-04   2.3920770e-04  -2.4318759e-04  -3.4295453e-04   1.1613819e-04   7.7358847e-05  -5.7545843e-05   1.3821969e-03   3.3365324e-04   5.3979718e-04   4.6322285e-04   1.5864453e-04   2.8342486e-04   8.7479863e-04  -1.6281196e-04   4.4191398e-05  -8.9197878e-05   1.8839192e-04  -8.5669708e-05  -2.5927753e-04   7.4946602e-06   8.6124759e-04   1.4867214e-04   2.3214742e-04   9.1786555e-05   3.3774565e-04   2.1748256e-04  -1.3916536e-04   2.3674096e-04   3.9049410e-04   1.0049038e-03   1.1425993e-03   1.2634172e-03   1.1076184e-03   7.3202496e-04   1.1259107e-03   2.0336411e-03   6.7030708e-04   1.6636555e-03   4.7711571e-04
  -5.3454656e-04   9.4197758e-06   3.4680715e-04  -2.3551477e-04  -1.4181504e-04   1.7444059e-04   2.5048666e-04   3.1787532e-04   4.9452699e-04   3.8406282e-04   1.7253637e-04   2.0051756e-04  -2.3043284e-04  -3.7046222e-04   1.5304121e-04  -6.0892467e-05  -1.1441050e-04   1.2775715e-03   2.7471618e-04   5.2148238e-04   4.5865306e-04   1.7421911e-04   3.5658677e-04   8.8107941e-04  -9.4182826e-05   7.6343560e-05  -4.9984916e-05   1.5818952e-04  -7.3079442e-05  -2.0721518e-04  -4.9960108e-05   7.4256427e-04  -2.3039515e-06   1.6262360e-04   7.5526557e-05   2.3459658e-04   2.3269557e-04  -1.1307545e-04   2.5559097e-04   3.1956157e-04   1.0511698e-03   9.6260192e-04   1.5695270e-03   9.9125784e-04   6.8261469e-04   9.0479129e-04   2.0724698e-03   5.2216399e-04   1.3802336e-03   1.0896706e-03
  -4.5993066e-04   2.5737693e-06   2.6851270e-04  -2.2387199e-04  -1.4335870e-04   1.6671610e-04   2.5739090e-04   1.1275045e-04   3.6740646e-04   3.4215627e-04   1.5887394e-04   1.8816249e-04  -1.8290320e-04  -2.9811446e-04   1.1425796e-04  -9.0837275e-05  -1.4915715e-04   1.1941966e-03   2.9149023e-04   5.0248462e-04   4.8291741e-04   2.2919569e-04   4.4999758e-04   8.3224056e-04  -5.4515938e-05   9.3639639e-05  -1.7659918e-04   1.2535708e-04   8.6753253e-06  -1.8201562e-04  -8.7129541e-05   6.4379605e-04  -1.4175284e-04   1.5186693e-04   1.2584480e-04   2.9603567e-04   1.1286257e-04  -6.8623442e-05   2.6001540e-04   4.1065825e-04   7.4946019e-04   1.0350060e-03   1.1569703e-03   1.2013353e-03   6.9921219e-04   9.1099425e-04   2.0461718e-03   1.3540653e-03   1.1483282e-03   5.7364249e-04
  -5.0364173e-04   1.1483538e-05   2.5267428e-04  -2.0826995e-04  -1.7807209e-04   1.2138763e-04   2.0219533e-04   1.5950594e-04   3.5890765e-04   3.4809642e-04   1.8681785e-04   2.1992224e-04  -1.9829669e-04  -4.3037086e-04   1.8713932e-04  -1.4474358e-04  -2.0960844e-04   1.1252766e-03   3.1686586e-04   4.6593579e-04   4.6835674e-04   1.9885197e-04   4.8823340e-04   7.5558684e-04  -3.8277598e-05   8.1353719e-05  -2.7858390e-05   8.1680257e-05  -1.3039217e-04  -1.9174954e-04  -2.1984159e-04   5.0876476e-04  -1.2854370e-04   8.9717432e-05   9.7155353e-05   2.0409457e-04   3.8790470e-04  -1.3723916e-04   1.9852747e-04   3.4195572e-04   6.2232680e-04   8.2946289e-04   1.0592211e-03   7.7265326e-04   6.9427735e-04   1.0627105e-03   1.8797928e-03   1.7933731e-03   1.2018651e-03   8.1936724e-04
  -6.1336922e-04   1.3947655e-05   2.5480919e-04  -2.0046349e-04  -1.6774169e-04   9.8976459e-05   1.6500147e-04   1.2692517e-04   2.5818709e-04   3.2351800e-04   1.8019960e-04   2.1100717e-04  -1.2822801e-04  -4.3182095e-04   1.3081296e-04  -1.2263304e-04  -2.5332154e-04   1.0769215e-03   2.5975611e-04   4.4283707e-04   4.7065064e-04   2.5289055e-04   4.0220853e-04   7.5050571e-04  -7.7784767e-05   1.1204669e-04  -2.6501328e-04   5.3643729e-05  -1.3628037e-04  -1.4922633e-04  -2.5335100e-04   4.7899783e-04  -3.4075965e-05   6.4790744e-05   9.9392986e-05   1.8261604e-04   1.3159729e-04  -1.1756896e-04   2.9326524e-04   4.0320223e-04   8.7090390e-04   9.0690522e-04   1.1626898e-03   9.1673189e-04   6.5754447e-04   1.2353200e-03   1.9142808e-03   1.2017615e-03   1.8673580e-03  -3.1328658e-04
  -5.2304601e-04   1.1230910e-05   2.0774148e-04  -1.9218944e-04  -1.4634980e-04   1.6471365e-04   2.2904473e-04   1.7820243e-04   3.1878779e-04   3.1880836e-04   1.9117740e-04   2.4496010e-04  -1.2222190e-04  -4.6205148e-04   1.3214331e-04  -1.6191346e-04  -3.0509927e-04   1.0366855e-03   3.6802172e-04   4.2014782e-04   4.5224911e-04   2.7552200e-04   3.7234370e-04   7.0828473e-04  -1.1084614e-04   9.0004214e-05  -2.8581882e-04   4.7140024e-05  -4.5131274e-05  -1.3354438e-04  -2.5644497e-04   3.9954972e-04   9.7695287e-05  -4.9954586e-05   8.9321817e-05   2.7819854e-04   2.6602193e-04  -1.1465976e-04   2.3396334e-04   3.4406380e-04   6.7205075e-04   8.6548086e-04   3.1428871e-04   4.0218353e-04   7.1342301e-04   1.0050356e-03   1.7290565e-03   1.6857248e-03   1.5180778e-03   3.0494048e-04
  -5.4878340e-04   1.5061514e-05   2.1733856e-04  -1.9323711e-04  -1.5530271e-04   8.7675879e-05   1.7722452e-04   2.0559711e-04   2.7602515e-04   3.2084589e-04   2.0424863e-04   2.2993128e-04  -1.1619410e-04  -4.1843890e-04   1.1229182e-04  -1.8489940e-04  -2.8497152e-04   9.9578919e-04   2.5567444e-04   4.0484339e-04   4.4944711e-04   2.5768846e-04   3.4246704e-04   6.1379944e-04   1.4954537e-05   1.0990081e-04  -2.5983091e-04   2.9013745e-05  -2.4069132e-05  -1.8766157e-04  -2.1651923e-04   4.3704631e-04   6.3075357e-05   2.5779931e-05   8.5680804e-05   2.4101303e-04   3.3222555e-04  -1.4270165e-04   2.6768268e-04   3.6610311e-04   5.8324134e-04   8.5383456e-04   1.0241914e-03   9.4357319e-04   6.2995910e-04   1.0373776e-03   1.7849574e-03   9.0873777e-04   4.1960552e-04   6.4735109e-04
  -4.6040662e-04   1.0509349e-05   2.1092844e-04  -1.8718997e-04  -1.5904363e-04   1.0744060e-04   1.6942516e-04   3.2194334e-04   2.6899768e-04   2.9923665e-04   1.8007601e-04   1.8861005e-04  -8.3161081e-05  -4.0531866e-04   1.7533159e-04  -1.4810103e-04  -2.2988752e-04   9.7550050e-04   2.4558933e-04   3.7056356e-04   4.6465106e-04   3.2015843e-04   3.7181217e-04   5.8509997e-04   7.5507865e-05   5.9728420e-05  -1.7246678e-04   2.7157837e-05  -8.1199665e-05  -9.4136558e-05  -1.4946715e-04   4.5076976e-04   1.9488303e-04   8.7173859e-05   1.1780648e-04   2.4886194e-04   2.0193889e-04  -1.1283255e-04   2.7870454e-04   3.7049170e-04   5.9635518e-04   7.2779949e-04   1.0256108e-03   1.0952710e-03   6.1788486e-04   9.3791040e-04   1.6596417e-03   1.9075475e-03   1.0473613e-03   1.6886079e-03
  -5.1553827e-04   1.7859013e-05   2.3324697e-04  -1.8404155e-04  -1.8423850e-04   1.0003675e-04   1.7524714e-04   1.8045452e-04   2.9008419e-04   3.2920964e-04   2.0422591e-04   2.0698481e-04  -5.7974990e-05  -3.7036819e-04   1.6327642e-04  -1.1307821e-04  -2.0419959e-04   9.8427001e-04   2.3481414e-04   3.5042164e-04   4.2959646e-04   2.2910889e-04   4.1654962e-04   5.7853083e-04   1.4244831e-04  -4.4118202e-05  -1.6021935e-04   5.9988695e-05  -8.4873835e-05  -1.2131396e-04  -2.0611538e-04   4.1774605e-04   2.6007241e-04   6.9685266e-05   1.1545113e-04   2.2149566e-04   2.1849944e-04  -1.7596627e-04   2.3334577e-04   3.2482273e-04   5.6288304e-04   6.8821659e-04   1.1165485e-03   1.6374810e-03   5.7259668e-04   1.0296437e-03   1.6310310e-03   4.1514952e-04   1.0587068e-03   8.7702001e-04
  -5.3120859e-04   1.3672883e-05   2.1139839e-04  -1.8195530e-04  -1.5682557e-04   4.5896708e-05   1.3957490e-04   1.7194114e-04   3.0648784e-04   3.0716264e-04   1.9070788e-04   1.7360051e-04  -3.5918881e-06  -3.7054947e-04   3.3003546e-04  -1.4489397e-04  -1.9389162e-04   8.9518109e-04   2.4993264e-04   3.4885423e-04   4.3308185e-04   2.4737124e-04   3.4330145e-04   6.3749420e-04   5.3550259e-05  -4.4548469e-05  -1.6810406e-04   5.5736444e-05   7.7558161e-06  -1.1112210e-04  -2.3420788e-04   3.2957009e-04   3.1054638e-05   2.2582137e-05   9.0956906e-05   1.4888347e-04   2.7965190e-04  -1.2445899e-04   2.9088304e-04   2.8936411e-04   8.0888375e-04   6.2056934e-04   1.1932766e-03   5.7529862e-04   6.7387236e-04   1.0237965e-03   1.6096391e-03   1.1962039e-03   8.9547870e-04   1.7866844e-03
  -4.8298968e-04   1.7214623e-05   2.1342986e-04  -1.6077133e-04  -1.2043097e-04   9.0499576e-05   1.3384876e-04   2.2928898e-04   2.8800577e-04   3.0640463e-04   1.9213094e-04   1.9654118e-04  -4.1471812e-05  -3.4145935e-04   2.7229483e-04  -9.9405697e-05  -2.0693942e-04   8.6526835e-04   3.9431802e-04   3.2831164e-04   4.1358720e-04   2.7379615e-04   3.3678161e-04   5.3545268e-04   6.0658243e-05   5.9922229e-05  -1.4335442e-04   5.0237501e-05  -1.4889913e-04  -1.2464249e-04  -1.8002898e-04   3.1217866e-04   2.7158874e-04   4.5645971e-05   9.1180067e-05   1.8207845e-04   2.0379017e-04  -2.0341190e-04   2.4063820e-04   3.4635089e-04   3.9625715e-04   6.9216732e-04   1.0950059e-03   1.0501719e-03   6.5314071e-04   1.0458608e-03   1.4331564e-03   1.3355596e-03   1.3226671e-03   1.0725661e-03
  -6.1228132e-04   1.5132169e-05   1.8816249e-04  -1.5977336e-04  -1.6540581e-04   6.9338232e-05   9.6856355e-05   1.3153692e-04   3.0452487e-04   3.3448794e-04   2.4108910e-04   2.0504149e-04   4.7873336e-06  -2.6550441e-04   2.3725610e-04  -1.3925387e-04  -1.7400464e-04   8.3367527e-04   3.4494960e-04   3.2649733e-04   4.1463805e-04   2.4986282e-04   3.2403297e-04   5.8359985e-04   1.1398002e-04  -1.3391663e-05  -4.3720764e-05   2.8317178e-05  -1.3760987e-04  -1.2519596e-04  -1.9368371e-04   3.0274913e-04  -6.5462555e-05  -1.8612982e-05   2.4559051e-05   2.3676894e-04   2.7522034e-04  -2.0958210e-04   2.0326332e-04   2.7064735e-04   4.4352360e-04   6.0796872e-04   7.7643624e-04   7.8161957e-04   5.9635506e-04   7.6722802e-04   1.4376178e-03   1.9232607e-03   1.3963972e-03   1.9652618e-03
  -5.1452231e-04   1.5161114e-05   2.4276981e-04  -1.5341588e-04  -1.5429749e-04   1.3106327e-04   1.8315982e-04   3.4070548e-04   3.6533471e-04   3.1026782e-04   2.2126292e-04   1.6839638e-04   2.1904480e-05  -2.3263723e-04   3.5680298e-04  -9.9804121e-05  -1.5751885e-04   8.1647676e-04   3.6273606e-04   3.2599817e-04   4.2928354e-04   3.0931455e-04   1.9124214e-04   5.4620631e-04   1.4463771e-04   4.6282163e-05   1.7640026e-05   1.9766738e-05   9.4628940e-06  -7.8397563e-05  -1.5841809e-04   2.9377709e-04   1.7852429e-04   8.9407549e-06   5.6526907e-05   2.4833583e-04   2.8563471e-04  -8.5108753e-05   2.3365268e-04   3.5181423e-04   4.3427601e-04   6.8117701e-04   1.2525225e-03   8.9652202e-04   5.0671177e-04   8.7691663e-04   1.3900596e-03   1.3836684e-03   1.3476048e-03   1.1453978e-03
  -5.1398610e-04   1.3746249e-05   2.0201727e-04  -1.5261037e-04  -1.4767751e-04   1.1419580e-04   1.6360365e-04   8.8523688e-05   2.7613211e-04   3.3063642e-04   2.6682924e-04   2.0837673e-04   2.8406923e-05  -2.5792452e-04   3.3527453e-04  -1.2719893e-04  -1.3798766e-04   7.9272821e-04   3.7723794e-04   3.1523025e-04   4.1388656e-04   2.9671393e-04   1.9378176e-04   5.3474453e-04   1.0831345e-04   1.8179240e-05  -9.8551776e-05  -4.9089840e-06  -1.7482632e-04  -8.9442241e-05  -1.9356230e-04   2.6213349e-04   1.2116419e-04  -1.6635247e-05   1.0471413e-04   2.5573306e-04   5.0841882e-05  -1.7396131e-04   2.2365664e-04   3.0591185e-04   6.0971396e-04   6.0914154e-04   9.8110444e-04   8.0973975e-04   5.5595866e-04   1.1633801e-03   1.3170321e-03   9.9575205e-04   1.3168935e-03   8.0951035e-04
  -5.2953931e-04   1.3658752e-05   2.0443447e-04  -1.5305077e-04  -1.4926789e-04   6.6508357e-05   1.4111349e-04   5.0304992e-05   2.3867944e-04   2.9448213e-04   2.5239453e-04   1.5741520e-04   5.0849809e-05  -2.2319095e-04   3.8204290e-04  -1.2463973e-04  -1.0709599e-04   7.5403886e-04   2.7377199e-04   3.0855081e-04   4.2522684e-04   2.8837562e-04   3.3906152e-04   4.6888468e-04   1.5444610e-04   6.0271654e-05  -4.6218101e-06  -2.9374483e-05  -2.1511316e-04  -7.2972442e-05  -1.4246217e-04   2.6653556e-04   2.3486423e-04  -1.5481373e-05   1.0986443e-04   2.3887670e-04   3.0297201e-04  -1.0531706e-04   2.7502581e-04   3.2979480e-04   5.1388284e-04   6.1341427e-04   1.0970165e-03   7.5102149e-04   5.6663476e-04   9.3627069e-04   1.1835457e-03   1.4968703e-03   1.5214910e-03   4.8516659e-04
  -4.3598356e-04   1.2570121e-05   2.3097845e-04  -1.5232502e-04  -1.0156848e-04   4.8794798e-05   1.4924201e-04   4.6068531e-06   3.5391384e-04   2.7670313e-04   2.4078057e-04   1.6492390e-04   2.8410110e-05  -2.1953812e-04   2.3569656e-04  -1.0677417e-04  -1.1240446e-04   7.6438283e-04   2.7773029e-04   3.2112465e-04   4.0485998e-04   3.2312589e-04   3.4813012e-04   4.7218773e-04   6.4846739e-05   1.5611688e-04   4.9926633e-08  -2.2360542e-05  -2.7682789e-04  -8.7205713e-05  -1.6936939e-04   2.4899389e-04   8.1333994e-05   4.2073891e-05   8.5112646e-05   2.2245567e-04   1.6557453e-04  -1.6051115e-04   1.9516848e-04   2.8221036e-04   4.1921056e-04   7.0152129e-04   6.9894653e-04   9.5716631e-04   6.4732833e-04   1.1069695e-03   1.1939959e-03   4.9159460e-04   1.0310713e-03   1.0652661e-03
  -4.9189542e-04   2.4067476e-05   2.4208263e-04  -1.3426393e-04  -1.5385059e-04   6.0474624e-05   1.7258670e-04   3.4116860e-05   2.6600619e-04   2.8072065e-04   2.6271463e-04   1.7720567e-04   6.2196217e-05  -2.2015319e-04   3.8095444e-04  -9.6812073e-05  -1.3605380e-04   7.5233035e-04   4.3218271e-04   3.1980890e-04   4.0652652e-04   2.7001972e-04   3.2891167e-04   5.3080503e-04   1.3109838e-04   7.2733877e-05  -3.2192927e-06  -1.9100878e-05  -9.7093936e-05  -5.3220487e-05  -1.5986152e-04   2.5008799e-04   3.0570131e-04   3.6893103e-05   7.3390678e-05   1.8627032e-04   2.0620610e-04  -1.5649763e-04   2.7013666e-04   3.0155748e-04   7.0001866e-04   6.2166905e-04   8.6084491e-04   1.2073601e-03   6.1580434e-04   7.8678859e-04   1.2102186e-03   1.3137183e-03   1.1182695e-03   1.7506762e-04
  -4.4686097e-04   2.3416836e-05   2.2237276e-04  -1.1288877e-04  -1.0493994e-04   1.7725058e-04   1.4830407e-04   2.6316021e-04   2.1526236e-04   2.6080760e-04   2.3121318e-04   1.4865174e-04   7.2534189e-05  -2.3577265e-04   3.6875994e-04  -1.1908304e-04  -1.2806831e-04   7.2591612e-04   3.8166146e-04   3.2624372e-04   4.3289186e-04   3.1544015e-04   2.8472504e-04   5.6931196e-04   1.5077890e-04   1.1008854e-04  -6.9236550e-05  -3.3382679e-05   7.8618381e-05  -5.8973069e-06  -2.0158934e-04   2.3287487e-04   1.9552067e-04  -1.9388219e-05   1.1745279e-04   3.3664383e-04   3.1234397e-04  -1.4600329e-04   1.8409318e-04   3.0706395e-04   4.7934719e-04   5.6255388e-04   1.4292145e-03   7.3042285e-04   6.4938253e-04   8.0887269e-04   1.2789252e-03   1.6693095e-03   1.1111785e-03   3.4190260e-04
  -3.4309021e-04   2.8905770e-05   2.0759605e-04  -9.8993762e-05  -1.2491777e-04   1.4779789e-04   1.2809726e-04  -5.8729729e-05   2.5834373e-04   2.8464486e-04   2.8248152e-04   2.0819058e-04   6.2086692e-05  -3.0674538e-04   3.5052732e-04  -1.2750109e-04  -1.9828114e-04   7.3195249e-04   3.9320200e-04   3.2746635e-04   4.2474520e-04   2.9053845e-04   3.7824246e-04   5.5449537e-04   9.4969640e-05   8.9355548e-05  -2.2153716e-04  -4.8920410e-05  -4.8259612e-05  -3.4575827e-05  -2.5806317e-04   1.8702725e-04   3.2385207e-05  -6.6569373e-05   1.6858113e-04   2.7090189e-04   1.1642484e-04  -1.5080298e-04   2.1669679e-04   2.8835470e-04   4.6131416e-04   5.7358178e-04   1.0167651e-03   4.3456277e-04   6.6158373e-04   9.1837352e-04   1.1589557e-03   3.8835255e-04   1.2238666e-03  -2.3087549e-04
  -4.1230084e-04   3.4666984e-05   2.1668810e-04  -8.2518192e-05  -1.2521360e-04   6.0679627e-05   1.5865572e-04  -1.2563728e-06   2.9799694e-04   2.7229384e-04   2.6670232e-04   1.9788499e-04   5.6521461e-05  -3.2563601e-04   2.6996215e-04  -1.1696637e-04  -1.8947248e-04   7.3695171e-04   3.6212770e-04   3.4975604e-04   4.3740365e-04   3.3590698e-04   3.4787974e-04   5.3951138e-04   3.8330800e-05   7.6040931e-05  -2.0284158e-04  -2.2296292e-05  -1.4921055e-04  -3.3672950e-05  -2.6205627e-04   1.5688334e-04   3.1907938e-04  -3.0019199e-05   5.2285410e-05   3.6836593e-04   1.0086504e-04  -8.8080975e-05   2.1592548e-04   3.5056236e-04   5.6011847e-04   5.8748631e-04   9.6967042e-04   1.0735135e-03   7.1428827e-04   8.5622951e-04   1.1818372e-03   1.8645683e-03   7.9106091e-04   3.9963794e-05
  -4.1597080e-04   3.9739021e-05   2.4935263e-04  -8.0757716e-05  -9.9466968e-05   1.2348717e-04   2.3575797e-04   5.7587022e-05   3.2790549e-04   2.6895601e-04   2.8299645e-04   2.1588588e-04   7.6520897e-05  -3.2383049e-04   2.7969925e-04  -1.3976131e-04  -2.1365481e-04   7.0677465e-04   5.2125863e-04   3.3083331e-04   4.2811563e-04   3.2009179e-04   3.6699700e-04   5.3090160e-04   4.2588101e-05   1.2894839e-04  -1.1336006e-04  -2.3427732e-05   4.3833748e-05  -7.5988966e-05  -2.5554022e-04   1.3724627e-04   2.8632395e-04  -4.1895546e-05   6.0178496e-05   2.8258184e-04   2.6888691e-04  -1.6891511e-04   2.6235037e-04   2.6096473e-04   4.0905512e-04   5.9326889e-04   6.4463960e-04   1.4556843e-03   6.1578024e-04   1.1153658e-03   1.1903048e-03   1.0770219e-03   7.0623838e-04   9.5720502e-04
  -4.3972040e-04   5.0411214e-05   2.3282584e-04  -6.8273068e-05  -1.0427624e-04   1.0346528e-04   1.7834963e-04   2.3815859e-04   2.5626353e-04   2.5531632e-04   2.7739364e-04   2.0064905e-04   8.8893437e-05  -3.3792880e-04   2.7731812e-04  -1.6621666e-04  -1.9652052e-04   7.1128539e-04   3.7924832e-04   3.3514859e-04   4.3700580e-04   3.6771694e-04   3.1425111e-04   5.5907719e-04   8.4319814e-05   7.9828300e-05  -1.2928562e-04  -3.7481888e-05  -3.0306182e-05  -1.1393582e-04  -3.0002621e-04   1.0930310e-04   2.2705026e-04  -4.5078079e-05   1.0321666e-04   2.8916559e-04   1.3316718e-04  -1.0245134e-04   1.9765570e-04   2.6922705e-04   4.1425537e-04   4.5721445e-04   8.3346263e-04   5.3464592e-04   6.5990677e-04   9.3810441e-04   1.2300597e-03   9.7329979e-04   1.1879512e-03   7.0404762e-04
  -4.2826484e-04   5.0151306e-05   2.5337125e-04  -7.6620046e-05  -8.4625055e-05   1.6403665e-04   2.1529220e-04   2.2155662e-04   2.5874190e-04   2.3087228e-04   2.4671096e-04   1.6281888e-04   8.0693404e-05  -3.0065380e-04   2.7146019e-04  -5.3033258e-05  -1.8265549e-04   7.3102693e-04   4.3126530e-04   3.2749519e-04   4.2098935e-04   3.3842571e-04   2.8897935e-04   4.9871928e-04   1.9546191e-05   4.7422345e-05  -1.8445043e-04  -1.5965352e-05   1.3449522e-06  -6.4337306e-05  -2.8349087e-04   1.3888176e-04   2.5115983e-04  -3.8921400e-05   8.1789971e-05   3.2908531e-04   3.2367802e-04  -1.2220583e-04   1.9049524e-04   2.6795091e-04   4.4711583e-04   4.5424415e-04   6.8364618e-04   8.3055778e-04   6.7906576e-04   7.1077375e-04   1.1867937e-03   1.6016338e-03   8.5482269e-04  -1.7605163e-04
  -4.3128556e-04   5.7335281e-05   2.4242264e-04  -5.2626510e-05  -1.1872205e-04   8.1566592e-05   2.0879631e-04   1.6844185e-04   2.8688673e-04   2.3606440e-04   2.8401960e-04   1.9107954e-04   1.0878102e-04  -3.3007117e-04   1.8460926e-04  -1.2790033e-04  -1.9770110e-04   7.0618169e-04   4.0374958e-04   3.2888178e-04   4.1892458e-04   3.4212763e-04   2.8731357e-04   4.9498252e-04  -3.8416638e-05   7.7713608e-05  -2.1887271e-04  -2.4887000e-05  -2.8357836e-05  -8.1194696e-05  -3.3911050e-04   1.0096727e-04   1.6252651e-04  -6.7533787e-05   5.9702630e-05   3.3482400e-04   4.4372017e-04  -1.3655296e-04   2.0256321e-04   3.4329348e-04   3.2211479e-04   4.6876160e-04   1.2367243e-03   1.0512617e-03   7.1208325e-04   1.0006462e-03   1.1325222e-03   1.1437911e-03   9.8521099e-04  -1.7729930e-04
  -3.1846287e-04   5.3297423e-05   2.1733429e-04  -5.7049270e-05  -7.7613477e-05   9.8170000e-05   2.1266843e-04   2.1099143e-04   2.6897821e-04   2.0527659e-04   2.2961841e-04   1.5610510e-04   1.3305382e-04  -2.9682516e-04   2.9020305e-04  -7.7701086e-05  -2.1213073e-04   6.7367568e-04   2.9474273e-04   3.3080182e-04   4.3187998e-04   4.1324497e-04   3.6932950e-04   4.1353420e-04  -3.0531141e-05   1.2495872e-04  -9.2011673e-05  -4.2152991e-05  -8.7131957e-05  -9.3298459e-06  -3.3252672e-04   6.8813126e-05   7.6283388e-05  -8.4477171e-05   9.2832954e-05   2.4245006e-04   3.2809988e-04  -1.2386803e-04   2.0674980e-04   4.2734650e-04   3.6933520e-04   4.0686509e-04   1.2470691e-03   1.0539138e-03   6.9020566e-04   1.0332302e-03   1.1938727e-03   1.6679615e-03   1.4388086e-03   1.1136966e-03
  -4.1568981e-04   6.1048428e-05   2.1395461e-04  -5.4915196e-05  -1.2101274e-04   7.8766119e-05   1.4817400e-04  -8.1329317e-06   3.9058266e-04   2.0388317e-04   2.5824324e-04   1.8695477e-04   7.0810936e-05  -3.2863379e-04   4.1784922e-04  -1.0932566e-04  -2.1259375e-04   6.8205787e-04   3.5890235e-04   3.2369004e-04   4.0506240e-04   3.4466622e-04   3.8004664e-04   3.8782432e-04  -1.6163565e-05   8.7243505e-05  -2.2005777e-04  -3.9003273e-05  -2.7711465e-04  -9.4131698e-05  -3.7232295e-04   6.6031156e-05   3.0899016e-04  -1.4169890e-04   5.2475920e-05   1.6384326e-04   2.6342180e-04  -1.9249374e-04   2.0674738e-04   3.4701446e-04   3.9258634e-04   3.7880908e-04   7.1369018e-04   7.2599703e-04   7.7917986e-04   6.6532515e-04   1.1349024e-03   1.7872072e-03   8.3846541e-04   8.1634830e-04
  -4.5388236e-04   5.9280061e-05   2.3393439e-04  -6.1487917e-05  -1.0051121e-04   1.0749310e-04   1.8663252e-04   1.8239072e-04   3.0687029e-04   1.7721948e-04   2.2903658e-04   1.3769271e-04   9.6562144e-05  -3.1820720e-04   2.4422398e-04  -9.4264564e-05  -2.0732998e-04   6.5644324e-04   4.6174478e-04   3.3641094e-04   4.0972876e-04   3.3377652e-04   1.9030625e-04   4.5503693e-04  -5.5949981e-06   2.0538006e-05  -1.7702318e-04  -4.3906912e-05   1.1708739e-04  -5.7523550e-05  -3.5777560e-04   2.6642196e-05   3.8434617e-04  -9.2903159e-05   3.6692545e-05   2.0683864e-04   3.1957231e-04  -1.2703943e-04   2.2658524e-04   2.9786571e-04   2.1026219e-04   4.3725874e-04   9.7736006e-04   8.8984874e-04   7.5187132e-04   7.6129992e-04   1.1410486e-03   8.7511109e-04   8.6459366e-04   2.7380130e-04
  -2.9992449e-04   6.1910403e-05   2.0506026e-04  -3.6704943e-05  -1.0700789e-04   1.2207391e-04   1.9299498e-04   1.7472684e-04   2.1371031e-04   1.8534853e-04   2.4437811e-04   1.5284136e-04   1.1623939e-04  -3.0060476e-04   2.7085780e-04  -1.0603033e-04  -2.1605977e-04   6.6455605e-04   2.8381139e-04   3.2527480e-04   4.0278808e-04   3.3949569e-04   3.2987026e-04   3.3204220e-04  -3.7255497e-05   2.2616658e-05  -1.2683848e-04  -4.7030240e-05   1.7840754e-04  -7.9373080e-05  -3.2534057e-04   4.1267467e-05   2.5126134e-04  -1.9998329e-04   5.8503372e-07   3.5660749e-04   3.2209317e-04  -1.2637720e-04   1.6545503e-04   3.6961195e-04   6.0651143e-04   3.8731820e-04   6.5245782e-04   1.1257160e-03   6.6588423e-04   1.0795076e-03   1.0804496e-03   8.0611149e-04   1.5289414e-03   1.9529944e-03
  -4.9033761e-04   6.1344959e-05   2.3382691e-04  -3.6312482e-05  -1.2146224e-04   6.4362677e-05   1.4806143e-04   3.0461646e-04   2.2990585e-04   1.6790052e-04   2.1369838e-04   1.0946800e-04   6.8192996e-05  -2.5875686e-04   4.1473925e-04  -1.4956214e-04  -1.7773254e-04   6.4438465e-04   4.0346597e-04   3.2441763e-04   3.9305448e-04   3.2029222e-04   2.8394090e-04   3.5098940e-04  -3.7486312e-05   2.0571833e-05  -1.8121497e-04  -4.6430250e-05  -1.4270611e-04  -8.4345840e-05  -3.5681299e-04   4.1748990e-05   2.7790599e-04  -6.6079236e-05   5.0537576e-05   3.7993526e-04   1.3327756e-04  -1.6233785e-04   2.0314136e-04   3.9718265e-04   5.1665306e-04   4.0163967e-04   1.4617217e-05   8.6750335e-04   6.8361976e-04   9.2965236e-04   1.1443859e-03   1.1081406e-03   1.5570904e-03   4.3160480e-04
  -4.6804614e-04   5.2606811e-05   2.0822686e-04  -3.8473554e-05  -1.0547175e-04   1.0136861e-04   1.7383484e-04   2.2085744e-04   2.1952963e-04   1.3906354e-04   1.9254124e-04   8.2388040e-05   8.5890773e-05  -2.6622292e-04   2.4717845e-04  -1.2478427e-04  -1.5821114e-04   6.7103736e-04   3.2003038e-04   3.1795973e-04   3.8237308e-04   3.2175388e-04   2.4705569e-04   3.2679876e-04  -5.1610805e-05   2.9584420e-05  -1.9305914e-04  -6.2802435e-05   4.4272052e-05  -4.6651632e-05  -3.4287327e-04   2.2624743e-05   3.4819363e-04  -1.1149913e-04   1.5436033e-04   3.0032932e-04   2.2484992e-04  -9.6794363e-05   1.9057818e-04   2.5056410e-04   4.3500724e-04   4.1132123e-04   7.2820456e-04   7.9485943e-04   6.9507194e-04   1.1180392e-03   1.0350081e-03   1.3744319e-03   1.6799200e-03   1.4243321e-03
  -4.9329031e-04   5.6298388e-05   2.0546239e-04  -4.3927743e-05  -1.4164389e-04   9.8485994e-05   1.0452201e-04   1.7283179e-05   2.3173232e-04   1.6231911e-04   2.0851773e-04   1.0053778e-04   6.0683964e-05  -3.9244848e-04   3.4737051e-04  -1.4191217e-04  -2.0410078e-04   6.7414355e-04   3.2938810e-04   3.1745684e-04   3.8809355e-04   3.6576428e-04   2.7755232e-04   3.0750880e-04  -8.8530971e-05   1.1235422e-04  -1.7100429e-04  -4.5832079e-05  -2.6597883e-04  -1.4125301e-04  -4.1626452e-04   6.5214858e-06   2.1152299e-04  -1.1800904e-04   1.5745716e-05   2.6917068e-04   1.2747177e-04  -1.9273134e-04   1.3575303e-04   3.0643257e-04   3.4295442e-04   3.9377162e-04   5.2326167e-04   4.2642653e-04   7.0441875e-04   8.3760562e-04   9.8472682e-04   5.8416429e-04   8.9059159e-04   1.2272643e-03
  -5.0665432e-04   5.2170781e-05   2.1135973e-04  -4.3748787e-05  -1.1528099e-04   9.0672620e-05   1.4134566e-04   1.6914880e-04   2.0486284e-04   1.3539479e-04   1.6084150e-04   5.8728772e-05   8.3520608e-05  -2.3611826e-04   3.1304755e-04  -1.3977318e-04  -1.2804591e-04   6.1951333e-04   3.4830600e-04   3.1021331e-04   3.7231602e-04   3.5938527e-04   3.5753133e-04   3.3379922e-04  -8.3521045e-05   9.2369621e-05  -7.6035467e-05  -7.7247983e-05   5.7730351e-05  -6.1132137e-05  -3.2830046e-04  -8.9605928e-05   1.1772162e-04  -1.5722333e-04   7.9830806e-06   1.9004897e-04   1.2563227e-04  -1.7479554e-04   2.6817559e-04   3.2823856e-04   3.6512152e-04   3.8565919e-04   7.6572871e-04   3.9790728e-04   6.4211845e-04   1.0903036e-03   1.0305562e-03   1.4973804e-03   1.1070942e-03   7.5885083e-04
  -5.5855955e-04   4.3934295e-05   2.7069010e-04  -7.6557386e-05  -1.5949277e-04   8.9188747e-05   1.5070461e-04  -2.6456409e-04   1.4379712e-04   1.0770884e-04   1.7903378e-04  -6.5626351e-05   4.6645531e-05  -2.0623955e-04   3.6098555e-04  -1.9683999e-04   4.1682284e-05   5.0354836e-04   3.0052927e-04   2.5301299e-04   3.0680464e-04   2.5301200e-04   2.3962749e-04   2.5204779e-04   1.0482620e-04   5.7365574e-05   6.5329972e-05   2.9790577e-05  -2.5372391e-04  -4.6697529e-05  -1.3273278e-04   1.3708672e-05   2.8673167e-04  -6.9942522e-05   6.8353409e-05   2.5623699e-04   2.7086900e-04  -2.2485740e-04   1.4192302e-04   3.0018884e-04   5.5389380e-04   2.3883033e-04   1.1724470e-03   1.2906361e-03   6.3280109e-04   8.9911971e-04   9.1330032e-04   1.3758380e-03   7.6924008e-04   2.4432044e-03
  -5.9283304e-04   1.7239476e-05   2.4858053e-04  -1.1167803e-04  -1.4475496e-04   9.0624373e-05   1.1109074e-04   2.0193722e-04   4.1689607e-05   1.4397679e-04   1.2100743e-04  -6.8748719e-05   2.6820502e-05  -1.5059119e-04   3.4381924e-04   2.3666829e-05   7.9127858e-05   7.7191729e-04   3.6663224e-04   2.9581410e-04   3.0727391e-04   1.8183727e-04   2.3422345e-04   3.3757073e-04   9.0338996e-05  -1.0598623e-04   1.6650600e-04   1.0083172e-04  -5.7367008e-05  -1.4562545e-04   1.6893193e-05   3.6863194e-04   2.9079101e-04   7.5239972e-05   1.2743498e-04   2.3567464e-04   6.8582158e-05  -2.5274334e-04   1.4217352e-04   2.4046062e-04   4.8448690e-04   3.4083647e-04   7.0296408e-04   7.3753699e-04   7.3577079e-04   1.0553879e-03   7.9862331e-04   7.3709717e-04   1.1157289e-03   3.1160787e-04
  -5.6938961e-04   1.6331537e-06   3.6611658e-04  -1.1166747e-04  -1.4202252e-04   1.2891274e-04   1.2062983e-04   6.2437291e-05   1.3822284e-04   1.5333958e-04   1.3928002e-04  -3.4752287e-05  -6.4639702e-05  -1.5767811e-04   3.1227097e-04  -1.0982963e-04   1.4203379e-04   7.2607282e-04   2.0366875e-04   3.4074773e-04   2.8803138e-04   1.1481484e-04   2.0830725e-04   3.0254127e-04   1.0408914e-05   1.1861892e-04   8.8461056e-05   7.7020610e-05  -2.5669849e-04  -1.2261406e-04   1.1677443e-04   3.6016892e-04  -1.5996382e-05   1.5256110e-04   2.8227656e-05   3.9417201e-04   4.3713182e-05  -2.2127110e-04   1.4776539e-04   2.3709485e-04   5.6956342e-04   5.7756208e-04   1.1334440e-03   1.5034247e-03   6.3974125e-04   1.4482860e-03   8.3061540e-04   6.7306479e-04   1.2627573e-03   2.3212011e-03
  -7.1962900e-04   7.5903672e-06   3.2446336e-04  -1.2941679e-04  -1.5878917e-04   1.0171039e-04   1.4052588e-04  -1.7194972e-04   2.1774412e-04   1.5184670e-04   1.3491206e-04  -2.6090814e-07  -4.8721169e-05  -1.3657121e-04   2.4517701e-04  -1.3727514e-04   1.7911094e-04   7.4808719e-04   2.2105275e-04   3.2377569e-04   2.7765293e-04   8.8360830e-05   2.2289058e-04   3.0246514e-04   1.1145625e-04   1.2720186e-04   1.8536171e-04   7.4858843e-05  -2.3036911e-04  -1.1971347e-04   1.0815183e-04   2.9252077e-04  -1.0683939e-05   6.9020716e-05   8.4579515e-05   3.2405794e-04   1.2186969e-04  -2.5774998e-04   8.2794242e-05   2.1888383e-04   5.3350907e-04   5.7904731e-04   2.4106489e-03   1.1506372e-03   6.5523956e-04   1.2707551e-03   9.3467132e-04   6.0214108e-04   1.4270212e-03   1.2895011e-03
  -7.0556626e-04  -1.0112615e-05   2.8506771e-04  -1.6540514e-04  -1.5667375e-04   8.4591135e-05   9.6290212e-05  -1.8646728e-04   8.7277163e-05   1.0534175e-04   1.1134813e-04  -1.6949160e-04  -6.0159600e-06  -3.4093235e-05   4.6911777e-04  -4.7642163e-05   2.7205900e-04   6.2742765e-04   3.6831750e-04   2.7930533e-04   2.8067181e-04   9.3433591e-05   1.1888181e-04   4.0973679e-04   1.3188495e-04   1.4298344e-04   1.0363830e-04   1.0375502e-04  -1.8730368e-04  -9.8100187e-05   2.7482462e-04   4.2462489e-04   2.0979717e-04   1.7776573e-04   4.2683543e-05   3.4520813e-04   1.5671836e-04  -2.5100895e-04   1.3381382e-04   1.9271632e-04   4.6836250e-04   4.8761044e-04   7.5160421e-04   1.1472473e-03   6.9537002e-04   9.2905044e-04   8.6445297e-04   6.8091415e-04   1.4078849e-03   1.1841055e-03
  -6.8462163e-04  -8.6435784e-06   2.5351031e-04  -1.7193823e-04  -1.8845995e-04   5.2346328e-05   1.5837235e-04  -3.9248105e-05   1.6827900e-05   1.8192815e-04   1.2015980e-04   3.1846477e-05  -1.0686207e-06  -1.9358502e-04   3.2687912e-04  -9.3096576e-05   1.0194783e-04   9.7626349e-04   2.7996502e-04   4.0329009e-04   3.7130323e-04   1.2777264e-04   1.5408517e-04   4.0631153e-04  -2.3474784e-06  -3.0485771e-05   1.7638723e-04   8.6455293e-05  -1.3115234e-04  -2.5621051e-04  -2.1243630e-05   6.0052692e-04   1.2195377e-04   1.9869085e-04   1.0843611e-04   2.5261255e-04   7.5309923e-05  -3.1023516e-04   1.6451051e-05   3.1013694e-04   4.4429934e-04   4.9655902e-04   2.2918164e-05   5.6218181e-04   6.4725656e-04   1.0124517e-03   6.0590834e-04   1.2234317e-03   9.6213521e-04   1.4088823e-03
  -6.1298633e-04   2.1272628e-05   4.0152791e-04  -1.2905711e-04  -1.0820044e-04   2.1233210e-04   2.3761050e-04   3.3336757e-05   2.4589876e-04   2.3405514e-04   1.2592998e-04   1.5895443e-04  -2.1567757e-04  -3.1945153e-04   8.2607949e-06  -3.2066644e-05  -4.3681062e-05   1.3545724e-03   3.8112159e-04   5.1261828e-04   4.9908709e-04   2.4135481e-04   3.9715937e-04   8.1235211e-04  -2.3618413e-04   2.1018503e-04  -1.5254581e-05   9.4308503e-05  -2.0849275e-04  -3.3368633e-04  -1.1040258e-04   7.8644289e-04  -2.3161078e-06   1.8616405e-04   1.2602094e-04   3.0481306e-04   2.1071504e-04  -2.8461975e-04   8.7379231e-05   4.6843709e-04   7.4179575e-04   9.7269454e-04   1.3864441e-03   8.6173281e-04   7.9244736e-04   1.2279719e-03   1.1531038e-03   3.4906110e-04   1.6106103e-03   1.1934161e-03
  -6.2878383e-04   2.5373714e-05   4.2864430e-04  -1.4843853e-04  -1.0627004e-04   2.1370793e-04   2.2156521e-04   1.0423933e-04   2.9638095e-04   2.4322831e-04   1.3775655e-04   2.3343859e-04  -2.4979765e-04  -4.0728194e-04   5.6261728e-05  -1.0320299e-04  -1.4622879e-04   1.2448741e-03   1.9336396e-04   4.9145485e-04   4.7963875e-04   2.2130046e-04   3.5400732e-04   6.7390024e-04  -3.6407544e-04   1.9870170e-04  -9.7703080e-05   1.2821716e-04  -2.0686955e-04  -3.1050819e-04  -1.0970324e-04   5.6880177e-04  -2.5979254e-05   6.3865162e-05   1.5292504e-04   3.9132338e-04   2.8935008e-04  -3.0053649e-04   1.3533236e-04   2.9599969e-04   8.7668822e-04   1.0048914e-03   6.8659277e-04   6.5125449e-04   7.7712943e-04   1.1858367e-03   1.2944291e-03   5.4845418e-04   1.2200245e-03   1.3569061e-03
  -6.7965745e-04   1.8541969e-05   3.6584798e-04  -1.4237700e-04  -1.8357387e-04   1.3935956e-04   2.3376493e-04   1.1796015e-04   9.8592122e-05   1.8997565e-04   1.4172705e-04   9.5233074e-05  -2.1156901e-04  -3.9683297e-04   4.1855321e-05  -2.6522146e-04  -1.2769205e-04   1.0242816e-03   1.6023437e-04   4.6242919e-04   4.3281951e-04   2.0367489e-04   3.7053719e-04   6.3953252e-04  -3.1503531e-04   2.1696142e-04  -2.2441940e-04   1.4150821e-04  -3.4607490e-04  -2.3875042e-04  -1.4234330e-04   4.2331539e-04   1.4220877e-04   5.2956562e-05   1.8065494e-04   4.9323298e-04   2.6983343e-04  -2.5010828e-04   2.3236565e-04   4.6918413e-04   1.0042598e-03   1.0415262e-03   6.1055779e-04   8.2534488e-04   8.1238721e-04   1.2536360e-03   1.4358319e-03   6.0757500e-04   1.7511552e-03   2.6438911e-03
  -5.9908471e-04   1.6798040e-05   3.5855509e-04  -1.4396604e-04  -1.4880815e-04   1.6462457e-04   2.4837509e-04   7.0477618e-05   1.7783580e-04   1.8497913e-04   1.3176576e-04   1.3077229e-04  -1.7730583e-04  -4.8290595e-04   6.6832668e-05  -1.5140550e-04  -2.7298115e-04   1.3199446e-03   2.8312314e-04   5.2528660e-04   5.2376051e-04   3.0697047e-04   3.9784593e-04   5.9549959e-04  -2.5039920e-04   1.9689921e-04  -1.4451117e-04   9.7226315e-05   7.0498914e-05  -2.5517942e-04  -2.8832423e-04   6.3022488e-04  -5.7937435e-05   5.9571332e-05   1.3477252e-04   3.7840795e-04   1.3531768e-04  -2.9186177e-04   1.3068701e-04   3.4464864e-04   7.6273252e-04   9.5963042e-04   9.1418298e-04   6.4050901e-04   8.4445119e-04   9.3673595e-04   1.0699198e-03   3.3172301e-04   1.6629485e-03   8.5683522e-04
  -6.8127620e-04   2.7409078e-05   3.6346214e-04  -1.1221770e-04  -1.3776108e-04   1.8732602e-04   3.0181100e-04   7.8535981e-05   3.0445703e-04   2.0443353e-04   1.4354358e-04   1.4553058e-04  -2.2536654e-04  -4.5314926e-04   3.0392812e-05  -2.5960224e-04  -2.9343300e-04   1.2580904e-03   3.4130979e-04   4.9813854e-04   5.2506890e-04   2.4282766e-04   4.1405295e-04   6.5680791e-04  -2.6218902e-04   1.3050099e-04  -3.2718841e-04   8.8560235e-05  -3.1625782e-04  -2.5849047e-04  -2.2199794e-04   4.5862567e-04   2.7675604e-04   8.2950210e-05   1.0297322e-04   4.7063016e-04   1.9108993e-04  -2.7258892e-04   1.8547830e-04   4.0809892e-04   8.6805876e-04   8.9299260e-04   1.0888672e-03   9.3690580e-04   7.7267707e-04   1.3746803e-03   1.1710337e-03   1.0291602e-03   1.5381132e-03   1.4145315e-03
  -6.3457078e-04   1.9453433e-05   3.8041160e-04  -1.1631367e-04  -1.3770058e-04   1.8944069e-04   2.6692185e-04   2.7189730e-04   2.6080108e-04   1.6800601e-04   1.5004122e-04   1.4797917e-04  -2.0665451e-04  -4.6102365e-04   8.1399514e-05  -2.2446488e-04  -3.5935527e-04   1.2392987e-03   3.3696269e-04   5.0816050e-04   5.4197799e-04   2.8787262e-04   4.4063787e-04   6.2791636e-04  -3.3727218e-04   2.6937874e-04  -3.8761325e-04   8.0665552e-05  -2.4698285e-04  -1.9451186e-04  -2.6200045e-04   4.7351402e-04   1.4301189e-04   4.5589757e-05   9.0547670e-05   4.1510648e-04   5.1258761e-04  -2.2905499e-04   1.9677170e-04   4.9163320e-04   9.4565540e-04   1.0382088e-03   1.7131380e-03   5.1345484e-04   8.0079352e-04   1.0986014e-03   1.2461678e-03   7.8285002e-04   1.9936131e-03   1.9216874e-03
  -5.1070325e-04   1.9151170e-05   4.0615624e-04  -9.2460803e-05  -1.4918378e-04   2.0469239e-04   2.9424197e-04   2.4120047e-05   3.0449426e-04   1.5742816e-04   1.6764170e-04   1.0545364e-04  -1.6571507e-04  -4.3323459e-04   1.4853275e-04  -2.7586825e-04  -3.2442482e-04   1.1646195e-03   2.4601421e-04   4.8899121e-04   5.4933084e-04   2.9541284e-04   3.8409722e-04   5.8573310e-04  -2.7942419e-04   2.2859142e-04  -2.9617600e-04   1.0002860e-04  -2.6445353e-04  -1.6950195e-04  -2.5139959e-04   4.0052860e-04   1.6234802e-04   3.0109068e-05   6.0839084e-05   3.9604004e-04   2.4960088e-04  -2.0060949e-04   1.9065087e-04   2.9425838e-04   8.0231088e-04   8.6416397e-04   7.6498312e-04   1.0310552e-03   7.1668869e-04   1.1234846e-03   1.1771764e-03   1.7987152e-03   1.7998227e-03   1.5793506e-03
  -5.8040785e-04   1.9186538e-05   3.4326373e-04  -9.0428381e-05  -1.3956841e-04   1.9109028e-04   2.5525366e-04  -9.9547851e-06   2.1897565e-04   1.3607052e-04   1.5352067e-04   5.7464611e-05  -1.5557934e-04  -3.9067899e-04   1.4541230e-04  -2.9795110e-04  -3.0447682e-04   1.1090405e-03   3.4083403e-04   5.0931901e-04   6.8384921e-04   2.8964499e-04   1.9164204e-04   5.5307685e-04  -1.6744154e-04   2.1439132e-04  -2.0776429e-04   6.5196618e-05  -8.6465625e-05  -1.8727889e-04  -2.4205676e-04   4.1762012e-04   3.7510268e-04   1.0311426e-04   1.2706059e-04   3.9653762e-04   3.1564408e-04  -2.5413232e-04   2.1652365e-04   3.2528612e-04   9.0361055e-04   8.1770174e-04   7.6726056e-04   7.7580207e-04   7.8235206e-04   1.0306969e-03   1.0886076e-03   5.3665985e-04   1.2089333e-03   1.9651274e-03
  -5.7748455e-04   1.2065553e-05   3.5827438e-04  -8.6265522e-05  -1.0575446e-04   2.3535763e-04   2.6519076e-04   2.1274846e-04   2.2652069e-04   1.1155660e-04   1.3498681e-04   2.2169872e-05  -1.2689596e-04  -3.3332786e-04   2.2484314e-04  -2.0656832e-04  -2.6352901e-04   1.0017083e-03   3.4558898e-04   4.8214136e-04   6.0631247e-04   2.9312383e-04   2.7791844e-04   5.1220960e-04  -2.4668741e-04   1.7187285e-04  -1.5792482e-04   5.3390053e-05  -2.6712198e-05  -1.3463707e-04  -2.3269754e-04   4.4547857e-04   2.5458127e-04   4.5488887e-05   1.5771211e-04   2.6360134e-04   1.4220999e-04  -2.0897595e-04   1.4135100e-04   2.7441673e-04   6.6840166e-04   7.6730095e-04   1.2757628e-03   1.3089249e-03   6.8034983e-04   1.2083297e-03   1.1700980e-03   1.1439469e-03   1.3272729e-03   1.6829271e-03
  -6.4447086e-04   2.7053429e-05   3.0127118e-04  -7.6624943e-05  -1.2675414e-04   2.4197440e-04   2.4599777e-04  -1.8210664e-04   2.4302145e-04   1.3953903e-04   1.4828074e-04   4.3120879e-05  -1.1523967e-04  -3.2079956e-04   1.5734108e-04  -1.5508205e-04  -1.9903076e-04   1.1184316e-03   3.7017898e-04   4.4795743e-04   4.8763619e-04   1.9837754e-04   3.9914279e-04   5.9618731e-04  -1.2619728e-04   2.0022062e-04  -2.6326228e-05   1.1811914e-04  -2.7011445e-04  -1.5088895e-04  -1.2675402e-04   5.3336937e-04   1.1554251e-04   1.3434982e-04   1.2042649e-04   3.8937412e-04   4.0299038e-04  -1.7823148e-04   2.0429699e-04   2.5588911e-04   8.3757006e-04   6.9174985e-04   6.9671019e-04   1.0701733e-03   7.6002686e-04   1.1555083e-03   1.1087264e-03  -1.8750622e-04   1.8130015e-03   1.4148797e-03
  -5.5900827e-04   2.2604379e-05   3.5318735e-04  -7.8679281e-05  -1.0223014e-04   2.2391634e-04   2.6912359e-04   1.1124637e-04   3.0070636e-04   1.2996359e-04   1.3382302e-04   3.4620381e-05  -9.3774550e-05  -3.0480287e-04   2.1619997e-04  -1.1077084e-04  -1.3370585e-04   1.0691694e-03   2.7991380e-04   4.3718293e-04   4.9204618e-04   2.5498937e-04   3.2516211e-04   6.8375416e-04  -3.9358842e-05   1.8451350e-04  -2.1866328e-05   1.2749575e-04   1.9380906e-05  -1.1688583e-04  -1.3675782e-04   5.2330672e-04   4.0891529e-05   1.4129454e-04   1.5288124e-04   4.2410858e-04   3.7954215e-04  -2.0116329e-04   1.5844362e-04   4.7593802e-04   7.9660804e-04   6.7623943e-04   1.5162029e-03   7.0670439e-04   7.4446620e-04   1.1082360e-03   1.2288373e-03   1.2261277e-03   1.5746703e-03   2.1799080e-04
  -6.9966534e-04   2.6731059e-05   3.7328809e-04  -8.1580911e-05  -1.0835361e-04   2.1348723e-04   2.9089503e-04   2.1285639e-04   2.8976431e-04   1.5959027e-04   1.4738839e-04   2.0376265e-05  -4.4934859e-05  -2.6314153e-04   2.8355382e-04  -5.3457017e-05  -1.6369877e-05   1.1285915e-03   3.9785061e-04   4.1408290e-04   4.4326662e-04   1.9358862e-04   2.9773891e-04   6.3893117e-04   8.3794686e-05   5.4815566e-05   1.0615814e-04   2.2807291e-04   4.4894430e-05  -1.8179929e-04   7.8695441e-05   7.2287064e-04   5.9602124e-05   2.8472862e-04   2.4365116e-04   3.4107559e-04   2.3528498e-04  -2.2465875e-04   1.5748812e-04   2.9911540e-04   9.6338935e-04   6.8225793e-04   8.4318407e-04   8.7925006e-04   7.0460752e-04   1.1871982e-03   9.5825817e-04   1.5317109e-04   1.1896241e-03   3.8173159e-03
