  -1.4007338e-03  -6.4008904e-04  -5.3717551e-04  -9.3827263e-04  -7.1048166e-04  -6.5665098e-04  -8.7122381e-04  -5.4271059e-04  -1.3531958e-03  -2.1204052e-03  -1.7486096e-03  -2.4057727e-03  -1.6394509e-03  -6.8991777e-04   4.5583752e-06  -8.9465454e-04   3.1424247e-04  -9.2425631e-05  -7.1787968e-04  -1.3266619e-03  -1.3864308e-03  -8.3458936e-04  -9.9300244e-04  -1.4132150e-03   7.2159298e-04  -8.9113170e-04  -1.2246046e-03  -4.0142299e-04  -7.9746923e-04   1.5951384e-05   5.0187105e-04  -7.3733338e-04  -1.0785190e-03  -4.9126480e-04  -1.0181535e-03  -1.0772130e-03  -7.1773009e-04  -1.0268735e-03   3.5967602e-04  -7.4384274e-04  -9.4414916e-04  -1.4131266e-03  -7.9476187e-04  -5.9506949e-04  -9.9869946e-04  -2.3378465e-04   1.8605033e-03   1.0922797e-03  -4.4522871e-04  -1.2416200e-04
  -1.3210957e-03  -5.0297618e-04  -5.7121622e-04  -8.5633050e-04  -6.4640219e-04  -6.1777100e-04  -7.5326662e-04  -6.6774100e-04  -1.2227929e-03  -1.7776082e-03  -1.4930868e-03  -1.9467836e-03  -1.4736487e-03  -9.3826710e-04  -3.4704251e-05  -8.3161343e-04   7.7470220e-05  -2.4465249e-05  -8.7629684e-04  -1.1683948e-03  -1.2784119e-03  -7.4348779e-04  -9.5192349e-04  -1.2860793e-03   7.2332827e-04  -8.8486797e-04  -1.4571083e-03  -3.6011374e-04  -5.7476969e-04  -8.1400343e-05   1.4578900e-04  -8.2660676e-04  -7.7158108e-04  -5.7778513e-04  -9.5881056e-04  -1.0775173e-03  -6.6722493e-04  -9.3973818e-04   3.0812126e-04  -7.6091848e-04  -1.2341777e-03  -1.6105607e-03  -4.7903790e-04  -7.5106387e-04  -1.0661185e-03  -4.3912802e-04   1.6365635e-03   7.2068267e-04   2.7837075e-04   2.1010029e-04
  -1.1681457e-03  -5.4385891e-04  -6.2805758e-04  -8.9942809e-04  -6.1466725e-04  -6.8940059e-04  -8.5908733e-04  -3.5174817e-04  -1.1195648e-03  -1.9723338e-03  -1.6350427e-03  -2.0680982e-03  -1.4894720e-03  -9.3571132e-04   1.0273864e-04  -7.6151907e-04   2.7781703e-06   1.2893728e-05  -7.8721927e-04  -1.2141189e-03  -1.2809412e-03  -7.1277568e-04  -9.9757023e-04  -1.2932208e-03   6.9494842e-04  -9.1128767e-04  -1.3072444e-03  -3.5010758e-04  -7.6227082e-04  -5.6525925e-05   6.9974296e-05  -8.3993311e-04  -9.1170293e-04  -5.9494626e-04  -9.2316692e-04  -1.1469838e-03  -5.6799769e-04  -9.4636210e-04   2.4018512e-04  -7.8465312e-04  -1.2418902e-03  -1.4670035e-03  -6.4730889e-04  -3.6097865e-04  -8.8532729e-04  -3.2194427e-04   1.6992068e-03   1.2399113e-03   2.6880772e-04  -1.8621273e-05
  -1.1915837e-03  -4.1786209e-04  -4.8698753e-04  -8.5064536e-04  -6.2048854e-04  -5.3547410e-04  -7.7117002e-04  -4.3347955e-04  -9.1683428e-04  -1.6915841e-03  -1.3066608e-03  -1.9762432e-03  -1.3698933e-03  -9.0299576e-04   9.7327931e-05  -8.9732540e-04   1.3688931e-04  -1.4148249e-04  -8.3083013e-04  -1.1723563e-03  -1.2705678e-03  -6.4240012e-04  -8.2997204e-04  -1.2481927e-03   6.6722254e-04  -8.1066170e-04  -1.3262626e-03  -3.9612467e-04  -8.5871504e-04  -3.5358597e-05   2.6563814e-04  -9.8536280e-04  -8.0555439e-04  -5.0157553e-04  -9.6500636e-04  -9.8401436e-04  -8.2825928e-04  -1.0383520e-03   2.9587749e-04  -7.6824060e-04  -9.5279468e-04  -1.3935356e-03  -4.3549825e-04  -6.5361225e-04  -1.0661868e-03  -4.2473941e-04   1.9458380e-03   1.2527424e-03   4.1929929e-05   2.9919506e-04
  -1.2037941e-03  -5.0611113e-04  -5.5628765e-04  -9.2802348e-04  -6.6485943e-04  -6.8324467e-04  -8.0745632e-04  -5.9758523e-04  -1.0642386e-03  -1.8964935e-03  -1.4342292e-03  -2.0087548e-03  -1.4025937e-03  -9.4308949e-04  -8.8397966e-05  -8.8385603e-04   3.1443265e-05  -1.4392719e-04  -8.9571933e-04  -1.2100628e-03  -1.3064211e-03  -6.9987221e-04  -8.8158535e-04  -1.2949851e-03   6.1228743e-04  -8.3810312e-04  -1.4724929e-03  -4.5774007e-04  -9.0530753e-04  -6.7285648e-05   5.3280455e-05  -9.9079928e-04  -7.9549931e-04  -5.9335103e-04  -1.0046135e-03  -9.2715479e-04  -6.6729169e-04  -1.0207235e-03   2.9474960e-04  -7.8680535e-04  -7.9137133e-04  -1.1488296e-03  -4.5276879e-04  -1.6810907e-05  -1.0039051e-03  -3.6944292e-04   1.8836720e-03   6.2816445e-04   2.6480056e-04  -1.0041191e-03
  -1.1781196e-03  -3.2215816e-04  -5.0281390e-04  -7.8228168e-04  -5.2486476e-04  -6.0644071e-04  -7.0109864e-04  -6.5068877e-04  -6.5496936e-04  -1.4865511e-03  -1.1877664e-03  -1.5704595e-03  -1.1608852e-03  -1.2331383e-03   5.9947371e-05  -9.8617992e-04  -1.9479124e-04  -1.5709834e-04  -6.4806163e-04  -1.0404997e-03  -1.2126301e-03  -5.3251674e-04  -6.5987365e-04  -9.7682141e-04   5.8396079e-04  -7.9462270e-04  -1.5176849e-03  -4.9436005e-04  -1.0325069e-03  -6.1933584e-05  -7.9374535e-05  -9.7459607e-04  -8.8930735e-04  -5.7028927e-04  -9.4112928e-04  -9.7590248e-04  -5.4141320e-04  -1.0578588e-03   2.1881945e-04  -6.4845680e-04  -9.6853211e-04  -1.1834578e-03  -7.4834126e-04  -1.5521231e-04  -9.9592749e-04  -7.4568985e-04   1.8603277e-03   1.8634569e-03  -1.5430176e-04   3.8742580e-04
  -1.0705965e-03  -3.3521579e-04  -5.1378767e-04  -7.7003828e-04  -5.1567046e-04  -6.4162526e-04  -7.9726579e-04  -6.5615063e-04  -7.8651571e-04  -1.5960040e-03  -1.3300325e-03  -1.5927535e-03  -1.0966404e-03  -1.4040881e-03  -1.2148848e-04  -1.0131596e-03  -4.0637370e-04  -1.9850768e-04  -7.0020341e-04  -1.0820267e-03  -1.2315070e-03  -5.6308636e-04  -7.4646092e-04  -9.7574957e-04   5.5344531e-04  -8.2083180e-04  -1.7041086e-03  -5.2239030e-04  -8.7964372e-04  -1.5822271e-04  -2.8546542e-04  -1.0301291e-03  -8.1310247e-04  -6.1277772e-04  -9.7840803e-04  -8.5212057e-04  -5.6258449e-04  -1.0214932e-03   2.3861547e-04  -7.7867444e-04  -1.1599530e-03  -1.1556732e-03  -2.8856797e-04  -4.9913171e-05  -9.3545608e-04  -3.8488783e-04   1.8715170e-03   1.0159129e-03   4.3639251e-05   2.8075927e-04
  -9.3075627e-04  -2.1648500e-04  -4.8225216e-04  -7.0185424e-04  -4.6888803e-04  -5.1979884e-04  -6.6921534e-04  -6.6965405e-04  -5.2603224e-04  -1.3188359e-03  -1.0707004e-03  -1.4377288e-03  -8.9453900e-04  -1.3680396e-03  -7.3681796e-05  -1.0042203e-03  -3.9524902e-04  -1.8409720e-04  -4.0877226e-04  -1.0340599e-03  -1.1802339e-03  -4.9394136e-04  -5.1347015e-04  -8.6353591e-04   4.7777899e-04  -8.4784295e-04  -1.6381043e-03  -4.7291518e-04  -1.0264619e-03  -9.1762515e-05  -2.7303956e-04  -9.8770775e-04  -8.1653276e-04  -5.9465854e-04  -9.4304513e-04  -8.6328911e-04  -6.9234794e-04  -1.0240852e-03   2.4682353e-04  -7.3120435e-04  -1.2380572e-03  -1.0122564e-03  -1.9030627e-04  -4.2782762e-04  -1.0420714e-03  -5.7894335e-04   1.7298078e-03   1.5947375e-03  -8.2227867e-05   7.2646770e-05
  -9.3507685e-04  -2.5284526e-04  -4.5730887e-04  -7.4929855e-04  -4.6488200e-04  -5.1238295e-04  -6.6350453e-04  -4.4092821e-04  -5.4300780e-04  -1.5397141e-03  -1.2232865e-03  -1.6716347e-03  -9.8429562e-04  -1.2579223e-03  -2.0386047e-05  -9.8781474e-04  -3.6922944e-04  -1.6200698e-04  -5.2644225e-04  -1.1169254e-03  -1.2273786e-03  -5.7476776e-04  -6.2462769e-04  -1.0548533e-03   5.2196288e-04  -8.5724593e-04  -1.5500579e-03  -4.8377589e-04  -1.0242861e-03  -1.1032608e-04  -2.6275867e-04  -1.0198711e-03  -7.5415161e-04  -6.4767885e-04  -9.3252788e-04  -8.8883349e-04  -5.0210953e-04  -1.0908857e-03   1.8285174e-04  -7.6082395e-04  -9.1615104e-04  -1.1221798e-03  -4.4570060e-04  -1.9910185e-04  -1.0376632e-03  -6.2872929e-04   1.8792028e-03   2.0799786e-03   2.4418088e-04   4.9973611e-04
  -1.0199402e-03  -2.5500631e-04  -4.8191255e-04  -7.4183068e-04  -5.1707303e-04  -4.8196007e-04  -6.5761834e-04  -3.4445897e-04  -5.1030779e-04  -1.3925937e-03  -1.1097376e-03  -1.5910546e-03  -9.6699363e-04  -1.1717646e-03  -2.2596074e-05  -1.0706527e-03  -2.8066742e-04  -1.5587533e-04  -5.6117581e-04  -1.1043984e-03  -1.2105098e-03  -5.7941728e-04  -6.4760796e-04  -9.3815301e-04   5.4999348e-04  -7.5080409e-04  -1.6722945e-03  -4.8879901e-04  -9.8401878e-04  -5.5254895e-05  -1.7744089e-04  -9.5868623e-04  -7.8860170e-04  -5.2954268e-04  -8.1316271e-04  -7.5006334e-04  -5.6151155e-04  -1.0438719e-03   2.2342526e-04  -7.2883378e-04  -8.4621989e-04  -1.0513007e-03  -4.5858615e-04  -4.3526478e-04  -9.1561046e-04  -7.4828608e-04   1.8266718e-03   5.8688856e-05   4.9767649e-04  -2.5835991e-04
  -1.0452884e-03  -2.3865618e-04  -5.1140267e-04  -7.3598052e-04  -4.6021468e-04  -5.0206803e-04  -6.6671998e-04  -4.0056769e-04  -3.7425020e-04  -1.4646879e-03  -1.1052274e-03  -1.5624401e-03  -9.0726407e-04  -1.2401791e-03   1.3766700e-04  -9.8076474e-04  -4.3116603e-04  -1.7358128e-04  -5.4953335e-04  -1.0877085e-03  -1.2226041e-03  -5.5418460e-04  -5.4303347e-04  -9.7798707e-04   4.8163891e-04  -8.4569113e-04  -1.6226053e-03  -4.8969709e-04  -1.0087165e-03  -9.2367169e-05  -3.3680152e-04  -1.0445857e-03  -8.2945847e-04  -7.0059259e-04  -8.8155258e-04  -8.3060237e-04  -6.1364606e-04  -1.0538950e-03   1.2491015e-04  -6.9789216e-04  -8.7732653e-04  -1.0305566e-03  -7.7187020e-04  -2.8919399e-04  -1.0256743e-03  -6.9880317e-04   1.7118609e-03  -5.2171741e-05  -6.0699194e-06  -9.1705372e-04
  -1.0375627e-03  -3.7255543e-04  -6.0123141e-04  -8.4677537e-04  -5.0990441e-04  -5.7231903e-04  -7.3888199e-04  -4.1147281e-04  -4.6264828e-04  -1.5273483e-03  -1.1828819e-03  -1.6211639e-03  -9.2655577e-04  -1.3528157e-03   1.2493685e-04  -9.5478556e-04  -4.6578489e-04  -1.4232339e-04  -5.0690823e-04  -1.1425073e-03  -1.2447138e-03  -6.2502001e-04  -5.0088996e-04  -1.0401820e-03   4.5616043e-04  -7.1909663e-04  -1.6547121e-03  -5.1512144e-04  -8.1444695e-04  -1.5238419e-04  -3.3860191e-04  -9.8791264e-04  -7.3609420e-04  -5.9176103e-04  -8.1441097e-04  -7.9437270e-04  -5.2110781e-04  -1.0391814e-03   1.1177676e-04  -5.3470489e-04  -1.0693050e-03  -1.0284230e-03  -8.0206286e-04  -7.2722434e-04  -8.7339827e-04  -4.1621810e-04   1.8090258e-03   4.5269926e-04   9.3651121e-05   3.0226269e-04
  -1.1127300e-03  -2.3638249e-04  -6.0170999e-04  -7.5312139e-04  -4.4158314e-04  -4.8008730e-04  -6.7869184e-04  -4.4745803e-04  -2.6241926e-04  -1.4126692e-03  -1.0419659e-03  -1.5123332e-03  -8.2213985e-04  -1.3263663e-03  -1.9323510e-05  -9.6002885e-04  -5.2300800e-04  -1.2952588e-04  -6.1586092e-04  -1.1268186e-03  -1.2321817e-03  -5.7381531e-04  -6.0993206e-04  -1.0167978e-03   4.0673636e-04  -8.3668664e-04  -1.7072221e-03  -4.8639055e-04  -9.6386048e-04  -1.0722363e-04  -4.5630391e-04  -9.9273969e-04  -6.0629164e-04  -5.8671058e-04  -8.0960646e-04  -7.7479746e-04  -3.2455745e-04  -1.0157475e-03   6.0947565e-05  -9.1058930e-04  -1.2366702e-03  -1.1575018e-03  -5.7702395e-04  -4.5548368e-04  -9.4001030e-04  -6.6145335e-04   1.7234951e-03   9.0275245e-04  -2.2456641e-05   3.2524118e-04
  -1.0017848e-03  -3.3343982e-04  -6.6682807e-04  -8.1058318e-04  -4.8640731e-04  -5.1337335e-04  -7.2023610e-04  -6.3732365e-04  -3.3460042e-04  -1.6695003e-03  -1.2226790e-03  -1.6979455e-03  -8.8233210e-04  -1.3393717e-03  -5.6375743e-06  -9.4028399e-04  -5.6409015e-04  -1.7153153e-04  -6.8329502e-04  -1.2517301e-03  -1.3047915e-03  -6.1032834e-04  -7.0303417e-04  -1.0790686e-03   3.4170164e-04  -9.8136195e-04  -1.6387515e-03  -4.6265457e-04  -1.0337519e-03  -1.9759338e-04  -5.9639371e-04  -1.0720973e-03  -7.8668067e-04  -7.3874404e-04  -8.5497741e-04  -8.5966068e-04  -4.7768463e-04  -1.0662769e-03  -1.5094086e-04  -7.3274074e-04  -1.2485480e-03  -1.2352895e-03  -6.3314324e-04  -7.7474164e-04  -8.1317651e-04  -7.5179723e-04   1.6195226e-03   3.2121301e-04  -2.1899356e-04  -1.7580095e-03
  -1.1567709e-03  -2.9577891e-04  -6.6346070e-04  -8.2260801e-04  -4.8310927e-04  -5.0391961e-04  -6.9297024e-04  -4.9298245e-04  -9.6382915e-05  -1.4399324e-03  -1.0402713e-03  -1.5466725e-03  -8.7728054e-04  -1.3613381e-03   2.1261134e-04  -9.5639459e-04  -5.4768688e-04  -1.6776046e-04  -4.1018683e-04  -1.2164188e-03  -1.2666864e-03  -5.5709796e-04  -5.7833170e-04  -1.1397930e-03   2.9341891e-04  -7.8414631e-04  -1.6111600e-03  -4.6133931e-04  -9.4936113e-04  -1.2980390e-04  -6.3788134e-04  -1.0034976e-03  -7.8653061e-04  -6.4385036e-04  -7.4266450e-04  -7.1050198e-04  -4.7553919e-04  -1.0377393e-03  -6.1024773e-05  -6.1306771e-04  -1.0559306e-03  -1.2377580e-03  -2.4186613e-04  -5.5219326e-04  -7.4365333e-04  -1.0685304e-03   1.5919131e-03   8.0984458e-04   1.2801176e-04  -6.0038536e-04
  -1.1488234e-03  -3.3415877e-04  -7.5222703e-04  -8.3866599e-04  -4.9082877e-04  -5.4494233e-04  -7.5155887e-04  -6.6992571e-04  -1.5091448e-04  -1.6164337e-03  -1.1493554e-03  -1.6456625e-03  -8.9909317e-04  -1.4126734e-03   6.9838534e-05  -9.3160587e-04  -6.0479954e-04  -1.8770958e-04  -5.8757432e-04  -1.2692194e-03  -1.3152696e-03  -5.8451883e-04  -6.1325851e-04  -1.0975387e-03   1.9581386e-04  -9.2323998e-04  -1.6936006e-03  -4.4778272e-04  -9.1903104e-04  -2.1749982e-04  -7.5175322e-04  -1.0827340e-03  -8.2832068e-04  -7.2961143e-04  -7.6694926e-04  -8.8215695e-04  -5.1994767e-04  -1.0753350e-03  -3.9849583e-05  -8.6965255e-04  -1.3266583e-03  -1.3192082e-03  -7.6925708e-04  -1.1929423e-03  -1.0263737e-03  -1.2137818e-03   1.5493770e-03   1.4962780e-03  -1.1391833e-04  -9.7952678e-04
  -1.0652193e-03  -4.7820210e-04  -8.0516946e-04  -9.2584203e-04  -5.1500351e-04  -5.8350514e-04  -8.2883681e-04  -5.3992582e-04  -2.3997966e-04  -1.6506941e-03  -1.2364808e-03  -1.6325220e-03  -9.4759971e-04  -1.4692327e-03  -7.3667215e-05  -8.7104540e-04  -6.9799135e-04  -1.7108934e-04  -5.3685030e-04  -1.3016182e-03  -1.3342656e-03  -6.5804308e-04  -6.6980592e-04  -1.1615382e-03   1.0821129e-04  -1.0147388e-03  -1.7251025e-03  -4.6498067e-04  -8.8661257e-04  -1.9317662e-04  -8.1552932e-04  -1.0569451e-03  -7.0225290e-04  -6.7161355e-04  -7.6547707e-04  -9.4238576e-04  -4.8155364e-04  -1.0252828e-03  -2.1320331e-05  -7.8148447e-04  -1.3258752e-03  -1.2154265e-03  -8.7947014e-04  -6.9307396e-04  -7.7281782e-04  -1.0513047e-03   1.7740856e-03   1.1435092e-03  -6.5718836e-05   4.1997401e-04
  -1.1404589e-03  -3.4292528e-04  -7.7085232e-04  -8.0407318e-04  -4.8975862e-04  -5.5511069e-04  -7.1029883e-04  -5.0695229e-04   7.2498638e-05  -1.4876891e-03  -1.0706745e-03  -1.4705324e-03  -8.5029309e-04  -1.5070182e-03  -8.5643020e-05  -8.9960860e-04  -7.2031858e-04  -1.7995077e-04  -7.2699052e-04  -1.2810807e-03  -1.3113716e-03  -6.4021669e-04  -6.7707844e-04  -1.0400076e-03   1.3151804e-04  -1.0190088e-03  -1.6086636e-03  -4.6814748e-04  -8.1087835e-04  -2.3535387e-04  -8.4139197e-04  -1.0451250e-03  -6.3454476e-04  -6.8113807e-04  -7.1005343e-04  -8.5559086e-04  -2.7201959e-04  -9.9832949e-04  -6.2170984e-05  -7.9561869e-04  -1.4049771e-03  -1.3781170e-03  -7.5130590e-04  -2.3719667e-04  -9.0839289e-04  -8.3939929e-04   1.7121346e-03   8.5850595e-04  -7.5067175e-05  -1.3806210e-03
  -1.2653739e-03  -4.4366557e-04  -8.2786230e-04  -8.7799388e-04  -5.6921266e-04  -6.5489463e-04  -8.4047619e-04  -4.6405953e-04  -1.1721047e-04  -1.7368865e-03  -1.2581273e-03  -1.6944451e-03  -9.9838269e-04  -1.5066257e-03  -2.6555497e-05  -9.1684301e-04  -7.1890804e-04  -2.0531873e-04  -7.7603263e-04  -1.3916686e-03  -1.3654913e-03  -7.1354170e-04  -6.8991078e-04  -1.2653945e-03  -4.8888931e-05  -1.0831081e-03  -1.7075685e-03  -4.7029246e-04  -7.3088543e-04  -2.9760995e-04  -8.2258380e-04  -1.0371602e-03  -7.9299248e-04  -8.0266548e-04  -9.0238237e-04  -9.6632820e-04  -6.7416433e-04  -1.0113184e-03  -1.0071227e-04  -7.7813771e-04  -1.3026879e-03  -1.2495709e-03  -1.5981990e-03  -2.2402185e-04  -8.7534438e-04  -1.1577723e-03   1.7810421e-03   1.3443820e-04   4.9046357e-04  -1.9279093e-04
  -1.1743549e-03  -3.9536698e-04  -7.9685060e-04  -8.3169591e-04  -5.5288972e-04  -5.5204669e-04  -7.5825898e-04  -2.9384583e-04   8.3953826e-05  -1.4723946e-03  -1.0243603e-03  -1.4556779e-03  -9.1753789e-04  -1.5542315e-03  -4.2637559e-05  -9.0711989e-04  -7.2569435e-04  -1.8079771e-04  -7.7938614e-04  -1.3143405e-03  -1.3165624e-03  -6.3881965e-04  -5.7903712e-04  -9.9773169e-04  -2.1243615e-05  -9.9063898e-04  -1.6412124e-03  -4.9121754e-04  -9.1327529e-04  -2.3561930e-04  -7.7769952e-04  -9.9070999e-04  -6.1013561e-04  -7.2405749e-04  -8.6063961e-04  -7.2666630e-04  -3.1812239e-04  -9.7994471e-04  -2.0284107e-04  -6.9928041e-04  -1.3688360e-03  -1.1839950e-03  -1.1130770e-03  -1.0718930e-03  -8.6624583e-04  -9.2277018e-04   1.7168858e-03  -4.3944156e-04  -7.8348117e-04  -2.4499197e-04
  -1.1615425e-03  -4.3437193e-04  -8.0211886e-04  -8.3070376e-04  -5.5729150e-04  -5.8683410e-04  -8.2013343e-04  -8.0307777e-04   6.3718981e-05  -1.6694362e-03  -1.1692896e-03  -1.6169378e-03  -9.6443261e-04  -1.5718663e-03   3.3855210e-06  -8.9883362e-04  -7.2733971e-04  -2.1145644e-04  -7.2606886e-04  -1.3336057e-03  -1.3196950e-03  -6.6460896e-04  -6.9378968e-04  -1.1662816e-03  -5.5300767e-05  -1.0557650e-03  -1.6990532e-03  -5.0508394e-04  -7.7378872e-04  -3.0291738e-04  -9.6697122e-04  -1.0896635e-03  -7.8724453e-04  -8.0719276e-04  -7.4246555e-04  -8.8167674e-04  -5.5618421e-04  -9.8577980e-04  -1.4282628e-04  -7.4841816e-04  -1.6823341e-03  -1.4378994e-03  -3.3900744e-04   1.3990389e-04  -9.3201338e-04  -1.0115858e-03   1.5868486e-03   5.2184000e-04  -2.6616114e-04  -4.3657978e-04
  -1.2021672e-03  -5.2508101e-04  -8.4631506e-04  -8.9414348e-04  -5.4521277e-04  -6.1375753e-04  -8.2669785e-04  -2.8037693e-04   5.0601506e-05  -1.6513710e-03  -1.1514175e-03  -1.6025738e-03  -9.5917069e-04  -1.5797311e-03  -6.0851075e-05  -8.9678081e-04  -6.9770741e-04  -1.9762330e-04  -6.9393369e-04  -1.3596239e-03  -1.3001311e-03  -6.2852475e-04  -7.5448770e-04  -1.2999355e-03  -2.9679028e-05  -9.6320204e-04  -1.6091482e-03  -4.9690146e-04  -8.7627152e-04  -2.6189478e-04  -8.5567200e-04  -1.0163493e-03  -6.9050642e-04  -6.4994255e-04  -7.5443194e-04  -7.3781045e-04  -4.7893118e-04  -9.5412874e-04  -1.5370772e-04  -7.2747096e-04  -1.4801197e-03  -1.3433275e-03  -1.9903299e-04   2.9997068e-04  -8.3694630e-04  -1.0814130e-03   1.5982999e-03   4.4387768e-04   1.4094224e-05  -4.9093965e-04
  -1.1404756e-03  -4.1642546e-04  -7.5476983e-04  -8.1203383e-04  -5.7555456e-04  -6.1111205e-04  -7.9292024e-04  -4.8978149e-04   2.1454842e-07  -1.6755229e-03  -1.1580704e-03  -1.6523397e-03  -1.0010746e-03  -1.4005037e-03   1.1966533e-05  -9.1994624e-04  -5.7112618e-04  -1.8475724e-04  -7.0887303e-04  -1.3211027e-03  -1.2619954e-03  -6.7153497e-04  -6.4292579e-04  -1.2873360e-03   7.4515425e-05  -9.0144662e-04  -1.5853564e-03  -4.5016035e-04  -8.1603235e-04  -2.2262872e-04  -7.1056845e-04  -9.8967459e-04  -6.7010435e-04  -6.2666502e-04  -7.8627025e-04  -8.9064683e-04  -5.5371952e-04  -9.3817391e-04  -1.7053839e-04  -7.3706696e-04  -1.4150897e-03  -1.4560877e-03  -8.2668709e-04  -8.3614292e-04  -9.5816271e-04  -1.0452507e-03   1.5552911e-03   8.6412823e-05  -9.5603515e-05  -4.6164470e-04
  -1.1920459e-03  -5.3456350e-04  -7.9331355e-04  -8.5361552e-04  -6.2660367e-04  -6.2633585e-04  -9.0199843e-04  -5.5020058e-04  -1.4463169e-04  -1.9712653e-03  -1.4028576e-03  -1.8803300e-03  -1.1087729e-03  -1.3585420e-03  -2.9158064e-06  -8.0281275e-04  -5.4778036e-04  -2.0099622e-04  -7.7636080e-04  -1.3939544e-03  -1.2976853e-03  -7.3531695e-04  -9.5995463e-04  -1.3135714e-03   4.3382515e-05  -1.0401489e-03  -1.3894056e-03  -4.4734275e-04  -8.3211344e-04  -2.6108953e-04  -7.2631577e-04  -9.6647587e-04  -5.9944694e-04  -6.6575920e-04  -7.4913626e-04  -8.4870454e-04  -3.5813448e-04  -9.5452229e-04  -1.3741723e-04  -8.5568719e-04  -1.5686736e-03  -1.4969035e-03  -5.9274258e-04  -4.0653272e-04  -9.3559478e-04  -8.8066648e-04   1.4991954e-03   1.9932834e-04  -1.7995652e-04  -1.9543593e-05
  -1.1224995e-03  -3.9538054e-04  -7.2143064e-04  -7.8086444e-04  -5.8235269e-04  -5.4534100e-04  -8.0781901e-04  -5.4812431e-04   8.2668312e-06  -1.6872373e-03  -1.1847337e-03  -1.7123959e-03  -1.0734915e-03  -1.2918377e-03   3.8996477e-05  -9.1151136e-04  -3.7644253e-04  -2.0171479e-04  -7.2682957e-04  -1.2882018e-03  -1.2004722e-03  -6.6910981e-04  -7.0164137e-04  -1.2601963e-03   1.7263765e-04  -1.0061517e-03  -1.5042953e-03  -4.1830854e-04  -8.0550573e-04  -2.1434591e-04  -5.6126388e-04  -9.1050303e-04  -5.5937743e-04  -5.1154935e-04  -7.6546019e-04  -7.0080021e-04  -3.6190322e-04  -9.0158370e-04  -1.2041835e-04  -6.5176707e-04  -1.1047506e-03  -1.5354934e-03  -1.3593221e-03  -1.2972568e-04  -9.1660401e-04  -9.3669799e-04   1.5012480e-03   1.0983550e-03  -5.3488929e-04  -1.0932601e-03
  -9.9591631e-04  -4.5240074e-04  -7.0795347e-04  -7.9745345e-04  -5.9433159e-04  -6.3527341e-04  -8.3348132e-04  -3.6637243e-04  -2.5899112e-04  -1.8925851e-03  -1.3358283e-03  -1.8591861e-03  -1.1160453e-03  -1.2633897e-03   1.0050477e-04  -8.4728369e-04  -3.8825479e-04  -2.2397071e-04  -6.8211328e-04  -1.3138539e-03  -1.2148533e-03  -6.7864527e-04  -7.0255320e-04  -1.2377944e-03   2.2967703e-04  -9.2643220e-04  -1.4127243e-03  -4.2347185e-04  -5.9688685e-04  -2.4868213e-04  -6.6312769e-04  -1.0178233e-03  -4.9264019e-04  -5.9314002e-04  -8.1185746e-04  -8.1385672e-04  -6.2169251e-04  -9.0779009e-04  -1.1312140e-04  -8.1070699e-04  -1.3983917e-03  -1.5285546e-03  -7.5306586e-04  -5.0498929e-04  -1.0124913e-03  -8.0661167e-04   1.5759768e-03   4.3901586e-04  -4.7991498e-04   8.6538936e-04
  -8.8326255e-04  -3.9959603e-04  -6.7424984e-04  -7.6439994e-04  -5.0498656e-04  -6.5994845e-04  -7.5862592e-04  -4.0394126e-04  -3.7901151e-05  -1.6348809e-03  -1.1677269e-03  -1.6238409e-03  -1.0156322e-03  -1.4194823e-03   4.1792133e-05  -8.1766094e-04  -4.6846253e-04  -1.9968653e-04  -5.4165791e-04  -1.1953311e-03  -1.1029778e-03  -5.1285420e-04  -6.3661713e-04  -1.1498600e-03   4.4243479e-05  -7.8594225e-04  -1.5896491e-03  -4.6663932e-04  -7.5627636e-04  -1.8212442e-04  -7.6117658e-04  -9.6681959e-04  -5.3628563e-04  -5.1829760e-04  -7.6018024e-04  -8.8605116e-04  -3.9534140e-04  -9.0421498e-04  -1.0827356e-04  -5.7325984e-04  -1.5803936e-03  -1.4396940e-03  -1.3742836e-03  -1.2461514e-04  -8.3425845e-04  -8.7775977e-04   1.6369685e-03   6.4700993e-04  -2.2615590e-04  -8.0764404e-04
  -9.0727006e-04  -3.2553202e-04  -5.8955722e-04  -6.9316296e-04  -4.5155804e-04  -5.7278061e-04  -7.4055750e-04  -2.9732517e-04  -9.1480419e-05  -1.6951998e-03  -1.1580519e-03  -1.5871729e-03  -9.6776662e-04  -1.4605867e-03   6.6619800e-06  -7.8998745e-04  -5.1389594e-04  -2.0189215e-04  -7.5775839e-04  -1.1453206e-03  -1.0529490e-03  -4.7025466e-04  -6.4059359e-04  -1.1542051e-03   1.0871364e-04  -8.3549676e-04  -1.5614282e-03  -4.2477174e-04  -4.1676874e-04  -2.4502957e-04  -7.9789525e-04  -1.0084561e-03  -7.0994504e-04  -5.5453181e-04  -7.2498573e-04  -9.3882735e-04  -4.1728554e-04  -8.4714469e-04  -1.3845925e-04  -6.8352936e-04  -1.6937959e-03  -1.6030208e-03  -1.1671964e-03  -8.7196718e-04  -9.5345662e-04  -7.4365380e-04   1.5162597e-03   1.3188907e-03  -1.1391165e-04  -2.8397955e-04
  -8.7224203e-04  -4.3291887e-04  -6.4219395e-04  -7.6114881e-04  -4.7005544e-04  -6.7214324e-04  -8.8187936e-04  -2.5552508e-04  -2.7570993e-04  -1.7985897e-03  -1.2982114e-03  -1.7017723e-03  -1.0123327e-03  -1.3514734e-03  -3.6823971e-05  -7.4988022e-04  -4.5538883e-04  -1.9959461e-04  -7.5641618e-04  -1.1825743e-03  -1.0686378e-03  -5.1620963e-04  -6.6653086e-04  -1.1933773e-03   1.3489726e-04  -8.2038977e-04  -1.4894604e-03  -4.5866665e-04  -9.3557249e-04  -2.2667156e-04  -6.8732654e-04  -9.9142594e-04  -4.5858289e-04  -5.1323860e-04  -7.9738023e-04  -8.1103062e-04  -3.3410630e-04  -8.7766256e-04  -6.3277352e-05  -6.4557587e-04  -1.5898070e-03  -1.5893930e-03  -8.4487948e-04   2.0923775e-04  -7.9301518e-04  -7.3361892e-04   1.5638242e-03   8.1329641e-04   2.7838341e-04  -9.9300581e-04
  -8.9427072e-04  -2.5297326e-04  -4.9148896e-04  -6.1064604e-04  -3.9054931e-04  -5.3325685e-04  -7.2376482e-04  -3.9774639e-04  -4.5553224e-06  -1.5264072e-03  -1.0917160e-03  -1.4687334e-03  -7.9376367e-04  -1.3599354e-03   1.5356102e-04  -6.9851027e-04  -6.2146591e-04   8.3178871e-05  -6.3967775e-04  -9.8507933e-04  -8.9323294e-04  -4.4729552e-04  -4.9990078e-04  -9.4365905e-04  -8.7073946e-05  -8.2351326e-04  -1.3266280e-03  -2.7477922e-04  -4.7929230e-04  -2.2989605e-04  -9.3575544e-04  -7.0355338e-04  -2.7433189e-04  -4.9494184e-04  -6.7662046e-04  -1.0018556e-03  -4.9257971e-04  -5.0604908e-04  -1.6240095e-04  -6.4686174e-04  -1.7163538e-03  -1.9334850e-03  -1.4621962e-03  -4.4621425e-04  -9.0421521e-04  -9.0141862e-04   1.2198532e-03   6.2599829e-05  -7.5571836e-05  -9.6490688e-04
  -4.9339799e-04  -1.7034479e-04  -4.4453584e-04  -5.1173748e-04  -1.8029643e-04  -4.9674814e-04  -7.6663285e-04  -3.8931379e-04  -1.8409560e-04  -1.5635964e-03  -1.1851115e-03  -1.4536546e-03  -5.6917657e-04  -1.4004712e-03   8.4609026e-05  -5.9477391e-04  -5.5689743e-04   1.2883780e-04  -7.4076996e-04  -1.0335296e-03  -9.1054651e-04  -4.5170073e-04  -4.8640170e-04  -9.7181904e-04  -1.5448121e-04  -1.1182409e-03  -1.2422461e-03  -2.2257456e-04   1.3114767e-04  -3.1059689e-04  -1.1127787e-03  -6.4319588e-04  -4.8892701e-04  -5.5351132e-04  -8.3322730e-04  -1.2343343e-03  -4.7743050e-04  -4.3187590e-04  -3.1230040e-04  -7.2210887e-04  -2.0563598e-03  -2.0682628e-03  -1.4800184e-03  -7.7147601e-04  -9.1795909e-04  -1.1323877e-03   1.1060316e-03   3.5738535e-04  -5.3446222e-04  -1.2317869e-03
  -2.4643351e-04  -4.3049949e-05  -2.8781910e-04  -4.0701398e-04  -8.5332293e-05  -3.9679883e-04  -6.0518965e-04  -4.1895447e-04   3.2606440e-05  -1.2755367e-03  -9.4217120e-04  -1.3341708e-03  -4.5534209e-04  -1.2378936e-03   8.5274383e-05  -6.1216182e-04  -3.8947165e-04   5.6039753e-05  -7.4421486e-04  -9.3764107e-04  -8.3837885e-04  -3.4686469e-04  -3.3098418e-04  -1.0220401e-03  -3.1741385e-04  -9.8927529e-04  -1.1188225e-03  -3.1275139e-04  -2.4870638e-04  -2.0096111e-04  -9.6876448e-04  -7.3780696e-04  -2.3016376e-04  -4.2959844e-04  -7.8891462e-04  -9.8486233e-04  -6.4744620e-04  -5.4416578e-04  -2.3501184e-04  -5.3475559e-04  -1.6383952e-03  -1.9256932e-03  -7.8875141e-04  -8.2902471e-04  -8.5403636e-04  -1.0813487e-03   1.3137187e-03  -8.0621633e-04  -5.8872381e-05  -1.1641810e-03
  -2.8333571e-04  -3.6382895e-05  -2.3770481e-04  -4.2090632e-04  -1.5275582e-04  -4.3618222e-04  -5.8558956e-04  -4.8918062e-04  -1.2908573e-04  -1.4766735e-03  -9.7140914e-04  -1.6248617e-03  -4.8875355e-04  -1.1958809e-03   1.8671052e-04  -6.5870327e-04  -2.8450513e-04  -6.3403641e-05  -6.6397653e-04  -9.3772181e-04  -8.6656742e-04  -4.2250086e-04  -3.3388098e-04  -1.0318918e-03  -2.4758160e-04  -8.9263136e-04  -1.2389343e-03  -3.4521945e-04  -2.2907858e-04  -2.5136789e-04  -7.9433463e-04  -8.6372043e-04  -7.1086385e-04  -4.4530720e-04  -7.6364214e-04  -8.9048076e-04  -5.7919149e-04  -6.6380115e-04  -2.0111701e-04  -6.8261381e-04  -1.2985494e-03  -1.7771811e-03  -9.3986909e-04  -7.3608500e-04  -1.0195685e-03  -1.2077020e-03   1.2851364e-03   6.6012156e-04  -4.1793534e-04  -1.0011608e-03
  -3.6208035e-04  -1.7016237e-04  -2.3623742e-04  -5.1978498e-04  -1.9455426e-04  -4.1312294e-04  -6.2758254e-04  -2.9359895e-04  -1.1843508e-04  -1.4816852e-03  -1.0482818e-03  -1.5984416e-03  -6.0135208e-04  -1.0756348e-03   9.8260985e-05  -6.3740445e-04  -1.5936569e-04  -9.1734670e-05  -6.7212142e-04  -9.4844517e-04  -8.9653587e-04  -4.2852090e-04  -4.5096863e-04  -1.0313053e-03  -1.6510364e-04  -7.8878849e-04  -1.2796571e-03  -3.5521991e-04  -3.6400263e-04  -1.7982347e-04  -7.8072667e-04  -8.3202764e-04  -3.4579347e-04  -3.9592959e-04  -8.0643280e-04  -6.6749437e-04  -3.2474840e-04  -6.2426965e-04  -6.8443289e-05  -3.9050766e-04  -1.2060703e-03  -1.5917236e-03  -6.4501044e-04  -4.3251057e-05  -8.2302472e-04  -7.3043531e-04   1.5124255e-03   1.3841352e-03   2.6205592e-04  -7.6914708e-05
  -3.5712143e-04  -3.1135984e-05  -1.3158702e-04  -4.0342414e-04  -1.3071811e-04  -3.9045620e-04  -5.8075076e-04  -2.4770570e-04  -9.0745991e-05  -1.4452171e-03  -9.6257764e-04  -1.5540039e-03  -5.2400189e-04  -1.0067044e-03   1.5304942e-04  -6.6510931e-04  -8.5151383e-05  -1.1785074e-04  -5.2488368e-04  -8.6748984e-04  -8.5405342e-04  -4.2812558e-04  -2.7854057e-04  -9.2169223e-04  -1.8559261e-04  -6.6457002e-04  -1.1828376e-03  -3.5861979e-04  -5.7056040e-04  -1.2845536e-04  -6.2747521e-04  -8.1827218e-04  -2.4729397e-04  -2.7447086e-04  -6.4977119e-04  -5.6954386e-04  -1.2102456e-04  -6.5946631e-04  -2.2583454e-05  -4.8104036e-04  -1.2104538e-03  -1.5310273e-03  -4.6859373e-04   9.8681114e-05  -8.7073649e-04  -8.8327361e-04   1.4724233e-03   1.3500168e-03  -2.8499647e-04   3.7019595e-04
  -2.9145301e-04  -1.0706750e-04  -1.7058123e-04  -4.5813137e-04  -2.1907932e-04  -3.9937641e-04  -6.2388927e-04  -3.6155264e-04  -3.3165986e-04  -1.6870465e-03  -1.1723033e-03  -1.7134220e-03  -6.2340050e-04  -1.0117136e-03   1.6519584e-04  -6.8117410e-04  -9.6503019e-05  -1.8244375e-04  -5.8262056e-04  -9.4838248e-04  -9.2478358e-04  -4.8160058e-04  -4.9400504e-04  -1.0373810e-03  -1.6898863e-04  -8.1466883e-04  -1.2690433e-03  -3.6553893e-04  -2.8724887e-04  -1.0849996e-04  -6.4245425e-04  -8.6879218e-04  -2.3218297e-04  -4.1867691e-04  -7.8418915e-04  -6.1143487e-04  -1.6865804e-04  -6.7836628e-04   7.2357972e-05  -3.5664678e-04  -1.0642479e-03  -1.4818637e-03  -2.3210842e-04  -4.0826388e-04  -8.0596627e-04  -5.9527735e-04   1.5208424e-03   1.9671344e-03  -3.4933694e-04  -6.0964481e-04
  -3.0092179e-04  -7.4074883e-06  -1.3969450e-04  -3.7378893e-04  -1.4686213e-04  -2.4494345e-04  -4.7972781e-04  -4.3365548e-04  -2.3784303e-06  -1.4057329e-03  -9.1697229e-04  -1.4824613e-03  -4.9800181e-04  -1.0243981e-03   1.6926939e-04  -6.4253923e-04  -9.9055353e-05  -1.8396953e-04  -5.1204901e-04  -8.1906887e-04  -8.3796785e-04  -4.0941950e-04  -3.1544970e-04  -8.8514929e-04  -1.0238483e-04  -6.6390721e-04  -1.2823534e-03  -3.5870122e-04  -1.9635391e-04  -1.9266748e-05  -6.4833992e-04  -8.5980166e-04  -3.4694924e-04  -2.8356415e-04  -7.2200777e-04  -4.2466488e-04  -1.7745237e-04  -6.7325030e-04   7.6013268e-05  -3.4710558e-04  -1.1014760e-03  -1.4507027e-03  -4.7389939e-04  -6.7230430e-04  -8.0087542e-04  -6.9627078e-04   1.6639892e-03   6.1703083e-04   7.1302478e-05  -4.6273469e-04
  -3.8904627e-04  -4.8857150e-05  -1.5180430e-04  -3.9346490e-04  -1.6189343e-04  -2.9725069e-04  -5.2704464e-04  -1.1754008e-05  -2.0716920e-04  -1.5722648e-03  -1.0459103e-03  -1.5852250e-03  -5.6157081e-04  -1.1095742e-03   4.6882706e-05  -6.0267228e-04  -1.0446737e-04  -1.5878522e-04  -5.1250582e-04  -8.2896673e-04  -8.6417614e-04  -4.3803608e-04  -3.5838463e-04  -8.9644943e-04  -1.9226497e-04  -6.7751005e-04  -1.1907629e-03  -3.3708147e-04  -5.5273721e-04  -1.2503592e-05  -6.6463684e-04  -8.4842253e-04  -3.1426983e-04  -3.7667935e-04  -7.0053927e-04  -4.4025035e-04  -3.8514158e-04  -5.8455864e-04   7.1531365e-05  -4.2221192e-04  -1.2366520e-03  -1.6217512e-03  -5.0923013e-04   2.2209290e-04  -9.0748351e-04  -5.0451048e-04   1.5365754e-03   1.4200738e-03   2.2026170e-04  -9.9902286e-04
  -3.3917202e-04  -6.8950889e-05  -1.8018449e-04  -4.1297480e-04  -1.0605565e-04  -2.7028532e-04  -4.6563448e-04  -2.1077940e-04  -6.1273837e-05  -1.4464225e-03  -9.9287368e-04  -1.5013368e-03  -5.1658863e-04  -1.0342075e-03   4.1297892e-05  -6.1195623e-04  -1.2429323e-04  -1.4689242e-04  -4.4848170e-04  -7.9423416e-04  -8.2756969e-04  -3.6460746e-04  -3.4451310e-04  -8.3300425e-04  -1.9893612e-04  -6.4327777e-04  -1.1358478e-03  -3.7183211e-04  -2.6989169e-04   2.0477371e-05  -6.2942982e-04  -7.9977309e-04  -3.0948123e-04  -3.8918070e-04  -5.8521715e-04  -3.5558865e-04  -7.0408525e-05  -6.1955187e-04   2.0770665e-04  -2.8545695e-04  -1.0445088e-03  -1.5579736e-03  -2.2208111e-04   3.2559063e-04  -6.5114879e-04  -5.7795737e-04   1.5889268e-03   1.4178285e-03   2.2145264e-06   5.4012216e-06
  -2.7989337e-04  -2.2409579e-06  -1.4338887e-04  -3.4078734e-04  -6.0833165e-05  -2.6627391e-04  -4.2515551e-04  -3.8453273e-04  -2.2895714e-04  -1.4881373e-03  -1.0183501e-03  -1.5175379e-03  -5.0096202e-04  -9.7852666e-04   1.3829954e-04  -5.6652399e-04  -9.1141941e-05  -1.5376526e-04  -5.0049671e-04  -7.8224187e-04  -8.3207880e-04  -3.2658974e-04  -4.0372310e-04  -8.7979721e-04  -1.1914276e-04  -6.1260565e-04  -1.1474650e-03  -3.5630772e-04  -2.7454394e-04   2.2248989e-05  -6.5491855e-04  -8.5086824e-04  -4.2383996e-04  -2.9347549e-04  -6.7097100e-04  -4.0056920e-04  -2.4546785e-04  -5.8905606e-04   2.1543961e-04  -2.6670421e-04  -8.5766357e-04  -1.5090336e-03  -3.6760303e-04   5.1298580e-04  -7.6651608e-04  -7.8235299e-04   1.5509627e-03   9.8936679e-04  -1.8241967e-04   4.9969018e-04
  -3.7221404e-04  -1.2194940e-04  -2.3131368e-04  -4.1944068e-04  -1.3722395e-04  -3.7173252e-04  -4.7561075e-04  -3.3790048e-04  -5.0932018e-04  -1.7298373e-03  -1.2661621e-03  -1.6909523e-03  -6.1202649e-04  -1.0356880e-03   7.9050740e-05  -4.9240509e-04  -1.2594189e-04  -1.6047336e-04  -6.0737575e-04  -8.7226869e-04  -8.8586559e-04  -4.2801540e-04  -4.1205867e-04  -9.1377285e-04  -2.0705727e-04  -6.3344982e-04  -1.1405087e-03  -3.3746383e-04  -4.6634465e-04   3.7601003e-05  -6.2570465e-04  -8.3232071e-04  -2.7613997e-04  -3.0163137e-04  -5.9549988e-04  -4.0164695e-04  -2.4533208e-04  -5.8175914e-04   1.7390298e-04  -2.6815332e-04  -1.0281695e-03  -1.4093946e-03  -7.0767000e-04   7.4837659e-04  -6.7567162e-04  -5.3277175e-04   1.5339830e-03   8.0630963e-04  -2.2551698e-04   1.1726590e-03
  -2.4339931e-04   2.3163504e-06  -1.8532043e-04  -3.4106817e-04  -8.8171808e-05  -1.7247244e-04  -3.9954268e-04  -1.5066708e-04  -9.1872491e-05  -1.4377034e-03  -1.0241931e-03  -1.4786343e-03  -4.8488830e-04  -9.3611260e-04   2.4704458e-04  -5.4806081e-04  -6.5365712e-05  -1.5806385e-04  -4.7006417e-04  -7.5915444e-04  -8.2766695e-04  -3.1913797e-04  -3.6430836e-04  -8.3672110e-04  -1.3569267e-04  -5.9780147e-04  -1.1350291e-03  -3.3009602e-04  -3.6916632e-04   1.6145495e-04  -6.3206855e-04  -8.2639424e-04  -4.6933955e-04  -2.5714410e-04  -5.7288038e-04  -3.5857357e-04   6.0950493e-05  -5.3215493e-04   2.9272184e-04  -1.5762124e-04  -8.8773505e-04  -1.4458559e-03  -4.9751502e-04   1.7133226e-04  -6.8315235e-04  -6.5376662e-04   1.5221605e-03   1.9768612e-03   1.1266512e-04  -3.1423097e-04
  -3.1456491e-04  -8.7554610e-05  -2.3880451e-04  -3.8576039e-04  -1.3424527e-04  -2.4502823e-04  -4.0849022e-04   4.5681641e-05  -3.2351926e-04  -1.6441081e-03  -1.1957468e-03  -1.6194127e-03  -5.8219174e-04  -8.4741198e-04   9.4855357e-05  -5.0567416e-04  -4.5631808e-05  -1.6890510e-04  -7.7101198e-04  -8.4499083e-04  -8.8257436e-04  -4.7714153e-04  -5.1371439e-04  -9.3658624e-04  -3.2683336e-05  -7.0741237e-04  -1.1588719e-03  -3.1586937e-04  -3.2871441e-04   5.1042050e-05  -6.4249412e-04  -8.6273538e-04  -3.5052170e-04  -3.6231655e-04  -6.3342956e-04  -4.1304692e-04  -2.3878786e-04  -5.4227031e-04   2.4130018e-04  -2.1129119e-04  -1.1032575e-03  -1.6053760e-03  -2.3288325e-04  -9.4091622e-05  -8.9248829e-04  -5.6417863e-04   1.4235643e-03   1.1251848e-03   5.1034667e-04  -3.4318633e-05
  -3.3927473e-04  -1.0562302e-04  -3.1531538e-04  -4.0088361e-04  -1.1869110e-04  -2.6707264e-04  -4.0850043e-04  -3.0257372e-04  -1.2161182e-04  -1.4810768e-03  -1.1094919e-03  -1.5070750e-03  -5.5938098e-04  -9.0764987e-04   1.2130483e-04  -5.1404920e-04  -6.5452281e-05  -1.6927121e-04  -4.7174821e-04  -8.1535167e-04  -8.7146729e-04  -4.0545611e-04  -4.3096847e-04  -9.0858235e-04  -1.2023868e-04  -6.2469335e-04  -1.1914549e-03  -3.2861638e-04  -3.3857720e-04   1.3725457e-04  -6.7251059e-04  -8.3364412e-04  -4.9760769e-04  -3.3012711e-04  -6.0883682e-04  -3.2106068e-04   1.0611615e-04  -5.5646297e-04   3.0653522e-04  -1.0400885e-04  -8.1023673e-04  -1.5261656e-03   3.6599292e-04   8.2557800e-04  -7.0814521e-04  -3.9369086e-04   1.6136518e-03   1.2449670e-03  -8.6825145e-05   6.7382667e-04
  -3.8661851e-04  -4.5688088e-05  -3.2206360e-04  -3.8087345e-04  -9.2889306e-05  -1.0321836e-04  -3.3023400e-04   6.3485975e-05  -1.7386291e-04  -1.4883787e-03  -1.0716652e-03  -1.4819454e-03  -5.2614423e-04  -9.3973370e-04   1.5877234e-04  -4.6379899e-04  -1.0147419e-04  -1.6688723e-04  -6.6581363e-04  -7.6613703e-04  -8.5912849e-04  -3.7407249e-04  -4.4358292e-04  -9.2997123e-04  -8.0439269e-05  -6.6990597e-04  -1.2096763e-03  -3.1418432e-04  -3.5479135e-04   9.0913753e-05  -7.0861157e-04  -8.7697478e-04  -5.1325845e-04  -3.4714735e-04  -6.2238716e-04  -4.5169002e-04  -1.2948803e-04  -5.1560462e-04   3.2575583e-04  -1.9359571e-04  -9.8307920e-04  -1.4879482e-03   2.0582434e-04   1.1446340e-04  -7.1584363e-04  -6.8190438e-04   1.5258078e-03   1.7947437e-03   1.9973934e-04   8.7869637e-05
  -3.6537234e-04  -1.4970469e-04  -3.7392604e-04  -4.5384633e-04  -1.5112731e-04  -2.1212107e-04  -4.1237019e-04  -1.6493211e-04  -3.0349940e-04  -1.6980323e-03  -1.2721955e-03  -1.6377941e-03  -6.1004207e-04  -9.4753463e-04   1.8653103e-04  -4.1690952e-04  -1.7257253e-04  -1.6987819e-04  -6.5967737e-04  -8.6458120e-04  -9.1859087e-04  -3.8528975e-04  -5.2839750e-04  -9.0085459e-04  -1.5847500e-04  -6.7356718e-04  -1.1890255e-03  -3.1681280e-04  -4.0345424e-04   1.0640954e-04  -7.9212739e-04  -9.0555503e-04  -3.4514247e-04  -3.9117748e-04  -6.8125577e-04  -4.8429923e-04  -6.9136135e-05  -5.6930276e-04   3.1668693e-04  -1.9966293e-04  -1.0572657e-03  -1.4961942e-03  -1.9905470e-04   1.3798695e-04  -6.7408493e-04  -5.7188049e-04   1.5171136e-03   1.8247190e-03   8.6017506e-04  -3.0543274e-04
  -3.6705623e-04  -4.1738978e-05  -3.5998301e-04  -3.6738522e-04  -1.1154395e-04  -1.1675884e-04  -2.6474858e-04   8.2730745e-05  -8.6883374e-06  -1.3894723e-03  -1.0218339e-03  -1.4238860e-03  -5.1966275e-04  -9.2410657e-04   2.4850099e-04  -5.1529519e-04  -1.0585663e-04  -1.8003500e-04  -4.6473110e-04  -8.1220589e-04  -8.8349602e-04  -3.6061989e-04  -3.8567674e-04  -9.1829401e-04  -1.3875624e-04  -6.7683624e-04  -1.1484071e-03  -3.6172708e-04  -3.7126560e-04   1.5536512e-04  -7.2369486e-04  -8.6920738e-04  -3.4766886e-04  -3.0230946e-04  -5.4609001e-04  -3.7031790e-04  -1.1028913e-04  -5.1930151e-04   3.0242573e-04  -4.5191813e-05  -1.1058262e-03  -1.4264417e-03  -1.9568419e-04  -1.3595952e-04  -7.0453290e-04  -6.0117833e-04   1.5658081e-03   6.6816102e-04   4.0049426e-04  -5.8692094e-04
  -3.8767720e-04  -1.0959653e-04  -4.0637399e-04  -4.4552961e-04  -1.3521945e-04  -1.0511324e-04  -2.8583672e-04  -2.8485620e-05  -2.5637270e-04  -1.5433459e-03  -1.1681343e-03  -1.5444130e-03  -5.9406145e-04  -8.8446960e-04   1.9081704e-04  -4.7728783e-04  -1.6598187e-04  -1.8623126e-04  -5.8147998e-04  -8.6804113e-04  -9.1898791e-04  -4.2154622e-04  -5.1517086e-04  -8.9910231e-04  -1.4803544e-04  -7.3601532e-04  -1.1541880e-03  -3.3459702e-04  -5.0432462e-04   8.7374610e-05  -8.0311508e-04  -9.1966818e-04  -6.8065408e-04  -4.0789446e-04  -6.2838168e-04  -4.9111265e-04  -2.6932702e-04  -5.5450911e-04   2.7343264e-04  -1.8131375e-04  -9.1828324e-04  -1.5280573e-03   2.9163904e-04   4.2771103e-04  -8.4568094e-04  -6.6349964e-04   1.4287586e-03   4.3220448e-04   2.4230444e-04  -1.5180780e-03
  -4.0422156e-04  -1.3439092e-04  -4.2831711e-04  -4.5301864e-04  -1.2169760e-04  -1.4055250e-04  -3.0013782e-04  -4.9447530e-04  -3.9851966e-05  -1.3994771e-03  -1.0919740e-03  -1.4168527e-03  -5.6616729e-04  -1.0385026e-03   1.0742737e-04  -4.6615268e-04  -2.3608193e-04  -1.9764072e-04  -7.0897269e-04  -8.5721212e-04  -9.1723318e-04  -3.9701321e-04  -4.7901523e-04  -9.2018704e-04  -2.4501709e-04  -6.7051360e-04  -1.2514167e-03  -3.6219551e-04  -3.2831167e-04   9.5518015e-05  -8.4437587e-04  -8.7994360e-04  -3.2699792e-04  -3.9370041e-04  -5.2417559e-04  -3.1443298e-04  -8.9445632e-05  -5.4425868e-04   3.7089735e-04  -8.4828804e-05  -9.8514231e-04  -1.4653911e-03  -2.2548459e-04  -3.8428657e-04  -7.1525393e-04  -4.6229150e-04   1.4677501e-03   9.5334259e-04   6.0875720e-04  -4.9405677e-05
  -5.3448905e-04  -8.9698231e-05  -4.7124882e-04  -4.2146421e-04  -1.2454543e-04  -4.8993152e-05  -2.7326751e-04  -3.1537718e-05  -2.5128827e-05  -1.3896293e-03  -1.0702177e-03  -1.4269239e-03  -5.8478961e-04  -9.7012689e-04   2.3400542e-04  -5.4241065e-04  -2.4044543e-04  -2.0044512e-04  -6.8554626e-04  -8.9497963e-04  -9.2078419e-04  -4.3976022e-04  -5.8428315e-04  -9.9681993e-04  -2.5414740e-04  -6.4052211e-04  -1.3324257e-03  -3.7023521e-04  -4.2736164e-04   1.1309485e-04  -7.8124396e-04  -9.1302895e-04  -3.5039478e-04  -4.3532017e-04  -6.0699391e-04  -5.2352424e-04   8.7865636e-05  -6.2811445e-04   3.2257836e-04  -6.2257030e-05  -9.7785215e-04  -1.4600527e-03  -7.4287347e-04   1.5633044e-04  -7.6997618e-04  -7.2975445e-04   1.4206866e-03   1.7549009e-03   5.2774063e-04   1.2999888e-04
  -4.0535774e-04  -2.1881024e-04  -5.5550243e-04  -4.9717579e-04  -2.1650892e-04  -2.3070525e-04  -4.0892983e-04  -1.8174344e-04  -1.8535112e-04  -1.5974805e-03  -1.3020237e-03  -1.6201793e-03  -7.4208039e-04  -1.0948681e-03   8.8386252e-05  -5.3908455e-04  -2.5308208e-04  -2.2096545e-04  -7.8506605e-04  -1.0600446e-03  -1.0142137e-03  -4.7107512e-04  -7.0436043e-04  -1.1638992e-03  -1.4805072e-04  -6.7926873e-04  -1.2650689e-03  -4.0529732e-04  -6.1492354e-04   8.8011977e-05  -7.2848261e-04  -9.6433819e-04  -4.8170012e-04  -4.2125169e-04  -6.4648769e-04  -4.5241017e-04  -8.0598642e-05  -6.5566372e-04   3.3752946e-04  -1.8470138e-04  -8.5732568e-04  -1.4981898e-03  -5.2051502e-04  -1.5718673e-04  -8.1003789e-04  -8.2674535e-04   1.3269493e-03   3.4667258e-04   3.0410973e-05  -9.8869682e-04
  -5.0352945e-04  -1.2269663e-04  -5.0587626e-04  -4.7598875e-04  -2.1627177e-04  -8.4793610e-05  -2.7994654e-04  -1.4952155e-04  -6.2967330e-05  -1.3220743e-03  -1.1090323e-03  -1.4545216e-03  -6.6303374e-04  -1.0227107e-03   1.1834010e-04  -5.8048265e-04  -2.3123727e-04  -2.0837047e-04  -6.4575905e-04  -1.0382684e-03  -9.5554173e-04  -4.6128163e-04  -5.7160220e-04  -1.0388764e-03  -2.1874013e-04  -6.4137945e-04  -1.1851701e-03  -3.6280803e-04  -3.1086715e-04   8.3003928e-05  -7.2454405e-04  -9.2806190e-04  -4.0058681e-04  -4.2164934e-04  -5.8306783e-04  -5.0229137e-04  -1.7642609e-06  -7.1473222e-04   2.7869185e-04  -2.4666151e-04  -7.8763481e-04  -1.6042046e-03  -4.1910727e-04  -3.9204260e-04  -7.8439858e-04  -5.9263007e-04   1.3383675e-03   1.1987343e-03   1.6387970e-04  -8.9831091e-04
  -4.8145556e-04  -1.9922697e-04  -5.9845962e-04  -5.3864659e-04  -2.4082132e-04  -1.5183911e-04  -3.0878076e-04  -1.1603910e-04  -3.3007035e-04  -1.4832095e-03  -1.2702857e-03  -1.5973537e-03  -7.5619027e-04  -1.0296620e-03   1.9999633e-04  -6.1379094e-04  -2.3576691e-04  -2.2472395e-04  -8.4232644e-04  -1.1412606e-03  -1.0006783e-03  -5.5082591e-04  -7.2187401e-04  -9.7218825e-04  -1.5989348e-04  -8.4798003e-04  -1.1304585e-03  -3.4622953e-04  -3.5535530e-04  -9.8649862e-06  -7.3409732e-04  -1.0178626e-03  -5.0445995e-04  -5.4784969e-04  -7.3030265e-04  -5.8849994e-04  -1.1514436e-04  -7.2465610e-04   2.5215317e-04  -3.3162776e-04  -1.2681100e-03  -1.6410984e-03  -9.4725034e-04   3.7906232e-04  -1.0387953e-03  -6.6204224e-04   1.2855845e-03   1.1443201e-03   1.4912428e-05  -1.1219594e-03
  -4.9939030e-04  -2.1129103e-04  -5.6736497e-04  -6.0193898e-04  -2.0985866e-04  -1.3004028e-04  -3.8405671e-04  -2.5730586e-04  -2.1790383e-05  -1.3217848e-03  -1.1860606e-03  -1.5058196e-03  -7.8498392e-04  -9.9749304e-04   1.2029445e-04  -6.1926479e-04  -2.4439348e-04  -2.2661402e-04  -6.4558181e-04  -1.1536829e-03  -9.7344222e-04  -4.6829454e-04  -6.7208853e-04  -1.0224117e-03  -2.3734536e-04  -6.4016588e-04  -1.3586546e-03  -3.6134775e-04  -5.2654836e-04   6.6602079e-05  -7.9129107e-04  -9.4011822e-04  -4.6081984e-04  -4.2607298e-04  -6.8579009e-04  -4.5607530e-04  -2.2202314e-04  -6.8211323e-04   2.1145226e-04  -1.6349946e-04  -9.0955145e-04  -1.5093838e-03  -3.4651990e-04  -2.7374853e-04  -7.9053786e-04  -8.6227147e-04   1.3377389e-03   1.1347026e-03   2.4864727e-04  -1.6167982e-03
  -3.9434055e-04  -1.6511368e-04  -5.8543851e-04  -5.8060320e-04  -2.2044171e-04  -2.4593718e-04  -3.7722746e-04  -3.3039018e-04  -1.8500139e-04  -1.3336259e-03  -1.2099756e-03  -1.4901531e-03  -7.6774321e-04  -1.1579237e-03   5.9742826e-05  -6.3724042e-04  -2.8839227e-04  -2.0939890e-04  -6.9681212e-04  -1.1680981e-03  -9.6302980e-04  -4.8299754e-04  -7.0236326e-04  -9.4992941e-04  -2.3690971e-04  -7.5049920e-04  -1.1964416e-03  -3.4203715e-04  -2.8941300e-04   2.3952673e-06  -7.9070072e-04  -9.9881098e-04  -4.7401470e-04  -5.1714526e-04  -6.6967297e-04  -6.7353621e-04  -1.6681897e-04  -6.6352094e-04   8.2605264e-05  -3.3833404e-04  -1.2794208e-03  -1.7729978e-03  -8.2383520e-04  -8.4343925e-04  -9.6202019e-04  -1.0363734e-03   1.2232454e-03   1.8194029e-03  -3.1912021e-04  -1.5776175e-03
  -5.1000988e-04  -2.8215346e-04  -6.4511882e-04  -6.8038976e-04  -2.5369509e-04  -2.8663065e-04  -4.9580412e-04  -4.6334416e-04  -3.6709986e-04  -1.5514166e-03  -1.4226233e-03  -1.6807248e-03  -9.2257548e-04  -1.1689045e-03   9.8217119e-05  -5.6766340e-04  -3.6779454e-04  -2.3256570e-04  -8.9662179e-04  -1.2930861e-03  -1.0109409e-03  -5.8512460e-04  -6.7990745e-04  -1.0367421e-03  -2.6856901e-04  -9.1512181e-04  -1.2699190e-03  -3.4663448e-04  -3.4007087e-04  -4.7207006e-05  -8.2180812e-04  -9.7686984e-04  -5.3273141e-04  -5.3579413e-04  -6.9403328e-04  -6.8385358e-04   2.1751098e-06  -7.4520754e-04   1.4309752e-04  -3.1538727e-04  -1.2391058e-03  -1.5562688e-03  -1.1253771e-03  -5.6387285e-05  -1.0427251e-03  -1.0610194e-03   1.2358045e-03   2.0872342e-04  -2.9922047e-04   1.9729740e-04
  -3.9665928e-04  -1.6652969e-04  -5.6670641e-04  -6.2443875e-04  -2.0946989e-04  -2.2345639e-04  -3.8489350e-04  -2.2798302e-04  -9.3182767e-05  -1.2137946e-03  -1.1994992e-03  -1.4504667e-03  -8.1765436e-04  -1.2017984e-03   1.8463237e-04  -6.6570536e-04  -3.4243008e-04  -2.3518768e-04  -7.3664071e-04  -1.2375189e-03  -9.4213500e-04  -4.7026237e-04  -4.9268780e-04  -9.1853039e-04  -3.0731593e-04  -7.9581881e-04  -1.3296554e-03  -3.8812601e-04  -3.8131900e-04  -1.7976390e-05  -8.2219101e-04  -1.0051704e-03  -6.7446980e-04  -5.3154066e-04  -7.5289351e-04  -5.4204237e-04  -2.2019559e-04  -7.6197850e-04   1.4380743e-04  -3.7711611e-04  -1.2914825e-03  -1.6551262e-03  -1.2907151e-03   2.1019064e-04  -9.9339522e-04  -1.0560015e-03   1.2833558e-03   1.7592857e-03  -5.2749593e-04  -2.0239688e-03
  -3.7153548e-04  -2.1500357e-04  -5.6837738e-04  -6.7098869e-04  -2.2138315e-04  -2.5558664e-04  -4.6199583e-04  -2.3556827e-04  -3.7735430e-04  -1.4164945e-03  -1.3413841e-03  -1.6067908e-03  -8.2684157e-04  -1.2518645e-03   9.5189644e-05  -6.7094230e-04  -3.7014022e-04  -2.4162715e-04  -8.5694873e-04  -1.3136674e-03  -9.7113935e-04  -5.0936284e-04  -6.5401441e-04  -9.2190795e-04  -3.3247072e-04  -8.7162992e-04  -1.2756896e-03  -3.7955272e-04  -4.9617887e-04  -8.1870632e-05  -8.2143099e-04  -1.0502905e-03  -5.6510489e-04  -6.3405791e-04  -8.0727419e-04  -6.6452834e-04  -5.3304211e-05  -8.3497050e-04   2.4414872e-05  -5.0380250e-04  -1.2665553e-03  -1.8030886e-03  -5.1761896e-04  -8.6638558e-04  -1.1671649e-03  -1.1691824e-03   1.1655141e-03   7.8191416e-04  -7.5979379e-04  -1.0481861e-03
  -4.4346723e-04  -3.0490087e-04  -6.0105231e-04  -7.5788563e-04  -2.2011406e-04  -2.1834701e-04  -4.8170681e-04  -1.1687916e-04  -2.4538499e-04  -1.3644581e-03  -1.3627879e-03  -1.5966465e-03  -8.8764244e-04  -1.1883619e-03  -1.2863110e-05  -6.6901377e-04  -3.9798414e-04  -2.4128097e-04  -7.5286289e-04  -1.3348974e-03  -9.6705358e-04  -5.2834803e-04  -6.4352562e-04  -1.0035546e-03  -2.6688134e-04  -7.6094439e-04  -1.2015477e-03  -3.6772672e-04  -4.8214442e-04  -9.8944700e-05  -8.1633695e-04  -1.0685819e-03  -5.6538929e-04  -5.7534245e-04  -7.7198271e-04  -7.9858239e-04   8.8572851e-06  -8.3562650e-04   6.7550056e-05  -5.0776615e-04  -1.4207122e-03  -1.6693991e-03  -2.6985237e-04  -3.8497002e-04  -9.6274324e-04  -1.1892987e-03   1.2808220e-03   5.4592511e-04   2.0554471e-04  -8.1806508e-04
  -3.8952017e-04  -1.8442524e-04  -5.3401536e-04  -6.7689677e-04  -1.8609488e-04  -2.0360535e-04  -4.4416951e-04  -1.8034046e-04  -2.4014289e-04  -1.3513281e-03  -1.3124289e-03  -1.5883971e-03  -8.8595768e-04  -1.2090704e-03   1.1939463e-04  -7.1406603e-04  -3.9698527e-04  -2.5366034e-04  -8.2771137e-04  -1.3004227e-03  -9.2204544e-04  -4.9452746e-04  -5.7540444e-04  -9.0766209e-04  -2.2808700e-04  -8.4856548e-04  -1.3046974e-03  -3.7032430e-04  -5.3471525e-04  -1.3790988e-04  -8.0278836e-04  -1.0248476e-03  -4.3791288e-04  -5.3615985e-04  -7.8870711e-04  -7.9441041e-04  -2.0104701e-04  -8.7704672e-04  -1.5421383e-05  -4.7184917e-04  -1.4910584e-03  -1.8453256e-03  -1.1347489e-03  -8.1918051e-04  -1.1400285e-03  -1.2988966e-03   1.2123296e-03   6.7842647e-04   4.0965497e-05  -1.3935912e-03
  -3.1611783e-04  -2.6013970e-04  -5.9485360e-04  -7.3157740e-04  -2.6636268e-04  -3.9282269e-04  -5.9380580e-04  -4.3275647e-04  -5.4991303e-04  -1.6006582e-03  -1.5335205e-03  -1.7583288e-03  -9.4296783e-04  -1.2496952e-03   1.2938793e-04  -7.1949046e-04  -4.4385105e-04  -2.6392462e-04  -9.7184081e-04  -1.4011062e-03  -9.7655621e-04  -5.3067185e-04  -7.9801574e-04  -1.0211919e-03  -2.6047890e-04  -9.3560718e-04  -1.2738587e-03  -3.7953648e-04  -5.0887052e-04  -1.6532844e-04  -8.4761059e-04  -1.0401900e-03  -5.0938799e-04  -6.0677837e-04  -7.6929561e-04  -8.6737901e-04  -3.2427238e-04  -8.7883760e-04  -2.5864998e-05  -5.2878435e-04  -1.3408317e-03  -1.7970598e-03  -1.5802919e-03  -5.2061502e-04  -1.1046784e-03  -1.3010307e-03   1.2984031e-03   9.2833600e-04  -4.8109930e-04  -1.1312786e-03
  -3.3651173e-04  -1.7214236e-04  -5.3836615e-04  -7.0841162e-04  -2.0161326e-04  -2.2378120e-04  -4.9484015e-04  -3.3409649e-04  -2.8570415e-04  -1.3190454e-03  -1.3219040e-03  -1.5437352e-03  -8.2411064e-04  -1.3585655e-03   4.0064719e-05  -7.7269005e-04  -4.7639778e-04  -2.6842981e-04  -8.0963480e-04  -1.2762749e-03  -8.8779442e-04  -4.9275457e-04  -5.0661445e-04  -7.2357961e-04  -2.6134742e-04  -7.3876226e-04  -1.3574614e-03  -4.0231569e-04  -5.7958468e-04  -1.6105942e-04  -9.0412860e-04  -1.0669256e-03  -5.0562440e-04  -6.0062640e-04  -8.3065144e-04  -8.1208214e-04  -2.1633376e-04  -8.9899288e-04  -9.9357101e-05  -5.0588220e-04  -1.4108109e-03  -1.7571443e-03  -1.7573043e-03  -4.5785302e-04  -1.0423694e-03  -1.1504283e-03   1.2839868e-03   4.0821021e-04  -4.5984887e-04  -9.8947948e-04
  -3.9463860e-04  -1.7171516e-04  -4.9110735e-04  -6.9203245e-04  -2.3617750e-04  -3.2252545e-04  -5.3697085e-04  -3.2130466e-04  -3.9551427e-04  -1.4876846e-03  -1.4147199e-03  -1.6430340e-03  -8.3659770e-04  -1.3794234e-03   3.5065452e-05  -7.6361629e-04  -5.1812496e-04  -2.6468927e-04  -1.0167643e-03  -1.2833402e-03  -8.8786695e-04  -4.6078680e-04  -6.1566755e-04  -7.9608738e-04  -2.9598924e-04  -7.6461787e-04  -1.4746299e-03  -4.1380367e-04  -5.8433134e-04  -1.6202152e-04  -9.5707603e-04  -1.0885261e-03  -4.7191654e-04  -6.2412658e-04  -7.9232524e-04  -8.9211203e-04  -2.5040415e-04  -9.4246265e-04  -1.3183233e-04  -6.5321452e-04  -1.6297830e-03  -1.8776770e-03  -1.0531386e-03  -7.5281970e-04  -1.1711407e-03  -1.3740514e-03   1.2643943e-03   1.1459721e-03  -2.1455064e-04  -4.3441323e-04
  -3.2770613e-04  -2.2229074e-04  -5.3793675e-04  -7.0969918e-04  -1.8806184e-04  -3.1739668e-04  -5.7532999e-04  -3.1511424e-04  -4.4632310e-04  -1.3977137e-03  -1.3680477e-03  -1.5956161e-03  -8.1328803e-04  -1.4540952e-03   1.3735943e-04  -7.1665301e-04  -4.9969245e-04  -2.4047251e-04  -7.9241715e-04  -1.2452363e-03  -8.5650070e-04  -3.5751538e-04  -5.3032226e-04  -7.9434988e-04  -3.1262892e-04  -7.5672864e-04  -1.4981610e-03  -4.0485605e-04  -5.1847420e-04  -1.4380751e-04  -9.4922999e-04  -1.0204186e-03  -5.0969888e-04  -5.2548858e-04  -7.5497420e-04  -7.4653688e-04  -9.1268506e-05  -9.0348214e-04  -9.4396761e-05  -6.2044250e-04  -1.4629466e-03  -1.8605364e-03  -7.9495390e-04  -6.6857022e-04  -9.4319019e-04  -1.1193185e-03   1.3534215e-03   9.4721222e-04  -1.2787686e-04  -2.8671543e-04
  -3.6586827e-04  -8.0962665e-05  -3.7377464e-04  -6.3003303e-04  -1.5159328e-04  -2.3675973e-04  -5.0126709e-04  -5.0793307e-05  -8.4112988e-05  -1.3438363e-03  -1.2998312e-03  -1.5565259e-03  -6.8350940e-04  -1.2929281e-03   1.7078621e-04  -7.0510228e-04  -4.4414113e-04  -2.1363958e-04  -8.9224521e-04  -1.1286563e-03  -7.8694720e-04  -3.1828531e-04  -5.1886518e-04  -6.6291884e-04  -2.7446353e-04  -7.1558525e-04  -1.4787202e-03  -3.9063225e-04  -4.8617946e-04  -1.5369049e-04  -9.4941736e-04  -1.0472542e-03  -2.4569893e-04  -5.1973760e-04  -7.5069355e-04  -7.5592066e-04  -3.1684848e-04  -8.9431537e-04  -1.1469003e-04  -6.6272041e-04  -1.4748755e-03  -1.7601586e-03  -5.4829905e-04  -6.9039885e-04  -1.0093537e-03  -1.1067024e-03   1.3426512e-03   2.4329672e-04  -5.4238335e-04  -1.3780153e-03
  -2.0665205e-04  -1.4672872e-04  -4.1905002e-04  -6.5492681e-04  -1.7900112e-04  -3.2023300e-04  -5.5674493e-04  -4.1860811e-04  -4.9659755e-04  -1.5543019e-03  -1.4765073e-03  -1.7051364e-03  -7.7660568e-04  -1.2628634e-03   9.8871300e-05  -6.6768227e-04  -4.1873188e-04  -2.2273397e-04  -9.5896289e-04  -1.1843879e-03  -8.3088281e-04  -3.2049368e-04  -5.3026585e-04  -6.9870544e-04  -3.2874668e-04  -7.8019960e-04  -1.3652013e-03  -3.7689655e-04  -5.4752477e-04  -1.4352897e-04  -9.1044890e-04  -9.9224260e-04  -2.2497168e-04  -5.3471286e-04  -7.5197319e-04  -7.3674379e-04  -2.9219704e-04  -8.3611917e-04  -9.4907060e-05  -6.4077316e-04  -1.4083019e-03  -1.6396504e-03  -8.1519119e-04  -7.1874139e-04  -9.3365245e-04  -1.1805060e-03   1.4681682e-03   1.5434042e-03  -1.4474425e-04  -8.1383361e-04
  -2.0704730e-04  -3.4757311e-05  -3.1566143e-04  -5.7536113e-04  -1.4863115e-04  -1.3510922e-04  -4.4864244e-04  -2.9814462e-04  -4.3021148e-05  -1.1976796e-03  -1.1907154e-03  -1.4594916e-03  -6.4043805e-04  -1.1847480e-03   2.2037496e-04  -6.7584647e-04  -3.3693138e-04  -1.9302807e-04  -8.3681481e-04  -1.0140281e-03  -7.1282272e-04  -2.2021781e-04  -2.7792749e-04  -6.4579723e-04  -2.3922154e-04  -4.6738863e-04  -1.4277878e-03  -3.9774377e-04  -6.4599619e-04  -1.0651026e-04  -8.6745457e-04  -9.2003285e-04  -2.1623650e-04  -4.3652629e-04  -5.8608735e-04  -6.1427354e-04  -9.3125695e-05  -8.1734482e-04  -1.3008644e-04  -5.5322878e-04  -1.3112592e-03  -1.6501478e-03  -1.1884684e-03  -5.3077569e-04  -9.3770982e-04  -9.8220434e-04   1.5223782e-03   5.5249786e-04   7.5343967e-05  -1.8297653e-03
  -1.8334774e-04  -3.9171016e-05  -2.5442961e-04  -5.6183373e-04  -1.2950812e-04  -2.4437447e-04  -4.6804029e-04  -2.8873462e-04  -2.5052615e-04  -1.3525210e-03  -1.2557110e-03  -1.5290666e-03  -5.6907127e-04  -1.2248163e-03   1.1392553e-04  -6.4410002e-04  -3.7079613e-04  -1.7890423e-04  -6.8459677e-04  -9.7960455e-04  -7.0410821e-04  -2.1292991e-04  -3.5967285e-04  -6.3906872e-04  -2.3076688e-04  -6.8675610e-04  -1.4114785e-03  -3.5756407e-04  -3.0754728e-04  -9.7456250e-05  -8.5718825e-04  -9.6031453e-04  -4.9063319e-04  -5.0450419e-04  -6.2288385e-04  -6.3387863e-04  -1.3799701e-04  -8.1276201e-04  -1.4118223e-04  -5.6104321e-04  -1.4798373e-03  -1.6243537e-03  -8.8540657e-04  -1.9230363e-04  -1.0502548e-03  -8.5366314e-04   1.4119403e-03   3.7726664e-04   2.5074286e-04  -1.5845776e-03
  -2.6435871e-04  -1.4668028e-04  -2.7903586e-04  -6.1763852e-04  -1.1268292e-04  -1.9620155e-04  -4.8956822e-04  -3.5544680e-04  -1.8350066e-04  -1.2721112e-03  -1.2451587e-03  -1.4719514e-03  -5.5811834e-04  -1.1959766e-03   2.8711549e-04  -6.4719300e-04  -3.4558508e-04  -1.6111512e-04  -6.4708985e-04  -9.5582783e-04  -6.9249090e-04  -1.8796083e-04  -3.3559746e-04  -5.6895154e-04  -2.2137415e-04  -5.5676041e-04  -1.3247211e-03  -3.7301451e-04  -6.5710361e-04  -4.8626443e-05  -9.0304844e-04  -9.4183366e-04  -3.4555033e-04  -3.8912965e-04  -6.3974824e-04  -4.8084088e-04  -3.7082100e-05  -7.3933392e-04   1.0841791e-04  -3.4637499e-04  -1.3753031e-03  -1.5187509e-03  -9.5221458e-04  -2.2457499e-04  -7.5774424e-04  -9.9868025e-04   1.6037781e-03   1.4745117e-03  -1.8877416e-05  -1.0728850e-03
  -2.2613889e-04   1.5575833e-05  -1.5618700e-04  -4.9863674e-04  -7.9331847e-05  -1.2298000e-04  -3.8325254e-04  -2.1940540e-04  -8.2601960e-05  -1.1961277e-03  -1.1203842e-03  -1.3980622e-03  -4.2251684e-04  -1.1666960e-03   3.2947399e-04  -6.5573124e-04  -3.1946722e-04  -1.5785651e-04  -6.3383149e-04  -8.2799164e-04  -6.2970980e-04  -1.7340419e-04  -7.4594311e-05  -5.2331807e-04  -2.3313754e-04  -5.1694061e-04  -1.3141679e-03  -3.4311344e-04  -4.1641018e-04  -7.9539204e-06  -7.7960460e-04  -8.9217408e-04  -3.0971924e-04  -3.8832653e-04  -6.5077341e-04  -5.2907015e-04  -1.0324946e-04  -8.1655849e-04  -2.6735601e-05  -3.9029095e-04  -1.2845643e-03  -1.5588690e-03  -6.2355777e-04  -7.6816429e-04  -8.3874102e-04  -8.8522211e-04   1.6125352e-03   9.5462042e-04  -1.9768883e-04  -1.7521825e-03
  -1.9669964e-04  -8.2134909e-05  -2.4684722e-04  -5.2762183e-04  -1.1096742e-04  -2.6445865e-04  -4.7634571e-04  -1.8541992e-04  -3.8359972e-04  -1.4028741e-03  -1.2805957e-03  -1.5362148e-03  -5.3430680e-04  -1.1261876e-03   2.4608482e-04  -5.6428538e-04  -3.1372556e-04  -1.6449664e-04  -8.3514198e-04  -9.1253582e-04  -6.8542390e-04  -2.1847025e-04  -2.6061950e-04  -6.2601891e-04  -2.2268809e-04  -5.8251084e-04  -1.3791020e-03  -3.3929962e-04  -5.4815621e-04  -1.1677239e-04  -8.4740965e-04  -9.6444809e-04  -2.0659977e-04  -4.7229786e-04  -6.6522625e-04  -4.4350454e-04  -3.3794213e-04  -7.8089751e-04  -6.2639061e-05  -3.6714447e-04  -1.2426507e-03  -1.5595154e-03  -1.2710812e-03  -2.9858830e-04  -9.7832340e-04  -1.1495284e-03   1.5514699e-03   1.2424774e-03   1.0814874e-04  -8.2428748e-04
  -9.4274765e-05  -1.9211266e-05  -1.7910809e-04  -4.9277698e-04  -9.0701098e-05  -1.9252046e-04  -3.3582561e-04  -3.9428004e-04   3.0249184e-05  -1.1147660e-03  -1.0959445e-03  -1.3305561e-03  -4.1762291e-04  -1.0707158e-03   4.5288683e-04  -5.8812479e-04  -2.6304595e-04  -1.5242175e-04  -4.5393934e-04  -7.7287335e-04  -6.1602663e-04  -1.2231496e-04  -9.3091774e-05  -4.0123161e-04  -1.4487302e-04  -3.6207336e-04  -1.2740939e-03  -3.3251825e-04  -5.5248040e-04  -2.9915040e-05  -8.0607203e-04  -8.9812488e-04  -2.4484115e-04  -3.3071710e-04  -5.5668125e-04  -3.9971631e-04  -4.7074536e-05  -7.2718400e-04   5.5331664e-05  -4.5978479e-04  -1.0259708e-03  -1.3938264e-03  -5.3405366e-04   1.1520013e-04  -8.0412219e-04  -1.1085250e-03   1.7053946e-03   2.0857237e-03  -3.5734591e-04  -3.8212715e-04
  -2.7217055e-04  -1.4250566e-05  -1.3749025e-04  -4.4867367e-04  -7.2181341e-05  -5.8309943e-05  -3.3340862e-04  -2.4737278e-04  -1.2301331e-04  -1.2654653e-03  -1.1642954e-03  -1.4352612e-03  -4.2598339e-04  -1.0109853e-03   3.1610290e-04  -6.1965251e-04  -2.2612217e-04  -1.7198749e-04  -5.4913963e-04  -7.6922524e-04  -6.5057358e-04  -1.8983842e-04  -1.7482444e-04  -4.1765402e-04  -1.7471297e-04  -5.0467887e-04  -1.2617175e-03  -3.2386300e-04  -4.2083074e-04  -7.2004700e-06  -7.9616829e-04  -9.1473066e-04  -4.0815648e-04  -3.9029351e-04  -5.7981105e-04  -3.6552435e-04  -1.0935781e-04  -7.3518883e-04   5.2398758e-05  -3.4436080e-04  -1.0569138e-03  -1.4281163e-03  -8.5676258e-04  -4.3268612e-04  -8.4074953e-04  -8.1746886e-04   1.6867868e-03   1.3642468e-03  -6.2155881e-04  -8.5884203e-05
  -2.2278122e-04  -1.5467172e-04  -1.9801858e-04  -5.3278374e-04  -1.5624540e-04  -2.0080860e-04  -4.3443064e-04  -2.9562003e-04  -2.5005074e-04  -1.3791877e-03  -1.3385034e-03  -1.5171143e-03  -4.7620476e-04  -9.6156565e-04   2.5027475e-04  -4.8322551e-04  -2.6545415e-04  -1.6989502e-04  -6.0053857e-04  -8.3005091e-04  -6.8928272e-04  -2.0167594e-04  -1.5543211e-04  -5.9529062e-04  -1.1946219e-04  -4.3692751e-04  -1.3067914e-03  -3.1844841e-04  -5.0772191e-04   2.9526456e-05  -7.8474637e-04  -8.6539006e-04  -2.1181622e-04  -3.5261226e-04  -5.3348712e-04  -4.5473973e-04  -2.0320751e-04  -6.9673872e-04   1.1358748e-06  -5.0598261e-04  -9.1255340e-04  -1.3838356e-03  -7.0946803e-04  -7.2649296e-04  -7.9164800e-04  -7.3023938e-04   1.6926615e-03   1.3559918e-03   2.5184939e-04  -6.5396729e-05
  -1.3599056e-04  -9.5799787e-06  -1.4774853e-04  -4.1753257e-04  -9.4663585e-05  -3.5066172e-05  -2.7719542e-04  -1.5758131e-04   2.7941656e-05  -1.1387857e-03  -1.1063466e-03  -1.3653641e-03  -4.3681351e-04  -9.4957324e-04   3.9488438e-04  -5.1208766e-04  -1.3095664e-04  -1.3318230e-04  -5.6691759e-04  -6.9383852e-04  -6.1981252e-04  -1.4967912e-04  -2.8488355e-05  -4.7820053e-04  -1.6017747e-04  -3.6312707e-04  -1.1273175e-03  -3.0270329e-04  -4.0175769e-04   1.4573886e-04  -7.4702338e-04  -8.6073962e-04  -2.2471132e-04  -3.2068993e-04  -5.0445402e-04  -1.9860145e-04  -2.9894063e-04  -6.1481702e-04   1.4939574e-04  -2.2523895e-04  -9.2974358e-04  -1.3649958e-03  -9.2297874e-04  -2.4893772e-04  -8.4589765e-04  -5.8172247e-04   1.6470036e-03   1.0628274e-03  -4.2172629e-04  -1.2807943e-03
  -1.9046989e-04  -8.0374295e-05  -1.7874244e-04  -4.4321065e-04  -7.2916242e-05  -1.3534809e-04  -3.7893761e-04  -1.3867776e-04  -9.0809954e-05  -1.3172998e-03  -1.2323317e-03  -1.4572412e-03  -4.1847897e-04  -9.7294751e-04   4.8722333e-04  -4.8046114e-04  -2.0991164e-04  -1.3044802e-04  -5.4566347e-04  -7.0928800e-04  -6.5633119e-04  -1.9462430e-04  -2.0401074e-04  -4.7645581e-04  -1.9635954e-04  -4.5119968e-04  -1.0528426e-03  -2.8652736e-04  -4.3812642e-04   3.7005993e-05  -8.1348902e-04  -9.0756197e-04  -3.0307518e-04  -3.7338794e-04  -5.1124406e-04  -4.9669581e-04  -1.2207896e-04  -6.1954639e-04   2.2625260e-05  -4.5459415e-04  -1.0988424e-03  -1.5080946e-03  -1.1569196e-03   2.0580845e-04  -9.1083877e-04  -8.2040508e-04   1.6638251e-03   1.4308901e-03  -2.9305380e-04   4.7457847e-04
  -2.5182750e-04  -1.1215918e-04  -2.3619352e-04  -4.5332516e-04  -5.1979099e-05  -5.1472900e-05  -3.3083849e-04  -1.0172173e-04   6.6001725e-05  -1.1500194e-03  -1.1349914e-03  -1.3203041e-03  -3.7445957e-04  -1.0121099e-03   3.0553530e-04  -4.7368469e-04  -2.2943020e-04  -1.2532099e-04  -4.3427543e-04  -6.8257254e-04  -6.4944493e-04  -1.3988862e-04  -1.4162158e-04  -4.5088530e-04  -1.6614789e-04  -3.9114436e-04  -1.2379462e-03  -3.2345197e-04  -1.9339232e-04   7.3361181e-05  -8.4728136e-04  -8.5186277e-04  -3.7162108e-04  -3.0976249e-04  -3.7640787e-04  -4.0847773e-04   4.0535066e-05  -6.8555103e-04   1.6415262e-04  -1.7493876e-04  -1.0490139e-03  -1.3396780e-03  -5.9972209e-04   2.2553386e-04  -6.6706474e-04  -6.3426903e-04   1.7341349e-03   7.4171019e-04  -3.7485830e-04  -4.4455839e-04
  -1.8119859e-04  -1.7194616e-05  -1.7158582e-04  -3.9315631e-04  -5.9313530e-05  -1.3148052e-05  -1.9511036e-04  -1.4585468e-04   7.6269986e-05  -1.1237803e-03  -1.0701296e-03  -1.2927538e-03  -3.6584274e-04  -9.6163916e-04   4.2707694e-04  -3.6304264e-04  -1.7413315e-04  -1.3437470e-04  -5.1083619e-04  -6.1027089e-04  -6.3261919e-04  -1.2792031e-04  -9.7837961e-05  -3.7079377e-04  -1.2588015e-04  -4.5848786e-04  -1.1771927e-03  -3.1646207e-04  -2.9989934e-04   1.0550294e-04  -8.2390499e-04  -8.8076381e-04  -1.7683393e-04  -3.3068605e-04  -4.3450607e-04  -3.6548794e-04  -1.8134674e-04  -6.1619969e-04   9.7872136e-05  -3.0935206e-04  -8.8083558e-04  -1.3377737e-03   6.1410101e-05   2.9594978e-04  -7.8288757e-04  -7.4758235e-04   1.7780844e-03   1.7846787e-03   2.4616835e-04  -7.6707359e-04
  -1.3631980e-04  -1.3898153e-04  -2.1812640e-04  -4.2109485e-04  -1.0724941e-04  -1.0722877e-04  -2.4269376e-04  -2.7090848e-05  -1.0037314e-04  -1.3363325e-03  -1.2564576e-03  -1.4505079e-03  -4.8510340e-04  -9.9386065e-04   3.4066144e-04  -4.1867100e-04  -1.9089752e-04  -1.4033468e-04  -5.5232708e-04  -7.1729341e-04  -7.0252240e-04  -1.7530292e-04  -1.8757090e-04  -4.9592665e-04  -1.1746031e-04  -5.3419283e-04  -1.1906011e-03  -2.7318951e-04  -3.5699585e-04   5.1463066e-05  -8.5182057e-04  -8.3241699e-04  -2.2917437e-04  -4.5985784e-04  -5.1000487e-04  -4.0821842e-04  -8.8477618e-06  -6.6203938e-04   9.5562551e-05  -4.5629902e-04  -1.2459769e-03  -1.4026501e-03   1.5482538e-04  -3.4063609e-04  -8.6463912e-04  -4.9626955e-04   1.6626082e-03   8.9545629e-04   1.1796407e-04  -2.0537931e-04
  -1.5047389e-04  -9.4786155e-05  -2.6756353e-04  -4.2714222e-04  -9.2812523e-05  -4.2892483e-05  -2.4137707e-04  -4.8699985e-05   1.8102305e-04  -1.0826027e-03  -1.1170299e-03  -1.2824968e-03  -4.4525694e-04  -9.1576151e-04   4.2645936e-04  -4.0891010e-04  -1.6488816e-04  -1.0961528e-04  -4.5884526e-04  -6.5604236e-04  -6.6218374e-04  -1.3429562e-04  -1.0736410e-04  -4.2782931e-04  -1.6388594e-04  -4.7772689e-04  -1.1530110e-03  -2.8275498e-04  -2.4765646e-04   1.3153393e-04  -8.2604325e-04  -8.3434663e-04  -1.8409899e-04  -3.2835588e-04  -3.5922541e-04  -3.5666020e-04  -2.1399092e-04  -6.1575655e-04   8.4671970e-05  -3.0984715e-04  -9.0312061e-04  -1.2510271e-03  -6.0905545e-04  -2.7345261e-04  -6.2742381e-04  -6.9545390e-04   1.7487642e-03   6.0103007e-04   4.2205138e-05  -1.4611478e-03
  -2.9194492e-04  -6.5247768e-05  -2.3885764e-04  -3.7645618e-04  -7.3101801e-05   1.3097892e-04  -1.9747159e-04  -6.6932800e-05   1.1323826e-04  -1.1375711e-03  -1.1131758e-03  -1.3089738e-03  -4.5168796e-04  -9.4336394e-04   4.6783709e-04  -4.2214477e-04  -1.2812068e-04  -1.1193490e-04  -3.9001566e-04  -6.1934831e-04  -6.8019039e-04  -1.6683310e-04  -1.9862501e-04  -4.4524690e-04  -1.2429674e-04  -4.9093534e-04  -1.1724603e-03  -2.7310691e-04  -3.1140019e-04   1.0621140e-04  -8.4521557e-04  -8.3368790e-04  -4.1719008e-04  -3.2947579e-04  -4.1460240e-04  -3.7653439e-04  -1.1856227e-04  -5.5772375e-04   1.1547032e-04  -3.7496298e-04  -8.9020637e-04  -1.3038507e-03  -3.1843857e-04  -3.3224921e-04  -7.6684792e-04  -5.0227338e-04   1.6398832e-03   9.4445189e-04  -1.6997698e-04  -5.1913009e-04
  -3.5050683e-04  -2.1956011e-04  -2.7261840e-04  -4.8431987e-04  -1.2888364e-04  -1.2249434e-04  -3.0513608e-04  -6.5592219e-05  -2.0578227e-04  -1.3858896e-03  -1.3309340e-03  -1.5104188e-03  -5.9980690e-04  -8.9744246e-04   3.7467523e-04  -3.7874916e-04  -1.4979730e-04  -1.4627962e-04  -5.9749669e-04  -7.6844415e-04  -7.6420221e-04  -2.3198767e-04  -2.6590913e-04  -4.6624837e-04  -1.4706540e-04  -6.6403527e-04  -1.2154842e-03  -2.7516132e-04  -1.5769733e-04   6.8254126e-06  -8.2503911e-04  -9.2523202e-04  -2.1870676e-04  -4.8351727e-04  -4.3702874e-04  -5.3728180e-04  -1.6657052e-04  -6.0422998e-04   1.3739415e-04  -2.9633191e-04  -1.1376569e-03  -1.2991633e-03  -7.3124346e-04  -2.8271147e-04  -8.5533044e-04  -6.1188196e-04   1.6533022e-03   1.8383297e-03   5.4880325e-04  -8.2536496e-04
  -4.2106357e-04  -2.0427983e-04  -2.8302395e-04  -5.4771284e-04  -2.4169820e-04  -4.2849524e-06  -2.1155953e-04   3.0314592e-05   2.1694883e-04  -1.1171639e-03  -1.1583035e-03  -1.4772277e-03  -6.8226713e-04  -5.4744794e-04   4.1245171e-04  -3.6110790e-04   3.2592975e-04  -1.7488583e-04  -2.8193893e-04  -7.7535771e-04  -7.2536891e-04  -2.1504356e-04  -3.2624829e-04  -5.2268052e-04   2.2388520e-04  -3.5764606e-04  -8.2175306e-04  -2.8917362e-04  -5.1713671e-04   1.4978979e-04  -3.5199407e-04  -8.3367474e-04  -4.2315782e-04  -2.7533941e-04  -4.7458379e-04  -1.9507032e-04   9.6867872e-05  -6.8329828e-04   3.2328823e-04  -2.3450410e-04  -1.0806096e-03  -1.0804145e-03   1.8102959e-04   3.5615356e-04  -7.0669019e-04   2.5414406e-06   1.6577787e-03   1.1020118e-03   1.4329625e-04   1.4718614e-03
  -8.1312325e-04  -3.3532019e-04  -4.1075144e-04  -6.5260538e-04  -3.6604670e-04  -1.1006433e-04  -1.4422552e-04   1.1507069e-04   3.5071513e-05  -1.2803227e-03  -1.3431925e-03  -1.6692062e-03  -8.6088706e-04  -4.2187260e-04   6.4788986e-04  -1.9160219e-04   1.2490542e-04  -8.4186009e-05  -4.0432977e-04  -7.8449136e-04  -5.7452044e-04  -2.0003530e-04  -3.3061000e-04  -4.6383071e-04   3.0100346e-04  -5.6500523e-04  -7.0392579e-04  -2.1587084e-06  -2.1034444e-04   1.2885107e-04  -9.5190760e-04  -1.0178349e-03  -4.2837104e-04  -4.4643911e-04  -3.5513734e-04  -7.4515626e-04  -2.1513604e-04  -6.2647095e-04   2.0042391e-04  -3.2251340e-04  -1.4108572e-03  -1.6814430e-03  -6.7946804e-04  -1.5542420e-04  -6.8780436e-04  -1.4496766e-04   1.4240678e-03   1.0834690e-03   6.7699834e-04   7.5220159e-04
  -8.1910979e-04  -5.3408334e-04  -5.3878262e-04  -7.7222753e-04  -4.2614291e-04  -2.8321214e-04  -3.3535148e-04   1.9670965e-06  -2.6419689e-04  -1.6831831e-03  -1.5847902e-03  -1.8999726e-03  -1.0136230e-03  -4.6501809e-04   5.5642991e-04  -2.3604809e-04   1.9033546e-04  -1.4289573e-04  -4.8634605e-04  -1.0409083e-03  -6.3748204e-04  -3.1902318e-04  -5.6398835e-04  -6.9463701e-04   3.0224887e-04  -7.5120287e-04  -6.2584167e-04  -7.0543123e-05  -2.3461093e-06   1.1927637e-04  -6.7054178e-04  -1.0974330e-03  -4.8599235e-04  -4.2053705e-04  -3.1334747e-04  -6.0545508e-04  -6.3404324e-05  -6.4929645e-04   1.1748172e-04  -2.2483943e-04  -1.2877599e-03  -1.6449054e-03  -7.8338897e-04  -1.3147935e-04  -7.0969947e-04  -1.9562565e-04   1.4631831e-03   2.7064863e-03   5.1848294e-04   4.8762676e-04
  -9.3082205e-04  -4.7584367e-04  -5.4546847e-04  -8.1430090e-04  -4.5998915e-04  -1.5879914e-04  -2.1842716e-04   6.8239104e-05  -3.1479118e-05  -1.3232797e-03  -1.2885771e-03  -1.6889655e-03  -1.0868404e-03  -2.3540502e-04   7.0885761e-04  -1.8272134e-04   5.4687611e-04  -8.5179621e-05  -4.1385568e-04  -1.0210429e-03  -5.8986619e-04  -3.0271945e-04  -4.4566777e-04  -4.9692200e-04   4.5746774e-04  -6.3764933e-04  -4.9575832e-04  -3.0016929e-05  -2.1260406e-05   1.6339945e-04  -5.4996909e-04  -9.7557442e-04  -3.2394938e-04  -3.3461404e-04  -2.5664212e-04  -5.5515760e-04  -5.9365335e-05  -6.5013429e-04   3.3051925e-04  -1.0219840e-05  -9.9270430e-04  -1.3002030e-03  -4.7570234e-04   2.7412747e-04  -6.9810858e-04  -1.6481784e-04   1.7191771e-03   2.3634809e-03   4.6089379e-04   4.4772713e-04
  -1.1318881e-03  -6.1448460e-04  -5.0674641e-04  -8.9520536e-04  -5.6229351e-04  -2.0433839e-04  -1.7855481e-04  -1.5517506e-05  -2.3720022e-05  -1.4448714e-03  -1.3328368e-03  -1.5097422e-03  -1.2505359e-03  -3.7760934e-04   4.6104504e-04  -2.1178139e-04   4.2761923e-04  -6.0535069e-05  -4.6109653e-04  -1.0164517e-03  -6.7063677e-04  -4.3355650e-04  -5.0302589e-04  -3.8822208e-04   4.7789808e-04  -6.0922978e-04  -6.8057532e-04  -1.6487812e-04  -5.5856719e-05   9.8027172e-05  -3.0780691e-04  -8.4408629e-04  -6.4600242e-04  -3.6280762e-04  -3.7181543e-04  -4.8487054e-04  -1.8388081e-04  -6.2513573e-04   2.6359007e-04  -1.9721071e-04  -9.3229383e-04  -1.0696192e-03  -1.8639259e-04  -1.0747172e-05  -7.8533415e-04  -4.7482830e-04   1.7128385e-03   1.4450101e-03   2.8969569e-04   2.1683062e-04
  -1.1623893e-03  -7.3958922e-04  -6.0705352e-04  -9.6693775e-04  -5.7527237e-04  -1.8755590e-04  -3.3097481e-04   1.2248913e-04   1.9204683e-06  -1.3730690e-03  -1.3027110e-03  -1.5230486e-03  -1.3038527e-03  -3.3268769e-04   3.9488211e-04  -3.1821732e-04   4.2566779e-04   1.9801391e-05  -4.8587139e-04  -1.0376633e-03  -6.8952085e-04  -5.9143431e-04  -5.5465545e-04  -5.5737176e-04   6.7652325e-04  -6.1690866e-04  -6.3038216e-04  -1.3012250e-04  -1.6909844e-04   9.1574715e-05  -1.5067882e-04  -6.7609589e-04  -2.0371558e-04  -3.9309519e-04  -2.8188431e-04  -5.2508828e-04  -1.1576242e-04  -6.8775058e-04   3.6423132e-04  -3.6604100e-04  -2.5348505e-04  -8.8249863e-04   4.6153940e-04   1.8873383e-04  -8.1162743e-04  -3.0995614e-04   2.0692011e-03   1.8698076e-03   5.0115172e-04   2.4534243e-03
  -1.1157785e-03  -6.5126427e-04  -5.7596667e-04  -9.1901066e-04  -6.6751894e-04  -1.3883311e-04  -2.2000184e-04   1.2420131e-04  -4.6057430e-05  -1.3988853e-03  -1.2170216e-03  -1.7371660e-03  -1.3207168e-03   3.6969566e-05   5.2746420e-04  -3.9020443e-04   8.5031643e-04   1.6705175e-07  -3.6854696e-04  -1.1078574e-03  -7.7259005e-04  -7.7007071e-04  -6.9005508e-04  -7.2933250e-04   1.2397831e-03  -3.0138536e-04  -5.2747998e-04  -2.7224713e-04  -5.6874997e-04   2.2426678e-04   7.0959807e-04  -5.4763467e-04  -6.3564832e-04  -2.1419011e-04  -2.9065524e-04  -8.0216909e-05  -1.0986408e-04  -7.2834617e-04   3.5813396e-04  -2.0057554e-04   8.0498547e-05  -5.6172849e-04   2.3710476e-04   3.9637130e-04  -8.9570193e-04   2.3099718e-04   1.9912231e-03   1.3496194e-03   5.1635312e-04   1.7334698e-03
  -1.5139038e-03  -8.9650927e-04  -7.0469617e-04  -1.1069562e-03  -7.8475976e-04  -3.2536054e-04  -3.4062646e-04  -7.9420970e-06  -3.8482057e-04  -1.6411898e-03  -1.4664264e-03  -1.9861138e-03  -1.5675483e-03   2.2751543e-04   8.8681554e-04  -1.9813862e-05   8.0341275e-04   7.0700236e-04  -5.8441685e-04  -1.1489841e-03  -7.8776642e-04  -9.5525797e-04  -7.0523424e-04  -7.1983400e-04   1.5505360e-03  -6.6973228e-04   2.2501744e-04   3.4685602e-04   6.6449406e-04  -2.6534460e-06   6.1074173e-04   1.7048324e-04  -6.8400969e-04  -1.5571028e-04  -1.0449478e-04  -7.9451263e-04  -1.8689971e-04  -7.7839788e-05   1.3780275e-04  -4.0308211e-04  -5.8762630e-04  -8.0099911e-04  -3.9111363e-04  -9.6448301e-04  -7.4748613e-04   1.1233953e-04   2.0763110e-03   1.6009065e-03   5.3086944e-05  -1.0775365e-04
  -1.3879931e-03  -8.3759130e-04  -4.1111122e-04  -1.0598976e-03  -6.6878751e-04   1.1358328e-04  -2.5817517e-05   5.7761947e-04   3.8551554e-04  -6.2045443e-04  -1.0705476e-03  -1.4413492e-03  -1.6052502e-03   9.8747798e-05   6.7977409e-04   1.7354492e-04   6.5116986e-04   2.2171424e-03  -6.7043857e-04  -7.8631233e-04  -7.7571906e-04  -1.2265635e-03  -3.7355395e-04   2.4033702e-04   1.9451194e-03  -6.0296472e-04   5.3774461e-04   7.3511928e-04   1.1291105e-03  -3.6440723e-04   1.5120690e-03   1.3155933e-03  -6.5758865e-04  -1.7382103e-04  -8.9387519e-05  -7.0559426e-04  -2.6919774e-04   1.6292829e-04  -2.0481642e-05  -2.8959502e-04  -1.2676629e-05   5.8519137e-05   9.9387881e-04  -5.7703874e-05  -4.1783400e-04   7.1612524e-04   3.0719610e-03   3.0155205e-03   1.4803808e-03   1.6879059e-03
  -1.4225866e-03  -9.4938272e-04  -2.6445312e-04  -1.1284277e-03  -6.7572325e-04   2.1877718e-04   1.5694210e-04   6.3162600e-04   4.0250013e-04  -4.5394048e-04  -1.2139784e-03  -1.6939549e-03  -1.7361876e-03  -8.3275008e-05   5.7780877e-04   3.8429303e-04   3.2563103e-04   2.7046402e-03  -6.6504325e-04  -6.2647468e-04  -7.2801352e-04  -1.3180107e-03  -4.1033662e-04   6.1499554e-04   1.9842903e-03  -9.8640611e-04   3.9435938e-04   8.5384381e-04   1.0631006e-03  -6.2265439e-04   1.3179581e-03   1.2856435e-03  -7.4479193e-04  -2.8131160e-04  -1.4255609e-04  -6.4415741e-04  -2.9710264e-04   6.0851929e-05  -7.7104953e-05  -3.2688509e-04   7.0238730e-04   7.5845676e-04   2.6353141e-03   5.0931969e-05  -2.4570295e-04   9.6244051e-04   3.8643365e-03   1.4800953e-03   1.4413273e-03   9.2900661e-04
  -1.4630506e-03  -1.0015541e-03  -2.9660255e-04  -1.2463229e-03  -6.9548341e-04   2.1045335e-04   2.0802340e-04   5.2732747e-04   9.3307241e-04  -2.0290355e-04  -1.0522363e-03  -1.6218706e-03  -1.7096720e-03  -3.6725734e-04   3.3967075e-04   2.3338957e-04   1.0816558e-04   2.7372104e-03  -6.5840629e-04  -5.3744565e-04  -6.6721550e-04  -1.1954838e-03  -2.2951502e-04   8.9411711e-04   1.9324501e-03  -6.5523008e-04  -3.1536911e-05   7.5347483e-04   8.7823783e-04  -6.2633865e-04   1.0990391e-03   1.3035076e-03  -1.0168848e-03  -2.6208151e-04  -1.0797678e-04  -4.8801035e-04  -2.0702781e-04  -5.9003401e-06   1.0285843e-04  -8.0269594e-05   9.1439585e-04   1.1206566e-03   1.8125842e-03   4.4530592e-04   2.2180555e-04   1.0881354e-03   4.3045157e-03   2.6033767e-03   1.8381387e-03   1.0101500e-03
  -1.5217920e-03  -9.4190985e-04  -3.9730381e-04  -1.2220478e-03  -7.3025189e-04   2.2427802e-04   1.9295551e-04   6.4083119e-04   7.9733587e-04  -2.1092442e-04  -9.4161346e-04  -1.5233515e-03  -1.6188280e-03  -5.7917146e-04   4.3898870e-04   2.5039847e-04  -1.4550200e-04   2.5069150e-03  -5.0824834e-04  -4.3647300e-04  -5.7790411e-04  -1.1212316e-03  -8.4271313e-05   8.5584848e-04   1.6909169e-03  -5.9201237e-04  -1.7818072e-04   6.9847610e-04   3.6540569e-04  -6.4152334e-04   6.5853162e-04   9.8287209e-04  -1.1555473e-03  -3.0164394e-04  -1.9725983e-04  -5.2329013e-04  -1.0543731e-04  -9.6642914e-05   1.7008813e-04  -6.8576046e-05   8.6433161e-04   1.2153565e-03   1.4975307e-03   2.9503676e-04   2.3379562e-04   1.0144593e-03   4.2350418e-03   2.5071264e-03   1.3206063e-03   3.1875218e-03
  -1.5716730e-03  -1.0264240e-03  -5.3262239e-04  -1.2873651e-03  -8.2963397e-04   6.0960068e-05   9.3458228e-05   4.4486381e-04   7.4257870e-04  -4.3042860e-04  -1.0665384e-03  -1.5809264e-03  -1.6517248e-03  -7.6988357e-04   3.0425729e-04   9.4670148e-05  -3.6965232e-04   2.0132179e-03  -6.0160714e-04  -4.9549120e-04  -5.7031034e-04  -1.0664678e-03  -3.7928075e-05   7.8798441e-04   1.7685698e-03  -6.2558556e-04  -4.8337772e-04   5.3692370e-04   3.1249755e-04  -6.1191997e-04   3.7192172e-04   6.7628798e-04  -1.1435349e-03  -2.5304599e-04  -1.7981278e-04  -4.9207505e-04  -7.8928213e-05  -1.6983440e-04   2.3789337e-04  -1.0688961e-04   9.5317746e-04   1.1861027e-03   1.8310230e-03   5.0054956e-04   1.9163964e-04   1.3791147e-03   4.3059634e-03   2.0250680e-03   2.4395315e-03   2.1032637e-03
  -1.6364215e-03  -8.7202952e-04  -4.2433653e-04  -1.1899080e-03  -8.8718702e-04   9.9194309e-05   1.5714136e-04   3.3463526e-04   8.6043787e-04  -3.5131129e-04  -7.5529248e-04  -1.6169172e-03  -1.6348730e-03  -4.1228288e-04   4.2043315e-04  -1.4278037e-04  -2.9024650e-05   1.7890873e-03  -5.3240068e-04  -5.3663866e-04  -5.2699959e-04  -1.0288402e-03  -9.4352989e-05   7.8290852e-04   1.9029857e-03  -3.2867293e-04  -4.2930542e-04   4.7043094e-04   2.5210137e-04  -4.5136147e-04   7.5010210e-04   6.6863722e-04  -1.0745866e-03  -2.8131291e-04  -1.9925987e-04  -1.3158766e-04  -1.9555378e-06  -2.7914104e-04   4.7949198e-04  -2.1019242e-04   1.3201075e-03   1.5435920e-03   2.0940020e-03   4.9734215e-04   4.8132369e-04   1.5923232e-03   4.1540018e-03   2.9921869e-03   2.5989322e-03   4.0614074e-03
  -1.7550891e-03  -1.0369469e-03  -4.8430034e-04  -1.3228820e-03  -9.2090073e-04  -3.7389020e-07   9.8489058e-05   4.6647975e-04   6.0041551e-04  -7.2951760e-04  -8.7493355e-04  -1.8077134e-03  -1.7825472e-03   6.7419300e-05   6.4919790e-04  -3.1673029e-05   1.6900401e-04   2.1796299e-03  -5.6062860e-04  -6.6728302e-04  -4.7084151e-04  -1.0258758e-03  -1.3061882e-04   6.4533378e-04   2.2288521e-03  -2.8233198e-04   1.4175508e-04   9.1526553e-04   6.0845952e-04  -4.6387772e-04   9.3264243e-04   8.7982678e-04  -1.1486562e-03  -2.1057685e-04  -1.2806914e-04  -7.1858289e-04  -2.4757665e-04  -1.6237014e-05   2.9562498e-04  -2.8400029e-05   1.5265944e-04   6.0354930e-04   1.8055316e-03   4.4593320e-04   6.2294194e-04   1.6962562e-03   3.6475053e-03   3.9580604e-03   2.0104372e-03   2.5303590e-03
  -1.7797509e-03  -9.9630922e-04  -5.8669184e-04  -1.3467259e-03  -8.2433684e-04   6.7957503e-06   7.9457248e-05   4.7975659e-04   1.0867594e-03   2.4989009e-05  -5.4186932e-04  -9.6802093e-04  -1.6051608e-03   7.8099758e-05   7.4103405e-04   2.1150849e-04   2.1167503e-05   3.2249116e-03  -7.0302247e-04  -3.1462958e-04  -1.7664743e-04  -8.6137938e-04   1.5794041e-04   1.3498000e-03   2.2031043e-03  -4.2089733e-04   6.9085514e-04   1.3719620e-03   1.5745332e-03  -6.7823834e-04   7.7747286e-04   1.4011343e-03  -9.0436335e-04  -1.7042752e-04  -1.0169380e-04  -8.5107144e-04  -3.5258021e-05   2.4533237e-04   5.7840745e-05   1.9310300e-04  -1.9171870e-04   3.5103509e-04   1.3088917e-03  -1.0984660e-03   4.6033508e-04   1.0096666e-03   3.5068174e-03   3.9749444e-03   2.0201178e-03   2.5194630e-03
  -1.3524485e-03  -8.9324231e-04  -3.4023676e-04  -1.2390591e-03  -6.6821836e-04   2.1709298e-04   2.8488218e-04   3.2267356e-04   1.3517434e-03   2.2057525e-04  -5.5282121e-04  -6.9032266e-04  -1.3798625e-03  -3.9710911e-04   4.8043422e-04   2.2237291e-04  -3.5340892e-04   2.8120745e-03  -5.9470121e-04  -1.2652823e-04  -1.6699922e-04  -8.6543558e-04   1.7243596e-04   1.7469580e-03   1.7540449e-03  -5.2066648e-04  -1.8471221e-05   8.2100224e-04   7.6681422e-04  -7.8362948e-04   5.1436760e-04   1.0730892e-03  -9.4109902e-04  -2.6904873e-04  -1.5219540e-04  -6.8838458e-04  -1.9888286e-04  -4.4458822e-05   1.9501775e-04   7.4411982e-05   5.8591855e-04   1.0727418e-03   1.4711986e-03   7.9045439e-04   3.9286716e-04   1.4342287e-03   3.9068395e-03   3.6381360e-03   2.5171055e-03   2.9878963e-03
  -1.5275590e-03  -9.8559842e-04  -4.3189267e-04  -1.3139028e-03  -8.2037173e-04   1.0570655e-04   1.6268186e-04   2.7223243e-04   1.0504950e-03  -8.7435139e-05  -6.5568247e-04  -9.4270241e-04  -1.4945974e-03  -5.6962768e-04   3.4042849e-04   3.8282094e-05  -5.3619256e-04   2.0631978e-03  -5.6320510e-04  -1.9773110e-04  -2.1939579e-04  -8.2454347e-04   3.4542597e-04   1.5344598e-03   1.6012887e-03  -3.5894208e-04  -4.2929186e-04   5.4284849e-04   4.2921462e-04  -7.3085743e-04   2.6648707e-04   7.3818892e-04  -1.2596394e-03  -2.6214501e-04  -2.8408680e-04  -4.4956058e-04  -1.6527597e-04  -1.9938656e-04   2.6885141e-04   8.0610465e-05   6.3487462e-04   1.3218344e-03   1.9169693e-03   2.6218037e-04   5.2533095e-04   1.5563344e-03   4.0044300e-03   3.7358105e-03   2.3205441e-03   3.0829306e-03
  -1.5251864e-03  -8.1481627e-04  -4.7134983e-04  -1.1929990e-03  -7.9320045e-04   1.4563274e-04   2.6116482e-04   4.7346976e-04   1.1789597e-03   1.9325951e-05  -3.7721448e-04  -8.5467770e-04  -1.3031814e-03  -5.8411586e-04   3.3714983e-04  -1.4269823e-04  -6.6618429e-04   1.7284068e-03  -4.4989947e-04  -1.1178367e-04  -9.7359589e-05  -7.0855103e-04   3.8494542e-04   1.4305157e-03   1.5339373e-03  -3.3770010e-04  -6.5150770e-04   4.5798183e-04   2.2967557e-04  -6.2690873e-04  -7.5859884e-05   5.6976167e-04  -1.2821561e-03  -2.8774419e-04  -2.7669396e-04  -3.6740635e-04  -6.6487934e-05  -2.1743996e-04   3.2694737e-04   1.0282818e-04   2.5542878e-04   1.1338643e-03   1.6045052e-03  -7.5537813e-05   6.0481019e-04   1.4602673e-03   3.6740240e-03   3.8696204e-03   2.5357269e-03   2.3483422e-03
  -1.5262795e-03  -8.4746978e-04  -5.1410036e-04  -1.2023939e-03  -8.0257456e-04   9.2069960e-05   1.6959441e-04   5.3467986e-04   1.0790906e-03  -2.4305156e-04  -4.6105342e-04  -9.6357468e-04  -1.2933176e-03  -6.3020387e-04   4.0634946e-04  -1.7891848e-04  -8.1140752e-04   1.4610693e-03  -4.5828236e-04  -2.0679134e-04  -8.0738195e-05  -6.9149473e-04   1.7986447e-04   1.3339256e-03   1.4584925e-03  -3.6198008e-04  -5.8379053e-04   3.5479310e-04   2.1593546e-04  -5.7428022e-04  -2.9793952e-04   3.5662827e-04  -1.1468426e-03  -4.5428210e-04  -3.8594307e-04  -5.2183674e-04  -9.1132744e-05  -2.5383561e-04   2.6914105e-04  -6.1625215e-05   3.8807100e-04   7.2232244e-04   1.8202136e-03   1.8941864e-04   5.7577092e-04   1.2820538e-03   3.3864384e-03   3.9137579e-03   2.6052550e-03   2.3259583e-03
  -1.4227683e-03  -7.1525155e-04  -5.7593617e-04  -1.1517088e-03  -7.4654404e-04   1.0886381e-04   2.0007895e-04   3.0652669e-04   1.4680085e-03   2.4422943e-05  -1.5365522e-04  -6.9245783e-04  -1.1004466e-03  -6.5909803e-04   3.7130082e-04  -2.1060334e-04  -8.7021239e-04   1.3032133e-03  -3.8879560e-04  -1.7698301e-04   6.4322674e-05  -4.7390620e-04   3.1518578e-04   1.4141273e-03   1.3722529e-03  -2.1957658e-04  -8.6632755e-04   2.6812634e-04   1.3633932e-04  -4.8563021e-04  -4.4202732e-04   2.7673756e-04  -9.9131255e-04  -3.5341072e-04  -3.6441226e-04  -4.3217541e-04  -2.4162486e-04  -2.3974266e-04   3.8319654e-04  -1.0650880e-05   3.5113361e-04   8.2741072e-04   1.8140309e-03   5.5764272e-04   6.1372970e-04   1.2691721e-03   3.3820460e-03   3.3921872e-03   2.6322147e-03   2.5434566e-03
  -1.2056417e-03  -6.7301223e-04  -5.5738952e-04  -1.1171575e-03  -6.9346180e-04   8.9978857e-05   1.6050898e-04   2.8349206e-04   1.2896997e-03  -1.2895584e-04  -1.5141710e-04  -6.4435473e-04  -1.0896866e-03  -6.8806595e-04   3.6354497e-04  -2.0814550e-04  -9.7656879e-04   1.2223871e-03  -3.0670743e-04  -2.0748386e-04   1.2874711e-04  -3.6926026e-04   4.1199246e-04   1.3648389e-03   1.3118000e-03  -2.9353061e-04  -8.0489856e-04   2.2954849e-04   1.9213294e-04  -4.8747403e-04  -6.0355751e-04   1.1806619e-04  -1.2021906e-03  -4.5152547e-04  -4.1176201e-04  -4.4491471e-04  -7.1323129e-06  -2.8102758e-04   2.4519593e-04  -1.7300964e-04  -1.1111378e-04   5.1218941e-04   1.6257672e-03  -2.0251413e-04   5.5194326e-04   8.7627908e-04   3.1028099e-03   4.0001073e-03   2.0339955e-03   3.6109665e-03
  -1.2290572e-03  -7.5909361e-04  -5.6155841e-04  -1.1648365e-03  -6.7148719e-04  -5.7629140e-06   6.8933550e-05   1.1483085e-04   1.2959709e-03  -7.9452191e-05  -1.1759818e-04  -5.5548799e-04  -1.0452633e-03  -7.3729263e-04   3.3806812e-04  -2.1995335e-04  -1.0385301e-03   1.1282729e-03  -4.9044890e-04  -2.6940476e-04   1.7810623e-04  -2.9313980e-04   4.8620245e-04   1.1533245e-03   1.3371342e-03  -2.2210863e-04  -8.6010247e-04   1.6929103e-04   4.1365820e-05  -4.6849062e-04  -7.4814021e-04   1.5446343e-04  -1.2160258e-03  -3.2888257e-04  -4.0229943e-04  -5.0253532e-04  -6.7006280e-05  -3.3652259e-04   2.7817689e-04  -1.1749881e-04  -4.6209894e-05   4.0578362e-04   1.8816063e-03   7.0453266e-04   6.0448732e-04   1.0255836e-03   3.0448220e-03   3.3336044e-03   2.4368709e-03   3.9705308e-03
  -1.2205278e-03  -5.3086405e-04  -4.6755440e-04  -1.0227934e-03  -6.4873730e-04   9.9098361e-05   1.3965774e-04   2.0190736e-04   1.4839267e-03   2.1376220e-05   1.2076185e-04  -4.2759470e-04  -9.0095546e-04  -6.8853149e-04   4.4637718e-04  -2.1897999e-04  -9.6792995e-04   1.0850867e-03  -2.7746093e-04  -2.2348983e-04   2.5090881e-04  -1.5030194e-04   5.2395609e-04   1.2445283e-03   1.1922451e-03  -2.2765031e-04  -8.9129864e-04   1.5281345e-04   1.0215941e-04  -3.6098954e-04  -7.4067153e-04   2.9572073e-05  -1.0256388e-03  -4.0503914e-04  -4.0475861e-04  -5.1209657e-04  -2.6873112e-04  -2.9507716e-04   2.7105803e-04  -1.9023057e-04  -9.6270505e-06   2.2706921e-04   1.7430949e-03   2.2887712e-04   5.3252204e-04   1.1453464e-03   2.8223677e-03   3.7952685e-03   3.1281321e-03   2.4477132e-03
  -1.1993756e-03  -6.1270205e-04  -4.7366397e-04  -1.0566820e-03  -6.3906482e-04   1.0017398e-05   1.8469658e-05   7.6738710e-05   1.1552529e-03  -2.7786967e-04  -9.2689108e-05  -6.1753934e-04  -1.0346891e-03  -5.1596970e-04   4.3626569e-04  -1.7827842e-04  -8.9224946e-04   1.0731474e-03  -3.7051708e-04  -3.2870544e-04   2.0862714e-04  -2.3724652e-04   3.6101486e-04   1.0748898e-03   1.3100103e-03  -3.2522104e-04  -6.5143988e-04   2.1530833e-04   1.8592129e-04  -4.8020977e-04  -5.9491216e-04   8.8505891e-05  -1.1665544e-03  -4.6937322e-04  -4.2139023e-04  -6.0900592e-04  -1.2710468e-04  -3.2725162e-04   1.3129947e-04  -3.3445429e-04  -1.2668231e-04   1.5806939e-04   1.1066699e-03   5.8697220e-05   3.8830723e-04   1.2273806e-03   2.7236252e-03   2.5365201e-03   2.4530254e-03   2.2049316e-03
  -1.1440428e-03  -5.2457018e-04  -4.7845021e-04  -1.0165541e-03  -5.9969153e-04   5.0929048e-06   5.4002747e-05   1.6387409e-04   1.4535210e-03   6.0548060e-05   1.7002666e-04  -3.5593280e-04  -9.2984387e-04  -4.5039566e-04   5.7017343e-04  -3.0235664e-04  -8.1269769e-04   1.1467811e-03  -3.4636504e-04  -2.7094377e-04   3.0785086e-04  -9.1380847e-05   3.5838404e-04   1.1566720e-03   1.3575566e-03  -1.0904387e-04  -6.0351228e-04   2.5359134e-04   2.2113287e-04  -4.0627530e-04  -6.5319065e-04   3.6971800e-05  -1.0626017e-03  -4.4974452e-04  -4.2328931e-04  -5.6536199e-04  -1.9213425e-04  -3.1468202e-04   8.3897721e-05  -2.7104237e-04  -3.4438411e-04  -3.0632138e-05   1.0653104e-03  -2.8211024e-04   4.1905613e-04   9.3038293e-04   2.3944529e-03   4.1967295e-03   2.7244673e-03   2.3367086e-03
  -1.0144934e-03  -5.0592463e-04  -4.2711367e-04  -9.8886620e-04  -5.7558541e-04   3.4508186e-05   1.5967242e-05   2.5398863e-04   1.1092485e-03  -1.7603568e-04   9.2447015e-05  -4.1381569e-04  -9.6719258e-04  -4.0215772e-04   4.4670547e-04  -1.8521379e-04  -7.9780334e-04   1.0547378e-03  -2.6802428e-04  -3.1884303e-04   2.8891541e-04  -4.7430105e-05   3.1311257e-04   9.2716113e-04   1.3266342e-03  -1.9910595e-04  -5.7494821e-04   2.3000814e-04   1.8394380e-04  -4.1587080e-04  -7.3551858e-04  -2.5100009e-05  -1.0407559e-03  -5.0705904e-04  -4.8503824e-04  -5.9360475e-04  -3.5013122e-04  -3.8178221e-04   6.8144341e-06  -4.2012343e-04  -5.8919785e-04  -2.0538083e-04   1.0261200e-03   5.2118481e-05   2.1066322e-04   8.6289423e-04   2.1911701e-03   3.4821825e-03   2.5994892e-03   2.1775893e-03
  -1.1142161e-03  -6.2503794e-04  -4.4955453e-04  -1.0668063e-03  -6.1817159e-04  -7.4116942e-05  -7.2425362e-05   7.5643300e-05   9.7453967e-04  -2.5879379e-04   3.0511716e-05  -4.0489278e-04  -9.8560262e-04  -4.1594231e-04   4.5991325e-04  -2.7045302e-04  -8.4200804e-04   9.5394877e-04  -4.5737973e-04  -3.5749629e-04   2.5960532e-04  -7.8876910e-05   3.2321067e-04   8.9829555e-04   1.1701639e-03  -2.6244929e-04  -6.3715252e-04   1.4752772e-04   1.6614859e-04  -3.8288071e-04  -7.6654827e-04  -5.6527209e-05  -1.2332449e-03  -5.0156150e-04  -4.8729955e-04  -5.1999441e-04  -3.1768810e-04  -4.0139197e-04   5.6364628e-05  -4.8240201e-04  -2.9093519e-04  -2.6679307e-04   1.1766050e-03  -3.7289728e-04   2.5216234e-04   8.7203749e-04   2.2565953e-03   2.7447934e-03   2.1787733e-03   1.9820982e-03
  -9.0672774e-04  -4.1442487e-04  -3.1807486e-04  -9.2688488e-04  -5.4044958e-04   6.8305395e-05   8.3998799e-05  -4.2495987e-05   1.1795486e-03  -6.3444299e-05   2.5238207e-04  -2.4097531e-04  -9.0548862e-04  -2.9018742e-04   5.6491193e-04  -2.8270236e-04  -6.9499318e-04   9.3239703e-04  -2.5767638e-04  -2.8392542e-04   3.2680260e-04   1.4188353e-06   3.9873872e-04   8.4547955e-04   1.3103338e-03  -1.4483684e-04  -5.6359428e-04   1.6013764e-04   2.2897319e-04  -3.2471915e-04  -6.2714523e-04  -5.4082317e-05  -8.0002373e-04  -4.0513425e-04  -3.9659248e-04  -5.1291863e-04  -3.8807030e-04  -3.8422769e-04   7.1140603e-05  -3.8877403e-04  -1.0302658e-04  -2.3439601e-04   1.2617616e-03  -2.4447514e-04   1.5840193e-04   1.1848283e-03   2.0487260e-03   2.8643492e-03   1.9993829e-03   1.8781457e-03
  -9.3152100e-04  -5.0308387e-04  -3.7012840e-04  -9.6091238e-04  -5.4953730e-04  -6.5483800e-05  -1.0481075e-04  -8.6548527e-05   8.8289223e-04  -3.3737256e-04   8.6010725e-05  -3.8859085e-04  -9.9579140e-04  -2.7879060e-04   5.1467941e-04  -2.4607946e-04  -7.0800388e-04   9.2037232e-04  -4.3190326e-04  -3.5844682e-04   3.0461972e-04  -7.1640578e-05   4.1239994e-04   8.6756074e-04   1.2269535e-03  -2.6559475e-04  -5.3473585e-04   2.0330690e-04   2.6596221e-05  -3.5062837e-04  -7.9560821e-04  -1.3442810e-04  -1.0043174e-03  -4.8710944e-04  -4.7409130e-04  -7.0129673e-04  -3.7636477e-04  -4.8210286e-04  -2.9151674e-05  -5.7876948e-04  -3.4724784e-04  -4.5628665e-04   5.9942092e-04  -2.5910285e-04   2.0940020e-04   8.7327836e-04   1.9553772e-03   3.1303421e-03   2.1329271e-03   2.3265171e-03
  -9.0376736e-04  -4.0720482e-04  -2.7189171e-04  -9.0966560e-04  -5.3889945e-04  -2.3649880e-05  -1.2202303e-05   9.4196730e-05   1.2047980e-03   2.0198009e-05   3.6626047e-04  -1.0301028e-04  -9.1122754e-04  -1.8881858e-04   5.5771298e-04  -3.0985964e-04  -6.3910038e-04   9.2435395e-04  -3.6345853e-04  -2.5621132e-04   3.6740548e-04   2.5483676e-05   4.9589569e-04   9.2553487e-04   1.2229576e-03  -1.1955908e-04  -4.4421185e-04   2.0592730e-04   1.5327262e-04  -2.9910842e-04  -5.9520919e-04  -7.2455790e-05  -9.5215318e-04  -3.6794983e-04  -4.2058472e-04  -5.3876080e-04  -1.4681258e-04  -4.4169903e-04   6.8292647e-05  -4.1249365e-04  -2.9501677e-04  -2.9436813e-04   1.1180114e-03   1.0663985e-04   1.5045908e-04   7.7268184e-04   1.9458449e-03   3.4063878e-03   2.3769187e-03   2.7062867e-03
  -8.6594059e-04  -4.1834961e-04  -2.4328301e-04  -8.7672722e-04  -4.9631752e-04   2.9014347e-05  -2.8196024e-05   2.2245916e-04   1.0239029e-03  -1.9820056e-04   2.5904764e-04  -2.3120610e-04  -9.7017369e-04  -1.6434926e-04   5.1264290e-04  -2.7227649e-04  -5.8819936e-04   8.6217734e-04  -1.9695361e-04  -2.9894040e-04   3.3867787e-04   4.2189808e-05   2.7594442e-04   9.1573340e-04   1.2601926e-03  -1.9610088e-04  -4.9596105e-04   1.9285313e-04   2.6785705e-04  -3.2646666e-04  -6.2718417e-04  -1.0171570e-04  -1.0825420e-03  -4.5655703e-04  -5.0181645e-04  -5.1289034e-04  -3.3076410e-04  -5.3125946e-04  -1.5557129e-05  -5.8159529e-04  -2.7862203e-04  -4.6465205e-04   9.2729175e-04  -3.3731858e-04  -1.1346748e-05   8.7337423e-04   1.9319259e-03   3.0077687e-03   1.5531131e-03   2.2943218e-03
  -9.9977839e-04  -5.7954149e-04  -3.0251849e-04  -9.7323401e-04  -5.5259484e-04  -2.1629286e-05  -1.1331420e-04   2.2218053e-04   9.3075866e-04  -1.9394058e-04   2.2134610e-04  -2.3590136e-04  -1.0513918e-03  -1.2621041e-04   6.3340197e-04  -2.7898277e-04  -6.0410885e-04   8.6384761e-04  -1.6748341e-04  -3.4785710e-04   3.0958900e-04  -5.5006720e-05   2.8627951e-04   8.0851791e-04   1.2711316e-03  -2.4913601e-04  -5.1862723e-04   1.5822782e-04   3.6737550e-04  -3.1074131e-04  -6.4663962e-04  -8.4819025e-05  -8.3820446e-04  -4.3192320e-04  -4.4480231e-04  -4.8538807e-04  -2.0118747e-04  -4.7885053e-04   8.3241001e-05  -5.0473749e-04  -1.5600651e-04  -4.4832434e-04   1.1900070e-03  -4.2871328e-04   9.7275559e-05   5.8188918e-04   2.0430826e-03   3.7487578e-03   2.2775368e-03   2.2138138e-03
  -8.1974454e-04  -3.5324192e-04  -2.1366507e-04  -8.5023313e-04  -4.7152120e-04   7.4187585e-05   4.5531306e-06   5.5331766e-05   1.2746628e-03   1.5034634e-05   4.0119732e-04  -3.3682878e-05  -9.3863130e-04  -1.4502100e-04   4.8552250e-04  -3.1864355e-04  -5.8329105e-04   8.5391750e-04  -2.8575497e-04  -2.3931253e-04   3.8194543e-04   8.1272010e-05   3.0094179e-04   8.4221346e-04   1.2870160e-03  -1.5155516e-04  -5.2749598e-04   1.7241611e-04   1.1791915e-04  -3.0872974e-04  -5.7253940e-04  -6.6566579e-05  -1.1297293e-03  -4.2736012e-04  -4.0294975e-04  -4.4018909e-04  -2.1270430e-04  -4.8073544e-04   1.9552715e-05  -5.9113599e-04  -4.6444821e-04  -4.3219663e-04   9.0886443e-04  -6.7008752e-04  -1.3853517e-05   1.0240483e-03   1.8840693e-03   3.5716000e-03   2.1644956e-03   3.8899479e-03
  -9.0264657e-04  -4.5433821e-04  -2.1206289e-04  -8.8957028e-04  -5.0840079e-04  -1.1477427e-04  -9.4484480e-05   3.5711932e-06   9.2002458e-04  -2.7434857e-04   1.7117029e-04  -2.4650805e-04  -1.0296911e-03  -1.4493494e-04   5.0419586e-04  -2.5362041e-04  -6.5673492e-04   7.9641625e-04  -3.5029178e-04  -3.2336084e-04   3.2117884e-04  -7.6248366e-06   1.8990388e-04   7.0818898e-04   1.1577485e-03  -2.9313663e-04  -5.1623426e-04   1.5052619e-04   6.3768537e-05  -3.8128183e-04  -7.3306088e-04  -1.7195927e-04  -9.8342972e-04  -4.7588913e-04  -4.7036231e-04  -5.7092280e-04  -4.1090627e-04  -4.7113307e-04   2.3240644e-05  -5.9314893e-04  -3.9423784e-04  -4.6322763e-04   3.5028250e-04   2.0788240e-04   2.4372292e-05   1.0314813e-03   1.7956099e-03   1.9790290e-03   2.2879355e-03   2.7908289e-03
  -9.9303888e-04  -3.3374349e-04  -2.2261615e-04  -8.3087652e-04  -4.6597980e-04  -4.4296998e-05  -2.0382633e-07   1.0240106e-04   1.2444310e-03   1.1207393e-04   4.3310103e-04   9.0804824e-05  -8.5909275e-04  -2.5624383e-04   4.8569907e-04  -2.9888254e-04  -7.4349338e-04   7.5807777e-04  -2.5082612e-04  -2.2348639e-04   3.9977656e-04   1.3877184e-04   2.9305829e-04   7.8026939e-04   1.0615855e-03  -1.5135854e-04  -5.1415182e-04   1.3869528e-04   9.3901712e-05  -3.3258268e-04  -8.3102687e-04  -1.5654473e-04  -7.5032987e-04  -3.5043590e-04  -4.4343912e-04  -4.6099859e-04  -2.5950730e-04  -4.6655891e-04   6.4403976e-05  -4.7392963e-04  -3.4229111e-04  -4.2648183e-04   5.2371412e-04   2.5020109e-04   1.0119738e-04   9.7373122e-04   1.9339354e-03   3.3973483e-03   2.1723188e-03   4.7233906e-03
  -8.7232073e-04  -3.2463248e-04  -1.8470951e-04  -8.0291240e-04  -4.1070452e-04   2.6738315e-05  -4.0494706e-05   3.3608964e-04   1.0534739e-03  -8.4953157e-05   2.9106400e-04  -2.1324191e-05  -8.6664164e-04  -2.7969727e-04   5.1627355e-04  -2.2186128e-04  -7.8416866e-04   7.3072524e-04  -2.4743253e-04  -2.6221093e-04   3.7330491e-04   8.8217108e-05   2.6842981e-04   6.5477932e-04   1.0962783e-03  -2.9715107e-04  -5.3183729e-04   1.3779117e-04   1.4268007e-04  -3.3671310e-04  -9.4062777e-04  -1.8309212e-04  -1.1124964e-03  -4.9011310e-04  -3.6181373e-04  -6.3591392e-04  -2.4810570e-04  -5.1454623e-04  -4.1472395e-05  -6.1026111e-04  -6.2456826e-04  -5.5868021e-04   8.0513716e-04  -6.1442918e-04   5.2098130e-05   8.6736854e-04   1.7215085e-03   2.2763161e-03   2.4790482e-03   3.4726809e-03
  -9.2151249e-04  -4.0118204e-04  -2.6334249e-04  -8.3096442e-04  -4.0953021e-04  -5.9885937e-05  -1.1007179e-04   2.2288153e-04   1.1201535e-03   7.8221492e-06   3.0189726e-04   2.3275070e-05  -8.7338634e-04  -3.5084333e-04   4.8718977e-04  -2.7772371e-04  -8.1879005e-04   6.8198645e-04  -4.7173831e-04  -2.5984910e-04   3.7236017e-04   1.1556156e-04   2.0161924e-04   6.2746875e-04   9.4588968e-04  -2.8233873e-04  -7.7720167e-04   1.2733672e-04   2.8060445e-05  -2.8962229e-04  -1.0525507e-03  -2.0584856e-04  -1.1017043e-03  -4.7591372e-04  -2.9209751e-04  -4.6283155e-04  -3.3616845e-04  -4.4920406e-04  -1.7659862e-05  -4.4086378e-04  -4.1470508e-04  -5.5391743e-04   1.1139963e-03  -5.6430057e-04   3.0278348e-04   8.0697815e-04   1.6702659e-03   2.6475596e-03   2.6793049e-03   2.8848744e-03
  -9.4327604e-04  -2.8111180e-04  -1.9883311e-04  -7.3009444e-04  -3.8477933e-04  -1.3886895e-05   2.4985105e-05  -2.7311478e-05   1.1682560e-03  -4.5960801e-06   3.2626523e-04   8.4925841e-06  -8.1334740e-04  -2.8797297e-04   5.4347859e-04  -1.9215392e-04  -7.6920714e-04   6.7582563e-04  -3.4820702e-04  -2.3672260e-04   3.9794281e-04   1.4458116e-04   2.4425788e-04   5.0304824e-04   9.0582768e-04  -3.0787627e-04  -6.4719794e-04   1.7085322e-04   1.2696371e-04  -2.5405266e-04  -1.0593178e-03  -2.1598929e-04  -9.1645820e-04  -4.6185101e-04  -3.1596021e-04  -5.7419500e-04  -2.6086628e-04  -4.4861721e-04  -7.1633963e-06  -4.1171565e-04  -5.8729068e-04  -6.1482249e-04   6.9054414e-04  -7.5499537e-07   1.9932761e-04   7.8637653e-04   1.5368497e-03   3.0023230e-03   2.1780971e-03   2.5472892e-03
  -9.6866791e-04  -4.0196627e-04  -2.9063007e-04  -7.8035402e-04  -4.3557893e-04  -1.6478462e-04  -1.2661004e-04   1.0684189e-05   9.4549992e-04  -2.6831022e-04   8.2981634e-05  -2.0619476e-04  -9.1973087e-04  -2.7800928e-04   5.7862845e-04  -1.8572426e-04  -7.8835664e-04   7.1957742e-04  -3.6244368e-04  -2.8620631e-04   3.5317242e-04   1.2783561e-04   1.5878327e-04   3.6537327e-04   8.4592710e-04  -2.9185737e-04  -6.2504527e-04   1.8321995e-04   6.8401969e-05  -2.8900403e-04  -1.1117402e-03  -1.8880608e-04  -9.6779247e-04  -4.3116329e-04  -2.8215628e-04  -5.8634288e-04  -3.3913093e-04  -4.4283384e-04   4.1417723e-05  -3.7639966e-04  -6.6200428e-04  -4.7247490e-04   7.0005510e-04  -1.4651196e-04   3.2124255e-04   9.9833915e-04   1.5570644e-03   2.4179250e-03   2.6585222e-03   3.1407662e-03
  -9.1857772e-04  -2.2114361e-04  -2.2100167e-04  -6.2609190e-04  -3.3448270e-04   3.1703683e-05   3.0720559e-05   1.2027578e-04   1.2153990e-03   7.5661097e-05   3.4083781e-04   4.8731556e-05  -7.7862944e-04  -2.7258712e-04   6.9161528e-04  -2.0212382e-04  -7.6593785e-04   6.8092113e-04  -1.7168795e-04  -1.6083336e-04   4.2287153e-04   1.9538229e-04   2.8725763e-04   4.9705821e-04   8.8128139e-04  -2.8774905e-04  -5.6138774e-04   1.9564641e-04   1.7376363e-04  -2.4501889e-04  -1.1466105e-03  -2.0372799e-04  -9.4091438e-04  -4.5151499e-04  -1.9932850e-04  -4.8642993e-04  -2.9137483e-04  -3.7772360e-04   7.1297982e-05  -3.8034318e-04  -5.7517202e-04  -5.4906524e-04   1.1819675e-04  -5.0892053e-05   2.7037031e-04   9.6493709e-04   1.5643311e-03   2.2899203e-03   2.1944733e-03   3.0584210e-03
  -1.0777771e-03  -3.2213968e-04  -2.2052405e-04  -6.7249261e-04  -3.8301374e-04  -1.6646289e-05  -1.2095805e-05   1.2117274e-04   1.0456544e-03  -1.6836355e-04   1.5301866e-04  -1.1949780e-04  -9.0209866e-04  -3.1790242e-04   5.8097317e-04  -1.8205575e-04  -8.0027495e-04   6.4639997e-04  -2.3867455e-04  -2.4494389e-04   3.5482616e-04   6.2863932e-05   3.8847757e-05   4.2923892e-04   8.8692358e-04  -5.2959647e-04  -6.4556068e-04   2.0678627e-04   2.7839912e-04  -3.2879334e-04  -1.2491609e-03  -2.6584716e-04  -8.1868289e-04  -4.3988487e-04  -2.8317576e-04  -5.3990044e-04  -2.6790382e-04  -3.5575815e-04   3.2274405e-05  -4.5782342e-04  -5.4692605e-04  -5.3856825e-04   2.0186395e-04   1.3676245e-04   4.2935874e-04   9.3038951e-04   1.4031138e-03   2.0817586e-03   1.8889871e-03   2.0395925e-03
  -1.0212263e-03  -2.3363554e-04  -2.2577980e-04  -5.8538449e-04  -3.2390241e-04   1.7750834e-05   1.3212280e-04   2.9913036e-04   1.1871887e-03   1.9024414e-04   3.7087008e-04   7.5392440e-05  -7.2777743e-04  -2.8320574e-04   5.0967315e-04  -2.4177643e-04  -7.3520595e-04   6.3634804e-04  -1.3171585e-04  -1.4274762e-04   4.0898850e-04   2.1240866e-04   1.4331809e-04   4.5326477e-04   8.5129822e-04  -3.5480325e-04  -5.6217104e-04   2.0657928e-04   4.4601696e-04  -2.1374413e-04  -1.2206649e-03  -2.4191174e-04  -9.1819646e-04  -3.1580907e-04  -7.6981756e-05  -2.7023340e-04  -1.3917322e-04  -2.6287491e-04   1.6594438e-04  -2.5583128e-04  -5.9549854e-04  -4.5435710e-04   4.2868822e-04   5.9618242e-04   3.8383307e-04   1.1967125e-03   1.4260953e-03   1.9501093e-03   2.4662255e-03   2.2972908e-03
  -9.8433357e-04  -2.6659251e-04  -2.4037427e-04  -5.4959109e-04  -3.3177470e-04  -1.7099612e-05   7.3790870e-05   8.1950704e-05   1.1140429e-03   5.9323415e-06   1.8305043e-04  -8.0773912e-05  -8.1868027e-04  -2.6051427e-04   6.5150455e-04  -2.1622067e-04  -7.3141290e-04   6.3229492e-04  -3.3719876e-04  -1.9744509e-04   3.6543145e-04   1.3278317e-04   2.3003980e-04   3.3720996e-04   8.4323186e-04  -3.8141559e-04  -5.8810523e-04   1.9478011e-04   1.4213815e-04  -2.5535101e-04  -1.2212567e-03  -2.3397627e-04  -1.0159261e-03  -4.0441685e-04  -2.0413559e-04  -3.5377959e-04  -1.7758900e-04  -3.3593673e-04   1.4276544e-04  -2.8765423e-04  -5.1822572e-04  -5.9575093e-04   1.9265180e-04   2.0368851e-04   2.4214960e-04   1.2208469e-03   1.2488429e-03   2.6869674e-03   2.0130980e-03   2.9949767e-03
  -1.0619507e-03  -2.9453411e-04  -2.1959902e-04  -5.8389048e-04  -3.2776504e-04  -5.3808681e-06   9.2708884e-05   1.0935571e-04   1.3696946e-03   1.9379608e-04   2.3108335e-04   8.5314232e-06  -8.4100355e-04  -3.2699999e-04   6.2377361e-04  -2.7851542e-04  -7.0481631e-04   6.1924086e-04   3.6293542e-07  -1.5936189e-04   3.5963900e-04   1.3153414e-04   1.1807628e-04   4.1812545e-04   8.8283914e-04  -2.0778156e-04  -6.0466392e-04   2.1085088e-04   8.4549516e-05  -1.9136965e-04  -1.2594005e-03  -1.9136247e-04  -8.7327999e-04  -1.7551701e-04   2.3897621e-05  -2.8322896e-04  -4.3896856e-05  -3.0128402e-04   2.3257351e-04  -1.5064563e-04  -6.2134699e-04  -3.9396359e-04   8.2216779e-04   2.2186355e-04   5.3503650e-04   1.1167011e-03   1.4042736e-03   2.5510683e-03   1.5966586e-03   1.9309307e-03
  -1.0206113e-03  -2.5581152e-04  -2.4357154e-04  -5.0502701e-04  -3.2496374e-04   4.0057352e-05   1.8131136e-04   1.4593927e-04   1.2162616e-03   1.6545450e-04   1.8546807e-04  -7.8455370e-05  -7.9722784e-04  -2.1947792e-04   4.6157974e-04  -1.8075298e-04  -6.2970829e-04   6.1460858e-04  -1.2178274e-04  -1.5929124e-04   3.3427184e-04   8.8521469e-05   1.3798353e-04   3.3185619e-04   9.5496170e-04  -1.9955896e-04  -4.7554998e-04   1.9556456e-04   3.0190879e-04  -1.6838207e-04  -1.1832924e-03  -2.0503312e-04  -9.6967391e-04  -3.5046521e-04  -6.3252686e-05  -3.1604254e-04   4.2117197e-05  -2.1371116e-04   2.8731584e-04  -1.8126568e-04  -7.1306166e-04  -4.1325268e-04   1.1893951e-03   5.9341895e-04   3.8097645e-04   1.2536556e-03   1.2096423e-03   2.3731606e-03   1.5823711e-03   2.6009409e-03
  -1.1188310e-03  -4.0337408e-04  -2.9281326e-04  -5.9668923e-04  -3.8305449e-04  -7.4354874e-05   5.7952762e-05   7.7951321e-05   9.4470178e-04  -9.0183741e-05  -8.4030413e-05  -2.9532550e-04  -9.8594849e-04  -2.2825167e-04   6.2045676e-04  -1.6127083e-04  -6.6743104e-04   6.0931558e-04  -1.8645953e-04  -2.6483031e-04   2.6219041e-04  -5.5903747e-06   7.6247787e-05   2.1373112e-04   8.8899524e-04  -2.3149526e-04  -4.8410628e-04   2.2510743e-04   1.1219292e-04  -1.9278961e-04  -1.1915551e-03  -1.7391334e-04  -1.1068722e-03  -2.5223155e-04  -1.5726499e-04  -2.2554850e-04   1.2728973e-05  -2.8881789e-04   3.1281394e-04  -2.8135915e-05  -4.2346888e-04  -3.5061603e-04   5.2744983e-04   5.8592431e-04   4.8776940e-04   1.0353336e-03   1.3503719e-03   1.8923283e-03   1.5820609e-03   2.2906705e-03
  -1.1145865e-03  -2.4683992e-04  -2.8656586e-04  -4.8438928e-04  -3.1542237e-04   4.5717778e-05   2.5747553e-04   1.7426911e-04   1.3163589e-03   2.8284578e-04   1.7909835e-04  -6.3590414e-05  -8.0980652e-04  -2.1356944e-04   5.5051211e-04  -1.9264815e-04  -6.7724980e-04   6.4314360e-04  -7.6498363e-06  -1.6035438e-04   2.9984335e-04   1.6979382e-06   5.6336437e-05   4.1280914e-04   8.7366533e-04  -2.7070049e-04  -5.6671916e-04   1.9920799e-04   4.9782416e-04  -8.1632410e-05  -1.2098324e-03  -1.1230021e-04  -9.1764593e-04  -2.0517726e-04   1.1612366e-05  -1.6428914e-04   1.7051506e-04  -1.4996938e-04   4.0374201e-04  -2.5576994e-05  -4.9348292e-04  -4.8347429e-04   1.0901034e-03   1.1366977e-03   4.4624819e-04   1.2426296e-03   1.3139361e-03   2.7411021e-03   2.2414869e-03   9.4077759e-04
  -1.1363879e-03  -3.4107378e-04  -3.5128975e-04  -5.4167502e-04  -3.6771566e-04  -3.8549100e-05   1.7836005e-04   2.3455144e-04   1.1219382e-03   6.4075502e-05  -2.1438969e-05  -2.6442506e-04  -9.5694937e-04  -3.0167066e-04   5.9458130e-04  -1.8714298e-04  -5.4967939e-04   5.8665115e-04  -1.9142848e-04  -3.3087618e-04   2.2920388e-04  -1.1225849e-04  -1.8238576e-05   1.7360804e-04   1.0377677e-03  -3.0736046e-04  -4.8060293e-04   1.5790873e-04   1.3037442e-04  -1.7096255e-04  -1.1331715e-03  -2.7158117e-04  -8.4980996e-04  -2.7274524e-04  -6.1442290e-05  -3.3518947e-05   4.4709963e-05  -3.0695388e-04   3.3532057e-04  -7.9990234e-05   1.4112169e-05  -3.0427924e-04   2.3898740e-04   1.1231726e-03   2.8383758e-04   1.2568291e-03   1.3673299e-03   2.1401388e-03   1.8799884e-03   2.5794508e-03
  -1.2089075e-03  -3.9599501e-04  -3.8641097e-04  -6.3713011e-04  -5.1074295e-04   9.6252525e-06   1.6329689e-04   4.9824006e-04   1.2568331e-03   2.1578131e-04   8.0912141e-05  -4.5943007e-04  -1.0987810e-03   1.6569701e-04   7.2357687e-04  -2.8181190e-04  -9.8598815e-05   6.1789388e-04  -9.3334995e-05  -4.7560062e-04   2.0147423e-04  -1.6260280e-04  -4.0372310e-05   3.8184768e-05   1.1167553e-03   3.6617017e-05  -1.9930724e-04   2.5839260e-04   2.7525914e-04  -8.2566512e-06  -5.6542351e-04  -6.9762500e-05  -8.8451803e-04  -9.1055161e-05   5.2564599e-05   8.4113890e-05   1.0384162e-04  -1.3375301e-04   6.0403376e-04   1.9897839e-04  -3.8647189e-04   6.8511901e-05   5.5803551e-04   1.7765441e-04   4.9250800e-04   1.5240645e-03   1.5238127e-03   1.9508346e-03   2.6094315e-03   1.5737909e-03
  -1.3624483e-03  -5.1302928e-04  -4.8739836e-04  -7.3387293e-04  -5.0293002e-04   1.1005404e-05   1.6752096e-04   2.2897552e-04   1.2177060e-03   1.9517062e-04  -2.6612786e-06  -3.6358158e-04  -1.1964571e-03   2.9399176e-04   8.8953954e-04  -4.9306076e-05   4.7804893e-05   1.3862957e-03  -2.8563262e-04  -4.6875005e-04   1.4061786e-04  -3.9131177e-04  -7.3341951e-05   2.4047427e-04   1.4197475e-03  -1.4541390e-04   5.0100696e-04   7.1316247e-04   8.1790157e-04  -8.6316613e-05  -4.1374192e-04   3.0819510e-04  -9.1471296e-04  -6.8366826e-05  -3.6722864e-05  -1.7767168e-04   1.8768859e-04   6.4755277e-06   4.0262585e-04   1.9398831e-04   5.6360077e-05  -1.0940996e-04   9.3914563e-04   4.1162124e-04   2.3969509e-04   1.1977974e-03   1.5118748e-03   2.6113999e-03   1.4705521e-03   3.2850348e-03
  -1.6193527e-03  -7.7578303e-04  -4.9838761e-04  -8.9246070e-04  -6.6913653e-04  -2.7526037e-05   1.0529759e-04   3.9455251e-04   9.4606681e-04   3.0782996e-04  -7.5352116e-05  -2.7174599e-04  -1.3872600e-03   3.0961164e-04   4.8678595e-04  -2.0276388e-04   7.8171557e-05   1.1451987e-03  -1.9372019e-04  -5.1958387e-04  -5.4279397e-05  -7.2493305e-04  -1.8007835e-05   4.2941069e-04   1.2956382e-03  -1.4029662e-04   1.9700736e-05   2.3877602e-04   2.5309966e-04  -8.5260945e-05   6.8339847e-05   3.2161415e-04  -7.5451646e-04  -5.3304029e-05  -1.4989861e-05   2.4749388e-04   2.5485858e-04  -1.3188802e-04   6.3880562e-04   3.3612497e-04   8.2956208e-04   8.5983024e-04   1.3802513e-03   9.5951160e-05   4.6791366e-04   1.0885308e-03   2.1669555e-03   2.4008674e-03   1.9134976e-03   1.9142695e-03
  -1.5440186e-03  -6.3866330e-04  -5.0213496e-04  -8.9687639e-04  -7.2463090e-04   4.7356058e-05   1.7593487e-04   5.1293307e-04   1.1247970e-03   5.0591654e-04   1.0627111e-04   1.3435144e-05  -1.2955592e-03   2.5830403e-04   5.4046838e-04  -1.6548071e-04   2.0216538e-04   1.1923482e-03  -1.7110593e-04  -5.3407351e-04  -1.1566421e-05  -7.1537337e-04   2.5257492e-05   6.8513223e-04   1.2628840e-03  -2.9748326e-05   1.0192258e-05   2.9666748e-04   3.6138919e-04  -4.3079086e-05   7.2558323e-05   3.0026856e-04  -9.6227945e-04  -7.7417453e-06  -2.8915532e-05   2.3673766e-04   1.1876935e-04  -7.7665507e-05   7.8001147e-04   3.4755131e-04   1.0206904e-03   1.0019001e-03   2.7313549e-04   2.9012372e-04   3.5168242e-04   1.1977514e-03   2.2706115e-03   2.8193467e-03   1.7823267e-03   3.1746544e-03
  -1.6971305e-03  -8.3630928e-04  -5.6574977e-04  -1.0551938e-03  -8.5146329e-04  -6.3600870e-05   2.7942067e-05   5.1334978e-04   9.5738057e-04   1.7580773e-04  -2.0268009e-05  -4.6890238e-04  -1.3726905e-03   5.2992970e-04   5.0696597e-04  -3.2446120e-04   4.3884871e-04   1.2162598e-03  -5.3448370e-04  -7.1450445e-04  -4.2648484e-05  -7.3032681e-04  -1.3772085e-04   3.7461496e-04   1.5241751e-03   3.9335675e-05   4.0664096e-04   4.3605428e-04   3.4506081e-04  -2.8612039e-05   2.9373387e-04   2.9772209e-04  -1.0445758e-03  -9.5604562e-05  -2.7583086e-05  -4.8655293e-05   8.3570041e-05   4.0194071e-05   6.3657924e-04   2.3657520e-04   2.0187363e-04   4.9466145e-04   9.6798170e-04   7.9207843e-05   3.7462497e-04   1.2356344e-03   1.8393875e-03   2.8306523e-03   2.0017666e-03   3.0663009e-03
  -1.8200162e-03  -6.9756195e-04  -7.5298978e-04  -1.0392851e-03  -7.8294904e-04  -5.0095582e-06   3.0520856e-05   1.1129993e-04   1.4892595e-03   8.3982234e-04   1.9403247e-04   3.4511968e-04  -1.1739144e-03   9.1183058e-05   6.6671165e-04  -1.1279514e-04  -1.5523376e-04   1.5038503e-03  -3.3339357e-04  -4.3396535e-04   1.6175855e-04  -6.5861951e-04   2.2435070e-04   9.7647903e-04   1.2918367e-03  -5.7203513e-05   2.9071013e-04   6.7921967e-04   8.9197780e-04  -1.3282089e-04  -3.7793838e-04   5.7437032e-04  -9.4382570e-04  -1.4316184e-04  -9.5955065e-06  -2.3176312e-04   2.4840821e-04   2.1077972e-04   6.0276972e-04   2.8702483e-04   1.0255057e-04   4.5137582e-04   1.2663167e-03   7.5188052e-04   4.9304427e-04   7.9180289e-04   1.9276832e-03   2.6155270e-03   2.4036015e-03   2.1777265e-03
  -1.5014387e-03  -7.2592916e-04  -4.5429097e-04  -1.0232772e-03  -6.8923942e-04   2.6724032e-05   2.8293050e-04   7.2196336e-04   1.7123256e-03   9.9302549e-04   1.3526146e-05   2.6789730e-04  -1.3383350e-03  -4.0052578e-04   5.0661003e-04   1.0925158e-04  -5.4647704e-04   1.9172754e-03  -7.1568298e-04  -3.6221879e-04   2.7260458e-04  -5.7787704e-04   3.5853990e-04   1.6634254e-03   1.2261686e-03  -2.6787340e-04  -1.2940279e-04   5.6794554e-04   7.6668576e-04  -5.6962937e-04  -1.8883705e-04   7.7725027e-04  -1.1053695e-03  -1.7954854e-04  -2.7803864e-05  -6.0916715e-05   1.7992567e-04   3.8878668e-05   5.3204258e-04   2.7764402e-04   9.0248347e-04   1.5063162e-03   1.2003497e-03   3.6982051e-04   6.2722241e-04   1.3535521e-03   2.6510262e-03   3.2594344e-03   2.4837570e-03   2.6444122e-03
  -1.5064985e-03  -9.0087735e-04  -5.5393059e-04  -1.2026720e-03  -7.5037777e-04   3.7372418e-05   2.3740646e-04   6.0221652e-04   1.7146966e-03   1.0810581e-03  -2.8764885e-05   2.9659306e-04  -1.2207148e-03  -5.9249159e-04   2.8943768e-04  -8.6348671e-05  -7.5905561e-04   1.5671602e-03  -4.1565803e-04  -4.0706975e-04   2.2113250e-04  -5.4382411e-04   4.8598685e-04   1.7563901e-03   1.1403777e-03  -1.4764257e-04  -3.7723244e-04   3.7748343e-04   4.7047369e-04  -5.0520955e-04  -5.3186179e-04   5.0900748e-04  -1.0664681e-03  -1.9087775e-04  -1.4437886e-04  -1.0123770e-04   1.7022340e-04  -9.4731688e-05   5.8903068e-04   4.4041377e-04   1.0022266e-03   1.6181567e-03   1.7361392e-03   8.3238631e-04   6.9516036e-04   1.4814878e-03   2.8216655e-03   3.2340803e-03   2.8619759e-03   3.5031652e-03
  -1.5770009e-03  -7.3959772e-04  -7.0080871e-04  -1.1530191e-03  -8.3727535e-04   1.2140244e-05   1.8598599e-04   3.2382426e-04   1.7930490e-03   9.8718354e-04   1.1303448e-04   1.1092045e-04  -1.1893186e-03  -6.2276534e-04   3.5753642e-04  -2.8204342e-04  -7.3823880e-04   1.0332640e-03  -3.9855696e-04  -4.8693665e-04   1.8671699e-04  -6.0571975e-04   4.4526986e-04   1.4116757e-03   1.1712343e-03  -5.8865717e-05  -7.8032864e-04   1.0498746e-04   3.5264824e-05  -3.2325921e-04  -4.5046874e-04   2.7606770e-04  -1.2829368e-03  -1.8379382e-04  -2.8398243e-04   2.2598320e-04   2.6055553e-04  -2.4744440e-04   6.1917544e-04   1.3046378e-04   1.3080336e-03   2.1149954e-03   2.7025559e-03   6.0750981e-04   5.6128606e-04   1.4447173e-03   3.1648781e-03   2.7096509e-03   2.2151831e-03   2.2188856e-03
  -1.7940450e-03  -8.4910326e-04  -7.7566551e-04  -1.2756556e-03  -8.9418958e-04  -1.3882731e-04  -1.3140632e-06   4.3355001e-04   1.5091771e-03   7.4649404e-04  -1.2247129e-04   1.5985561e-05  -1.3017689e-03  -7.6603395e-04   2.6954236e-04  -1.2654197e-04  -1.1620980e-03   1.4855874e-03  -7.3223386e-04  -5.0597795e-04   3.0006457e-04  -4.7963235e-04   3.3799652e-04   1.6350523e-03   1.1380148e-03  -1.5933866e-04  -6.1919569e-04   4.5270374e-04   3.2688159e-04  -4.4373795e-04  -7.6977076e-04   3.8176685e-04  -1.1479728e-03  -3.1428630e-04  -1.0181502e-04  -2.6270468e-04   2.2861417e-04  -9.9778563e-06   5.3314614e-04   2.2887607e-04   3.6861561e-04   1.2782852e-03   1.5932687e-03   3.6481221e-04   6.2837976e-04   1.3693564e-03   2.6823157e-03   3.2359711e-03   2.7327826e-03   3.7933805e-03
  -1.5353730e-03  -7.1569363e-04  -6.8473426e-04  -1.2242727e-03  -8.3297741e-04  -5.8707417e-05   1.3170452e-04   4.2935953e-04   1.8274818e-03   1.0436128e-03   1.1941451e-04   1.9983461e-04  -1.1326513e-03  -8.2166301e-04   3.3220986e-04  -2.3317680e-04  -1.1979284e-03   1.2428778e-03  -6.8234105e-04  -4.6871763e-04   4.1395484e-04  -3.0014844e-04   4.6258906e-04   1.5558752e-03   9.7289821e-04  -9.8890530e-05  -9.2520524e-04   1.5530179e-04   2.6328242e-04  -4.2281751e-04  -7.8008795e-04   2.9261381e-04  -1.2862289e-03  -3.9191998e-04  -2.2299793e-04  -1.6178655e-04   2.0142269e-04  -2.0517789e-04   6.4258918e-04   1.7112463e-04   1.0621832e-03   1.8881712e-03   1.7602816e-03   8.2161592e-04   6.0248247e-04   1.1973416e-03   2.9430930e-03   2.7788137e-03   2.7018478e-03   3.5754405e-03
  -1.5494887e-03  -7.8271987e-04  -7.2985672e-04  -1.2714234e-03  -8.8027760e-04  -9.5996198e-05   3.7408972e-05   2.1589379e-04   1.5402284e-03   7.7380822e-04   1.7954942e-05   9.0936919e-05  -1.2090472e-03  -9.2885067e-04   9.0964895e-05  -3.5171385e-04  -1.3553944e-03   1.0578511e-03  -6.5431447e-04  -5.3337525e-04   3.7206896e-04  -3.7780576e-04   3.8377385e-04   1.5555937e-03   9.6967351e-04  -2.9519794e-04  -9.1246073e-04   1.1298185e-04   8.8756715e-05  -4.7841622e-04  -7.9666870e-04   1.7229014e-04  -1.3293130e-03  -4.3643499e-04  -3.0458622e-04  -2.6782841e-04  -6.5213106e-05  -2.6479611e-04   5.6065904e-04  -1.1261198e-04   7.8655931e-04   1.4354155e-03   1.3431113e-03   3.3188946e-04   3.4357453e-04   1.2121006e-03   2.6696469e-03   2.5228593e-03   2.1904039e-03   2.4932467e-03
  -1.5886782e-03  -7.7607343e-04  -8.3920453e-04  -1.3339393e-03  -8.6481369e-04  -1.1499439e-04  -5.6405726e-05   3.6490441e-04   1.5099745e-03   7.5314881e-04   3.0795574e-05   2.5043746e-05  -1.2504907e-03  -8.0660445e-04   1.6493420e-04  -3.8014239e-04  -1.3185764e-03   9.9263201e-04  -5.0155784e-04  -5.5879512e-04   4.6725731e-04  -3.5051905e-04   4.7692351e-04   1.3278553e-03   1.0930251e-03  -2.0107692e-04  -9.4446680e-04   6.4849308e-05   2.9494189e-05  -4.3978851e-04  -8.5733994e-04   1.3221400e-04  -1.2662039e-03  -3.9950595e-04  -2.9746428e-04  -1.9793095e-04   1.5380532e-04  -3.4181206e-04   5.7179609e-04   1.7803841e-05   8.7526120e-04   1.4061112e-03   2.1093716e-03   1.4785984e-04   4.1198803e-04   1.3033075e-03   2.6729063e-03   1.5918399e-03   2.2968955e-03   1.9141207e-03
  -1.5436152e-03  -7.0914580e-04  -7.9245493e-04  -1.3043236e-03  -8.8657002e-04  -1.2105838e-04  -7.9879777e-05   2.5244409e-04   1.3748719e-03   5.7132263e-04  -2.1504835e-05  -5.7729379e-05  -1.1900325e-03  -6.3701882e-04   3.2902753e-04  -3.2767170e-04  -1.2957423e-03   9.0893212e-04  -5.5180182e-04  -4.7600578e-04   6.3170318e-04  -2.8785365e-04   4.8825145e-04   1.2121594e-03   1.2212966e-03  -2.8682352e-04  -8.1434712e-04   1.3351560e-04  -4.3828226e-05  -3.7987161e-04  -8.8554167e-04  -7.6302334e-05  -1.5099816e-03  -5.4817088e-04  -4.4212217e-04  -3.3703056e-04  -1.1720748e-04  -2.7160186e-04   4.4279668e-04  -1.4001696e-04   5.9557054e-04   9.2563941e-04   1.6803042e-03   1.5725724e-04   2.0892757e-04   1.1540435e-03   2.3966855e-03   2.7354686e-03   2.3776421e-03   1.4833424e-03
  -1.5312878e-03  -8.4553659e-04  -8.8828412e-04  -1.4001882e-03  -9.6047216e-04  -2.8442551e-04  -2.7722237e-04   4.2079271e-05   9.4369089e-04   1.8391502e-04  -2.8157965e-04  -3.2559905e-04  -1.3747873e-03  -5.2417599e-04   1.3318947e-04  -4.1841177e-04  -1.2425117e-03   7.4277731e-04  -5.7116809e-04  -6.0415058e-04   4.8489711e-04  -3.5351887e-04   3.0080642e-04   1.0519902e-03   1.2546235e-03  -2.1295196e-04  -8.8875002e-04   1.2334684e-04  -2.8928852e-04  -4.1104562e-04  -7.0676807e-04  -4.0211846e-05  -1.2808576e-03  -4.3113620e-04  -4.3968056e-04  -2.3389523e-04   2.1918033e-05  -3.9021249e-04   4.6510843e-04  -9.2686721e-05   7.6091243e-04   1.0005926e-03   1.5906109e-03  -3.0184901e-04   2.7578193e-04   9.7943586e-04   2.3860640e-03   1.9824938e-03   2.7028045e-03   2.4809686e-03
  -1.4631976e-03  -6.7709689e-04  -7.7702891e-04  -1.3542459e-03  -8.8555127e-04  -2.4059911e-04  -2.0585344e-04   5.6247262e-04   1.2316457e-03   4.2013059e-04  -1.2098911e-04  -1.0391536e-04  -1.2878088e-03  -4.8595981e-04   3.8784058e-04  -3.7457939e-04  -1.0713175e-03   1.1637462e-03  -7.9977821e-04  -6.9485774e-04   4.0595460e-04  -3.1139486e-04   1.6983711e-04   9.9102408e-04   1.3533203e-03  -3.4435501e-04  -7.1825646e-04   2.8257119e-04   1.6017778e-04  -4.4888983e-04  -5.9274078e-04   1.0405084e-04  -1.0342305e-03  -4.5534162e-04  -4.2938441e-04  -5.7703455e-04  -3.1098159e-04  -3.3638603e-04   2.9474462e-04  -2.4526441e-04   5.0350046e-04   7.9598534e-04   2.0397217e-03  -1.1452973e-04   9.0863759e-05   8.4879081e-04   2.3600131e-03   3.6630065e-03   2.0348739e-03   2.3960350e-03
  -1.4071558e-03  -7.8662473e-04  -8.2827930e-04  -1.3960733e-03  -9.0106810e-04  -2.5131981e-04  -3.3345519e-04   2.3773647e-04   7.9747196e-04   9.0171670e-05  -3.6084940e-04  -3.2443728e-04  -1.3840728e-03  -3.9210479e-04   2.8019081e-04  -3.1961684e-04  -1.0029972e-03   1.1374343e-03  -7.4165541e-04  -8.2824042e-04   3.2145696e-04  -4.3434414e-04   7.1146125e-05   7.5451232e-04   1.3511070e-03  -5.1704660e-04  -4.4666632e-04   3.0126225e-04  -1.5553546e-06  -5.1354093e-04  -4.9118965e-04   1.0997162e-04  -1.0208768e-03  -4.9746997e-04  -4.9061107e-04  -6.4050482e-04  -3.5232250e-04  -2.9595927e-04   2.0324619e-04  -5.1597279e-04   3.0486856e-04   6.9002382e-04   1.0557479e-03   1.0237312e-04   7.0697992e-05   8.1775652e-04   2.1923776e-03   1.7400937e-03   1.9610305e-03   4.1939756e-03
  -1.2802274e-03  -7.1765552e-04  -7.9229707e-04  -1.3900147e-03  -8.4550696e-04  -2.2537711e-04  -3.0620329e-04  -3.7146035e-07   1.0971647e-03   3.9007553e-04  -1.1544672e-04  -1.3564447e-04  -1.2851286e-03  -1.6383169e-04   4.4717407e-04  -2.2139559e-04  -6.9853541e-04   1.5660471e-03  -8.2889572e-04  -8.2043343e-04   3.5242492e-04  -4.1283522e-04   1.0454681e-04   7.6301669e-04   1.4358346e-03  -3.8558053e-04  -4.2007272e-05   4.3812144e-04   3.6996909e-04  -4.8567643e-04  -6.0743503e-05   2.9998206e-04  -8.3405111e-04  -4.0195265e-04  -4.5090789e-04  -6.0127041e-04  -2.7629192e-04  -1.6077506e-04   1.4274656e-04  -5.0195376e-04   5.1384419e-04   8.7553315e-04   1.7025804e-03  -4.2058108e-04   4.2888099e-05   8.6249696e-04   2.4145553e-03   2.8531926e-03   2.4298790e-03   6.6086289e-04
