  -1.7946685e-04  -1.1605784e-04   2.7584744e-04   3.0265938e-04  -2.9487678e-04  -9.7349810e-05  -7.1191564e-05  -5.0680910e-07   1.1761022e-04  -9.0644739e-05   4.6721074e-05   1.1410986e-06   4.9152609e-04   3.1342541e-04   7.1591763e-05   8.7599439e-04   4.7534957e-04   1.8016796e-03  -4.4033717e-05   2.0407817e-04   3.0247614e-04   2.9772150e-04   7.5849624e-05  -4.1368130e-05  -2.5216377e-04  -5.7685550e-04  -1.5851046e-04   1.6247453e-03   5.8486909e-05  -2.4066074e-04   1.3818404e-03   2.2427207e-03  -2.1198217e-04   7.8002963e-04  -2.9442788e-04  -3.3231190e-05   4.8735863e-04  -2.6653346e-04   2.3525734e-04   2.5283880e-04  -5.9333560e-04  -2.0832336e-04  -8.3702715e-04  -1.4986662e-04   9.6937118e-05   9.8112889e-04   2.5367795e-04  -2.4892536e-03  -9.2197303e-04  -2.6793950e-03
  -8.1669255e-05  -1.0156630e-04   2.1936504e-04   2.8105645e-04  -3.0660199e-04  -9.2697504e-05  -4.7725407e-05   2.6443385e-04   1.4174970e-05  -4.9295653e-05   5.1043291e-05   3.4356555e-05   5.2569743e-04   3.1853036e-04   2.3775247e-05   8.0919341e-04   4.6415388e-04   1.8055418e-03   6.2739651e-05   2.1530969e-04   3.1963468e-04   2.6441470e-04   3.7085927e-05   5.5296841e-05  -2.6833723e-04  -5.7466957e-04  -2.6668553e-04   1.6294804e-03  -2.2969925e-05  -2.6576940e-04   1.3041953e-03   2.2900729e-03  -2.9435186e-04   7.4589904e-04  -2.3280809e-04  -6.6377179e-05   2.0800413e-04  -2.5750752e-04   2.9213759e-04   3.2405349e-04  -6.6022860e-04  -1.3118576e-04  -1.2448437e-03   1.3970546e-04   1.3103115e-05   1.0132868e-03   3.3231403e-04  -2.2432096e-03  -1.9785380e-03  -1.7992683e-03
  -7.1615410e-05  -9.2718350e-05   2.3908570e-04   3.2258820e-04  -2.8194216e-04  -7.2520350e-05  -1.1031418e-04   3.2174576e-04  -1.5089537e-04  -4.1416661e-05   4.2584947e-05   3.6894176e-05   5.7216594e-04   2.7255819e-04   8.4253297e-05   9.1960916e-04   4.5982777e-04   1.8410112e-03   5.9737729e-05   2.2847739e-04   3.4325625e-04   2.8573498e-04   5.5814478e-05   1.3701662e-05  -2.9462265e-04  -6.4494583e-04  -3.1857079e-04   1.6646078e-03   1.5771155e-04  -2.4095793e-04   1.3348220e-03   2.2561855e-03  -2.6858127e-04   7.8592717e-04  -2.4532844e-04  -1.3600514e-04   3.6737174e-04  -2.2233362e-04   3.4201119e-04   4.1513113e-04  -6.7821704e-04  -1.7173355e-04  -9.2449476e-04   3.6059474e-04   8.4911379e-05   1.0082015e-03   4.2476214e-04  -2.5783523e-03  -2.2035711e-03  -2.3418996e-03
  -8.9467023e-05  -8.9568472e-05   2.6994248e-04   3.3412184e-04  -2.7114991e-04  -2.1352778e-05   1.4444578e-05   4.4334331e-05   4.0371997e-05  -1.5966856e-05   9.0841917e-05   8.5632004e-05   5.6983030e-04   3.5982803e-04   2.0904916e-05   7.5637811e-04   4.7541730e-04   1.8621798e-03   1.2610620e-04   2.3585974e-04   3.2973080e-04   3.0149022e-04   2.1031661e-05   1.1280417e-04  -2.6499917e-04  -5.7306909e-04  -3.8005729e-04   1.6675805e-03   1.6460847e-04  -2.1578466e-04   1.3217902e-03   2.3239369e-03  -2.2895208e-04   8.4733329e-04  -2.5085153e-04  -1.7549601e-04   6.0500071e-04  -2.4789912e-04   3.4705963e-04   2.1002709e-04  -4.7806845e-04  -1.6286859e-04  -8.4627949e-04  -3.4303226e-05   5.6011188e-05   1.0072793e-03   3.7743937e-04  -2.1961704e-03  -1.8377074e-03  -2.0195127e-03
   1.0671638e-04  -7.6376949e-05   2.7926025e-04   3.5146478e-04  -2.7398125e-04   1.9240182e-05  -9.4113502e-06   1.5179580e-04   1.5289780e-04   1.2113212e-05   7.3870680e-05   1.1150221e-04   6.0513633e-04   3.3470540e-04  -3.0681756e-05   8.5267692e-04   4.5961319e-04   1.8578722e-03   8.1185834e-05   2.3907806e-04   3.4420550e-04   2.5280096e-04   5.7131107e-05   1.3099852e-04  -2.7535475e-04  -6.3811801e-04  -2.5955634e-04   1.6827985e-03   7.0118404e-05  -2.4990452e-04   1.3852274e-03   2.3623423e-03  -2.2068335e-04   8.7049807e-04  -2.2340749e-04  -1.2603833e-04   3.6861753e-04  -2.0507752e-04   2.7728590e-04   1.4024354e-04  -6.1251147e-04  -1.5209096e-04  -8.8470371e-04   4.8844289e-04   6.8820744e-05   8.8843261e-04   3.2509453e-04  -2.5719777e-03  -1.2882847e-03  -1.9977167e-03
   8.0674590e-06  -8.2818638e-05   2.5749847e-04   3.5238321e-04  -2.6571428e-04   1.2230272e-05   5.8628348e-06   2.3473351e-04   8.3602463e-06  -1.3068847e-05   5.0203853e-05   7.0638853e-05   6.1056850e-04   3.7101866e-04   1.0930772e-04   9.0121513e-04   4.7967004e-04   1.8198923e-03   5.1753301e-05   2.5020100e-04   3.5047793e-04   2.8740350e-04   5.2166935e-05   1.2807953e-04  -1.9921584e-04  -5.2379089e-04  -2.7843792e-04   1.6235192e-03  -6.7007335e-05  -2.7088489e-04   1.3732620e-03   2.3171448e-03  -1.7356129e-04   8.3580031e-04  -2.1402408e-04  -1.5964193e-04   6.3887023e-04  -2.2156500e-04   2.6469640e-04   4.1158413e-04  -5.6726311e-04  -2.5511940e-04  -5.4235646e-04   3.8508358e-04   8.5062202e-05   1.1849777e-03   2.8007128e-04  -2.4546860e-03  -1.5390428e-03  -2.5320144e-03
  -3.7826940e-05  -8.4056061e-05   3.2854875e-04   3.3246042e-04  -2.9379062e-04  -4.8182125e-07  -3.5619352e-05   1.4207132e-04  -4.1442607e-05  -1.5324244e-05   5.1839284e-05  -3.7878766e-05   5.6838844e-04   3.8014780e-04   1.8179420e-04   8.5115037e-04   6.0699193e-04   1.7291049e-03   1.7098215e-04   1.9886612e-04   2.9370390e-04   1.5268887e-04   7.9196761e-05   6.2144572e-05  -5.8708702e-05  -6.2143320e-04  -9.2540286e-05   1.5477900e-03  -9.9864214e-05  -2.3249345e-04   1.6327583e-03   2.2953947e-03  -1.7749595e-04   9.0839609e-04  -1.1766139e-04  -1.0553683e-04   4.2095222e-04  -2.3388471e-04   2.8194502e-04   2.7295284e-04  -2.7053151e-04  -1.1291253e-04  -5.2688905e-04   4.1956885e-04  -4.9234673e-06   9.3314832e-04   5.3714274e-04  -1.7932920e-03  -1.7135902e-03  -2.7012811e-03
  -1.0078757e-04  -1.3871267e-04   4.8405924e-04   2.0264402e-04  -2.5537325e-04  -1.0408525e-05  -6.2417835e-06   2.5548672e-04  -2.9467442e-04   1.9852076e-05  -2.7278429e-04  -1.0544518e-04   4.4249900e-04   5.2187924e-04   2.8072257e-04   8.7749161e-04   1.0440075e-03   1.6391828e-03   1.8924114e-04   1.5769008e-04   1.4378486e-04   1.4745397e-04   8.5336345e-05  -2.2300085e-06   1.3788216e-04  -6.2106975e-04   1.1964679e-04   1.0480249e-03  -2.3226505e-04  -9.4736897e-05   2.2439691e-03   2.4014034e-03  -4.4539920e-04   1.1686638e-03   3.7403650e-05   1.3832934e-04   3.4324772e-04  -1.4899792e-04   4.5465876e-04   5.6144923e-05  -2.7357051e-05  -1.3195649e-04  -3.3250041e-04   4.3149362e-04  -2.8073373e-05   1.1548538e-03   5.5409491e-04  -2.4251516e-03  -1.5357590e-03  -2.5382133e-03
  -1.9529174e-04  -1.9135783e-04   5.7569437e-04   1.6937690e-04  -2.5295891e-04   5.1244191e-05  -4.5233724e-06   2.8149784e-04  -3.9274877e-04   5.2229851e-05  -3.3318944e-04  -8.9669506e-05   3.0243874e-04   6.4892205e-04   1.7587228e-04   7.8112289e-04   1.0021754e-03   1.4636858e-03   3.1077710e-04   1.4654023e-04   7.4030017e-05   1.0495416e-04   1.0528176e-04   2.9259478e-05   2.5482359e-04  -4.7623203e-04   2.9458926e-04   4.4781968e-04  -1.9670997e-04  -3.4128061e-05   2.1840122e-03   1.9977433e-03  -3.6162202e-04   9.9084980e-04   1.0404136e-04   2.0795755e-04   5.1073142e-04  -2.2904624e-04   6.6059199e-04   1.0641131e-04   1.7897321e-06  -1.0689165e-04   1.3525238e-03   6.6973583e-04  -8.8487168e-06   1.1044317e-03   5.0255528e-04  -3.1108870e-03  -1.2403275e-03  -3.8647202e-03
  -3.1506474e-04  -2.1751596e-04   7.2785944e-04   1.2592552e-04  -2.0990483e-04   1.5414401e-04   5.2162115e-05   6.1557529e-04  -4.8817787e-04   8.0369158e-05  -4.2831365e-04  -8.0683458e-05   3.0641510e-05   7.5850199e-04   2.8842283e-04   7.6345744e-04   8.5634668e-04   1.1994062e-03   2.1971847e-04   1.6040527e-04  -2.1438448e-06   3.7558624e-05  -3.4221958e-07  -8.8817418e-05   4.0699562e-04  -3.3398203e-04   2.3512598e-04  -2.7628231e-04  -2.6246914e-04   1.6435745e-04   2.1726948e-03   1.6113441e-03  -4.4272604e-04   9.1181835e-04   5.1986564e-05   4.7454904e-04   5.2783807e-04  -2.0233601e-04   6.3569658e-04   1.2698992e-04   3.0481804e-04   7.6878250e-06   6.7137153e-04   4.4800129e-04  -2.9304489e-05   6.7916350e-04   5.7155779e-04  -3.6305133e-03  -9.3440834e-04  -4.0717586e-03
  -4.2890274e-04  -2.2105347e-04   7.0870755e-04   1.2777056e-04  -1.9210536e-04   7.8709803e-05   4.9527625e-05   4.9047219e-04  -5.2302919e-04   6.3275773e-05  -4.9369002e-04  -1.0642217e-04  -2.8240373e-05   7.9110148e-04   2.0652372e-04   8.4889244e-04   8.2437508e-04   1.0904539e-03   2.6679688e-04   1.5419320e-04  -3.0028501e-05   4.3577911e-05   9.6234857e-05  -4.2494827e-05   4.2111427e-04  -3.8638458e-04   2.9644833e-04  -2.8713275e-04  -2.8129804e-04   1.7366634e-04   1.9731191e-03   1.3976339e-03  -1.8165693e-04   7.3270989e-04   1.1995060e-05   4.2314187e-04   5.8896281e-04  -1.9121947e-04   6.6013279e-04  -4.9049563e-06   1.2740769e-04  -1.2609990e-04   3.9989053e-04   9.1277977e-04  -3.4332166e-05   8.5525814e-04   8.0888520e-04  -2.0383494e-03  -1.2801047e-03  -3.3228591e-03
  -4.9466849e-04  -2.0989623e-04   6.3891825e-04   1.4480569e-04  -1.8275154e-04  -7.3009755e-07   4.1010811e-05   6.6223333e-04  -5.0926383e-04   7.7859506e-05  -4.2211416e-04  -9.6069190e-05  -9.3985991e-06   7.9611625e-04   2.8672788e-04   8.5787772e-04   7.8641396e-04   1.1265039e-03   2.6157461e-04   1.3715464e-04  -3.6448131e-05   1.9188503e-05   5.2792548e-05  -6.2018473e-05   4.4289979e-04  -3.4673748e-04   2.0562491e-04  -2.6763158e-04  -1.2656857e-04   1.8254350e-04   1.9512327e-03   1.4175839e-03  -2.4261442e-04   8.5607724e-04   1.9006098e-05   4.5801999e-04   4.9498369e-04  -1.9300236e-04   6.7270856e-04   6.4253538e-05   2.4073498e-04  -2.1931629e-04   1.1483869e-03   9.5588656e-04  -4.7675698e-05   9.1270451e-04   8.8192755e-04  -1.9372005e-03  -5.6036463e-04  -3.9074118e-03
  -4.6983667e-04  -2.1642496e-04   5.7267671e-04   1.4230420e-04  -1.8084042e-04   2.8270280e-05   6.5537199e-05   4.4136579e-04  -5.6491181e-04   6.3637337e-05  -4.5291995e-04  -1.3406696e-04   1.5601461e-05   7.9472974e-04   1.7501878e-04   8.4379397e-04   8.2902645e-04   1.0676907e-03   2.9908150e-04   1.4792020e-04  -3.6133526e-05   5.2480907e-05   2.8577597e-05  -3.8367136e-05   5.1131978e-04  -2.3452663e-04   2.4912096e-04  -4.2636067e-04  -7.3557567e-05   2.4656640e-04   2.0336667e-03   1.3860862e-03  -2.8600774e-04   8.0855552e-04   5.7370908e-05   3.9678902e-04   6.0452416e-04  -1.7727702e-04   7.3307502e-04   7.9502403e-05   4.5446686e-05  -1.1406981e-04   1.0418029e-03   5.7885580e-04  -6.0613263e-05   4.6719186e-04   7.0505566e-04  -1.9991887e-03  -1.4579240e-03  -4.7014132e-03
  -3.9415478e-04  -2.2408596e-04   6.6561985e-04   1.1456652e-04  -1.9640972e-04   1.3145500e-04   1.0242844e-04   4.0903364e-04  -5.0848094e-04   7.0992894e-05  -4.3465785e-04  -1.5041009e-04  -3.7461832e-05   9.0201612e-04   2.7293860e-04   7.8807649e-04   8.8132505e-04   1.0400880e-03   3.1839174e-04   1.5409100e-04  -8.2454455e-05   2.9826457e-05   1.0788153e-04  -5.2101903e-05   4.9880444e-04  -2.8204819e-04   2.7274247e-04  -5.6501897e-04  -3.2036469e-04   2.6052300e-04   2.1023739e-03   1.4270964e-03  -4.8242594e-04   8.9807494e-04   9.0619542e-05   5.1560410e-04   7.2731142e-04  -1.7214686e-04   8.4397016e-04   1.4339869e-04   2.6708271e-04  -2.2166700e-04   3.9967816e-04   5.3988019e-04  -3.7895923e-05   6.4165477e-04   8.8144751e-04  -1.5435703e-03  -4.9132865e-04  -4.0975460e-03
  -4.4705550e-04  -2.2346123e-04   6.0444890e-04   1.0778670e-04  -2.1642377e-04   7.3783711e-05   7.1482420e-05   7.1865477e-04  -5.8169151e-04   7.5259784e-05  -4.2141529e-04  -1.2284123e-04  -5.0247942e-05   7.6168583e-04   9.5699681e-05   7.5021130e-04   7.6674001e-04   9.6592004e-04   2.1880982e-04   1.6895137e-04  -7.6501274e-05   2.6902584e-05  -1.8274095e-06  -7.4720687e-05   7.0607290e-04  -1.6806429e-04   1.8426601e-04  -6.2633812e-04  -3.0292666e-05   3.2232856e-04   1.9378858e-03   1.2978952e-03  -2.9156730e-04   7.7061652e-04   9.1590016e-05   4.2339013e-04   5.5301317e-04  -1.3247598e-04   7.7065639e-04   1.3198475e-04   6.8779330e-04  -1.9699344e-04   1.5368722e-03   6.8983232e-04  -1.4932074e-04   7.2973786e-04   9.6902845e-04  -1.2076986e-03  -5.0942122e-04  -2.8121704e-03
  -4.4140778e-04  -2.1129144e-04   6.0115231e-04   1.2431959e-04  -1.7548024e-04   1.0235508e-04   9.0598427e-05   5.1174470e-04  -6.1384263e-04   7.7325749e-05  -3.8442339e-04  -1.6765262e-04  -8.7698190e-06   7.9103088e-04   9.6619588e-06   6.8848551e-04   7.4660225e-04   9.3562854e-04   3.0968880e-04   2.0974375e-04  -6.0403039e-05   3.9548264e-05   3.2001171e-05  -5.9468199e-05   6.6942291e-04  -1.9219647e-04   1.3552851e-04  -8.6568360e-04  -6.5392829e-05   3.0382114e-04   1.9545436e-03   1.3123825e-03  -4.9102172e-04   8.7740744e-04   1.6975687e-04   4.9118628e-04   4.8136513e-04  -1.1179593e-04   8.6783210e-04   5.2282427e-05   5.0191995e-04  -1.4148063e-04   1.3701706e-03   1.4552394e-03  -1.4298933e-04   5.1971414e-04   9.1157987e-04  -2.9125766e-04  -7.7318307e-04  -3.8272794e-03
  -4.0930070e-04  -1.8551678e-04   5.6192657e-04   1.5244237e-04  -2.0153739e-04   8.3510138e-05  -3.5605879e-06   3.2288546e-04  -5.0455169e-04   7.7194643e-05  -3.1228937e-04  -2.1107953e-04  -5.9274211e-05   8.4987853e-04   2.3459765e-04   4.1781573e-04   7.8862463e-04   7.5667765e-04   2.3322958e-04   2.1804418e-04  -1.4020198e-04   1.9101530e-05  -1.0777067e-05  -7.8531804e-05   8.7026507e-04  -9.1923815e-05   1.8141171e-04  -1.2168621e-03  -4.9739345e-05   4.5399243e-04   1.9309090e-03   1.0624821e-03  -1.9171485e-04   7.7567127e-04   2.1799174e-04   5.7418604e-04   5.2861549e-04  -9.8590965e-05   9.2264125e-04  -3.3313136e-05   7.8368571e-04   8.2226461e-06   5.2548927e-04   3.7514014e-04  -7.2931041e-05   1.4070985e-04   9.2098024e-04  -1.4493511e-04  -7.5644773e-04  -3.1215572e-03
  -4.1753703e-04  -1.9179811e-04   6.0492137e-04   1.2560727e-04  -2.0557227e-04   1.3058839e-04   6.1788334e-05   3.1675320e-04  -6.0511479e-04   6.2280378e-05  -3.1861974e-04  -2.9681210e-04  -8.6401335e-05   8.4162969e-04   1.9997949e-04   3.5736084e-04   7.9106557e-04   6.1318587e-04   1.5632667e-04   2.4087405e-04  -1.9890603e-04  -4.0691273e-05  -1.2858699e-04  -2.0965829e-04   9.6377509e-04   2.2833476e-05   2.1181509e-04  -9.6616894e-04  -4.1746654e-04   5.9785141e-04   2.0252350e-03   7.8651519e-04  -2.0387532e-04   8.1270566e-04   3.3163090e-04   7.0172868e-04   4.9735425e-04  -1.1055256e-04   9.3141315e-04   1.0927659e-04   5.2036188e-04   1.7620658e-05   1.2393941e-03   2.7036210e-04   3.7077603e-05   2.9063670e-04   7.2161696e-04  -3.9674179e-04  -1.0274008e-03  -4.2649116e-03
  -5.5990403e-04  -1.9551552e-04   5.8222638e-04   9.0056026e-05  -2.0106384e-04   1.4928721e-04   4.0454070e-05   1.6870770e-04  -7.1299111e-04   5.9451151e-05  -2.9096910e-04  -3.4607193e-04  -1.2868611e-04   7.7648793e-04   1.8833581e-04   2.1694136e-04   7.7106874e-04   5.8066525e-04   3.2763905e-04   2.3860652e-04  -2.5852464e-04  -1.2564854e-04  -1.7474666e-04  -2.8210803e-04   1.0520444e-03   9.4959672e-05   1.4814655e-05  -6.1998714e-04  -6.0047669e-04   5.2971375e-04   2.0683964e-03   7.1773113e-04  -4.3358211e-04   9.1109826e-04   3.9443417e-04   7.8342034e-04   5.6273642e-04  -2.0773786e-04   9.2018052e-04   5.2715517e-05   8.3921768e-04   5.6831224e-05   5.7273003e-04   8.3681080e-04  -8.7988534e-05  -6.6709334e-05   8.4619148e-04  -8.7541310e-05  -6.6115096e-04  -4.7524860e-03
  -5.5071578e-04  -1.9126345e-04   3.9571393e-04   9.1191221e-05  -2.4488923e-04   1.3340639e-04   1.9325271e-05  -7.2370502e-05  -7.2186091e-04   4.4374963e-05  -2.7556453e-04  -2.5153192e-04  -1.3150975e-04   6.0893421e-04   7.8660138e-05   2.7610554e-04   5.6833017e-04   5.0320738e-04   1.8770692e-04   1.9519022e-04  -2.3272559e-04  -1.0096197e-04  -1.5864518e-04  -1.1992314e-04   1.0366554e-03   4.7852853e-05  -1.1699328e-06  -5.6147075e-04  -6.2978949e-04   4.2528551e-04   1.5858880e-03   3.7968322e-04  -6.0523125e-05   6.5006566e-04   3.7353177e-04   6.3108391e-04   4.9588340e-04  -2.1519467e-04   8.5182348e-04  -4.0300718e-05   8.8314142e-04   2.7419357e-05   1.2113361e-03   7.0386293e-04  -2.0846406e-05   3.7202233e-05   8.1952353e-04   9.6028100e-04   1.2115999e-03  -3.2683667e-03
  -6.2122679e-04  -1.5885706e-04   4.1533701e-04   1.3352348e-04  -2.1692540e-04   5.9650447e-05  -1.5827962e-05   3.8334189e-04  -5.9078826e-04   1.1910737e-05  -2.7130448e-04  -2.4497879e-04  -1.2992832e-04   5.5079861e-04   1.6606500e-04   3.0994770e-04   4.3797027e-04   4.3183766e-04   2.9340576e-04   1.6168649e-04  -2.1312028e-04  -4.7624457e-05  -1.1923707e-04  -7.8591358e-05   8.4180431e-04   5.0887626e-05   6.3672975e-05  -7.6254236e-04  -6.3348358e-04   3.7027767e-04   1.0933189e-03   1.9415705e-04  -1.6731993e-04   4.3132139e-04   2.8674258e-04   5.4343510e-04   1.6115140e-04  -2.0753172e-04   5.3425657e-04  -1.3217985e-04   5.3222087e-04  -1.0878497e-04   7.4508303e-04  -3.8961909e-04   5.4364886e-05   5.2831357e-04   4.9828022e-04   1.1000421e-03   4.7334656e-04  -1.8362493e-03
  -4.2037779e-04  -9.7072640e-05   3.1197871e-04   2.2202304e-04  -1.6396759e-04   7.8902895e-06  -3.8169087e-06   3.4033647e-04  -4.1192074e-04  -1.3674907e-06  -1.1250489e-04  -1.6456201e-04  -5.9825437e-05   3.0492601e-04   5.0176543e-05   3.1700244e-04   2.7643703e-04   4.4641711e-04   1.7811757e-04   1.6216043e-04  -1.0080254e-04   1.7854929e-06  -1.5742306e-04   5.0834900e-05   7.0872949e-04   6.0187631e-05  -7.3399926e-05  -9.4129029e-04  -2.3789171e-04   2.7785113e-04   6.9445680e-04   1.2787859e-04  -2.0186351e-05   3.0856862e-04   3.1619394e-04   4.8365796e-04   7.9491401e-05  -2.2774286e-04   4.5581331e-04  -3.8733215e-05   3.6440042e-04  -3.8149676e-05   8.9979928e-04   1.1515387e-04  -6.3120016e-05   3.4924355e-04   3.7195053e-04   1.5304249e-03  -1.0955600e-03  -1.9022455e-03
  -4.6298685e-04  -6.4809807e-05   2.8810237e-04   2.5070607e-04  -1.3893394e-04   5.2485764e-05   2.9252085e-05   1.1712862e-04  -3.5520483e-04  -3.6876576e-05  -9.1083712e-05  -1.6891678e-04  -2.7511345e-05   3.3095057e-04   3.9723673e-05   3.2329650e-04   2.8281170e-04   4.0226834e-04   1.9802207e-04   1.5537250e-04  -6.9964626e-05   6.4507629e-05  -1.7615341e-04   4.6892885e-05   8.1337406e-04   5.7623918e-05   9.5256692e-05  -8.9371402e-04  -2.0445290e-05   3.0283502e-04   7.8094890e-04   1.6001647e-04  -2.0338783e-04   4.0526714e-04   3.5857590e-04   4.6748942e-04   4.1120191e-04  -1.8258940e-04   5.2621058e-04   2.6058942e-05   5.0787104e-04  -1.1664012e-04   6.5493432e-04   6.6289998e-04   4.9261991e-05   1.2093827e-04   2.7099357e-04   8.8010373e-04  -4.8029938e-04  -2.7275702e-03
  -4.1675987e-04  -4.3797143e-05   2.9696422e-04   2.6008266e-04  -9.8819801e-05  -7.7756731e-06   3.7935901e-05  -3.2273974e-04  -1.7575253e-04  -2.2247039e-05  -2.0299653e-05  -1.2754320e-04  -1.9077759e-05   2.6950616e-04  -6.9597074e-05   2.5496021e-04   2.4483513e-04   3.9451956e-04   3.1614833e-04   1.6073979e-04  -6.4440297e-05   8.7776440e-05  -8.6694687e-05   2.4249861e-05   7.1218621e-04   3.8273636e-05   2.7173714e-05  -6.6453952e-04  -2.7766061e-04   2.2790389e-04   6.8906421e-04   1.4759814e-04  -1.0318391e-04   3.0429129e-04   2.2493693e-04   4.4421692e-04  -8.7526474e-05  -1.6726613e-04   5.2398711e-04   9.0979149e-05   4.3657649e-04  -8.5284701e-05   7.5088401e-04   2.7165550e-05  -5.2486968e-05  -5.6047061e-06   1.8805111e-04   9.1025513e-04  -5.1443028e-04  -2.5118354e-05
  -3.6958055e-04  -2.2087166e-05   2.7256846e-04   2.6635174e-04  -1.1232944e-04   4.8578182e-05   4.2264171e-05   6.2025028e-05  -2.4560632e-04  -3.8402184e-05  -1.7520337e-05  -1.5773794e-04   3.1686241e-06   2.7747056e-04  -1.5054627e-06   2.3084848e-04   2.6332928e-04   3.6879515e-04   1.4536982e-04   1.5925179e-04  -5.9909627e-05   5.4561689e-05  -7.0143098e-05   6.3349631e-05   6.7187805e-04   5.9748370e-05  -7.5431955e-05  -6.4118701e-04  -3.3025310e-04   2.7979806e-04   7.0665346e-04   1.5171534e-04  -2.4104219e-04   3.9889899e-04   2.9672388e-04   4.0564287e-04  -3.7471269e-05  -1.9418812e-04   4.3869886e-04   4.2895425e-07   4.7865385e-04  -2.0373463e-05   9.6841919e-04   3.4585097e-04   2.9527240e-05   2.3086528e-04   1.3177861e-04   1.3449610e-03  -8.0359884e-04  -2.1532453e-03
  -3.3391747e-04  -1.2964664e-05   2.9504759e-04   2.8607374e-04  -9.0254478e-05   6.9527843e-05   5.7429828e-05   1.1260800e-04  -3.1600098e-04  -5.1587420e-05  -4.1360094e-05  -1.9819551e-04  -2.5034087e-06   2.9760992e-04  -1.3760886e-05   2.1466739e-04   2.6886794e-04   3.4678652e-04   2.0068658e-04   1.6114190e-04  -5.1453520e-05  -1.1240686e-05  -1.5139180e-04   5.5291981e-05   7.2634604e-04  -4.1966719e-05  -6.9475995e-05  -6.2974694e-04  -3.1908584e-04   2.8103162e-04   7.4044260e-04   1.4977226e-04   7.7179437e-05   3.4086083e-04   2.7211406e-04   4.2989611e-04  -1.9215769e-05  -2.5191423e-04   4.6525415e-04   8.0241334e-05   4.5091641e-04  -7.4450814e-05   5.7420862e-04   1.1420817e-03   2.2012733e-05  -1.1307156e-05   1.0711057e-04   8.5354148e-04  -1.7458090e-04  -2.5640151e-03
  -4.2193814e-04  -4.0138098e-06   3.4137187e-04   2.8658408e-04  -9.4410643e-05   8.2021623e-05   5.0955234e-05   4.1069554e-05  -1.0399059e-04  -5.2992444e-05  -7.4505074e-06  -2.2622340e-04  -6.0705311e-06   3.3855834e-04  -7.9500220e-05   1.9591936e-04   3.0139452e-04   3.3807394e-04   3.6460164e-04   1.5045192e-04  -8.7971508e-05   2.0808520e-05  -1.0968462e-04  -6.6895329e-05   7.7860244e-04  -4.8225236e-05  -1.1356821e-06  -6.3299644e-04  -1.0767442e-04   2.8874094e-04   7.6684868e-04   1.3131143e-04  -2.7234666e-04   3.1502210e-04   2.4407856e-04   3.8957063e-04  -2.7128384e-05  -2.6186748e-04   4.9372239e-04   1.4982019e-04   2.6652624e-04  -9.9030360e-05   3.5411047e-04   8.4830477e-04   4.9183000e-05   2.5902610e-04   1.7770749e-04   1.2466263e-03  -6.9686043e-04  -1.7657815e-03
  -3.2894209e-04  -4.5139741e-06   3.2836726e-04   2.8039407e-04  -1.0096738e-04   4.2475309e-05   5.6738809e-05  -1.6304059e-05  -2.8037321e-04  -7.4713622e-05  -1.3446405e-05  -2.8135613e-04   1.5360736e-05   3.2251733e-04  -7.6922552e-05   1.8237488e-04   3.2773911e-04   3.0246429e-04   2.2480296e-04   1.3368971e-04  -9.0617563e-05   5.9164537e-05  -7.9245445e-05  -6.4252825e-05   7.5465895e-04   4.8564181e-07   2.6690905e-05  -6.3800829e-04  -3.9482242e-04   2.6668262e-04   7.9734810e-04   1.0616025e-04   3.1632437e-05   3.3700943e-04   2.6279633e-04   3.4898650e-04   8.1978933e-06  -1.7824289e-04   2.8371823e-04  -5.0282273e-05   3.8237029e-04  -5.8549460e-05  -5.4416632e-05   1.0647675e-03  -1.1423023e-05  -2.0666776e-05   2.7592052e-04   4.6792295e-04  -6.8364909e-04  -2.6720783e-03
  -3.0881239e-04   3.4102552e-06   3.3069734e-04   2.8233381e-04  -8.6345965e-05   8.2676888e-05   2.2390335e-05   3.6746067e-05  -3.0486562e-04  -8.3735569e-05  -4.8275389e-05  -3.1131710e-04   5.8709784e-06   3.2835340e-04   6.7769804e-05   2.2126504e-04   3.2730537e-04   2.9017442e-04   2.7160408e-04   1.3971509e-04  -8.8471832e-05   2.4400504e-05  -1.4178763e-04  -5.2776588e-05   7.6836348e-04  -5.2133022e-05  -2.0639873e-05  -5.9843640e-04  -2.9908516e-04   3.1280128e-04   7.6416985e-04   8.0628561e-05  -1.7895852e-04   3.4015896e-04   2.0588568e-04   5.1987299e-04   1.1064206e-04  -2.0243709e-04   5.0059898e-04  -2.7960097e-05   4.4390248e-04  -6.2077321e-05   1.0101472e-03   5.8191799e-04  -1.2310751e-04   2.9262734e-04   1.4870601e-04   6.9379300e-04  -6.2826154e-04  -1.1575698e-03
  -3.3932406e-04   4.1174212e-06   3.1208096e-04   2.6467064e-04  -8.9326692e-05   9.4775649e-05   7.7754994e-05  -9.0417612e-05  -1.9068972e-04  -6.2722102e-05  -1.8771918e-05  -3.2776516e-04   1.5654055e-06   4.0695659e-04   7.7852637e-05   1.8632376e-04   3.7469121e-04   3.2051248e-04   1.3922792e-04   1.3585210e-04  -1.0719373e-04   9.0705717e-06  -6.3566848e-05  -1.1432637e-04   7.2173675e-04   8.3313709e-05  -5.3979547e-05  -5.8839406e-04  -4.1534766e-04   2.7932439e-04   9.1317372e-04   1.5109029e-04  -2.9647606e-04   4.0733928e-04   3.1008889e-04   4.1640166e-04   1.4215241e-04  -1.9521618e-04   4.9775006e-04  -6.9954127e-05   5.9875107e-04  -9.3087408e-05   2.7311649e-04   2.8618624e-05  -3.6465579e-05   1.1733392e-04   1.9458974e-04   2.4152981e-04   5.9940398e-04  -2.0060614e-03
  -3.1626143e-04  -3.3342330e-06   3.1298862e-04   2.5433558e-04  -9.6097094e-05   1.0343456e-04   4.3429431e-05  -1.7727108e-04  -3.2763343e-04  -8.2247549e-05  -4.2058658e-05  -3.7376725e-04  -2.3976709e-05   3.9444090e-04   1.1079658e-04   2.0142633e-04   3.9735742e-04   2.9385346e-04   2.5814518e-04   1.3583743e-04  -1.1064506e-04   1.1333952e-05  -1.6845721e-04  -1.0382768e-04   7.7718979e-04   9.8024480e-05   4.6203932e-05  -5.4631219e-04  -2.0594432e-04   3.0479353e-04   9.3049562e-04   1.5667155e-04  -8.2412211e-05   4.3864397e-04   3.5866574e-04   3.1382794e-04   1.1187514e-04  -1.8485374e-04   4.3613813e-04   1.0714220e-05   5.5941253e-04  -1.2485149e-05   1.4889736e-03   5.5173878e-04  -3.4668610e-05  -1.4992546e-04   1.9514828e-04   5.4750830e-04   7.7681681e-05  -1.7417804e-03
  -3.0763983e-04   1.5006371e-07   3.6484763e-04   2.6217182e-04  -9.4713003e-05   1.2549206e-04   6.2710053e-05  -7.1648254e-05  -2.0697096e-04  -5.2928077e-05  -3.9563212e-05  -3.0344253e-04  -1.1959512e-05   3.6929423e-04   4.3926357e-05   1.9056375e-04   3.8768849e-04   3.1282994e-04   1.8324242e-04   1.5031100e-04  -1.1655624e-04   1.9032972e-05  -1.1684716e-04  -3.2328167e-05   7.9097570e-04   3.2543452e-05   3.2598520e-05  -5.0697150e-04  -1.5632894e-04   3.5414475e-04   9.4860879e-04   1.9479539e-04  -4.6669422e-05   4.0141511e-04   3.5754684e-04   2.9611884e-04   1.1268842e-04  -1.5486067e-04   4.6423697e-04  -2.7301232e-07   4.2093362e-04  -1.0083592e-04   2.2562248e-04   4.0711329e-04  -4.0698233e-05   1.2631320e-04   2.9308361e-04   6.3864741e-04  -3.1099078e-04  -9.9006086e-04
  -3.2074738e-04   3.0878439e-06   3.6396849e-04   2.5766596e-04  -1.1110826e-04   1.1071584e-04   5.7998641e-05   1.1459211e-04  -2.7691454e-04  -6.3127249e-05  -4.3895405e-05  -3.5364399e-04   4.6747082e-06   3.4917731e-04   5.7568461e-05   1.8714403e-04   4.0911464e-04   3.0526021e-04   1.0082272e-04   1.5051640e-04  -1.1600251e-04   4.5506004e-06  -5.0199033e-05  -7.5005104e-05   8.2890718e-04   7.1070041e-05  -1.7549868e-05  -4.9571553e-04  -5.9228612e-04   3.1656271e-04   8.7593927e-04   1.7462266e-04  -1.6818348e-04   4.1664456e-04   3.3340353e-04   4.2753416e-04   3.2626244e-04  -1.4391965e-04   5.1763747e-04   7.5172011e-06   4.2696792e-04  -3.6938603e-05   1.3748642e-04   3.6961419e-04  -6.4998909e-05   7.4610512e-06   1.9094220e-04   2.0812645e-04  -8.8037306e-04  -2.0737853e-03
  -3.2436551e-04   8.9012274e-06   3.3525648e-04   2.5466963e-04  -6.5956403e-05   1.6238484e-04   5.4286469e-05  -9.0743692e-05  -2.3557182e-04  -6.5887543e-05  -6.1172999e-05  -3.4336536e-04   1.0178196e-05   4.1200305e-04   1.9695477e-05   1.8019493e-04   3.6368458e-04   2.9574466e-04   1.6625749e-04   1.6002079e-04  -8.5011496e-05   3.6462232e-05  -1.5180196e-04  -3.4015935e-05   7.5242837e-04   3.4546756e-05   5.0213555e-05  -4.9768441e-04  -3.7817558e-04   3.2479168e-04   9.2356734e-04   2.5052048e-04  -5.4282082e-05   4.8793660e-04   3.0919962e-04   3.9943968e-04   2.9436467e-04  -1.1591655e-04   3.8745935e-04   1.6610711e-05   2.9232321e-04  -1.3184741e-04   4.2866098e-04   4.8640274e-04   8.9874693e-06   3.5829621e-04   1.3557657e-04   7.5921341e-04  -7.4512797e-04  -1.3034551e-03
  -1.7877962e-04   2.0298456e-05   2.8545261e-04   2.6416450e-04  -7.7911056e-05   1.3473882e-04   6.7762652e-05   1.2413473e-04  -2.0332342e-04  -3.9796065e-05  -1.6396318e-05  -2.5387603e-04  -7.7248742e-06   3.4694831e-04   3.7257440e-05   2.0482438e-04   3.2995158e-04   2.8578236e-04   1.1453859e-04   1.7197020e-04  -8.3998144e-05   1.5123590e-05  -4.1862051e-05   2.6028794e-05   7.6520722e-04  -1.0323067e-05  -6.7678811e-05  -3.8174816e-04  -1.4824426e-04   3.0578405e-04   8.5080025e-04   2.5012856e-04  -2.3364335e-04   4.2829636e-04   3.0613181e-04   3.7968069e-04   2.3112237e-04  -1.4234519e-04   3.8743840e-04   4.2173501e-06   4.7483732e-04  -1.4936937e-04   6.3424557e-04   4.5904642e-04  -2.8213759e-05  -7.8230507e-05   2.0136316e-04   1.0686599e-03  -1.3726250e-03  -2.4331426e-03
  -2.3171454e-04   3.1729560e-05   2.9276041e-04   2.5783293e-04  -5.9699105e-05   9.0100089e-05   1.4906175e-05   8.5518281e-05  -2.2391755e-04  -3.3757133e-05  -3.1287680e-05  -2.1324534e-04   3.5494049e-05   2.9792279e-04  -3.9878763e-05   1.9540143e-04   2.4710991e-04   2.4062306e-04   3.5718406e-04   1.6939624e-04  -4.5385284e-05   4.6174653e-05  -5.0013550e-05   5.8031172e-05   6.0477870e-04  -3.1229458e-05  -1.5464923e-04  -3.5594849e-04  -2.9935490e-04   3.0421332e-04   6.6851662e-04   1.8789919e-04   9.8814322e-05   4.0025258e-04   2.2874592e-04   3.3939385e-04  -2.8802602e-05  -9.4422001e-05   4.1670699e-04   2.7553006e-05   2.4526773e-04  -7.2392475e-05  -1.5084310e-04   9.4125106e-05  -6.5210515e-05   2.2015150e-04   1.6946903e-04   8.1119913e-04   2.9999917e-04  -1.2160853e-03
  -2.3553827e-04   4.7647474e-05   2.6354383e-04   2.9161162e-04  -4.7257676e-05   1.5078127e-04   5.9221224e-05   1.2248616e-04  -7.3592601e-05  -4.7887475e-05  -3.8845839e-05  -2.4930880e-04   4.7841245e-06   3.0541929e-04  -2.7159043e-05   1.7807289e-04   2.7241916e-04   2.2710502e-04   1.9034883e-04   1.6664811e-04  -6.6235902e-05   5.7665398e-05   5.3559088e-05   7.4579925e-06   7.6552806e-04   9.1141323e-05  -9.4579394e-05  -3.1614077e-04  -1.9253268e-04   2.7119034e-04   6.8067340e-04   2.1230236e-04   5.8463262e-05   4.2780917e-04   2.7753497e-04   3.9277558e-04   2.0360305e-04  -1.4259857e-04   4.5063958e-04   4.4179964e-05   2.3286056e-04  -5.4710272e-05   9.1000582e-04   7.4572396e-04  -8.4643667e-05   7.1684335e-05   3.0596129e-05  -1.7886621e-05   9.4830801e-05  -2.4245938e-03
  -2.0437673e-04   5.4955330e-05   2.7875113e-04   2.8657267e-04  -3.7819947e-05   1.7922853e-04   9.2551811e-05  -1.9028746e-04  -1.8009526e-04  -2.5670755e-05  -1.7924964e-05  -2.4319925e-04   3.4795863e-05   2.4000244e-04  -8.6194341e-06   1.7834405e-04   2.5048410e-04   1.9600145e-04   3.3087353e-04   1.5613867e-04  -5.6301455e-05   6.2629028e-05  -2.9002320e-05   4.8589271e-05   6.0635572e-04   2.6839254e-05  -3.6893183e-05  -3.1209469e-04  -3.0561158e-04   3.1089527e-04   6.1057328e-04   1.4465682e-04  -4.0870629e-05   3.7489878e-04   2.7968801e-04   3.9827346e-04   1.8809104e-04  -1.2373127e-04   3.5933536e-04  -6.5528562e-05   2.8471454e-04  -3.2465407e-05   4.8965705e-04   1.5181773e-04  -4.2193798e-05  -1.1923021e-04   1.5666516e-05   7.6637120e-04  -1.7118930e-03  -1.0763083e-03
  -1.0984483e-04   6.1389321e-05   2.5306860e-04   2.9565956e-04  -5.6840541e-05   1.2993114e-04   8.7052656e-05   1.8071884e-04  -1.2816949e-04  -4.0790190e-05  -3.2686330e-05  -2.5661293e-04   1.3218423e-05   2.0261535e-04  -2.4049048e-05   2.6992365e-04   2.2131698e-04   1.4986962e-04   1.9711291e-04   1.6573479e-04  -3.5614255e-05   1.1457225e-04   2.2876176e-05   6.6187109e-05   6.1328814e-04  -1.2236000e-05  -2.8596458e-05  -3.3192107e-04  -2.1280843e-04   3.0076070e-04   5.4265436e-04   7.6621291e-05   5.6407891e-05   2.8537677e-04   3.1154521e-04   4.7003079e-04   1.6347358e-04  -9.9643468e-05   3.8927069e-04   6.6192719e-05   3.0129898e-04  -1.0416886e-04   9.4495161e-04   5.3458428e-04  -9.2858310e-05   1.2546619e-04   6.7610512e-05   9.5260428e-04  -1.7808347e-04  -1.8066182e-03
  -1.2012795e-04   6.6273533e-05   2.3972457e-04   2.9162309e-04  -2.3088087e-05   2.2397506e-04   8.2405531e-05   4.5758959e-05   2.8441186e-06  -4.5066408e-05  -2.8297920e-05  -2.6006743e-04  -1.8223689e-06   1.6762929e-04  -4.2302530e-05   1.9614089e-04   2.3008794e-04   1.2889462e-04   3.0203542e-04   1.6174748e-04  -6.3494190e-05   1.0828392e-04   6.5905158e-05   5.4862558e-05   5.8399217e-04   4.7875910e-05  -1.2931721e-04  -3.4237243e-04  -7.9206140e-05   2.5162110e-04   5.3421105e-04   7.6508280e-05   1.3627257e-05   2.8310114e-04   2.7135559e-04   3.6280684e-04   4.6646222e-05  -1.3823697e-04   3.8211016e-04  -3.8648719e-05   2.7991255e-04  -7.2418945e-05   5.8341905e-04   7.4270280e-04  -6.5723812e-05  -1.1174057e-04   6.4248663e-05   8.5254328e-04  -7.2414969e-04  -1.9936904e-03
  -1.7440139e-04   6.5401990e-05   2.7060841e-04   2.8076471e-04  -6.2514868e-05   1.7458385e-04   3.3335073e-05  -2.4990863e-04  -1.7667888e-04  -5.3476113e-05  -2.5377416e-05  -2.9583430e-04   1.7275170e-05   2.7463856e-04  -1.8482289e-05   1.5796827e-04   2.4235909e-04   1.2609933e-04   5.1612860e-05   1.6635928e-04  -5.6719415e-05   7.4921372e-05  -4.9267055e-06  -1.4453295e-05   5.5534474e-04  -7.2622297e-06  -1.3652976e-04  -3.3492412e-04  -2.9135068e-04   2.3841481e-04   5.5365416e-04   7.0305679e-05  -2.3137707e-04   2.6305491e-04   2.8158209e-04   3.7521159e-04   2.8893977e-04  -1.3577077e-04   3.6286487e-04   9.2130162e-05   6.7927130e-04  -1.3159886e-04   3.7894715e-04  -1.4931460e-05  -6.8841342e-05  -1.1002741e-04  -2.6168655e-05   4.2004100e-04  -7.5440021e-04  -2.6710746e-03
  -2.6448615e-04   6.5624146e-05   2.5914155e-04   2.7216793e-04  -4.2274060e-05   1.5401190e-04   7.7935765e-05  -3.9920546e-05  -2.0682975e-04  -7.6496501e-05  -4.0573446e-05  -3.5151190e-04   1.1398208e-05   2.8140738e-04   1.1011039e-05   1.9214369e-04   2.6544262e-04   1.2471208e-04   3.8491117e-04   1.6353330e-04  -4.3110642e-05   4.9037215e-05  -5.2156252e-06  -6.6174485e-05   5.4457597e-04   6.2380743e-05  -3.8864167e-05  -3.5888987e-04  -2.7112023e-04   3.0392592e-04   6.4912153e-04   6.7429013e-05   2.4760488e-05   3.0046227e-04   2.6629952e-04   4.8957788e-04   2.7994110e-04  -1.7847281e-04   3.8816908e-04   6.4076259e-05   2.7258662e-04  -9.7859360e-05   6.0723920e-04   4.9049285e-04  -6.4896347e-05   2.2688313e-04   5.6929981e-05   8.6554285e-04  -1.6192325e-03  -1.1652205e-04
  -1.8361145e-04   6.4905122e-05   2.7009362e-04   2.8703726e-04  -4.3091604e-05   8.2673592e-05   2.4543309e-05   6.8130816e-05  -3.1394078e-04  -5.0696544e-05  -3.5250792e-05  -3.2271058e-04  -2.4429821e-06   1.5743206e-04  -6.3369935e-06   1.3439044e-04   2.7611986e-04   1.2123369e-04   2.5248496e-04   1.4554607e-04  -6.9132569e-05   4.2229192e-05   2.3576462e-05  -9.0513582e-05   6.3672720e-04  -5.8148617e-05  -8.7225068e-05  -3.5685336e-04  -3.6176579e-04   2.6761254e-04   6.1995204e-04   7.6177879e-05  -1.3595552e-04   2.8664136e-04   2.8829189e-04   4.2930449e-04   9.1894173e-05  -1.5301217e-04   3.8322236e-04  -1.1173631e-04   5.0429656e-04  -9.3342001e-05   9.6718280e-04  -2.9273349e-04  -1.1397040e-04   1.9869658e-05   6.1522362e-05   7.1639777e-04  -7.5391133e-04  -1.7313462e-03
  -2.3906282e-04   5.6661127e-05   2.4902445e-04   2.7400700e-04  -5.4579210e-05   1.2291664e-04   6.2255756e-05  -9.1717608e-05  -2.1909611e-04  -7.2319388e-05  -4.8080365e-05  -3.4747660e-04  -1.4921849e-05   2.6865280e-04  -8.4582207e-05   2.1022951e-04   2.8542141e-04   1.2618527e-04   2.3655381e-04   1.5752538e-04  -6.4619409e-05   5.9087855e-05   4.7259218e-05  -8.1604187e-05   5.6452031e-04  -6.9820449e-06  -1.4022490e-05  -3.5303706e-04  -3.9650861e-04   2.9427174e-04   6.9039536e-04   9.7412121e-05  -6.8190348e-05   3.2805090e-04   2.9508703e-04   4.7986049e-04   1.1293571e-04  -1.6877265e-04   4.1463235e-04   1.7392045e-05   4.1524059e-04  -1.4438853e-04   4.7547260e-04  -1.5823013e-04  -1.2027401e-04   3.5382307e-04   5.3724787e-05   3.8862613e-04  -4.6526577e-05  -1.0797459e-03
  -1.4617429e-04   5.7829526e-05   2.6227336e-04   2.6813184e-04  -7.4270669e-05   1.5667487e-04   6.0544321e-06  -2.4575673e-04  -2.3427526e-04  -8.1049940e-05  -5.0776656e-05  -3.3655670e-04  -2.9027060e-05   2.2378660e-04   1.1362872e-04   1.4754661e-04   2.8851928e-04   1.2863139e-04   1.9873715e-04   1.5010343e-04  -7.9096812e-05   1.5010298e-05  -8.8591478e-05  -6.3002124e-05   5.7870400e-04  -1.5793474e-05  -1.1588264e-04  -3.7117145e-04  -4.4328722e-04   2.9774138e-04   6.2912895e-04   1.1349418e-04  -3.0993883e-04   3.3327617e-04   2.9140906e-04   3.0916752e-04   1.9242291e-04  -1.5793683e-04   3.7492707e-04  -5.5964432e-05   5.7232688e-04  -1.5807828e-04   5.8689242e-04   6.0061411e-05  -1.1029450e-04   2.4039540e-04   1.8790644e-05  -9.9888501e-05   1.6042382e-04  -2.4738209e-03
  -1.8507469e-04   5.4660261e-05   2.9178851e-04   2.5425054e-04  -6.4854961e-05   1.2431905e-04   7.9547528e-05   2.1322320e-04  -1.5302566e-04  -5.7773374e-05  -3.8587496e-05  -3.1740457e-04  -2.1116115e-05   2.8044617e-04   1.5182054e-05   1.6285141e-04   2.8226356e-04   1.3455117e-04   2.5149793e-04   1.4754245e-04  -7.6014185e-05   3.4651359e-05  -7.7058998e-05  -1.2416093e-04   5.4632500e-04   4.0031380e-05  -1.1050193e-05  -3.3705719e-04  -1.8781179e-04   2.7406897e-04   7.0418353e-04   1.5212387e-04  -7.7186007e-05   3.4984958e-04   2.6784663e-04   3.7199189e-04   2.4634248e-04  -1.3289507e-04   3.1915258e-04  -3.7812068e-05   5.2374962e-04  -1.4695767e-04   5.4666377e-04   8.4057130e-04  -9.0243157e-05   3.5384252e-05   6.3675339e-05   7.5365172e-04  -1.3069138e-03  -7.0513500e-04
  -2.6006706e-04   4.8362399e-05   2.9549017e-04   2.5052036e-04  -6.7967077e-05   1.3665472e-04   2.0389814e-05  -1.0465521e-04  -3.3445051e-04  -7.2378920e-05  -6.8880356e-05  -3.4736027e-04   1.5751257e-06   2.1927945e-04  -1.5416354e-05   1.9410836e-04   2.9191925e-04   1.2639300e-04   3.1046284e-04   1.4068755e-04  -6.9867696e-05   3.1948377e-05  -3.4060766e-05  -1.1513688e-04   6.3854072e-04   3.1666183e-05   5.0005427e-05  -3.5201429e-04  -2.5567913e-04   2.7952777e-04   6.7811919e-04   1.2911957e-04   6.0926766e-05   3.2062471e-04   2.5044303e-04   4.2911997e-04   1.5543702e-04  -1.2653969e-04   4.3767761e-04  -6.0162671e-05   3.7561046e-04  -1.5108559e-04   2.5723345e-04  -8.0411291e-06  -9.8112105e-05   1.4399498e-04   1.3986378e-05   9.0902834e-04  -1.5887312e-03  -1.4065796e-03
  -1.2280246e-04   4.5568635e-05   2.4681681e-04   2.5542849e-04  -6.8385496e-05   6.5638189e-05  -1.3435004e-05   1.8153833e-06  -1.6594616e-04  -5.9878319e-05  -2.9177942e-05  -2.7930428e-04  -2.8720111e-05   2.4154554e-04  -3.1399850e-05   2.4246007e-04   2.6772989e-04   1.2995834e-04   1.8659294e-04   1.4913789e-04  -8.6391898e-05   2.9738769e-05  -1.0543231e-04  -1.1510907e-04   5.7056005e-04  -1.3196068e-05   4.3310247e-05  -3.2667289e-04  -3.8396465e-04   3.0958210e-04   6.5070024e-04   1.4172443e-04   1.4837984e-05   2.7113452e-04   2.0863152e-04   3.6487007e-04   1.9047911e-04  -1.2551158e-04   3.7245519e-04  -6.2630061e-05   3.9908505e-04  -1.7611896e-04   4.9246126e-04   5.6992332e-04  -2.1136460e-04  -2.8329843e-05   2.4943880e-04   1.0201134e-03  -3.3307818e-04  -2.5165346e-04
  -1.9379971e-04   5.2300817e-05   2.8356438e-04   2.4428801e-04  -6.7606408e-05   6.8816866e-05   4.8022437e-05  -1.1887605e-04  -2.2390333e-04  -7.0707254e-05  -3.0065436e-05  -3.2195426e-04  -2.5914305e-05   2.0746389e-04  -4.6846402e-05   1.7770262e-04   2.5690446e-04   9.2279050e-05   2.7114723e-04   1.3972002e-04  -8.7994180e-05  -3.8924391e-05  -6.9158654e-05  -3.9267470e-05   4.9295143e-04  -2.2536573e-05  -5.7724908e-05  -3.3191228e-04  -3.3643239e-04   2.9636701e-04   6.4440741e-04   7.5568278e-05  -6.0610953e-05   2.8686167e-04   2.7942643e-04   3.6503270e-04  -6.9531816e-05  -1.5986423e-04   2.4492326e-04   2.0281674e-05   4.7471662e-04  -1.2512942e-04   4.9827329e-05   7.0517941e-04  -1.4454417e-04  -2.8684718e-04  -1.5077437e-05   2.4964411e-05  -7.4591069e-04  -1.4444183e-03
  -1.6069684e-04   5.3707539e-05   2.4532920e-04   2.4295472e-04  -4.2615353e-05   7.2355142e-05   3.7391153e-05  -7.5557349e-05  -2.3831300e-04  -7.3322124e-05  -4.0143772e-05  -3.3626732e-04  -3.9475552e-05   2.5642995e-04  -6.6048428e-06   2.2396148e-04   2.6595843e-04   1.1431400e-04   2.7106530e-06   1.4325112e-04  -7.8090787e-05  -4.9889506e-05  -9.7520300e-05  -1.5661630e-04   5.5772904e-04  -1.9877169e-05  -7.4831246e-06  -3.5687006e-04  -1.2744540e-04   2.7117430e-04   7.9670065e-04   1.1156046e-04  -1.7227551e-04   3.7238837e-04   1.7688442e-04   2.4735404e-04   1.9445515e-04  -1.3299685e-04   3.9188791e-04  -6.3403058e-05   6.6898734e-04  -6.7286041e-05   9.7704865e-04   5.9557526e-05  -6.8512527e-05   8.5353131e-05   2.3053877e-05   2.1902948e-04  -3.4718070e-04  -1.1471350e-03
  -2.0577532e-04   3.5236240e-05   3.7828475e-04   2.3128073e-04  -4.9332732e-05   1.3567427e-04   1.9180094e-05   1.0923365e-04  -1.9773548e-04  -8.6580512e-05  -1.3897606e-05  -4.4283672e-04  -6.0040362e-05   3.2720689e-04   1.0593548e-04   1.4924267e-04   4.0531921e-04   1.4848559e-04   3.2022747e-04   1.2251531e-04  -1.2869583e-04  -4.3369651e-05   2.6942513e-05  -1.9423745e-04   5.2808062e-04  -8.7842454e-05   7.8578205e-06  -2.6210109e-04  -2.3412272e-04   3.6531338e-04   9.1965002e-04   2.0712320e-04  -3.2292612e-04   3.6063435e-04   2.3801572e-04   2.9955417e-04   5.3876181e-05  -1.0673347e-04   3.4618605e-04   4.6435525e-05   5.3288636e-04  -2.1650161e-05   1.4568557e-03  -2.2860922e-04  -6.9351867e-05  -1.8002566e-04   5.8630547e-05   5.7351164e-04  -6.2773831e-04  -1.6405308e-03
  -2.1051717e-04   3.3255696e-05   2.4293868e-04   2.1892137e-04  -6.8651760e-05   7.7299286e-05   3.3759909e-05   2.2966673e-05  -1.5313314e-04  -7.2699819e-05  -2.4180868e-05  -3.7636040e-04  -3.7262369e-05   2.7181394e-04   7.4115000e-05   1.9017508e-04   2.9361999e-04   1.2142976e-04   3.9102399e-04   1.1523169e-04  -1.1080033e-04  -7.3125608e-05  -3.9755974e-05  -1.2956225e-04   6.0185138e-04  -1.6352627e-05  -7.2693612e-05  -2.2759715e-04  -4.0487043e-04   2.9701123e-04   7.0097885e-04   4.5296707e-05  -2.0542680e-04   2.6248992e-04   2.4970641e-04   3.1136684e-04  -5.6249619e-06  -1.1872328e-04   4.7744132e-04  -1.4760980e-04   3.2783666e-04  -1.4574992e-04   8.7093713e-04   8.6433625e-05  -1.6430905e-04   1.0455805e-04  -5.8786018e-06   7.4449851e-04  -3.2821883e-04  -1.3638869e-03
  -3.2849453e-04   4.6219604e-05   2.3892202e-04   2.1616995e-04  -4.1785985e-05   6.3057654e-05   3.7297788e-05   2.1444364e-05  -2.0252154e-04  -6.3892898e-05  -3.3420387e-05  -2.9912023e-04  -1.4734710e-05   1.5465658e-04  -6.5331922e-05   2.1158870e-04   2.0451091e-04   7.0718932e-05   3.3273030e-04   1.2675284e-04  -8.3652529e-05   1.1476164e-05  -8.7840917e-06  -8.8679408e-05   4.5687510e-04   5.0885556e-05  -1.7600170e-04  -3.1850600e-04  -3.4121427e-04   3.2965592e-04   4.5629803e-04  -3.1274962e-05  -2.6509271e-04   1.1718494e-04   2.3648218e-04   3.7763279e-04   3.2362522e-04  -1.0325146e-04   3.6755236e-04   3.4222045e-05   5.6046940e-04  -2.1708680e-05   4.8040433e-04   8.4566687e-05  -1.5551384e-04  -1.5692216e-04  -2.9807095e-05   7.1807898e-04  -8.6659350e-04  -8.4667333e-04
  -1.2928962e-04   6.7784160e-05   1.9145424e-04   2.4903694e-04  -5.3184500e-05   5.0959523e-05   2.6042962e-05  -2.5114264e-06  -1.0991022e-04  -2.1181433e-05   9.4890793e-06  -1.7513934e-04   2.2395734e-06   1.1015013e-04  -8.4228544e-05   1.7418466e-04   6.9323811e-05   2.1805885e-05   2.9986660e-04   1.1716143e-04  -6.3309555e-05   1.4686121e-05  -3.8698912e-05  -9.0096473e-06   4.0307743e-04   4.4907782e-05  -1.5639595e-04  -5.1743619e-04  -2.5145710e-04   2.2717864e-04   9.6033356e-05  -1.7526848e-04  -8.0061116e-05  -7.6557924e-05   2.2060530e-04   2.9918680e-04   1.6030968e-04  -1.8675069e-04   3.9516701e-04   2.5092626e-05   3.3860892e-04  -6.2555366e-05   9.6537382e-04  -5.8713381e-04  -6.7703964e-05  -1.3458345e-04  -1.1821061e-05   7.8675553e-04  -9.5477869e-04  -1.1705415e-03
  -2.1444054e-04   7.2792092e-05   1.7847825e-04   2.4592743e-04  -4.7751357e-05   2.0088957e-05  -1.7651879e-05   1.3002298e-04  -1.1232772e-04  -3.8551520e-05  -2.1952595e-05  -2.0154910e-04  -1.5537471e-05   6.2410792e-05  -5.3190863e-05   1.0581181e-04   8.6059139e-05   2.2402848e-05   2.4713253e-04   1.0639455e-04  -4.2588876e-05   7.7393510e-05   3.8273465e-06  -7.2463547e-05   4.0439176e-04   5.1514697e-05  -1.9623819e-04  -5.6086521e-04  -6.6938264e-05   2.4604853e-04   1.0690358e-04  -1.9623157e-04  -1.7510578e-05   8.3034882e-07   2.2062179e-04   2.1679576e-04   8.6126616e-05  -1.6795017e-04   3.5355598e-04  -5.7942809e-05   2.0905727e-04  -4.5876736e-06   4.4720614e-04  -9.6425851e-05  -8.5692511e-05  -2.8157308e-05  -1.3499158e-04   6.7533291e-04   4.8093312e-05  -1.1472779e-03
  -1.7609069e-04   7.2129777e-05   1.9794764e-04   2.5257585e-04  -2.6328038e-05   9.0364398e-07   1.3742369e-05   3.0529252e-05  -1.2810320e-04  -4.4901164e-05  -3.6911249e-05  -2.0117222e-04   8.8816014e-06   6.5112348e-05  -4.3415665e-05   2.1896462e-04   7.2094655e-05   2.1958938e-05   2.4370007e-04   1.2205629e-04  -2.6642418e-05   3.0950196e-05  -3.1269225e-05  -1.0224402e-04   4.5194573e-04  -3.0503814e-05  -9.1733935e-05  -5.5913656e-04  -1.1793069e-04   2.1134289e-04   9.3864721e-05  -1.9479230e-04  -9.2187169e-05  -5.4526365e-05   1.7166830e-04   1.0920175e-04   1.3597365e-04  -1.4777688e-04   3.9134268e-04  -1.0995934e-04   2.6163369e-04  -9.8611054e-06  -1.1543259e-04   5.9026096e-04  -4.1881808e-06   8.8920664e-05  -1.9287052e-04   7.0707750e-04   2.1748798e-04  -1.0271922e-03
  -2.0838939e-04   7.9771264e-05   1.9488878e-04   2.4866158e-04  -5.6087760e-05   7.3507792e-05   4.0162318e-05  -2.9975735e-04  -3.8165042e-05  -2.3604021e-05  -1.6560656e-05  -1.9345533e-04   1.1026969e-05   1.0977452e-04  -7.4339994e-05   2.0866496e-04   1.1280829e-04   3.4606142e-05   3.2338875e-04   1.1686023e-04  -3.8393922e-05   3.8197988e-05  -4.8588692e-05  -7.4588308e-05   3.6163509e-04  -4.6193054e-06  -7.1745715e-05  -5.7756860e-04  -3.1758472e-04   1.9251707e-04   2.0097876e-04  -1.7398599e-04  -1.6943198e-04  -1.0619156e-05   1.7301131e-04   2.7302656e-04   1.5023779e-04  -1.6611681e-04   3.6692875e-04  -5.4609030e-05   4.1366936e-04  -4.3560689e-05   9.5124135e-04   7.9904095e-04  -1.3976046e-04  -6.1613609e-05  -1.9489979e-05   5.6986348e-04  -1.7352168e-04  -1.9868617e-03
  -1.5695560e-04   8.5193496e-05   1.7050456e-04   2.4449083e-04  -4.5718934e-05   1.0887214e-04   4.0626299e-05  -5.5481942e-05  -1.5117822e-04  -2.6709085e-05  -2.2612514e-05  -1.9828035e-04   1.2752473e-05   1.4697392e-04   3.0264564e-05   2.4757345e-04   1.0040292e-04   3.9224720e-05   2.3189907e-04   1.3232711e-04  -2.2048080e-05   4.3095868e-05   2.8478391e-05  -1.9584417e-05   4.8974802e-04   4.5257919e-05  -6.7236899e-05  -5.7593250e-04  -4.7789210e-05   2.3776280e-04   1.6259121e-04  -1.5456472e-04  -1.1606955e-04   2.7202746e-05   1.8309834e-04   3.2548152e-04   1.3578276e-04  -5.9842234e-05   2.6977868e-04  -3.6816447e-05   2.2734160e-04  -3.2908010e-05   1.1182170e-03  -3.2705275e-04  -5.6810790e-05  -1.5657171e-04  -1.6775972e-05  -2.0670846e-05  -5.2742928e-04  -6.5584632e-04
  -1.4613650e-04   9.0729853e-05   1.9967876e-04   2.5673938e-04  -1.7667700e-05   1.4468344e-04   8.8712855e-05  -1.5881371e-04   1.0152378e-06  -1.8246787e-06  -1.5534575e-06  -1.5309114e-04   8.3662408e-06   6.6235451e-05   6.7396992e-05   2.3003673e-04   9.6174328e-05   5.0866100e-05   1.2471809e-04   1.2452713e-04  -3.8173574e-05   8.0053658e-05   8.1612758e-05  -2.6921123e-05   4.6547560e-04   9.7638613e-06  -9.2170354e-05  -5.6442915e-04  -2.2697642e-04   2.4816982e-04   9.2464026e-05  -1.4721887e-04   6.8429537e-05   1.6879798e-05   2.0407316e-04   2.4698046e-04  -1.3913246e-04  -1.6194572e-04   3.5568990e-04   7.2639989e-05   3.9678815e-04  -1.0458538e-04   5.3117541e-04   3.4842506e-04  -7.0620568e-05  -1.0800602e-04   6.5124143e-05   1.1951222e-04  -8.0172520e-04  -1.2871476e-03
   1.1557022e-05   1.0269156e-04   1.8523594e-04   2.4834028e-04  -3.2862965e-05   9.1103553e-05   1.1828755e-04  -1.9879288e-04  -1.9308583e-05   1.8921284e-06  -9.8065320e-06  -1.8509463e-04  -3.3636566e-06   9.2495116e-05   6.8996807e-05   1.7223130e-04   1.0181483e-04   4.1315412e-05   2.6650893e-04   1.2443060e-04  -3.3713368e-05   5.7285706e-05   6.8663838e-05  -1.7774802e-05   4.3250161e-04  -1.8110935e-05  -4.2717540e-05  -5.3662976e-04  -2.3428343e-04   2.7715394e-04   1.2463433e-04  -1.6987856e-04  -2.8158215e-04   1.3651885e-05   2.1178233e-04   2.8083476e-04   4.4471494e-06  -5.3135824e-05   3.2469037e-04   1.3517474e-05   2.7351719e-04  -3.5854631e-05   9.6656484e-05   3.4464814e-04  -7.5867501e-05   6.5430431e-05   2.7438551e-05   5.2871613e-04  -7.0819509e-04   2.5658822e-04
  -8.7704866e-05   1.0415057e-04   2.0866070e-04   2.4394901e-04  -4.7851959e-06   8.5931228e-05   6.0606249e-05  -1.9279309e-04  -1.0499470e-04  -1.3899208e-05  -3.4109369e-05  -2.0827951e-04   3.4578617e-05   1.1010016e-04   7.9926824e-05   2.6483901e-04   9.3426235e-05   4.2116892e-05   1.8784199e-04   1.3842444e-04  -2.1220327e-05   5.8521615e-05   2.3309516e-05  -6.4340762e-05   3.9805251e-04  -8.8879115e-06  -6.6303255e-05  -5.6136324e-04   1.8594026e-05   2.8086695e-04   1.5528229e-04  -1.7310611e-04  -2.2203836e-05  -4.0998133e-05   1.8559596e-04   1.4337797e-04  -1.1614218e-04  -1.0503841e-04   2.9086031e-04  -4.6228703e-05   3.4549207e-04  -6.7218949e-05   4.5440308e-04  -2.1660961e-04  -7.3673546e-05  -9.2088529e-05  -7.8305871e-05   5.0308835e-04  -8.6025597e-04  -1.4077526e-03
   1.1076550e-07   1.0807806e-04   2.0388023e-04   2.3043857e-04   1.8571865e-05   1.8130457e-04   8.3195468e-05  -1.4536337e-04  -3.5795398e-05   1.8742687e-05   4.0402436e-05  -1.5734427e-04   1.5988167e-05   1.3372149e-04   1.1212613e-04   2.2554965e-04   8.8116678e-05   5.3110351e-05   3.1297165e-04   1.2469743e-04  -3.5624453e-05   2.8621698e-05  -2.8282335e-07   5.4265925e-05   4.3367405e-04   1.4903902e-05  -1.1310534e-04  -5.5818894e-04  -3.7752240e-04   2.3224000e-04   1.7691958e-04  -1.1333437e-04  -5.6162291e-05   5.1746207e-05   1.9735053e-04   2.4244557e-04  -1.0397036e-04  -1.0351041e-04   3.1023621e-04  -2.1611633e-05   2.7286995e-04  -1.5944165e-04   5.2734942e-04   1.4411587e-04  -1.7249366e-04  -3.1055362e-05   1.8085422e-05   6.7881553e-04  -1.8725201e-04  -1.5985848e-03
   4.1804428e-06   1.1208329e-04   2.1114411e-04   2.2495989e-04  -1.0075426e-05   1.5397865e-04   6.5346154e-05  -4.3828317e-05  -5.6223460e-05   1.7997329e-05   1.5750573e-05  -1.5012888e-04   3.5644789e-05   6.4400774e-05   7.6858785e-05   2.2573723e-04   9.3924231e-05   4.5091158e-05   3.1769468e-04   1.3391688e-04  -7.2197781e-06   1.6163860e-05  -2.8098904e-05  -1.3125078e-05   3.6653649e-04  -2.0893965e-05  -1.6508138e-05  -5.6249241e-04  -9.4396179e-05   2.8590939e-04   1.7601451e-04  -1.2248808e-04  -1.4366274e-04   5.7126788e-05   2.6322095e-04   2.9593942e-04  -7.2969078e-06  -8.2520732e-05   2.8953093e-04  -3.4075980e-05   1.6708909e-04  -4.1078489e-05   8.1248771e-05   1.0509894e-03  -1.4241340e-04   5.8408586e-05   3.6122747e-05   7.5753202e-04   9.7440767e-05  -1.8010043e-03
  -7.3767333e-05   1.1080602e-04   2.1810750e-04   2.1258970e-04  -4.3420514e-06   9.6790129e-05   8.6397486e-05   1.5764678e-04   1.3946044e-05   5.1376810e-06  -6.2232075e-06  -2.0838626e-04   7.3630104e-06   5.1768788e-05   8.1937615e-05   3.1122874e-04   7.9164834e-05   2.6755251e-05   3.3869306e-04   1.3798066e-04   9.7051761e-06   4.2298365e-05   1.0269071e-04  -3.2752567e-05   4.5748681e-04  -3.2336484e-05  -1.3132923e-04  -5.5689237e-04   6.8692359e-05   3.3853680e-04   1.1736176e-04  -1.2169623e-04  -9.7714772e-05   3.7631016e-05   1.9618987e-04   2.2710660e-04   3.4467838e-04  -5.7894056e-05   3.5469551e-04   7.1328293e-05   2.7438419e-04  -5.0263086e-05   3.8799160e-04  -5.9042348e-05   6.4509036e-06   2.4856541e-05  -5.8790229e-05   1.1228218e-03   1.3570805e-04   4.0680633e-04
  -5.3005924e-06   1.1788018e-04   2.1328432e-04   2.3128845e-04   2.1409514e-05   1.8795917e-04   1.0318436e-04   4.0696417e-05   9.6731572e-05   3.4006494e-05   3.3572807e-05  -1.2453634e-04   1.5152205e-05   9.4963798e-05  -2.0304982e-05   2.1126198e-04   8.4967840e-05  -1.8109454e-06   3.6910528e-04   1.4394570e-04  -1.5640357e-05   5.0139497e-05   5.0935749e-05  -5.8163841e-05   4.6216371e-04   8.4935367e-05  -1.1837189e-04  -5.4453674e-04  -5.5628007e-05   3.2999244e-04   2.0212447e-04  -1.4057610e-04   2.8655204e-05   7.8987141e-05   2.5948058e-04   2.0802862e-04   5.0662584e-06  -9.0023452e-05   2.6555540e-04  -9.5180039e-05   1.6316636e-04  -9.2757342e-05   7.9623092e-04  -6.2156771e-04  -1.5995889e-04  -1.2266022e-04  -2.8346931e-05   2.4825108e-04  -5.8219203e-04  -1.1689321e-03
   1.4937478e-04   1.2133257e-04   1.7602947e-04   2.4306742e-04  -1.1408244e-05   1.4403234e-04   1.0561824e-04  -2.0286161e-05   3.7949983e-05   3.3299100e-05   3.2995769e-05  -1.2994140e-04   4.1251773e-05   1.6617452e-05   6.1195162e-05   2.3757706e-04   8.2527593e-05  -7.5555096e-07   3.0086140e-04   1.4428642e-04   1.5869027e-05   1.1385993e-04   6.3886626e-05  -8.5014499e-06   3.7697671e-04   9.1903877e-07  -8.3172061e-05  -5.7763717e-04  -1.3662400e-04   2.5176216e-04   1.4858003e-04  -1.3625412e-04  -2.2078410e-04   5.2703061e-05   2.0077787e-04   2.2791540e-04   1.1926324e-05  -8.2313192e-05   3.0328074e-04   4.8085829e-05   2.3777461e-04  -1.1352011e-04   4.1486498e-04   1.6132607e-04  -7.7722194e-05  -8.3892803e-05   2.7521724e-05   5.3140399e-04  -3.9158604e-04   2.1610095e-04
  -1.4271133e-06   1.2059271e-04   2.0085183e-04   2.0507877e-04  -1.3260966e-05   1.1070350e-04   6.0872735e-05  -6.8986919e-05  -1.7185435e-05   2.5390073e-05   1.9593788e-05  -1.3939294e-04   4.0714862e-05   6.3077452e-05   6.4077736e-05   2.1402817e-04   7.1219642e-05  -6.7310775e-06   3.2955446e-04   1.6346161e-04   2.3550536e-05   8.3875624e-05   1.5033204e-06   2.3594161e-05   3.8982715e-04   2.4411682e-05  -7.9950012e-05  -6.0498907e-04  -1.5199500e-04   2.6977286e-04   1.5261960e-04  -1.1466685e-04  -4.0717550e-06   7.1379087e-05   2.3229976e-04   1.9418036e-04  -7.6288467e-05  -5.9759488e-05   2.4429342e-04  -4.4472232e-05   3.9515397e-04  -5.4317825e-05   7.4036850e-04   2.3470366e-04   3.6002628e-05   1.0775503e-04  -6.1197716e-05   3.8097310e-04  -4.7230400e-04  -5.7053263e-04
   2.5754182e-06   1.2421333e-04   1.7997298e-04   2.2149527e-04  -3.1008688e-06   7.9801728e-05   4.7161047e-05   1.7251272e-04   5.4806103e-05   3.8566650e-05   5.0044247e-05  -1.1927843e-04   1.9388348e-05   1.8610997e-05   4.4241307e-05   2.0022268e-04   6.3642161e-05  -8.8593370e-06   2.6380902e-04   1.4855337e-04   7.2132461e-06   7.2056762e-05   2.0560026e-05  -1.8169938e-07   3.4471852e-04   3.1130694e-05  -1.1752218e-04  -5.7699694e-04  -3.2214576e-04   2.3293914e-04   8.2787621e-05  -1.4206569e-04  -2.7841541e-05   3.1436972e-05   2.0801078e-04   1.6604485e-04   2.4556952e-05  -5.5034772e-05   3.2476836e-04  -1.5006265e-04   2.3794905e-04  -4.7824735e-05   5.5525720e-04   2.7006579e-04  -8.1995357e-05   5.6267236e-06  -1.4877558e-04   3.3476518e-04  -5.5468870e-05  -1.3860391e-04
   1.5657760e-04   1.2256946e-04   1.7041354e-04   2.2727480e-04   1.4380254e-05   1.5247863e-04   1.1745057e-04   1.0796518e-04   1.6092088e-05   2.0894891e-05   4.4869856e-05  -1.2475438e-04   2.3999966e-05   2.2966511e-05   7.8283192e-06   2.3347512e-04   4.6692985e-05  -2.6590960e-05   2.5502619e-04   1.5136416e-04   2.7464206e-05   7.7088138e-05   1.7198830e-05  -3.0511181e-05   3.0167171e-04   9.2951313e-06  -2.3488526e-04  -5.9862679e-04   6.2603780e-05   2.1025323e-04   1.0570660e-04  -1.5396548e-04   6.6755500e-05   2.1267690e-05   1.8607508e-04   2.2372854e-04   1.4749823e-04  -6.9814450e-05   3.1696251e-04  -3.8504004e-05   3.5009661e-04   2.9288225e-05   2.6657083e-04   6.6780322e-04  -8.2650273e-05  -1.2554383e-05  -9.3990311e-05   1.3384996e-04   4.8303281e-04  -3.2514162e-04
   2.8759569e-05   1.2728976e-04   1.4092142e-04   2.1081122e-04  -6.9935782e-06   1.2756315e-04   7.7723729e-05  -1.3885552e-04   2.8544404e-05   2.9470659e-05   4.3976950e-05  -9.6763346e-05  -2.9145469e-06  -2.7431938e-06   4.4055435e-07   1.2865398e-04   4.0855815e-05  -3.8818191e-05   1.8324162e-04   1.4302255e-04   1.8713639e-05   4.0273415e-05  -5.8977141e-05  -6.3388645e-05   3.4280148e-04   7.2439143e-05  -1.4645534e-04  -6.1404129e-04  -2.1390877e-04   2.4145450e-04   7.8067147e-05  -1.5229535e-04  -7.3486226e-05   7.9198317e-06   1.8797039e-04   2.0401886e-04  -3.0845335e-05  -1.3729517e-04   2.9688887e-04  -4.1997150e-06   2.5318688e-04  -7.2671399e-05   4.7688489e-04   6.0650666e-04  -3.5677280e-05  -1.3524183e-06   1.9102474e-05   3.2384993e-04   6.9354719e-04  -4.0984718e-04
  -5.5244960e-05   1.2238405e-04   1.3558881e-04   2.1626343e-04  -2.9343102e-05   6.4842112e-05   3.9234921e-05  -6.3799089e-05   3.3268978e-05   1.6181859e-05   3.5652542e-05  -1.1984566e-04  -5.6713357e-06   3.9994475e-06  -6.1264735e-05   2.0792957e-04   5.1160609e-05  -3.2254065e-05   3.1513447e-04   1.5139311e-04   2.7775977e-05   8.9983878e-05   5.0011575e-05  -3.5111880e-05   4.3640207e-04  -1.3323806e-05  -1.2071135e-04  -6.1168487e-04  -4.1875409e-04   1.8768999e-04   7.7386278e-05  -1.6420013e-04   4.2133503e-05   5.3486998e-05   2.4033109e-04   2.7927675e-04   1.1285859e-04  -1.2083686e-04   2.5073325e-04  -5.4022687e-05   2.3336452e-04  -1.0352329e-04  -8.5922606e-05   5.4833747e-04  -3.8812737e-05  -1.2637941e-04  -3.7098929e-05   7.8892580e-04  -1.6810949e-04  -3.3774084e-04
  -1.4699031e-05   1.2155960e-04   1.7729322e-04   2.1955324e-04   1.2652672e-06   1.5703445e-04   4.4350872e-05  -1.9294914e-04   2.2206226e-05  -3.2228597e-06   1.1439406e-05  -1.3199543e-04   6.8537906e-06   3.5571691e-05   2.0995336e-05   1.9425394e-04   4.5459859e-05  -3.7048860e-05   1.0739786e-04   1.4141163e-04   1.0995260e-05   5.9283488e-05  -5.3536438e-05  -3.0657877e-05   3.6912484e-04  -6.7570356e-05  -1.1073610e-04  -6.2155869e-04  -1.0365798e-04   2.2237097e-04   3.6931251e-05  -1.6985956e-04   1.2367168e-04   1.6121465e-05   2.1599610e-04   2.4132362e-04   1.5791413e-05  -1.3110654e-04   2.5686403e-04   2.8146213e-05   3.9778423e-04  -4.9660193e-05   8.0975698e-04   2.5046116e-04  -2.5354007e-05   7.2016694e-05  -1.2410954e-05   7.9408562e-04  -2.5600611e-04  -7.0576149e-04
   1.2286035e-04   1.2829091e-04   1.0758967e-04   2.1346883e-04  -2.2283199e-05   4.4328746e-05   5.2184103e-05  -1.0931680e-04   6.3827101e-05   1.9005320e-05   3.3004071e-05  -1.1573191e-04   2.0889069e-05  -8.4751164e-06  -7.1903167e-05   2.2926391e-04   4.4932785e-05  -3.3883854e-05   2.6499690e-04   1.3183476e-04   9.4256329e-06   8.6340391e-05  -6.5848981e-05  -7.5026343e-05   3.3340146e-04   8.1894459e-06  -1.2460217e-04  -6.3897652e-04  -2.2247470e-04   2.1717275e-04   5.5630124e-05  -1.6124385e-04   1.4815611e-05  -6.9889675e-06   2.3825016e-04   1.7716362e-04   8.5236374e-05  -4.5696877e-05   2.5923818e-04  -8.3787643e-05   1.9936434e-04  -1.4132651e-05   4.0521147e-04  -1.4401074e-04  -4.8450671e-05  -4.2638745e-05  -1.0418866e-04   6.4423803e-04  -7.0082257e-05  -5.7795463e-05
   1.6303429e-05   1.2566014e-04   1.4433810e-04   2.1272097e-04  -1.8742894e-05   1.3654404e-04   7.5274174e-06   2.8598010e-05   1.5295613e-05  -1.2214571e-06   1.4711536e-05  -1.3690948e-04  -4.5808670e-06   3.1074556e-05  -2.0206800e-05   2.0804643e-04   3.6731239e-05  -4.9007991e-05   8.3213410e-05   1.3413746e-04   2.1685715e-05   3.3253134e-05  -8.4112335e-06  -4.6940040e-05   2.8261924e-04  -6.6075321e-05  -1.7406509e-04  -6.5912970e-04  -7.5223914e-05   2.0444603e-04   6.1715866e-05  -1.6456039e-04   6.7798101e-05  -4.5418175e-05   2.2524555e-04   1.1805673e-04  -1.2277912e-04  -6.8319365e-05   2.5824027e-04  -1.0344251e-04   2.8924557e-04  -1.2453928e-04   5.3479662e-04   3.0444155e-05  -1.7818607e-05  -6.7909377e-06  -1.1890112e-04   1.3866123e-04  -1.1653507e-04  -1.0956222e-03
  -7.4348543e-05   1.2503484e-04   1.0604953e-04   2.0329573e-04  -3.1377196e-05   8.2446510e-05   5.5306982e-06   4.4434528e-05  -7.9914280e-05   1.9809645e-06   2.7237702e-05  -1.1892543e-04  -3.6326648e-05  -3.5334911e-06  -1.6328775e-05   1.8531742e-04   2.4201197e-05  -4.7551304e-05   4.9279424e-05   1.3656213e-04  -1.0243837e-05   4.0307681e-05  -6.5885615e-05  -9.9011573e-05   3.0586903e-04  -2.9349934e-05  -9.9775360e-05  -6.6396710e-04  -1.9420344e-04   2.2351755e-04   4.6398676e-05  -1.7621910e-04  -9.4190043e-05  -2.9622721e-05   1.4249131e-04   2.9134966e-04   6.9777525e-06  -7.2270690e-05   2.9117576e-04  -5.5021410e-05   2.7281433e-04   3.5495374e-05   1.6661513e-03  -4.8512861e-04  -8.5719730e-05   7.3192226e-05  -1.4027732e-04   1.0767239e-03   4.6151521e-04  -3.4551782e-04
  -1.1733294e-04   1.1195695e-04   1.3723473e-04   1.8186249e-04  -3.6321017e-05   1.0123838e-04   1.4948784e-05  -1.1248243e-04  -1.7737635e-04  -1.8233306e-05   1.0357529e-05  -1.6198766e-04  -3.5606543e-05   2.0511319e-05   5.2218300e-05   1.7975245e-04   2.2966715e-05  -6.8087415e-05  -1.0340555e-06   1.0781806e-04  -7.0171309e-06   4.4212520e-06  -1.3107939e-05  -1.0948179e-04   2.8221001e-04  -4.5341672e-05  -1.7168179e-04  -6.5845082e-04  -2.5481536e-04   2.0509638e-04  -3.7089171e-06  -2.0894253e-04  -2.2997003e-05  -8.9174855e-06   2.0577056e-04   2.1516318e-04  -4.5105775e-05  -7.1720824e-05   2.2451337e-04  -8.7363289e-05   1.5087954e-04  -2.7920837e-06   1.4773502e-03  -6.7401452e-05  -4.8534523e-05  -6.1436353e-05  -8.7753033e-05   1.2037656e-03   3.9095430e-06  -1.6483410e-03
   6.0124066e-06   1.1730044e-04   1.2922718e-04   1.7972378e-04  -1.9791736e-05   8.1720907e-05  -5.8497411e-05  -1.2631835e-04  -2.1122991e-05  -3.3747448e-05  -1.6679431e-05  -1.7491117e-04   6.2861909e-06   1.4538938e-06  -1.4110560e-04   1.9587530e-04   1.8016484e-05  -6.9305221e-05   1.7629836e-04   1.0447259e-04  -8.1930821e-06   4.0930892e-05  -4.7139965e-05  -1.7003542e-04   2.8637328e-04  -8.6761800e-05  -1.1888349e-04  -6.7178183e-04  -1.0613783e-04   2.1558836e-04  -1.2625525e-05  -2.1285367e-04  -2.1940630e-05  -3.3321186e-05   1.3569806e-04   2.4968051e-04  -4.8259310e-05  -6.4738953e-05   2.1265092e-04  -1.7862680e-04   1.8079804e-04  -6.8101297e-05   7.2216871e-04   4.9940782e-04  -3.6556259e-05  -4.9859231e-05  -1.4487391e-04   3.7812884e-04  -1.1288992e-03  -8.3262695e-04
  -9.8590557e-05   1.1484353e-04   1.2125677e-04   1.8286190e-04  -5.1085353e-05   6.3039086e-05  -1.8501585e-05   2.1992772e-05  -8.6166081e-05  -2.0608913e-05  -3.1755335e-06  -1.5928400e-04  -4.3316479e-05   1.9536110e-05   5.4603417e-05   2.0203466e-04   2.0716379e-05  -1.0125052e-04   1.0347522e-04   9.7232143e-05  -2.9060064e-05   3.5542042e-05  -3.8042388e-05  -1.1069701e-04   2.4198755e-04  -2.9447607e-05  -1.5909190e-04  -6.9095287e-04  -4.9337751e-04   2.2792912e-04   4.1160733e-05  -2.4393997e-04  -1.8417052e-04  -5.9239090e-05   2.1063366e-04   1.3499557e-04   1.8332112e-05  -7.1200593e-05   2.4220989e-04  -1.3002337e-04   3.5235687e-04  -1.3855041e-04   1.4802746e-03  -1.9459899e-04  -6.8235902e-05  -1.2420289e-05  -2.2088512e-05  -3.2825061e-04   6.6452712e-04   1.9638291e-04
  -1.1597145e-04   1.1090868e-04   8.1619772e-05   1.9008064e-04  -5.5682183e-05   3.8064940e-05  -9.3460112e-05  -1.9796075e-04  -1.7089049e-04  -4.3850017e-05  -1.7536067e-05  -1.6912656e-04  -4.6880930e-05  -6.5092929e-05  -5.5257929e-05   2.0394221e-04   1.1314673e-05  -1.0498273e-04  -1.1066621e-05   1.0185487e-04  -1.1047613e-05   3.6819190e-05  -8.6658576e-05  -6.0112492e-05   2.9699563e-04  -8.9663183e-05  -1.9617849e-04  -7.2520331e-04   6.8834970e-06   2.6637374e-04  -4.6747798e-05  -2.4048211e-04  -1.1739942e-05  -1.6965687e-05   1.3806262e-04   1.2378684e-04  -8.3444093e-06  -6.9065223e-05   1.9641669e-04  -2.0784350e-06   1.3827490e-04  -3.7014001e-05   3.5276896e-04   6.2122487e-04   5.3703530e-05  -1.6993063e-04   4.0761348e-05   4.0099863e-04   8.5385822e-05  -7.6788390e-05
  -1.5142288e-04   1.0596465e-04   1.3226950e-04   1.7593818e-04  -3.2080716e-05   4.3514658e-05  -5.6694942e-05   1.8251632e-04  -1.2853350e-04  -3.7756687e-05   7.5204940e-07  -1.3150446e-04  -2.7228421e-05  -3.7764315e-05   7.1329297e-05   2.0352453e-04  -3.0088613e-06  -1.1574024e-04  -9.3037697e-06   9.6208831e-05  -2.9374100e-05   4.4072793e-05   4.2311200e-05  -1.0948758e-04   2.2194965e-04   3.3391345e-05  -1.6978738e-04  -7.0990279e-04  -2.4556814e-04   2.6587557e-04  -4.7101508e-05  -2.5626799e-04  -8.1974315e-05  -1.0550831e-04   1.3374472e-04   9.2099195e-05  -2.0673507e-04  -9.4070303e-05   1.1401912e-04  -2.6083666e-05   1.6563600e-04  -3.9176877e-05  -3.0414652e-04   2.6145339e-04   8.5515916e-07   1.5859808e-04  -1.1135636e-04   9.4630197e-04   2.4854214e-04  -1.3741731e-03
  -2.1885424e-04   1.0902540e-04   9.1456357e-05   1.7272859e-04  -4.3765285e-05  -2.9514013e-07  -7.1587529e-05  -6.3860978e-05  -2.9616551e-05  -2.5403691e-05   6.4256315e-06  -1.0743681e-04  -5.5592453e-05  -8.8469191e-05  -1.6814613e-04   1.4791437e-04  -1.6868931e-05  -1.3215792e-04   2.5538528e-05   1.0573197e-04  -1.6252316e-05   3.8790036e-05  -9.6856551e-05  -9.6103977e-05   2.5478014e-04  -2.2580036e-05  -2.5591385e-04  -7.2390126e-04  -1.5194171e-04   2.4445137e-04  -1.5300975e-04  -2.8575133e-04  -1.0013227e-04  -9.9746518e-05   1.6261468e-04   1.7922677e-04  -1.1835784e-04  -1.1779620e-04   2.6259714e-04  -8.8138288e-05   2.0633172e-04  -2.5822015e-05  -2.6507804e-04  -2.4678209e-04   2.1140824e-05   9.1869166e-05   2.8129882e-05   4.3478911e-04   9.5400334e-05   2.5848002e-04
  -8.0315833e-05   1.0583115e-04   6.6021494e-05   1.9475847e-04  -4.3586635e-05   1.2254860e-04  -9.4221010e-05  -1.1663803e-04  -8.4875886e-05  -3.8359231e-05   8.7703393e-07  -1.0742417e-04  -1.9905498e-05  -1.1459372e-04  -6.5524815e-05   2.1964635e-04  -3.9665625e-05  -1.4135215e-04  -3.0314284e-05   1.1277109e-04   1.6173905e-07   4.9529746e-05  -5.4833340e-06  -1.6988337e-04   2.3905453e-04  -8.1707294e-06  -2.5898308e-04  -7.6838757e-04  -2.5120818e-05   2.5214930e-04  -1.2689237e-04  -2.5269089e-04  -3.9208633e-05  -8.6411965e-05   1.1346683e-04   1.7983324e-04   6.3154592e-05  -7.0222697e-05   1.9983076e-04  -6.1639177e-05   3.8438756e-04  -5.1804622e-05   6.4140673e-05  -7.5231408e-05   7.2174890e-07   3.9927163e-05   9.5319983e-06   1.2874596e-04   1.0524164e-04  -6.2865746e-04
  -1.0561843e-04   1.1424964e-04   8.0085199e-05   1.6880101e-04  -3.3416811e-05   2.6890928e-05  -8.7621513e-05   8.8892994e-06  -6.4804917e-05  -2.4179924e-05   3.4426874e-05  -5.9388312e-05  -5.3221713e-05  -8.0341219e-05  -1.3794383e-05   1.3794855e-04  -5.5473247e-05  -1.4936496e-04  -9.4381918e-05   1.0689320e-04  -1.0287266e-05   4.9800339e-05  -1.1495105e-04  -1.3625785e-04   1.9348811e-04   4.7309950e-05  -3.0328645e-04  -7.6869939e-04  -3.8303953e-04   1.6989502e-04  -1.7783805e-04  -3.2896671e-04   1.8206217e-04  -1.3915163e-04   1.2926705e-04   1.9486756e-04  -1.1207494e-04  -1.0172356e-04   1.5213253e-04  -1.7704549e-05   2.3135349e-04  -2.9396495e-05   5.2449957e-04   3.9321289e-04  -6.8843437e-05   5.8230024e-05   3.0487814e-05  -1.0560298e-04  -2.9090882e-04  -8.0387568e-04
  -1.8720789e-04   1.0584572e-04   3.8859835e-05   1.6668937e-04  -5.6129909e-05  -2.7798851e-06  -1.0297886e-04   2.1332165e-05  -2.0427044e-04  -2.7661186e-05   3.0929623e-05  -6.2283943e-05  -4.2707929e-05  -9.5825999e-05  -1.0478634e-05   1.3797202e-04  -5.9293790e-05  -1.4246911e-04   8.4527484e-05   1.1182431e-04   4.1322164e-06   7.6797143e-05  -9.9031995e-06  -3.7050719e-05   1.8994106e-04   3.8063336e-05  -2.5282431e-04  -7.4217533e-04  -1.1182103e-04   1.6089980e-04  -1.9598770e-04  -3.1337366e-04  -6.6023451e-05  -1.1967493e-04   1.2779517e-04   9.5626470e-05   1.3471360e-04  -1.0878059e-04   2.2566057e-04  -1.0504467e-04   1.7447070e-04  -7.0771464e-05  -6.6367975e-05   4.7460041e-04  -5.6084478e-05   3.4438317e-06   7.3839568e-05   4.2063446e-04   8.9211221e-04  -5.3207623e-04
  -2.5647812e-04   9.6096221e-05   7.1050992e-05   1.6434515e-04  -7.7853219e-05  -5.2153795e-05  -1.4596210e-04  -1.1575881e-04  -1.8111373e-04  -3.6309208e-05   2.4376117e-05  -3.9898321e-05  -3.2643275e-05  -1.4237005e-04  -2.2125707e-05   1.3469883e-04  -4.9590504e-05  -1.3806525e-04   1.7192942e-05   1.1014201e-04   2.4903591e-06   6.4644584e-05  -1.5538870e-04  -6.1056715e-05   1.9670661e-04   2.2098053e-05  -2.7744431e-04  -7.3025736e-04  -1.7415255e-04   1.8622706e-04  -1.9608811e-04  -2.8948186e-04  -1.1606708e-04  -1.4706883e-04   1.0035840e-04   2.4283178e-04  -1.4140314e-04  -1.7842079e-04   1.6090201e-04  -7.8868012e-05   1.7611367e-04  -3.8317230e-05  -2.5252212e-04  -1.8830513e-05  -2.0289187e-07   4.0244457e-05   1.3781896e-04   9.5574849e-04   3.1539318e-04   1.1778482e-03
  -2.4074460e-04   8.6477739e-05   2.4376479e-05   1.5319303e-04  -7.8790865e-05  -3.9109877e-05  -1.0877036e-04  -1.6860607e-04  -1.3394738e-04  -1.5103320e-05   3.9052535e-05  -5.0448903e-05  -2.8952098e-05  -1.2891776e-04  -1.8487750e-05   5.8665060e-05  -2.7516890e-05  -1.3001745e-04   3.7849008e-05   1.3385087e-04   1.0201201e-05   9.2515933e-05  -8.1883773e-05  -4.3526839e-07   2.5386550e-04   4.3782104e-05  -1.9903088e-04  -7.3548889e-04  -7.9793266e-05   1.9071689e-04  -1.3011956e-04  -2.6295861e-04  -1.2860361e-04  -1.1030079e-04   1.1431317e-04   2.2243713e-04  -1.6143496e-04  -9.4088355e-05   1.6919980e-04  -1.7917374e-04   3.2866426e-04   2.5625224e-05   4.4927484e-04  -1.8255868e-04  -3.7097190e-05  -1.1929672e-04  -3.5131790e-05   2.0697723e-06   7.5130060e-04   1.3240738e-04
  -1.3058413e-04   9.0257381e-05   4.5247438e-05   1.6504896e-04  -6.7909648e-05   6.5716854e-06  -1.0715055e-04   1.1334418e-04  -1.8560726e-04  -1.3986987e-05   3.2670072e-05  -5.0956001e-05  -2.9388095e-05  -6.9900641e-05  -3.7975256e-05   1.8815622e-04  -2.3606826e-05  -1.2458010e-04  -3.9980510e-05   1.3411380e-04   2.7988221e-05   9.0590467e-05  -1.2486434e-04  -3.7722300e-05   2.2931588e-04  -3.3541892e-05  -2.1637934e-04  -7.3182397e-04   9.8772813e-05   1.7050200e-04  -6.8325651e-05  -2.5975381e-04  -3.5508718e-05  -7.9028330e-05   8.9064786e-05   1.3760106e-04  -9.1741560e-05  -1.0719310e-04   1.7042912e-04  -2.6891274e-05   1.5818530e-04  -6.4315624e-05   3.1000853e-04   4.5589037e-04  -1.7706052e-05   1.0573649e-04   2.3250905e-07   1.3994497e-03  -7.8095822e-04   2.8179676e-04
  -2.4591203e-04   8.2323444e-05   6.7040659e-05   1.3724963e-04  -8.1220787e-05   7.2875509e-06  -8.1543105e-05  -1.3974395e-04  -4.8534006e-05   2.0028062e-06   4.8868533e-05  -2.3210860e-05  -1.5078474e-05  -9.0873225e-05   3.9734591e-06   8.8958317e-05  -5.9210797e-06  -1.1609960e-04   1.0326070e-05   1.2717972e-04  -1.7741639e-06   3.5938425e-05  -4.2428172e-05  -9.5867705e-05   2.2743971e-04   2.0490932e-05  -1.5115565e-04  -7.2205107e-04  -2.1746910e-04   1.9441194e-04  -5.7440266e-05  -2.2989431e-04  -8.6474989e-05  -8.1283877e-05   1.7521011e-04   1.8119381e-04   4.7766654e-05  -1.1607796e-04   1.3901184e-04  -8.2498955e-05   1.6494986e-04  -4.4254950e-05   9.7088465e-05   1.4693321e-04  -8.1471000e-05  -2.0362124e-04   2.0487233e-04   3.2205201e-06  -1.1729277e-03  -2.3165606e-04
  -2.9599530e-04   7.5018506e-05   7.5424090e-05   1.7265628e-04  -7.5171665e-05  -7.4821801e-05  -9.3262584e-05  -1.8555745e-04  -1.0454896e-04  -1.1218713e-06   5.0276536e-05  -3.9802511e-05  -2.6623567e-05  -3.4965924e-05  -3.7568028e-05   1.4000587e-04  -1.2468626e-06  -1.1542509e-04  -3.1550385e-06   1.4729318e-04   1.3297314e-05   5.7571753e-05  -6.1539213e-05  -2.9005898e-05   2.5774649e-04   7.8297373e-05  -1.1807124e-04  -7.2918646e-04  -9.4613570e-05   2.0708100e-04  -5.0750314e-05  -2.3250487e-04  -1.2334995e-04  -9.1171009e-05   1.5607897e-04   1.8573712e-04  -5.1250423e-05  -1.0985394e-04   2.0305601e-04  -4.4456407e-05   3.3212022e-04   2.5100531e-05   9.5911317e-05   5.3426059e-04  -1.9048651e-04  -1.5507465e-05   1.3143812e-04   7.6673192e-04  -1.2243694e-03  -1.2744173e-04
  -2.3656694e-04   8.1021935e-05   3.8870308e-05   1.6132118e-04  -6.0334838e-05   7.6680690e-06  -6.8632944e-05   4.0621835e-05  -1.3728551e-05  -9.1217498e-06   4.2191867e-05  -5.0398710e-05  -3.8602255e-05  -9.1566435e-05  -1.1567216e-05   1.0717726e-04   3.0085137e-06  -1.0335507e-04   4.7274145e-07   1.5430230e-04   3.2067474e-05   6.6214358e-05   2.3203747e-05  -5.3607964e-05   2.1552933e-04   8.7698805e-05  -1.7580113e-04  -7.4288627e-04  -1.0869528e-04   2.5351282e-04  -1.2551347e-05  -1.9922265e-04   1.8136860e-05  -1.4066302e-05   2.1979443e-04   1.3881545e-04   7.8894693e-05  -1.1424731e-04   2.0887087e-04  -1.3537101e-05   2.0811417e-04  -5.1689345e-05   4.4098243e-04  -7.7364128e-04  -1.9204630e-05  -1.8337145e-05   7.6514763e-05   2.0640691e-04  -1.6373045e-04  -2.6956392e-03
  -1.7004550e-04   7.9429374e-05   5.5315639e-05   1.6938314e-04  -7.3726136e-05  -8.0973514e-05  -7.3769064e-05  -2.8461579e-04  -1.2163834e-05   7.3609499e-06   8.7847591e-05  -1.8098677e-05  -6.0108410e-05  -1.0233003e-04   1.1987802e-04   1.5684670e-04   1.3194749e-06  -1.1968140e-04   5.0701088e-05   1.4108271e-04   4.9504224e-06   5.8461879e-05  -6.7201225e-05  -3.2576310e-05   2.3803161e-04   5.3978154e-05  -1.8925674e-04  -7.4852112e-04  -1.8476836e-04   1.8010268e-04  -4.9014870e-06  -2.5941944e-04   4.3217351e-05  -8.6952154e-05   1.2242304e-04   2.5863838e-04  -1.4269230e-04  -1.1081673e-04   2.1594108e-04   3.7429174e-06   3.4618529e-04  -1.0083379e-04   2.7852863e-04   8.9649670e-04  -2.1424163e-05  -4.0618168e-05   9.6846379e-05   1.6952486e-04  -3.2396731e-04  -6.1074231e-04
  -1.3072437e-04   7.4731361e-05   7.5129537e-05   1.6717875e-04  -5.6245539e-05  -2.1267440e-06  -8.6862994e-05  -1.5769455e-04  -7.4640760e-05   9.6061676e-06   6.1286417e-05  -2.0781172e-05  -2.5546502e-05  -8.7917295e-05   1.1930901e-05   7.3948948e-05   3.8430630e-06  -1.2333482e-04   1.1741404e-04   1.4767474e-04   2.0365875e-05   5.5136839e-05  -3.4267698e-05   8.8736415e-06   3.0644191e-04   2.8630095e-05  -2.6176072e-04  -7.3316641e-04   1.2020147e-04   1.9488460e-04  -5.8512062e-05  -2.3626485e-04  -1.8401635e-04  -3.3719971e-05   1.3195130e-04   1.9192169e-04   8.0793419e-05  -8.6542284e-05   2.1593506e-04  -1.9784928e-05   3.6767815e-04  -2.0586373e-05   1.0255055e-03  -1.3086951e-04  -3.4175180e-05  -3.0821408e-04  -1.5533946e-05   6.3342659e-04  -5.3833466e-04  -3.5953938e-04
  -1.4646535e-04   7.2535579e-05   5.3099269e-05   1.4573932e-04  -5.6347406e-05   2.2708176e-05  -1.0339062e-04  -5.0305240e-05  -7.9284160e-05   2.3050980e-06   5.4339496e-05  -5.0634466e-05  -3.6396807e-05   2.3835764e-05  -2.6434473e-05   1.4060216e-04   2.0530924e-05  -1.0838931e-04   1.1028013e-04   1.4234727e-04   3.7240781e-05   6.4897744e-05   1.4043966e-05   6.0535140e-06   2.5010057e-04  -2.2066204e-05  -1.6155159e-04  -7.4617565e-04  -1.1191016e-04   2.7035462e-04   3.2470580e-05  -2.0898615e-04   9.0881775e-05  -4.5155207e-07   9.9632030e-05   2.6293428e-04  -6.8572532e-05  -6.3137093e-05   2.3561611e-04  -2.0906857e-04   3.0432409e-04  -4.7926253e-05   1.2703564e-03   9.0173539e-04  -5.4324963e-05  -8.7144115e-05   5.8739945e-05   2.2801085e-04  -3.8910875e-06  -1.2275720e-03
  -1.1499283e-04   7.0915397e-05   6.6362423e-05   1.4294885e-04  -6.8226727e-05   2.7121383e-05  -5.1620194e-05   9.0737987e-05   1.3546708e-05   2.5073361e-05   8.6260603e-05   1.2258311e-05  -1.5141382e-05   5.4572765e-06   2.0704094e-05   1.1220877e-04   4.2447955e-06  -1.2059303e-04   1.2045441e-04   1.5544466e-04   2.0163556e-05   3.7778900e-05  -5.3567248e-05   3.1312549e-05   1.8879621e-04  -2.9527157e-05  -1.6533661e-04  -7.1672635e-04  -2.4153243e-04   1.9065305e-04  -5.5517095e-05  -2.0728390e-04   1.6239615e-05  -1.6799413e-05   1.3765252e-04   1.4881224e-04   3.5544625e-05  -1.1407882e-04   1.4828335e-04  -1.7964288e-04   1.4478280e-04   9.9699340e-05   8.5856923e-04   1.3208725e-04  -6.4847474e-05   1.7891423e-05  -2.7320977e-05   4.5126647e-04   2.5491382e-04  -1.0352253e-03
  -1.4569086e-04   7.8414181e-05   9.1488291e-05   1.6175500e-04  -2.8496388e-05  -2.1294099e-05  -1.1681388e-04  -1.3304599e-04   2.7168766e-05   2.6851201e-05   5.8494777e-05   2.0344155e-06  -9.6400881e-06  -7.3747848e-05  -6.7414558e-06   1.7620443e-04  -3.5250164e-06  -1.2743665e-04   1.7912514e-04   1.7617534e-04   3.4812892e-05   6.5787062e-05   2.9101848e-05   6.6143650e-05   1.9155275e-04  -4.3684180e-05  -2.2167852e-04  -7.3125929e-04  -9.0156846e-06   2.7436469e-04  -3.9489038e-05  -2.3569328e-04  -5.4967502e-05  -5.3293639e-05   1.7287405e-04   2.3594662e-04   3.7024245e-05  -8.0383601e-05   9.1160327e-05  -1.1259265e-04   3.0611682e-04  -4.4049149e-05   4.1884746e-04   4.3562159e-04  -5.1808151e-05  -6.6912362e-05   1.3049880e-04   2.1367190e-05  -5.4940436e-04  -5.5160740e-04
  -1.0875112e-04   7.9389072e-05   7.4620119e-05   1.7400623e-04  -3.8880418e-05  -3.4798079e-05  -7.5924254e-05  -9.2233044e-05  -1.2940229e-05   2.5604955e-05   4.1359785e-05   1.7375007e-06  -3.2940143e-06  -3.2803604e-05  -2.2333217e-05   1.6187277e-04  -9.2096407e-06  -1.1239453e-04   2.3858379e-04   1.7159065e-04   4.8060392e-05   8.0968530e-05  -1.8519735e-05   7.4942886e-06   1.7984697e-04   6.7670764e-05  -2.1509230e-04  -7.3452631e-04  -1.5948013e-04   2.4939631e-04  -7.8988647e-05  -2.2499057e-04  -1.3629033e-05  -6.1712686e-05   1.3685646e-04   1.1720999e-04  -1.0080090e-04  -9.1815928e-05   2.2963120e-04  -1.4302541e-04   3.2234887e-04  -9.9498338e-06   6.3002936e-04   2.5318604e-04  -1.9378713e-05  -2.0127327e-04   1.0017252e-04   4.4992613e-04   3.1639717e-04  -2.3732298e-04
  -1.1350252e-04   8.5583175e-05   5.0547365e-05   1.4065340e-04  -3.7029651e-05   1.9728635e-05  -9.4540519e-05  -2.1812475e-04   9.4127008e-06   4.4249642e-05   8.4241023e-05   4.1552146e-05   3.2782453e-05  -8.0911035e-05   7.3294832e-06   8.2094106e-05  -3.0877247e-05  -1.2920650e-04   1.6022525e-04   1.6625163e-04   3.2786356e-05   8.6355889e-05   3.7568221e-05   1.2183523e-04   2.6779427e-04   8.6754641e-05  -1.3365327e-04  -7.0821022e-04   2.0661784e-05   2.0452394e-04  -5.1027673e-05  -2.6728280e-04  -9.3880655e-05  -7.6293276e-05   9.9321696e-05   3.0137989e-04  -1.8177046e-04  -7.3609241e-05   1.1067418e-04  -1.5037404e-05   2.0235640e-04   5.4201599e-05   1.1520526e-04  -3.5736914e-05  -8.4482104e-05  -7.0106755e-05  -7.6150864e-05   5.5173953e-04   3.6265270e-04  -9.1582834e-04
  -1.6520458e-04   7.9923244e-05   6.2786647e-05   1.4990295e-04  -3.7276834e-05  -9.3947465e-06  -2.7274473e-05  -1.0891466e-04   7.6430451e-06   3.4188037e-05   4.7078684e-05   2.2703167e-05   1.8892195e-05  -4.4053289e-05  -1.5294059e-05   3.3067729e-05  -2.6409944e-05  -1.3326215e-04   1.7495370e-04   1.9598704e-04   4.9140130e-05   9.2931492e-05   6.2018378e-05   5.7158304e-05   2.2402625e-04   3.3070010e-05  -1.6580800e-04  -6.9537718e-04  -7.6080934e-05   1.6771373e-04  -5.2394560e-05  -2.1923328e-04   8.4482286e-05   1.1973227e-05   9.8298879e-05   2.5585038e-04  -1.0486999e-06  -8.8472327e-05   2.8682829e-04  -9.2527414e-05   2.2622566e-04   4.3786265e-05   7.9810829e-04   2.7060710e-04   2.2268068e-07  -1.9004921e-04  -4.6130490e-06   2.9585906e-04   4.5454024e-05   6.0668949e-04
  -1.9675719e-04   7.3981872e-05   8.6169755e-05   1.3489532e-04  -4.4452012e-05   7.1074806e-05  -5.2392159e-05  -4.0537827e-05   9.4554809e-05   3.4431312e-05   5.3451677e-05   6.1027563e-06  -5.8902438e-06  -4.9772334e-05   7.6689808e-05   1.5038087e-04  -1.0677487e-05  -1.1301495e-04   2.9009979e-04   1.8782323e-04   3.1109837e-05   7.3745556e-05   3.0650230e-05   5.9269660e-05   2.3434419e-04   1.1505686e-04  -1.6800925e-04  -6.8235223e-04  -1.8239809e-04   2.0553834e-04  -2.2046095e-06  -2.4852232e-04  -1.7241560e-05  -2.7793549e-06   1.7440192e-04   2.5301965e-04  -9.6862110e-05  -9.6712567e-05   7.8032877e-05  -1.5379069e-04   2.9497547e-04  -1.5597592e-06   3.3279235e-04   9.7640260e-04  -9.1542664e-05  -3.0648979e-04   2.1165561e-05   4.1840124e-04  -1.6043801e-04  -1.1100858e-03
  -1.4631095e-04   7.4539152e-05   5.1515326e-05   1.4002336e-04  -2.5759588e-05   1.1232505e-05  -3.4717432e-05   5.3408326e-06   4.7911697e-05   3.4639455e-05   3.5387155e-05  -9.5810565e-06   5.1950465e-06  -4.5926921e-05   1.1269436e-04   1.2026770e-04   6.5834156e-06  -1.0617045e-04   1.6846364e-04   1.7955134e-04   5.3613483e-05   5.8774705e-05   4.2794949e-05   1.4680875e-05   2.1773016e-04   7.9044592e-05  -1.9686557e-04  -7.1348721e-04  -1.2926226e-04   1.6092199e-04   6.7452429e-06  -1.8221162e-04   5.8803448e-06   4.4177785e-05   1.4940876e-04   1.5748684e-04  -7.6328790e-05  -9.7871714e-05   2.2643234e-04  -6.4757901e-06   2.0606746e-04  -1.2161755e-05  -3.1714767e-04  -5.0095149e-04  -3.9333710e-05  -6.0584684e-05  -4.6430938e-05   6.4848973e-05   6.2835839e-05   1.2066911e-03
  -3.0579562e-05   7.0023510e-05   9.1642498e-05   1.5196169e-04  -9.2365235e-06   7.3880583e-06  -9.1930306e-06  -1.2880804e-05   2.6777298e-05   2.1171383e-05   2.1353024e-05  -5.4600958e-05  -6.4756346e-06   2.6884982e-05  -8.7686467e-06   1.4220743e-04   2.2564998e-05  -1.0026944e-04   3.4346941e-04   1.7969172e-04   5.3398435e-05   4.3371852e-05   1.5569401e-04   4.8529237e-05   2.4511394e-04   1.5376916e-05  -5.3941723e-05  -6.8232307e-04  -9.0019130e-05   2.4002443e-04   5.3058408e-05  -1.3947776e-04  -4.2392425e-05   1.0656975e-06   1.2326177e-04   1.7446857e-04   2.0235435e-04  -9.1943555e-05   7.1152805e-05  -1.3762407e-04   2.2924115e-04   6.0869643e-06   3.4876927e-04  -8.2165549e-05  -7.4805495e-05  -1.8984474e-05  -7.9714599e-05   1.0125479e-03  -1.3875520e-05  -4.4883427e-04
   3.1146232e-05   7.4315307e-05   8.5764827e-05   1.3760959e-04  -2.4275982e-05   6.8139241e-05  -1.8967796e-05   1.1619470e-04  -5.7314912e-05   3.7877558e-05   3.8100981e-05  -3.2634271e-05  -8.9915939e-06   3.6344685e-05   1.6734005e-04   5.9343398e-05   2.0814057e-05  -9.1740330e-05   2.6943692e-04   1.8034462e-04   2.2739967e-05   8.7811895e-05   4.2289983e-05   9.3804047e-05   2.7277682e-04  -3.0421130e-05  -1.4822402e-04  -6.7800924e-04  -1.2890702e-04   1.8932963e-04   1.9110146e-05  -1.7916616e-04  -2.6620241e-05   3.2253287e-05   1.2782573e-04   2.3380107e-04   9.1820330e-05  -1.0914581e-04   1.8483661e-04  -6.1782957e-05   2.1990691e-04  -5.7618628e-05   4.3147098e-04  -2.5303289e-04  -5.0138595e-05  -1.0310108e-04  -3.7368896e-05   3.9699959e-04  -4.4534238e-05  -9.0858043e-04
  -1.0856969e-04   6.5133914e-05   1.2158840e-04   1.4705853e-04   2.9580101e-06   8.8679750e-05   1.1684049e-05  -3.2981876e-05  -1.3743528e-05   2.1526501e-05   2.3446421e-06  -6.2917890e-05   4.7627716e-05   1.0296564e-05   4.8669604e-05   9.3407638e-05   1.5780714e-05  -1.0371020e-04   2.7553018e-04   1.8014443e-04   3.9939303e-05   3.7228292e-05   2.6860042e-05   7.7359655e-05   2.2604559e-04   2.5730220e-05  -9.5211632e-05  -6.8764639e-04  -1.7584000e-04   1.9231492e-04   5.6284141e-05  -1.7994372e-04   8.9624460e-05   2.3718812e-05   1.2672409e-04   2.7071586e-04  -1.0809843e-05  -5.2097777e-05   1.4182547e-04  -5.6047189e-05   2.6541910e-04  -1.3336456e-04   2.1641630e-04   4.2229227e-04  -4.5363460e-05   2.9567935e-05  -5.5346754e-05   2.2913799e-04  -1.1954283e-03  -1.0495798e-03
  -1.8865099e-05   6.6532972e-05   1.1069103e-04   1.3065075e-04   3.5084331e-06   1.0958177e-04   4.9913328e-05   2.0978518e-04  -8.4401639e-05   1.5038435e-05   4.1543049e-06  -4.1022326e-05   3.3701239e-05   1.0481423e-05  -8.6468908e-06   1.6024808e-04   2.5264762e-05  -1.0448585e-04   3.9552795e-04   1.8556102e-04   2.0123882e-05   6.1924860e-05   8.4000465e-05   5.3455464e-05   2.9613922e-04   8.1984610e-05  -4.6711571e-05  -7.0960971e-04  -1.2421719e-05   2.1557015e-04   5.4364595e-05  -1.5774183e-04  -1.1420842e-04   5.2553318e-05   1.4585532e-04   1.8228461e-04  -1.0065392e-04  -1.3436501e-04   1.3182149e-04  -4.9672908e-05   1.0694845e-04  -5.6733010e-05   4.0551429e-04  -8.9488691e-04  -8.8718029e-05  -5.9593607e-05   1.4959475e-04   1.4773462e-04  -1.0321485e-04  -8.1892993e-04
   7.9605379e-05   6.6438137e-05   5.8367419e-05   1.2156556e-04  -1.4340803e-05   1.2377714e-04   3.2350108e-05   2.9675070e-05  -1.0808500e-04   2.3166540e-05   4.6979226e-06  -7.5382202e-05  -1.0149310e-05  -3.3204313e-05  -1.3577248e-05   1.1690103e-04   5.0520401e-05  -1.0974424e-04   2.8415871e-04   1.7530554e-04   2.6217480e-05   2.4555067e-05   2.5039722e-05   6.7352616e-05   1.9569497e-04   4.9779177e-05  -1.0426358e-04  -7.2469667e-04  -1.8492888e-04   2.2735444e-04   1.1342493e-04  -1.4845196e-04  -1.0315274e-04   6.2615196e-05   1.1190917e-04   2.0645600e-04   5.9475853e-05  -8.2929102e-05   1.6383798e-04  -1.1141368e-04   3.0040080e-04  -3.6662470e-05   1.6394522e-04   3.8392644e-04  -2.5203706e-05  -1.3278970e-04  -2.7732565e-05   3.8605861e-04  -6.6504779e-04   1.9600433e-04
   2.4440033e-06   4.9775877e-05   8.1432248e-05   1.3022298e-04  -1.9306146e-05   1.6551906e-04  -7.0314587e-07   1.1925409e-04  -1.6199239e-04   1.2243278e-05  -1.4607461e-05  -9.2498703e-05   1.9668053e-06   1.7375800e-05  -2.5052075e-05   1.4056372e-04   4.7051999e-05  -1.1218528e-04   2.3943615e-04   1.6714391e-04   3.3499960e-05   5.4701341e-05   6.2471467e-05   8.7363209e-05   2.0795078e-04   2.3983073e-05  -9.3454124e-05  -7.2963076e-04   1.7128967e-05   1.9606271e-04   1.1338525e-04  -1.4310422e-04  -1.4331641e-04   6.9754809e-05   1.2583181e-04   1.9557738e-04  -3.2132066e-05  -6.3519830e-05   1.7829897e-04  -1.0404732e-04   4.4477105e-04  -5.3399326e-05  -8.8485409e-05  -2.2280846e-04  -9.1817499e-05  -2.3630468e-04  -7.2806644e-05   1.6280179e-04  -1.3047145e-04  -7.3829340e-04
   9.8057217e-06   5.3624335e-05   8.3635881e-05   1.1456649e-04  -6.5202184e-06   1.1674094e-04   1.1891882e-05  -1.2147851e-04  -9.8762503e-05   2.6698362e-05   3.1521440e-06  -3.8944370e-05   6.9231055e-06   3.6871443e-05  -8.0776308e-06   1.9831515e-04   2.9786315e-05  -1.2246285e-04   1.7102470e-04   1.7601298e-04   1.5635076e-05   6.1510541e-06   4.4641984e-05   2.8490840e-05   1.5463609e-04   1.1581666e-04  -1.3477316e-04  -7.5188436e-04   8.8825822e-05   2.0595404e-04   1.0395116e-04  -1.7204715e-04  -5.5202727e-05   2.7877863e-05   1.4614292e-04   1.9354433e-04  -1.9183457e-04  -1.2236934e-04   1.9099115e-04  -1.1966803e-04   2.1556101e-04  -5.3818127e-05   2.8796250e-04   7.3791211e-06  -1.6629067e-04   1.2269029e-05   2.0625554e-05   5.3322979e-04  -2.5022938e-04   1.7722203e-04
  -2.4909527e-06   5.1240389e-05   1.0660794e-04   1.2166694e-04  -1.0796959e-05   4.9317223e-05   3.5519577e-05  -1.4889921e-04  -1.1785454e-04   1.7912627e-05   2.1559733e-06  -4.8391561e-05   5.7952871e-06  -8.2960642e-06   6.4272404e-05   7.3543451e-05   4.4934470e-05  -1.2821746e-04   3.6315224e-04   1.7449581e-04   1.6253336e-05   4.7536683e-05   1.0706978e-04  -3.3775090e-05   2.4384940e-04  -2.5447065e-05  -1.3922661e-04  -7.4629579e-04  -2.4504919e-04   2.2261812e-04   1.2543953e-04  -1.6890932e-04  -1.4341576e-05   5.8274967e-05   1.5743215e-04   2.2271601e-04  -9.5304829e-05  -9.6334436e-05   1.3154776e-04  -1.2863296e-04   2.1814756e-04  -7.4068853e-06   4.7313661e-04   1.9751277e-04  -7.7615594e-05   2.7583932e-05   6.0281054e-05   1.1262377e-03  -1.6968169e-04  -4.9824483e-04
  -6.0611172e-05   4.0818253e-05   8.1898630e-05   1.1541128e-04   1.0533866e-05   1.0004187e-04  -2.8984516e-06   3.4298009e-05  -1.0229486e-04   1.2348447e-05  -2.2173695e-05  -7.9264566e-05   3.7125137e-05   3.4680772e-05   4.1703634e-06   1.2090099e-04   4.9246002e-05  -1.1522276e-04   2.9341556e-04   1.5920396e-04   3.1351050e-05   9.1476595e-06  -6.3018633e-05   5.6688303e-05   2.5043200e-04   2.1010079e-05  -1.2999271e-04  -7.5338286e-04  -9.4014656e-05   1.9858596e-04   1.3577650e-04  -1.8199683e-04  -1.0731961e-05   2.9094514e-05   1.2244258e-04   2.8920840e-04  -5.9786082e-05  -9.8839409e-05   2.0733115e-04  -8.0040527e-06   2.9146930e-04  -3.2547377e-05   9.7662641e-04   6.5177405e-04  -1.2509192e-04  -2.3247823e-05   5.0128408e-05   3.0292623e-04   3.7854703e-04  -3.5136729e-04
  -7.6359123e-05   3.9210205e-05   7.0371767e-05   1.0852160e-04   7.4122468e-06   5.4436827e-05   4.3027929e-05   1.4737868e-04  -1.1459689e-04   2.0097532e-05   1.6129017e-05  -6.9123133e-05  -6.5902873e-07  -5.0724262e-05   1.6239212e-05   6.9497852e-05   4.7532350e-05  -1.2791266e-04   2.0626163e-04   1.5391155e-04   1.4754956e-05   7.0652779e-05   4.9315666e-05  -1.2898238e-05   2.7802750e-04   4.1029463e-05  -1.4580158e-04  -7.3666201e-04  -1.4353922e-04   2.1076605e-04   9.9575387e-05  -2.0877803e-04  -8.3655184e-05   9.6445910e-05   1.3911587e-04   2.2345231e-04   4.4401917e-05  -1.1714963e-04   1.9163736e-04  -5.0717426e-05   2.3518244e-04   4.9129630e-06   8.4334990e-04  -3.2045718e-04  -6.4405402e-05  -1.9591770e-04  -2.2933989e-05   4.3944400e-04  -5.0427200e-04  -9.3593053e-04
  -1.0756665e-04   3.7522499e-05   5.5916578e-05   1.2622430e-04  -5.9489553e-06   7.5230557e-05  -2.9062232e-06   1.4545616e-04  -1.2688918e-04   1.9747509e-05  -7.2279050e-07  -5.7032779e-05  -1.3548250e-05  -1.6289263e-05  -3.6995887e-05   1.3141471e-04   2.2816415e-05  -1.1764438e-04   1.1967165e-04   1.7276692e-04   2.1901293e-05   5.2383122e-05  -4.7070280e-08   6.2888525e-06   2.0203427e-04   4.5115845e-05  -1.0456130e-04  -7.4448518e-04  -1.1457769e-04   1.5488926e-04   5.7513429e-05  -1.5960130e-04  -8.8293658e-05   6.0733117e-05   1.4347311e-04   2.2531769e-04  -9.3426373e-05  -1.1234956e-04   1.6340865e-04  -1.2232966e-04   2.9458171e-05   1.2916780e-07   4.6653594e-04   7.1809930e-04  -1.1771485e-04  -2.4248491e-04  -8.6470085e-05   7.7857432e-04   3.2678596e-04  -6.9394172e-04
   2.5581632e-05   2.9098299e-05   4.8560953e-05   1.0960766e-04   8.1791650e-06   1.2539086e-05   7.5501288e-07  -4.9425702e-04  -1.5484157e-04   2.2702192e-05  -2.4406736e-06  -5.4481588e-05  -1.4410606e-05  -1.3256748e-05  -3.8695682e-05   1.2510052e-04   4.4177363e-05  -1.2570377e-04   1.4342941e-04   1.5553315e-04   6.2638683e-06   3.0832161e-05  -6.1419069e-06   3.1620799e-05   2.7247932e-04  -4.5655524e-05  -1.9786203e-04  -7.6203572e-04  -2.0726824e-04   1.5661189e-04   1.1518552e-04  -1.4613521e-04  -3.7677044e-05   8.9789712e-05   9.3632712e-05   2.2652571e-04  -2.6359205e-04  -1.6474615e-04   1.5629477e-04  -2.6465261e-05   3.4399817e-04  -5.2095824e-05   1.4289273e-03   1.1959976e-04  -1.1722919e-04  -9.0279151e-05   1.1881967e-07   4.8106367e-04  -5.3433934e-04  -5.1378371e-04
   3.0216725e-05   2.4667357e-05   2.6243419e-05   8.6023836e-05  -2.2128464e-05   7.3245101e-05  -2.8467675e-06   8.2262392e-05  -5.3069052e-05   1.5890058e-05  -5.0059871e-06  -9.1061709e-05   6.1279288e-06   3.1505671e-05  -2.7302392e-05   6.8947375e-05   6.9546324e-05  -1.1095827e-04   7.0774389e-05   1.5706898e-04   1.2453226e-05   2.9576560e-05   3.0155401e-05  -9.3108749e-05   2.7732589e-04   1.4826425e-04  -1.1952200e-04  -7.4021873e-04  -3.0075270e-04   1.5061536e-04   1.5469809e-04  -1.4825672e-04   7.7739560e-06   7.4992640e-05   7.2436560e-05   1.6781493e-04   5.0517054e-05  -1.2421381e-04   2.1498215e-04  -9.9826859e-05   1.9108654e-04  -5.7550511e-05   1.0618658e-03   6.9224875e-04  -6.4070984e-05   9.1773603e-05  -7.9085803e-05   1.0863512e-03  -1.0542874e-03  -1.7612828e-03
  -9.8862249e-05   1.7299795e-05   4.9663573e-05   9.9857672e-05  -2.9817222e-05   5.0974511e-05  -2.4543968e-05  -1.8621386e-04  -1.7271131e-04   8.2532924e-06  -5.0329989e-05  -1.2117800e-04   1.9875621e-05   4.0222618e-05  -1.4222093e-05   7.4452284e-05   8.6715881e-05  -9.3577401e-05   1.4930915e-04   1.5570236e-04   1.9919638e-05   3.3428882e-05  -7.7290260e-06  -7.5277487e-05   2.4418399e-04   7.9507830e-05  -5.9874325e-05  -7.3300989e-04  -1.3174150e-04   1.8787693e-04   1.8809085e-04  -1.5722841e-04  -2.7059819e-04   1.4191891e-04   1.0058215e-04   1.7635038e-04  -8.7311477e-05  -1.9198972e-04   1.3484222e-04  -1.2605726e-05   2.6549902e-04   3.1432468e-05   4.0651718e-04   1.1787165e-04  -1.4076887e-04  -5.6398174e-05  -2.7848711e-05   9.5511285e-05  -4.0391128e-04   1.4174114e-03
  -7.5054995e-05   1.3492371e-05   3.2738306e-05   8.0652557e-05  -3.7867096e-05   7.2692899e-05  -2.0593394e-05   2.3653041e-04  -2.0869313e-04   2.2497878e-05  -1.1833416e-05  -1.1497837e-04   2.8048169e-06   5.0309751e-05   5.6203153e-05   9.4804163e-05   1.0189886e-04  -9.1134585e-05   1.7868077e-04   1.5419167e-04   8.9638684e-07   1.8572622e-05   4.4981214e-05  -5.7709396e-05   2.0395234e-04   5.2539408e-06  -2.9739618e-05  -7.4469473e-04  -2.9419176e-05   1.6484525e-04   2.7803233e-04  -1.1678124e-04  -1.7171679e-04   1.6122083e-04   9.0873713e-05   1.1267635e-04  -1.4779465e-05  -8.6118998e-05   2.0010585e-04  -8.7856642e-05   2.2218107e-04   5.8412967e-05   3.8186982e-04   2.0121504e-04  -1.9767258e-04   7.7217555e-05  -8.9796988e-05   3.8353985e-04   6.0847407e-04   5.7136262e-04
  -1.2349684e-04   1.1492870e-05   4.9885341e-05   9.1578018e-05  -4.6161756e-05  -1.2945103e-05  -3.6793101e-06  -4.1135194e-04  -2.0394257e-04   2.0151298e-05  -1.6229105e-05  -1.4176282e-04   1.1478218e-05   6.6646149e-05   2.0855403e-05   1.0222494e-04   1.0418559e-04  -9.4849223e-05   1.7180608e-04   1.5733484e-04   7.1784698e-06   2.1592150e-05  -8.5838314e-05  -1.8486147e-05   1.6192318e-04  -3.7652844e-05  -7.5779317e-05  -7.3645578e-04  -3.1600398e-04   1.9459768e-04   2.6134364e-04  -1.0818832e-04  -1.7708229e-04   1.2332840e-04   1.2536088e-04   1.9116781e-04   7.8473407e-05  -9.0253518e-05   1.1684938e-04  -1.1905106e-04   2.0168979e-04  -5.4353648e-05   1.0884133e-03   5.4292375e-04  -9.1580463e-05  -4.0308191e-04  -9.2536306e-05   2.7706041e-05  -4.8122177e-04   4.6443281e-04
   1.4264726e-05   6.0170887e-06   2.3829783e-05   7.8947785e-05  -1.0787537e-05   2.0678426e-05  -1.2391135e-05  -6.8576352e-05  -9.5750009e-05   3.1879772e-05  -2.0321004e-05  -1.0113516e-04  -2.7453931e-05  -2.3843315e-05   5.5211349e-05   7.4244177e-05   9.5094932e-05  -8.7507477e-05   2.2124013e-04   1.5003979e-04  -5.8504475e-06   6.3778018e-05   2.4262194e-05  -9.7520191e-05   3.0075785e-04   5.4046836e-06  -1.0632048e-04  -7.4730266e-04  -7.9501966e-05   2.1903188e-04   2.8668783e-04  -1.0282920e-04  -3.6579580e-04   1.5639699e-04   1.2032580e-04   1.8173123e-04  -1.5243585e-04  -1.0207095e-04   2.3196795e-04  -8.1425656e-05   3.4217522e-04  -9.6835996e-05   1.2857338e-03   3.8035747e-04  -1.4950994e-04  -1.7719007e-04   4.8545331e-05   2.0641276e-04  -9.2495995e-04  -7.4752560e-04
  -9.4295101e-05   9.0232279e-06   3.3565029e-05   7.8087593e-05  -4.2775664e-05   6.7473142e-05   4.4369510e-05   8.8681714e-05  -8.7034517e-05   3.7193200e-05  -3.0715798e-06  -1.1367655e-04  -1.0255128e-05   4.3782406e-05  -1.9500951e-05   4.0235234e-05   1.0538731e-04  -7.9545804e-05   1.4747710e-04   1.4705746e-04  -4.5440206e-06   3.6822317e-07  -3.8723214e-05  -5.2677482e-05   2.0448868e-04   2.8227343e-05  -7.4635849e-05  -7.3980144e-04  -1.5260500e-04   2.3525355e-04   2.6016988e-04  -1.0707560e-04   7.0129921e-05   1.5861116e-04   7.9382400e-05   2.7040191e-04   2.5592698e-04  -7.1096969e-05   1.7936401e-04  -5.6707384e-05   2.9912117e-04  -1.4393909e-04   6.6999759e-04  -1.8587976e-04  -1.3629043e-04  -2.5069804e-04  -7.7355589e-06   4.8751722e-04  -1.6337125e-04   1.4088373e-04
  -8.2760904e-05   7.2869516e-06   3.1035313e-05   7.2440977e-05  -1.7115906e-05   1.4508068e-05  -5.0462262e-05   1.6325217e-04  -2.1648642e-05   3.4442921e-05  -8.6855862e-06  -1.2731395e-04   1.0191187e-05   7.7048178e-05   5.9933645e-06   1.1774305e-04   1.0616980e-04  -7.6251366e-05   1.6774794e-04   1.3235984e-04   1.2881641e-05   9.2824894e-06  -1.0897269e-04  -1.0372187e-04   2.8237520e-04   7.8598750e-05  -8.5995698e-06  -7.5631624e-04  -3.7657592e-04   2.6483726e-04   2.8208495e-04  -8.8470435e-05  -1.4184179e-05   1.4442176e-04   1.2762540e-04   2.6562533e-04   1.6945116e-04  -4.1696807e-05   2.3416027e-04  -5.9242859e-05   4.1376101e-04   9.9343688e-06   1.1852408e-03   2.5782372e-06  -7.4933159e-05   2.7479678e-05   1.3076616e-04   2.8476329e-04  -1.1925790e-03  -2.0051009e-03
  -1.0672719e-04   4.2424622e-06   7.7488958e-06   7.0224334e-05  -2.9713106e-05   4.9664046e-05   6.4129790e-06   9.3168899e-05  -3.6140857e-05   6.1583305e-05   1.9957348e-05  -8.4923347e-05  -3.3687556e-05   9.0087291e-05   1.1175386e-04   6.5443346e-05   9.1121088e-05  -8.5213673e-05   3.5172459e-04   1.4461522e-04   5.2221833e-07  -5.0274728e-05  -1.6479593e-05  -4.1265823e-05   2.6225625e-04   9.9395147e-05  -8.8445471e-05  -7.5116527e-04  -2.7092444e-04   2.0614604e-04   3.0328098e-04  -8.9087611e-05  -1.8636169e-04   1.4527423e-04   8.6119333e-05   2.5431739e-04  -7.7511186e-06  -9.0793481e-05   2.6829258e-04  -1.9897294e-04   3.5055052e-04   5.8288857e-05   6.4653903e-04   5.9631909e-04  -1.0537472e-04  -1.0951496e-04   8.3463747e-05   2.5850319e-04   1.4335933e-04  -8.5085590e-04
  -9.0386158e-05   1.1468916e-05   9.7033881e-06   8.3380699e-05  -2.6725225e-05   3.0243773e-05  -6.1773171e-05  -8.9213558e-05  -3.6180812e-05   7.4186290e-05   3.2360691e-05  -4.2203243e-05   7.5911245e-08   4.0578678e-05  -2.6040392e-05   1.1706980e-04   6.7263798e-05  -9.7708813e-05   1.3583401e-04   1.6093448e-04   1.4409108e-05   7.6171136e-06  -6.9172245e-05  -7.5869153e-05   2.6634155e-04   1.1045738e-04  -1.1832835e-04  -7.6076429e-04   6.1186045e-05   1.8853582e-04   2.2102428e-04  -1.0645796e-04   1.1749666e-05   1.8061907e-04   8.6503118e-05   2.8160689e-04   1.8880772e-04  -6.4678672e-05   1.9314246e-04  -1.0618138e-04   2.8646179e-04   3.0091262e-05   1.3227129e-03   8.6104177e-05  -9.4090792e-05   5.3246353e-05   3.8856389e-05   6.4519502e-04  -1.1532760e-04  -2.2781131e-04
  -1.0194274e-04   8.9774267e-06   1.7227874e-05   1.0029994e-04  -3.5348472e-05   4.7052043e-05  -4.8480455e-05  -7.9622565e-05  -9.9594989e-05   8.2812207e-05   3.2407734e-05  -3.3686330e-05   3.1151703e-05   2.2452477e-05  -6.0837123e-05   3.9585215e-05   4.8675876e-05  -1.2123366e-04   1.0600686e-04   1.4703546e-04   2.6115702e-05   6.8626687e-05  -4.6932149e-05  -1.6016735e-05   2.5079542e-04   1.5602037e-04  -1.1047975e-04  -7.6539052e-04  -3.3668577e-05   2.3491230e-04   2.3549769e-04  -1.0000253e-04  -1.1734698e-04   1.4833210e-04   1.1693883e-04   3.3955101e-04   5.3218366e-05  -9.3307477e-05   1.1509039e-04   4.5230527e-06   3.0995902e-04   9.8598348e-06   5.6229811e-04  -2.2717145e-04  -1.1345185e-04  -1.0746253e-04   2.4160101e-05   9.7899254e-05   1.9299521e-04  -1.2009513e-04
  -3.7957325e-05   1.6168326e-05   7.1628760e-06   8.7942601e-05  -3.8495655e-05  -9.5035748e-06  -5.6668825e-05   1.4033158e-04   7.1021881e-05   1.0177703e-04   5.8488411e-05   1.9162328e-05   3.1542626e-05  -1.9818062e-05  -1.1502794e-04   8.6728287e-05   1.9495041e-05  -1.3005396e-04   2.9426787e-04   1.4961300e-04   1.7041515e-05   8.0314103e-06   2.0407117e-05  -7.2999952e-05   1.8105433e-04   6.3627405e-05  -1.9106508e-04  -7.4801018e-04  -1.2490565e-04   2.6907286e-04   1.6578323e-04  -1.1468172e-04  -1.5726384e-04   1.7465607e-04   1.1072341e-04   3.2116880e-04   3.3693839e-05  -7.8608638e-05   1.7385709e-04  -7.4545351e-05   1.9917956e-04   2.4165569e-05   3.7677129e-04  -1.3171237e-05  -9.6640579e-05  -4.9641571e-05   2.9533741e-05   7.9737796e-04  -2.7944290e-04  -3.7590263e-04
  -8.5831365e-05   1.7769826e-05   1.5347812e-06   9.4092858e-05  -2.9009283e-05   2.8432156e-05  -4.7078345e-05  -3.0219837e-05   3.5046847e-05   1.0563774e-04   6.5041044e-05   1.0827926e-05   2.2595640e-07  -6.1516337e-05  -1.4977256e-04   6.9257017e-05   2.5436377e-05  -1.3285663e-04   2.7233647e-04   1.5773182e-04   3.6019454e-05   5.6390829e-05   6.7749606e-05  -4.7806361e-06   2.3845350e-04   6.6974142e-05  -1.2858793e-04  -7.5443782e-04  -1.9101919e-04   1.7565640e-04   1.9964164e-04  -1.1831543e-04  -1.3087648e-04   1.5077002e-04   1.1073174e-04   2.4478167e-04  -2.0506486e-05  -1.1525858e-04   8.3637562e-05  -5.1026534e-05   4.7409759e-04   5.1676972e-05   9.8668283e-04   2.7969352e-04  -1.2494939e-04   6.4205697e-06   1.6585682e-05   2.3411032e-04  -7.4498355e-04  -9.1835478e-04
   3.7141675e-05   1.8237824e-05  -1.4972182e-05   9.2470582e-05  -2.7449643e-05  -2.4064586e-05  -3.6367369e-06  -4.4576740e-05  -2.7123117e-05   8.9718917e-05   4.5397632e-05   5.2032397e-06   2.4168616e-05  -1.0617492e-05  -9.6838921e-05   6.0274455e-05   1.9248140e-05  -1.2104805e-04   2.6002288e-04   1.5358100e-04   3.2090920e-05   8.2108832e-05   1.4059727e-05  -6.6819052e-06   2.6634830e-04   7.6000921e-05  -1.2647528e-04  -7.4527273e-04  -1.4429452e-04   2.0682246e-04   1.5216788e-04  -7.6371340e-05  -5.9693615e-05   1.3804242e-04   1.3801026e-04   2.1298698e-04   2.5544301e-04  -8.6855085e-05   1.2801493e-04  -1.3652147e-05   2.6987621e-04  -1.2603788e-05   1.1241483e-03   1.0312549e-03  -1.5270569e-04  -5.8029495e-05  -8.3113140e-05   3.1415751e-04   8.1072957e-04  -3.1091154e-04
  -2.3913833e-06   2.2340633e-05  -1.2680423e-05   9.7627933e-05  -5.5318997e-05  -1.3271316e-05  -1.6564993e-05   3.0385790e-04   2.0704623e-05   9.5714793e-05   6.4450935e-05  -9.7587199e-06   3.0307978e-05  -1.1603330e-05  -7.2395051e-05   9.4684423e-05   1.9533813e-05  -1.1934951e-04   1.2645157e-04   1.5273641e-04   4.4346940e-05   6.5973982e-05   1.4320703e-05   3.4625245e-05   1.8458947e-04   1.2649917e-04  -8.8832225e-05  -7.2634500e-04  -2.3776584e-04   1.4533028e-04   1.9960180e-04  -9.3213122e-05  -1.4881889e-04   1.4180070e-04   1.2148649e-04   2.4687944e-04  -8.8933659e-05  -1.1875685e-04   9.8764416e-05  -9.8142140e-05   2.2261549e-04   4.3068394e-05   6.4261182e-04   2.3774678e-04  -4.3637632e-05  -2.4550900e-04  -1.5827909e-04   2.7420660e-04  -4.8722664e-04  -2.0100729e-04
  -1.7444976e-05   2.4171401e-05   1.0649785e-06   1.0532685e-04  -4.5339442e-05   5.3946253e-05  -4.9574570e-05   2.6367538e-04   5.7686841e-05   8.6000968e-05   4.4594060e-05  -4.2571875e-05   2.7626298e-05   1.2336037e-07  -5.2271538e-05   8.4293701e-05   4.7246533e-05  -1.1339031e-04   8.0999038e-05   1.5075142e-04   6.2107385e-05   1.2409521e-05  -2.4260977e-05   7.7332379e-06   2.4665229e-04   6.2528197e-05  -2.0907419e-04  -7.1949762e-04  -3.7149648e-04   2.1425640e-04   1.8617602e-04  -5.8107329e-05   3.1556072e-05   1.2028628e-04   9.1785529e-05   2.5438651e-04  -1.2042517e-04  -1.0487964e-04   1.1661283e-04  -7.0804417e-05   1.8157708e-04   4.3193802e-05   1.1470655e-03   9.5013250e-04  -5.6619105e-05  -1.0619627e-04  -1.1041085e-04   5.3360930e-04   7.0499070e-04  -1.5613179e-03
  -8.5658139e-05   2.6026915e-05  -2.7260732e-05   9.0016096e-05  -2.2217830e-05   5.5875840e-05   3.9092753e-05   3.0068198e-04   8.6829568e-05   8.8421140e-05   5.9040391e-05  -1.9833220e-05  -9.9282797e-06  -7.5481089e-06  -6.6081157e-05   6.8850553e-05   3.9650113e-05  -1.2097246e-04   1.7863834e-04   1.4648738e-04   3.1367879e-05   5.5558623e-05   3.0274503e-05  -8.2273882e-06   2.3367540e-04   3.0058634e-05  -1.8249362e-04  -7.0256885e-04  -1.5081426e-04   2.5006363e-04   1.5999672e-04  -8.1093400e-05  -1.5883010e-05   1.3808614e-04   9.5638978e-05   2.1830239e-04   2.3651322e-04  -7.3163319e-05   1.3491423e-04  -2.4351546e-05   4.1660544e-04   6.1042716e-05   5.9387943e-04   6.4342859e-04  -8.5114763e-05  -9.7065502e-05   8.0534946e-06   7.5655838e-04   2.8176251e-04  -1.4730181e-03
   2.4570270e-05   2.8577013e-05   6.9871198e-06   8.3108818e-05  -3.7258258e-05   6.7090703e-05  -7.5702170e-05   3.5915065e-05   9.4362505e-05   7.7109078e-05   4.5449178e-05  -3.7898477e-05   2.9045386e-05  -2.8923598e-05  -1.4808853e-05   9.3266091e-05   2.8879929e-05  -1.2128036e-04   2.0544592e-04   1.4556038e-04   4.5375196e-05   4.7345377e-05   1.0226694e-04   1.2813994e-05   2.4741853e-04   7.2478579e-05  -1.3874042e-04  -7.0679421e-04  -1.3132217e-04   2.2093332e-04   1.8181435e-04  -8.5245170e-05   2.6634076e-04   1.4926221e-04   8.5408523e-05   2.3418055e-04  -3.6022775e-05  -3.7766800e-05   9.6918440e-05  -3.2520031e-05   2.6442364e-04   1.3083133e-05   2.1345154e-04  -4.0794260e-04  -1.1686868e-04  -3.1375189e-04  -4.4964949e-05  -1.0123049e-04  -3.7162627e-05   6.6720113e-06
  -3.8434002e-05   2.7319629e-05   9.5200248e-06   1.0482759e-04   6.1200961e-07   2.8769859e-05  -5.1580118e-05   1.0138797e-04  -6.7899797e-05   6.1281178e-05   2.6382006e-05  -2.9745406e-05  -1.7710172e-05  -2.0536630e-05  -5.0093724e-05   1.2477049e-04   3.1646781e-05  -1.1549013e-04   1.5942742e-04   1.3837633e-04   2.7273200e-05   6.1495986e-05   5.9607148e-05  -1.5416212e-05   2.0049511e-04   8.1867503e-05  -1.4404516e-04  -7.1154587e-04  -1.1339627e-04   2.3019011e-04   1.9243901e-04  -1.1423179e-04   5.7403577e-05   1.3952079e-04   7.2505602e-05   2.3062296e-04  -2.3912158e-04  -6.7552362e-05   1.9101481e-04  -5.0726776e-05   3.9606928e-04   9.7712100e-06  -2.6805303e-04   1.2745151e-04  -1.4787324e-04  -2.9779176e-04  -3.0474646e-05   9.5259841e-04  -8.8692509e-04   1.0165244e-03
  -6.3486848e-05   2.4278717e-05   1.2842881e-05   9.4411844e-05  -7.3314118e-06  -1.2121995e-05  -1.4251937e-05   3.9659972e-05   4.9420465e-05   7.3060881e-05   4.6256093e-05  -4.0686049e-05  -7.9501142e-06  -2.3258641e-05   4.1599451e-05   1.3758782e-04   2.3604856e-05  -1.2283992e-04   1.4923769e-04   1.3097031e-04   2.2972938e-05   2.0451120e-05   6.2974024e-05  -4.9761234e-06   2.0096291e-04  -3.4502125e-05  -7.7611519e-05  -7.0441328e-04   1.1677210e-04   2.1775845e-04   1.8675929e-04  -9.7277647e-05   1.4773944e-04   1.5788838e-04   1.1040767e-04   2.4465803e-04  -3.7539678e-05  -7.4014875e-05   1.1081743e-04  -6.2516585e-05   2.2327968e-04   2.5172327e-05   3.4547728e-04  -1.3697692e-04  -9.9952005e-05  -1.8034528e-04   2.2237737e-05   3.1578742e-04  -4.6903212e-04   2.9369278e-04
  -3.4743302e-05   2.5906593e-05   1.6357286e-05   1.1133130e-04  -2.6492608e-05   8.4393207e-05  -3.8045805e-06  -1.5642547e-05  -7.3448406e-05   5.8615664e-05   2.2145119e-05  -5.8268528e-05   2.9413613e-06  -4.2493004e-05  -7.6316292e-06   6.4954125e-05   1.8727893e-05  -1.2958764e-04   1.3383334e-04   1.3077316e-04   2.9583729e-05   5.2616469e-05   9.5618916e-06   2.2205999e-05   1.7195196e-04   2.5794167e-05  -1.2571643e-04  -7.0095749e-04  -3.3737469e-04   2.0216205e-04   1.3151624e-04  -7.9458929e-05   6.5191271e-05   1.3076306e-04   1.1857166e-04   2.4620668e-04  -6.4725800e-06  -3.0237331e-06   1.1278361e-04  -7.3424024e-05   4.5664594e-04  -5.4864053e-05   1.5664559e-04  -2.4259860e-04  -1.7885580e-04  -1.4518680e-04  -5.7526351e-05   5.7219923e-04  -2.6185749e-05   8.6876168e-04
  -6.6314293e-05   2.4049965e-05   4.3288630e-05   8.8292232e-05   1.5468930e-05   6.5834924e-05   4.7910638e-05   1.7252793e-05  -6.7013883e-05   6.6858520e-05   3.4803143e-05  -3.3288372e-05   9.2458804e-06  -2.6599173e-05  -9.0586320e-05   1.0498767e-04   2.3354329e-05  -1.3128032e-04   2.3734056e-04   1.2850955e-04   8.2348170e-06   7.0219015e-05   4.5185141e-05  -1.9493908e-05   1.4557465e-04   5.7364952e-05  -1.1345543e-04  -6.8944722e-04  -5.3050797e-05   1.4184024e-04   1.1364476e-04  -1.0673056e-04  -1.6386743e-05   1.0863962e-04   1.3296751e-04   3.8229948e-04  -1.5430246e-04  -5.8546524e-05   1.4071628e-04  -1.5187373e-05   3.5897706e-04  -1.5331054e-05   5.8039697e-04  -9.0960157e-04  -3.9445276e-05  -1.1712405e-04  -7.5575546e-05   4.9067877e-04   1.1205063e-04  -1.2146434e-03
   5.5303506e-05   2.6362231e-05   3.7407863e-05   9.3399554e-05  -3.1346510e-06   3.3270055e-05   7.4560623e-05  -2.9022069e-06  -4.5481214e-05   6.6587359e-05   2.6411561e-05  -2.7172202e-05   1.2285014e-05  -4.1289852e-05  -1.0451300e-04   1.2635288e-04  -2.0693031e-05  -1.2936156e-04   1.1923118e-04   1.3510427e-04   3.0013891e-05   8.0776525e-05  -2.8055976e-05   3.2294702e-05   1.1434909e-04   8.0305945e-05  -2.2877462e-04  -6.8641093e-04  -7.1243732e-05   1.9697653e-04  -5.0110145e-07  -1.4025449e-04   1.9135386e-04   1.0364137e-04   1.7058768e-04   2.4923374e-04  -2.1600323e-04  -8.0048587e-05   1.3920128e-04  -1.2456783e-05   2.4748617e-04   9.0667447e-05   6.7728217e-04  -4.8442246e-04  -2.2394797e-05  -2.8423269e-04  -1.1526723e-04   7.6443405e-04   9.7741286e-05  -4.3612375e-04
  -1.0631526e-04   3.0661329e-05   1.8909401e-05   9.4593801e-05   4.1879837e-05   1.0856810e-04   2.8177772e-05  -6.2730149e-05  -1.2600049e-04   6.2195926e-05   2.1586045e-05  -3.8267932e-05  -1.5884039e-05  -1.3239037e-04  -1.1899391e-04   1.0414774e-04  -6.8576264e-05  -1.5416168e-04   1.5563288e-04   1.4165147e-04   5.1171424e-05   8.5253560e-05   1.0055961e-04  -3.5863006e-05   1.2201028e-04   2.8277791e-05  -1.7473582e-04  -6.3015771e-04  -2.5812991e-05   1.2207223e-04   3.0873543e-05  -1.6256003e-04   8.9853638e-05   7.1560135e-05   1.1791637e-04   3.0284497e-04  -2.0478148e-05  -3.0234312e-05   1.2666700e-04  -5.8002453e-05   1.8535821e-04  -5.1034571e-05   1.3165441e-03   6.2312675e-04  -1.2539885e-05  -1.7282240e-04  -1.0350623e-04   4.4632950e-05   1.3156270e-04   1.4877364e-03
  -1.2001839e-04   2.9075525e-05   4.5326028e-06   1.2095229e-04   1.7281300e-05   3.8991653e-05   6.1312137e-05   1.0801851e-04  -5.5001859e-05   8.3789528e-05   6.3823303e-05   5.9465888e-06   1.8110808e-05  -9.9979981e-05  -3.4940454e-05   1.2370585e-04  -7.2444855e-05  -1.7686852e-04   7.3339361e-05   1.2601170e-04   3.3722838e-05   6.2746367e-05   4.8090478e-05   2.2540051e-05   1.1581419e-04   1.3462063e-04  -2.2101971e-04  -5.6451443e-04  -4.7051494e-06   1.9520921e-04  -5.4774595e-05  -1.9677787e-04  -1.4478482e-05  -9.0613403e-06   1.1487558e-04   3.1216035e-04   5.5236516e-05  -4.4822951e-05   9.8166813e-05  -3.9396633e-05   1.0876088e-04   5.4963362e-05   4.5955989e-05   6.3016207e-04  -1.0125512e-05  -2.6794022e-04  -2.3854457e-04   3.8406029e-04   7.4483058e-04  -1.3288067e-03
   1.1638409e-04   2.9645091e-05  -3.5774348e-05   1.2906834e-04   1.4766162e-05   7.5520788e-05   3.7866736e-05  -2.2252697e-04  -2.3205803e-05   6.0965369e-05   3.0203406e-05  -1.6229165e-05   1.5554762e-05  -7.5556854e-05  -5.5211785e-05   8.9951092e-05  -8.6179491e-05  -2.0960640e-04   6.8742309e-05   1.2103944e-04   4.6852696e-05   8.7312030e-05   3.2806231e-05   2.3172172e-06   1.3966928e-04   7.6482802e-06  -2.6281731e-04  -5.3249550e-04  -1.4849262e-04   1.4696456e-04  -1.1571195e-04  -2.2087048e-04   7.6295430e-05  -5.9715432e-05   4.8221726e-05   2.9944701e-04   1.1390611e-04  -4.0209088e-06   8.7614120e-05   2.9832350e-05   2.4634792e-04  -1.5648857e-05   1.0330974e-04   2.4616416e-04   5.3489207e-06  -2.7548225e-04  -3.7172147e-05   6.1349092e-05   4.2804904e-04  -3.8778648e-04
   1.2130551e-04   2.9386432e-05  -1.3355325e-05   1.2127357e-04   5.4676129e-06   5.7458765e-05   4.6948331e-05  -1.6512789e-04  -1.8736979e-05   6.1563733e-05   4.5260531e-05   1.6827513e-05  -1.7414519e-05  -9.0014844e-05   2.5717438e-05   8.2957413e-05  -9.4581097e-05  -2.1558831e-04   4.1911957e-05   1.2810271e-04   4.6480367e-05   1.3477592e-04  -9.5611067e-06  -3.1089508e-05   9.4749492e-05  -2.6472298e-05  -2.9642551e-04  -5.1074859e-04  -9.1250178e-05   6.9546935e-05  -1.5061215e-04  -2.3840764e-04  -6.4986285e-05  -3.7295253e-05   1.2478451e-04   2.1540257e-04   2.0607830e-04  -2.6040811e-05  -1.0991122e-05   1.6025342e-05   1.5083721e-04   1.1108636e-05   2.9298401e-04  -2.0219461e-04   4.9224927e-05  -1.9014052e-04  -4.7011985e-05   9.8610748e-05  -6.5813272e-04  -9.1911104e-05
   6.0666600e-05   2.6547123e-05  -4.8757965e-06   1.1429073e-04  -5.8038127e-06   1.1295300e-04   5.1015322e-05  -1.4060304e-04  -1.0486922e-04   6.9807589e-05   5.4161894e-05   1.7076328e-06  -2.5018764e-05  -1.2869269e-04   2.0842641e-05   1.7606476e-04  -9.7108241e-05  -2.3157903e-04   1.2872244e-04   1.2173696e-04   5.9089485e-05   1.0061540e-04   2.7353715e-05  -7.3211530e-05   4.6391237e-05   3.9252911e-05  -2.2059944e-04  -4.5563228e-04  -3.9703711e-05   1.0715881e-04  -2.2238946e-04  -2.3944757e-04   7.4305288e-05  -7.0337577e-05   1.3468176e-04   2.0210577e-04  -1.9717494e-05   7.5225767e-06  -3.7231635e-05  -4.9405990e-05   1.6899164e-04  -1.1995789e-04   1.2118957e-03  -5.7221681e-05   4.1000840e-05  -3.4933539e-05   6.7127371e-07   6.2999438e-04  -2.2656260e-04  -1.4771686e-03
  -9.1852075e-05   2.1466090e-05  -2.3212477e-05   1.0171138e-04   5.3388671e-06   4.5182701e-06   2.6949463e-05   8.7050241e-05  -1.6404856e-05   5.3754484e-05   3.1297306e-05  -4.6447451e-05   2.3969515e-05  -1.0761624e-04  -6.9780559e-05   1.0480280e-04  -8.4017651e-05  -2.3067408e-04   1.3832060e-04   9.9664969e-05   6.0834343e-05   8.5405918e-05   2.9987850e-05  -9.6775941e-05   1.0073977e-04   4.1214407e-05  -1.6846601e-04  -3.9352773e-04  -4.7157577e-05   1.1663625e-04  -2.5718252e-04  -2.4732316e-04   2.7265371e-04  -8.5670385e-05   7.4174444e-05   4.9836737e-05  -7.3821786e-05  -3.3091052e-05   1.0726070e-04  -2.6989708e-05   4.6588350e-05  -1.2659023e-05  -7.3986848e-05  -1.4363573e-04   3.8685926e-06   6.0154478e-05  -3.5186771e-05   8.0108753e-04   1.3587034e-03   6.6324120e-04
   1.3610352e-05   2.6995991e-05  -2.4233659e-05   1.1426345e-04   8.0036489e-06  -2.0147141e-05   4.4420700e-05  -5.4864850e-05  -9.6077223e-05   6.0205908e-05   5.4137592e-05  -4.8477432e-05  -1.5359446e-05  -1.6870131e-04   5.7015208e-05   1.0810594e-04  -7.6050746e-05  -2.5911577e-04   1.6375494e-04   9.2195485e-05   3.9321651e-05   9.4291470e-05  -6.4206171e-05  -1.0369315e-04   1.2724863e-04   1.0164753e-04  -1.3888773e-04  -4.0100055e-04  -5.8802485e-05   1.1166993e-04  -2.4137714e-04  -3.1325521e-04   8.4913981e-06  -1.6299530e-04   1.3871343e-04   1.2771483e-04   1.0141079e-04  -2.6236237e-05   6.1424580e-05   4.7544851e-05   3.6432597e-04  -1.0696562e-04   5.7556364e-04   3.7537637e-04  -1.1757250e-05  -5.6795612e-05  -7.5635951e-05  -2.3847693e-04   3.9940281e-04   1.0992980e-03
   7.2455005e-05   1.6493390e-05  -2.7354045e-05   7.8543409e-05   1.2156195e-05   5.7661076e-05   6.0154812e-06  -4.0150499e-05  -7.7400728e-05   3.9301500e-05   5.0127619e-05  -1.1983263e-04  -3.6623955e-05  -1.3143709e-04   9.9915960e-05   5.2515068e-05  -3.3028882e-05  -2.6761679e-04   6.0685717e-05   7.3851210e-05   4.1671847e-05   8.3891035e-05  -5.0244777e-05  -1.0537121e-04   9.4817195e-05   1.0668176e-04  -8.8109664e-05  -3.9389959e-04   5.0896855e-05   1.1899299e-04  -2.5059801e-04  -3.4539666e-04   3.0237131e-04  -1.3289211e-04   1.1847765e-04   1.8473786e-04   6.7451052e-05   5.3464184e-05   1.0753336e-04   4.0253573e-05   2.3485116e-04  -2.6373766e-05   6.6782517e-04  -4.9707468e-04  -4.5636454e-05  -5.8837977e-05  -3.0638334e-05   4.5914105e-05  -4.4281612e-04  -8.0093922e-04
  -7.6381541e-05   1.8827004e-05   9.3145827e-06   7.5193740e-05   2.4781706e-05   8.5003958e-06   5.8521600e-06   1.8626451e-05  -1.3020569e-04   5.4018979e-05   1.9385783e-05  -1.0372332e-04  -2.8323422e-05  -1.5329300e-04   8.8767971e-05   5.6636294e-05  -5.4485099e-05  -2.9363786e-04   1.6091882e-04   5.8635644e-05   5.2085717e-05   8.5605243e-05   1.7579219e-05  -9.9792276e-05   7.4963486e-05   5.3583753e-05  -1.5706990e-04  -3.7394903e-04  -3.3880124e-04   1.1486637e-04  -2.5961470e-04  -2.7200987e-04   3.6381750e-04  -1.0992406e-04   4.1570587e-05   2.0022076e-04   1.6388438e-04   4.4938468e-05  -3.8975191e-05   9.4702969e-05   2.9349489e-05  -7.4870164e-05   9.6480311e-05  -1.6611842e-04  -4.2677184e-05  -1.0175371e-04  -1.2980581e-04   3.5027132e-04  -5.5638549e-04  -9.9127716e-04
   2.7141590e-05   1.4334637e-05  -2.7180064e-05   8.1518527e-05   1.3392024e-05   1.2126314e-05   4.8589329e-05  -1.1256333e-04   2.1005977e-05   9.2122071e-05   6.5447857e-05  -3.2472843e-05  -1.2823115e-05  -9.2488102e-05  -5.4441127e-05   8.2840372e-05  -5.0558690e-05  -2.8567651e-04   1.7320142e-04   6.3039537e-05   4.4287397e-05   1.2515644e-04  -6.0550821e-05  -7.9882084e-05   1.9637242e-05  -3.8300324e-05  -7.8606165e-05  -2.9353693e-04  -1.4135263e-04   1.2550977e-04  -2.4849892e-04  -3.4084523e-04   1.4523001e-04  -1.0509611e-04   3.6241829e-05   2.5611813e-04   2.1298943e-04  -9.8021601e-06   1.2719112e-05   1.4647006e-04   8.2842402e-05  -2.5330603e-05   5.5242371e-04   2.4040116e-04   1.1570105e-05  -7.1848794e-05  -1.8103721e-04  -2.5581379e-04   8.1931887e-04  -7.0437253e-04
  -1.3544840e-04   4.7826938e-06  -1.3409671e-05   9.7913733e-05   1.3342081e-05   3.5946756e-05   1.7554703e-06  -2.2655098e-04  -1.6856240e-04   8.6484921e-05   6.6248787e-05  -4.5931069e-05  -1.9005925e-05  -1.8360346e-04  -4.8361781e-06   4.9635753e-05  -5.0292674e-05  -2.9190746e-04   9.6928095e-05   5.2586547e-05   4.5837583e-05   6.6382301e-05  -4.4380209e-05  -1.2168077e-04   7.7172830e-05   2.5567941e-05  -5.6551606e-05  -2.6717197e-04  -1.8534491e-04   1.4031230e-04  -1.7585720e-04  -2.7202163e-04   2.4084724e-04  -1.1789717e-04   5.2421874e-05   1.3834517e-04   4.4794495e-05   8.0742211e-06   4.0321916e-05  -8.5630651e-05   1.3313060e-04  -5.9255377e-05  -1.4571723e-04   1.2046014e-04   6.6014227e-06   3.0086729e-05  -1.6561897e-04  -3.9405911e-04   2.8576402e-04  -3.2270217e-04
  -9.6935808e-05   4.0959462e-06  -4.4157732e-05   8.6007567e-05  -7.6672359e-06  -1.2643357e-05   1.1934862e-05   3.9548388e-05   7.4615323e-06   9.7083474e-05   7.5418524e-05  -2.9389705e-05  -1.0821813e-05  -1.2326591e-04   1.3898815e-04  -5.3203497e-05  -2.6786940e-05  -3.1334520e-04   5.5794637e-05   4.4434164e-05   3.5734669e-05   1.1063492e-04  -5.2114701e-06  -1.2771253e-04   3.2816199e-05   1.1123260e-04  -2.0765055e-04  -2.7318494e-04   1.0776846e-04   1.2385892e-04  -1.5688727e-04  -2.6921852e-04   8.4502415e-07  -5.1867140e-05   6.1868552e-05   1.8717549e-04   2.6515385e-04   2.0232212e-05   1.2184417e-04   1.7050482e-06   2.2139406e-04   2.9561188e-05   5.4881757e-04  -2.0527860e-04  -5.9848182e-05   1.7538556e-05  -1.6983011e-04   1.0815831e-04   9.6826389e-04   8.4672926e-04
  -1.1104156e-04   1.0378351e-05  -4.9480310e-05   7.7713928e-05   6.9303228e-06   2.1880265e-05   1.3033026e-06  -1.6494050e-04  -1.8499927e-06   1.5206716e-04   1.0623938e-04   9.1017959e-05  -2.2614482e-05  -1.4070365e-04   3.7496553e-05  -5.2929041e-05  -2.0746031e-05  -2.9989009e-04  -1.0938616e-04   4.7172023e-05   4.6569687e-05   1.4732128e-04  -5.8937999e-06  -2.5125219e-05  -1.2412301e-05   8.6529344e-06  -2.3468318e-04  -2.5023011e-04   7.8842204e-05   1.1724341e-04  -3.9642582e-05  -1.9047699e-04   3.1035003e-04  -2.0722417e-05   4.6717314e-06   1.2360027e-04   1.2423646e-05   2.3472154e-05   2.0010797e-05   1.1186230e-04   2.3198310e-04  -3.8643095e-05  -6.3772046e-04   3.5076446e-04  -2.2660948e-05  -1.2526049e-04   4.6803401e-05   2.0660614e-04   9.3159999e-04   7.6757523e-04
  -6.0986880e-05   4.7944582e-06  -3.3801996e-05   5.6796802e-05   1.2838081e-05   1.3028365e-06   1.4501114e-05   1.5426449e-05  -6.5260625e-05   1.4807557e-04   8.2163773e-05   3.8437796e-05   1.3727861e-06  -1.2351265e-04   1.7941889e-04  -9.1026690e-05   2.2087615e-05  -3.0555605e-04   1.0668598e-04   5.3896685e-05   6.1519000e-05   6.1860883e-05  -7.0836963e-05   3.9292434e-05  -6.2334323e-07   9.1946335e-05  -8.4111698e-06  -2.6129777e-04   1.0353786e-05   1.0666443e-04   5.9307105e-05  -1.3938635e-04  -1.2491854e-04   8.7860462e-05   8.1783319e-06   1.2008329e-04   1.6132544e-04   8.6331551e-05  -3.8528513e-05   9.5215786e-05   2.7001559e-04   1.9696961e-06   2.5714454e-04  -1.6673292e-04  -4.2858421e-05   2.3191456e-05  -9.1893715e-05  -6.1849679e-04   5.9353490e-05   4.7357572e-04
  -1.8022984e-04   9.8022292e-06  -6.0210299e-05   5.2103831e-05   3.1556487e-05   9.9840508e-05   4.3761662e-05  -6.4452805e-05   5.3454427e-05   1.8378225e-04   1.2161475e-04   9.1032307e-05  -1.3570606e-05  -4.8762846e-05   2.6811746e-05  -8.2410275e-05   2.1413669e-05  -3.1984615e-04  -3.2727712e-05   3.5187251e-05   3.7972633e-05   6.8979716e-05   5.3681717e-05  -2.6627176e-05   5.1715208e-05   6.8454094e-05  -1.1176487e-04  -2.9380663e-04   2.7698360e-04   1.5305051e-04   1.2690164e-04  -1.1909818e-04   6.1429811e-05   5.5819906e-05   2.7846565e-05   1.5753177e-04   1.6421358e-04   6.1623927e-05   2.6844844e-05  -1.3000969e-05   2.5876053e-04  -4.8816662e-05   7.5323286e-04   4.5277245e-04  -9.5979209e-05   2.3278187e-06  -1.5174739e-04   5.4781127e-04  -1.8233000e-04   1.1040503e-03
