  -1.0633952e-04   3.8799706e-05  -9.5984316e-05  -7.3755150e-06  -1.2143747e-04  -5.8936199e-05  -9.0742979e-05  -1.6799563e-04  -8.3999599e-05   2.7071350e-05  -7.7988487e-05  -5.2429401e-05  -5.0078826e-05  -9.9739824e-05   2.3790124e-05  -4.6216690e-05  -6.8754798e-06   1.2977274e-04   2.5149437e-05   1.5889409e-05   6.7087590e-06   3.4603614e-05  -1.1544483e-04  -1.0836199e-04  -4.0929884e-04  -1.0910694e-04  -9.7207267e-05  -8.5832900e-05  -2.6055664e-04  -2.1872811e-04  -5.3206739e-05   1.6374773e-04  -2.3323977e-04  -3.8040245e-05  -1.1579029e-04  -1.4168581e-04  -4.3538742e-04  -1.4298943e-04  -1.0184295e-04  -8.1784063e-05  -1.8607475e-06   1.0809285e-06   9.3362888e-04   4.2983927e-04   1.1850082e-05   1.4441230e-04   2.9885001e-04   8.9426868e-04   1.7308444e-04  -3.7758413e-04
  -1.6323564e-04   4.9554794e-05  -1.3007231e-04  -1.5482048e-06  -1.1814303e-04  -6.5751025e-05  -7.8097408e-05  -2.7007441e-04  -7.0928356e-05   3.6369733e-05  -5.5850975e-05  -1.4762256e-05  -4.9175174e-05  -8.5953849e-05  -5.9943122e-05  -2.4044679e-05  -2.8451124e-05   9.8480094e-05  -1.0860162e-04  -2.2452190e-07  -1.8043913e-05   1.8503548e-05  -1.3338251e-05  -1.2855521e-04  -3.2123490e-04  -4.5570043e-05  -1.3332011e-04  -6.2031962e-05  -4.2545711e-04  -2.2513147e-04  -1.2173191e-04   1.1208374e-04   5.3635580e-05  -3.6285895e-05  -1.5116982e-04  -7.4686650e-05  -1.5257792e-04  -1.4681138e-04  -6.7269597e-05  -6.8494803e-05  -2.0249553e-04   5.8174581e-05  -1.2865597e-04   4.3648892e-05  -5.2648749e-05  -4.6256362e-05   3.1492795e-04   3.8194944e-04   2.5687090e-04  -1.1481685e-06
  -7.4461968e-05   4.8737944e-05  -1.1877131e-04  -1.2591281e-06  -1.0911216e-04  -1.0144738e-04  -1.2106109e-04  -1.2113112e-04  -6.6196422e-05   3.4885463e-05  -6.9002381e-05  -8.9302212e-06  -3.5473124e-05  -1.5807721e-04  -6.2466934e-05  -2.1255168e-05  -3.4960533e-05   8.6771484e-05  -3.8704435e-05   1.1198856e-05  -5.0628009e-06   3.0937590e-05  -5.1338528e-05  -1.3332709e-04  -3.8235716e-04   1.5568492e-06  -8.6322303e-05  -1.1496178e-04  -2.6643209e-04  -1.9824556e-04  -1.2995908e-04   8.7221131e-05  -8.3937790e-05  -7.9556594e-05  -1.1906464e-04  -1.8014306e-04  -2.2673370e-04  -1.5054147e-04  -1.3457064e-04   2.8920960e-05  -3.1383371e-04   8.8545887e-05   2.7998211e-04  -1.2420735e-04  -3.3617336e-05   2.5116641e-04   3.7810681e-04   3.6358897e-04   1.9449995e-04  -5.3265841e-05
  -2.5436317e-05   5.7347759e-05  -1.1520858e-04  -9.3066853e-07  -8.2487837e-05  -5.9553477e-05  -5.3319865e-05  -1.1981113e-04  -1.6436165e-05   3.8365044e-05  -4.6430479e-05  -5.4761449e-07  -4.5535395e-05  -1.4143852e-04  -5.6238721e-05  -5.2122716e-05  -3.7362141e-05   7.9030062e-05  -2.7301916e-05  -2.3576445e-06  -2.9361232e-05   4.5119010e-05  -8.1361432e-05  -1.2548029e-04  -4.1435179e-04  -1.3888400e-04  -9.0625836e-05  -8.2788072e-05  -1.6514733e-04  -2.2272106e-04  -1.6578815e-04   1.0690930e-04  -2.6629446e-04  -8.3531821e-05  -1.5320120e-04  -1.5751166e-04  -3.0552215e-04  -1.6368818e-04  -6.8616151e-05   1.0382842e-05  -2.7128533e-04  -2.9502866e-05   2.7911039e-04   6.7203434e-04   3.5008899e-05   7.7369099e-05   3.0026268e-04   4.2574902e-04  -4.5442750e-05   7.2279817e-04
   3.4118897e-05   6.0653048e-05  -1.3166456e-04   1.9150011e-05  -1.2026486e-04  -4.9564409e-05  -5.3887958e-05  -8.7520639e-05  -8.3134670e-05   5.1701718e-05  -6.5942077e-05   2.8922732e-05  -3.7013044e-05  -1.5528058e-04  -2.7615650e-05  -9.4077986e-05  -5.7769212e-05   8.6660832e-05   6.3615335e-05  -1.3099550e-06  -2.2709850e-05   3.8621863e-05  -1.3223921e-04  -5.6754358e-05  -2.8523794e-04  -1.0009657e-04  -2.1111961e-04  -1.1170576e-04  -2.2468899e-04  -2.3411080e-04  -1.9626073e-04   1.3383436e-04  -2.7049164e-04  -4.6575125e-05  -1.2733266e-04  -1.0321460e-04  -1.8967566e-04  -1.0919468e-04  -9.6741460e-05  -1.2608405e-04  -1.7058269e-04   2.4069854e-05   9.0062922e-06  -5.2341371e-04   4.6369314e-05   4.6831563e-05   2.0065860e-04   1.0119702e-04   2.3581120e-04   6.4307307e-05
   1.7058695e-05   6.1061473e-05  -1.2406030e-04   3.3079677e-06  -6.9630543e-05  -4.6289522e-05  -7.7275385e-05   3.1460298e-05   1.2679612e-05   4.7501879e-05  -6.4917229e-05   2.2030055e-05  -4.5331130e-05  -1.3623486e-04  -1.6598401e-04  -8.6060718e-06  -5.4356671e-05   8.7218366e-05   5.6486981e-05  -8.4570638e-06  -2.1834425e-05   5.6263783e-05  -4.6098783e-05  -1.0501962e-04  -3.5786087e-04  -5.5920529e-05  -2.1956894e-04  -1.2475780e-04  -1.5806148e-04  -2.2819696e-04  -1.1007991e-04   1.3751110e-04  -1.2192770e-04  -3.8718288e-05  -1.6200672e-04  -2.2237914e-04  -1.7310274e-04  -1.1119810e-04  -1.2489356e-04  -4.5844899e-05  -9.1968963e-05   1.5535301e-05  -8.6680171e-05   3.0053006e-05  -1.6253203e-05   2.9417983e-04   2.5749567e-04   1.4935412e-04  -1.6100347e-04   6.8533095e-04
   6.5732398e-05   6.0264472e-05  -1.1078763e-04  -1.7520260e-06  -9.4501709e-05  -1.8452190e-05  -6.6941728e-05   2.1806806e-04  -1.6570895e-05   6.1588798e-05  -4.7296453e-05   1.3245177e-06  -3.7018905e-05  -9.1695772e-05  -1.3187605e-05  -4.4697921e-05  -4.2471209e-05   9.7652315e-05  -1.2493574e-04  -1.5479318e-05  -4.3218613e-05   1.6569425e-05  -5.4934524e-05  -1.0203003e-04  -3.7121176e-04  -8.4966101e-05  -3.9903338e-05  -9.8929668e-05  -1.8542820e-04  -2.4456516e-04  -5.6599049e-05   1.3528766e-04  -1.7913202e-04  -1.1885508e-05  -1.7804212e-04  -2.4438556e-04  -2.6232167e-04  -1.3212010e-04  -7.8543504e-05  -3.0717936e-05  -2.3638274e-04   6.3170373e-05   2.8260902e-04  -3.9823930e-04   1.1229943e-06  -5.0157319e-06   3.3593181e-04   2.5394909e-06   1.3142642e-04  -7.3032972e-04
  -5.2440831e-05   5.3318901e-05  -9.5016389e-05   3.3379188e-06  -7.7510755e-05  -2.6261518e-05  -8.5202664e-05   1.0837813e-04  -1.0395604e-05   4.7479352e-05  -8.2116087e-05  -3.8883547e-05  -4.4319120e-05  -7.6768454e-05  -6.4598004e-05   9.9320860e-06  -2.9602539e-05   1.1382614e-04  -1.7211962e-05  -1.4714080e-05  -3.6691650e-05   4.8001817e-05  -4.5874429e-05  -1.4546017e-04  -3.7577032e-04  -5.0173814e-05  -6.6922410e-05  -1.0867743e-04  -2.4099615e-04  -1.8523521e-04  -5.9788454e-05   1.4694493e-04  -1.9599774e-04   4.4176937e-05  -1.6116795e-04  -1.0658878e-04  -1.9769564e-04  -7.2669820e-05  -1.5812117e-05   9.5286441e-06  -3.2336920e-04   9.2045018e-05   2.2640287e-04  -1.7565960e-04  -5.4782038e-05   2.7011329e-04   2.6962344e-04   2.0716613e-04   2.6230395e-04  -5.1628758e-04
   3.0197948e-06   5.3375377e-05  -1.0227481e-04  -3.8315816e-06  -6.5484368e-05  -3.3808003e-05  -5.1488350e-05  -6.1401828e-05   3.1279287e-05   6.2246821e-05  -3.9355997e-05  -7.5875369e-06  -2.9756065e-05  -1.0264735e-04  -4.3145039e-05  -2.4658695e-05  -4.4222426e-05   1.0730905e-04   4.5518231e-05  -2.8270120e-05  -6.2788458e-05   2.8858196e-05  -1.3681420e-04  -1.3455102e-04  -4.3154682e-04  -1.7425301e-04  -5.4809851e-05  -9.6479889e-05  -2.1055085e-04  -2.3623608e-04  -1.1845963e-04   1.5094418e-04  -6.2089334e-06  -1.1014748e-05  -1.5903590e-04  -2.1220310e-04  -1.3786012e-04  -1.1606414e-04  -1.0916821e-04   3.9880688e-06  -1.2922126e-05   3.8586899e-05   3.6905022e-04   1.0863835e-06  -4.9692684e-05  -3.2897340e-05   2.4529375e-04   8.5427967e-04  -2.1219465e-04   4.6692825e-05
   1.0140317e-05   5.4570428e-05  -8.0983780e-05  -1.5534901e-05  -8.1896622e-05  -1.5934744e-05  -3.0242350e-05   3.2163538e-05   3.5311165e-05   6.1516403e-05  -3.9535822e-05  -4.0675957e-05  -3.8914317e-05   3.2082546e-05  -1.1949796e-04  -6.0589489e-05  -8.4505482e-06   1.1710706e-04   4.0909174e-05  -3.0719293e-05  -6.4809501e-05  -5.5827632e-06  -7.4645664e-05  -2.0368914e-04  -2.4929593e-04  -1.1255734e-04  -1.0719043e-04  -9.9770637e-05  -2.0288584e-04  -1.9537241e-04  -5.8353413e-05   1.5182192e-04  -1.0791320e-04  -4.2656004e-05  -1.3241259e-04  -2.0460117e-04  -5.4559605e-05  -1.2706108e-04  -4.2693999e-05  -2.5503437e-05  -1.1270530e-04   7.5141907e-05  -2.0406135e-04  -1.6136091e-04  -3.2246615e-05   8.4569736e-05   2.5598644e-04   2.1553187e-04  -7.0835893e-05   1.5803106e-04
   6.6632114e-05   3.9159615e-05  -8.9980131e-05  -2.1875645e-05  -7.1697483e-05   4.4299168e-06  -5.5586595e-05  -2.4162457e-04   5.3182368e-05   4.5685691e-05  -5.2004558e-05  -6.6372821e-05  -4.7005487e-05  -5.2919611e-05  -4.9567147e-06   1.6324811e-05  -2.9084088e-06   1.2472589e-04   1.0224571e-04  -2.0462439e-05  -6.7745386e-05   2.4778481e-06   3.9675819e-05  -1.8467887e-04  -3.7515484e-04  -1.7861325e-04  -1.1519568e-04  -8.4975945e-05  -1.8437851e-04  -2.0171623e-04  -3.6130012e-05   1.4730575e-04  -2.5226991e-04   1.7841488e-05  -1.3116722e-04  -1.8311854e-04  -2.3138234e-04  -8.1366627e-05  -9.2603645e-05  -3.6991420e-05  -1.9013697e-04   8.3435771e-05   5.6854996e-04  -5.2656030e-04  -6.5888577e-05   1.4725614e-04   2.6319295e-04   5.4800458e-04  -2.3490693e-04   5.7482161e-04
  -2.1289572e-05   4.1745032e-05  -8.7415843e-05  -3.5616711e-05  -1.0945638e-04  -2.7991910e-06  -2.7209744e-05  -7.5653684e-06   1.1013294e-04   7.4687290e-05  -6.6657094e-06  -2.6714539e-05  -4.2524403e-05  -6.0765666e-05   1.2235380e-04  -3.1456748e-05  -1.8334224e-05   1.0278143e-04   2.6154035e-05  -1.9681069e-05  -8.3049628e-05  -2.5491237e-05   1.5980162e-05  -2.1429079e-04  -3.5541100e-04  -1.0536347e-04   7.1565155e-06  -1.1303536e-04  -6.9676084e-05  -1.9339567e-04  -8.1303224e-05   1.3360185e-04  -8.3308507e-05  -3.9196435e-05  -1.5078833e-04  -1.4171688e-04  -1.1488246e-05  -1.1632845e-04  -3.5804122e-05   5.7406237e-06  -1.0633374e-04   6.0736475e-05   3.1668099e-04  -4.5455763e-05  -9.2212613e-05  -4.5963479e-05   2.3387025e-04   2.1886274e-04   8.6825574e-05  -2.3761416e-04
  -3.0584575e-05   4.1233699e-05  -5.9340622e-05  -4.2271411e-05  -1.0459889e-04  -7.1860653e-05  -2.2279179e-05   9.5104740e-05   9.8761651e-05   6.1306302e-05  -2.4562565e-05  -5.8904039e-05  -2.3272647e-05  -3.1963471e-05   6.8961804e-06  -3.4147040e-05   8.9774147e-08   9.5303352e-05  -1.4801887e-04  -2.1331669e-05  -7.8706522e-05   1.2538047e-05  -2.0306450e-05  -1.2688593e-04  -3.0205824e-04  -3.4150627e-05  -3.4609358e-05  -1.0271440e-04  -2.4516758e-04  -1.5057527e-04  -4.8385456e-05   1.1717081e-04  -9.8608492e-05   2.1139434e-05  -1.1141934e-04  -1.6849481e-04  -1.9684737e-04  -1.6844258e-05  -1.6082853e-05  -2.2207198e-05  -1.5622730e-04   6.0366445e-05   1.6028226e-04  -4.5856554e-04  -8.6374428e-05  -1.9396724e-04   2.9565810e-04   1.0018436e-03  -5.1376228e-05   6.8156753e-04
   4.9997234e-05   3.8218903e-05  -7.1001305e-05  -3.5535690e-05  -5.4548855e-05  -2.9816345e-05  -3.3142347e-05  -1.6452419e-04   9.9984100e-05   5.5394867e-05   2.2624693e-06  -6.5840883e-05  -3.9481121e-05   3.9197919e-05  -4.0736297e-05  -2.6828715e-05   4.5485834e-07   9.7176664e-05   7.9110629e-05  -5.0979143e-05  -1.1416159e-04  -5.3150514e-05   3.4866043e-05  -3.0466358e-04  -4.0906039e-04  -1.6465428e-04  -1.8225722e-04  -6.5112778e-05  -2.4373973e-04  -1.8077284e-04  -1.0335949e-05   1.1518275e-04  -6.9328540e-05  -3.3171251e-05  -1.4981824e-04  -1.0555526e-04  -9.2523820e-05  -3.6162113e-05  -2.0473119e-05  -8.8677385e-05  -1.1193689e-04   1.1596152e-04   5.7180494e-04   3.6291213e-04  -6.3825275e-05   2.2926206e-04   1.8515944e-04   2.1751979e-04   2.2454704e-04   4.7922679e-04
  -7.2884613e-05   3.8312541e-05  -1.0951603e-04  -3.1602682e-05  -9.4424911e-05  -6.1858897e-05  -4.3848268e-05  -1.2203674e-06   9.3168579e-05   5.2797855e-05  -2.9896935e-06  -4.2546384e-05  -3.3151505e-06   2.8907290e-05   4.4534794e-05  -6.4768014e-05  -5.5363776e-06   7.6085853e-05  -1.7069686e-05  -4.0272727e-05  -1.0870954e-04  -6.9027235e-05   6.6392255e-05  -1.5111505e-04  -2.5331153e-04  -1.1325256e-04   2.7972817e-05  -8.2476516e-05  -7.5657777e-06  -1.5741316e-04  -6.0191131e-05   1.1071129e-04  -2.6770902e-04  -3.1586358e-05  -1.5476177e-04  -1.1226059e-04  -3.8787888e-04  -5.7669993e-05  -4.3370082e-07  -3.8700695e-05   1.0361618e-04   5.3748812e-05   4.4788379e-04  -6.7978261e-05  -1.1142519e-04   9.4594267e-05   1.9449985e-04   7.7970483e-04   2.3863377e-04   6.8272196e-04
   2.3939849e-05   3.0474768e-05  -6.9565212e-05  -3.3946984e-05  -7.8529927e-05  -7.7662502e-05  -8.1200087e-05  -2.5086367e-04   6.1148763e-05   4.0799314e-05  -1.8313202e-05  -6.1146864e-05  -3.2863245e-05  -2.0695250e-05   1.6245305e-05   3.7060483e-05  -5.0317012e-06   6.2957079e-05   5.1610823e-05  -2.9915969e-05  -8.8855217e-05  -3.4202872e-05  -6.8674592e-05  -1.2613485e-04  -3.1095027e-04  -1.4745856e-04   2.4663168e-05  -8.5884749e-05  -6.7245572e-05  -8.3676321e-05  -5.0896000e-05   1.1973396e-04  -2.0624600e-04   1.4314626e-06  -9.5032374e-05  -1.3064803e-04  -2.4521461e-04  -1.4107609e-05  -4.2823129e-05  -8.1844963e-05  -4.4749791e-04   6.0871924e-05   3.3311115e-04   7.5057418e-05  -4.1909956e-05  -9.9111830e-06   1.8940009e-04  -2.4094614e-04  -1.4672960e-04   6.3735043e-04
   8.4765394e-05   4.6765566e-05  -1.0600132e-04  -3.3804197e-05  -9.1467591e-05  -6.2991545e-05  -8.3378771e-05  -8.2761297e-05   9.8072807e-05   5.5100303e-05   7.2653784e-06   5.6833628e-06  -4.8751670e-05  -4.4132543e-05  -1.3331612e-04  -3.2319811e-05  -1.0651948e-05   3.5492812e-05   7.6547061e-05  -3.5066907e-05  -1.1065425e-04  -5.7676094e-05  -5.0776143e-05  -1.5501268e-04  -1.7145574e-04  -1.6579995e-04   4.3769928e-06  -8.0846607e-05  -1.2772685e-04  -1.2355516e-04  -4.4275541e-05   1.1790547e-04  -9.8634649e-05  -7.9913036e-05  -1.2599459e-04  -1.5239010e-04  -1.2304993e-04  -5.3713273e-05  -1.9914900e-05   5.5256525e-05  -1.7260549e-04   2.6784568e-05   1.5969972e-04  -7.6643820e-04  -5.9964561e-05   1.5500664e-04   2.0503363e-04   1.9334855e-04   2.4838606e-04  -6.1937215e-05
   6.7653760e-05   4.2726704e-05  -9.6303957e-05  -3.7748534e-05  -7.2660565e-05  -5.4022239e-05  -8.2188781e-05  -4.9955361e-05   3.5920813e-05   2.7821941e-05  -2.6774511e-05  -3.2626576e-05  -3.3605837e-05   5.9225578e-05   2.4636298e-05  -3.6311121e-05  -1.9737399e-05   5.1395618e-05   1.4642781e-05  -4.7370278e-05  -1.0943712e-04  -6.0055318e-05  -2.4379151e-05  -1.8535956e-04  -2.6301292e-04  -1.8598215e-04   2.7758480e-05  -7.1009075e-05  -1.1060880e-04  -1.1280341e-04  -3.1773219e-05   9.4838710e-05  -1.2146161e-04  -5.6417368e-05  -4.4299439e-05  -2.0869580e-04  -1.4323724e-04   9.0577450e-06  -4.2550106e-05  -1.0413622e-04  -2.2228473e-04   5.9884303e-05   2.7835790e-06   5.9226225e-04  -6.4879627e-05   2.5080706e-04   2.4085093e-04  -9.5250238e-05  -1.9131706e-04   7.6384353e-04
   3.8549257e-05   3.3239125e-05  -4.9612841e-05  -2.8128867e-05  -4.7356927e-05   2.3791605e-05  -2.2409542e-05  -1.4467332e-04   4.3040473e-05   1.1615872e-05  -3.3726275e-05  -5.5335804e-05  -2.4310097e-05   2.8872533e-05   5.3762262e-05  -3.8558715e-06   3.0067176e-06   5.9269594e-05  -2.3829492e-05  -3.6803533e-05  -1.2461605e-04  -7.0648799e-05  -3.7295253e-05  -2.0743042e-04  -2.7191979e-04  -1.5662870e-04   2.1431845e-07  -6.4535721e-05  -3.7968970e-05  -1.8234317e-04   6.2944864e-08   1.2437403e-04  -2.4692158e-04   8.4669045e-06  -1.5169120e-04  -1.7083122e-04  -9.3903036e-05  -3.4636232e-05   2.5299441e-05   5.1499114e-07  -1.4791173e-04   2.2685694e-05   9.6666641e-05  -4.4463223e-04   1.4028244e-06   2.8068651e-05   2.2082879e-04   1.9590155e-04   2.1598207e-04  -5.3504127e-04
   3.8274473e-05   4.4600551e-05  -8.9017805e-05  -3.5060853e-05  -1.1157627e-04  -9.2383838e-05  -7.5283177e-05   3.1543655e-05   5.9609920e-05   2.5244650e-05  -1.7817634e-05  -3.3196193e-05  -2.3330469e-05  -3.0816780e-05  -4.5216690e-05  -3.6391262e-05  -3.1456066e-06   6.5818829e-05   1.4309940e-04  -3.7740148e-05  -1.3883132e-04  -5.7219211e-05   6.1238147e-06  -1.9740175e-04  -3.2236025e-04  -9.0236150e-05  -7.0411195e-05  -5.2769650e-05  -2.2754386e-04  -1.7174281e-04  -9.4368297e-06   8.8293658e-05  -8.4101572e-05   8.5584006e-08  -1.1732564e-04  -9.4674935e-05  -1.8855681e-04  -3.2727028e-05  -5.3220076e-05   3.9553001e-05  -1.5718519e-04  -7.5761213e-06   4.9551297e-04  -3.0255850e-04  -5.9705286e-05  -6.6158650e-06   2.0681454e-04  -1.8299317e-04  -1.1220677e-04  -1.4329962e-04
  -2.4279992e-05   3.3866934e-05  -1.0019158e-04  -5.2116691e-05  -7.8181831e-05  -7.1751769e-05  -7.9068712e-05  -1.4485014e-05   9.0406982e-05   9.9072568e-06  -3.9543094e-05  -4.3264379e-05  -1.5546655e-05   1.6403168e-05   9.5854055e-05  -4.4878878e-05   5.8316982e-06   5.3247724e-05   4.5532368e-05  -3.6738325e-05  -1.3197465e-04  -7.6786397e-05  -6.9997201e-05  -1.5017467e-04  -2.5772717e-04  -5.2475207e-05   2.5093912e-06  -7.6082542e-05  -2.1685234e-04  -1.0881474e-04  -1.9529385e-05   1.2731897e-04   1.3227747e-05  -1.7121929e-05  -3.3809156e-05  -7.0092537e-05  -8.1741040e-05  -5.4273434e-05  -7.9198744e-06  -5.6660218e-05  -1.3070329e-04   3.3534856e-05   1.9009641e-04  -9.8395358e-05  -7.5997021e-05   2.8382728e-04   1.8676593e-04   4.4279962e-04   5.0183892e-04  -7.2787935e-04
   1.2247321e-04   3.5264340e-05  -7.7662058e-05  -4.2450858e-05  -5.9403214e-05  -4.3354889e-06  -7.1747774e-05   8.5376356e-05   7.8509554e-05   2.3481930e-06  -3.5557074e-05  -5.5113967e-05  -3.9620016e-05  -6.1975814e-05   1.2512844e-04   1.0109878e-06   1.5223027e-05   6.2718638e-05   7.3750329e-05  -6.0826173e-05  -1.5330376e-04  -1.0699392e-04  -8.8901143e-05  -2.0173844e-04  -2.2516807e-04  -1.3017860e-04   7.7006735e-05  -5.4648037e-05   1.3679836e-04  -1.3188631e-04  -2.1828129e-05   1.2956382e-04  -1.4575095e-04  -4.9397622e-06  -8.7974477e-05  -1.1530293e-04  -2.3363177e-04  -3.8922259e-05  -3.6144440e-05  -5.2410916e-05  -1.2330244e-04   1.9251943e-06   9.5653617e-05   3.2479782e-04  -9.2662827e-05  -1.4460915e-04   2.4307102e-04   7.2395058e-05   3.2215794e-05   9.3626027e-04
  -3.8481212e-05   2.9169960e-05  -1.2319630e-04  -5.2875766e-05  -9.3201561e-05  -8.6761480e-05  -8.5762411e-05  -1.4890431e-04  -2.0371674e-05   9.0753365e-06  -2.1867825e-05  -7.3951327e-05  -3.1221257e-06   7.2391617e-06   7.3221163e-05  -5.3338219e-05   1.8190287e-05   8.1362086e-05  -1.5794992e-04  -5.6815585e-05  -1.6689098e-04  -1.6929198e-04  -6.4343636e-05  -2.4340590e-04  -3.8681901e-04  -1.5766872e-04   2.9441864e-05  -5.4207587e-05  -6.4386433e-05  -1.1365626e-04  -1.4688763e-06   1.3635636e-04  -1.9457877e-04  -1.3857296e-05  -8.4840991e-05  -1.2760074e-04  -3.2425225e-05  -7.0791721e-05  -4.5829842e-05   7.5283424e-05  -1.4650410e-04  -9.4909328e-06   4.2328879e-04  -6.6084380e-04  -9.3151350e-05   1.4607245e-04   1.7379229e-04   6.3288555e-04   2.3442337e-04  -3.9325995e-04
  -7.2366754e-05   2.5474401e-05  -1.1220114e-04  -5.1685922e-05  -8.4320367e-05  -3.5869049e-05  -1.0607821e-04   2.5306008e-04   3.3478755e-05   3.4715081e-06  -4.3931312e-05  -5.6260178e-05  -2.1340704e-05   1.0274924e-05   3.1362775e-05   2.4502880e-05   1.6630860e-05   6.8229536e-05  -1.2423680e-05  -4.5331788e-05  -1.5585641e-04  -1.3804768e-04  -1.1753543e-04  -2.5353208e-04  -2.5012315e-04  -9.4408184e-05   2.3854705e-05  -6.1147839e-05  -1.1681287e-04  -1.3243042e-04  -3.4252840e-05   1.8662073e-04  -2.7019644e-04   9.9829940e-06  -1.6132509e-04  -1.3010486e-04  -1.4468281e-04  -2.4242496e-05   6.7646200e-05  -9.6043528e-05   1.7514933e-06   1.2079970e-04  -2.4079280e-04  -8.7463553e-04  -6.0470633e-05   2.8630899e-04   2.6960613e-04   8.6212420e-04  -1.5474664e-04   1.5791698e-04
  -3.5647226e-05   3.0464576e-05  -8.7922723e-05  -6.3000356e-05  -6.9815724e-05  -4.9367125e-05  -8.7864617e-05   8.5081811e-05  -2.1361844e-05   8.0951440e-06  -3.5914574e-05  -3.1908887e-05  -4.0981140e-05  -1.2241265e-05  -1.8168974e-05   3.6914182e-05  -6.9437760e-06   7.5774995e-05  -7.8215824e-05  -6.0300325e-05  -1.8058351e-04  -1.3144262e-04  -1.3765635e-04  -2.7020360e-04  -2.6692339e-04  -1.3508242e-04  -1.3901365e-05  -3.4562527e-05  -2.3770584e-04  -1.3529121e-04   7.5226103e-06   1.5381438e-04  -1.9416588e-04   1.2999338e-06  -8.8508372e-05  -2.1809530e-04  -1.9472543e-04  -6.1207880e-05  -8.3395920e-05  -5.1958072e-05  -4.1972889e-04  -3.1378837e-05  -1.3864160e-04  -2.6871776e-04  -4.4803619e-05   1.9016236e-04   2.3466819e-04   2.6647982e-04   7.2180940e-04   4.0936458e-04
  -5.7502850e-05   3.4277906e-05  -1.0157900e-04  -6.9038222e-05  -1.0218034e-04  -1.1591188e-04  -1.1128308e-04  -9.5849413e-05  -4.6886009e-05   1.8671935e-05  -2.2857037e-05  -1.5261918e-05  -2.8790064e-05  -4.4083816e-05   9.7240663e-06  -3.0860538e-05  -4.1442272e-06   6.1843268e-05  -5.6266923e-05  -4.1223255e-05  -1.7742769e-04  -1.2852626e-04  -9.3113005e-05  -2.6728868e-04  -2.7873099e-04  -1.6495623e-04  -1.7202350e-04  -5.7733549e-05  -9.0114918e-05  -1.3980572e-04  -2.7446775e-05   1.2721671e-04  -1.0060459e-04  -1.0203318e-05  -1.3454985e-04  -2.1209555e-04  -2.9513557e-04  -4.1074622e-05  -3.0715990e-05   2.9687601e-06  -1.2673506e-04   2.3027545e-05   1.8190207e-04  -3.1555200e-04  -6.4300926e-05  -1.4558196e-04   2.3193046e-04   7.7436643e-04   5.2553345e-04  -3.8084792e-04
  -4.1736359e-05   2.7669810e-05  -1.4338305e-04  -6.2332663e-05  -1.0555991e-04  -5.1356903e-05  -1.0196325e-04   1.0539944e-04  -5.8325677e-05   1.3669816e-05  -4.4732864e-05  -2.1478421e-05  -3.3136679e-05  -5.2247997e-05  -5.7212678e-06  -1.7490545e-05  -1.3521045e-05   3.5973582e-05  -1.2152414e-04  -3.6494097e-05  -1.6588827e-04  -1.4182636e-04  -8.7563538e-05  -2.2254739e-04  -3.5676514e-04  -1.1687075e-04  -1.1381764e-04  -5.1081130e-05  -1.7760470e-04  -1.1120462e-04  -1.0278162e-04   9.6602154e-05  -3.5434298e-04  -3.3615117e-05  -1.0141118e-04  -1.6092263e-04  -1.6593422e-05  -6.9969601e-06  -3.8222908e-05  -8.8301509e-05  -1.6926955e-04   6.1644125e-05   8.0454157e-04  -4.7073333e-04  -6.6718699e-06   3.0774323e-04   2.3038761e-04   6.2418956e-04   3.0745205e-04   4.6965893e-04
  -4.8573969e-05   3.4824516e-05  -1.2744880e-04  -7.0880793e-05  -6.3289190e-05  -9.2438953e-05  -9.2535149e-05   1.1636964e-06   3.2524476e-05   1.7758844e-05  -3.6087611e-05   1.5732428e-05  -1.8941555e-05  -6.3018721e-05  -2.1636424e-05  -6.5324450e-05  -8.0840136e-06   4.4986369e-05  -9.7380798e-05  -4.4454038e-05  -1.8220481e-04  -1.2696584e-04  -5.4656437e-05  -2.5376526e-04  -2.6620505e-04  -7.7560493e-05  -1.2683029e-04  -6.3951935e-05  -2.4248533e-04  -1.4016427e-04  -7.7364770e-05   1.0977872e-04  -1.9190676e-04  -3.5791498e-05  -1.6463643e-04  -2.6258110e-04  -2.3187751e-04  -8.4272659e-05  -8.5656538e-05  -5.4186708e-05  -1.6401382e-04   7.7602876e-05   2.5912252e-05   2.1896328e-04  -4.5479825e-05   2.7185504e-04   2.0585528e-04   2.2738375e-04  -3.9681466e-04   4.1443235e-04
  -3.6629619e-05   3.8267655e-05  -1.6550755e-04  -6.9468260e-05  -1.0131925e-04  -7.4298063e-05  -1.3090757e-04   2.1617125e-05  -2.2979588e-05   6.6308698e-06  -3.4220979e-05   4.8868133e-06  -2.1758835e-05  -9.7477263e-05  -6.9785754e-05  -3.8163958e-05  -3.8205959e-05   3.4009707e-05  -6.1828621e-05  -3.3835579e-05  -1.7954160e-04  -1.2788961e-04  -5.8071830e-05  -2.1946349e-04  -3.4214614e-04  -1.1506720e-04  -1.2133583e-04  -6.4240652e-05   4.5320041e-05  -1.4305477e-04  -1.1588115e-04   9.5242438e-05  -1.1767654e-04  -5.4328557e-05  -1.8676292e-04  -1.9308849e-04  -2.2171167e-04  -6.1794271e-05  -2.6311294e-05  -1.0526055e-06  -2.4553968e-04  -9.5250398e-05   1.3296756e-04  -8.9508801e-04   1.0934646e-05   1.1227852e-04   1.3761393e-04   6.2260538e-04  -2.4719753e-05  -4.6385647e-04
   1.9937726e-05   3.0712275e-05  -1.4882955e-04  -7.2139039e-05  -1.0988759e-04  -1.3041894e-04  -1.1376979e-04  -3.0644020e-05  -6.2525054e-05  -5.7851958e-06  -4.8643869e-05  -2.8169290e-05  -2.8845274e-05  -6.8626308e-05  -2.4553774e-05   2.3121588e-06  -1.3371141e-05   4.8484042e-05  -5.3398635e-05  -4.8979233e-05  -1.7506022e-04  -1.4338938e-04  -9.8232536e-05  -2.9323422e-04  -3.1021997e-04  -1.0865505e-04  -1.0510294e-04  -7.5058430e-05  -1.1586524e-04  -1.2498691e-04  -1.1149712e-04   1.3481638e-04  -2.3046741e-04  -7.1049733e-05  -9.4636685e-05  -1.4071424e-04  -9.6765005e-05  -5.1501596e-05   1.6171298e-05   3.8805414e-05  -1.7608934e-04  -1.4223413e-05   4.5095451e-04  -3.8846908e-04  -3.0568556e-06   2.2479358e-05   1.5303047e-04   2.4068265e-04   7.6186647e-05   3.9192531e-04
  -7.7306075e-05   3.3759785e-05  -1.6082337e-04  -7.1199727e-05  -1.2992231e-04  -1.2338193e-04  -1.2259878e-04  -2.0719225e-04  -8.9808957e-05  -5.1412799e-06  -3.1355281e-05  -2.2493867e-05  -3.7417067e-05  -4.9285529e-05  -3.6522626e-05  -7.9786761e-05  -3.5563582e-05   5.4187789e-05  -6.4514352e-05  -7.2910458e-05  -1.9121927e-04  -1.6636019e-04  -1.4147906e-04  -2.6780990e-04  -3.1656789e-04  -1.0785057e-04  -1.0587701e-04  -5.2433083e-05  -1.3222132e-04  -1.5703833e-04  -1.1744000e-04   1.3297939e-04  -3.0368051e-04  -5.7178269e-05  -1.1421437e-04  -4.1836862e-05  -3.4110935e-04  -8.8411805e-05  -1.0963464e-04  -7.8231322e-05  -1.3912417e-04   6.2695945e-05   2.5930590e-04  -2.4875414e-04  -1.0821825e-05   8.3833773e-05   2.1813127e-04   8.6506474e-04   1.7096271e-04  -5.0095294e-04
  -7.3761796e-05   2.4208379e-05  -1.5737605e-04  -8.1501137e-05  -1.3782305e-04  -1.4101439e-04  -1.7465091e-04  -5.5103563e-05  -5.6098412e-05  -2.7453625e-05  -7.3221345e-05  -4.9996161e-05  -4.1871790e-05  -1.2829625e-04  -9.7058517e-05  -7.3699703e-05  -9.1848151e-06   5.4857446e-05  -3.2535099e-05  -7.9172314e-05  -1.8869413e-04  -2.0405385e-04  -1.3549544e-04  -2.9198229e-04  -2.8413229e-04  -2.1144026e-04  -1.1349106e-04  -6.3180792e-05  -2.9097995e-04  -1.4077229e-04  -1.0175830e-04   7.9452431e-05  -2.7486891e-04  -8.9399466e-05  -7.5169904e-05  -1.0285448e-04  -1.8364571e-04  -9.9412071e-05  -2.5328214e-05  -2.1699385e-04  -2.9743495e-04  -3.7018774e-05   3.4303425e-04  -7.3332479e-04   7.2847838e-06  -7.8791410e-05   1.1096322e-04   2.4428131e-05  -1.6560445e-04  -5.2273169e-04
  -4.2761869e-05   8.0260152e-06  -1.6615029e-04  -8.9514848e-05  -1.0384386e-04  -1.2412808e-04  -1.3060684e-04  -1.8264883e-04  -1.1923446e-04  -4.9867351e-05  -9.3471877e-05  -9.4190567e-05  -4.9128892e-05  -5.5368393e-05   3.1440832e-05  -4.2819545e-05  -6.9679895e-06   5.5156019e-05  -1.0820538e-04  -8.6957742e-05  -1.8887043e-04  -1.9943297e-04  -7.9359037e-05  -3.4364307e-04  -2.6791953e-04  -2.2094503e-04   1.3516280e-04  -6.9779649e-05  -1.7664646e-04  -1.3415740e-04   4.3311916e-06   9.2553462e-05  -2.1651694e-04  -6.3937005e-05  -1.7725147e-04  -2.0015003e-04  -2.0035541e-04  -5.3501633e-05  -2.0440257e-05  -5.8916965e-05  -1.5740622e-04  -1.2260918e-04   3.6913936e-04  -2.1805010e-04  -5.3311534e-05   3.4720238e-04   1.4230140e-04   8.6642645e-04   1.5478177e-04  -1.1269626e-03
  -1.1335254e-04   2.1144513e-05  -1.9612604e-04  -9.8491815e-05  -1.4785357e-04  -1.4032499e-04  -1.6861905e-04  -6.9918715e-05  -1.2242567e-04  -4.2426174e-05  -7.3840420e-05  -5.5717846e-05  -6.2484185e-05  -8.3129693e-05  -6.7992987e-05  -1.4870062e-04  -3.6232701e-05   4.6333047e-05  -1.3188942e-04  -9.7747426e-05  -2.0970192e-04  -2.3392696e-04  -1.1249777e-04  -3.8890709e-04  -2.9149413e-04  -1.7675982e-04  -1.5426772e-04  -6.2063133e-05   1.7668233e-05  -1.5406017e-04  -1.0511551e-04   1.0055327e-04  -1.3810904e-04  -9.0215879e-05  -1.7662831e-04  -2.5871376e-04  -2.5139595e-04  -9.8071832e-05  -3.3718520e-06  -1.3787925e-04  -2.1501500e-04  -3.3415752e-05  -1.2155760e-04  -4.7787817e-04  -5.1586736e-05   1.8676677e-04   1.5913408e-04  -1.1311293e-04   2.3851817e-04  -3.6246754e-06
  -1.9034657e-04   1.1434468e-05  -1.9334833e-04  -1.1267296e-04  -1.5453079e-04  -2.0724015e-04  -2.2316123e-04  -1.2124863e-04  -1.8727308e-04  -6.4646491e-05  -9.1212351e-05  -7.7130644e-05  -5.2032479e-05  -1.0148127e-04   1.3401620e-06  -1.0873960e-04  -3.6636153e-05   5.1701085e-05  -2.4658113e-04  -1.0243321e-04  -2.1335295e-04  -2.2502629e-04  -7.6158489e-05  -3.0818506e-04  -2.6979065e-04  -1.1988633e-04  -5.7045938e-05  -5.3671491e-05   4.6887548e-05  -1.2395071e-04  -3.0710435e-05   1.1968172e-04  -3.8878125e-04  -2.0663038e-05  -8.2848514e-05  -2.3431615e-04  -2.2444937e-04  -1.2678951e-04  -7.0261558e-05  -1.8661965e-04  -1.0213044e-04  -7.0967384e-05   4.7207923e-04  -4.1571347e-04  -8.9625493e-05  -1.4709242e-04   1.4344581e-04   1.1285640e-04  -2.2398321e-04   3.3627680e-07
  -1.3599062e-04   4.9159003e-06  -1.7527251e-04  -1.0868186e-04  -1.2591855e-04  -1.6402364e-04  -1.6740020e-04   4.7095175e-05  -1.3954626e-04  -7.8046753e-05  -1.1092704e-04  -1.0035991e-04  -6.8565023e-05  -1.0434289e-04  -3.4717308e-05  -3.8779654e-05  -3.4276465e-05   4.2441570e-05  -1.8012895e-04  -1.0997731e-04  -2.1357817e-04  -2.0281092e-04  -1.7985952e-04  -2.9365803e-04  -3.6652587e-04  -1.3905583e-04   9.2307877e-05  -5.3100586e-05  -3.3558059e-05  -1.1863126e-04  -4.9355462e-05   1.3110209e-04  -4.2673101e-04  -5.3116815e-05  -9.9619487e-05  -1.9803237e-04  -2.8679869e-04  -4.4951325e-05  -6.8546826e-05  -1.6285728e-04  -2.1839350e-04   3.1078158e-05   2.1190915e-04   1.1990062e-04   4.3286800e-06  -3.5626683e-05   1.0302805e-04   7.5404538e-04  -6.6142224e-05   6.5787515e-04
  -1.1324083e-04   1.7688873e-05  -2.1869318e-04  -1.0262821e-04  -1.5532518e-04  -1.8875521e-04  -2.0820895e-04  -4.6644935e-05  -2.2300304e-04  -6.1297862e-05  -8.5066793e-05  -5.4912711e-05  -9.1137954e-05  -1.3361014e-04   1.4924056e-05  -1.4090448e-04  -4.8427974e-05   3.3659813e-05  -1.6787184e-04  -1.1842250e-04  -2.2933424e-04  -2.7274957e-04  -2.0689682e-04  -3.4519142e-04  -2.6585857e-04  -1.7582429e-04  -9.7774486e-05  -6.1890969e-05  -2.2478076e-04  -1.5031037e-04   7.1762884e-07   1.5525489e-04  -2.8407728e-04  -3.1159729e-05  -1.5030529e-04  -2.1763815e-04  -3.8741724e-04  -1.2229332e-04  -1.0569736e-04  -9.8228156e-05  -2.6087169e-04  -8.6495034e-05  -3.1250084e-04  -3.5682449e-04  -3.6312678e-05  -2.7292033e-04   1.3665653e-04   2.3784282e-04  -3.1416348e-05   4.7592208e-04
  -1.1410220e-04   6.2957356e-06  -2.0035937e-04  -1.0378109e-04  -1.5567144e-04  -2.1906341e-04  -2.1733005e-04  -1.0416054e-04  -2.3689703e-04  -6.6522007e-05  -9.5362455e-05  -5.4937987e-05  -9.7205411e-05  -1.4443627e-04  -5.0199869e-06  -1.1038162e-04  -4.4158984e-05   2.1586415e-05  -1.2928229e-04  -9.2747207e-05  -2.0336123e-04  -2.1572669e-04  -1.2332827e-04  -3.3541149e-04  -2.1606160e-04  -1.8753100e-04  -1.1406565e-04  -5.5781995e-05  -8.9158741e-05  -1.3004040e-04  -7.4495161e-05   1.5595650e-04  -5.0530344e-04  -4.0451836e-05  -1.6658656e-04  -2.5577127e-04  -2.7867910e-04  -8.0713246e-05  -5.5753455e-05  -1.2871594e-04  -1.8497754e-04  -6.5585732e-07   7.3042116e-04  -1.1966142e-04  -4.1622436e-05   2.5182171e-04   1.2759118e-04   1.0109155e-03  -3.2493364e-04  -5.4283935e-04
  -1.6488790e-04   4.5925017e-06  -2.1658093e-04  -1.1821933e-04  -1.1937309e-04  -1.3844027e-04  -2.2894323e-04  -5.1934487e-05  -1.4483504e-04  -7.0159876e-05  -1.1335907e-04  -2.5348192e-05  -7.8697158e-05  -1.1997874e-04  -2.1602193e-04  -1.0748201e-04  -6.5620639e-05   1.2712478e-05  -8.3601612e-05  -8.9971451e-05  -1.9689482e-04  -2.3434446e-04  -1.5188918e-04  -3.4237682e-04  -2.8892976e-04  -6.6539105e-05   1.0632516e-05  -9.3158676e-05   7.4916497e-05  -9.3454510e-05  -1.0508290e-04   9.0032590e-05  -2.6622991e-04  -4.7949405e-05  -2.1692035e-04  -1.8816313e-04  -3.6205494e-04  -6.7645167e-05   2.1215461e-05  -2.0512029e-04  -2.1184163e-04  -1.1674288e-04   1.9492438e-05  -5.1047979e-04  -4.3065342e-05   2.5789766e-04   1.6425518e-04   2.0451323e-04  -1.7532404e-04   1.9199698e-04
  -7.8441568e-05   2.1442333e-05  -2.2989690e-04  -1.0477957e-04  -1.3014216e-04  -2.3836686e-04  -1.8588969e-04  -4.9852493e-05  -2.3191105e-04  -5.5753630e-05  -9.5252675e-05   2.2167960e-07  -7.0433758e-05  -1.2290067e-04  -8.3958155e-05  -1.3790844e-04  -7.9561738e-05  -7.3627389e-09  -1.3043768e-04  -1.0724167e-04  -2.1306719e-04  -2.7299841e-04  -2.8137342e-04  -3.0168085e-04  -1.6011574e-04  -1.7591633e-04  -1.6527141e-04  -7.0110123e-05  -7.1720358e-05  -1.1854611e-04  -9.7321354e-05   1.3171230e-04  -1.3278164e-04  -1.4811148e-05  -2.2016962e-04  -1.5502301e-04  -1.6083404e-04  -8.1673068e-05  -5.4222906e-05  -1.3449563e-04  -5.3384530e-05  -1.5353789e-05  -3.6853575e-04   2.3869624e-04  -5.3499956e-05  -9.7770571e-05   1.4119093e-04   4.1228856e-04  -1.2631310e-04  -1.9166437e-04
  -8.9025518e-05   1.5862026e-05  -1.9185491e-04  -1.0843299e-04  -1.3641638e-04  -1.8220850e-04  -2.2328134e-04  -1.1308656e-04  -2.7518929e-04  -6.1593710e-05  -1.0417108e-04   8.0612326e-06  -8.4055166e-05  -1.4075481e-04   9.3860726e-06  -1.6146478e-04  -9.1308342e-05   1.0283426e-05  -1.0503200e-04  -9.5664123e-05  -1.9693264e-04  -2.2813302e-04  -1.7563171e-04  -2.5625803e-04  -2.0733743e-04  -1.0244516e-04  -2.1388390e-04  -9.5890231e-05  -1.0515428e-04  -8.4615931e-05  -9.5112926e-05   1.1822250e-04  -2.6075600e-04  -8.2416955e-05  -1.8469304e-04  -2.8979429e-04  -2.8728691e-04  -8.1160884e-05  -1.7910125e-04  -1.9483455e-04  -2.3364463e-04  -3.8373393e-05   2.9631957e-04   9.5381969e-05  -9.0544672e-05  -4.0974490e-05   1.2953623e-04  -3.3020900e-04  -1.4563391e-04  -1.5335383e-04
  -1.4005785e-04   1.4062784e-05  -1.9905403e-04  -1.0858790e-04  -1.1151678e-04  -1.6491783e-04  -2.0547047e-04  -1.9994176e-04  -2.3267402e-04  -7.6977391e-05  -1.1087823e-04  -1.5870228e-06  -7.2988762e-05  -1.2606860e-04  -4.7291214e-05  -1.2577341e-04  -8.9663314e-05   1.9268095e-05  -2.6216234e-05  -9.8027391e-05  -2.1538095e-04  -2.1819853e-04  -8.7283071e-05  -3.4487873e-04  -1.9620465e-04  -1.5997561e-04  -1.4438294e-04  -8.7760818e-05  -3.1851916e-04  -1.4886560e-04  -7.4769712e-05   1.0683516e-04  -2.8917167e-04  -6.7419693e-05  -1.2417223e-04  -3.0540334e-04  -7.8701800e-05  -1.3445286e-04  -5.6648874e-05  -1.2043281e-04  -2.5864554e-04  -3.3959492e-05  -2.1014536e-04  -1.8380104e-05  -1.0496817e-04  -2.2798232e-04   1.4730517e-04  -4.2428376e-04  -2.5506926e-04  -6.5896988e-05
  -6.9857102e-05   2.1699485e-05  -1.9490464e-04  -8.4027728e-05  -1.4912659e-04  -1.4550170e-04  -1.9400136e-04  -1.9001108e-04  -1.9965238e-04  -6.9815287e-05  -1.0739003e-04   7.7639731e-07  -3.0008183e-05  -8.2157596e-05  -4.6098223e-05  -1.7331455e-04  -9.9643556e-05   1.1102245e-05  -2.5206318e-04  -1.0034725e-04  -2.1051291e-04  -1.9925379e-04  -1.4442275e-04  -3.0253417e-04  -2.3168947e-04  -1.8428273e-04  -1.2262836e-04  -6.9013942e-05  -2.5874531e-04  -1.7197737e-04  -9.4983901e-05   1.2278781e-04  -7.4378113e-05  -9.2012990e-05  -1.7023650e-04  -1.8675553e-04  -3.9317456e-04  -6.5051026e-05  -9.0582391e-05  -8.8755871e-05  -7.6422220e-05  -3.2391850e-05   1.1138347e-04  -2.7784175e-04  -3.6550158e-05  -3.6368489e-05   9.4533672e-05   6.6787464e-04  -8.6727709e-04  -1.9870547e-04
  -1.6921727e-04   1.2586438e-05  -1.9671704e-04  -1.1159651e-04  -1.1846752e-04  -1.8187167e-04  -1.8539204e-04  -1.1954149e-04  -1.4391335e-04  -9.4057803e-05  -1.2394834e-04  -1.0653487e-05  -3.9227874e-05  -1.3097678e-04  -5.9232214e-05  -1.5136880e-04  -9.3507537e-05   1.2157172e-05  -2.3785629e-04  -9.3324648e-05  -1.8666200e-04  -2.0687474e-04  -9.3784445e-05  -2.2986189e-04  -2.4710875e-04  -1.2428983e-04  -1.2109251e-04  -8.9604815e-05  -5.8207384e-05  -1.4889939e-04  -9.4132651e-05   1.3106150e-04  -5.3975516e-04  -9.0717986e-05  -1.3215932e-04  -2.0370274e-04  -2.2525944e-04  -1.0466277e-04  -1.5398569e-05  -1.5543401e-04  -3.0192290e-04  -6.6184861e-05   2.1001487e-04   2.1731931e-04  -1.0272945e-04  -1.6373130e-04   8.4328596e-05  -1.6814999e-04  -4.3812608e-05   4.4292286e-05
  -5.1763705e-05   7.1123704e-06  -2.0950411e-04  -9.4301555e-05  -1.0712117e-04  -1.6620073e-04  -1.4813410e-04  -6.4626183e-05  -1.9897232e-04  -9.9720171e-05  -1.1003095e-04   2.6705253e-05  -5.2383963e-05  -1.6313880e-04  -1.2842090e-04  -1.0890245e-04  -1.0963112e-04   2.4543924e-05  -1.9979959e-04  -7.4852949e-05  -2.0424610e-04  -2.3053100e-04  -1.0784031e-04  -2.5799061e-04  -1.8401702e-04  -5.9425693e-05  -1.6936158e-04  -7.2048941e-05  -2.7811106e-05  -1.6008427e-04  -8.2453043e-05   1.2631914e-04  -2.8956728e-04  -5.7477329e-05  -2.0935874e-04  -2.3708181e-04  -1.9154372e-04  -1.1520035e-04  -1.4721631e-04  -2.1774626e-04  -2.7497159e-04  -8.3523635e-05   1.0050406e-04  -8.5254735e-04   1.7005439e-05  -2.1716216e-05   1.4627226e-04   3.2023402e-04   3.8380420e-04   1.5389916e-04
  -1.4315179e-04   1.5546484e-05  -1.5946473e-04  -1.0383767e-04  -1.2295383e-04  -1.9833304e-04  -2.1122051e-04  -3.1249793e-04  -1.8131667e-04  -1.1186168e-04  -1.2705364e-04  -1.6186170e-06  -6.5977525e-05  -1.0622338e-04  -1.6278718e-04  -1.8023088e-04  -9.8443583e-05   2.5021398e-05  -3.1740844e-04  -8.7964632e-05  -2.0207385e-04  -2.5873588e-04  -8.9379333e-05  -1.9036967e-04  -2.4182697e-04  -1.6609782e-04  -2.0375027e-04  -8.5416832e-05  -1.7029118e-04  -1.5039624e-04  -1.1644529e-04   1.4883207e-04  -1.6117036e-04  -2.7886161e-05  -2.6800722e-04  -2.8057941e-04  -2.8094093e-04  -1.1184484e-04  -9.8478718e-05  -1.1725439e-04  -2.3868254e-04   3.8746392e-05  -1.2477441e-04  -4.3680306e-04  -1.6947168e-05   2.3090260e-04   8.7309003e-05  -3.0902913e-04   1.6117733e-04   1.0806315e-03
  -1.4946486e-04  -2.6947498e-06  -1.9426676e-04  -1.1190726e-04  -1.1259411e-04  -1.6409450e-04  -1.7046680e-04  -2.2754879e-04  -2.2819510e-04  -1.3288554e-04  -1.4599763e-04  -3.8014241e-05  -5.6525118e-05  -1.4535965e-04  -7.4262469e-05  -1.5162519e-04  -8.5856991e-05   3.2893928e-05  -2.1386848e-04  -9.2277143e-05  -1.8362603e-04  -2.3167508e-04  -1.1794427e-04  -2.3707838e-04  -2.4832296e-04  -1.3968862e-04  -1.7087912e-04  -7.2706724e-05  -2.2070231e-04  -1.0552218e-04  -9.1765338e-05   1.6061036e-04  -2.8799369e-04   1.6690725e-05  -1.9665307e-04  -3.0405493e-04  -4.1815935e-04  -8.7769040e-05  -3.2665415e-05  -2.1025768e-04  -4.2770503e-04  -5.1085037e-05  -1.8610132e-04   2.7741340e-04  -3.6536007e-05   6.2783496e-05   1.0438318e-04   9.5994916e-04  -9.2547241e-05   7.1252976e-04
  -7.1853494e-05   4.4734088e-06  -1.8574552e-04  -1.1444162e-04  -9.4487332e-05  -1.3448304e-04  -1.8826003e-04  -3.5573266e-05  -1.9542898e-04  -1.2779114e-04  -1.3101166e-04  -1.7684277e-05  -5.2467403e-05  -9.9403289e-05  -1.4404122e-04  -1.7666660e-04  -8.8972185e-05   3.6746023e-05  -1.6809470e-04  -9.1246518e-05  -2.0092358e-04  -2.8650480e-04  -7.3015770e-05  -2.7526071e-04  -1.9943443e-04  -1.5635366e-04  -8.3289895e-05  -8.0542559e-05  -1.8664150e-04  -1.4485506e-04  -1.2179441e-04   1.6977178e-04  -3.2607926e-04  -2.7990878e-05  -1.2241348e-04  -3.5573580e-04  -3.9933357e-04  -8.6656371e-05  -1.0677222e-04  -2.0245099e-04  -2.5020583e-04  -7.6557211e-05   3.0144778e-04  -3.3146644e-04   4.2811822e-05   1.4204937e-05   7.1670300e-05  -1.3688552e-04  -2.3667479e-04   3.2952445e-04
  -6.8697380e-05   4.5554948e-06  -1.9057024e-04  -1.0556661e-04  -1.1003320e-04  -1.9515127e-04  -1.7503244e-04  -1.3632259e-04  -1.7767223e-04  -1.3576096e-04  -1.4783874e-04  -4.8687652e-05  -5.5905497e-05  -3.7201717e-05  -5.1164038e-06  -1.1774562e-04  -8.1542596e-05   3.9923041e-05  -1.8024267e-04  -1.0174556e-04  -1.9473652e-04  -2.9344464e-04  -1.1307327e-04  -2.7919121e-04  -2.3704300e-04  -1.7060337e-04  -1.8406959e-04  -8.5644286e-05  -2.6636969e-04  -1.4616884e-04  -6.4605490e-05   1.8490365e-04  -1.7401195e-04  -6.4295921e-07  -1.5337025e-04  -1.7670156e-04  -2.7689102e-04  -1.2604667e-04  -9.4553754e-05  -1.2787807e-04  -2.4072276e-04  -1.4514409e-04   8.0167723e-05   1.4367577e-04  -5.8752739e-05   1.8312941e-04  -3.5222763e-06   4.0949424e-04  -3.5599913e-04  -4.8970274e-04
  -7.6545366e-05  -6.0574162e-06  -1.4269016e-04  -1.3119118e-04  -1.0332267e-04  -1.9567055e-04  -1.7677061e-04  -1.7629701e-04  -2.5463733e-04  -1.4634040e-04  -1.5040094e-04  -9.0808717e-05  -6.6684755e-05  -4.0211617e-05  -2.3382778e-05  -1.0269857e-04  -8.0013619e-05   2.9164677e-05  -1.8014770e-04  -8.4563566e-05  -1.7949883e-04  -2.7130856e-04  -3.2433330e-05  -2.9506063e-04  -1.1314388e-04  -1.7895720e-04  -9.7954646e-05  -7.5577722e-05  -2.6770713e-05  -9.6716401e-05  -5.1680287e-05   1.6416062e-04  -4.9778883e-04  -6.7800021e-05  -2.4552256e-04  -2.1078483e-04  -3.4981474e-04  -1.2071173e-04  -4.7943020e-05  -1.7557862e-04  -8.2194354e-05  -1.0556366e-04  -1.9141463e-04  -1.6291405e-04  -4.7607398e-05  -1.2954827e-04   9.9918361e-05   4.2445451e-04  -2.9212169e-04  -2.5234139e-04
   1.2339750e-05   2.3848409e-06  -1.5523614e-04  -1.1796526e-04  -6.8797417e-05  -1.8307213e-04  -1.5848372e-04   9.3092138e-05  -1.2613110e-04  -1.3180160e-04  -1.3833103e-04  -4.7294288e-05  -6.6444329e-05  -5.7236153e-05  -1.0620977e-04  -1.6892770e-04  -8.0743135e-05   3.6636222e-05  -1.1016257e-04  -7.6680706e-05  -1.8891221e-04  -2.5174284e-04  -8.6134300e-05  -2.6888083e-04  -1.6447584e-04  -1.1968636e-04  -1.6133698e-04  -5.9950780e-05  -7.4399999e-05  -1.1090594e-04   3.9576837e-05   1.9137344e-04  -2.1724780e-04   2.4323921e-05  -2.1432895e-04  -2.9206203e-04  -2.7585964e-04  -1.2974914e-04  -1.3513143e-04  -8.3402090e-05  -3.1149908e-04  -1.1387212e-04   3.4278994e-05  -1.6780692e-05  -7.0055503e-05  -1.3722091e-04   1.5904334e-04   1.4367723e-04  -2.1788335e-04  -1.1820203e-03
  -8.5783766e-05  -7.1442314e-06  -1.8190243e-04  -1.1659435e-04  -1.0851501e-04  -1.8009912e-04  -1.7341417e-04  -4.0144452e-05  -2.2066737e-04  -1.3873282e-04  -1.3297371e-04  -4.7248483e-05  -4.2444979e-05  -8.3031133e-05  -4.5762958e-05  -1.1686192e-04  -7.5902288e-05   3.5307217e-05  -2.2285781e-04  -7.4465235e-05  -1.7861091e-04  -2.4669434e-04  -1.9341245e-05  -1.9574333e-04  -1.5270535e-04  -6.1833816e-05  -1.9877245e-04  -8.7698325e-05  -6.9190697e-05  -1.3091422e-04  -4.2314183e-05   1.4374361e-04  -2.1137940e-04   1.6063015e-05  -1.7869350e-04  -2.1390153e-04  -2.8176847e-04  -9.8503770e-05  -1.0208123e-04  -1.2360865e-04  -2.4879334e-04  -7.6899421e-05   4.1843462e-04   1.1972799e-05  -1.5399193e-04  -9.7581360e-05   1.3525436e-04   5.8810989e-04  -3.1994128e-05   4.4355614e-04
  -8.6278429e-05  -3.2144358e-06  -1.7382936e-04  -9.6773132e-05  -7.8792313e-05  -1.1171770e-04  -1.7234267e-04   4.3097716e-05  -2.1643098e-04  -1.4672294e-04  -1.4027812e-04  -6.1752187e-05  -4.5752331e-05  -4.5963523e-05  -1.4835245e-04  -9.1779257e-05  -8.1479062e-05   9.7848479e-06  -1.4662804e-04  -6.9849055e-05  -1.5510367e-04  -2.4355066e-04  -1.2580102e-05  -2.4074936e-04  -1.5913128e-04  -1.7875341e-04  -2.1510919e-04  -9.6385811e-05  -7.2701601e-05  -9.0001413e-05  -1.4861066e-04   1.3869812e-04  -4.1656542e-04  -7.2172421e-05  -2.1384601e-04  -1.8412093e-04  -2.7174578e-04  -5.7694302e-05  -6.3128187e-05  -2.5569557e-04  -2.1073251e-04  -1.2609478e-04   1.4946665e-04  -3.4330497e-04   1.0037849e-05   2.1318228e-05   1.1722262e-04   1.4092682e-03   2.2607934e-04  -3.7815305e-04
   4.9121172e-06   6.2148160e-06  -1.9869843e-04  -1.0551364e-04  -8.7544802e-05  -1.3801287e-04  -1.6077366e-04   1.4640157e-04  -1.7588644e-04  -1.3249867e-04  -1.2346788e-04  -2.3740828e-05  -4.1193889e-05  -3.7469643e-05  -8.5032683e-05  -1.7198290e-04  -8.0631806e-05   8.9543610e-06  -2.0824875e-04  -5.4274053e-05  -1.6883733e-04  -2.3810897e-04   3.2753873e-05  -2.0098135e-04  -1.4012611e-04  -1.2480468e-04  -1.1568274e-04  -8.9290232e-05  -2.9746225e-05  -1.4149163e-04  -1.1724071e-04   1.3282297e-04  -3.6260212e-04  -9.5838739e-05  -1.8543535e-04  -2.6675256e-04  -3.3668042e-04  -1.6470026e-04  -6.8404086e-05  -2.5786104e-04  -1.4589936e-04  -1.4548952e-04   2.0606976e-04   2.4146129e-05  -5.6710640e-05   1.0929735e-04   1.1447931e-04   1.1500472e-03  -4.4932676e-04  -4.9318827e-04
  -5.9690876e-05   2.6938922e-06  -1.6340095e-04  -8.8050198e-05  -9.1950518e-05  -1.0597462e-04  -1.7072837e-04  -1.2088283e-04  -1.7913744e-04  -1.4413125e-04  -1.2698086e-04  -4.7503690e-05  -3.1584121e-05  -7.0905422e-05  -7.9733829e-05  -8.7952358e-05  -8.3326595e-05   1.1396239e-05  -1.2814159e-04  -5.2706808e-05  -1.6112524e-04  -2.4994003e-04  -5.5573586e-05  -1.3893646e-04  -9.0345136e-05  -1.1144827e-04  -7.0002010e-05  -7.4633725e-05  -2.5710746e-05  -1.1023894e-04  -6.9071117e-05   1.2894788e-04  -3.4925595e-04   1.9069845e-05  -2.4903944e-04  -1.9335214e-04  -4.0824723e-04  -1.3109148e-04  -6.3156054e-05  -1.4424793e-04  -2.3488356e-04  -9.8161952e-05  -2.9166916e-04  -6.2849314e-04  -1.7072134e-05   2.2075832e-04   1.0735868e-04   4.5023888e-04   2.0412945e-04   3.7723433e-04
  -1.3301720e-05   3.0652191e-06  -1.2618686e-04  -9.5407820e-05  -7.7480945e-05  -1.9176453e-04  -1.5505363e-04   5.3827931e-05  -1.6833267e-04  -1.5724133e-04  -1.4429209e-04  -6.3177889e-05  -5.8346341e-05  -1.0790737e-04  -5.1669904e-06  -5.1417152e-05  -7.4467142e-05   1.2881583e-05  -8.8996421e-05  -4.6385609e-05  -1.3816335e-04  -2.2678531e-04  -6.3370600e-05  -2.0728380e-04  -1.2435945e-04  -8.8123503e-05  -2.4165110e-04  -7.8947123e-05   1.8191837e-05  -8.1091515e-05  -1.2694932e-04   1.1980066e-04  -1.6997296e-04  -4.3391963e-05  -1.9370220e-04  -2.8160520e-04  -2.7824834e-04  -5.6295397e-05  -5.3211810e-05  -2.8560442e-04  -6.6202352e-05  -6.1909945e-05   5.0635089e-04  -1.7088701e-04  -3.7773287e-05  -1.2920284e-05   1.6992552e-04   1.7870923e-04  -2.0355113e-04   7.0721835e-05
  -2.9039213e-05   8.2947608e-06  -1.8402346e-04  -9.6639138e-05  -9.8373115e-05  -9.0273912e-05  -1.5733529e-04  -1.1200109e-04  -1.2651412e-04  -1.5375808e-04  -1.3476303e-04  -3.3744596e-05  -5.5820652e-05  -1.0764304e-04  -3.8012604e-05  -1.6663068e-04  -8.8870511e-05  -9.8918563e-06  -1.3823732e-04  -3.6197383e-05  -1.6270475e-04  -2.0800972e-04   7.5156629e-07  -1.9450510e-04  -5.9346905e-05  -8.0752885e-05  -2.8975977e-04  -9.1136528e-05  -1.8402633e-04  -9.6398595e-05  -1.4869891e-04   1.2911869e-04  -4.1606868e-04  -5.6629837e-05  -1.3981463e-04  -2.9758722e-04  -3.8165925e-04  -1.1334270e-04  -1.0031845e-04  -2.3583100e-04  -2.4494709e-04  -1.1044026e-04   1.4282351e-04  -2.5221120e-04  -2.4844010e-05  -2.1773069e-04   1.6018654e-04  -9.2350550e-05  -2.4584634e-04  -2.3935233e-04
  -5.7330853e-05   7.2615603e-06  -1.6823705e-04  -9.2093913e-05  -1.0090341e-04  -1.4063608e-04  -1.7314892e-04  -9.5131058e-05  -2.7051251e-04  -1.6392363e-04  -1.4978736e-04  -3.7540518e-05  -5.0071270e-05  -1.9014446e-04  -2.0092058e-04  -1.4106033e-04  -1.0588906e-04  -1.7850271e-05  -1.8047281e-04  -3.4561595e-05  -1.3550730e-04  -1.9735625e-04  -8.9753798e-05  -1.1166431e-04  -4.2821266e-05  -2.2022790e-05  -1.9872126e-04  -9.6471602e-05  -1.2477043e-04  -1.1957265e-04  -1.6738065e-04   7.9711819e-05  -1.8687453e-04  -6.1646148e-05  -1.5307413e-04  -2.3103281e-04  -1.0705063e-04  -6.3246676e-05  -1.6826973e-04  -1.8876969e-04  -2.6594358e-04  -1.3948363e-04  -5.3864124e-04  -8.2446967e-04   4.2294373e-06  -6.1417726e-05   1.0130860e-04   1.1309885e-03  -3.8431678e-04   2.4885805e-05
   6.1574916e-05   1.5800380e-05  -2.0386461e-04  -6.1384570e-05  -5.0910599e-05  -1.2063379e-04  -1.6732312e-04  -3.9399565e-05  -1.4372780e-04  -1.6525839e-04  -1.5833841e-04  -6.9208181e-06  -5.1418043e-05  -1.0335273e-04  -1.5625553e-04  -1.0407566e-04  -1.2992398e-04  -1.9904126e-05  -5.1427050e-05  -2.8468929e-05  -1.4230212e-04  -1.7086550e-04  -5.5294517e-05  -1.5044841e-04  -2.6678792e-04  -1.2336839e-04  -1.7413513e-04  -1.3808023e-04  -3.3175683e-04  -9.9337994e-05  -1.9015867e-04   8.1823171e-05  -3.1243823e-04  -7.5404387e-05  -1.4723535e-04  -2.3371870e-04  -8.3333915e-05  -8.8738074e-05  -2.0464728e-04  -2.0580180e-04  -2.1499807e-04  -1.3936730e-04  -3.4614852e-05  -3.2593671e-04   6.7289575e-06   1.9007783e-04   8.5799133e-05   7.7247154e-04   1.6015221e-04   2.0010167e-04
  -3.9090850e-05   2.3117467e-05  -1.4511468e-04  -7.8024663e-05  -8.4505402e-05  -1.1137174e-04  -1.1570993e-04   9.0452901e-05  -1.7783730e-04  -1.4595395e-04  -1.3658740e-04   2.1083484e-05  -1.4674094e-05  -2.3744196e-04  -1.0385302e-04  -1.8051677e-04  -1.3169428e-04  -5.2966545e-05  -2.2850581e-04  -1.4340098e-05  -1.4668769e-04  -1.8804648e-04  -6.1363615e-05  -1.8101558e-04  -1.7426629e-04  -1.9455440e-05  -2.2614039e-04  -1.4860247e-04  -4.3045071e-05  -1.0551860e-04  -2.2074723e-04   7.9545600e-05  -1.6856480e-04  -9.3379123e-05  -2.2763216e-04  -2.0608724e-04  -2.0428422e-04  -1.2836358e-04  -7.8572462e-05  -2.5961827e-04  -3.4955380e-04  -5.5396500e-05  -1.3575700e-04   2.0704794e-04  -2.1107948e-05  -2.1624094e-04   7.4874792e-05   4.8809376e-04   5.8797541e-05   1.2249738e-04
  -4.8124490e-05   1.6649910e-05  -1.9132507e-04  -6.1857099e-05  -6.8689602e-05  -1.7096582e-04  -1.3944968e-04  -2.6441450e-04  -1.6782564e-04  -1.5404796e-04  -1.6437111e-04   4.1433395e-05  -2.1281652e-05  -1.7564105e-04  -2.2697606e-04  -1.0790987e-04  -1.4951499e-04  -7.0899085e-05  -3.1536634e-04   1.5556810e-07  -1.2206007e-04  -1.9412383e-04   2.8545914e-05  -6.3523148e-05  -1.2173632e-04  -3.3129745e-05  -3.0608923e-04  -2.2251948e-04  -9.0382724e-05  -1.3444007e-04  -2.5164973e-04   3.3162567e-05  -5.0589826e-04  -9.7829281e-05  -1.5054212e-04  -2.1997133e-04  -3.7367269e-04  -1.0295679e-04  -1.0942483e-04  -8.6479507e-05  -4.1386762e-04  -9.7961281e-05  -3.3649558e-05  -4.2729743e-04  -5.7882633e-05   1.1684689e-04   5.2681138e-05  -3.5082462e-04  -1.8052352e-04   6.4175669e-04
   6.4502747e-05   2.5907866e-05  -1.5964829e-04  -4.5550856e-05  -3.5648609e-05  -1.3577480e-04  -1.2147117e-04  -2.9528667e-07  -2.1226176e-04  -1.5721956e-04  -1.7648106e-04   7.1080343e-05  -1.0654586e-06  -2.3992211e-04  -2.0458747e-04  -5.4796481e-05  -1.4591630e-04  -6.8303532e-05  -9.1584137e-05  -2.0610236e-05  -1.3624558e-04  -1.4893386e-04  -1.0650490e-04  -1.9027285e-04  -1.4133060e-04   3.7802944e-05  -3.2798719e-04  -2.1878323e-04  -2.8784421e-05  -1.4465148e-04  -2.8720117e-04   3.5212157e-05  -2.1599283e-04  -1.5454995e-04  -1.3117597e-04  -2.4424147e-04  -2.7280633e-04  -9.6600714e-05  -1.5838833e-04  -1.6491949e-04  -2.0996663e-04  -2.1006291e-04   6.2492705e-05   3.9941009e-05  -1.5155081e-05  -1.2978702e-04   7.4710253e-05  -2.7704911e-05   1.2281895e-04  -6.9616025e-04
   1.9175220e-06   2.5169704e-05  -2.0605419e-04  -5.3479322e-05  -7.8084646e-05  -1.9038653e-04  -1.5963802e-04  -1.2849332e-04  -1.5284868e-04  -1.4883737e-04  -1.5868190e-04   8.5493208e-05   8.2049619e-06  -2.2617394e-04  -2.1645105e-04  -1.5735283e-04  -1.5627923e-04  -7.7616431e-05  -1.6251919e-04  -1.8586317e-05  -1.4257734e-04  -1.5015301e-04   6.1684074e-07  -1.4004053e-04  -2.5714203e-04  -2.6251440e-05  -3.0516044e-04  -2.3444580e-04  -1.6221462e-04  -1.1362033e-04  -3.1660611e-04  -1.3383296e-05  -3.4880408e-04  -1.2081816e-04  -1.4878860e-04  -1.2154549e-04  -1.8099406e-04  -1.1115262e-04  -1.1265473e-04  -1.6354007e-04  -5.0780724e-04  -1.5598098e-04  -2.8343880e-04  -6.2173879e-04   5.2878215e-05  -1.8391693e-04   6.3852756e-05   4.1610576e-04  -4.7130341e-04  -2.4146267e-04
   4.6164831e-05   2.0018306e-05  -1.7614817e-04  -3.8047223e-05  -5.7112418e-05  -1.1957272e-04  -1.4330431e-04  -2.6810207e-05  -2.1315065e-04  -1.5072036e-04  -1.7772257e-04   7.8354300e-05   1.3594462e-05  -2.4387846e-04  -2.1633868e-04  -1.3858113e-04  -1.4898067e-04  -8.7404595e-05  -1.9416799e-04  -1.6889369e-05  -1.1393501e-04  -1.7903157e-04   6.5609220e-06  -6.7465291e-05  -2.8762050e-04   6.9507129e-05  -2.6918238e-04  -2.7529852e-04  -5.5621469e-05  -8.6674074e-05  -3.5232809e-04   3.2672255e-05  -5.2267364e-07  -1.6020991e-04  -1.8341093e-04  -2.3355694e-04  -1.9807844e-04  -7.3207251e-05  -1.1759588e-04  -8.0779850e-05  -4.6001832e-04  -1.1368749e-04  -1.3726122e-04   1.0436666e-04  -4.7850367e-06  -3.4979556e-04   3.9180566e-05  -3.0935273e-04  -6.2403931e-05   4.7740361e-04
  -2.5553722e-05   2.1819817e-05  -1.8694042e-04  -5.1692685e-05  -4.9048089e-05  -1.0742247e-04  -1.2401986e-04  -1.1416593e-05  -1.6240821e-04  -1.4970604e-04  -1.5611888e-04   8.6411477e-05   3.2028700e-05  -2.3889240e-04  -6.4395579e-05  -1.1934420e-04  -1.4119392e-04  -8.7106411e-05  -9.9758065e-05  -1.3119560e-05  -1.3385944e-04  -1.7298611e-04   6.7361661e-06  -1.5290573e-04  -1.7341270e-04   5.1710231e-05  -2.4729510e-04  -2.6868121e-04  -1.5623352e-04  -1.0184604e-04  -4.1742678e-04   4.9924397e-06  -2.6543794e-04  -1.2668692e-04  -1.4553548e-04  -7.8963254e-05  -1.7460628e-04  -6.7107016e-05  -1.1526716e-04  -1.2408035e-04  -5.0564326e-04  -7.6656484e-05  -1.8360520e-04   1.4015245e-04  -2.1039294e-05   1.0060579e-04   1.3268468e-04   1.8401013e-04  -4.6691991e-04  -3.3976082e-04
  -9.6733871e-05   2.1025317e-05  -1.5340271e-04  -5.1562976e-05  -6.7664885e-05  -1.6659396e-04  -1.6592976e-04  -1.0680696e-04  -2.0417126e-04  -1.5600634e-04  -1.7782039e-04   5.1919109e-05   2.2050801e-05  -2.3807245e-04  -2.7934753e-04  -1.3180904e-04  -1.2730926e-04  -7.9971760e-05  -2.4047398e-04  -3.3994011e-06  -1.3898086e-04  -2.3951739e-04  -2.3101087e-05  -1.2726235e-04  -2.2189975e-04  -1.7838900e-05  -3.3225797e-04  -2.6716097e-04   1.4512926e-04  -1.1051403e-04  -2.6323099e-04   1.4189495e-05  -2.9483595e-04  -8.5931817e-05  -1.2626105e-04  -1.4888149e-04  -2.1893859e-04  -7.2845614e-05  -7.7820841e-05  -1.8423605e-04  -2.5668665e-04  -9.5508578e-05   2.7695362e-04  -3.8243766e-04   3.2684478e-05  -4.5422519e-05   8.8755420e-05   2.5097307e-04  -1.3545833e-05  -6.6490495e-04
  -1.1359889e-04   8.6377422e-06  -1.8978362e-04  -4.0504940e-05  -6.3462816e-05  -1.9957124e-04  -1.5678488e-04  -5.3174412e-05  -1.6622669e-04  -1.6423738e-04  -1.8793921e-04   3.9445797e-05   1.2349237e-05  -1.9420568e-04  -1.4068928e-04  -1.0818010e-04  -1.1443823e-04  -9.0955444e-05  -1.9708132e-04  -7.6816477e-06  -1.2346789e-04  -1.9038688e-04   2.4768433e-06  -1.4341458e-04  -8.7386172e-05  -3.5017965e-05  -3.0769577e-04  -2.5341587e-04   8.5217755e-05  -7.6135882e-05  -2.8194592e-04   1.4739464e-05  -2.4647961e-04  -5.2172851e-05  -1.5106794e-04  -2.7827013e-04   1.9390654e-07  -1.0181563e-04  -1.0263949e-04  -1.8589698e-04  -3.6958070e-04  -5.9600654e-05  -3.5088061e-04   1.8615870e-05   1.7375858e-05   2.8755045e-05   6.8148605e-05   6.4323423e-05   1.6195895e-04   1.2665306e-03
   1.3203982e-05   9.2558612e-06  -1.7315242e-04  -2.5529731e-05  -6.9998263e-05  -1.4679955e-04  -1.4123740e-04  -2.5973562e-04  -2.2699172e-04  -1.6033712e-04  -1.5330889e-04   3.6983045e-05   2.4054760e-05  -1.7468109e-04  -9.2333539e-05  -1.9015638e-04  -1.0313460e-04  -6.9099093e-05  -1.4472300e-04  -1.6228063e-05  -1.4609905e-04  -1.9541349e-04  -1.0989292e-04  -1.6586523e-04  -1.3403983e-04  -4.2660289e-05  -2.8986693e-04  -2.5011617e-04  -8.3153383e-05  -1.0918432e-04  -2.3665468e-04   4.7387934e-05  -2.0161028e-04  -4.6652312e-05  -1.3683658e-04  -8.4134284e-05  -2.0127634e-04  -1.4637472e-04  -1.2288225e-04  -1.2317151e-04  -1.8709715e-04  -1.5202568e-04  -2.5835360e-04  -3.4869180e-04  -2.2360900e-05  -1.4597138e-04   3.5640907e-05   3.1647581e-04  -4.2031481e-04   9.7556727e-04
  -5.0586867e-05  -6.5557056e-06  -1.7709147e-04  -4.9018454e-05  -5.9219350e-05  -1.4155712e-04  -1.2145881e-04  -2.4438027e-04  -2.1528124e-04  -1.6425915e-04  -1.7527537e-04   3.2192718e-05   2.1927332e-05  -1.7856694e-04  -2.0891571e-04  -1.5352704e-04  -1.1605780e-04  -7.0331465e-05  -2.7022435e-04  -1.3362877e-05  -1.2818100e-04  -1.8676449e-04   2.2625109e-07  -1.3265286e-04  -1.2456001e-04  -1.9112822e-05  -2.2579254e-04  -2.5347385e-04  -1.5120875e-04  -1.0703140e-04  -2.0514984e-04   1.1175905e-05  -1.9773377e-04  -1.4381550e-04  -2.0350136e-04  -1.0133658e-04  -1.1927298e-04  -1.2335725e-04  -1.2134168e-04  -9.7996104e-05  -2.0926993e-04  -1.3505717e-04  -2.9234253e-04   1.4229109e-04   7.4603122e-07  -1.0067321e-04   7.5663738e-05   6.1360589e-04  -2.8862528e-04  -1.6518615e-03
  -9.0925159e-06  -7.1409845e-06  -1.7310953e-04  -4.4578708e-05  -1.9303918e-05  -1.4716314e-04  -1.1293251e-04   6.2179868e-05  -2.7060951e-04  -1.6279364e-04  -1.7686951e-04   2.8415483e-05  -1.6148597e-05  -1.2141468e-04  -1.5558224e-04  -1.5359184e-04  -9.3584647e-05  -5.7151683e-05  -1.0284266e-04   2.4325466e-06  -1.2315768e-04  -1.5958844e-04  -2.4396448e-05  -1.8278472e-04  -1.6977424e-04   1.4940319e-05  -3.0808401e-04  -2.4806481e-04   3.8985977e-06  -6.8615118e-05  -1.9253339e-04   6.8437308e-05  -3.1289191e-04  -2.9684830e-05  -8.2715138e-05  -1.6648493e-04  -2.5539935e-04  -1.2019310e-04  -1.8765936e-04  -1.2671798e-04  -2.6531974e-04  -3.4717425e-05   2.6448016e-04   1.0976913e-04  -1.6853366e-05   1.3777966e-04   7.9147343e-05  -5.6481105e-04  -1.0427717e-04   1.4866352e-04
  -8.2883620e-05  -1.0180821e-05  -1.4203059e-04  -3.1207870e-05  -8.1565711e-05  -1.7839253e-04  -1.4922110e-04  -2.5033791e-04  -3.0214660e-04  -1.5772246e-04  -1.4818698e-04  -4.1925832e-06   1.2990762e-06  -1.4551020e-04  -1.8584472e-04  -2.3397809e-04  -6.4118205e-05  -3.3701494e-05  -7.6417404e-05  -1.2081337e-05  -1.4220379e-04  -2.4483129e-04  -1.2548934e-04  -2.0294252e-04  -1.6953386e-04   7.2926218e-06  -2.2386567e-04  -2.2158303e-04  -4.2335778e-05  -1.4598601e-04  -1.6202447e-04   1.3073147e-04   3.7852489e-05   5.1080729e-05  -1.1419095e-04  -1.7206286e-04  -3.5864615e-04  -1.4347467e-04  -1.0377493e-04  -2.5423162e-04  -3.1696699e-04  -1.8129604e-04  -2.4840374e-05   1.8254141e-04  -1.5168019e-05  -3.0555957e-04   3.4528985e-05   2.5375068e-05  -4.8202553e-04  -1.3507738e-03
  -1.3759814e-04  -2.1247624e-05  -1.6251658e-04  -5.2785403e-05  -8.0760547e-05  -1.8679924e-04  -9.9131546e-05  -1.5951862e-04  -2.0254070e-04  -1.6429162e-04  -1.5673913e-04  -1.9669953e-05   1.2458793e-05  -1.0708423e-04  -2.8058957e-05  -1.7510229e-04  -4.9242193e-05  -4.0001403e-05  -3.2045532e-04  -9.3196040e-06  -1.2648273e-04  -1.7976893e-04  -6.2772684e-05  -1.6372409e-04  -1.4831692e-04  -2.0416276e-06  -2.4053096e-04  -2.4662004e-04   3.5790246e-05  -9.0370559e-05  -1.0555489e-04   1.0944648e-04  -1.4105689e-04  -7.7591940e-05  -8.7835193e-05  -1.6944429e-04  -2.1673637e-04  -3.2660922e-05  -6.9531772e-05  -3.2740023e-05   1.2545880e-04  -1.2793302e-04   5.8723723e-05   4.1285908e-04  -3.9700961e-05   2.4556898e-04   3.1649113e-05   4.0706280e-05  -1.3871887e-04  -7.7248126e-04
  -1.3368670e-04  -2.7931768e-05  -1.4012166e-04  -4.5491488e-05  -6.4235006e-05  -1.3351685e-04  -1.1805542e-04   3.6102701e-05  -2.5015284e-04  -1.6679747e-04  -1.7150673e-04  -8.2828783e-06  -2.7689106e-05  -7.1834380e-05  -1.7488738e-04  -1.7261710e-04  -4.7927391e-05  -3.3464657e-05  -1.5230749e-04  -8.0453683e-06  -1.3515381e-04  -2.0895043e-04   4.5881743e-06  -1.9520072e-04  -2.0142041e-04  -1.8360004e-05  -1.7994386e-04  -2.3511963e-04  -1.1300829e-04  -9.3485003e-05  -1.3937464e-04   9.3197494e-05  -1.3217777e-04  -4.1358802e-05  -1.4961089e-04  -1.0454419e-04  -6.8785077e-05  -8.3833445e-05  -9.6920543e-05  -1.6787843e-04  -1.7942961e-04  -1.0762739e-04  -9.5861556e-05  -3.4467794e-04  -4.7602457e-06  -1.3956608e-04   3.4327441e-05   9.2449714e-04   1.4036999e-04   7.6181703e-04
  -8.5905202e-05  -3.1606258e-05  -1.3656131e-04  -8.0508369e-05  -8.3731968e-05  -1.9332585e-04  -1.5636691e-04  -2.7663473e-04  -1.9557624e-04  -1.5808213e-04  -1.5679526e-04  -3.3219727e-05  -1.1579624e-05  -1.5900351e-04  -6.4472399e-05  -2.2165620e-04  -3.7462138e-05  -3.3414952e-05  -8.3195773e-05  -2.4798028e-05  -1.3605428e-04  -1.8356250e-04  -1.3006822e-04  -1.8840337e-04  -2.4649888e-04   2.2736296e-05  -2.2234682e-04  -2.1961534e-04  -1.2822932e-04  -1.2086156e-04  -8.1248836e-05   1.1087363e-04  -8.2261155e-05  -2.6827494e-05  -2.5077822e-04  -1.3503100e-04  -6.9130925e-05  -8.7595654e-05  -1.3850657e-04  -2.8990442e-05  -2.3893891e-04  -1.6982130e-04  -3.7078931e-05  -1.0104910e-04  -6.1677696e-05  -1.6952104e-04  -5.5394213e-07  -4.3944715e-04  -8.1126584e-04  -8.4674032e-04
  -4.1883144e-05  -4.5275032e-05  -1.3429884e-04  -4.4166009e-05  -8.8625871e-05  -2.3171010e-04  -1.2324548e-04   2.0520380e-05  -2.3745472e-04  -1.5363735e-04  -1.5654329e-04  -3.1666557e-05  -5.2092677e-05  -1.3179760e-04  -1.0602886e-04  -1.7874832e-04  -4.6428129e-05  -5.0376959e-05  -2.1839076e-04  -7.5201342e-06  -1.0814007e-04  -1.7562712e-04  -7.3040879e-05  -1.0027307e-04  -1.8165968e-04   4.7926289e-05  -1.9521439e-04  -2.2780173e-04  -4.8685433e-05  -9.6967618e-05  -1.1688090e-04   1.1261916e-04  -3.3548684e-04   2.3138120e-05  -1.8478929e-04  -4.1042331e-05  -2.5721235e-04  -8.6844710e-05  -8.4235209e-05  -6.6405373e-05  -2.7358675e-04  -1.0331407e-04   5.2316972e-07  -3.5467274e-05  -9.9779174e-07  -2.2673650e-05   6.9311012e-05   6.3564617e-04  -2.3024358e-04  -5.3005776e-04
  -6.2293097e-05  -4.1688923e-05  -1.3355895e-04  -2.7414659e-05  -6.4303596e-05  -1.6243539e-04  -9.3475246e-05  -2.7738957e-04  -2.4330307e-04  -1.4758045e-04  -1.6154202e-04   1.3879280e-05  -4.8791469e-05  -9.4755531e-05  -1.5539570e-04  -1.4248567e-04  -5.7579309e-05  -5.2512481e-05  -7.4233372e-05   5.7418424e-07  -1.1355395e-04  -1.7131116e-04  -3.4409313e-05  -1.9093693e-04  -1.5257559e-04   3.3277720e-05  -1.9540836e-04  -2.3512288e-04   6.4832071e-05  -5.0957129e-05  -1.2226136e-04   1.1238506e-04  -1.6873975e-04  -1.3080875e-05  -1.0227285e-04  -1.4671772e-04  -2.4724266e-04  -1.2524270e-04  -6.5759661e-05  -2.2124712e-04  -1.0779293e-04  -9.9064804e-05   1.1971090e-04  -5.6308747e-04  -5.0978870e-05  -9.2323302e-05   5.6256195e-05  -1.1033737e-04  -7.8648468e-04   9.5984404e-04
  -1.8596393e-04  -3.6089892e-05  -1.5642574e-04  -3.1346754e-05  -7.1726252e-05  -1.4458231e-04  -1.1018750e-04  -1.6138496e-04  -2.6245925e-04  -1.2048815e-04  -1.3644043e-04   3.1337946e-05  -4.3660679e-05  -1.8349306e-04  -1.4163596e-04  -2.5366261e-04  -3.8361748e-05  -4.7826303e-05  -6.9109963e-05   3.3314811e-06  -1.1654463e-04  -1.7337583e-04  -3.7182926e-05  -7.8084500e-05  -1.0494199e-04  -4.9353283e-05  -3.0804737e-04  -2.2373423e-04   2.5357447e-06  -9.7630240e-05  -1.2310025e-05   1.2582111e-04  -9.1395632e-06   7.1282113e-05  -1.6253961e-04  -6.8922476e-05  -2.5289771e-04  -1.3607205e-04  -1.2674964e-04  -8.1683873e-05  -2.3057763e-04  -1.7990312e-04  -2.3397485e-04  -3.1646568e-04  -4.1577816e-05  -1.7752490e-04   1.6307462e-05  -7.0272258e-04   3.3211047e-04  -3.5116280e-04
  -8.8195819e-05  -4.6034376e-05  -1.5124877e-04  -4.5252404e-05  -7.5994634e-05  -1.4845407e-04  -1.2257697e-04   1.7177014e-04  -2.1163124e-04  -1.3215361e-04  -1.3223554e-04  -2.4741057e-05  -3.9848383e-05  -1.0951654e-04  -1.7862531e-04  -1.6043644e-04  -3.9635928e-05  -4.4673074e-05  -1.5509446e-04  -9.4843108e-06  -9.5286123e-05  -1.8697766e-04  -5.5718629e-05  -1.0884551e-04  -8.5133259e-05  -2.0226546e-05  -1.8140915e-04  -2.3274875e-04  -1.1811134e-04  -7.6660523e-05   2.1242589e-05   1.4364910e-04  -3.4809406e-04  -1.1279852e-05  -1.4569025e-04  -8.4477411e-05  -2.3191569e-04  -8.6214968e-05  -8.1224331e-05  -2.0486429e-04  -2.5267777e-04  -1.2262426e-04   1.0539513e-04  -1.2129480e-05  -5.5708413e-05  -1.9402189e-04  -6.0664347e-06   5.2154873e-04   4.6856629e-04  -2.8162295e-04
  -1.1760519e-04  -5.5135086e-05  -1.5197575e-04  -3.6073834e-05  -6.4915403e-05  -1.6051289e-04  -1.0857927e-04  -9.9246885e-05  -2.0381792e-04  -1.2815892e-04  -1.3737397e-04  -6.2980453e-06  -6.0233760e-05  -3.4039109e-05  -2.6185991e-04  -1.3603808e-04  -3.9028357e-05  -5.0833693e-05  -2.4926043e-04   2.5758036e-06  -9.9152378e-05  -1.4729731e-04  -2.6350070e-05  -8.7246895e-05  -9.0146757e-05   1.1696747e-04  -1.9400605e-04  -2.4175455e-04  -8.8607267e-05  -6.2454499e-05  -3.0623898e-05   1.6024223e-04  -1.4345931e-04   3.0106787e-05  -1.2637366e-04  -9.0952752e-05  -2.5049661e-04  -1.0855139e-04  -1.1187141e-04  -2.7753340e-04  -1.7087279e-04  -9.5933698e-05   2.9476045e-05  -4.2016155e-04  -5.9933236e-06  -1.0552925e-04   3.9248676e-05  -3.7938886e-04  -6.4702833e-04   1.5855751e-03
  -2.4217665e-05  -4.0814375e-05  -1.2684506e-04  -2.2696502e-05  -7.3697956e-05  -1.4123989e-04  -1.6356916e-04  -1.3597065e-04  -2.3429029e-04  -1.0185502e-04  -9.9686862e-05   1.0864096e-05  -1.5625132e-05  -7.1793256e-05  -9.2657821e-05  -2.1726692e-04  -4.0658244e-05  -4.2736636e-05  -1.0754118e-04  -1.4585391e-05  -1.0133675e-04  -1.6282308e-04  -7.6259450e-05  -6.4831183e-05  -1.0013447e-04  -5.3638592e-05  -2.1197964e-04  -2.1144281e-04  -2.5438507e-05  -5.8300055e-05  -1.7691387e-05   1.6272080e-04  -2.0516325e-04   4.0494851e-05  -1.8045511e-04  -1.2852933e-04  -8.8068009e-05  -6.8541638e-05  -1.7935272e-04  -1.1581666e-04  -5.7066609e-05  -1.4972470e-04   1.4014075e-04  -5.8217405e-04  -2.5759828e-05   4.8094786e-05  -3.6617323e-05   4.1519018e-04  -5.9048028e-04   2.5878157e-05
  -6.3885847e-05  -5.7036279e-05  -1.2357895e-04  -2.8505874e-05  -6.0445320e-05  -1.2887163e-04  -1.5388367e-04  -2.9199780e-04  -2.0819777e-04  -1.3035045e-04  -1.1121574e-04  -5.2975261e-05  -5.5770543e-05  -4.9354407e-05  -7.5960546e-05  -2.2825922e-04  -8.8548941e-06  -3.6801786e-05   2.2005142e-05  -1.5623846e-05  -8.8943045e-05  -1.6699325e-04  -1.4406120e-05  -1.1212136e-04  -1.4191127e-04   1.2997777e-04  -7.2789160e-05  -1.7205860e-04  -8.0841535e-05  -5.8005477e-05   1.1921517e-04   2.1559016e-04  -1.8653255e-04   1.5513314e-04  -1.7691239e-04  -1.2894419e-05  -1.4871149e-04  -5.7741669e-05   7.0261613e-06  -1.3724797e-04  -6.8471280e-05  -8.8518369e-05   4.2062809e-04  -1.6416049e-04  -3.8001686e-05   1.4552640e-04  -3.8280523e-05  -4.9278117e-04  -6.5012038e-04  -2.2443035e-05
  -1.2958224e-04  -6.1162609e-05  -1.0966987e-04  -2.6363377e-05  -3.8322367e-05  -1.2809488e-04  -1.2794831e-04  -4.0603230e-05  -2.1911100e-04  -1.2662292e-04  -1.1145158e-04  -4.1125888e-05  -4.6021421e-05  -2.8310802e-05  -1.6091707e-04  -2.0472662e-04  -3.4833201e-06  -4.3788645e-05  -1.1957809e-04  -3.8233325e-06  -8.6273583e-05  -1.7337568e-04  -8.9555055e-05  -2.5281450e-05  -1.4162989e-05   2.8677079e-05  -2.5686418e-04  -1.9285243e-04  -1.5041450e-05  -3.8771195e-05   8.4244157e-06   1.9967488e-04  -2.8316979e-04   1.4252988e-04  -1.5885672e-04  -3.7571008e-05  -8.2395527e-05  -8.7625849e-05  -1.4281558e-04  -2.0674818e-04  -3.4297424e-05  -1.4619925e-04   2.2323534e-04  -3.2389708e-04  -1.1923784e-04   1.0526286e-04   2.7573424e-05   2.5312067e-04   1.8256823e-04   1.3627240e-04
  -1.0408348e-04  -5.0604944e-05  -1.1847493e-04  -2.6152959e-05  -6.0550083e-05  -1.4833512e-04  -1.0957749e-04  -5.3211887e-05  -1.7311180e-04  -1.0047858e-04  -7.7840741e-05  -9.7053216e-06  -4.1104009e-05  -5.8953796e-05  -3.6929414e-05  -1.9807061e-04   2.2250581e-06  -4.7208225e-05  -3.9597093e-05  -2.5774148e-06  -8.6797882e-05  -1.6353483e-04  -1.2032514e-04   4.8233637e-06  -1.1970985e-04  -2.5723246e-05  -1.9332429e-04  -1.8074736e-04  -1.1650818e-04  -5.7247351e-05   6.5419437e-05   2.2582401e-04  -1.9688024e-04   1.4188768e-04  -1.3052100e-04  -8.2073086e-05  -3.9880786e-05  -6.8993111e-05  -1.0081638e-04  -8.7351385e-05   1.9441133e-04  -9.0089889e-05   7.8385958e-04  -1.8763867e-04  -2.9681707e-05  -3.6156576e-05  -1.1537248e-05   8.2826336e-05  -6.1533833e-04  -6.9280202e-04
  -1.1854940e-04  -5.4609769e-05  -8.8332949e-05  -4.5175170e-07  -6.7235385e-05  -1.1455190e-04  -1.3419661e-04  -3.0058686e-04  -1.0584841e-04  -9.9324490e-05  -8.7515924e-05   2.6885346e-05  -3.4969289e-05  -5.0919025e-05  -1.1567774e-04  -2.0272165e-04  -2.3086155e-05  -6.0972296e-05  -1.7009697e-04   9.2548053e-06  -5.6146513e-05  -1.0296312e-04  -8.9449095e-05  -1.5898720e-06  -6.6763336e-05  -1.2970268e-05  -1.9553775e-04  -2.0587965e-04  -1.0037663e-04  -3.1929121e-05   1.3555652e-06   2.2978599e-04  -1.4795523e-04   1.4305831e-04  -1.8389075e-04  -2.7804561e-05  -8.1715712e-05  -5.2664323e-05  -1.5110914e-04  -4.9147326e-05  -2.6835833e-05  -7.8555975e-05   2.1985438e-04   2.3389394e-04  -7.0201429e-05  -8.5173306e-05   3.4441357e-05  -1.0437732e-04  -2.4261342e-04   7.9176360e-05
   9.3358096e-05  -4.3038246e-05  -1.2466355e-04   6.5485874e-06  -4.4061882e-05  -1.0440478e-04  -4.8696867e-05  -1.8649378e-04  -1.1997228e-04  -9.6983546e-05  -1.0088894e-04   5.0920891e-05  -1.8366962e-05  -4.3111995e-05  -2.2704811e-04  -1.8116462e-04  -6.9000351e-05  -4.3322398e-05  -1.3732759e-04   2.6596732e-05  -4.4558852e-05  -1.5793683e-04   1.5031237e-05  -3.7633708e-05  -1.2652436e-04   3.6864425e-05  -2.6686297e-04  -2.0013400e-04  -3.7951351e-05  -6.5277993e-05  -3.1379161e-05   1.4377777e-04  -2.9116363e-04   8.2826329e-05  -1.0108951e-04  -3.6244201e-05  -9.1658898e-05  -7.9291436e-05  -1.6057001e-04   2.7596454e-05  -2.4550001e-04  -4.9876384e-05   2.0775448e-04  -3.8158640e-04  -5.4300090e-06  -1.2403663e-04   4.9067272e-05   5.6462141e-04  -9.1996662e-05   1.3759088e-04
  -2.0542555e-05  -3.4510671e-05  -1.1796056e-04  -1.1964294e-05  -4.6917467e-05  -1.0959283e-04  -9.8324963e-05  -3.6272212e-04  -1.1600595e-04  -6.9317713e-05  -6.7334746e-05   8.4187268e-05  -1.3022647e-05  -1.2068154e-04  -1.7987087e-04  -2.0436222e-04  -6.4565938e-05  -4.3763375e-05  -1.7117879e-04   3.2392712e-05  -5.1309493e-05  -1.0786491e-04  -4.7254642e-05  -2.6441343e-05  -1.9531737e-05   6.4609965e-05  -2.0853477e-04  -2.1476993e-04   8.3899162e-05  -3.7165446e-05  -6.1355102e-05   1.9259738e-04  -1.7239097e-04   1.4855668e-04  -8.1649785e-05  -1.2884114e-05  -1.0568514e-05  -1.0544146e-04  -1.4480298e-04  -6.5848762e-05   1.1514322e-05  -4.9193532e-05   5.3266791e-04  -4.3254174e-04  -5.3069925e-05  -4.1939738e-06   2.9068286e-05   1.3981927e-04  -1.8217192e-04  -3.8435418e-04
   2.6785961e-05  -3.7043181e-05  -9.2021874e-05   1.9326455e-05  -5.0520310e-05  -9.9839948e-05  -9.9893638e-05  -1.2062431e-04  -1.5057286e-04  -8.3237399e-05  -7.6789373e-05   4.8315709e-05  -4.9470923e-06  -8.6500309e-05  -1.8978304e-04  -1.8612428e-04  -3.5443987e-05  -3.9527233e-05  -5.6356039e-05   2.9133595e-05  -3.3920165e-05  -1.1220249e-04   9.4460513e-05   6.1272731e-05  -1.0236811e-05   4.9099559e-05  -2.0799899e-04  -2.1996870e-04  -1.0238127e-04  -3.9794380e-05  -8.8688927e-07   2.0932499e-04  -1.8972941e-04   8.3107094e-05  -7.1398172e-05  -9.5724790e-06  -9.2898001e-05  -5.8878195e-05  -1.5895045e-04  -8.2480634e-05   6.4875462e-06  -4.2084939e-05   6.8427227e-04  -1.3813298e-04   2.2767732e-05  -4.1849216e-06   1.0731124e-04  -2.0086051e-04   4.2060058e-04  -3.3921874e-04
  -1.3237984e-06  -3.6339959e-05  -8.2943377e-05   9.7179991e-06  -1.7471995e-05  -7.8889272e-05  -9.8951299e-05  -2.9483679e-04  -1.1357514e-04  -8.8757137e-05  -7.9056976e-05   2.9907547e-05   1.9297343e-06  -1.4667075e-04  -1.7370707e-04  -1.0675751e-04  -4.9879072e-05  -3.9449653e-05  -1.0278680e-04   3.5351986e-05  -3.6750553e-05  -1.5214315e-04  -4.9822924e-05  -1.0971900e-05  -9.9655772e-05   3.7581074e-05  -2.3568112e-04  -1.9381523e-04   1.0868090e-05  -1.4754663e-05  -2.9329327e-05   1.6277748e-04  -1.8349418e-04   1.6749972e-04  -7.7368109e-05   5.2782958e-05  -3.5489770e-06  -4.0151284e-05  -1.7915203e-04  -1.4557254e-04  -1.1796506e-04  -5.7724814e-05   2.9741036e-04  -5.3692661e-04  -1.9201723e-05  -6.6509456e-05   9.3899996e-07  -2.6576422e-04  -2.1616158e-04   6.5821374e-04
  -8.4238527e-05  -2.5227693e-05  -1.0171827e-04   3.8146467e-05  -3.6174373e-05  -6.2454434e-05  -9.5928874e-05  -2.1670928e-04  -1.3815142e-04  -6.0091530e-05  -5.2727512e-05   7.7485165e-05   6.4925603e-06  -1.0268720e-04  -2.0064192e-04  -1.8588004e-04  -6.6095738e-05  -4.2607284e-05  -2.5013564e-05   3.7088783e-05  -2.6835789e-05  -7.5732321e-05  -7.7660143e-06   1.0571430e-04  -1.9597917e-04   4.7486279e-05  -1.9726719e-04  -1.8827720e-04  -1.2748135e-05  -2.2875847e-05  -9.2747126e-05   1.4242111e-04  -1.3803440e-04   6.4214495e-05  -9.6563097e-05   1.7804288e-05  -1.4757826e-04  -6.2782266e-05  -1.5523864e-04   1.7672675e-05  -2.7340642e-04   1.9922135e-07  -1.2978307e-04  -5.3224392e-04   5.6117959e-05  -1.9457993e-04   5.2878902e-05  -1.7472905e-04   2.9003966e-04  -3.8970416e-04
  -7.3002175e-06  -2.7394803e-05  -9.8442419e-05   4.5366076e-05  -3.9712799e-05  -1.4445212e-05  -8.5046515e-05  -2.3106499e-04  -8.7008666e-05  -6.4173437e-05  -6.2796214e-05   8.3312254e-05  -3.5705059e-05  -5.1093124e-05  -2.2908789e-04  -1.0837406e-04  -5.7007677e-05  -6.9201400e-05  -8.8776025e-05   5.1885316e-05  -1.1663357e-05  -5.5123470e-05   1.9466888e-06   8.2440318e-05  -1.2231554e-04   7.8802979e-05  -2.2878750e-04  -2.0819447e-04  -1.1462620e-04  -1.8041004e-05  -1.0778280e-04   1.9582052e-04  -1.5277752e-04   1.0937158e-04  -7.8556928e-05   6.5391570e-05  -8.4752413e-05  -2.4542242e-05  -1.1809811e-04  -2.3447692e-04   9.1429967e-05  -4.5872326e-05  -3.1002495e-04  -4.1568092e-05   1.7795432e-05  -3.2052470e-05   1.0895314e-04  -1.9508219e-05  -3.0506999e-04  -1.5175372e-04
   7.8230165e-05  -2.2436187e-05  -7.4531177e-05   4.5972010e-05  -2.5213256e-05  -3.1369080e-05  -8.3686493e-05   3.5022582e-05  -1.4070896e-04  -6.3901192e-05  -5.5450659e-05   8.8347158e-05   1.3456284e-05  -8.0118189e-05  -1.2165575e-04  -1.5915364e-04  -6.1591782e-05  -7.8904879e-05   4.1858793e-06   5.8593756e-05  -1.6333775e-05  -1.0507884e-04   1.3362477e-05   3.8199214e-05   1.4753343e-04   7.2506227e-05  -2.8044826e-04  -1.9830081e-04   1.2022561e-05   5.7115290e-07  -7.7260709e-05   1.6782433e-04  -9.7241478e-05   8.8223816e-05  -5.9703812e-05   1.8521867e-05  -1.0655030e-04  -6.1731567e-05  -1.1501673e-04  -6.3034960e-05  -5.0872026e-05   3.4882030e-06  -1.5251525e-04   5.7438452e-04   1.3751719e-05  -8.0296086e-05   5.1576175e-05   3.9283055e-04  -8.2915525e-05  -3.4197248e-04
  -5.3718959e-05  -1.5653803e-05  -3.5471625e-05   6.4605236e-05  -8.8713045e-07  -7.5994671e-05  -6.3773856e-05  -2.8620471e-04  -1.8666472e-04  -4.4632510e-05  -4.8305170e-05   1.0018811e-04   4.6722944e-05  -1.0243733e-04  -2.6140461e-04  -1.6372433e-04  -7.9346682e-05  -8.0529811e-05  -6.3892672e-05   6.1489976e-05  -1.0958860e-05  -6.9323069e-05   4.8834052e-05   9.7118191e-06  -1.4948983e-04   1.4101068e-04  -1.8431188e-04  -2.2454119e-04  -2.2222113e-04  -3.3848253e-05  -8.9334382e-05   1.6949630e-04  -1.2695532e-04   1.1776940e-04  -1.4065448e-04  -5.4405446e-05  -1.9535488e-04  -1.0114596e-04  -1.8934700e-04  -3.2526918e-06  -2.0059138e-04  -3.4452150e-05   8.8223518e-05   9.0690606e-05   2.1954176e-05  -7.9815356e-05   5.6257413e-05   2.0952079e-04   1.7600181e-04  -6.3897244e-04
   8.1217979e-05  -1.4669045e-05  -3.7450765e-05   5.8661844e-05   5.1389566e-06  -8.7281456e-05  -3.1737196e-05  -1.9560826e-04  -6.2941835e-05  -4.5293356e-05  -5.4702381e-05   9.7503733e-05   2.6458698e-05  -8.1858983e-05  -1.6514344e-04  -1.4630282e-04  -7.4181182e-05  -8.4070081e-05  -7.4896132e-05   7.5230309e-05   1.1762263e-05  -9.3180395e-05   2.5475454e-05   9.8814533e-05  -4.3239259e-05   1.3904752e-04  -3.3807155e-04  -2.3305904e-04  -6.5407119e-05   2.5559719e-05  -9.1797447e-05   1.5391826e-04  -3.7929178e-05   6.1373401e-05  -1.0467971e-04  -5.0182280e-06  -2.2164757e-04  -9.3596289e-05  -9.8996316e-05  -7.7314297e-05  -1.0042860e-04  -6.8567101e-06  -1.0081830e-04   3.0589744e-04   1.6631509e-05   3.6524198e-05   1.1542346e-04  -4.0713689e-04  -4.6635859e-04  -3.7186858e-04
   9.0522932e-05  -4.0524560e-06  -2.3684619e-05   5.6018689e-05   2.6234233e-07   1.5642448e-05  -3.4610064e-05  -1.4326056e-04  -8.7959997e-06  -2.7720187e-05  -3.9412360e-05   1.3858054e-04   1.7211563e-05  -1.1674058e-04  -2.5634348e-04  -1.0848446e-04  -7.7874094e-05  -8.7900808e-05  -4.8833306e-05   7.5629032e-05   3.1792088e-06  -4.5936242e-05   1.1000431e-04   1.6696094e-05  -6.9139016e-05   6.5370426e-05  -1.9831865e-04  -2.3071727e-04  -2.8784596e-04  -5.6524423e-05  -1.5787828e-04   1.5672950e-04  -1.5991407e-04   6.6781475e-05  -5.6502955e-05  -1.6925055e-04   8.4704559e-05  -5.1891624e-05  -1.3993804e-04  -3.1029402e-05   1.8873712e-05   3.6857450e-06  -5.2125769e-04  -3.3343723e-04   1.6802272e-06  -2.5953990e-05   4.6803732e-05   5.0012808e-04   1.4778235e-04  -5.7373603e-04
   3.2029842e-05  -3.9753104e-06  -4.6391924e-05   8.1939448e-05   2.9702445e-05  -2.4452447e-05  -4.5820550e-05  -4.2532403e-05  -4.4351727e-05  -3.0883777e-05  -4.1700798e-05   1.3082444e-04   5.3035747e-05  -1.5182739e-04  -1.4173776e-04  -1.5069658e-04  -8.6309905e-05  -7.9549463e-05  -9.0103880e-05   8.3972438e-05   1.2608826e-05  -3.0905292e-05   1.0698340e-04   6.7773828e-05  -9.3351293e-05   9.5916854e-05  -2.3602301e-04  -2.2728232e-04   2.4299849e-05  -3.9759121e-05  -1.1245747e-04   1.9581770e-04  -1.6469011e-04   5.8402544e-05  -8.5278909e-05  -6.5647153e-05   9.4680705e-05  -1.3665218e-04  -6.0120310e-05  -1.3045397e-05  -1.6842867e-04  -1.1353542e-05  -2.7579858e-04   2.1964304e-04   2.5299487e-05  -1.8363874e-04   9.6425785e-05  -1.4729764e-04   4.7253858e-04  -4.2826548e-04
   8.0648613e-05  -1.1454343e-05  -1.2621917e-05   6.7155488e-05   2.3361568e-05   3.0635991e-05  -2.7351452e-05  -1.6286822e-04  -8.8360786e-05  -5.1337796e-05  -6.5776097e-05   4.6998663e-05   3.8176928e-05   3.0463184e-07  -1.8109537e-04  -1.2865038e-04  -4.8071597e-05  -1.0993424e-04  -1.0976537e-04   7.9154051e-05   8.4538688e-06  -4.7417139e-05   4.0714758e-06   8.5072978e-05  -5.7873763e-06  -2.2539336e-06  -1.5217159e-04  -2.1329909e-04   1.1152554e-04  -9.5528576e-06  -4.2194370e-05   1.3260602e-04  -2.0045698e-04   1.1305684e-04  -1.1069351e-04  -4.4780598e-05   1.6859474e-04  -3.5843961e-05  -1.3949181e-04   1.6183454e-05   1.2308139e-04   4.9027381e-05  -3.9647575e-04  -8.2880544e-04   4.6893629e-06   2.4190529e-04   9.8158140e-05   5.4610620e-04   2.4914145e-04   3.4498217e-04
   2.0992162e-04  -7.6337383e-06  -2.3129021e-05   6.5225329e-05   1.8604096e-05   1.2133860e-05  -1.0928485e-05  -2.5918940e-05  -1.6273774e-05  -5.1670522e-05  -4.0672825e-05   6.2825020e-05   3.5054101e-05  -8.4666295e-05  -1.9497472e-04  -1.9713727e-04  -3.8149799e-05  -1.1253978e-04   8.5411753e-05   6.5560940e-05  -1.6072761e-05  -3.7889087e-05   1.9381956e-05  -8.6193984e-05   2.2010398e-05   9.2146380e-05  -2.6735154e-04  -2.2080132e-04  -1.6015465e-04  -2.6453674e-05  -5.7407447e-05   9.5263938e-05  -3.5414709e-05   5.6379300e-05  -2.4092435e-05  -8.5091728e-05   8.7369903e-05  -2.9932724e-05  -1.4525348e-04   7.9602592e-05   1.9407705e-04  -4.5046949e-05   5.0412939e-04  -2.4365637e-04   5.9715418e-05  -1.3266082e-04   1.0901126e-04   5.8686717e-05  -4.3678249e-04   6.2361255e-04
   1.0873900e-05  -1.0988977e-05  -1.9831072e-05   7.6570061e-05   4.1962430e-06  -6.9391090e-06  -2.9131064e-05  -1.2276665e-04  -1.5285579e-04  -5.0669216e-05  -4.5572073e-05   5.3044223e-05   2.6237154e-05  -1.6209928e-05  -1.7364723e-04  -1.6768805e-04  -3.0141473e-05  -1.0637839e-04   3.1918189e-05   7.9097103e-05   1.3935708e-05  -6.3745261e-05   6.9214548e-05   9.6275464e-05  -3.5708053e-05   4.6848381e-05  -3.6329080e-04  -2.2020951e-04   8.5728188e-06   1.1390841e-05  -7.5206663e-05   1.2023102e-04  -1.6795409e-04   4.8255304e-05  -5.6303761e-05   4.9750404e-05   4.7408055e-05  -7.1068032e-05  -1.6762668e-04  -7.8381890e-06   1.6756490e-04  -3.5410199e-07  -2.3070561e-04   5.4198242e-04  -1.4538821e-06   1.6521450e-04   5.4142838e-05  -5.5790617e-04  -5.1681540e-04   3.3658562e-04
   1.0441601e-04  -1.6669164e-05  -3.2617405e-05   6.9799142e-05   2.8454942e-06   3.0759813e-05   3.0186238e-06   1.1122865e-05  -3.9265986e-05  -5.4169013e-05  -5.3868978e-05   5.7203837e-05   5.9213533e-05  -1.0772004e-04  -1.9388292e-04  -1.4681416e-04  -3.5104971e-05  -1.0658635e-04   1.1134659e-05   9.8758115e-05   3.8737777e-05  -5.8704980e-05   1.6041515e-04   9.0389331e-05  -9.4363684e-05   8.7818822e-05  -2.0964013e-04  -2.0610994e-04  -9.8417186e-05   4.0368384e-05  -5.4844113e-05   1.5428438e-04  -3.0147055e-05   1.0147243e-04  -2.1621823e-05   9.4696930e-05  -8.7226879e-05  -2.8706329e-05  -1.5937470e-04  -1.3456417e-05  -1.6497078e-04   8.7169628e-06   4.2916409e-04  -2.8780143e-04   5.0131453e-06  -3.4208992e-05   8.9343863e-05   2.9414339e-04   8.1301296e-06  -6.5477821e-04
   7.1344970e-05   1.1455513e-06   1.6416450e-06   7.9808007e-05   5.6200338e-06   4.7863519e-05   3.5656176e-05   1.6925402e-05  -5.1923576e-05  -4.0978703e-05  -3.3686345e-05   5.5997854e-05   5.9391416e-05  -9.1441769e-05  -1.6251401e-04  -1.6123248e-04  -3.0619376e-05  -1.1744590e-04   6.8839763e-05   8.2493447e-05   1.1924230e-05  -7.2080897e-05  -9.0307716e-05   4.0531511e-05   1.2152013e-05   1.0893130e-04  -3.0730659e-04  -2.2577147e-04  -1.0570931e-04  -1.3954032e-05  -3.4970366e-05   1.5002434e-04  -2.6474640e-04   1.2914767e-04  -3.4934495e-05   2.8254955e-05  -7.4190975e-05  -4.4441793e-05  -8.8319066e-05  -9.4815485e-05   7.5333526e-05   2.8785807e-05   1.0270161e-05  -3.0798942e-04   1.4041165e-05  -4.1157989e-05   1.5523637e-04  -2.5222389e-04  -3.4901728e-05   1.0426369e-04
   4.9743467e-05  -2.4540800e-06  -2.7116363e-05   9.2177514e-05  -4.2113434e-06  -5.0676543e-05   4.6361431e-05  -2.1363060e-04  -1.5822496e-05  -3.9516515e-05  -5.3988446e-05   9.2237133e-05   6.7938498e-05  -5.9837763e-05  -2.6217024e-04  -1.6202353e-04  -5.1950610e-05  -1.3224783e-04  -1.2190208e-05   9.8417746e-05   3.4384309e-05  -1.2599795e-05   4.2036186e-06   2.9734507e-05  -2.5163927e-05   1.3780885e-04  -1.5897470e-04  -2.0361377e-04  -1.2047280e-05   2.2430077e-05  -9.3044735e-05   1.0905902e-04  -6.1903527e-05   1.0169188e-04  -9.4659830e-05   3.9689107e-06   1.4797421e-05  -6.0309336e-05  -1.2125753e-04   1.6936757e-06  -4.1722628e-06   8.3590698e-05  -2.1974836e-04  -5.3397736e-05   6.9555259e-05   9.6592950e-05   5.7438971e-05   3.2434642e-04   3.1451482e-04   1.2088425e-03
   3.6028901e-05  -2.9454091e-06  -2.0505446e-05   9.0118592e-05   3.0848103e-05  -4.7692301e-05   1.4075920e-05   2.0173310e-04  -1.6125674e-05  -3.8437214e-05  -2.9525556e-05   1.1116704e-04   4.2518099e-05  -9.3098082e-05  -1.6688732e-04  -1.3317348e-04  -4.6101683e-05  -1.5003547e-04   8.5434775e-05   1.2324544e-04   4.8018555e-05  -4.0502578e-06   8.7565277e-05   8.7187742e-05  -1.9029958e-05   2.1269538e-04  -2.6145819e-04  -2.3343755e-04  -1.9347546e-05   4.3284665e-05  -1.6964665e-04   1.0548867e-04  -6.7725967e-05   8.0181984e-05  -6.2237290e-05   2.0401130e-05   8.8654320e-05  -6.8006157e-05  -6.4609092e-05  -6.6330904e-05   1.4891761e-04   6.1928004e-05  -1.5438315e-04  -9.7055963e-05  -1.5255468e-05  -1.2391087e-04   5.0272523e-05  -7.7113968e-05  -4.2712429e-04  -3.3540110e-04
   3.2037577e-05   1.0731394e-05  -1.0059137e-05   9.3340015e-05   9.0746144e-06  -6.0376233e-06   2.7659762e-05   2.7807138e-05  -3.6892201e-05  -2.8109082e-05  -2.3706270e-05   9.8822922e-05   5.2351890e-05  -1.7460914e-04  -1.4266065e-04  -1.9977934e-04  -5.0195616e-05  -1.4757538e-04  -7.8384248e-05   1.1295738e-04   3.7167476e-05  -2.8240343e-06   9.2919945e-05   2.2927230e-05  -2.5654534e-05   1.4853579e-04  -1.3762152e-04  -2.2923855e-04  -1.1295967e-04  -2.2895336e-05  -1.1726465e-04   1.0976948e-04   1.3599954e-04   9.2420589e-05  -5.5877095e-05   2.9980356e-05   1.3854179e-04  -6.7290792e-05  -1.2216845e-04   2.7087295e-05   7.0556271e-05   2.2752440e-05   1.5229855e-04  -1.2927101e-04   4.0232590e-05   1.3165883e-04   1.4004741e-04  -2.3775572e-04   1.1039175e-04  -2.7722254e-07
   8.8714107e-05   6.8404661e-06  -4.7113554e-05   9.8710640e-05   6.5349845e-06  -5.7908386e-05   2.1404685e-05   3.0031351e-05  -1.0342941e-04  -3.3424261e-05  -3.2029020e-05   1.1044084e-04   4.2716769e-05  -1.0651233e-04  -1.5659799e-04  -1.6326380e-04  -5.9949914e-05  -1.5176974e-04  -1.0576135e-04   9.7992190e-05   5.3710559e-05  -1.6987924e-05   3.9823204e-05   5.0490828e-05   6.2213505e-05   7.8780904e-05  -1.8509707e-04  -2.4548912e-04   7.8700359e-05   2.5937881e-05  -1.2275687e-04   9.6416428e-05   1.0947374e-04   1.2736999e-04  -9.8985816e-05   9.9951882e-05   1.7808625e-05  -4.9666472e-05  -7.8338460e-05   2.5798339e-05  -2.5567970e-05   4.3214772e-05   1.2439316e-04   3.1104013e-05   4.7704947e-05  -4.1301664e-05   1.2240499e-04   2.6086569e-04   2.1392359e-05  -3.0314724e-04
   8.8803208e-05   8.9847663e-06  -5.6603192e-05   1.1015214e-04   4.3055265e-06  -2.7293416e-05   4.2601900e-05  -1.0633952e-04  -1.2715696e-05  -2.8320876e-05  -1.0166106e-05   1.2997203e-04   7.3548610e-05  -1.5072130e-04  -3.4546852e-04  -1.6458855e-04  -6.0297305e-05  -1.3957951e-04  -7.5050034e-06   1.3418938e-04   7.3061063e-05   2.7687465e-05   6.7173736e-05  -1.0688568e-05  -5.9225116e-05   1.1020794e-04  -3.0576161e-04  -2.4999332e-04  -9.3482149e-06   1.0631147e-05  -1.6120878e-04   8.7992696e-05   3.1812357e-05   8.4283442e-05  -3.9911687e-05   2.9364861e-05  -8.8585766e-05   4.1173944e-06  -3.8878257e-05   2.7649374e-05   1.8696544e-04   3.3526707e-05   5.5536296e-04  -6.8884215e-06   3.0139854e-05  -6.3750369e-05   1.3052650e-04  -1.0326186e-04  -2.9128714e-04  -1.3187194e-03
   2.1633082e-04   2.0134285e-05  -2.1108201e-05   1.3761179e-04   1.5670452e-05  -3.6526566e-05   5.0742524e-06  -2.3504843e-04  -1.2060632e-05  -1.7145185e-05  -5.4483849e-06   1.7059327e-04   3.9088194e-05  -8.4855936e-05  -1.5074397e-04  -1.6293582e-04  -6.1108782e-05  -1.4798119e-04   1.7551723e-05   1.2659105e-04   6.3506348e-05   6.6935383e-05   9.2331531e-05   5.6161476e-05  -9.2280443e-06   7.9934543e-05  -3.3424760e-04  -2.3443608e-04  -1.4335031e-04  -1.9853513e-05  -1.9700751e-04   1.0496709e-04   1.1498816e-04   9.8249417e-05  -8.3065002e-05  -1.2587504e-05  -4.7735964e-05  -1.3906741e-05  -6.7656627e-05   1.2602950e-06  -3.9607061e-05   4.3956210e-05   1.3258684e-04  -2.2696506e-04   6.1856583e-05  -7.1966031e-05   4.7320900e-05   3.9309534e-04  -4.4481971e-05  -1.0416759e-03
  -9.8020710e-06   1.5272401e-05  -1.7033035e-05   1.2723259e-04   1.0895174e-05   1.9379217e-05   1.5795487e-05   1.6127031e-05  -6.4418644e-05  -3.3582677e-05  -8.3546712e-07   1.2939739e-04   5.5508008e-05  -1.7334023e-04  -1.4517890e-04  -1.9149797e-04  -5.7308534e-05  -1.4181114e-04   5.0392977e-05   1.4193000e-04   7.1042945e-05   1.1372222e-05   4.7516380e-05   1.3092397e-05   3.0411742e-05   1.4029909e-04  -2.8218239e-04  -2.4676078e-04  -1.7818165e-04  -1.8219385e-05  -1.2886863e-04   1.4593464e-04   9.0513880e-05   1.5344015e-04  -8.5477623e-05   1.2312840e-04  -3.3769571e-05  -3.5724519e-05  -5.2329895e-05   1.4030401e-05   1.4431747e-04  -4.2349198e-05   3.5643905e-07   2.3434350e-04   3.6031055e-05   4.3135104e-05   1.0788329e-04   1.4526387e-05  -2.2527308e-04  -4.4573823e-04
   7.0404363e-05   7.4942773e-06   2.4571294e-05   1.3218974e-04   1.9743377e-06   3.3337208e-05   1.6297927e-05  -2.4474584e-04  -6.8105168e-05  -4.4161679e-05  -8.1554917e-06   1.0102151e-04   7.8214805e-05   1.2480790e-05  -9.9291377e-05  -1.1029676e-04  -2.2055972e-05  -1.3690902e-04  -5.2992717e-05   1.3519844e-04   6.8705915e-05   3.4138986e-07   1.3107748e-04   5.5900888e-05  -9.6031159e-05   9.7334261e-05  -2.3993547e-04  -2.5564886e-04  -7.2231203e-05   3.6082303e-05  -1.2137784e-04   1.4235839e-04  -2.0989568e-04   1.1279579e-04  -6.8828718e-05  -3.3453596e-06   5.1879801e-05  -5.6862023e-05  -1.4037361e-04   6.7021800e-05  -1.4587224e-04  -1.3828277e-05  -4.6448814e-04   3.2504726e-05   4.4546498e-05  -4.1851154e-06   1.3947085e-04   4.2681358e-04  -1.1772054e-04   1.3561792e-05
   1.0430917e-04   1.1059564e-05   1.9822082e-06   1.1165465e-04   5.7851307e-06  -1.1806188e-05   5.0918417e-05  -3.1272004e-05  -6.7535784e-06  -3.5700643e-05   1.3793974e-06   1.0123137e-04   4.8292146e-05  -7.1169576e-05  -1.1836312e-04  -1.7964211e-04  -2.5964904e-05  -1.5054009e-04  -3.7933623e-05   1.4546645e-04   6.7350760e-05  -4.2783523e-07   5.3091961e-05   8.6973276e-05  -4.9508468e-05   1.1018603e-04  -1.2751880e-04  -2.0281288e-04  -1.2701657e-04  -2.2837559e-05   1.8420629e-06   1.1229066e-04   7.0971284e-05   1.1191834e-04  -3.0915075e-05   8.2411680e-06   2.4237259e-05  -4.4115994e-05  -9.9632263e-05   5.9970880e-05  -1.9713605e-04   2.7010825e-05   3.3835811e-04  -1.9687778e-04   2.3548200e-05   2.8732675e-04   9.0946407e-05  -6.1643968e-04  -3.3156227e-04  -1.5262114e-04
  -1.4669137e-05   7.3263950e-06   2.5730249e-05   1.3261025e-04   2.9179901e-05  -3.4316716e-05   3.5117071e-05  -1.2016085e-04  -4.6089110e-05  -5.4118744e-05  -9.2066257e-06   6.4620399e-05   4.3019805e-05  -4.8986767e-05  -1.9007441e-04  -2.0924890e-04  -8.1964845e-06  -1.4003238e-04  -4.1144413e-05   1.5002485e-04   9.1094102e-05   2.5783451e-05   1.0059798e-04   5.8178925e-05  -2.6605310e-05   1.6355143e-04  -2.7505966e-04  -2.3626485e-04  -5.5154582e-05   9.7981429e-06  -6.7182234e-05   1.2953601e-04  -5.0763670e-06   1.3862629e-04  -1.5114505e-04   7.9171004e-05  -9.4747098e-05  -1.4216950e-05  -1.0650850e-04  -7.2728080e-06  -2.4570114e-05  -2.8104148e-05   4.7872550e-04   6.5093918e-04   6.5814056e-05   7.8518438e-05   9.6999327e-05   4.4471209e-04  -4.9518794e-04  -7.4501336e-04
   2.1885255e-04   1.4712894e-06   5.9576822e-05   1.2294854e-04   3.4605862e-05   9.6980730e-06  -1.5411787e-06  -3.6364843e-05  -2.1464055e-05  -5.8412708e-05  -6.2313043e-06   4.4128257e-05   6.3983192e-05  -3.7769099e-05  -1.5061875e-04  -1.4623439e-04  -3.1184823e-06  -1.2705410e-04   1.0627289e-04   1.4571115e-04   8.0897429e-05   5.9777092e-05   1.6314693e-04   9.1368449e-05  -3.3128817e-05   1.2687941e-04  -1.5560049e-04  -2.0267784e-04   6.0623453e-05   2.6599482e-05  -4.0013216e-05   1.6091489e-04  -2.0137522e-04   1.3693293e-04  -3.8220096e-06   1.0303602e-05   1.2530191e-04   3.8671433e-06  -6.9557471e-05   3.0119558e-05   4.3440039e-05   4.4308304e-05   2.1139394e-04  -3.9614626e-04   6.7445959e-05  -3.3807442e-05   1.2682266e-04  -5.0626157e-05   1.2046762e-04  -4.8556022e-04
   1.1096913e-04   1.4003457e-05   6.2432329e-05   1.2927283e-04  -1.7038938e-06   4.4592241e-05  -3.9837510e-06   1.2292739e-04  -2.9614425e-06  -4.6615733e-05   1.5983354e-05   3.0324993e-05   6.4157008e-05  -5.7916321e-05  -1.7560301e-04  -1.9602622e-04   1.5684271e-05  -1.2241476e-04  -5.2013824e-05   1.4947836e-04   6.6341323e-05   1.5831569e-05   1.0534786e-04   2.8305269e-05  -5.8988870e-05   7.7186123e-05  -1.4679028e-04  -2.0145763e-04  -5.3061271e-05  -2.5925023e-05   2.8078111e-05   1.3956042e-04   4.6209199e-05   1.3296919e-04  -1.1345505e-04   1.2012600e-04   3.7481495e-05   8.2447077e-06  -5.5606924e-05  -1.9591259e-06   2.4893319e-07  -1.3581587e-05   1.3474112e-04   4.0926505e-04   3.2305150e-05  -7.1735281e-05   1.6212759e-04   4.2102305e-04  -4.8162832e-04   3.9852355e-04
   1.2837068e-04  -1.3687790e-06   3.4017696e-05   1.3015201e-04   8.5507791e-06   4.3275446e-05   5.9318209e-05  -1.6545184e-04  -5.0374797e-07  -5.7595549e-05   2.4045303e-05  -1.3192561e-06   2.9842187e-05   2.0911588e-05  -1.1781902e-04  -2.1519487e-04   2.1437234e-05  -1.2377439e-04   8.9969457e-05   1.6325821e-04   9.1778347e-05  -1.5084460e-05   2.3578188e-05   2.4327283e-05  -3.1403953e-05   1.1464013e-04  -1.8764070e-04  -1.9414371e-04   1.7059436e-05  -3.0592978e-06   2.1047928e-05   1.7465795e-04  -1.2971823e-04   1.2076172e-04  -5.3487973e-05   9.1694259e-05   9.6500939e-05  -2.2242789e-06  -3.9108618e-05  -6.3190477e-05   6.7113411e-05   2.7672071e-05  -2.8739691e-05  -7.9546335e-05  -1.1329102e-05   1.6180413e-04   1.1108653e-04   1.1004084e-03   7.6755881e-05  -3.4281876e-04
   5.8869795e-05   4.2359412e-07   7.5395466e-05   1.3421182e-04   3.9913903e-05   3.4530851e-05   5.8688001e-05   2.0395389e-06  -1.7003107e-05  -5.5476779e-05   2.4305498e-05   5.4653997e-06   5.9738475e-05   3.5624907e-05  -1.5496247e-04  -1.4114524e-04   2.0108408e-05  -1.1455812e-04   5.4582564e-05   1.6162696e-04   9.7250260e-05   3.2904565e-05   6.4400490e-05   7.6383745e-05  -6.2554586e-06   1.8717021e-04  -2.3429336e-04  -2.0741559e-04   1.6472040e-04   5.5261840e-05   9.2406171e-06   1.7658886e-04  -1.1645243e-05   1.3283180e-04  -1.6493328e-05   1.6526824e-04   1.5157560e-04  -3.0001554e-05  -2.0928062e-05   2.1344799e-04   5.5239987e-05   9.3611498e-06   1.3692146e-04   7.5278140e-04   6.7581175e-05  -1.0102302e-04   1.7458721e-04  -6.5100711e-04   2.8769264e-04   1.0855655e-03
   5.3669166e-05   1.3203316e-05   4.6000172e-05   1.4840547e-04   3.5925888e-05   1.5797261e-05   1.2740454e-04   1.0557437e-04  -7.2342368e-07  -4.1454325e-05   4.9811355e-05   3.8976948e-05   6.6985878e-05  -5.0015791e-05  -6.5152461e-05  -1.4039042e-04   5.4537336e-06  -1.2942147e-04   1.3860002e-04   1.6015173e-04   9.2499089e-05  -7.3670144e-06   7.3629912e-05  -4.9234790e-05  -1.0576908e-04   1.2296646e-04  -3.1504018e-04  -2.0108587e-04  -9.0278860e-05  -2.0270884e-06  -5.9315262e-06   1.4488195e-04   4.6551697e-05   2.0148949e-04   5.0852803e-05   1.7148597e-04  -4.7451478e-05   1.2114612e-05  -4.7323134e-05   7.6747405e-05   1.8749208e-05   9.4931987e-05  -1.9172397e-04  -8.0647727e-04   5.6545323e-05  -1.5403061e-04   1.5079137e-04   2.2988041e-05  -4.5415692e-04   2.6599286e-04
  -1.0312053e-05   1.4824893e-05   7.0448586e-05   1.6389157e-04   3.9445498e-05   6.2389649e-05   6.2001745e-05   7.9819460e-05  -1.8338569e-05  -3.5806839e-05   3.6386988e-05   5.1089399e-05   4.1297797e-05  -3.0266689e-05  -2.1930311e-04  -1.4742480e-04  -1.2005966e-05  -1.3836978e-04   2.9851130e-04   1.8875403e-04   1.1170578e-04   5.9939990e-05   5.4958644e-05   8.1349091e-05  -6.1387087e-05   1.7588434e-04  -2.5438599e-04  -2.3381978e-04  -5.9271639e-05   5.1691364e-05  -4.4045733e-05   1.9446896e-04  -6.9783528e-05   1.3807480e-04  -6.6066059e-05   8.5422609e-05   4.5775028e-05   2.1512384e-05  -2.8674178e-05   1.0307047e-04   2.7734460e-04   6.8288369e-05   4.7658238e-04   2.3029566e-04   7.8662495e-05   4.2665265e-06   8.2695689e-05   4.6589637e-05   2.0718694e-04   1.3075231e-03
   9.7384982e-05   1.5838337e-05   7.7756296e-05   1.6569905e-04   8.1073544e-05   7.9271762e-05   8.7442706e-05  -1.3113121e-05   4.6732817e-05  -2.9904710e-05   3.4251087e-05   9.3614384e-05   3.7453214e-05  -3.3355798e-05  -8.2465820e-05  -8.9423913e-05  -1.4044596e-05  -1.3914128e-04   1.0680302e-04   1.9426823e-04   1.3619984e-04   1.0215245e-04   4.9656333e-05   1.0303946e-04   5.0871644e-05   1.9132977e-04  -2.4789956e-04  -2.3263361e-04  -6.8287845e-05   2.7492728e-05  -8.7159919e-05   1.4363763e-04   2.0875834e-04   1.5799409e-04   2.8960014e-06   8.1252714e-05   1.5170965e-04   9.9432300e-06  -1.3518440e-04   5.8662587e-05  -1.7119717e-05   4.1348987e-05   1.5679670e-04  -2.1721344e-04   6.1591847e-05  -7.6998673e-05   1.1605446e-04   3.2347659e-04  -4.2607298e-05  -1.7376264e-04
   8.3050632e-05   4.2980697e-05   6.4912230e-05   1.8273346e-04   5.6730110e-05   3.6695772e-05   7.6168661e-05  -7.2792645e-05   1.1114671e-04  -9.4164352e-06   6.1419800e-05   1.4713817e-04   4.4289023e-05  -3.2265027e-05  -1.7068637e-04  -1.4721736e-04  -4.9615926e-05  -1.6759727e-04   2.0125876e-04   2.0509100e-04   1.2408539e-04   6.6308137e-05   6.4952830e-05   8.7775596e-05  -6.7946276e-05   1.3951281e-04  -3.4825099e-04  -2.3828517e-04  -4.0797546e-05   6.1305159e-06  -9.5104107e-05   1.3857284e-04  -2.4771576e-05   1.1587892e-04  -4.1862710e-05   1.8158638e-04   3.0672448e-04  -3.5826546e-05  -5.1475705e-05  -2.7227421e-05   1.6450973e-05   4.6459503e-05   1.8592285e-04   2.6319537e-04   1.2913757e-04  -2.4081210e-05   1.4955732e-04  -5.4276490e-04   2.5116247e-05   6.9173507e-04
   1.1800098e-04   4.1362015e-05   7.8589990e-05   2.0699583e-04   5.5419132e-05   4.3349628e-05   1.0333514e-04   1.4478361e-04   1.0987152e-04  -2.0808027e-05   5.7717032e-05   1.4551506e-04   6.1988387e-05  -7.3862000e-05  -1.9662797e-04  -1.4668402e-04  -4.0098257e-05  -1.6823714e-04   1.4591550e-04   2.1696828e-04   1.5090038e-04   9.8084427e-05   7.5556869e-05   2.4992161e-05   2.0913203e-05   1.5529839e-04  -3.2896802e-04  -2.5363555e-04  -1.9183218e-04   1.0764759e-06  -1.0649981e-04   1.5791161e-04   8.2051462e-05   1.7099145e-04  -2.4014989e-05   1.4103565e-04   1.0918748e-04   3.9984228e-05  -3.4872392e-05   5.8787191e-05  -1.1518828e-04   1.3064625e-04  -2.2191413e-04  -1.8918831e-04   1.6139417e-04   5.3889831e-05   1.1586642e-04   4.3540512e-04   5.9399939e-05   6.5224187e-04
   1.8320951e-04   4.3181954e-05   8.9330366e-05   2.0325014e-04   1.0847624e-04   4.7547612e-05   1.1341102e-04   8.1786886e-05   1.1639397e-04  -2.2125516e-05   5.0413892e-05   1.3432298e-04   7.2763709e-05  -3.9574501e-05  -7.5042262e-05  -9.9725046e-05  -5.0994098e-05  -1.6100175e-04   3.7046336e-04   2.0666250e-04   1.5534330e-04   1.2136164e-04   8.5552259e-05   1.0066219e-04  -1.5428512e-05   1.8220406e-04  -3.1625803e-04  -2.2700474e-04   1.0642553e-04   5.8909322e-05  -1.0505173e-04   1.4017122e-04  -6.8289199e-05   1.6582751e-04   3.1688349e-05   3.8391063e-05   3.3013013e-05   3.3114025e-05  -7.8917335e-05   7.8326222e-05   5.3203483e-05   7.4774485e-05  -9.8374381e-05   2.0735523e-04   9.6803182e-05   4.1774361e-05   1.8162424e-04  -4.4880115e-04  -9.8097378e-05   4.7155964e-04
   2.3171470e-04   5.5750603e-05   1.1118369e-04   2.2727654e-04   7.8568119e-05   1.0282780e-04   1.0395564e-04   6.5443121e-05   1.1955819e-04  -9.4306197e-06   7.9840655e-05   1.5949202e-04   9.7015094e-05  -3.8844093e-05  -1.2022466e-04  -8.5675936e-05  -6.0724578e-05  -1.6384460e-04   1.4731634e-04   2.2993507e-04   1.5375084e-04   1.3455296e-04   5.7779169e-05   5.2063049e-05   1.7439192e-05   1.3104152e-04  -2.9665511e-04  -2.5370921e-04   6.9220514e-05   5.6238583e-05  -1.4608103e-04   1.0981590e-04   1.4333245e-04   1.4904652e-04   4.6320143e-05   1.4156730e-05   1.2856178e-04   3.2951517e-05  -6.3503059e-05   5.6702556e-05   3.2341035e-05   6.3333595e-05  -1.8007539e-05  -5.6241668e-04   8.7971617e-05   1.5442428e-04   1.1895172e-04  -5.5944576e-04  -1.3361379e-04  -1.5499198e-04
   1.4667811e-04   5.0770628e-05   6.9371948e-05   2.3695217e-04   1.0579029e-04   1.0293870e-04   1.0701326e-04   4.4975117e-05   1.1023165e-04  -2.1046357e-05   6.1706472e-05   1.3305456e-04   6.8259244e-05  -8.8013192e-05  -2.1712850e-04  -9.5852447e-05  -5.9322469e-05  -1.4194941e-04   2.1583031e-04   2.1887921e-04   1.6639745e-04   1.7288726e-04   9.8709475e-05   1.1286513e-04   3.0685394e-05   2.2574747e-04  -2.5970690e-04  -2.5227011e-04   6.5119748e-05   6.7427056e-05  -1.7370163e-04   1.4560675e-04   4.4962595e-05   1.2850357e-04   4.7611647e-05   1.2153493e-04   4.4675692e-04   1.8514571e-05  -4.9735383e-05   1.1723108e-05   5.2643122e-06   4.0210907e-05   1.2907776e-04  -3.2153950e-04   1.0937048e-04  -1.1274684e-04   1.5516160e-04  -5.9328944e-04  -2.1098630e-04   1.6400677e-03
   2.3090716e-04   6.6834604e-05   5.7545341e-05   2.4638843e-04   1.3040905e-04   8.5488813e-05   1.7179086e-04  -2.3513141e-05   1.5719701e-04  -1.9741636e-05   5.3260293e-05   1.3415108e-04   1.0658211e-04  -1.2473337e-04  -2.1346231e-04  -6.3296968e-05  -7.6441596e-05  -1.3174843e-04   1.7465495e-04   2.2457159e-04   1.5138728e-04   1.1963167e-04   5.4503635e-05   8.5892818e-05  -7.0419694e-05   1.6882080e-04  -1.8915720e-04  -2.0242366e-04  -1.1220531e-04   5.4621691e-05  -2.2077786e-04   1.2586436e-04   5.9399998e-05   1.4339780e-04   5.8338584e-05   1.4731067e-05   1.7040466e-04   3.4812321e-05  -8.4001607e-05   4.9159382e-05  -1.7420547e-04   7.6047814e-05   1.2364779e-05   2.7114581e-04   1.0083130e-04  -4.8155627e-05   1.5783579e-04  -2.9364537e-04  -1.9512350e-05  -7.4925250e-04
   2.6899079e-04   7.1689079e-05   9.9883648e-05   2.3835032e-04   1.0461079e-04   1.5001695e-04   1.3185946e-04  -5.1323383e-05   2.1034555e-04  -1.8029055e-05   6.8996640e-05   8.3594292e-05   1.1852944e-04  -6.9621550e-05  -1.6402418e-04  -8.5733438e-05  -3.4253029e-05  -1.2417026e-04   9.5933392e-05   2.0311507e-04   1.4346576e-04   9.6095966e-05   1.2308250e-04   5.6231860e-05  -5.2538784e-05   6.9588277e-05  -1.9073402e-04  -1.7408073e-04   3.6132402e-05   4.2751562e-05  -9.0955487e-05   9.1939975e-05  -4.1759267e-05   5.3326523e-05   8.7925619e-05   1.0648166e-04   8.2635590e-05   3.6255646e-05  -1.0843994e-04   1.8993100e-04   2.5597406e-05  -5.9746817e-05  -1.0400004e-04   2.9198002e-04   7.2296774e-05  -2.8999848e-05   1.3347305e-04   7.7333971e-05  -1.5217846e-04  -2.6136529e-04
   1.2585962e-04   5.9311620e-05   1.1530698e-04   2.3565466e-04   1.0013991e-04   1.6913557e-04   1.4269490e-04   1.6976404e-04   1.1475864e-04  -2.9199324e-05   5.0370501e-05   3.3620505e-05   1.1471068e-04   4.3094956e-06  -9.1265429e-05  -7.7610835e-05  -2.2643180e-05  -1.3041859e-04   2.4098852e-04   2.0889779e-04   1.5630569e-04   8.0509279e-05   1.1852806e-04  -1.1918498e-05  -4.8899215e-05   1.5922764e-04  -2.0205148e-04  -1.9798153e-04   1.7579117e-04   4.0440984e-05  -6.3309708e-05   1.6301978e-04  -6.9730420e-05   1.2995752e-04  -3.6307658e-05   7.3393836e-05   2.6504876e-04   1.8610584e-05  -8.7106482e-06   1.9582400e-04  -3.7372913e-05   6.7090223e-05   2.5701997e-04  -1.7022288e-04   1.2687672e-04   2.0189218e-04   1.4022637e-04  -7.3088321e-04  -1.3661635e-04  -3.6112164e-04
   1.1823745e-04   5.3190008e-05   1.3339243e-04   2.2976466e-04   1.2278887e-04   1.2128548e-04   2.0309673e-04   2.3196302e-05   2.0181763e-04  -4.5175500e-05   6.1281935e-05   2.3349034e-05   7.6045639e-05  -3.4790464e-05  -1.5012280e-04  -1.0949757e-04  -1.2672947e-05  -1.3876741e-04   2.7211485e-04   1.9076704e-04   1.3726646e-04   6.8016940e-05   1.4432293e-04  -4.5722347e-05  -1.3771160e-04   1.3487687e-04  -2.8125395e-04  -2.0150551e-04   1.8632167e-04   5.8265185e-05  -6.5159133e-05   1.2583192e-04   1.2088779e-04   1.4195955e-04  -8.1358749e-06   5.4140241e-05   1.4829598e-04   2.6086356e-05  -6.1605708e-05   7.9082311e-05   4.5878245e-05   7.8095254e-05  -1.8725272e-04   1.4487008e-04   1.3257080e-04  -9.9902936e-05   1.0496688e-04   5.3085278e-05  -1.6061033e-04  -1.2762177e-04
   2.0153524e-04   5.9167760e-05   1.4065740e-04   2.3438933e-04   8.5663050e-05   7.6478820e-05   1.5676086e-04   1.1448142e-04   9.9226083e-05  -3.4458873e-05   7.6097516e-05   2.4145360e-05   1.1032206e-04  -1.1870257e-05  -9.7345066e-05  -1.2913690e-04  -2.4315403e-05  -1.3503952e-04   1.6730868e-04   1.8944571e-04   1.3770729e-04   6.7363326e-05   1.4365390e-04  -3.1038646e-05   6.1787840e-05   7.8023499e-05  -2.0717400e-04  -2.2047554e-04  -1.7676832e-05   8.4414169e-06  -3.4381646e-05   1.3452327e-04   9.6786534e-05   9.9716424e-05   1.9691983e-05   1.6918256e-04   3.8395024e-06   5.9334103e-05  -5.4232700e-05   1.5375571e-04   1.9426196e-05   1.1343831e-04   3.5656191e-04   1.3003983e-04   3.2671443e-05  -8.7153407e-05   1.7476152e-04  -4.9749255e-04  -6.8457390e-05   3.8320478e-04
   1.4838188e-04   5.1635474e-05   1.2842737e-04   2.1222419e-04   9.7227268e-05   7.6821132e-05   1.1010117e-04   2.8928362e-05   7.1912706e-05  -3.0396654e-05   8.0402875e-05  -7.8651209e-07   9.8566838e-05   2.0539423e-05  -1.1673133e-04  -7.7475364e-05  -7.5208500e-06  -1.3604575e-04   2.0396594e-04   1.9462129e-04   1.5125929e-04   9.8799916e-05   1.6085616e-04   3.0689698e-05  -2.6773100e-06   9.6544391e-05  -1.9800538e-04  -2.2071981e-04   1.6812750e-04   4.3512406e-05   2.4122081e-05   1.4212989e-04   2.0925280e-04   1.6348300e-04   1.8838573e-05   1.1151120e-04   3.0640302e-05   5.0057490e-05  -3.1718970e-05   3.2374061e-05   2.8103727e-04   7.8234087e-05   3.5063701e-04  -2.2069702e-04   6.5832355e-05  -1.8441133e-05   1.3396413e-04  -1.8837917e-04   5.8758764e-05  -4.8564520e-04
   2.4100330e-04   4.7529367e-05   1.5906196e-04   2.1444687e-04   1.3445757e-04   1.0766911e-04   1.9331189e-04   4.6234429e-05   8.0914746e-05  -3.7776012e-05   7.9480247e-05   1.6530897e-06   9.0905261e-05   2.2336973e-05  -1.2983303e-04  -9.0826732e-05   2.0319820e-05  -1.2463621e-04   2.9961683e-04   1.8495970e-04   1.3048056e-04   1.0311948e-04   1.5570440e-04  -3.4491484e-05   6.1077728e-05   9.5035561e-05  -2.1576519e-04  -2.0174052e-04   1.4077981e-04   5.1652758e-05   1.3497045e-05   1.0252478e-04   8.1827464e-05   2.1098531e-04   4.2082760e-05   9.6997297e-05  -2.5710365e-06   5.5046290e-05  -4.2871823e-05   5.6025980e-05   1.3908824e-04   7.6536438e-05   1.3025472e-04  -6.1842531e-04   5.1556137e-05   1.2504292e-04   1.4456903e-04  -2.3024799e-05  -3.5528850e-04  -1.2222470e-05
   1.2165686e-04   5.0798884e-05   1.5680642e-04   2.2414375e-04   9.8145203e-05   1.2518032e-04   1.7238532e-04  -3.5925452e-05   9.1839873e-05  -2.6672706e-05   8.9943438e-05  -4.8134639e-06   8.8843597e-05   2.1134467e-06  -2.2531154e-04  -1.4407576e-04  -2.9220050e-07  -1.4037776e-04   1.3693956e-04   1.8284231e-04   1.3815796e-04   1.2652746e-04   1.1985555e-04   2.6287021e-06  -7.6657096e-05   1.5923941e-04  -1.5446615e-04  -2.1822249e-04  -4.6556347e-06   2.7977407e-05   6.1368875e-05   1.4399723e-04   1.3815699e-04   1.5029844e-04   5.5111006e-05   1.4732678e-04   2.5170462e-04   1.8839670e-05  -1.0704873e-05   4.7322286e-05   4.9547212e-05   4.4049542e-05   1.5541830e-04  -1.6914996e-04   3.5713514e-05  -2.0087899e-04   1.6095946e-04   1.4721454e-04  -6.9071255e-05  -3.7169908e-04
   1.2422986e-04   5.1963932e-05   1.3892143e-04   2.3499395e-04   7.0417038e-05   1.3445187e-04   1.6852318e-04  -1.6452788e-04   1.3535700e-04  -2.4947909e-05   7.5729571e-05  -6.8709579e-07   9.5317184e-05   1.5610251e-05  -1.1497508e-04  -1.1971503e-04   1.4722440e-05  -1.4610101e-04   1.4147238e-04   1.6848292e-04   1.5802616e-04   7.2956405e-05   4.4048677e-05   7.7771610e-06  -5.7299909e-05   1.3935161e-04  -1.2131705e-04  -2.1125705e-04   2.5041949e-05   7.4351854e-05  -7.8922661e-05   1.5669409e-04   8.5893967e-05   1.7841364e-04   6.2328203e-05   1.8385056e-04   2.7744830e-04   1.0336856e-04  -2.7850898e-05   2.7442793e-04   1.4536949e-04   5.6585519e-05   5.7666993e-04  -2.0788499e-04   3.7404734e-05  -1.0773521e-04   1.6227841e-06   7.3255313e-04  -3.1536771e-04   1.1772549e-03
   1.9095378e-04   5.1964711e-05   1.3514688e-04   2.2766761e-04   1.0477862e-04   1.0986741e-04   1.4940594e-04   1.1169888e-04   9.8784360e-05  -1.2116941e-05   9.5009040e-05   5.8317986e-05   7.4243108e-05  -1.6479435e-05  -4.1438456e-05  -1.5772082e-04  -9.6277126e-06  -1.3920077e-04   1.1247700e-04   1.9145806e-04   1.4513145e-04   1.3415501e-04   1.1053059e-04  -7.3927113e-05  -1.6489184e-05   9.7439115e-05  -1.8196444e-04  -1.8630725e-04  -6.5924451e-06   2.4205590e-05   1.9468989e-05   1.3238590e-04   1.2912323e-04   8.9689260e-05   9.3031289e-05   1.6266208e-04   3.5424897e-04   9.9114659e-05  -4.9461155e-06   2.5372612e-05   8.1466103e-05   1.4471332e-05   4.6235000e-04   3.1234238e-05   8.7434193e-05  -1.6034198e-04   1.1531628e-04   7.5836841e-05   2.0056346e-04  -2.9477908e-04
   1.8322802e-04   6.0380247e-05   1.4314760e-04   2.3681008e-04   5.9497746e-05   1.1812255e-04   1.3664238e-04  -5.6703990e-05   6.1893850e-05  -4.4650560e-06   9.0642316e-05   5.9221122e-05   9.6095806e-05   1.8076045e-07  -7.1990624e-05  -1.5677407e-04  -3.5390769e-06  -1.3939198e-04   1.6497249e-04   1.7756090e-04   1.5647865e-04   1.0930470e-04   4.9676957e-05   3.2278636e-05  -2.9437371e-05   1.2319554e-04  -2.0431487e-04  -2.0403998e-04   2.9988936e-04   5.8597994e-05  -7.3684736e-05   1.5456667e-04   3.0474894e-04   1.4681229e-04   3.0514637e-05   1.2613452e-04  -1.2634944e-06   4.2375970e-05  -5.0111365e-05   6.1926658e-05  -6.2911815e-05   5.5558583e-05  -2.7456350e-04  -2.9752793e-04   6.9361653e-05  -1.3482785e-04   9.2105707e-05   3.0729326e-04  -4.4297343e-05   5.5664312e-04
   9.3080904e-05   6.0200397e-05   1.3225728e-04   2.3094767e-04   9.0017253e-05   7.8815901e-05   1.4763106e-04  -2.4279298e-05   6.8196743e-05  -1.4515548e-05   7.9973281e-05   4.1645904e-05   1.1375419e-04  -7.8200930e-05  -5.2635118e-05  -1.2211164e-04  -1.1885651e-05  -1.5009395e-04   1.6564177e-04   1.7034245e-04   1.6688427e-04   1.2200170e-04   3.7175359e-05   9.6743708e-05   8.2999664e-05   1.4618225e-04  -1.9175420e-04  -2.0457189e-04   2.7658252e-04   9.7253353e-05  -1.2623737e-05   1.2942274e-04   1.5139564e-04   1.5677596e-04   1.5598055e-04   1.0842847e-04   1.4453403e-04   9.1239002e-05   2.6792782e-06   1.3167747e-04   1.1611804e-05   3.8596158e-05  -7.9033111e-05   2.4962710e-04   1.2075569e-04   1.1479993e-05   5.4505355e-05   1.9463159e-04  -4.8774865e-04  -4.7985464e-04
   1.8768589e-04   6.8777525e-05   1.2392752e-04   2.3712467e-04   9.8325749e-05   1.0129764e-04   1.4974207e-04  -9.0065201e-05   1.6423926e-04   8.9385729e-08   8.9525463e-05   6.6224537e-05   7.8815276e-05  -5.9551097e-05  -7.4558557e-05  -1.5903506e-04  -2.9542573e-05  -1.3812243e-04   1.6216238e-04   1.6379137e-04   1.4888318e-04   9.4263545e-05   2.2017650e-06   8.3402432e-05   2.3694238e-05   9.3938535e-05  -2.2964852e-04  -1.9794461e-04   3.6089310e-05   4.4963614e-05  -2.5200994e-05   1.3267207e-04   2.5579773e-05   1.7736501e-04   2.7240132e-05   2.4795826e-04  -1.5356320e-05   4.4690296e-05  -4.3804237e-05   9.4857052e-05   1.5580007e-04   1.0251340e-04  -2.4618849e-04   5.6198216e-04   9.6721786e-05  -7.3086878e-05   1.0136768e-04   1.0183771e-03  -2.0616529e-04  -1.5561914e-04
   2.3635689e-04   6.9844573e-05   1.5388495e-04   2.3929826e-04   8.4995088e-05   9.8307639e-05   1.4527586e-04   7.4874872e-05   4.9082257e-05  -8.0445989e-06   8.5693748e-05   5.4247699e-05   8.8770263e-05  -4.1294570e-05  -1.0715012e-04  -1.6504059e-04  -1.9976721e-06  -1.4636214e-04   1.8589586e-04   1.6521011e-04   1.6731676e-04   9.4785246e-05   7.3867377e-05   4.7195255e-05   1.7555218e-05   1.6604141e-04  -1.8854646e-04  -1.9650470e-04   1.7126056e-04   1.4927653e-05  -3.4469551e-05   1.5023032e-04   8.2726750e-05   2.0213718e-04   9.3996539e-05   3.4009025e-04   3.6418784e-05   8.6634711e-05   6.8299905e-06   1.4338500e-04   1.2729275e-04   5.5458509e-05   1.3811681e-04   3.9999490e-04   8.4896143e-05  -5.6190082e-05   1.3095100e-04  -2.4241857e-05   4.4906374e-05  -8.4937863e-05
   1.8321192e-04   6.1933722e-05   1.1765194e-04   2.2457830e-04   9.7895208e-05   1.0446016e-04   1.2892124e-04  -4.4958892e-05   1.1506927e-04  -1.1314060e-05   8.4796280e-05   3.9787476e-05   9.0876616e-05  -4.4862754e-05  -1.2686437e-04  -1.3644142e-04  -8.1684939e-06  -1.4576096e-04   1.8717894e-04   1.6618009e-04   1.8344597e-04   1.0696470e-04   2.0012598e-05   1.1480517e-04  -1.2079538e-05   1.7606399e-04  -1.1714369e-04  -1.9161055e-04   1.8086454e-05   8.2244143e-05  -3.6979789e-05   1.9233864e-04   2.1714834e-04   2.5346127e-04   4.0119110e-05   1.7077800e-04   3.5431091e-04   3.3353444e-05  -1.8392360e-05   2.8917091e-05   1.3045163e-04   2.8457063e-05   1.1431082e-04  -3.5842814e-04   7.4225871e-05  -3.7648228e-05   1.5267741e-04   1.3014245e-04  -1.8468351e-04   4.6453733e-04
   9.3917661e-05   6.7061672e-05   1.7140034e-04   2.1984507e-04   8.3760431e-05   1.1973463e-04   1.6406846e-04  -1.5292600e-05   2.2048200e-05  -5.8053420e-08   9.8753917e-05   3.5858859e-05   6.4197287e-05  -2.6219766e-05  -1.9439695e-04  -1.8109989e-04   1.9598203e-05  -1.1607972e-04   1.0563578e-04   1.4097511e-04   1.3645974e-04   9.5912874e-05   8.4770931e-05  -2.4029812e-05  -5.1952400e-05   1.1743185e-04  -2.1127729e-04  -1.8188897e-04  -8.9091145e-06   2.0573236e-05  -9.3654467e-05   1.4625372e-04   2.4154126e-04   1.6110981e-04  -8.9375335e-06   2.0506431e-04   2.6687255e-04   4.0558509e-05  -3.4002634e-05   8.5455315e-05   4.4373577e-04   2.8557908e-05  -1.8634116e-04   7.3370861e-04   3.8203027e-05   2.2457640e-05   8.7383029e-05   5.2583855e-05  -7.6394550e-05  -2.3324160e-04
   1.5888942e-04   5.7122303e-05   1.5519941e-04   2.0927067e-04   6.6967994e-05   1.1635725e-04   1.1770094e-04   1.3667252e-05   5.2809983e-06  -2.6680564e-05   8.2740007e-05  -4.9495549e-05   5.8055986e-05   1.2816430e-05  -1.5311594e-05  -1.4401421e-04   5.3660304e-05  -9.4107534e-05   2.4284065e-05   1.2461260e-04   1.2700060e-04   5.3140371e-05   5.8412093e-05  -7.3453994e-05   1.9026613e-05   5.0804603e-05  -2.0728452e-04  -1.2693045e-04   1.8576518e-04   8.7832683e-05   5.2958723e-05   1.4146854e-04   5.6788547e-05   2.0765050e-04   1.2421104e-04   2.0429306e-04   1.6099865e-04   1.9039764e-05   6.1183709e-05   1.1117935e-04   3.8798866e-04   4.5461751e-05  -3.3776498e-05   4.9726531e-04   6.9129936e-05  -1.7677489e-04   1.2299138e-04  -5.1340874e-04  -1.5383992e-04  -5.7838706e-04
   6.4492750e-05   4.5401328e-05   1.4321471e-04   2.0928340e-04   5.9301405e-05   9.3562565e-05   1.1210309e-04   2.3841880e-04  -1.6561404e-05  -3.6469904e-05   9.1138383e-05  -9.9859608e-05   7.4947697e-05   5.3271837e-05   4.4177118e-06  -9.5337244e-05   5.1830153e-05  -1.1036266e-04   1.8102657e-04   1.2399655e-04   1.4341848e-04   8.5393760e-05   5.4590993e-05  -2.2235557e-05  -5.9430378e-05   1.0064321e-04  -9.6938144e-05  -7.5866352e-05  -1.0194199e-04   9.3821705e-05   5.8308124e-05   9.3500516e-05   1.6041576e-04   1.9518955e-04   7.2828509e-05   2.2894501e-04   8.2236569e-05   4.6697489e-05   2.4664892e-05   2.2602214e-04   2.0506655e-04   7.1615868e-05  -2.2999020e-05   1.1325427e-04   8.3987223e-05   1.2109606e-04   1.0481785e-04   1.4613244e-04   1.5174018e-04  -8.2996167e-04
   7.0310518e-05   5.4845375e-05   1.6491192e-04   1.9219857e-04   8.5219166e-05   8.4462030e-05   1.0737019e-04   1.7086405e-04   5.6428475e-05  -8.4921694e-06   1.1948415e-04  -5.6155539e-05   5.7872847e-05   3.2056592e-05   5.0089016e-05  -1.4643010e-04   5.0876279e-05  -9.3464230e-05   1.8560112e-04   1.1353583e-04   1.1954978e-04   4.3328277e-05   7.3416627e-06  -1.2472816e-04   3.9030801e-05   6.1670275e-05  -1.4225623e-04  -5.2863819e-05   4.2562547e-06   3.4794815e-05   8.5981483e-05   1.3209139e-04   1.9108132e-04   1.4440551e-04   1.2198004e-04   2.7568635e-04   6.0731443e-05   6.8275956e-05   2.1888491e-05   1.0722405e-04   1.4888690e-04   1.1895873e-04  -4.4820750e-05  -5.4009164e-05   1.2098888e-04   8.8021014e-05   2.6291091e-05  -5.1981496e-04   3.0320578e-05   3.7492500e-04
   2.9588331e-05   3.4650988e-05   1.2607385e-04   1.6920058e-04   5.1757837e-05   9.0383270e-05   1.4984977e-04   8.2176273e-05  -3.0901074e-06  -1.7902928e-05   9.9580589e-05  -1.0088362e-04   4.2923413e-05   7.0777627e-05   4.9331404e-05  -1.0712427e-04   7.0658702e-05  -1.5050375e-05   3.1528678e-05   9.4496318e-05   1.0738297e-04   5.0315062e-05  -6.1724182e-05  -1.2908985e-05   3.8141225e-05   1.6349264e-04  -5.3285748e-05   3.0464389e-05  -2.1298176e-05   4.1950105e-05   4.7307050e-05   1.4568750e-04   7.1665738e-05   2.5576388e-04   1.1203831e-04   1.4107708e-04   1.3153808e-04   6.5779401e-05   6.6519540e-05   1.6359740e-04   1.2657682e-04  -3.8349841e-05   2.0566890e-04  -3.2152206e-05   1.1282293e-04   2.3247370e-05   1.1840624e-04  -1.4569375e-04   2.1497261e-05   1.4088741e-04
   1.0612163e-04   2.6442340e-05   1.3758917e-04   1.7052592e-04   9.1652822e-05   9.9454992e-05   1.2651719e-04  -1.8535558e-05   6.0370436e-05  -1.1500950e-05   1.0395158e-04  -1.1532725e-04   7.0838687e-05   6.7167624e-05   8.4314677e-05  -1.5887503e-05   6.7253437e-05   3.1907046e-05   7.0606999e-05   7.9183228e-05   1.0549869e-04   2.5304901e-06   1.3905506e-05  -1.0324917e-04   3.3567616e-05   1.2006026e-05  -2.8321889e-05   9.1418871e-05   1.0027683e-04   2.7326098e-05   1.3133332e-04   1.6509229e-04   1.1667535e-04   1.7485891e-04   6.4671927e-05   2.0696897e-04   2.1517099e-04   4.6450277e-05   4.1877563e-05   9.9200799e-05   6.2277279e-05   3.2686439e-05   2.2858437e-04   3.3590879e-04   8.6609776e-05  -4.3495402e-05   6.1164632e-05  -5.8501673e-06   2.5600923e-04   8.0024189e-04
   2.9723800e-05   3.6675541e-05   1.5196069e-04   1.6159049e-04   7.6901269e-05   5.7817662e-05   1.0924081e-04  -1.1764532e-04   3.5889025e-05   2.6256189e-06   1.2656255e-04  -1.0475362e-04   7.2526833e-05   1.1820099e-04   7.7718891e-05  -1.0641385e-04   8.0454229e-05   2.7631291e-05   4.6962523e-05   9.5302341e-05   1.0337251e-04   5.0342430e-07   2.5450343e-05  -4.9274680e-05   7.0537208e-05   1.1146686e-04   4.4035627e-05   7.3678530e-05  -3.7880414e-05   3.4828583e-05   6.9472611e-05   1.4095874e-04   1.4757930e-04   1.5864213e-04   8.8390247e-05   1.3180041e-04   2.0072564e-04   6.0423173e-07   5.3701937e-05   1.5273108e-04   2.9574905e-04  -3.7324000e-05  -2.2433756e-04   2.2710781e-04   8.5033826e-05   1.4652548e-05   1.4268087e-04  -3.8758488e-04   5.2496861e-04   1.0596798e-03
   7.5626551e-05   3.4346533e-05   1.1315499e-04   1.7144006e-04   4.9796090e-05   1.2630163e-04   9.0767819e-05  -2.7600667e-04   1.1760592e-04   2.2914091e-05   1.1233525e-04  -2.4016128e-05   4.9648475e-05   8.6252439e-05  -8.6417776e-06  -3.2387165e-05   6.1037259e-05   9.4766465e-06   2.6198019e-05   1.0491377e-04   1.2880372e-04   7.2429161e-06  -2.4157747e-05  -2.0794734e-05   1.4691590e-04   6.8153116e-05   1.0601625e-05   8.0055368e-05   1.2081915e-04   6.8732894e-05   3.3118111e-05   1.5292372e-04   3.3334238e-04   1.9052942e-04   8.0461374e-05   1.0184577e-04   2.2694112e-04   2.8566401e-05  -9.2226746e-06   2.5370810e-04   3.0270332e-05  -3.9430506e-05  -1.2055979e-04  -2.0429634e-05   6.2832092e-05   1.1773117e-04   1.1533065e-04   6.9230754e-04   3.2085463e-04  -2.9778664e-04
   3.3136070e-07   3.1992087e-05   1.4046847e-04   1.7139288e-04   6.7631299e-05   9.9532117e-05   1.3070958e-04  -6.7474568e-05   1.7491652e-04   4.1672574e-05   1.4240798e-04   3.0081737e-05   7.8602483e-05   1.0404929e-04   6.1314720e-05  -7.5010568e-05   6.1175779e-05   4.1412113e-06   7.2004012e-05   9.8628960e-05   1.1963250e-04   3.0035522e-05  -1.2067299e-04   5.1223145e-05   9.4212759e-05   1.4212678e-04   4.4509863e-05   1.2459925e-04  -2.4164929e-04   8.6683449e-06   4.5464451e-05   1.4646386e-04   2.4453760e-04   1.7112517e-04   1.0429601e-04   2.6277482e-04   2.8571891e-04   5.7352041e-05   2.8596245e-05   1.8132466e-04   1.4880193e-04   1.1323074e-04   1.1895537e-04   7.6587958e-06   1.2499496e-04   3.4314100e-04   7.6038094e-05  -2.6831072e-04   3.4786074e-04   5.7147653e-04
  -6.1713057e-05   1.1521720e-05   1.4312437e-04   1.3794977e-04   4.8275197e-05   5.0092731e-05   1.2927008e-04  -2.2968996e-04   5.6875644e-05   3.8557580e-05   1.1261604e-04   1.7281460e-05   8.1520353e-05   1.0845719e-04   1.6231288e-05  -7.7958015e-05   6.7156667e-05  -1.7013172e-05   1.0594374e-04   8.6896544e-05   1.1921608e-04   7.0630831e-06   5.3744301e-05   6.7663037e-05   1.1087079e-04   1.5602754e-04  -1.7761828e-05   9.4771836e-05   3.2956148e-05   1.0720496e-04   1.1073342e-04   8.5989785e-05   1.4955101e-04   1.3861856e-04   1.3104502e-04   2.2344208e-04   2.7922011e-04   2.2873854e-05  -6.6945053e-05   2.3145168e-04   3.0567855e-05   5.5245368e-05   2.8691039e-04   3.9502626e-04   1.3391308e-04   1.7831616e-04   1.6613420e-04  -8.0732534e-05   6.1199804e-05   3.9921212e-04
  -4.1909596e-05  -6.5503591e-06   1.7355218e-04   1.2638327e-04   5.9153706e-05   1.2602836e-04   1.1891953e-04   3.1195077e-07   8.3229344e-05   3.4989615e-05   1.1582810e-04  -9.6039832e-07   9.2594659e-05   1.4560123e-04   8.4154664e-05   1.7648023e-05   1.1148651e-04  -1.8097235e-05   1.1301282e-04   7.4477459e-05   1.2677253e-04   3.9402312e-05   5.0371149e-05   4.3595541e-05   6.3445965e-05   7.1835617e-05   1.9644176e-04   7.9487152e-05   1.7110833e-04   1.0367753e-04   1.0795327e-04   2.6845262e-05   8.1420847e-05   8.7368819e-05   7.3363066e-05   2.9805393e-04   3.0185247e-04   2.3825534e-05   6.4209344e-05   2.5734841e-04   3.1642249e-04   2.2143819e-05   9.2769667e-05   3.4591714e-05   1.5439431e-04   1.7780261e-04   8.4974301e-05   3.2709519e-05   9.0265365e-07   7.0413941e-04
  -3.6343430e-05  -1.9282303e-05   1.5912610e-04   7.4832693e-05   3.5378605e-05   1.1216413e-04   1.6892409e-04  -5.9299411e-05   1.1243703e-04   3.8662900e-05   1.3121442e-04   1.8483573e-06   6.3655876e-05   1.1198432e-04   4.2785719e-05   7.0525330e-06   1.1820711e-04  -4.5554472e-05   1.0407768e-04   3.6198555e-05   6.9904789e-05   2.0894749e-05  -3.5294586e-05   1.0790341e-04   1.1745011e-04   1.1382232e-04   1.3221666e-04   1.3195782e-04   4.1848638e-05   6.4527390e-05   1.1672448e-04  -1.2770462e-04   6.3457264e-05  -2.0108713e-05   6.2608429e-05   3.9011102e-05   2.1057537e-04   2.6207394e-05  -1.9938912e-05   2.2616012e-04   2.3194093e-04   1.3529469e-04   5.0386374e-05   4.4362311e-04   1.7885334e-04  -2.1213277e-04   9.1908929e-05  -4.3630053e-04   3.5118635e-04   7.1802328e-04
