  -4.5403824e-04  -2.2606639e-04  -1.7952791e-04  -2.8913314e-04  -7.1180497e-05  -5.5668701e-05  -3.0178788e-05   2.0116048e-04  -3.8593429e-05   3.1517055e-05  -8.5963708e-05  -3.6089079e-04  -1.4464041e-04  -1.5654771e-04  -7.5059601e-05  -4.7838337e-05  -3.0785188e-04   4.2802261e-04  -2.2492182e-04  -2.2864522e-04   3.9391546e-04  -2.5976027e-04  -2.6003952e-04  -6.3173071e-04  -2.2515109e-04  -5.4439035e-04  -2.7965987e-05  -8.1657854e-06   3.7994451e-04  -4.5756460e-05  -3.7604565e-04   2.9332628e-05  -2.3513653e-04  -3.0078783e-04  -2.8671176e-04  -1.4189126e-04   1.6788831e-04  -5.7956135e-05  -1.0651245e-04  -2.3463431e-04  -2.9083536e-04  -7.6756965e-05  -1.7100865e-04  -9.7622903e-04  -7.2506482e-05  -1.3213704e-04   3.3512572e-04  -2.5226804e-04  -4.1670495e-04  -2.5243647e-04
  -2.7822438e-04  -1.5745260e-04  -1.7301302e-04  -2.7452607e-04  -3.1950502e-05  -1.0711564e-05   3.7510192e-05   1.6278600e-04   2.2522328e-04   2.6794072e-04   8.2966537e-05  -1.0394148e-04  -1.0979750e-04  -3.4202705e-04   1.2686893e-05  -1.4788982e-04  -3.8289576e-04   4.0253770e-04   2.0873661e-06  -1.9419503e-04   4.6388200e-04  -1.7518926e-04  -2.7758448e-04  -5.3009723e-04  -3.8599494e-04  -5.3000852e-04  -1.2042913e-04  -6.3319327e-05   3.3250020e-04  -8.0881618e-06  -5.0112430e-04   2.7108910e-05  -3.5429053e-04  -2.4526563e-04  -2.5121201e-04  -2.3828336e-04   1.1553190e-04  -5.6189303e-05  -1.6958668e-04  -7.4688462e-05  -2.8762184e-04  -1.4262200e-04   6.0594303e-04  -2.9267362e-04   4.6422745e-05   9.8921200e-06   1.9180360e-04   1.8491173e-04  -6.5175560e-04  -6.0787331e-04
  -4.1529621e-04  -1.8630504e-04  -2.4139961e-04  -2.8704174e-04  -5.3894379e-05  -1.4815707e-05   5.0667495e-05  -1.0991985e-04   3.4599430e-05   1.4086862e-04  -1.6151906e-05  -1.4417118e-04  -1.8660813e-04  -3.3585040e-04  -8.0587408e-05  -8.6197455e-05  -4.7001970e-04   3.5254229e-04  -1.7922628e-04  -2.8126419e-04   4.5390122e-04  -1.6395882e-04  -3.6562327e-04  -4.7403650e-04  -4.4658003e-04  -6.5029919e-04  -1.9567255e-04  -1.8887207e-05   2.6969670e-04  -7.1845730e-05  -6.3146587e-04  -8.1489241e-05  -3.2016533e-04  -2.8724267e-04  -3.0660318e-04  -1.9710047e-04   1.2953387e-04  -1.1566729e-04  -1.2799345e-04  -2.8197569e-04  -2.5483398e-04  -2.7917209e-04  -7.3063951e-05  -4.5194593e-04  -9.2792528e-05  -3.8630838e-04  -7.1512968e-06  -4.5423076e-05  -6.4050045e-04  -9.3768140e-05
  -3.6511471e-04  -2.3840708e-04  -2.4345593e-04  -3.3128148e-04  -2.8260905e-05  -5.2234918e-05  -8.1794724e-06   1.0812325e-04   1.3418864e-04   2.3635672e-04   1.5650496e-05  -7.0145652e-05  -2.1062643e-04  -3.3157936e-04  -3.6689416e-05  -1.4332731e-04  -4.4991384e-04   3.6767445e-04  -9.7799639e-05  -2.8976647e-04   4.6958090e-04  -1.8377145e-04  -3.0743890e-04  -4.8535009e-04  -3.9572420e-04  -5.5459666e-04  -1.9590204e-04  -4.9784823e-05   1.3689123e-04  -2.8772243e-05  -6.0605269e-04  -2.0763639e-05   3.5774233e-06  -2.1851467e-04  -2.7028096e-04  -2.1035923e-04   1.7233290e-04  -7.0766990e-05  -1.3485993e-04  -1.5796980e-04  -2.0158329e-04  -4.1594307e-05   8.4353822e-05  -5.3481437e-04  -5.8452126e-05  -2.7359193e-04   1.3433681e-04  -5.5780496e-05  -2.8226766e-04  -9.8960684e-04
  -4.2610400e-04  -1.5074150e-04  -2.4114453e-04  -2.6342092e-04  -1.5089769e-05  -7.8274177e-05   4.5924048e-06   4.6595651e-05   1.6647654e-04   2.7110585e-04   7.9666252e-06   4.9198145e-05  -1.8020548e-04  -4.3223688e-04  -7.0781032e-05  -5.3651660e-05  -5.1245926e-04   3.8090412e-04  -1.7283592e-04  -2.6179865e-04   5.1326869e-04  -1.5234442e-04  -2.1917316e-04  -4.1498060e-04  -5.1820191e-04  -6.2678696e-04  -1.4243978e-04  -3.7959569e-05   2.2706226e-04  -6.5455140e-05  -6.5109693e-04  -8.6719680e-05  -1.3093089e-04  -3.0288732e-04  -2.8504489e-04  -3.4970118e-04   1.1110844e-07  -1.1370244e-04  -1.2718249e-04  -7.8174438e-05  -4.3934496e-04  -2.6708891e-04   1.8921608e-04   4.8892910e-04  -1.7677165e-04  -4.8541729e-04   8.6402033e-05  -1.5294313e-04  -8.0303167e-04  -9.1453758e-04
  -4.2334021e-04  -2.6609219e-04  -2.8235567e-04  -3.2882241e-04  -8.8227440e-05  -1.6369858e-04  -1.0928338e-04  -5.9053076e-05  -1.3897123e-04   4.9309441e-05  -1.9826087e-04  -1.2110968e-04  -2.9114826e-04  -4.7321391e-04  -3.9491024e-05  -5.7818383e-05  -5.6204310e-04   3.7848295e-04  -2.8963934e-04  -3.3858037e-04   4.6694116e-04  -1.5048718e-04  -3.8482115e-04  -4.2593275e-04  -5.1865913e-04  -7.3548988e-04  -2.0027120e-04  -1.4061215e-05   1.0865091e-04  -5.0917413e-05  -7.2012062e-04  -8.5984815e-05  -2.8976920e-04  -3.5479924e-04  -3.0323520e-04  -2.4121576e-04  -2.2950622e-05  -1.1000227e-04  -1.1723494e-04  -1.4078344e-04  -5.5645546e-04  -1.7020140e-04   8.1962062e-06  -6.3897588e-04  -2.3287370e-05  -6.4892485e-04   1.3954476e-04   3.0655196e-04  -3.4934576e-04  -1.1843509e-03
  -4.4971818e-04  -1.1520414e-04  -1.8661525e-04  -2.3062978e-04  -4.1364059e-05  -1.1524849e-04   2.5298315e-05  -3.9300049e-04   1.5798402e-04   3.1665585e-04   3.2509059e-05   2.5249017e-05  -2.0471911e-04  -3.9034331e-04  -7.2391638e-05  -1.4274508e-04  -4.3349652e-04   3.7308695e-04  -1.5909494e-05  -2.9189361e-04   5.4754928e-04  -1.2470498e-04  -2.6153622e-04  -3.9750707e-04  -4.5385279e-04  -6.7205989e-04  -2.7922183e-04  -4.2075517e-05   1.2766522e-04  -4.1217470e-05  -5.3814286e-04  -5.3746844e-06  -1.6454834e-04  -2.5273423e-04  -3.1395454e-04  -1.7735285e-04   1.2265258e-04  -9.8993805e-05  -1.4421118e-04  -1.7855168e-04  -3.3769463e-04  -2.2380972e-04  -1.3358502e-04   3.5839193e-04  -1.6857711e-04  -3.5024760e-04   9.6147349e-05   2.3277829e-04  -8.2944415e-04   8.8498113e-05
  -3.8679989e-04  -2.1370949e-04  -1.9970576e-04  -3.0524735e-04  -1.2762706e-04  -9.9325000e-05  -2.9568855e-05  -2.7732193e-04  -7.5651726e-05   1.2869299e-04  -4.9547449e-05  -1.4422988e-04  -2.9492765e-04  -3.4791173e-04  -1.4098376e-05  -1.6123588e-04  -4.2227298e-04   3.3905616e-04  -2.2900193e-04  -3.5737539e-04   5.1678071e-04  -1.6034958e-04  -3.6065112e-04  -4.2787034e-04  -4.3138312e-04  -6.9781195e-04  -2.1157540e-04  -3.9690214e-05   1.2336877e-04  -1.2302937e-04  -4.7608023e-04  -6.7731984e-05  -2.1401880e-04  -3.8421195e-04  -3.6599659e-04  -4.5019938e-04  -1.9341149e-05  -2.0320428e-04  -2.1642842e-04  -2.7787461e-04  -3.8040627e-04  -4.1260981e-04   3.0570515e-04  -2.5277346e-04  -2.8197971e-04  -6.5671600e-04   1.2907419e-04   7.6875484e-05  -7.8917114e-04  -2.7856836e-04
  -2.9851816e-04  -1.9780741e-04  -1.9408455e-04  -3.1162825e-04  -6.6578061e-05  -5.3680382e-05  -3.2438467e-05  -6.0097027e-05   3.7447779e-05   2.7733101e-04   3.7354988e-05  -1.4573298e-05  -3.0151961e-04  -3.3879568e-04  -5.8623926e-05  -2.0474174e-04  -3.9039113e-04   3.5891068e-04  -2.2861382e-04  -3.1210235e-04   5.4609129e-04  -9.7270160e-05  -1.8752350e-04  -3.9720419e-04  -3.5079601e-04  -5.1009341e-04  -2.5040514e-04  -7.2109382e-05   6.0512109e-05  -6.0563645e-05  -3.4486732e-04  -1.8504408e-06  -2.0868827e-04  -2.6410309e-04  -3.1959487e-04  -2.4040333e-04  -5.8193840e-05  -1.5087493e-04  -6.5103275e-05  -2.0819406e-04  -3.9748786e-04  -2.3357093e-04   3.2316044e-04  -6.1550946e-04  -1.7355208e-04  -2.5405255e-04   2.4117494e-04  -5.0654128e-04  -4.2284525e-04  -7.1567070e-04
  -4.0647492e-04  -1.4801334e-04  -1.6382274e-04  -2.4903819e-04  -1.0689101e-04  -4.6589466e-05  -6.8726651e-05  -1.8258045e-04   5.0068588e-06   2.2308649e-04   5.7520032e-05  -5.7494999e-05  -2.5975786e-04  -3.2554771e-04   4.3275941e-05  -1.6347140e-04  -3.1777259e-04   3.2917337e-04  -1.8622723e-04  -3.0384827e-04   5.5915012e-04  -6.8015572e-05  -2.1837774e-04  -2.6716432e-04  -3.0908972e-04  -5.1551295e-04  -5.7782014e-05  -3.4260112e-05   9.8852608e-05  -1.1305206e-04  -3.1260561e-04  -4.5352834e-05  -2.3528955e-04  -2.4588848e-04  -3.5498329e-04  -1.9662904e-04  -8.0737846e-05  -1.7168948e-04  -1.3910681e-04  -2.0064673e-04  -2.8903360e-04  -3.2158286e-04   8.0346537e-04  -4.0703488e-04  -3.5141315e-04  -3.5003878e-04   2.2214228e-04  -5.7609628e-05  -7.3294615e-04  -7.1482471e-04
  -4.5646782e-04  -2.6776953e-04  -1.4499818e-04  -3.3995265e-04  -1.6505629e-04  -1.4672634e-04  -1.3053710e-04   1.2793341e-04  -2.5061908e-04  -4.4133281e-05  -8.9360634e-05  -2.7279052e-04  -3.9434229e-04  -1.8466015e-04  -5.8884627e-05  -2.2268371e-04  -2.9333431e-04   2.9929675e-04  -3.7974064e-04  -3.8086032e-04   4.9514743e-04  -1.4097396e-04  -3.6590989e-04  -4.0066804e-04  -2.4142105e-04  -4.6534586e-04  -2.4539648e-05  -6.0900104e-05   1.3924783e-04  -8.6402950e-05  -2.8175645e-04  -2.7725382e-05  -1.5102954e-04  -2.7745980e-04  -3.7697656e-04  -2.1136193e-04   1.6130970e-04  -2.1381277e-04  -8.3891115e-05  -2.0175392e-04  -1.7278180e-04  -2.9897637e-04   3.1901550e-04   2.9324132e-04  -2.3300396e-04  -5.0954171e-04   3.4010754e-04  -9.7104567e-05  -3.8750240e-04  -1.3222244e-03
  -3.5843812e-04  -1.1359429e-04  -8.3176179e-05  -2.1702968e-04  -9.2209557e-05  -4.1069816e-05  -1.1871834e-05  -1.0816896e-04   1.0709804e-05   2.5485913e-04   1.3730994e-04   3.6295223e-05  -2.6478243e-04  -1.9607124e-04  -1.9146284e-04  -2.5758537e-04  -2.6612493e-04   3.1563448e-04  -1.4219061e-04  -2.2259619e-04   5.8891118e-04  -3.8732724e-05  -2.1205063e-04  -2.2744793e-04  -1.9426805e-04  -3.8323703e-04  -2.4188112e-04  -2.1534332e-05  -5.7942478e-05  -7.9032056e-05  -2.6826482e-04  -1.0814638e-06  -1.6041652e-04  -2.0193121e-04  -3.0982922e-04  -2.7109153e-04  -7.2542352e-05  -2.0069348e-04  -1.2219077e-04  -1.5856209e-04  -2.1427489e-04  -3.4375905e-04   2.1640940e-04  -2.8732649e-04  -2.2519278e-04  -3.3160191e-04   3.7167725e-04   2.6244536e-05  -4.1773010e-04  -9.6952467e-04
  -2.9084811e-04  -1.7638619e-04  -7.0351911e-05  -2.4019818e-04  -1.0279070e-04  -3.4095225e-05  -7.7951758e-05  -1.6423337e-04  -1.3542027e-04   3.8561557e-05   4.8647664e-05  -1.5945434e-04  -3.2488490e-04  -1.4148632e-04  -2.7844450e-05  -1.9469856e-04  -2.3363202e-04   2.7679018e-04   1.6256601e-05  -2.6176503e-04   5.4598082e-04  -7.4877811e-05  -2.3377911e-04  -3.9451630e-04  -2.3935219e-04  -4.8435564e-04  -1.5705009e-05  -2.9122753e-05   5.6013330e-05  -1.2592484e-04  -2.2253190e-04  -6.6731816e-05  -2.7507832e-04  -3.1136040e-04  -3.9285474e-04  -3.2102707e-04   4.5049960e-06  -3.0590993e-04  -1.7957014e-04  -2.0631132e-04  -2.0906961e-04  -4.3197369e-04   6.1530597e-04  -5.9820245e-06  -3.6683565e-04  -1.7506552e-04   2.1581887e-04  -5.8277877e-04  -6.3227728e-04  -1.1041734e-03
  -2.5943748e-04  -2.3700239e-04  -3.1818196e-05  -3.0449883e-04  -1.0355451e-04  -4.0370083e-05  -5.4428161e-05   1.1649618e-04   4.3695105e-05   9.6065567e-05   1.1405358e-04  -1.5994726e-04  -3.2704152e-04  -1.4352436e-04   1.3099729e-05  -2.2746576e-04  -1.8619563e-04   2.3676846e-04  -1.2518010e-04  -2.1329045e-04   5.4083305e-04  -2.6339765e-05  -2.4532029e-04  -2.5565713e-04  -6.1782062e-05  -3.4606582e-04   3.8695787e-05  -4.8083381e-05   1.5824902e-05  -7.7299861e-05  -1.8392460e-04  -2.3857954e-05  -1.5190573e-04  -1.8972121e-04  -2.5351989e-04  -2.6415687e-04  -2.9090816e-05  -2.7079109e-04  -1.1450498e-04  -1.1773126e-04  -9.4670722e-05  -3.2224410e-04   2.0022842e-04  -3.2386684e-04  -2.4394513e-04  -5.2113540e-04   4.9048697e-04   4.6912645e-04  -8.1365713e-04  -1.3460447e-03
  -1.9571060e-04  -1.0437622e-04   6.0599632e-05  -2.0603296e-04  -5.1250441e-05  -2.0918516e-05  -2.2211839e-06  -4.3922195e-05   4.9393424e-05   1.2691904e-04   1.8040134e-04  -2.7661386e-05  -2.7291608e-04  -1.6123898e-04  -1.6348311e-05  -1.8770668e-04  -2.0345522e-04   2.4557911e-04  -3.5499321e-05  -1.2196011e-04   5.7085830e-04   5.5024346e-05  -1.4617604e-04  -2.6038627e-04  -1.9208968e-04  -2.5248135e-04  -1.1840864e-04  -5.3625183e-05  -2.4621867e-04  -1.0337361e-04  -1.4945172e-04  -7.0652015e-05   1.0333904e-05  -2.0599585e-04  -2.6528191e-04  -2.2171602e-04   2.4301856e-04  -2.7187818e-04  -1.4325706e-04  -1.8238513e-04  -3.4862029e-04  -3.0830276e-04   3.7533138e-04  -3.4967452e-04  -2.2329514e-04  -3.1161605e-04   4.1839306e-04  -2.5633114e-04  -6.8945886e-04  -9.2492870e-04
  -2.4487593e-04  -1.8518412e-04   1.3883543e-05  -2.3387549e-04  -7.7013967e-05  -2.4717941e-05  -6.5943146e-05   2.3713459e-04  -1.8575320e-04  -1.0216071e-04   3.3418935e-05  -1.8963954e-04  -3.0053835e-04  -1.0396363e-04   5.9770168e-06  -1.9465211e-04  -2.4985295e-04   2.1193530e-04  -2.3360750e-04  -1.7555423e-04   5.2346621e-04   1.5182503e-05  -1.5828536e-04  -2.9860361e-04  -1.2562129e-04  -3.0464097e-04  -1.7851469e-04  -3.1331027e-05  -1.7612966e-04  -1.9454335e-04  -2.1483394e-04  -1.4513773e-04  -9.5910154e-06  -3.1146986e-04  -3.6525197e-04  -2.5042912e-04   5.6746816e-05  -2.9598322e-04  -1.5188096e-04  -2.5173931e-04   1.3750218e-04  -3.4415504e-04   3.9772439e-04  -5.0128018e-04  -3.0310769e-04  -3.2471362e-04   4.5974087e-04   4.3213696e-04  -2.4459971e-04  -9.0319756e-04
  -1.7007611e-04  -8.1183549e-05   1.1010054e-04  -1.6092387e-04  -3.8619305e-06   1.4399418e-05   2.8504026e-05  -4.6695452e-05   1.5243754e-04   1.7275356e-04   2.1093168e-04   1.3671725e-04  -1.6790353e-04  -1.9720971e-04   3.8273760e-05  -2.1278362e-04  -2.8940817e-04   2.6699156e-04  -3.4389814e-05  -1.7635102e-05   5.9187855e-04   1.0905263e-04  -4.4213768e-05  -2.7517144e-05  -2.5976775e-04  -1.6254556e-04  -2.8568515e-04  -4.8551708e-05  -1.0855157e-04  -1.4293179e-04  -2.9024275e-04  -6.0411268e-05   6.4937908e-06  -1.3781899e-04  -2.3805884e-04  -1.7484892e-04   7.1805807e-05  -2.4216418e-04  -6.2859181e-05  -3.0467301e-04   3.9031136e-05  -3.2986703e-04   3.8152435e-04   4.1636324e-04  -1.7502008e-04  -3.1853007e-04   4.5307007e-04   6.7136000e-04  -4.9876276e-04  -3.5475954e-05
  -2.1414390e-04  -6.3398169e-05   1.5335208e-04  -1.1112113e-04  -1.5320622e-05   4.8632981e-05   3.9522172e-05  -5.6151690e-05   2.0621743e-05   2.7223507e-05   1.5183685e-04  -1.1045674e-05  -1.6660527e-04  -1.6594610e-04   3.5910656e-05  -1.3886289e-04  -2.0681505e-04   2.3912988e-04  -3.3804867e-05  -9.5152391e-06   5.6530535e-04   1.1882785e-04  -8.2777369e-05  -7.7138699e-05  -1.2664784e-04  -1.5958829e-04  -1.5770007e-04  -7.1759103e-05  -1.0778945e-04  -1.4872220e-04  -2.0905471e-04  -6.9958471e-05   9.0168265e-05  -1.5074220e-04  -3.2263072e-04  -5.6488509e-05   2.1091239e-05  -3.0235184e-04  -1.1526632e-04  -2.2237733e-04  -9.0182795e-05  -3.2444685e-04   8.0488418e-04  -6.6400575e-04  -2.6845976e-04  -4.0788727e-04   3.6387099e-04   4.8168964e-04  -1.6604897e-04  -9.7929290e-04
  -1.6760705e-04  -1.8194965e-04   6.5531465e-05  -1.9280741e-04  -9.0244706e-05  -1.3299174e-04  -1.3201132e-04   1.5516697e-04  -1.4926337e-04  -1.6835309e-04  -9.6063031e-06  -2.0113128e-04  -2.7257053e-04  -8.7802851e-05  -5.3118787e-05  -8.0187747e-05  -2.1422932e-04   2.6205485e-04  -6.7922338e-05  -7.1873917e-05   5.1445479e-04   1.0720320e-04  -5.9797869e-05  -1.4025535e-04  -7.2850889e-05  -1.6815856e-04  -1.0386733e-04  -6.0381797e-05  -1.3439737e-04  -5.7993544e-05  -1.7192207e-04  -1.5906651e-05   5.1220501e-05  -1.5905817e-04  -2.3927136e-04  -4.6537807e-05  -2.5730124e-06  -2.8733347e-04  -1.5076225e-04  -1.8172547e-04   4.0197327e-05  -1.9488278e-04   7.3722831e-04   4.0323343e-04  -2.2791282e-04  -9.5201998e-05   5.5055221e-04   5.2700914e-04  -2.8902630e-04   8.7667198e-04
  -1.4318190e-04  -6.8136984e-07   2.1163272e-04  -4.8104383e-05   4.1512973e-05   1.4635276e-04   8.8802961e-05  -1.0204918e-04   1.3992957e-04   1.2540618e-04   2.4387187e-04   4.4772652e-05  -9.4637180e-05  -3.4986431e-05   9.3832736e-05  -1.1813936e-04  -1.4932542e-04   2.6634437e-04   1.5565227e-05   1.0088370e-04   6.0014875e-04   1.8238640e-04   3.5178064e-06  -4.6522946e-05  -3.9140614e-05  -7.9488127e-05  -1.2169778e-04  -6.6969849e-05  -8.3307736e-05  -5.2473515e-05  -1.7221848e-04   1.7026387e-05   3.7154408e-05  -1.6571120e-04  -1.7041952e-04  -2.0467172e-05   9.8330936e-05  -2.4718203e-04  -9.1718284e-05  -2.2107751e-04   1.2961838e-04  -1.4673964e-04   2.6518677e-04  -4.4388158e-04  -1.3241947e-04  -1.8726163e-05   5.6201476e-04   1.1025292e-03  -2.7578563e-04  -1.0173660e-04
  -9.5935597e-05  -5.4045755e-05   2.3164939e-04  -5.1439900e-05   3.1246037e-07   4.4741573e-05   5.3106785e-05   8.0060636e-05  -1.0378711e-04  -4.2093143e-05   1.2853123e-04  -9.2083828e-05  -1.6668085e-04  -2.5294497e-05  -2.2369086e-05  -4.9678532e-05  -1.4724529e-04   2.7075715e-04   5.4038296e-06   6.1557097e-05   5.5925705e-04   1.5921873e-04  -1.9478441e-05  -8.3644649e-05  -6.2937623e-05  -1.9416559e-04  -2.8517765e-05  -8.3219138e-06  -7.2161740e-05  -1.4214452e-04  -1.4928098e-04  -9.2495975e-06  -1.0001371e-04  -1.5126979e-04  -3.0541213e-04  -1.5311282e-04  -3.4645353e-05  -2.4082007e-04  -1.4873507e-04  -1.9570353e-04  -6.4758875e-05  -2.7252475e-04   8.8448822e-04  -2.1893923e-04  -2.2504300e-04  -3.0670821e-04   5.0715479e-04   3.8696098e-04  -8.8853500e-04   1.8782335e-04
  -2.7168848e-04  -1.8140540e-04   1.8098015e-04  -1.2988340e-04  -6.1110700e-06   2.8506120e-05  -1.2820849e-05  -8.2513856e-05   1.0038881e-05  -1.9006764e-05   1.4371476e-04  -1.2111424e-04  -1.7045056e-04   1.8183734e-04  -1.0799964e-04  -6.3885367e-05  -9.9297860e-05   2.8156242e-04  -8.6361782e-05   5.4788929e-05   5.1593431e-04   1.6699609e-04   2.5671467e-05  -1.5469037e-04  -6.7707442e-05  -2.7043836e-06  -1.5147278e-04  -2.0268875e-05  -2.6562662e-04  -9.3863477e-05   6.6069340e-05   7.2363771e-05   1.2136940e-04  -9.5538162e-06  -1.5183334e-04  -2.0236788e-05   1.5769269e-04  -2.6248093e-04  -4.2933229e-05  -1.2905289e-04   3.7955804e-04  -5.4025473e-05   1.0325797e-03  -4.2754598e-04  -7.8963356e-05   3.0390386e-04   6.6932064e-04   5.9764629e-04  -2.1505156e-04  -8.7533583e-04
  -1.2587718e-04   1.9452857e-05   3.1428860e-04   2.1155702e-05   3.8069771e-05   1.6113475e-04   1.7851105e-04   1.7427804e-04   2.7367918e-04   1.0659310e-04   2.9130781e-04  -9.1909220e-05  -9.0113717e-05   1.8632888e-04   1.0296759e-04  -1.1301935e-04   1.4129251e-05   2.7758337e-04   3.7598351e-04   1.8320560e-04   5.5626029e-04   2.5921912e-04   1.2850725e-04  -5.5044193e-06   1.2587843e-04   1.0917066e-04  -7.1252420e-05  -4.9909653e-07  -6.8748232e-05  -3.9355800e-05   4.2040829e-05   5.5808297e-05   2.2156352e-04  -3.2846063e-05  -8.7705921e-05   1.4095972e-04   1.0787325e-04  -1.9882024e-04  -3.0300978e-05  -1.1249946e-04   4.0859345e-04  -5.3596606e-05   6.0316169e-04   3.7871758e-04  -7.7622564e-05  -3.7566057e-05   6.8562111e-04   7.3654170e-04  -3.9348804e-04   1.5612312e-04
  -6.9519927e-05  -3.9573235e-05   2.9719490e-04   1.8110102e-05   2.4958748e-05   8.9370755e-05   9.3496477e-05  -6.3057028e-05   3.0445287e-06  -4.6166970e-05   1.5684888e-04  -1.3575061e-04  -1.3103022e-04   9.1211070e-05   5.4050979e-05  -9.5867821e-05  -5.8318714e-05   3.0876446e-04   7.6576551e-05   1.6505996e-04   5.2102405e-04   2.4413269e-04   1.1612540e-04   4.5388537e-05  -4.8623173e-05  -1.7350532e-05  -3.0551146e-05   1.7260203e-07   7.0257403e-05  -6.4894448e-05   1.2903255e-05   2.1935279e-05   2.3424016e-04  -5.0119117e-05  -7.2880059e-05   5.1590730e-05  -1.6989769e-06  -2.2210792e-04  -2.1278257e-04  -2.1782247e-04   1.8281490e-04  -1.8572599e-04   1.1294122e-03   6.8070868e-04  -2.0275248e-04  -1.9934170e-04   5.0664193e-04  -1.6261224e-04  -3.8149886e-04  -4.5213092e-04
  -9.6880030e-05  -1.1691628e-04   2.3379270e-04  -6.8787822e-06   4.2985474e-05   1.2373437e-04   6.4390413e-05  -3.3560624e-05   1.4992800e-04   4.9712144e-05   1.9761383e-04  -6.0905353e-05  -1.0186437e-04   9.6701282e-05   1.1880833e-04  -1.0460477e-04  -5.4950517e-05   3.1109268e-04   1.9562458e-04   1.9204963e-04   4.9488991e-04   2.0590195e-04   1.4222902e-04   4.6515488e-05  -1.9141475e-05   1.0140953e-04  -5.1035189e-05  -2.7549204e-05   1.6013438e-04  -4.4933156e-05  -2.9330960e-05   5.5699293e-05   3.0156181e-04  -1.9150144e-05  -7.9441837e-05   2.4087173e-04   1.4268885e-04  -1.8461015e-04  -7.4887527e-07  -7.0436334e-05   6.0946832e-04   1.1891608e-04   1.2228411e-03   3.8298156e-05  -1.7330618e-05  -2.0653395e-05   6.9668418e-04   5.0076167e-04  -7.9745724e-04  -2.9969774e-04
  -7.9545120e-05   6.8991554e-05   3.3622686e-04   1.5185949e-04   1.1156491e-04   2.5272477e-04   2.2979557e-04   1.7014622e-04   3.4505769e-04   1.7175007e-04   3.0004262e-04   6.2002968e-05   1.0173260e-05   9.1268434e-05   1.3463988e-04  -6.4698877e-05  -3.7978018e-05   3.3977543e-04   2.8002707e-04   3.3803994e-04   5.3226174e-04   2.7452182e-04   1.4240730e-04   1.4305607e-04   5.1632692e-06   1.9382732e-04   1.0992632e-04   1.1447364e-05  -5.1741856e-05   9.9268914e-07  -3.4839828e-05   1.1957254e-04   2.2349876e-04   3.3908802e-06   2.8228656e-05   2.2334108e-04   2.9334342e-04  -1.3682913e-04  -2.1221260e-05  -1.2947920e-04   4.2492666e-04  -4.8604685e-05   6.9201947e-04   9.5844269e-05   2.6658845e-05   4.7592667e-04   6.1567291e-04   1.8271046e-04  -4.7885589e-04   6.1178289e-04
  -1.0640978e-04   7.2315652e-06   3.5413486e-04   1.2462786e-04   1.2518032e-04   1.6015550e-04   1.6347927e-04   2.9385868e-05   2.1320295e-04  -9.7580623e-06   1.5484166e-04  -4.8868715e-05  -2.6267529e-05   3.0638123e-05   4.3331525e-05   7.9195952e-06  -1.2351884e-04   3.4663954e-04   1.6353010e-04   2.8282270e-04   4.7920120e-04   2.8536256e-04   5.4704367e-05   1.2345683e-04  -2.5471298e-05   6.7332687e-05  -7.2478622e-05  -3.4043380e-05   8.2586223e-05  -5.2828698e-05  -1.3564022e-04   6.8272740e-05   3.8326508e-04  -5.0238308e-05  -7.8917794e-05   1.1252821e-04   5.2171803e-05  -1.8375528e-04  -1.1150733e-04  -1.3906779e-04   2.2188872e-04  -1.8030740e-04   1.3014623e-04  -1.8105637e-04  -5.5299777e-05  -1.7808948e-04   5.1670265e-04  -1.2429064e-04  -7.2690618e-04  -6.4367597e-04
   6.8182249e-05  -1.6066408e-06   2.8357984e-04   1.4101848e-04   1.3581314e-04   2.4614934e-04   2.0837737e-04   1.8651917e-04   2.8790563e-04   1.2750539e-04   2.0106405e-04   3.0749263e-05   2.9567638e-05  -7.0670241e-05   1.0766911e-04   7.2123272e-05  -1.9152848e-04   3.2461525e-04   2.6752005e-04   3.1912592e-04   4.6813313e-04   3.1378007e-04   1.3375745e-04   9.4460265e-05  -1.3410366e-04   1.1263769e-04  -1.2725907e-04  -1.8564053e-05   1.4595017e-04   2.0046939e-05  -2.0495820e-04   8.4511346e-05   3.1065260e-04   1.8707164e-05   1.4452940e-04   2.8487534e-04   3.8294747e-04  -8.1805054e-05   1.9373347e-05   2.3435972e-05   2.1322939e-04  -4.5296041e-05   7.5391994e-04  -7.5086384e-05   1.5078830e-04  -4.2393134e-05   5.8093318e-04   6.7016331e-04   5.5313203e-04  -5.1129964e-04
  -5.0321654e-05   1.1454614e-04   3.6552650e-04   2.5713703e-04   1.9234770e-04   2.5712376e-04   3.1911975e-04   1.5478923e-04   2.5547700e-04   1.7930097e-04   2.3935628e-04   4.7051024e-05   7.3840194e-05  -4.5944344e-05   1.4920463e-04   5.7386369e-05  -1.3410841e-04   3.4686306e-04   3.4653119e-04   3.7939363e-04   4.6974761e-04   3.5761952e-04   7.9966398e-05   3.5455148e-05  -7.0890666e-05   8.4192805e-05  -7.2907496e-05  -1.5441474e-05  -9.9486664e-05   3.8695751e-05  -1.5668229e-04   1.1296880e-04   1.5292803e-04   3.8564885e-05   1.5283944e-04   2.4491971e-04   2.2349467e-04  -6.8844492e-05  -1.1005620e-04  -5.0337094e-05   4.1970247e-04   2.8275053e-05   6.4360508e-04   6.8201387e-04   4.8939241e-05   2.7969634e-04   5.7156279e-04   4.7571193e-05  -4.3702347e-04  -3.5061190e-04
  -1.3370413e-04   1.9102632e-05   2.9770966e-04   2.0282317e-04   1.6627680e-04   2.6906666e-04   2.3721706e-04   2.1368447e-04   1.4187912e-04  -2.3777206e-05   7.9551668e-05  -1.4428630e-04  -2.4966193e-05   3.0119331e-06   9.2962902e-05   8.1157472e-05  -1.3701961e-04   3.1606227e-04   1.9434844e-04   2.6493639e-04   3.9043676e-04   3.0303511e-04   4.3966331e-05   6.1770625e-05  -8.7971515e-05   1.0072581e-05  -1.3642893e-05   1.1379005e-05  -1.6837352e-05  -4.9579412e-06  -9.6450749e-05   8.1114769e-05   2.8971161e-04  -4.3942924e-05  -1.8598465e-05   1.4089979e-04   6.5830704e-05  -8.5075742e-05  -1.4767582e-04  -1.6338582e-04   2.8988029e-04  -8.8890105e-05   3.4823472e-04   4.0827272e-04   3.0413401e-05   1.6182735e-04   5.5795949e-04   1.6322972e-04  -1.8232570e-04  -3.2126158e-04
   8.2792016e-05   6.3223015e-05   2.9770751e-04   2.1420057e-04   1.9472402e-04   3.4488554e-04   2.9890542e-04   4.1979877e-04   4.6426771e-04   2.4184611e-04   2.5509283e-04   4.5057222e-05   6.6085428e-05   1.3576655e-05   1.3280990e-04   6.8080866e-05  -6.3977961e-05   3.5879924e-04   3.3350542e-04   3.5610606e-04   4.0680671e-04   3.4528866e-04   1.9175177e-04  -4.9368846e-05  -8.5816217e-05   6.6123401e-05   1.5810381e-05   5.9113995e-06   2.6992329e-05   8.3461047e-05  -9.4870360e-05   1.9809970e-04   3.6802184e-04   1.0013358e-04   1.0286953e-04   1.7968872e-04   4.4547644e-04  -7.0806818e-06   5.8551228e-05   4.9688697e-05   2.6449058e-04   1.8305882e-05   5.1215419e-04   2.9860245e-04   1.7582859e-04   2.9347508e-04   5.3597940e-04   2.8835257e-04  -1.1143322e-04   2.9998954e-04
  -2.2140113e-05   9.3877505e-05   2.7126499e-04   2.6524535e-04   1.8556544e-04   3.5514255e-04   3.9545289e-04   2.0422252e-04   3.2649623e-04   1.9931787e-04   2.5712137e-04  -5.9699596e-06   3.1524371e-05   1.1314265e-04   1.8709681e-04   1.2657019e-04  -2.9034749e-05   3.5204311e-04   2.7000479e-04   3.3133625e-04   3.6486881e-04   3.4332453e-04   1.4136542e-04  -1.9054511e-05  -8.7003675e-05   1.0202265e-04   4.8983817e-05   2.3537189e-06   2.3410445e-04   6.0926115e-05  -3.7343336e-05   1.8405994e-04   2.3524243e-04   1.1414805e-04   5.1858067e-05   2.6583020e-04   2.7992376e-04   8.5197089e-06  -2.0939142e-05   1.3256290e-04   4.6497025e-04   1.8723409e-05   7.2937011e-04   9.1488851e-04   1.8501312e-05   3.3667759e-04   6.0350023e-04   3.1590508e-04  -2.1424088e-05   4.0680502e-04
  -1.3476428e-04  -3.5586258e-05   2.0550858e-04   1.5292010e-04   9.3415831e-05   2.3253367e-04   2.5985207e-04   3.4512920e-04   2.4235276e-04   2.5520703e-06   1.1374577e-04  -1.9162183e-04  -1.0856117e-04   1.0031908e-04   3.8854476e-05   5.9896196e-05  -2.9398498e-05   3.1776278e-04   1.7876520e-04   1.9607684e-04   2.8406162e-04   2.5038834e-04  -7.1632741e-05  -1.0859209e-04  -1.0509053e-04   7.5703618e-05  -9.6102609e-05   2.2817494e-05   1.8008762e-04   7.7372417e-05  -9.8867407e-05   1.8058022e-04   2.9319598e-04   7.6974902e-05   9.8062526e-05   3.5277146e-04   3.4002826e-04  -1.2674993e-06  -4.0092840e-05   8.8994129e-05   3.7196526e-04   1.6172149e-04   7.8641501e-04   2.6117227e-04   1.6084356e-04   1.0524922e-04   6.0162996e-04  -3.8883151e-04   7.2735834e-06   9.2787331e-04
  -6.7975307e-05   9.5743140e-05   2.3036050e-04   2.3920277e-04   1.9465671e-04   3.7765843e-04   4.2731871e-04   3.1463674e-04   6.0185243e-04   4.3049967e-04   4.1776182e-04   1.8626665e-04   3.5881585e-05   5.0466540e-05   2.2743440e-04   7.8773730e-05   7.1181012e-06   3.5475873e-04   3.8336628e-04   3.1677372e-04   3.4337657e-04   3.2652932e-04   1.1689722e-04   7.0925656e-05  -7.3228926e-05   1.1876918e-04   4.6390578e-05   1.4355164e-05  -4.1440566e-05   1.3177335e-04  -6.9406651e-06   2.3674264e-04   2.0621355e-04   1.7419310e-04   1.8152299e-04   5.4402830e-04   4.3002263e-04   7.5964905e-05   2.2256800e-05   1.6145645e-04   4.4891782e-04   1.5597447e-04   1.0944867e-03   8.4314827e-04   1.8280896e-04   1.8476932e-04   5.7070714e-04   9.9360675e-04  -5.4202159e-04   3.3425051e-04
  -6.5424982e-05   6.5832028e-05   1.9718158e-04   2.1877085e-04   1.3699937e-04   4.2549139e-04   4.4732101e-04   2.9088793e-04   5.0240807e-04   3.2023055e-04   3.3227110e-04   1.3182465e-04  -3.2490527e-05   3.6381691e-05   4.5241995e-05   1.0473398e-04  -3.3936165e-05   3.2766158e-04   4.6254709e-04   2.7293322e-04   3.2233141e-04   2.7796003e-04   4.8173217e-05  -1.1485274e-05  -1.1647125e-04   2.7912877e-06   2.3861865e-05  -1.9172074e-05  -4.5223525e-05   8.4437685e-05  -6.4772627e-05   1.6535839e-04   2.9297275e-04   7.3589999e-06  -1.1251424e-05   4.4096954e-04   3.3822973e-04   7.0066111e-05   1.6327647e-05   2.1428945e-04   2.7275411e-04   4.7999867e-05   5.4828706e-04   3.3638923e-04   6.6606626e-05   3.5950221e-04   4.6583419e-04   5.9838837e-04  -3.0677550e-04  -2.0216621e-04
  -4.1438485e-05  -7.1107250e-05   1.0477303e-04   1.0300826e-04   6.4489097e-05   2.7515175e-04   2.5835008e-04   6.9345078e-05   1.8307321e-04   1.2974319e-04   1.5529568e-04  -1.7151013e-05  -2.0325942e-04   8.6164735e-05   7.0100141e-05   4.2479438e-05  -5.3101441e-05   3.1261329e-04   2.4165236e-04   9.8705132e-05   2.4091068e-04   1.8060544e-04  -6.2560706e-05  -2.3773077e-04  -4.2759402e-05  -5.7966347e-05  -7.4583506e-05   1.3829006e-06   9.1813774e-05   8.4066858e-05   8.0168693e-06   1.7625044e-04   3.3276004e-04   4.7127593e-05  -4.0480707e-05   3.0511155e-04   3.7611296e-04   1.4196719e-05   2.8257587e-05   1.0659455e-04   4.8455322e-04   4.1771738e-05   9.3606400e-04   2.6087288e-04   8.3441673e-06   3.6439483e-04   5.5514456e-04   8.3001374e-05  -5.1963516e-04  -4.3623903e-04
  -7.1747869e-05   7.4034018e-05   1.4883578e-04   1.7386983e-04   1.3170287e-04   4.0926199e-04   4.7867070e-04   2.3105743e-04   6.9848646e-04   5.7750911e-04   4.8350313e-04   3.6945828e-04  -4.7419173e-05   4.2350581e-05   1.7205322e-05   2.2011070e-06  -4.8477745e-05   3.4193986e-04   3.6409972e-04   2.0323500e-04   3.1155845e-04   2.4092430e-04   1.1440556e-04   7.8208192e-05  -1.5085068e-04   3.7404214e-05  -1.4504413e-05  -2.0119283e-05   6.6210370e-05   1.2180335e-04  -5.4556906e-05   2.1481789e-04   2.5559761e-04   9.7978998e-05   7.6060365e-05   4.0508152e-04   5.9879106e-04   1.0160386e-04   1.6158438e-04   2.7391335e-04   5.7560351e-04   2.3939623e-04   1.2226115e-03   5.8820762e-04   9.4460403e-05   5.4315990e-04   5.1507971e-04   5.7191815e-04  -6.1668665e-04  -8.7217992e-04
  -8.3950617e-05   6.1054292e-05   1.0060337e-04   1.5814013e-04   1.0789424e-04   4.5780910e-04   4.2608555e-04   3.0772929e-04   5.8538688e-04   4.3235798e-04   3.4335686e-04   2.9910824e-04  -9.1402508e-05   9.6892256e-07  -3.5311052e-05   2.1470067e-05  -1.2919591e-04   3.3923460e-04   1.9365453e-04   1.4343584e-04   2.8505002e-04   1.8384180e-04  -7.5810167e-05   1.1120313e-04  -2.4109421e-04  -7.1792812e-05  -5.3132990e-05  -4.1039228e-05   1.4785409e-05   1.0515146e-04  -1.0593898e-04   1.7615790e-04   2.6815967e-04   9.9015579e-06   2.4630341e-05   3.1269115e-04   3.7391181e-04   7.9451667e-05   1.5183152e-05   9.5476200e-05   3.1628911e-04   5.4086886e-05   2.4006166e-04   2.0660445e-04  -5.9295049e-05  -1.6544237e-04   3.4562516e-04  -6.6606270e-04  -1.8600680e-04  -2.0088567e-04
   5.0966381e-05  -4.9941435e-05   4.1339474e-05   8.0606049e-05   6.4737200e-05   2.2491306e-04   3.0863320e-04   6.5963322e-05   2.7125626e-04   2.4029410e-04   1.3643040e-04   1.5814933e-04  -1.9237351e-04  -1.7417477e-04  -3.7469748e-05   1.1481617e-04  -2.6956838e-04   3.2679326e-04  -1.4111793e-05   1.7745782e-05   2.3725721e-04   1.6974891e-04  -1.3847205e-04   6.2656443e-05  -2.5825517e-04  -1.9528065e-04  -2.9733399e-04  -2.3653296e-05  -1.5380656e-05   4.5660203e-05  -1.4169561e-04   1.9532941e-04   9.8765398e-05  -4.5441029e-05   9.2895671e-06   2.2960566e-04   4.5734178e-04   4.9525082e-05  -5.2564388e-05   1.4804516e-04   5.2742520e-04   1.1361175e-04   7.2405738e-04   3.2674245e-04   1.1395189e-05  -3.3611513e-04   3.3406809e-04  -1.0399996e-04  -3.0989194e-04  -5.4668973e-04
   5.7792779e-05   9.3231785e-05   5.5891007e-05   1.4337712e-04   1.3009510e-04   4.2756161e-04   3.7518979e-04   2.3212192e-04   7.6197332e-04   5.7298283e-04   3.6589534e-04   4.4256033e-04  -6.0172209e-05  -3.0586228e-04  -1.4040105e-04  -4.8760157e-05  -3.0739172e-04   3.2310907e-04   1.9196855e-04   8.3075072e-05   3.1011837e-04   2.6583398e-04   1.3640197e-04   1.1275880e-04  -3.8005959e-04  -4.3076121e-05  -2.2217183e-04  -9.0241097e-05   1.2042588e-05   7.7795848e-05  -2.2807266e-04   1.6934096e-04   9.0225791e-07  -4.2774573e-05   4.0772840e-05   2.1956516e-04   3.4121174e-04   8.6784006e-05  -2.4542499e-07   2.0400433e-04   2.1121508e-04   5.3113014e-05   9.2612783e-04   1.8899432e-04  -5.2146806e-06  -3.0927327e-05   3.4865117e-04  -1.9940161e-04  -4.4789125e-04  -4.7727383e-04
   2.2523413e-05   7.7345358e-05   1.4913187e-05   1.4038495e-04   1.0649089e-04   2.9531855e-04   3.6152074e-04   1.7795910e-04   6.1046326e-04   4.0432345e-04   2.0562562e-04   3.2964672e-04  -8.8267356e-05  -3.5619730e-04  -2.2503566e-04   2.4424791e-05  -3.8266665e-04   3.1060609e-04   1.2729285e-04   2.3197312e-05   3.0417263e-04   2.7269570e-04  -3.4547007e-05   1.6095019e-04  -3.9108747e-04  -1.3715884e-04  -2.1585025e-04  -6.3887426e-05   5.4669774e-05  -2.0369476e-05  -2.8241624e-04   1.0626759e-04   1.1270901e-04  -4.2903113e-05  -9.9359582e-05   2.2322015e-04   3.0394940e-04   9.0580943e-05   4.0932657e-05   1.2662946e-04   8.6904751e-05  -5.2259984e-05   2.6059893e-04  -4.4472906e-04  -3.3596978e-05  -2.6008353e-04   1.9206505e-04   1.4701106e-04  -6.5844803e-04  -3.3248003e-04
   6.7686196e-05  -3.1845448e-05  -2.6426897e-05   4.8853333e-05   6.8047535e-05   2.0090073e-04   2.1044021e-04   2.5207162e-04   3.7480760e-04   2.1056851e-04  -1.1365156e-05   1.6554730e-04  -1.9969296e-04  -3.6206254e-04  -2.1644865e-04   4.9201175e-05  -4.2166052e-04   3.1162711e-04  -9.4305549e-05  -8.7617846e-05   2.7069313e-04   1.9836369e-04  -1.3014600e-04   4.8382357e-05  -3.5409827e-04  -1.7305350e-04  -2.9814968e-04  -8.1787555e-05   2.0910142e-04   3.4432389e-05  -2.8607182e-04   1.0999612e-04   1.7168015e-04  -9.7509394e-05  -1.4305612e-04   1.4994705e-04   8.3572420e-05   1.0484790e-04   1.5410626e-05   9.9980396e-05   1.6842390e-04   4.6949201e-05   7.9175766e-04  -3.1996029e-04   2.3497461e-05  -5.6408553e-05   2.4443425e-04   2.7737307e-04  -4.6224613e-04  -5.3224259e-04
   1.0596014e-04   1.4467194e-04   3.2849053e-05   1.1276129e-04   1.3262255e-04   2.5637823e-04   2.9510551e-04   1.2306501e-04   6.2088965e-04   4.5799301e-04   2.0034998e-04   3.5183213e-04  -1.0726142e-04  -4.1390708e-04  -1.9714361e-04  -2.3708419e-05  -4.0957573e-04   3.3739832e-04   2.2754012e-04  -2.4279558e-05   3.4751935e-04   2.7743564e-04  -4.9760733e-05   2.2039512e-04  -3.2685456e-04  -1.0803896e-04  -3.4835443e-04  -1.0710524e-04   2.0604160e-04   5.5626111e-05  -2.7113626e-04   1.1483148e-04  -1.4690422e-05  -7.2009920e-05  -5.2322874e-05   3.1894229e-05   4.3774449e-04   3.2439519e-05   4.5109675e-05   2.7926528e-05  -6.2934480e-05  -4.6200341e-05   1.6963636e-04   4.1824689e-05  -7.9788442e-05  -3.0288566e-04   2.4807802e-04  -4.8434184e-04   3.3068995e-04  -4.9967552e-04
   1.2732553e-04   8.8079534e-05   3.7852773e-05   8.9678149e-05   9.7278033e-05   2.6544477e-04   2.4814895e-04   8.6460001e-05   3.5486079e-04   2.7057750e-04   5.1729665e-05   2.1980723e-04  -1.7368094e-04  -4.0802735e-04  -2.7331567e-04  -3.4761375e-05  -4.6694709e-04   2.9468868e-04   1.5000721e-04  -8.9628251e-05   3.2716183e-04   2.5763136e-04  -1.3087362e-04   1.0377570e-04  -3.2897905e-04  -2.1442182e-04  -3.8150323e-04  -8.5020758e-05  -9.3216717e-05  -2.5591897e-05  -3.0020380e-04   4.8444355e-05   2.4225070e-04  -1.7473829e-04  -2.2276721e-04   6.6687485e-06   1.5705501e-04   2.2824972e-05  -8.8192282e-05  -5.8221671e-05   7.7938865e-05  -1.2448306e-04   1.0198978e-04  -1.0014460e-03  -1.3332059e-04  -3.6061692e-04   1.6794384e-04  -1.7870669e-05  -6.0549704e-04  -7.5771351e-04
   1.6404060e-04   3.1744901e-05   7.2856208e-05   8.1092430e-06   1.4770545e-04   2.9184343e-04   1.7083315e-04   8.9107692e-05   5.5113732e-04   3.5173778e-04   4.8997084e-05   2.6236393e-04  -1.1957308e-04  -4.6406750e-04  -2.0209893e-04  -1.1922105e-04  -5.3977955e-04   3.2088481e-04   1.0468678e-04  -8.9416069e-05   3.5377542e-04   3.1677866e-04  -4.7947058e-05   1.6667285e-04  -4.5311975e-04  -2.2944548e-04  -4.0972081e-04  -1.2815760e-04  -1.3965626e-04  -2.6157595e-05  -2.6574414e-04   1.3339228e-04   1.3322712e-04  -1.3141416e-04  -1.0545925e-04   2.7225742e-05   2.0740832e-04   2.9411915e-05   5.3937747e-05   1.3412027e-04   4.7033707e-05   6.7602938e-05   6.1491890e-05   1.2369594e-04  -1.2549524e-04  -4.8672047e-04   2.4763061e-04  -3.8539481e-04  -9.4553333e-04  -8.6061098e-04
   2.5981042e-04   1.8262111e-04   1.1320423e-04   1.1241790e-04   1.6309280e-04   3.0352964e-04   2.9025157e-04   2.7291512e-04   6.1173498e-04   4.0428969e-04   1.1219949e-04   2.6953747e-04  -1.7591967e-05  -4.5472907e-04  -1.6086042e-04  -1.1931575e-04  -4.9257209e-04   3.2334143e-04   2.7177075e-04  -4.4660974e-05   4.1003505e-04   3.6903657e-04  -6.7835237e-05   1.2927054e-04  -3.3659046e-04  -1.2284404e-04  -3.5103792e-04  -1.0506703e-04  -8.6274573e-05  -6.8725865e-05  -1.8289950e-04   1.2028592e-04   4.8672850e-05  -1.4005495e-04  -1.5697979e-04   3.6858866e-05   1.8573656e-04  -1.4219707e-05  -1.7299553e-05   2.3969445e-05   9.8699151e-05  -1.3678460e-04   4.4339037e-04  -1.7965262e-04  -2.3504703e-04  -8.3651161e-04   2.6431982e-04   4.1843086e-04  -6.9971755e-04  -1.8281402e-03
   1.9468088e-04   8.0323523e-05   1.8369696e-04   4.5732195e-05   1.0705003e-04   2.1819696e-04   1.3047665e-04   1.2744979e-04   3.4177682e-04   1.4347023e-04  -7.6434066e-05   1.3372904e-05  -1.4079206e-04  -3.2262914e-04  -2.0388507e-04  -9.2972135e-05  -4.8866722e-04   2.9731324e-04  -6.3088439e-05  -1.4071367e-04   3.5815520e-04   3.1429215e-04  -5.9444930e-05   1.0366575e-04  -2.7542605e-04  -1.8770300e-04  -3.7127966e-04  -1.3275792e-04   1.0449740e-04  -1.3379788e-04  -1.5809755e-04   3.8500450e-05  -4.4999260e-06  -2.9246355e-04  -2.4893033e-04  -5.6113116e-05   3.1642444e-04  -9.3735842e-05  -1.7634385e-04  -1.3979971e-04   1.2583818e-04  -1.6161951e-04   4.9794064e-04  -1.1097048e-03  -3.6839259e-04  -6.8256730e-04   1.5659930e-04  -6.2440435e-04  -5.2418787e-04  -9.2996366e-04
   3.4555001e-04   7.8426128e-05   1.5886847e-04   9.8546579e-06   1.4266485e-04   1.8202323e-04   1.5474040e-04  -3.8023714e-05   5.1496946e-04   2.8502155e-04   1.0865772e-05   1.1795141e-04  -1.1541393e-04  -4.0149572e-04  -2.3909699e-04  -9.3040609e-05  -5.2180927e-04   2.9706600e-04   4.4827721e-05  -1.1270778e-04   3.8095552e-04   3.8186149e-04  -4.0546638e-05   3.1910466e-05  -2.9524788e-04  -1.4263601e-04  -4.4948544e-04  -1.0957973e-04  -6.6486857e-05  -1.0826067e-04  -8.7770517e-05   1.0230146e-04   1.7337155e-04  -1.2718313e-04  -2.1498380e-04   1.0808245e-04   3.3808438e-04  -8.7199580e-05  -9.2481059e-06  -4.1778607e-05   7.6784549e-05   1.9728162e-05   1.1680062e-04  -5.6285691e-05  -2.9608235e-04  -5.0889392e-04   3.8633813e-04  -3.4262364e-05  -4.1630867e-04  -1.0340905e-03
   2.5463974e-04   1.9010178e-04   2.9269041e-04   9.3219714e-05   1.3235549e-04   2.9619524e-04   2.0721648e-04   2.2222293e-05   4.8554194e-04   2.9131814e-04   5.2085401e-05   6.2187799e-05  -3.7379428e-05  -3.5692129e-04  -2.3349970e-04  -1.9795100e-04  -4.4422387e-04   2.9433664e-04   9.7106764e-05  -6.4350672e-05   4.2785224e-04   4.0052293e-04   9.3101946e-05   8.5140811e-05  -1.9301260e-04  -1.1726729e-04  -2.7036687e-04  -7.7091696e-05  -5.7415516e-05  -1.3082844e-04  -3.5590696e-05   5.5938312e-05   4.3237294e-05  -1.7588976e-04  -2.6046266e-04  -9.1056492e-05   2.0090184e-04  -1.0743572e-04  -5.2240452e-05  -1.5101375e-04   1.9805950e-04  -5.8600457e-05   4.5018486e-04  -3.6216420e-04  -3.0002199e-04  -6.9613894e-04   3.9531515e-04  -1.0071822e-05  -4.6274974e-04  -2.2297195e-04
   2.0559966e-04   7.1703260e-05   2.0359868e-04   4.5142282e-05   1.0427751e-04   2.5089280e-04   6.7206696e-05   9.1983049e-05   3.4247572e-04   3.7485279e-05  -1.4068643e-04  -1.3418691e-04  -1.0566303e-04  -3.0971505e-04  -2.1829661e-04  -1.8322542e-04  -4.3839859e-04   2.7152785e-04  -1.7918936e-05  -1.7268867e-04   3.6902764e-04   3.4301978e-04  -7.5524578e-05   6.5297114e-05  -2.5452892e-04  -1.7653256e-04  -3.4274167e-04  -8.9329784e-05  -2.8426395e-04  -2.0536764e-04  -3.3806675e-05   8.1005201e-05   2.2959615e-04  -2.2109188e-04  -2.6815842e-04  -9.6838805e-05   8.9209178e-05  -1.5202559e-04  -2.3899201e-04  -2.8298562e-04  -1.5850858e-04  -1.5429659e-04   6.2557129e-04  -8.2707743e-04  -4.4474757e-04  -5.0031161e-04   2.2905838e-04   1.0014024e-04  -4.7599559e-04  -6.5565319e-04
   2.7534936e-04   5.2049785e-05   2.1200017e-04   6.9117573e-06   1.3993360e-04   2.7949343e-04   8.2873536e-05  -1.2523560e-04   3.2484243e-04   1.8481170e-04  -7.4588716e-05  -5.1534545e-05  -8.8348344e-05  -3.0581548e-04  -2.2770285e-04  -1.5948723e-04  -4.7259941e-04   2.5658563e-04   1.5458232e-05  -1.4421165e-04   3.6238288e-04   3.4904035e-04   4.7923775e-05   3.7750000e-05  -2.3735582e-04  -9.1984148e-05  -3.3654133e-04  -1.2613046e-04  -3.1213320e-04  -1.9501794e-04  -8.3368657e-05   6.0461211e-05   1.3363334e-04  -1.9405756e-04  -1.9107516e-04   5.2527968e-05   1.3286955e-04  -1.5061321e-04  -4.9014525e-05  -2.0640979e-04   1.4676776e-04  -6.6432542e-05   3.4737063e-04  -5.7844626e-04  -3.1757093e-04  -3.2701044e-04   3.1146326e-04  -2.5103436e-04  -3.6091541e-04   2.8050921e-04
   3.3675213e-04   1.7321802e-04   2.9417654e-04   9.7707787e-05   1.7674782e-04   2.9430731e-04   1.1799936e-04   9.5782216e-06   4.1413476e-04   1.9163976e-04  -6.6495668e-05  -7.9452751e-05  -3.0854597e-05  -2.9938557e-04  -2.1112275e-04  -2.0785669e-04  -4.7747578e-04   2.3574603e-04   1.2322153e-04  -7.8947713e-05   4.0625603e-04   3.6598745e-04   2.3432933e-05   3.8941838e-05  -1.9079586e-04  -1.9481123e-04  -2.8577092e-04  -9.9508507e-05  -2.8940212e-04  -2.0723253e-04  -5.5209464e-05   6.0215218e-05   2.0207871e-04  -2.6027535e-04  -2.5674066e-04  -9.1664588e-05   5.9243543e-05  -2.2468145e-04  -1.3639126e-04  -2.0332608e-04   1.2798597e-04  -1.4592681e-04   1.7265753e-04  -7.4688811e-04  -2.9841581e-04  -3.8877357e-04   2.6143671e-04  -3.0254567e-04  -6.0022960e-04  -3.4872367e-04
   2.7121947e-04   6.5103377e-05   2.7103955e-04   4.5196681e-05   1.0259730e-04   1.4753822e-04   4.2085921e-05  -1.8359566e-04   2.1152070e-04  -2.9355944e-05  -2.7243563e-04  -2.6854864e-04  -1.1930566e-04  -3.5991037e-04  -7.2835493e-05  -1.5640003e-04  -5.2987318e-04   2.1437356e-04  -2.4665676e-05  -1.3616955e-04   3.5079845e-04   3.5642856e-04  -7.7220400e-05   1.4311231e-05  -2.0716064e-04  -1.4467447e-04  -3.3283033e-04  -9.9298995e-05  -2.5362454e-04  -2.5184371e-04  -1.5790269e-04  -1.6001935e-05   9.9181079e-06  -2.6594862e-04  -2.3564458e-04  -2.1952092e-04  -1.7242295e-05  -2.5529510e-04  -2.5932508e-04  -3.0389440e-04  -7.9908787e-05  -2.2733041e-04  -3.0600655e-05  -6.3453353e-04  -4.8074962e-04  -6.1770953e-04   1.7088257e-04  -1.3276642e-03  -1.0422716e-03  -4.4483846e-04
   3.7320767e-04   1.3585431e-04   3.2079840e-04   9.1438400e-05   1.9504900e-04   1.8393603e-04   9.4317955e-05  -2.2925182e-04   4.5739312e-04   1.6736200e-04  -1.6644648e-04  -1.3431897e-04  -2.3398911e-06  -4.8157826e-04  -2.1772276e-04  -1.2087071e-04  -5.7715224e-04   2.0959435e-04   1.1691012e-04  -7.4518903e-05   3.8425240e-04   4.3842627e-04  -6.3747633e-05  -4.3680255e-05  -2.2883227e-04  -1.4589446e-04  -4.8643351e-04  -1.0062572e-04  -3.2986252e-04  -1.9432006e-04  -2.0955055e-04   3.6843883e-06   2.7266610e-04  -1.3513076e-04  -1.5163998e-04  -6.8466208e-05   1.4565434e-04  -2.1515627e-04  -2.5223044e-04  -1.5065285e-04  -2.0639626e-04  -9.7516298e-05   3.3104242e-04  -7.8143872e-04  -3.0656255e-04  -7.2215911e-04   2.0270889e-04  -8.2785758e-04  -9.5650663e-05  -3.6014273e-05
   3.8649997e-04   1.9348439e-04   3.2714222e-04   1.5498279e-04   2.0167806e-04   2.2598324e-04   1.2729630e-04   7.3229581e-05   3.2726291e-04   1.0197045e-04  -2.2816019e-04  -2.4504069e-04   3.5270947e-05  -3.8509132e-04  -2.0874203e-04  -1.6846778e-04  -5.1447120e-04   2.2055842e-04   2.0783949e-05  -4.1058127e-05   3.8081262e-04   4.3822319e-04  -1.3750740e-05  -3.9087965e-05  -2.4909951e-04  -1.5848098e-04  -3.8787449e-04  -1.0625604e-04  -3.7691960e-04  -2.3543146e-04  -2.3660918e-04   3.9739927e-05   2.1819925e-04  -2.4305022e-04  -1.2002973e-04  -1.5084512e-04   1.3478268e-04  -2.2483514e-04  -2.8365548e-04  -3.6261306e-04   1.5802143e-04  -1.8186473e-04   4.2673538e-04  -2.5086963e-04  -3.5744775e-04  -8.0943794e-04   2.0909849e-04  -5.8497349e-04  -9.3174278e-04  -6.8723998e-04
   2.4954847e-04   8.6441316e-05   2.0750919e-04   1.0804239e-04   1.4998449e-04   1.9999445e-04   4.8882084e-05  -2.7672797e-05   1.7666783e-04  -1.0262073e-04  -4.2325066e-04  -4.2012724e-04  -1.8944773e-05  -3.7849791e-04  -2.9064299e-04  -1.2380211e-04  -5.7161757e-04   1.8104413e-04  -1.1119209e-04  -1.2385490e-04   3.1398263e-04   3.7167044e-04  -1.1882061e-05  -9.1795730e-05  -2.0046870e-04  -2.1639004e-04  -3.1075274e-04  -7.2945615e-05  -3.7259294e-04  -2.8510313e-04  -2.2608110e-04  -9.5125387e-07   2.8570756e-05  -2.2791074e-04  -1.9594200e-04  -7.3737741e-05   5.2791394e-05  -2.6434811e-04  -2.8927220e-04  -1.9863692e-04  -2.1692371e-04  -2.0125325e-04  -2.4427101e-04  -3.7557355e-04  -2.9301515e-04  -5.6317216e-04   1.2239773e-04  -1.7316022e-04  -4.6243230e-04  -5.0672068e-04
   3.7426141e-04   2.1219735e-04   3.0791611e-04   2.0394407e-04   2.3924360e-04   2.4047050e-04   1.3783597e-04   3.1197138e-05   4.1975078e-04   2.3188579e-04  -1.9821544e-04  -2.1215418e-04   1.1482823e-04  -4.1463744e-04  -2.4920079e-04  -9.4987423e-05  -5.4205692e-04   2.3964381e-04   1.1129972e-04   1.1473011e-05   3.7764682e-04   4.2640796e-04   7.1206961e-07  -2.5662961e-05  -3.0247358e-04  -1.2590154e-04  -3.3255230e-04  -9.2084127e-05  -1.7116829e-04  -2.5788121e-04  -2.0966893e-04  -3.2729663e-06   2.9319324e-04  -1.5730967e-04  -1.2458068e-04   3.5091874e-05   1.7485062e-04  -2.1751161e-04  -2.2544627e-04  -2.6760696e-04   6.8076930e-05  -1.2457519e-04   1.9852070e-05  -3.1656999e-04  -2.1838814e-04  -1.6665533e-04   1.5583225e-04  -4.0754483e-05  -9.7424061e-05   7.4347947e-05
   3.5812639e-04   2.1045934e-04   3.2467945e-04   2.4919896e-04   2.4996750e-04   2.9262833e-04   1.4946015e-04   2.5969772e-05   4.0913161e-04   1.1917327e-04  -3.3015053e-04  -2.9863440e-04   1.2172608e-04  -3.7806452e-04  -1.3085925e-04  -6.2563784e-05  -5.7312951e-04   2.1969811e-04   2.1254506e-04   4.1972908e-05   3.4924099e-04   4.4089241e-04   1.0494617e-04  -1.1757272e-04  -3.7742799e-04  -2.8007291e-04  -4.3680903e-04  -1.2624296e-04  -2.7239876e-04  -2.4227290e-04  -3.9456435e-04  -1.3967735e-05   9.2043570e-05  -2.0277892e-04  -1.4946207e-04  -4.9893493e-05  -1.1939168e-04  -2.5133675e-04  -2.6482568e-04  -3.3093680e-04  -1.2232841e-04  -8.3810555e-05   5.1642716e-04   1.5965778e-04  -2.4936057e-04  -5.1218882e-04   6.4433734e-05  -1.1333477e-03  -3.5634061e-04  -9.3102059e-04
   2.7786184e-04   1.0076242e-04   2.6626643e-04   1.7853176e-04   2.0315257e-04   1.0957634e-04   3.2389129e-05  -8.2006927e-06   1.0300750e-04  -2.1859378e-05  -5.4157816e-04  -3.9126773e-04   1.1027126e-04  -5.8088958e-04  -1.9996239e-04   4.7817684e-05  -6.8191171e-04   1.9781878e-04  -2.3972765e-05   1.3399804e-06   3.0520966e-04   4.2240715e-04   4.6385918e-05  -1.1174483e-04  -4.0214506e-04  -1.5954851e-04  -6.8007322e-04  -1.0747335e-04  -1.6809609e-07  -2.3735991e-04  -5.8233330e-04  -2.4648285e-05   2.4207018e-04  -1.9561488e-04  -8.6991146e-05   1.5800364e-05  -5.7969843e-05  -2.1774416e-04  -2.0627116e-04  -2.3519251e-04  -1.4483680e-04  -1.3315549e-05   1.3147769e-04  -3.5122252e-04  -7.3921205e-05  -8.7724969e-04   1.3021962e-04  -9.1429899e-04  -6.3810800e-04  -4.9974263e-04
   4.0698811e-04   2.9489605e-04   2.9320837e-04   3.5507241e-04   3.0284605e-04   2.8450906e-04   1.6353343e-04  -1.3867671e-04   5.3472706e-04   3.5754906e-04  -3.1317864e-04  -1.4471424e-04   2.6982228e-04  -4.9909420e-04  -2.8603440e-04  -1.7491129e-05  -6.3549617e-04   2.2311549e-04   2.4984468e-04   1.3796875e-04   3.6186559e-04   5.1287434e-04   1.5922870e-04   5.7825233e-05  -4.8602690e-04  -1.6416964e-04  -5.3853961e-04  -1.2782357e-04  -2.2173612e-04  -2.0128119e-04  -5.7309540e-04  -3.8506445e-05   7.7061268e-05  -6.3986568e-05   2.5340842e-05   1.2639024e-04  -1.6325595e-05  -1.4384386e-04  -3.1069756e-04  -1.2584557e-04   3.4018223e-05   6.4717060e-06  -4.6672791e-05  -8.7316358e-04   4.5353659e-06  -1.4854409e-04   1.8667881e-05  -4.7246725e-04  -6.6469249e-04  -4.0210149e-04
   3.7384857e-04   2.5475727e-04   3.1288888e-04   3.5200713e-04   3.0483422e-04   2.8311071e-04   1.4808147e-04   2.9259667e-04   3.3855476e-04   2.3545160e-04  -4.2928141e-04  -2.1285741e-04   2.9085079e-04  -6.3033769e-04  -1.9093284e-04  -1.1446910e-05  -6.8991818e-04   1.7666677e-04   3.8183274e-04   1.2813484e-04   3.2959905e-04   5.2042783e-04   5.3532625e-05   2.0940638e-06  -6.2118360e-04  -2.0440690e-04  -5.7604030e-04  -8.2588587e-05  -1.0873784e-04  -1.9594803e-04  -7.4580568e-04  -5.3544121e-05   2.8724934e-04  -1.9934100e-04  -1.1768776e-04   6.6000444e-05   7.9628495e-05  -1.5624338e-04  -3.3636412e-04  -3.5298982e-04  -6.2665262e-05  -1.3953595e-05  -2.1869047e-04  -1.2345282e-04   9.5032365e-06  -7.0191023e-04  -1.5964464e-04   1.9325927e-04  -3.7053777e-04  -1.3977273e-03
   2.9540877e-04   1.4163391e-04   2.1211251e-04   2.8638923e-04   2.8822120e-04   2.5618676e-04   7.6357668e-05   1.7186970e-04   4.4482559e-04   2.6222583e-04  -4.7076331e-04  -1.8167381e-04   2.8454405e-04  -5.9619820e-04  -2.3016098e-04   4.6039819e-05  -7.4919779e-04   2.0563669e-04  -1.5343870e-06   1.2400690e-04   3.0746864e-04   5.1896047e-04   2.5365173e-04   8.4498324e-06  -7.0712832e-04  -2.9636751e-04  -5.8594841e-04  -1.0825921e-04  -1.2706533e-04  -1.5741118e-04  -7.8351010e-04  -1.2473497e-05   1.8875703e-04  -7.8516008e-05  -4.5416878e-06   8.8434317e-05   1.2439757e-04  -1.3748847e-04  -2.9847058e-04  -1.4120314e-04  -8.8671426e-05   2.3360060e-04  -9.0218055e-05  -6.5996934e-04   1.7927327e-04  -2.5152357e-04  -8.7957589e-05   7.0605215e-06  -6.1125908e-04  -1.5737981e-04
   3.9260680e-04   3.3485735e-04   3.2844165e-04   4.4230311e-04   3.5721934e-04   4.1209214e-04   2.7621625e-04   1.4688889e-04   5.2251300e-04   4.3560268e-04  -3.3495651e-04  -7.5570839e-05   3.9145432e-04  -6.0899177e-04  -1.7502454e-04   4.8113710e-05  -6.6488760e-04   2.2711555e-04   3.0259285e-04   2.3398219e-04   3.5479976e-04   5.7222618e-04   1.9617153e-04   1.1344602e-04  -5.9198373e-04  -1.5481956e-04  -5.6631299e-04  -9.1707610e-05  -5.2769069e-06  -1.6404751e-04  -7.3996367e-04   4.1704759e-05   3.0032659e-04  -4.3217395e-05  -6.3295179e-06   6.6481902e-05   5.8273727e-05  -6.8761481e-05  -3.0444359e-04  -1.2278998e-04  -7.3241405e-05   1.6523308e-04   2.4819045e-04   8.0102800e-05   8.5096159e-05  -1.6160488e-04  -4.8636910e-05  -2.4496322e-04  -2.7449647e-04  -6.7445927e-04
   3.3468788e-04   2.6498962e-04   2.5349070e-04   3.9921928e-04   3.3218105e-04   2.4018178e-04   1.6440130e-04  -7.4701520e-06   3.9321050e-04   2.4519389e-04  -4.6242159e-04  -1.9271838e-04   3.4122801e-04  -6.4602337e-04  -3.0586854e-04   1.2945436e-04  -7.0088118e-04   2.0467841e-04   7.7707940e-05   1.8529812e-04   2.9700005e-04   5.6708523e-04   1.0664557e-04  -3.5217781e-05  -6.0557027e-04  -3.6921658e-04  -5.9531064e-04  -5.9792201e-05  -6.2363230e-05  -1.9259613e-04  -8.0941874e-04  -1.0467373e-04  -6.1839077e-05  -1.1445496e-04  -6.0505897e-07   9.9079938e-05   7.3022289e-05  -1.0650236e-04  -3.4323856e-04  -3.3134752e-04   7.9358078e-06   2.1666758e-05  -1.9649092e-04  -7.7350874e-04   6.0525810e-05  -1.5184827e-04  -1.2990643e-04  -5.1327359e-05  -4.3659020e-04  -9.1154606e-04
   4.2154270e-04   1.9790720e-04   2.3419922e-04   3.5567363e-04   3.6131285e-04   2.8987529e-04   1.8118604e-04   1.6724270e-04   5.1877857e-04   3.1401264e-04  -4.4645174e-04  -1.8188555e-04   2.9886689e-04  -6.1075046e-04  -3.5703406e-04   7.5701566e-05  -6.7431823e-04   1.9405363e-04   1.7488348e-04   1.4953894e-04   2.7210871e-04   5.3894654e-04   1.6352686e-04  -5.7070636e-05  -7.2387618e-04  -3.0662390e-04  -6.1601697e-04  -6.6826840e-05  -3.5635072e-05  -1.4990229e-04  -6.8706821e-04  -1.5139460e-06   2.9329961e-04  -3.6816778e-05   1.4438034e-05   1.0840016e-04   9.4580821e-05  -7.4376017e-05  -2.3679722e-04  -1.0883957e-04   3.7405942e-05   1.5082856e-04   2.8572822e-04  -8.4085827e-04   2.3579125e-04  -5.1071733e-04  -6.9867281e-05  -9.1312198e-05   2.2731601e-04  -2.2797975e-04
   5.2364176e-04   3.0947765e-04   2.4798818e-04   4.4314493e-04   3.4887652e-04   3.6266405e-04   2.8110141e-04   1.2508551e-04   5.8365252e-04   3.1958715e-04  -3.6167935e-04  -1.6558284e-04   3.3206481e-04  -5.3011545e-04  -1.0350788e-04   4.0152903e-05  -5.7281641e-04   1.9407655e-04   3.7464607e-04   1.8729860e-04   2.7784694e-04   5.9207127e-04   1.5783129e-04  -9.4063551e-05  -6.5302115e-04  -2.0344097e-04  -5.1522680e-04  -7.2046525e-05  -2.6731330e-04  -1.1625329e-04  -7.0278224e-04   3.6489662e-05   2.0776088e-04  -6.1502389e-05   2.7318276e-05   1.9174740e-04   1.6915734e-04  -5.7278470e-05  -2.6366379e-04  -7.0361864e-05  -7.1098068e-05   1.4696387e-04  -5.8546178e-05  -2.1740684e-04   8.6263928e-05  -3.7418341e-04  -5.5720102e-05   1.2597728e-04  -4.4395981e-04   3.5179980e-04
   3.6760344e-04   2.0841416e-04   2.2210953e-04   3.6683280e-04   2.9365797e-04   2.9596395e-04   1.9578237e-04  -3.0086807e-05   3.3312230e-04   9.7313794e-05  -5.3321186e-04  -3.6178879e-04   2.2287951e-04  -5.1252538e-04  -2.4039479e-04   7.5210679e-05  -5.9098448e-04   2.0957626e-04   1.5487985e-04   1.0160274e-04   2.3381402e-04   4.6707384e-04   5.2604810e-05  -1.4398155e-04  -7.2128896e-04  -2.6798170e-04  -4.3888547e-04  -6.1122388e-05  -1.8360488e-04  -1.5335546e-04  -6.4252602e-04   3.2929282e-05   1.9241049e-04  -1.0600433e-04  -9.5899095e-06   2.3556447e-04  -9.3886869e-05   7.0917099e-06  -2.2130972e-04  -6.7162138e-05   8.0529186e-05   6.2283470e-05   1.8505394e-04  -3.1407175e-04   1.4068188e-04  -3.9934018e-04  -4.7933027e-05  -2.7989541e-04  -4.8745939e-04  -1.5792293e-03
   2.8651248e-04   2.8075324e-04   2.4527870e-04   3.9630008e-04   3.2310150e-04   3.0269806e-04   2.8117214e-04   3.0608833e-04   5.8081700e-04   3.1622293e-04  -3.5466385e-04  -2.0423623e-04   2.5422761e-04  -4.7288206e-04  -2.8313894e-04   1.0775756e-04  -4.8818841e-04   2.2385488e-04   2.9283753e-04   1.7790281e-04   2.5870610e-04   4.9017643e-04   2.4554887e-04  -8.8411012e-05  -6.0928252e-04  -1.9715722e-04  -4.0610236e-04  -4.9242877e-05   2.0518413e-05  -6.2966334e-05  -5.1688182e-04   8.4657855e-05   2.6071456e-04   4.9486785e-05   5.7381647e-05   1.8958432e-04   2.6810833e-04   5.3825333e-05  -1.0878713e-04  -1.7398796e-05   8.2368191e-05   2.6881421e-04   4.1982779e-04  -1.7960259e-04   1.4869368e-04   3.0600295e-05   1.0709314e-04   1.1505726e-04  -6.2927109e-05  -6.9767406e-04
   3.4584780e-04   2.9266186e-04   2.4904785e-04   4.2347162e-04   2.9541913e-04   3.1633614e-04   2.5002888e-04   3.3005967e-04   5.4082670e-04   2.0441873e-04  -3.8213175e-04  -2.6099198e-04   2.5506347e-04  -5.4110214e-04  -1.6499819e-04   9.9163532e-05  -5.1356247e-04   2.4063530e-04   3.1121954e-04   2.0402280e-04   2.4257801e-04   4.6514504e-04   1.0867111e-04  -1.1113744e-04  -6.5326766e-04  -2.4534544e-04  -5.0087762e-04  -7.2811417e-05   1.5868407e-04  -5.8454196e-05  -6.1409059e-04   1.4447140e-04   3.6701593e-05   9.4458810e-05   8.3186256e-05   1.7267016e-04   4.6988807e-05   6.9636844e-05  -1.5947776e-04  -1.7274597e-04   2.3829003e-05   2.3024867e-04   4.0637475e-04  -4.4909102e-04   7.3542906e-05  -1.6227725e-04  -1.3388830e-05  -2.9244620e-04  -5.0550763e-04   7.1857206e-04
   3.5309454e-04   1.6538071e-04   1.6779419e-04   3.2556237e-04   2.0022396e-04   2.1943293e-04   1.4889798e-04  -2.8761693e-05   3.3466154e-04  -2.1340134e-05  -5.8055733e-04  -4.2100262e-04   1.4231210e-04  -5.5010448e-04  -2.5247471e-04   1.6217216e-04  -5.0575915e-04   2.4457584e-04   1.5145000e-04   7.4060386e-05   1.7097760e-04   3.5795043e-04   3.5417019e-05  -1.9570766e-04  -6.1982707e-04  -3.0911947e-04  -2.9512143e-04  -6.8403155e-05   1.6486174e-05  -3.1412255e-05  -4.7380425e-04   1.4203893e-04   1.9132222e-04   7.6745828e-06  -2.6826212e-05   2.4412047e-04   2.9066176e-04   1.0848213e-04  -2.9011817e-05  -5.6241985e-05   2.1873075e-04   2.2370309e-04  -4.7791818e-06  -7.8762067e-05   1.5690109e-04  -3.3647998e-04   1.2133292e-04   5.4913893e-04  -4.4279313e-04  -5.5695605e-04
   4.3083949e-04   3.1124911e-04   2.3009301e-04   3.7955155e-04   3.0166333e-04   4.0459307e-04   3.7719053e-04   3.1069812e-04   6.5265241e-04   2.4713451e-04  -2.8776735e-04  -3.0038439e-04   1.7059753e-04  -3.3580771e-04  -1.5486994e-04   6.1984589e-05  -2.8688990e-04   2.6968413e-04   1.6938956e-04   1.5244322e-04   2.0821943e-04   3.6689386e-04   1.8272488e-04  -1.3684653e-04  -4.6174298e-04  -2.0825352e-04  -3.9748038e-04  -6.9232592e-05  -2.0546045e-06   4.2360207e-05  -1.7096636e-04   2.1509122e-04  -5.5154662e-05   8.7565219e-05   3.1312284e-05   4.1969161e-04   4.4171783e-04   1.5720373e-04   1.0874476e-05   1.4513663e-04   5.2342453e-04   4.5911176e-04   5.2950095e-04   2.7234186e-05   6.7545610e-05   2.6671789e-04   2.4977452e-04   4.6607794e-04  -3.1056922e-04   6.1990955e-04
   3.8743846e-04   2.5607826e-04   2.1943310e-04   3.4733687e-04   2.5208062e-04   3.5673208e-04   2.2805849e-04   2.6002311e-04   4.2395847e-04   6.6865199e-05  -3.7134325e-04  -4.0660930e-04   1.0951501e-04  -3.5370226e-04  -3.5551310e-04   8.6004897e-05  -2.9746239e-04   2.6508039e-04   4.3587369e-04   1.0167100e-04   1.8201765e-04   2.9597947e-04   7.2833478e-05  -2.1396643e-04  -4.9479329e-04  -2.9983887e-04  -2.5328071e-04  -2.4692778e-05  -7.9403922e-05  -1.9237570e-05  -2.2211345e-04   2.5969959e-04  -4.6312842e-05   1.6344964e-04  -6.1076942e-05   3.4764851e-04   2.6469794e-04   7.4675292e-05  -6.6870401e-05  -1.9818751e-04   6.2999090e-05   2.9335398e-04   4.2760381e-04  -9.4573299e-04  -6.3327243e-05  -3.8042068e-04   1.8910036e-04  -4.0330429e-04  -6.7627459e-04   6.2561320e-04
   3.6166157e-04   1.2508733e-04   1.2072231e-04   2.3769484e-04   1.8788411e-04   2.2822304e-04   1.3539201e-04   5.3298041e-05   3.9085426e-04  -2.1565018e-05  -4.1975340e-04  -4.3497814e-04   4.0788051e-05  -3.7100067e-04  -2.1594699e-04   1.1499823e-04  -3.1203395e-04   2.7259978e-04   2.3938072e-04   5.2220326e-05   1.3581173e-04   2.7487383e-04  -1.6000220e-05  -2.4896485e-04  -4.4021624e-04  -2.3680180e-04  -3.1657025e-04  -3.8060713e-05   8.7036187e-06   4.5980611e-05  -1.5467171e-04   2.8493174e-04   1.8047273e-05   1.9067003e-04   4.0473689e-05   3.5291532e-04   1.9559977e-04   1.0594316e-04   5.9070466e-05   7.6495926e-05   3.8575227e-04   3.8699142e-04   7.8437186e-04  -3.9081224e-05   7.2226532e-05   1.0607117e-04   3.3247512e-04  -7.6187146e-04  -5.2057824e-04  -8.2976068e-04
   3.6299598e-04   3.2554023e-04   2.2273662e-04   3.5680507e-04   2.5745668e-04   4.0014091e-04   3.7032022e-04   2.2776805e-04   5.0853303e-04   1.9022886e-04  -1.2513140e-04  -3.0886580e-04   8.9927496e-05  -2.1546384e-04  -2.3126409e-04  -4.9631662e-06  -1.8401844e-04   2.8445313e-04   2.5374704e-04   1.4408305e-04   1.8373330e-04   2.6890991e-04   1.1999856e-04  -1.9676397e-04  -3.2017138e-04  -1.6551107e-04  -2.4551593e-04  -2.6474414e-05   5.1865463e-05   1.1362018e-04  -5.7034773e-05   2.9122710e-04  -5.2478757e-05   1.9066644e-04   1.7050965e-04   4.7476313e-04   2.8953445e-04   1.5568497e-04   2.0034355e-04   1.6922759e-05   6.3825230e-04   5.4350815e-04   6.9057988e-04  -2.5009358e-04   5.4246044e-05   1.5571793e-04   4.2285566e-04   7.8180624e-04   1.5581424e-04   5.0100754e-04
   2.7507797e-04   2.5310199e-04   1.9534875e-04   2.7346349e-04   2.2231280e-04   3.9347049e-04   2.5666947e-04   5.8787497e-05   3.5302079e-04   3.8709513e-05  -2.1780132e-04  -3.5393774e-04   6.5469023e-05  -3.0266031e-04  -2.2735687e-04  -3.9146627e-05  -2.5146842e-04   2.5600378e-04   1.5537224e-04   1.2217682e-04   1.7260462e-04   2.2125911e-04   6.7336056e-05  -1.7961100e-04  -3.8597255e-04  -2.1587964e-04  -3.7311943e-04  -5.3337608e-05   5.6111649e-06   6.6056629e-05  -1.7296964e-04   2.3306694e-04   1.5158911e-04   3.0932926e-05   2.0834676e-05   2.7124508e-04   2.5359966e-04   1.8783822e-04   7.9209152e-05  -4.7179419e-05   4.5540035e-04   3.7775861e-04   4.7580496e-04  -4.3411567e-04  -7.7599681e-05  -1.1484980e-04   1.4549409e-04  -5.1863457e-04  -3.0549770e-04   5.1316107e-05
   3.3876052e-04   1.7111254e-04   1.0718498e-04   1.8589522e-04   1.8435343e-04   2.2665593e-04   1.2087551e-04   2.5009937e-04   2.9260723e-04  -1.0233089e-04  -3.7781359e-04  -3.9232822e-04   1.2353154e-05  -4.8520061e-04  -3.0591289e-04   6.3573993e-05  -3.6656042e-04   2.7503676e-04   2.0650853e-04   4.0356732e-05   1.3490372e-04   2.0100610e-04   1.6238788e-05  -2.0083648e-04  -4.7717808e-04  -1.9977719e-04  -3.3646359e-04  -2.3138278e-05  -8.0865593e-06   4.4752978e-05  -1.2138006e-04   2.6038842e-04   2.3770062e-05   3.3965629e-05  -4.9167116e-05   3.6888645e-04   3.2415599e-04   2.2280245e-04   1.1473916e-04   1.8952202e-04   2.6977924e-04   4.0354824e-04   5.8788998e-04   2.7387831e-04   5.0833689e-05   6.9956805e-05   3.2871118e-04   1.6836892e-04   6.5839500e-05  -1.2820013e-03
   5.8180478e-04   3.6160884e-04   2.3736138e-04   2.8978067e-04   2.7482543e-04   3.7068955e-04   3.2607728e-04   1.3200680e-04   6.1390520e-04   2.0490664e-04  -9.0524365e-05  -2.0786456e-04   1.2837703e-04  -3.7801225e-04  -1.8901515e-04   2.6251706e-05  -3.2016370e-04   3.0444231e-04   2.4971410e-04   1.5117797e-04   2.2033619e-04   2.5056893e-04   9.3369672e-05  -8.5881489e-05  -4.4109565e-04  -5.7268262e-05  -2.9858187e-04  -6.5058739e-05   1.4768080e-05   1.0633355e-04  -1.7499874e-04   2.9539433e-04  -1.1406218e-04   2.5787598e-05   9.7668199e-06   3.2137669e-04   3.8350202e-04   2.7707510e-04   2.1563527e-04   8.4513165e-05   4.4760996e-04   5.0942641e-04   7.1836007e-04   3.2934820e-04   1.3558742e-05   1.6223724e-04   3.5376879e-04   8.7115919e-04  -8.7605760e-04   9.3554816e-04
   4.6333208e-04   3.0239788e-04   2.3600906e-04   2.4338224e-04   2.4771140e-04   3.5542648e-04   2.6918168e-04  -1.3585320e-04   3.7793472e-04  -6.8052659e-06  -2.1496887e-04  -4.1138733e-04   3.4718170e-05  -3.5885684e-04  -2.1287003e-04  -3.2166088e-05  -2.5505148e-04   2.4390110e-04   2.6454619e-04   7.4943120e-05   1.7045112e-04   2.1251236e-04   3.5298050e-05  -1.6002251e-04  -4.7665229e-04  -1.7953011e-04  -3.5169159e-04  -6.6682798e-05   1.1585993e-04   9.1231545e-05  -1.2770332e-04   2.2120131e-04   4.3708558e-05   4.1094565e-05  -1.1918778e-04   2.6537661e-04   2.8590159e-04   2.0732571e-04   1.9697531e-04   1.2660917e-04   4.7099564e-04   4.1144295e-04   2.7108300e-04  -7.5359727e-05  -1.5954167e-04   3.3332042e-05   2.6844666e-04  -1.5656913e-04  -1.0787105e-03   3.8377897e-04
   4.4332052e-04   1.8670555e-04   1.5941700e-04   1.3842972e-04   1.7767759e-04   2.8846157e-04   1.2949230e-04  -6.5665983e-05   1.5980873e-04  -1.9590309e-04  -3.9374191e-04  -5.2178663e-04  -3.5198966e-05  -5.0142931e-04  -2.3343466e-04  -1.5448744e-05  -3.6122330e-04   2.6222732e-04   2.4769970e-04  -3.2929853e-05   1.2480700e-04   1.0576007e-04   8.2899160e-06  -2.1859063e-04  -4.6082269e-04  -3.5307746e-04  -3.6794774e-04  -6.9445516e-05   1.3650575e-04   9.7115582e-05  -1.5337038e-04   1.9449025e-04  -1.4106485e-04   7.7987788e-06  -1.1015723e-04   3.2951773e-04   3.7967690e-04   2.3087922e-04   2.0861486e-04   2.0138301e-04   4.6469687e-04   4.3053078e-04   7.4926991e-04   1.6834411e-04  -1.0095967e-04  -1.5993619e-04   3.0498230e-04   1.5049946e-04  -1.5340874e-04  -1.0854434e-03
   4.8255760e-04   3.4732220e-04   2.0414428e-04   2.0581092e-04   2.6295020e-04   3.8834193e-04   3.3464603e-04   2.9003693e-05   5.2777433e-04   9.4901618e-05  -1.6361712e-04  -3.2805823e-04   1.7019558e-05  -4.1711034e-04  -2.8390234e-04  -3.2203454e-05  -2.7005502e-04   2.4894762e-04   1.5641065e-04   2.4339395e-05   1.7253826e-04   1.3630433e-04   5.7203160e-05  -3.2176293e-04  -3.3838119e-04  -1.0620282e-04  -2.7503524e-04  -6.0281647e-05  -3.2499476e-05   6.5991124e-05   7.1363618e-05   2.4263842e-04   3.1831074e-05   2.7952350e-05  -3.6340345e-05   3.5105203e-04   2.7289227e-04   2.1810761e-04   3.7756024e-04   1.3461176e-04   4.3528667e-04   5.2515161e-04   4.5470987e-04   3.4140426e-04  -1.7153200e-04  -2.2890334e-04   4.2108499e-04  -3.5104781e-04  -2.5570867e-04   1.1101455e-04
   4.3759547e-04   2.6735765e-04   2.3412787e-04   1.5069387e-04   1.4616719e-04   3.0674555e-04   2.2943241e-04   2.6770847e-04   2.0783745e-04  -1.0639655e-04  -2.6176646e-04  -5.8239931e-04  -6.4632950e-05  -2.9546584e-04  -3.0684299e-04  -1.2116575e-04  -1.6187079e-04   2.3383874e-04  -1.8083769e-06  -6.6552151e-05   8.2381383e-05   2.5060677e-05  -8.6480341e-06  -3.0918972e-04  -1.9181384e-04  -2.7110474e-04  -4.1180398e-04  -1.1012930e-04  -8.6312968e-05   5.8592017e-05   2.7178804e-04   3.0511952e-04  -1.5376370e-04  -7.1004084e-05  -1.3433836e-04   1.8422891e-04   2.4836150e-04   1.4859381e-04   1.6579284e-04  -7.5440163e-05   6.3500018e-04   5.2345224e-04   5.9472735e-04  -3.6681254e-04  -3.6634679e-04  -4.3195827e-04   4.0095649e-04   4.6624301e-04  -4.4694569e-04  -1.5460476e-04
   4.2488190e-04   1.3955472e-04   1.2037341e-04   4.4222008e-05   7.5299227e-05   1.9190888e-04   1.2512019e-04  -1.9072628e-05   5.5573822e-05  -2.8114530e-04  -4.4199987e-04  -6.6234765e-04  -1.8113376e-04  -3.7340660e-04  -3.2163723e-04  -2.5732304e-05  -2.7339783e-04   2.4416580e-04   1.3939777e-04  -1.4115263e-04   4.1687726e-05   2.3625458e-05  -3.7016500e-05  -3.7554005e-04  -3.3236539e-04  -2.0988964e-04  -3.6421311e-04  -1.1034866e-04  -7.6723831e-05   5.5074794e-05   2.5917156e-04   3.1263183e-04  -7.5584758e-06  -1.1915400e-04  -1.2220073e-04   1.7078339e-04   1.8860295e-04   1.9234611e-04   2.9825536e-04   8.7048400e-05   6.2409637e-04   5.4969790e-04   3.6960546e-04   1.7478858e-04  -1.9417924e-04  -3.2196348e-04   4.9504830e-04  -3.6059666e-04  -8.8776805e-04  -8.8366069e-05
   5.1514973e-04   3.1970543e-04   2.3834415e-04   1.5191636e-04   1.8540099e-04   3.5103640e-04   2.3836391e-04  -6.2060484e-05   2.6875015e-04   6.8272893e-05  -2.3183769e-04  -4.2421065e-04  -6.0437244e-05  -3.2384344e-04  -3.4711999e-04  -2.3195868e-04  -2.1691185e-04   2.4852302e-04   5.2932213e-05  -7.2766241e-05   9.6543190e-05   2.3750905e-05   1.2493301e-04  -3.1811575e-04  -1.2058223e-04  -9.2138936e-05  -4.2270074e-04  -1.0569609e-04  -5.1902964e-05   8.5505664e-05   2.7765770e-04   3.0078640e-04  -3.9825820e-05  -2.8948731e-05  -1.3512373e-04   3.0243848e-04   1.0075509e-04   1.8589571e-04   3.5796876e-04  -1.4492843e-05   4.1821226e-04   5.8860995e-04   1.8277686e-04  -5.1332382e-04  -2.7047639e-04  -1.9337880e-04   4.5059572e-04  -7.6876036e-05  -2.0451192e-04   5.0953520e-04
   4.6602104e-04   2.7822054e-04   1.3900358e-04   1.0699789e-04   1.7392501e-04   2.3985004e-04   1.9219259e-04   1.7998388e-04   1.0477516e-04  -3.8274800e-05  -3.8936181e-04  -4.3391043e-04  -6.2297324e-05  -4.8119630e-04  -3.5107837e-04  -1.5189206e-04  -3.8787312e-04   2.3533702e-04   1.8173920e-04  -7.9481317e-05   9.8230470e-05   1.0420664e-05  -8.2410470e-06  -1.5197741e-04  -2.1591477e-04  -2.0985064e-04  -5.0818099e-04  -9.9313052e-05   4.2148936e-06   6.7671308e-06   5.0680821e-05   1.9821346e-04  -1.2360292e-04  -2.0650357e-04  -1.7276352e-04   1.0018688e-04   1.1821488e-04   1.4264639e-04   2.5005330e-04  -9.9357690e-05   3.8649884e-04   4.1254339e-04  -1.2520076e-04  -6.2620599e-04  -3.0039990e-04  -3.9876957e-04   2.1521574e-04  -1.3880954e-04  -8.1197609e-04  -3.0897939e-04
   3.4739854e-04   1.6676233e-04   1.1337829e-04   4.6238882e-05   1.6900100e-04   1.0998342e-04  -2.6466820e-05   3.0952950e-05   7.8275967e-05  -2.0738794e-04  -6.1397318e-04  -5.5208540e-04  -1.0192763e-04  -6.6667388e-04  -3.0657701e-04  -1.3706222e-05  -5.1423034e-04   2.3999259e-04   1.2643519e-05  -1.5665602e-04   6.7452609e-05   1.0720609e-04  -1.1946670e-04  -2.3898741e-04  -2.4962315e-04  -2.5017015e-04  -5.0961599e-04  -9.2467912e-05  -1.7606394e-04   1.8290404e-05  -1.0100520e-04   1.9794889e-04  -6.2704894e-05  -1.8572064e-04  -2.1677215e-04  -1.8356632e-05   9.2988463e-05   1.7827679e-04   2.6590680e-04  -1.5102375e-04   2.4772043e-04   2.8970448e-04   3.5697598e-05   5.1270832e-05  -2.3157899e-04  -3.7711934e-04   2.7392796e-04  -7.8049087e-04  -4.4250535e-04  -6.2218751e-04
   5.6559674e-04   3.8481090e-04   2.0937841e-04   1.8035015e-04   2.6659953e-04   2.5277949e-04   1.5612242e-04   2.0059818e-04   3.3446916e-04   1.7852381e-04  -3.4439098e-04  -3.0861105e-04   1.0766176e-04  -5.8858638e-04  -3.0793829e-04  -1.3930832e-04  -5.2763586e-04   2.3469438e-04   2.2018098e-04  -6.2992782e-05   1.5451269e-04   1.3660108e-04   7.5236247e-05  -1.1453744e-04  -3.5882069e-04  -2.9749889e-04  -5.2051811e-04  -8.7337008e-05  -2.5839231e-04  -6.3169435e-05  -8.2053855e-05   1.4137739e-04  -3.5709207e-05  -2.3760778e-04  -2.0015881e-04  -9.3678609e-06   2.5831665e-05   1.3885197e-04   2.4040845e-04  -8.4741740e-05   2.1040480e-04   3.3719366e-04  -3.1857126e-04  -2.5965611e-04  -2.0066672e-04  -6.9874455e-04   2.8255288e-04  -5.4498017e-04  -5.0761015e-04  -5.9931638e-04
   4.6088532e-04   3.2552343e-04   2.0091161e-04   1.2784448e-04   2.2463115e-04   2.6805213e-04   1.1787069e-04  -1.8258250e-05   2.1079114e-04   1.9481804e-05  -5.0321856e-04  -4.8458466e-04   3.4307108e-05  -5.0481193e-04  -2.9809980e-04  -1.3480628e-04  -4.9628853e-04   2.0388086e-04   5.1461026e-05  -1.2333861e-04   1.1620782e-04   1.1323401e-04  -3.7319747e-05  -2.6873956e-04  -2.3539481e-04  -2.7405235e-04  -4.2861793e-04  -7.0586757e-05  -7.1538758e-05  -4.8672038e-05  -5.1055940e-05   9.6986121e-05  -1.0259145e-04  -2.3602021e-04  -2.4434918e-04  -9.1020695e-05   4.1325591e-05   8.9566893e-05   2.0385919e-04  -2.1080246e-04   1.6375710e-04   2.0000215e-04  -7.0416759e-04  -4.9415999e-04  -4.7230715e-04  -6.3518813e-04   1.0559865e-04   1.0041515e-04  -1.0432695e-03  -2.1072429e-04
   4.5178051e-04   1.8385524e-04   1.1827456e-04   5.3226067e-05   1.3076789e-04   9.4370153e-05  -5.5960609e-06   1.8826306e-04  -4.5507459e-05  -1.6928175e-04  -6.8502571e-04  -6.3402316e-04  -5.7168738e-05  -4.6567500e-04  -3.4860786e-04  -1.2150415e-04  -5.5252726e-04   1.9106094e-04  -3.6274148e-05  -1.8590353e-04   6.5479806e-05   1.1784096e-04   1.9609279e-05  -2.7620423e-04  -1.8123131e-04  -3.2171517e-04  -4.8919360e-04  -9.5657291e-05  -2.4790032e-04  -8.9327681e-05  -1.8802537e-04   9.6570329e-05  -1.1249426e-04  -3.1643384e-04  -2.2922807e-04  -1.6587354e-04  -1.3402368e-05   2.5276651e-05   1.8748730e-04  -7.5437682e-05   1.3632978e-04   2.7238677e-04  -2.8980209e-04  -1.0124113e-04  -2.7041719e-04  -4.7593852e-04   3.1761758e-04  -2.1529268e-04  -3.0997852e-04  -6.5343390e-04
   6.0053653e-04   3.8915739e-04   2.2933757e-04   1.6878889e-04   2.3358774e-04   2.1260015e-04   1.1725899e-04   1.3077515e-04   3.6148683e-04   2.1560413e-04  -4.1096017e-04  -3.4600284e-04   1.3559031e-04  -5.3072663e-04  -2.7371984e-04  -1.3516970e-04  -5.6202267e-04   2.1459517e-04   9.9465906e-05  -5.7414120e-05   1.5800507e-04   1.5887411e-04   9.1012989e-05  -2.4903120e-04  -1.2944637e-04  -2.3991562e-04  -6.1496790e-04  -1.1374772e-04  -2.0682297e-04  -1.3464842e-04  -1.4504945e-04   1.1724814e-04   2.9334284e-05  -1.8124371e-04  -1.8999021e-04  -9.7443059e-05   4.0269471e-05   1.0723586e-05   1.5398032e-04  -1.4682175e-04   2.4607245e-04   2.4969241e-04   2.8814911e-06  -2.9970304e-05  -2.8141655e-04  -4.5513365e-04   2.0679043e-04  -6.8866524e-05  -8.9900696e-04   1.1017988e-04
   4.7766630e-04   3.4685768e-04   2.2906199e-04   1.5807200e-04   2.2276785e-04   1.3332200e-04   7.0748531e-05   1.6184447e-04   7.0725109e-05   8.0676626e-05  -5.3423911e-04  -4.2141005e-04   1.7614309e-04  -5.9848453e-04  -2.9834246e-04  -2.1032548e-04  -6.0108176e-04   1.8524079e-04   9.4341078e-05  -8.7548920e-05   1.2917943e-04   1.3290298e-04   1.0016298e-04  -2.4328069e-04  -2.2681929e-04  -3.6284947e-04  -5.5820768e-04  -8.0083875e-05  -1.8765415e-04  -1.5639320e-04  -1.1986370e-04   3.8797061e-05  -8.6989203e-05  -3.0289253e-04  -2.4922416e-04  -2.3210639e-04  -7.4804950e-05  -4.7209367e-05   1.3153478e-05  -7.5307507e-05   1.5293910e-04   2.0997734e-04   3.2909104e-04  -8.3504932e-04  -3.9673579e-04  -6.2432315e-04   6.0938746e-05  -3.2056432e-04  -2.5312707e-04  -7.5515342e-04
   4.0929142e-04   2.1444709e-04   1.4488489e-04   9.1141839e-05   1.8051987e-04   3.2966891e-05  -2.7653743e-05  -9.6109754e-05   1.5386131e-04   1.4220085e-05  -6.4011395e-04  -4.7441057e-04   7.4305077e-05  -5.5656245e-04  -3.7677601e-04  -9.1823269e-05  -6.5850484e-04   1.5717867e-04   1.6506901e-05  -1.1462430e-04   8.9553578e-05   1.4226326e-04   4.2793101e-05  -2.2448199e-04  -4.1314765e-04  -2.9773166e-04  -5.6512101e-04  -1.3008757e-04  -3.8074824e-04  -1.7509126e-04  -2.4682737e-04   4.6212506e-05  -8.2876257e-05  -1.9500052e-04  -2.4245758e-04  -1.1105200e-04  -2.2409138e-05  -5.5067525e-05   7.6245888e-05  -1.5508459e-04   1.6986532e-04   3.1393603e-04   2.7644844e-04  -8.3778909e-04  -1.8545012e-04  -4.5590961e-04   2.1994082e-04  -8.2916504e-04  -6.0116895e-04  -6.8056608e-05
   5.8882992e-04   4.0449720e-04   1.7815453e-04   1.9539747e-04   2.2485448e-04   1.9859408e-04   7.3278330e-05   1.9505539e-04   4.1147156e-04   2.2034340e-04  -4.4338559e-04  -3.1251213e-04   2.0367058e-04  -5.6590198e-04  -2.7220702e-04  -1.1282304e-04  -6.2668195e-04   1.8548117e-04   8.1754799e-05  -1.9821950e-05   1.4990231e-04   2.0634303e-04   9.9589997e-05  -1.2110285e-04  -2.1935662e-04  -2.5162290e-04  -7.0626760e-04  -7.3598385e-05  -5.8660757e-05  -1.5709962e-04  -2.4664943e-04   2.6271842e-05   1.8379800e-05  -2.3882611e-04  -1.1849919e-04  -2.5191992e-05   1.2311850e-05  -3.2922726e-05   7.1606730e-05  -2.6587583e-04   3.3817836e-04   3.1248177e-04  -1.3561420e-05  -6.4341706e-04  -2.5644249e-04  -5.0021743e-04   2.3721099e-04  -4.3268068e-04  -5.1665673e-04  -7.8682700e-04
   4.5278698e-04   3.3764762e-04   1.6664815e-04   1.9248230e-04   1.7838988e-04   1.7701478e-04  -2.6427866e-05   3.7496586e-06   1.7008616e-04   5.8225618e-05  -5.7469757e-04  -4.2285485e-04   2.0051200e-04  -6.3632161e-04  -3.6900555e-04  -1.1021509e-04  -6.8001688e-04   1.5159737e-04   3.7413087e-05  -6.1142026e-05   1.1339759e-04   1.9587725e-04   1.1374609e-04  -2.4781335e-04  -3.3373816e-04  -3.7844476e-04  -5.1500037e-04  -6.5499196e-05  -3.0494755e-04  -2.3375008e-04  -2.7531284e-04   1.6818778e-05  -2.2973647e-04  -2.7428899e-04  -2.4597900e-04  -1.5990502e-04   2.5535171e-06  -6.6386827e-05  -6.9403730e-05  -3.3690347e-04   4.8612546e-05   2.0237220e-04   8.9240657e-06  -1.2408878e-03  -3.5287507e-04  -7.5396168e-04   1.2090519e-04  -3.3390187e-04  -1.4244978e-05  -1.9654527e-04
   4.1681787e-04   2.9322942e-04   1.4528005e-04   1.8013071e-04   2.5320982e-04   1.2607611e-04   2.7607595e-05   8.0821395e-05   1.8902359e-04   1.6931392e-04  -5.2302220e-04  -3.2803303e-04   2.6629685e-04  -6.3506886e-04  -3.0021774e-04  -1.4996328e-04  -7.3400326e-04   1.6607197e-04   5.1965413e-05  -3.6503374e-05   1.2034544e-04   1.9080011e-04   5.6603218e-05  -1.2969210e-04  -3.4299761e-04  -2.2974459e-04  -7.1573944e-04  -8.2764389e-05  -8.9272944e-05  -1.5814048e-04  -3.6224697e-04   2.4743891e-05   5.6429937e-05  -2.0134404e-04  -1.9465217e-04   8.0348967e-05  -2.0767146e-04  -1.2350149e-04  -2.0822241e-05  -2.0261048e-04  -5.7113906e-05   3.7068757e-04   2.2872777e-04  -7.9436177e-05  -1.2651212e-04  -4.9868255e-04   2.9453650e-04  -6.8357744e-04  -7.2589505e-04  -3.4983095e-04
   4.2817998e-04   4.2908810e-04   2.2000996e-04   2.6405216e-04   2.1352485e-04   1.6279811e-04   1.0794030e-04   1.1482785e-04   2.3956659e-04   2.1871817e-04  -4.4884896e-04  -2.7127031e-04   3.0914517e-04  -5.2860659e-04  -3.2168094e-04  -8.6042477e-05  -6.3016778e-04   1.7142750e-04   1.2226184e-04   1.2687351e-05   1.3476879e-04   1.8556032e-04   1.4748826e-04  -1.6833826e-04  -2.2139646e-04  -2.7752857e-04  -5.4122176e-04  -5.4162581e-05  -3.3453913e-04  -1.4890764e-04  -2.6294909e-04   4.3863697e-06   3.4611185e-05  -1.6753319e-04  -1.1181816e-04   9.0332425e-05  -2.7720362e-04  -7.8362151e-05  -6.7222347e-05  -2.9974608e-04   2.0376220e-04   3.5202457e-04   1.1737170e-04  -4.2465123e-04  -1.7858809e-04  -1.8418393e-04   1.8592400e-04   3.8335918e-05  -7.4334838e-04  -2.8321394e-04
   3.4023734e-04   3.1083231e-04   1.6653349e-04   1.9716790e-04   1.4461669e-04   7.5098746e-05   1.0241109e-05   5.3115877e-05   8.9938687e-05  -4.4927434e-05  -6.1128859e-04  -5.3256337e-04   1.8790450e-04  -4.5010418e-04  -3.1344307e-04  -1.2333623e-04  -5.3421187e-04   9.5108087e-05   7.2080933e-05  -1.0843336e-04   4.2598367e-05   9.8867713e-05   1.4800040e-04  -3.4938820e-04  -2.4402904e-04  -2.2039590e-04  -5.0144724e-04  -7.7306104e-05  -4.0329530e-04  -1.4722688e-04  -2.6625954e-04  -2.0306656e-05  -3.7066173e-05  -3.2039167e-04  -1.9718276e-04   1.1268562e-04  -2.5027621e-04  -1.9398118e-04  -2.3361452e-05  -3.5106955e-04   1.9355220e-04   3.0341241e-04   6.9786736e-04  -4.7789094e-05  -2.3829874e-04  -5.4112554e-04   2.2758027e-04  -7.5076881e-04  -6.0332235e-04  -5.5005483e-04
   2.9932352e-04   3.5799987e-04   1.8158999e-04   2.0735017e-04   1.8094925e-04   1.6601200e-04   5.0824667e-05   2.9157813e-05   2.5752900e-04   1.6011397e-04  -4.2311032e-04  -3.7745576e-04   2.4752258e-04  -4.0972073e-04  -2.3105938e-04  -6.4851549e-05  -4.8464563e-04   1.1493598e-04  -5.4926983e-05  -1.9786610e-05   7.1593247e-05   1.2925116e-04   2.2745115e-04  -1.4966162e-04  -2.6055326e-04  -1.9119770e-04  -4.3422953e-04  -4.7257981e-05  -2.3842209e-04  -1.1430596e-04  -1.8914690e-04   1.1196317e-04   5.6750847e-05  -6.3052357e-05  -1.4501793e-04   2.5386666e-04  -1.6929983e-04  -1.7807478e-04   8.6323220e-05  -3.3525020e-04   3.0436661e-04   5.7932601e-04  -1.7839313e-05  -1.7776930e-04  -1.5633360e-04  -1.7362309e-04   3.5146569e-04   6.4345382e-05  -9.3378658e-05  -6.2891276e-04
   4.1039730e-04   3.9187423e-04   1.6422864e-04   2.5098078e-04   1.8238154e-04   2.1024465e-04   8.9915775e-05   1.0542027e-04   2.5412344e-04   7.7369667e-05  -4.2502317e-04  -3.6915892e-04   2.8644042e-04  -4.6634488e-04  -2.6666818e-04  -8.4209925e-05  -4.7902096e-04   1.4045858e-04   1.2566432e-05   3.1317009e-05   6.2858489e-05   1.4244099e-04   1.2689763e-04  -3.2230010e-04  -2.5486288e-04  -1.6454545e-04  -3.6906786e-04  -4.4025423e-05  -2.2377656e-04  -1.3504633e-04  -1.9005970e-04   5.4740278e-05   4.0653533e-05  -7.0361217e-05  -1.3742510e-04   1.3763875e-04  -1.4864140e-04  -1.0198114e-04   6.1286728e-06  -3.0469993e-04   2.2068125e-04   4.6840301e-04   5.4651103e-04  -1.0952280e-03  -1.7615894e-04  -4.6575803e-04   3.6072850e-04   2.0042778e-04   1.2874095e-04  -4.3190274e-04
   2.1007058e-04   2.8522374e-04   1.3693610e-04   1.9695476e-04   1.4776710e-04   7.7278339e-05  -3.1121413e-05  -1.3435255e-04   6.2261861e-05  -1.3370979e-04  -5.8080896e-04  -4.8543411e-04   1.6486709e-04  -3.8179790e-04  -2.8528363e-04  -4.8013528e-05  -5.0557946e-04   1.1311153e-04  -1.6035273e-04  -7.4026204e-05  -9.4506668e-06   6.9519869e-05  -9.8357785e-05  -2.9042829e-04  -1.3728098e-04  -2.7301867e-04  -3.8924286e-04  -2.9337833e-05  -2.4628587e-04  -1.8989466e-04  -2.5108052e-04   2.4093080e-05  -2.3214167e-04  -1.4961245e-04  -1.9186240e-04   7.2806986e-05  -6.6674758e-05  -1.2860283e-04  -3.4706468e-06  -3.1803350e-04   5.3664471e-04   4.4115874e-04  -1.4477324e-05  -3.9535895e-05  -1.5476091e-04  -2.0673443e-04   3.4759546e-04  -1.3087768e-04  -3.3785574e-04   1.3692967e-04
   4.0487564e-04   3.5745720e-04   1.4107043e-04   2.3136161e-04   1.8334582e-04   1.6887535e-04   5.9288515e-05  -6.2548082e-05   3.2888175e-04   1.3207915e-04  -3.3881114e-04  -2.8073980e-04   2.4975202e-04  -2.8909423e-04  -2.7145611e-04  -1.1992491e-04  -3.8000077e-04   1.3945808e-04   5.5696128e-05   4.4070926e-05   2.4476220e-05   9.2250499e-05   3.2069054e-04  -2.5541155e-04  -1.7131619e-04  -8.4779189e-05  -3.4298492e-04  -2.1354141e-05  -9.7113443e-05  -7.2085204e-05  -1.4948768e-04   1.2356785e-04   2.1716589e-04   7.7276172e-06  -3.5761193e-05   3.4640840e-04   5.0302810e-05  -9.6699921e-05  -1.6141365e-05  -1.8260117e-04   5.6905189e-04   6.2799244e-04   4.2196148e-04   1.9998477e-04  -3.5355333e-05  -8.5163942e-05   4.3044839e-04   3.7378809e-04  -2.7007051e-04   4.8536240e-05
   2.9381059e-04   3.9097402e-04   1.5849347e-04   2.6713670e-04   1.8796856e-04   2.4706020e-04   4.3606546e-05   2.1447951e-04   2.0247053e-04   3.6657053e-05  -3.6253428e-04  -2.4127173e-04   2.8294543e-04  -4.9384771e-04  -2.1261076e-04  -8.3991566e-05  -4.6478570e-04   1.4039896e-04   4.9915543e-05   1.0147275e-04   3.9369468e-05   6.2946870e-05   1.5666087e-04  -9.7284865e-05  -2.4871674e-04  -1.6687055e-04  -5.6275341e-04  -9.3408184e-05  -2.0742886e-04  -8.6141423e-05  -2.7065241e-04   1.3005927e-04  -4.5725727e-05  -9.6304881e-05  -4.6816669e-05   3.1102047e-04  -3.8125811e-05  -2.1594680e-05   9.2393560e-07  -3.1777291e-04   4.3828713e-04   5.3634268e-04   3.6815522e-04  -1.8749216e-04  -9.6074487e-05  -2.6247208e-04   3.5877983e-04  -1.5456942e-04  -4.8329137e-04  -1.6322410e-03
   3.4232545e-04   2.9387782e-04   8.8433262e-05   2.1291198e-04   1.2507154e-04   2.0497465e-04  -8.1092030e-06  -1.5055107e-04   6.2324284e-06  -1.8397150e-04  -5.6201086e-04  -3.8189074e-04   2.4285626e-04  -4.7985351e-04  -2.8180931e-04  -5.1905234e-05  -5.2720896e-04   1.1966193e-04  -3.9870763e-05  -1.7906999e-05  -2.0737409e-05  -2.9525761e-05  -5.3900840e-05  -2.0155504e-04  -2.8935692e-04  -3.5854251e-04  -4.0586572e-04  -4.5901357e-05  -1.8708101e-04  -1.4135239e-04  -1.8213179e-04   8.8106935e-05  -1.0120203e-04  -1.2217548e-04  -9.4444062e-05   2.6938308e-04  -1.2064156e-04  -4.1588319e-05  -7.7490084e-05  -2.1949157e-04   2.8683635e-04   5.5798673e-04   2.0214323e-04  -4.8881141e-04  -2.7063857e-05  -7.2319635e-05   4.1070144e-04  -3.3046512e-05   5.5548622e-05   7.1999681e-04
   5.1528693e-04   3.7818032e-04   1.2300533e-04   2.6565284e-04   2.0043211e-04   2.5028462e-04   9.4480245e-05  -3.2847438e-05   3.5757534e-04   4.4999611e-05  -3.2082951e-04  -2.4349506e-04   3.1427463e-04  -3.4211954e-04  -2.7550184e-04  -8.1050959e-05  -4.3037508e-04   1.3439983e-04   2.4100830e-04   9.3130831e-05   9.1207676e-06   4.6540881e-05   1.5183444e-04  -5.9288705e-05  -2.5366287e-04  -1.1778309e-04  -5.4616667e-04  -5.6483430e-05  -1.2623332e-04  -4.4165099e-05  -2.3056412e-04   1.3741896e-04  -1.0811939e-04  -3.6058980e-06  -1.3290767e-05   3.5627923e-04  -2.9595647e-05   9.4950514e-07   4.7264712e-06  -1.8675832e-04   4.8247789e-04   6.2862056e-04   4.1183856e-04  -2.7676008e-04   3.4258726e-05  -2.8158887e-04   3.8672733e-04   2.3523622e-04  -1.2474482e-04  -2.6062541e-04
   3.3270926e-04   3.9685125e-04   1.3543222e-04   2.8773802e-04   1.6724964e-04   2.4773058e-04   7.4061172e-05   3.1525702e-05   2.4233064e-04  -8.0571604e-05  -3.7897218e-04  -2.9415012e-04   3.2553778e-04  -4.8646258e-04  -3.2349527e-04  -7.2874966e-05  -4.4529550e-04   1.2320909e-04   1.6996427e-04   1.2449121e-04   1.4885920e-06   5.1750583e-05   8.8595254e-05  -8.3371939e-05  -3.2539494e-04  -1.3286469e-04  -5.3911377e-04  -4.1752402e-05  -2.9943185e-04  -5.8367295e-05  -2.3631901e-04   1.0897120e-04  -1.7249836e-04  -1.0306929e-04   6.6904527e-06   2.8944595e-04   2.1580605e-05  -3.7583344e-05  -3.7552265e-05  -2.4464863e-04   4.9741322e-04   5.6794885e-04   1.1474681e-04  -2.4653479e-04  -5.9238850e-05  -1.0106784e-04   3.2415410e-04  -4.5441274e-04  -2.5488687e-04   3.5353758e-05
   3.2267621e-04   2.8340137e-04   7.5886666e-05   2.0589415e-04   1.6068299e-04   1.3370093e-04  -2.1871541e-05   2.3677660e-05  -7.6350807e-06  -2.6461008e-04  -5.6587666e-04  -4.0266791e-04   1.9918421e-04  -5.4799212e-04  -2.0021836e-04   2.1908079e-05  -5.6444923e-04   1.1759344e-04   5.8409463e-05   1.6179371e-05  -3.7244776e-05  -8.2310962e-06   5.4097865e-05  -4.4280983e-05  -2.9139538e-04  -2.5017263e-04  -4.8473023e-04  -4.8388338e-05  -1.6151325e-04  -2.4713700e-05  -3.8357615e-04   9.9813282e-05  -2.0610457e-04  -8.9534784e-05  -4.9079641e-05   3.0778398e-04   3.2104293e-05  -5.0978801e-05  -9.5129370e-05  -2.1946013e-04   1.5108436e-04   6.0819142e-04  -3.8101149e-04  -2.1222627e-04   7.1685150e-05  -1.0510148e-04   3.6495959e-04   1.9768912e-04   1.0825120e-04   6.6700199e-04
   3.5190058e-04   4.2128976e-04   7.2990631e-05   2.7166257e-04   1.9120284e-04   2.4415684e-04   1.2761392e-04   5.2278123e-05   2.6727753e-04   4.4599743e-05  -2.8475595e-04  -1.5651042e-04   4.1417152e-04  -6.2049914e-04  -3.4265971e-04  -4.7878668e-05  -5.1979680e-04   1.5628827e-04   1.0434207e-04   1.4516445e-04   2.7037591e-05   1.5496080e-05   1.1179676e-04  -2.4803259e-05  -2.7439307e-04  -3.7048725e-05  -5.1690312e-04  -6.2138453e-05   1.0821856e-05   7.4500035e-06  -3.1451116e-04   1.4453435e-04  -1.3876037e-04   1.7800040e-06   5.3843261e-05   3.9274167e-04   8.4633895e-05  -9.9832441e-06   1.2758021e-06  -1.3890961e-04   4.0861548e-04   6.0357153e-04   8.7326182e-05   6.9348143e-06   1.1965596e-04  -2.9156610e-05   4.4667011e-04  -2.9356845e-04  -4.5950391e-04  -5.2716314e-05
   4.9740280e-04   3.9928616e-04   7.2164607e-05   2.7938664e-04   1.8724166e-04   1.3863800e-04   9.9007331e-05  -3.4594592e-05   2.4023351e-04  -9.3038252e-05  -4.1109440e-04  -2.9177417e-04   3.2067450e-04  -4.5288916e-04  -3.4955569e-04  -3.6068093e-06  -4.4785670e-04   1.4930850e-04   1.0474250e-05   6.1315448e-05  -1.2937211e-06   1.5899786e-05   9.5009476e-05  -7.0787013e-05  -2.5770947e-04  -1.4689281e-04  -4.6475235e-04  -2.4862367e-05   1.0753444e-04  -5.3055510e-06  -2.3228556e-04   1.0832848e-04  -2.0638228e-04  -4.6641817e-05  -1.8285911e-05   3.4931116e-04   2.4159679e-05   1.5949869e-05  -1.8414843e-05  -2.1035681e-04   2.8498654e-04   6.7495328e-04   4.1365283e-04  -3.4633724e-04  -2.6485717e-05  -2.6425687e-04   3.2096118e-04   1.9049400e-04  -1.4511532e-04   4.5135104e-05
   4.0680059e-04   2.5857682e-04  -2.4416780e-05   1.5086020e-04   1.2157265e-04   8.1236314e-05  -8.3954492e-06   1.7417769e-04  -1.3923009e-05  -2.9546570e-04  -5.9435720e-04  -5.0312851e-04   1.5631921e-04  -5.7665451e-04  -4.1846797e-04  -1.4552475e-05  -4.6180713e-04   1.3865167e-04   3.7333786e-05  -3.7451682e-05  -6.4875436e-05  -3.6019119e-05  -6.1918021e-05  -2.4394090e-04  -1.6118023e-04  -7.1391863e-05  -4.1434521e-04  -2.3705114e-05  -9.4658353e-05  -6.7541682e-06  -1.9635397e-04   1.4145306e-04   7.2882154e-05  -3.9265960e-05  -2.9298481e-05   4.5962998e-04   8.3597435e-05   2.6667671e-05   1.3112245e-04  -2.5640719e-04   7.6020980e-04   6.9475704e-04   8.4296637e-04  -1.2870002e-04   6.3356740e-05  -8.2691695e-05   3.9868816e-04  -2.2645088e-04  -2.5148807e-05  -1.2118505e-04
   4.6005609e-04   4.2688777e-04   6.8088368e-05   2.6478374e-04   1.6880048e-04   2.0911089e-04   1.2474670e-04  -5.0878894e-05   2.8194772e-04   3.4631670e-05  -3.1616219e-04  -2.6918142e-04   2.8212249e-04  -4.5227315e-04  -3.5884240e-04  -6.4796186e-05  -3.7178694e-04   1.5515056e-04   1.5872155e-04   4.6760870e-05   6.3950856e-06  -1.4701412e-05   3.0172532e-05  -1.2289413e-04  -1.9414583e-04  -8.3056228e-05  -5.1071728e-04  -7.5340533e-05   7.4740969e-06   7.3259063e-05  -2.5971825e-04   2.0023843e-04  -2.6989341e-04   2.4723313e-05   1.7569357e-05   5.4772850e-04   6.7014153e-05   6.9027163e-05   1.1807653e-04  -2.0635473e-04   6.9118745e-04   7.2986371e-04   2.7322234e-04   5.6177574e-05   6.6534696e-05  -2.4859403e-04   4.7855338e-04   8.2789606e-04   6.5468426e-05   8.8552384e-05
   4.4346313e-04   3.5472054e-04   2.8006923e-05   1.8423247e-04   1.1461423e-04   1.3326305e-04   6.6530847e-05   6.1009373e-06   9.8204015e-05  -1.0263915e-04  -4.2708337e-04  -3.8512063e-04   2.1734473e-04  -4.3588484e-04  -2.8855156e-04  -1.6028169e-05  -3.4855050e-04   1.4225364e-04   1.2985549e-06  -2.9826220e-05  -3.4650009e-05  -9.8270626e-05  -5.1370636e-05  -1.5557803e-04  -1.4621054e-04  -1.2196718e-04  -3.1142571e-04  -2.5981370e-05  -9.1724462e-05   6.2743652e-06  -9.2877621e-05   1.9428247e-04  -1.4913718e-04  -1.0675126e-04   1.1408870e-05   3.3676974e-04   1.9624743e-04   6.7152330e-05   8.8833389e-05  -1.4070264e-04   5.7201937e-04   7.2914938e-04   1.0201843e-04  -8.2357880e-04  -1.7663595e-04  -1.4976031e-04   2.9264501e-04  -1.4869646e-04   8.2310307e-06   3.5134776e-04
   2.4035663e-04   2.0965224e-04  -7.0144866e-05   7.9592894e-05   4.5559245e-05   1.7843087e-05  -3.3740424e-05  -1.4220774e-05  -1.9400871e-04  -3.1430312e-04  -6.3466205e-04  -5.7532632e-04   1.8390871e-05  -4.2167114e-04  -3.3058756e-04  -3.1859629e-05  -3.4092765e-04   1.3949747e-04  -1.0137365e-04  -1.7031463e-04  -1.0855473e-04  -2.0960352e-04  -1.9121289e-04  -2.9476229e-04  -1.2070512e-04  -1.5935906e-04  -3.6974569e-04  -3.6438487e-05  -1.7566023e-04   5.1816849e-05  -4.7416856e-05   1.9985189e-04   4.5147131e-05  -5.1404892e-05  -1.1900395e-04   4.6723738e-04  -3.6200294e-05   2.7307944e-05   1.0331032e-04  -1.9486074e-04   7.4474298e-04   7.1772106e-04   4.1869254e-04   1.8254189e-04  -1.3002080e-04  -4.8277252e-05   4.6729101e-04  -4.7346613e-05  -5.9219066e-04   3.2364804e-04
   4.0023716e-04   3.7230301e-04  -1.0803360e-05   1.6446869e-04   1.4353245e-04   1.4860026e-04   1.5367297e-04  -1.8797319e-04   1.8057032e-04   8.1858270e-05  -3.0440139e-04  -3.0297143e-04   1.3640395e-04  -3.3649636e-04  -2.4517343e-04  -1.1668090e-04  -2.3123690e-04   1.4472521e-04   8.8948518e-06  -7.9339894e-05  -3.1912281e-05  -1.3045737e-04  -6.1962382e-05  -1.9313299e-04   1.8883106e-06   1.9201239e-05  -4.0468230e-04  -3.6210560e-05  -1.0917518e-04   1.1194520e-04   2.6331622e-06   2.7297690e-04  -2.1651237e-04   6.6224180e-05  -2.2334589e-05   4.2838044e-04   1.1977936e-04   3.0805779e-06   1.5214266e-04  -6.5804532e-05   9.2142838e-04   8.0191827e-04   3.6817754e-04  -6.9953030e-04  -8.7589462e-05   1.3785984e-04   4.8405412e-04   2.3217802e-04  -7.8064862e-05  -1.1182913e-03
   3.0766157e-04   3.2573368e-04   9.8177516e-06   1.1753799e-04   7.9292528e-05   1.4724783e-04   1.7883180e-05   9.9012381e-05   1.1541119e-05  -4.5892546e-05  -4.0663258e-04  -3.9135147e-04   8.0168444e-05  -3.7169742e-04  -3.0018826e-04  -3.8561757e-05  -2.0397028e-04   1.3325710e-04  -1.2109568e-04  -1.4115532e-04  -6.2606028e-05  -1.6466092e-04   2.6828493e-05  -1.6629309e-04  -1.8384093e-05  -2.6916437e-05  -3.2713590e-04  -3.7476886e-05  -1.3248141e-04   8.2164552e-05   8.1226535e-05   2.2230884e-04  -7.0243303e-05  -2.0042777e-05  -1.4978593e-04   3.9331362e-04  -1.9906656e-05   4.5162175e-05   1.2964147e-04  -1.1584305e-04   6.8726513e-04   7.4815960e-04   5.1833800e-04  -3.2958057e-04  -2.1640425e-04  -1.8064490e-04   3.9213343e-04  -9.8318269e-04  -4.9602293e-04   2.7330726e-04
   3.9019965e-04   1.8345911e-04  -1.0473139e-04   8.8262168e-06   7.8867388e-06   2.3535449e-05  -1.0049382e-04  -1.6218111e-04  -1.7790962e-04  -2.3130709e-04  -5.9600553e-04  -4.9799104e-04  -5.8093821e-05  -4.5131653e-04  -3.2908237e-04  -1.2070321e-04  -2.8761645e-04   1.1837630e-04  -1.7697641e-04  -2.3529207e-04  -1.1702573e-04  -2.8382492e-04  -1.3209262e-04  -2.8677681e-04  -7.3576659e-05  -1.9233082e-04  -2.9491060e-04  -1.9047955e-05  -1.7669583e-04   5.9122951e-05   2.1648693e-05   2.0097791e-04  -1.8339709e-04  -2.0332887e-05  -1.8010603e-04   2.4761030e-04  -6.6769077e-05   7.2694253e-05   1.1539954e-04  -3.0664564e-04   6.5145548e-04   7.4724649e-04   6.2087254e-04  -9.4255491e-04  -1.6609613e-04  -7.1080125e-05   4.3626572e-04   5.3922617e-04  -9.2440180e-04  -1.0224022e-03
   3.9347523e-04   3.3443220e-04  -5.8223468e-06   7.2021699e-05   8.7345739e-05   1.4801744e-04  -2.7369277e-05  -2.3755011e-04   1.5706761e-04   1.5387242e-04  -3.0215553e-04  -1.9804161e-04   6.5066946e-05  -4.0262233e-04  -4.0794199e-04  -2.2660731e-04  -2.3555743e-04   1.3095159e-04  -2.1491278e-04  -1.2942469e-04  -4.9095372e-05  -1.7318162e-04   6.4003957e-06  -1.1220543e-05   3.8144670e-05  -3.4705467e-06  -3.1354240e-04  -4.9898641e-05  -1.0357561e-04   1.2866425e-04   2.0229765e-05   2.8391508e-04  -2.4181517e-04  -2.0900399e-05  -1.8963442e-04   3.1288798e-04   1.4016552e-04   6.5964676e-05   2.0480168e-04  -1.5948343e-04   6.8513479e-04   6.9286983e-04   5.8682548e-04   4.8797976e-04  -2.0405908e-04   8.2603343e-05   4.4788391e-04   3.0762458e-04   8.4821047e-05  -2.9520938e-04
   4.5965688e-04   3.1390678e-04  -6.9294350e-05   6.1642946e-05   7.2792573e-05   1.6932572e-05  -1.1567876e-05  -1.9462341e-04   4.1280055e-05   3.6967271e-05  -4.3011751e-04  -2.2137097e-04   6.8405541e-05  -5.4724154e-04  -3.6323248e-04  -1.5779925e-04  -3.4293672e-04   1.3217849e-04  -4.3518384e-04  -1.3541922e-04  -3.6488269e-05  -1.9634014e-04   1.3167341e-05  -4.4124841e-05  -5.3703388e-05  -1.5020944e-04  -4.5361344e-04  -5.9664209e-05   1.1514198e-05   1.0053380e-05  -6.6421941e-05   1.2709468e-04  -2.3877982e-04  -8.1805440e-05  -1.5976424e-04   2.2019562e-04   2.9318966e-05   4.0607250e-05   9.1294314e-05  -2.8717672e-04   2.3131138e-04   5.5818778e-04  -6.5740613e-05  -7.5073756e-04  -3.0828392e-04  -3.0770415e-04   3.4092620e-04  -1.3559972e-04  -7.3921500e-04  -2.0008199e-03
   4.0744778e-04   2.1416317e-04  -1.3577790e-04  -2.6455871e-06   1.4330263e-05  -6.9605405e-05  -1.8008813e-04  -1.3093432e-04  -1.9432449e-04  -1.4893107e-04  -6.5163622e-04  -3.3377300e-04   1.1924495e-05  -6.8684225e-04  -5.1662175e-04  -1.2314034e-04  -5.0913525e-04   1.0595623e-04  -2.8220800e-04  -2.0766017e-04  -8.9917667e-05  -2.4836283e-04  -2.6786551e-05  -1.0298943e-04  -2.0801432e-04  -2.3445717e-04  -5.2387500e-04  -7.0834263e-05  -8.7068502e-06   4.5127155e-05  -2.5217698e-04   1.3983800e-04  -5.2683591e-04  -1.1945046e-04  -2.3618748e-04   1.6109766e-04  -6.8209920e-05   5.6457895e-05   1.8736768e-04  -1.6107738e-04   3.4081558e-04   6.1094237e-04   1.1297777e-04  -6.9546273e-05  -1.9100343e-04  -3.8698377e-04   3.1738068e-04  -3.0644613e-04  -5.9613987e-04  -6.0852943e-04
   5.1834685e-04   3.7272309e-04  -6.2205923e-05   1.0184859e-04   1.4322791e-04   1.0378563e-04  -2.2939271e-06  -1.0599654e-04   9.3158036e-05   1.8027402e-04  -4.3507211e-04  -7.0293841e-05   1.7239376e-04  -7.9781038e-04  -4.5172297e-04  -1.8346612e-04  -5.3128559e-04   1.1172188e-04  -2.8674089e-04  -9.8373086e-05  -4.8489287e-06  -1.2070430e-04   4.3212171e-05   1.7590757e-05  -1.4474381e-04  -8.7865868e-05  -5.8325374e-04  -9.3111455e-05  -1.7624526e-04   4.4810364e-05  -3.0763602e-04   1.2295751e-04  -1.9675658e-04  -4.6722907e-05  -1.6729957e-04   9.1327063e-05  -1.5614876e-04   1.1630909e-04   1.2536894e-04  -2.8903238e-05   3.4916415e-04   5.8519584e-04  -1.8633588e-04  -1.0496285e-03  -2.1990480e-04  -5.8894657e-04   2.3972032e-04   1.1659343e-04  -5.3212681e-04  -2.2760130e-04
   4.3718985e-04   3.4744336e-04  -6.8315050e-05   8.8644629e-05   1.1277146e-04   3.7030310e-05  -6.2421088e-05  -3.1382759e-04  -9.8573488e-05   3.1899592e-05  -5.9546920e-04  -2.0828913e-04   1.3442415e-04  -7.8451325e-04  -4.3200530e-04  -1.5484837e-04  -5.8870990e-04   1.0162230e-04  -3.1785850e-04  -1.3708718e-04  -2.1758950e-05  -1.3845717e-04  -3.0765689e-06   1.1178579e-04  -2.6634312e-04  -1.6693991e-04  -6.1121542e-04  -8.2194150e-05   8.1508399e-05   5.4365401e-06  -3.3218300e-04   2.0090396e-05  -4.0941875e-04  -2.5009672e-04  -2.5539091e-04  -8.8269589e-06  -5.7660738e-05   1.5397152e-05   6.0923237e-05  -2.5750345e-04   3.7420430e-04   3.4154020e-04   4.1617575e-05  -5.2774366e-04  -3.6436689e-04  -6.8253936e-04   1.6114612e-04  -7.7776797e-04  -4.8994744e-04  -1.3386423e-03
   4.0284102e-04   2.3394662e-04  -1.3135189e-04   1.5144889e-05   3.3255579e-05  -3.2427888e-05  -1.9277997e-04  -2.9945074e-04  -2.6791618e-04  -1.8390329e-04  -8.0046919e-04  -3.8095511e-04   2.4813742e-05  -8.4630377e-04  -6.0619268e-04  -1.3954444e-04  -6.3992711e-04   9.6573727e-05  -5.4018653e-04  -1.9651250e-04  -7.8628320e-05  -1.8207903e-04  -6.2646272e-05  -4.9719853e-05  -2.6405501e-04  -2.3774050e-04  -5.8648019e-04  -1.0552814e-04  -2.6403498e-04  -4.9131158e-05  -3.9024101e-04   7.8707781e-05  -2.9498275e-04  -2.5222223e-04  -2.9107559e-04   1.9842411e-04  -1.0132580e-04   1.9871841e-05   7.1018461e-05  -2.3839936e-04   1.9170369e-04   4.2790218e-04   1.3256144e-04  -4.4875694e-04  -1.8004293e-04  -6.3194858e-04   1.4934101e-04  -1.7646085e-04  -4.4700172e-04  -9.3250995e-04
   4.5112436e-04   4.1450874e-04  -6.7436544e-05   1.1491025e-04   1.3625923e-04  -5.7037828e-06  -1.7218266e-05  -1.6347933e-04   4.3707052e-05   1.0924294e-04  -5.7490979e-04  -1.8587310e-04   1.7857537e-04  -8.9280779e-04  -5.3772388e-04  -2.8762704e-04  -6.2600418e-04   1.0984894e-04  -1.7560176e-04  -1.0832542e-04   1.4741107e-05  -1.1027281e-04   1.0468615e-04   9.3344468e-05  -2.5894222e-04  -1.6225580e-04  -6.6518580e-04  -9.0857226e-05  -2.6429066e-04  -5.9029022e-05  -4.3740560e-04   8.5175532e-05  -3.3399338e-04  -2.1960278e-04  -2.2493278e-04   8.0858088e-05  -1.2775004e-04   2.5578214e-05   1.0381429e-04  -1.5048021e-04   9.5322044e-05   4.3962832e-04  -8.7020730e-05  -2.0617677e-04  -1.8680964e-04  -7.6922536e-04   2.0016755e-04  -8.4695610e-05  -5.2288314e-04  -7.1908685e-04
   5.1249686e-04   3.8943469e-04  -5.9007289e-05   1.3019114e-04   1.0940210e-04  -4.8611280e-05  -8.0403202e-05  -2.8281275e-04  -1.6731564e-04  -8.0804006e-05  -7.0276629e-04  -3.1903948e-04   1.7230364e-04  -8.4156671e-04  -4.2801682e-04  -1.7186375e-04  -6.8450038e-04   7.1735718e-05  -3.7903522e-04  -1.3046007e-04  -1.8481470e-06  -1.1714744e-04   5.2415235e-05  -6.7526322e-05  -2.5349949e-04  -2.9880443e-04  -6.6003931e-04  -5.8411468e-05  -2.2787225e-04  -1.2883215e-04  -5.2907248e-04  -4.7317470e-05  -4.4044264e-04  -2.9510559e-04  -2.5887336e-04  -8.1297905e-05  -4.6596839e-04   4.6610279e-05   2.7841243e-05  -2.6101840e-04  -5.1410811e-05   2.5200006e-04  -5.7831162e-04  -6.4939499e-04  -3.4406059e-04  -7.0868235e-04  -1.3635687e-04  -1.0049355e-04  -6.1236561e-04  -2.5134273e-03
   4.9772311e-04   2.8857996e-04  -8.3617051e-05   8.8438006e-05   1.3118489e-04  -1.2383629e-04  -2.2267406e-04  -2.6511951e-04  -1.9724044e-04  -1.6638864e-04  -8.3619583e-04  -4.3215486e-04   1.2679235e-04  -8.6540502e-04  -3.8944921e-04  -7.0069713e-05  -7.2789384e-04   1.0893249e-04  -2.8946847e-04  -1.7623480e-04  -2.3392084e-05  -1.9809395e-05   5.1832874e-05  -1.3566291e-04  -1.7299836e-04  -3.2285872e-04  -6.6729018e-04  -8.0577462e-05  -9.6538482e-05  -1.0167736e-04  -4.8948417e-04  -4.1762847e-05  -2.7210862e-04  -3.3207925e-04  -2.7204904e-04   2.6695714e-05  -2.6756767e-04   2.5885154e-06   4.6077563e-05  -1.9948793e-04   1.7902088e-04   2.1442134e-04  -4.5654410e-04  -7.7773008e-04  -2.7361480e-04  -8.0167904e-04  -3.1180374e-05  -7.8933008e-05  -4.2802555e-04   9.1841859e-05
   5.0344219e-04   4.7251969e-04   3.1044045e-05   2.2319909e-04   1.8941275e-04  -3.3678727e-05  -1.2029223e-05  -3.6015419e-05  -1.1547922e-04  -6.6032389e-06  -6.4754713e-04  -3.7286140e-04   2.1392570e-04  -7.0869672e-04  -3.6868572e-04  -1.9902347e-04  -5.8804511e-04   1.0213416e-04  -4.9433133e-05  -8.0952253e-05   3.9488415e-05   2.2241911e-05   8.1943195e-05  -7.8574179e-05  -5.9625279e-05  -1.1514768e-04  -5.8567303e-04  -7.5338074e-05  -1.2416148e-04  -1.0630949e-04  -4.6877144e-04   4.6831898e-05  -1.4481253e-04  -1.3887470e-04  -2.7179442e-04  -9.2375842e-05  -1.5199320e-04   5.4192037e-06   1.2840537e-04  -2.6727107e-04   4.9284135e-05   3.2513915e-04  -2.9613587e-04  -7.8217074e-04  -2.8067533e-04  -8.1732630e-04   5.7944842e-05  -2.4483792e-04  -7.6882419e-04  -1.1075014e-03
   5.3984544e-04   3.7330252e-04   2.0756044e-05   1.4979231e-04   1.0713486e-04  -1.1496815e-04  -1.1616739e-04  -3.7999084e-04  -2.1185924e-04  -2.2969513e-04  -7.5315259e-04  -5.4363802e-04   1.1447964e-04  -6.4319232e-04  -4.1485767e-04  -2.6659586e-04  -5.2429951e-04   4.3386568e-05  -3.2278110e-04  -1.8223727e-04  -8.6075106e-06  -3.7358775e-05   2.5322226e-05  -1.0555954e-04  -1.0290111e-04  -2.3893618e-04  -4.5777464e-04  -8.3740000e-05  -3.7301870e-04  -1.1203947e-04  -3.3344590e-04  -4.5725476e-05  -1.7670040e-04  -2.8066826e-04  -2.6502923e-04  -5.9314796e-05  -3.3283205e-04  -5.3165099e-05  -4.2496078e-05  -4.3300397e-04   2.7721652e-04   8.6537584e-05  -3.0711188e-04  -5.3403940e-04  -4.6370347e-04  -8.5146172e-04  -3.2756096e-05   8.7674147e-05  -5.1538757e-04  -8.5222069e-04
   4.1170456e-04   2.1479395e-04  -2.6559746e-05   1.4884351e-05   6.0447979e-05  -9.3693357e-05  -2.2606002e-04  -9.8219789e-05  -2.4537678e-04  -2.6368495e-04  -7.6671416e-04  -5.6028034e-04   4.8608912e-05  -5.3210172e-04  -3.4067480e-04  -1.7401575e-04  -5.2280567e-04   5.7506320e-05  -3.0931371e-04  -2.1211451e-04  -5.4794058e-05  -4.8045884e-05   4.6443303e-05  -1.0018850e-04  -7.3587416e-06  -2.0554717e-04  -4.0284713e-04  -1.1220937e-04  -4.4379724e-04  -1.2482452e-04  -2.8549897e-04  -1.1975024e-05  -2.3627908e-04  -2.3904355e-04  -2.7968237e-04  -4.2125121e-05  -2.3086446e-04  -8.6267522e-05   9.8593067e-05  -1.4017322e-04   1.7946991e-04   2.5858032e-04   4.0412860e-04  -4.5658881e-04  -4.2872521e-04  -4.2056484e-04   2.0913839e-04  -2.6179428e-04  -2.7663223e-04  -3.8706846e-04
   4.0367883e-04   4.0740165e-04   5.2659449e-05   1.3578543e-04   1.0246765e-04   6.8590904e-05  -3.9376788e-05  -3.0914848e-04  -6.3271900e-06  -9.7551427e-05  -5.5900088e-04  -4.0678104e-04   1.6010291e-04  -5.1603804e-04  -3.2357103e-04  -2.6086881e-04  -4.4696446e-04   3.8488928e-05  -1.0893791e-04  -9.3192488e-05   1.4170293e-05   7.1491086e-06   1.0819297e-04   1.2471878e-05  -1.6351046e-04  -4.4566128e-05  -4.4501701e-04  -8.1198865e-05  -2.3520763e-04  -8.3532119e-05  -2.4420791e-04  -5.0659251e-06  -2.4672845e-04  -1.3774422e-04  -2.5022984e-04  -1.3711996e-04  -6.7705078e-05  -8.7323511e-05   1.1599530e-04  -2.1790602e-04   4.5493539e-04   2.1069503e-04  -2.9906575e-04  -5.2830420e-04  -3.7899116e-04  -3.0208391e-04   1.3351050e-04   8.4993946e-05  -6.3271873e-04  -8.0405944e-04
   3.8651205e-04   3.1552647e-04   5.0234288e-05   1.1260694e-04   5.5482149e-05   3.0168294e-05  -8.3165505e-05  -2.5214098e-04  -1.3968554e-04  -3.0990035e-04  -6.7948533e-04  -5.2508636e-04   9.6767064e-05  -4.5008303e-04  -2.8632252e-04  -2.8896169e-04  -4.3890424e-04   1.0945603e-05  -2.0949420e-04  -1.5738158e-04  -3.2649343e-05  -7.8850288e-05  -4.0456903e-06  -7.1002272e-05   2.8317991e-06  -1.1167811e-04  -4.3432595e-04  -6.1065199e-05  -3.1234240e-04  -1.1131234e-04  -2.2907923e-04  -9.7502843e-06  -4.3835572e-04  -2.9468138e-04  -2.9537902e-04  -4.3679847e-05   1.9802857e-05  -8.6745720e-05   1.6528820e-05  -1.3970034e-04   1.4031059e-04   1.7955521e-04  -1.7688531e-04  -1.7655456e-04  -5.1369442e-04  -3.6454000e-04   1.3213632e-04   3.6260861e-04  -1.0151305e-03  -3.9723227e-04
   2.2393874e-04   1.8342603e-04  -2.2370989e-05   7.5176144e-06   1.6110669e-05  -5.3106967e-05  -1.9053408e-04  -2.2840238e-04  -1.4400473e-04  -3.0825436e-04  -6.5087090e-04  -5.3887628e-04   4.1836676e-05  -4.0081292e-04  -2.7498906e-04  -2.2864059e-04  -4.3884813e-04  -7.1539885e-06  -2.4754560e-04  -1.8732229e-04  -7.1162569e-05  -1.2481173e-04   6.6715460e-05  -9.7080629e-05  -5.7149591e-05  -8.6570020e-05  -4.2834334e-04  -7.6083008e-05  -4.6685783e-04  -8.7240784e-05  -1.5993272e-04   5.5051267e-05  -2.6179594e-04  -2.6093447e-04  -2.7974573e-04   3.2269549e-05   1.4763722e-06  -1.3715637e-04   1.4412655e-04  -1.1358695e-04   2.9740989e-04   3.0972745e-04   3.9166267e-04   3.3443299e-04  -3.5807778e-04  -3.8995169e-04   3.3473092e-04   1.4034685e-04  -2.6350835e-04  -4.9945427e-04
   3.9287916e-04   3.4289865e-04   5.6472149e-05   1.0627486e-04   4.4667857e-05   4.7021080e-05  -6.1029536e-05  -1.1942034e-04  -4.6153011e-05  -2.2003183e-04  -4.9422262e-04  -4.3227084e-04   1.2031629e-04  -3.4574777e-04  -1.6760842e-04  -2.9636311e-04  -3.8555387e-04   1.8822162e-05  -3.0818253e-05  -8.1024344e-05  -3.1312058e-05  -1.0722280e-04   1.4936931e-04  -3.0934521e-07   9.4939533e-05  -7.0261958e-05  -5.1435299e-04  -4.6155721e-05  -4.2032395e-04  -6.7863461e-05  -2.0548639e-04  -3.6992202e-05  -3.8278659e-04  -1.8951301e-04  -2.5594729e-04  -3.5757785e-05  -3.0961880e-04  -7.8040321e-05   1.2904336e-04  -1.2704669e-04   3.6500793e-04   3.0188230e-04   1.3583236e-04  -1.9031658e-04  -3.6624557e-04  -7.0391870e-05   2.5494004e-04  -2.3966294e-04  -6.1325665e-04  -4.2889570e-04
   3.0600629e-04   2.6763047e-04   4.0217306e-05   6.5150809e-05   4.8127160e-05  -6.2411986e-05  -1.3154605e-04   8.3293402e-05  -2.7365936e-04  -4.0105154e-04  -5.8976852e-04  -5.2221556e-04   6.2568484e-05  -3.8912028e-04  -3.0402272e-04  -2.4501330e-04  -4.3442450e-04  -7.6277656e-06  -1.1050891e-04  -1.1217721e-04  -7.2357441e-05  -8.3648993e-05   1.8311387e-04   1.0984077e-05   6.8408983e-05  -1.6660898e-04  -5.1556749e-04  -6.9372341e-05  -3.8179141e-04  -1.2781583e-04  -1.0396374e-04  -9.1211601e-05  -3.1873622e-04  -3.1122105e-04  -3.4318891e-04  -6.2500272e-05  -2.9210973e-04  -1.9548251e-04   8.6435994e-06  -4.3538699e-04   2.2221636e-04   1.6392738e-04  -5.3188490e-04   2.8062799e-05  -4.7992967e-04  -2.7219791e-04   2.6649571e-04  -3.0908722e-04  -4.4189001e-04  -1.7088362e-03
   2.4106914e-04   2.3887282e-04   1.9933075e-05   4.5877172e-05   6.8774061e-05   2.7877326e-05  -9.8739023e-05  -2.0510625e-04  -4.5170713e-05  -2.5631732e-04  -5.3327199e-04  -3.5691744e-04   1.1492646e-04  -4.6413351e-04  -4.1404783e-04  -2.4386490e-04  -5.1520875e-04   1.0471690e-05  -5.6109360e-07  -7.9892416e-05  -5.8599802e-05  -1.2267423e-04   1.4551474e-04   1.8910211e-04   4.4498120e-05  -4.2927502e-05  -5.0583103e-04  -6.2025021e-05  -3.3425153e-04  -1.0198002e-04  -2.8240005e-04  -2.5598036e-05  -2.2483036e-04  -1.0389387e-04  -2.1195617e-04   3.4000364e-05  -2.9473726e-04  -1.4679444e-04   9.1387396e-05  -1.1687024e-04   2.7531260e-04   3.1872018e-04  -7.1047587e-05  -2.9346414e-04  -3.2813367e-04  -1.6673440e-04   2.5615451e-04   1.6429130e-04  -8.1109582e-04   1.4485525e-04
   3.0984182e-04   3.6357529e-04   7.1116629e-05   1.7228814e-04   1.1490954e-04   4.4749104e-05   1.0652981e-05  -9.8880169e-05   1.1521282e-06  -2.0540468e-04  -4.5982332e-04  -2.9859375e-04   2.0415355e-04  -4.4923823e-04  -2.7934142e-04  -2.2832042e-04  -4.8084371e-04   3.2461212e-05  -8.1293751e-05   2.1041738e-05  -2.3088342e-05  -1.4317684e-05   2.4701728e-04   1.8681306e-04   7.5030061e-05   2.9633532e-06  -4.8496338e-04  -5.8128258e-05  -6.4396852e-04  -1.2806995e-04  -1.8143111e-04  -4.3998389e-05  -4.5263843e-04  -1.7346580e-04  -2.2388721e-04   1.1612513e-04  -1.3588484e-04  -1.1965401e-04   8.5512846e-05  -1.4150263e-04   3.5003392e-04   2.8015435e-04   1.8502587e-04  -1.2596216e-04  -3.3546254e-04  -1.1346569e-04   2.7311046e-04  -2.5493768e-04  -4.5043387e-04  -9.5072557e-04
   3.8561405e-04   2.7142209e-04   5.0857223e-05   1.1798074e-04   5.6817044e-05   3.2551328e-05  -1.1734420e-04  -1.3511916e-04  -1.6525424e-04  -3.8737713e-04  -6.1743218e-04  -4.5296433e-04   1.5162940e-04  -3.4639481e-04  -3.5408014e-04  -2.1545676e-04  -4.8187264e-04   2.2916442e-05  -1.5893023e-04  -5.1632895e-05  -6.2230909e-05  -1.1697074e-04   1.5285003e-04   3.0353149e-05  -4.8034010e-05  -1.5504249e-04  -4.4261562e-04  -5.5896769e-05  -4.8959907e-04  -1.7389400e-04  -2.7122573e-04  -6.9255781e-05  -3.8375295e-04  -2.4627827e-04  -3.4154582e-04   4.8428370e-05  -3.3013144e-04  -2.0544986e-04  -7.4974018e-06  -3.4102285e-04   4.2586794e-04   2.3019017e-04   2.7701142e-04  -8.7572093e-04  -3.7035899e-04  -2.4268778e-04   3.3020435e-04  -1.9634835e-04  -3.3981727e-05  -1.7121386e-04
   4.6696668e-04   3.2358884e-04   8.2224164e-05   1.4674774e-04   9.3797600e-05   7.3612180e-05  -3.9839771e-05   8.1701030e-05  -5.5433920e-05  -1.5684882e-04  -4.5004900e-04  -2.8312454e-04   2.4570400e-04  -3.6237406e-04  -3.0660001e-04  -1.9885942e-04  -4.5465922e-04   2.5075200e-05   1.1239235e-05   4.1316980e-05  -2.9524035e-05  -4.0926523e-05   3.5012994e-04   1.6786181e-04   9.3986811e-05   8.0543519e-05  -4.4288510e-04  -4.9563390e-05  -4.0150239e-04  -8.4419917e-05  -2.3525833e-04  -4.9697871e-07  -1.0504975e-04  -1.4719693e-04  -1.6359701e-04   5.8138761e-05   2.1790829e-06  -1.1905505e-04   8.0784914e-05  -1.0739175e-04   2.8405659e-04   2.6518802e-04   1.4143059e-04  -8.2687353e-04  -2.4976151e-04  -4.4857384e-06   3.8354998e-04  -1.0998494e-03  -2.7116211e-04  -3.5876663e-05
   3.3428555e-04   3.6419262e-04   1.0314613e-04   2.0483062e-04   1.1293098e-04   7.1857226e-05  -2.3448738e-05  -1.4401418e-04   6.4704844e-05  -1.9318750e-04  -4.5714850e-04  -3.3450898e-04   2.7218286e-04  -3.3544557e-04  -2.8889137e-04  -1.6327189e-04  -4.2157422e-04   2.8574175e-05  -5.8857240e-05   6.1053783e-05  -3.3387911e-05  -4.3310432e-05   2.9029686e-04   1.8982984e-04   3.8843387e-05  -2.5832069e-05  -4.3305437e-04  -5.2107964e-05  -3.8392039e-04  -7.1144234e-05  -1.6397989e-04  -7.4319621e-05  -1.6504583e-04  -1.6900840e-04  -2.1841374e-04  -3.0501755e-05  -1.1921446e-04  -1.7436169e-04   5.1440784e-05  -2.3706180e-04   3.6174624e-04   4.1436750e-04   1.6790326e-04  -8.1118464e-04  -3.1561303e-04   3.9606286e-05   3.4595490e-04   2.6748246e-05  -5.3250848e-04  -4.0545608e-04
   2.9251614e-04   2.3855756e-04   6.8289039e-05   1.2269561e-04   4.2934618e-05   1.7578110e-05  -1.1163713e-04  -7.6112505e-05  -2.1072970e-04  -3.9557865e-04  -6.2648125e-04  -5.1315210e-04   1.5301914e-04  -3.0524086e-04  -2.3629691e-04  -1.4413123e-04  -4.3716625e-04   1.8201325e-05  -1.3672611e-04  -5.6006589e-05  -9.2414615e-05  -1.2539759e-04   1.7556771e-04  -6.5981394e-06   5.7283367e-05  -1.0085890e-04  -4.6629619e-04  -5.0655253e-05  -3.0029839e-04  -1.4064598e-04  -1.4938500e-04  -1.1492141e-04  -2.9309376e-04  -3.2474863e-04  -2.3462436e-04   1.3971704e-04  -4.5323474e-04  -1.4303569e-04   3.7638245e-05  -1.8228219e-04   4.1632453e-04   3.2034170e-04   2.2591680e-04   2.3838400e-04  -2.6977947e-04  -3.8865688e-05   3.2422820e-04   5.9606350e-04  -1.4913249e-04  -3.9888380e-04
   5.0989358e-04   3.1907536e-04   6.2124760e-05   1.6623024e-04   1.1212747e-04   1.1909374e-04  -2.6813444e-05  -2.4586743e-05   2.0472192e-04  -9.4841031e-05  -3.7779601e-04  -3.6580465e-04   2.4726868e-04  -1.8404108e-04  -1.0328705e-04  -1.6103612e-04  -3.0782333e-04   2.0601639e-05   1.2989716e-04   3.5801513e-05  -5.0603001e-05  -9.5268791e-05   2.0353320e-04   1.5988282e-04   2.0475968e-04   1.2015830e-04  -3.4077076e-04  -3.3679200e-05  -3.4874416e-04  -2.8234221e-05   1.3170739e-05  -3.0840030e-05  -1.4663539e-04  -6.1969899e-05  -6.0272745e-05   1.9452607e-04  -2.3474739e-04  -1.1961371e-04   1.7780141e-04  -1.2834735e-04   2.8737297e-04   4.9056264e-04   7.4291247e-04  -8.6097541e-04  -1.7430396e-04   1.5370401e-04   5.1545160e-04   4.2671012e-04  -1.5201974e-04   3.9632371e-04
   2.4398082e-04   3.0767216e-04   9.3660747e-05   1.5168618e-04   3.6514433e-05   8.3719897e-05   4.4334814e-05  -1.0031953e-05   3.9541323e-05  -2.1807454e-04  -3.7272568e-04  -5.5203063e-04   1.7457681e-04  -6.9390975e-05  -9.1563095e-05  -1.9118788e-04  -1.2814096e-04   2.2166250e-06   1.7234489e-04   4.1776893e-06  -8.0452061e-05  -1.2983731e-04   1.9400587e-04  -2.2039099e-05   3.6973774e-04   2.1293599e-04  -1.0261979e-04   1.6045349e-05  -4.3811454e-04  -3.7362122e-05   1.4807605e-04  -2.8358434e-07  -8.2320985e-05  -9.4113464e-05  -1.7499662e-04   2.4357016e-04  -9.3620431e-05  -1.6716121e-04   5.4928983e-05  -2.2648441e-04   6.2279956e-04   4.5624431e-04   8.7436801e-04  -4.3743735e-04  -3.3124659e-04   2.9249972e-04   5.9781421e-04   5.0871493e-04  -1.8217997e-04   3.5824918e-04
   2.5289934e-04   1.4179494e-04   2.2362528e-05   2.7095089e-06  -5.9522419e-05  -1.1071225e-05  -8.4723608e-05  -1.8519000e-04  -1.8896109e-04  -4.3578810e-04  -4.7464261e-04  -7.4647286e-04  -2.9526094e-05  -2.7623406e-05  -1.5480838e-04  -2.1297846e-04  -1.2852950e-04  -6.5006061e-05  -9.6643860e-05  -1.1881944e-04  -1.8154767e-04  -2.5373450e-04  -2.8325097e-05  -1.5197486e-04   4.4836049e-04   7.2015879e-05  -2.7055453e-04  -3.5484718e-05  -2.3074637e-04  -4.1965377e-05   4.4440390e-06  -3.9577018e-05  -2.4388928e-04  -1.6849347e-04  -1.6299277e-04   9.3428825e-05  -1.8781877e-05  -1.8113614e-04   1.2186175e-04  -3.0171822e-04   5.7732768e-04   3.2540958e-04   4.5965728e-04  -1.3565342e-04  -2.1304280e-04   1.4384110e-04   5.3302117e-04   1.7981457e-04  -5.5772456e-04   5.4510194e-04
   3.0102080e-04   2.4765293e-04   1.8200668e-05   7.7091463e-05  -1.8393607e-06   1.7877822e-04   3.1115214e-05  -1.5315658e-04   9.1384638e-05  -6.4509892e-05  -1.9671750e-04  -4.3294692e-04   6.6461871e-05   1.5343627e-05  -5.1514144e-05  -1.4461190e-04  -1.2017458e-04   5.4397573e-05  -3.9372386e-05   2.2677041e-05  -1.0394659e-04  -1.4655852e-04   1.8330898e-04   5.9018777e-05   3.9277735e-04   2.2879394e-04  -8.5613377e-05   3.6009938e-06  -3.5004807e-04   5.0128452e-05   4.7673158e-05   9.8374721e-06  -8.7198328e-05  -2.2562239e-05  -6.6644687e-05   1.7481955e-04  -1.2096019e-05  -1.6331735e-04   1.4215684e-04  -3.7436384e-05   6.2235241e-04   3.4642342e-04   5.8790785e-04   1.4930483e-05  -1.1466364e-04   1.7705275e-04   6.1286578e-04   4.1075234e-04  -2.3494891e-04  -8.9386391e-04
   1.7736270e-04   2.0371129e-04   4.0756086e-06   2.3403822e-05  -2.3218125e-05   3.3264456e-05  -6.6321125e-05  -1.3047343e-04  -4.5602457e-05  -2.3360497e-04  -2.5311491e-04  -5.7680177e-04   2.8313520e-05   1.5199407e-04  -4.1280899e-05  -6.1599305e-05   1.7105980e-05   5.5324497e-05   1.1521969e-04  -5.3617139e-05  -1.4383516e-04  -2.6967665e-04   1.2705415e-04  -1.9346343e-04   4.9120974e-04   5.2666863e-05   1.1820311e-04   5.2727286e-05  -1.1772486e-04   2.6332558e-05   1.7906734e-04   7.8614175e-05  -7.5469405e-05  -1.2949295e-04  -9.1444468e-05   1.0361488e-04  -1.3736515e-04  -1.2637580e-04   1.9160678e-05  -2.2877975e-04   6.0676940e-04   2.8152476e-04   4.5748788e-04  -1.1612879e-05  -1.8658147e-04   2.1691641e-04   4.7285823e-04   3.7246317e-04   1.5253587e-04  -4.2141197e-04
  -1.1641152e-05   4.4646389e-05  -1.0201832e-04  -1.0577370e-04  -1.1474011e-04  -3.5518508e-05  -1.4771579e-04   6.1404935e-05  -2.7432453e-04  -3.9625811e-04  -3.8045098e-04  -6.9537095e-04  -1.5807875e-04   2.3169353e-04  -4.4768734e-05  -2.9142366e-05   2.8036879e-05   1.4062742e-04  -1.4959843e-04  -1.3320637e-04  -2.3515691e-04  -3.3273236e-04  -2.0123563e-05  -1.8563351e-04   5.0240505e-04   4.7519137e-05   1.6732015e-04   2.7401935e-05  -6.1788778e-05   5.7613277e-05   3.3660515e-05   6.3310377e-05  -1.5066724e-04  -3.2016407e-05  -9.9733843e-05   1.4129065e-05  -2.1017899e-04  -1.1080532e-04   6.0329436e-05  -6.1425380e-05   5.9110863e-04   1.4871942e-04   4.3435939e-04  -4.7699572e-04  -7.8066318e-05   4.8511068e-04   4.6875252e-04   1.3182398e-04  -1.4075513e-04  -3.7868999e-04
   1.5912391e-04   1.6831106e-04  -6.7539804e-05  -4.6171317e-05  -5.7626810e-05   1.3502574e-04  -3.5261855e-05   1.5457056e-04  -3.7543985e-05  -6.7743771e-05  -1.0529153e-04  -4.4453391e-04  -9.2926020e-05   2.8135590e-04  -3.8336908e-05  -6.5714383e-05   1.2185449e-04   1.4311624e-04   3.5813908e-05  -1.0065176e-04  -2.1305736e-04  -3.3424358e-04  -4.2451982e-05  -2.0306399e-04   4.9154932e-04  -1.3286227e-05   8.2536295e-05   4.0252278e-05  -3.1656393e-05   3.4215376e-05   1.6480581e-04   1.8436088e-04  -1.5305221e-04   4.5774919e-05  -4.0807710e-05   6.5431283e-05  -2.2485710e-04  -2.9005554e-05   7.1509734e-05  -1.1387408e-04   3.0389425e-04   1.9928576e-04   7.0532504e-04  -3.7299455e-04  -8.7610395e-05   3.5742609e-04   3.2895149e-04   5.9115910e-04  -7.2011061e-04  -1.2794232e-03
   6.5491527e-05   9.4778603e-05  -1.2017113e-04  -9.0092399e-05  -6.8826812e-05  -1.2609610e-05  -1.1148376e-04   3.0423250e-04  -1.9398206e-04  -1.0966133e-04  -2.2756105e-04  -2.3746429e-04  -7.7177756e-05   1.6424619e-04   6.9148584e-05  -9.0493952e-05   3.1000607e-06   1.5428897e-04  -4.9879440e-05  -1.2810272e-04  -2.3430123e-04  -3.9305721e-04  -4.3490381e-05   7.0307637e-05   4.0436615e-04  -2.8731751e-05   9.8160643e-05   4.7684229e-05  -7.5281860e-05  -4.0973813e-05   7.8851845e-05   1.1219629e-04  -4.2985016e-04  -7.7389152e-05  -8.2268780e-05   2.1234933e-05  -2.7777403e-04  -9.3510898e-05   1.7451803e-05  -3.6248975e-04   3.2182285e-04   4.4926066e-05   2.6357939e-04  -2.5513954e-04  -9.2386814e-05   1.4098130e-04   2.4626474e-04  -4.7450160e-04  -3.2864753e-04   7.1582507e-04
   1.6889474e-04   6.3149455e-05  -1.5511966e-04  -1.4184436e-04  -3.7891670e-05   4.6959009e-05  -8.4629530e-05  -2.7938639e-05  -1.2837244e-04   5.2449610e-05  -1.9475759e-04  -8.7311484e-05  -7.4895375e-05   1.6273507e-04  -1.8477598e-05  -7.8558536e-05   5.3609318e-05   9.0636255e-05  -1.2334468e-06  -1.3454174e-04  -2.4393796e-04  -4.1409492e-04   7.2277813e-05   7.2350856e-05   3.9773734e-04  -3.6979154e-06   1.3902561e-04  -1.3282998e-06   2.0240927e-04   6.7205663e-05   5.7467634e-05   7.3834410e-05  -1.9000938e-04   3.9300117e-05  -2.9278926e-05  -1.7952325e-05  -1.6291946e-04  -1.5247209e-04   6.8701731e-05  -1.1709161e-04   4.4071968e-04   1.4837482e-04   3.2350636e-04   2.3421558e-04   8.6023225e-05   2.7375369e-04   3.9409351e-04   5.6290679e-04  -2.7555725e-04  -4.9233681e-04
   3.7671064e-06   7.4291107e-05  -1.6566072e-04  -1.5650105e-04  -1.4258015e-04   9.0184083e-05  -1.3069341e-04   2.3351287e-04  -3.2051725e-05   5.8654732e-05  -1.3673774e-04  -7.4995245e-05  -7.6225835e-05   3.2961680e-04   4.4659166e-05  -2.2489510e-05   1.7882026e-04   4.3670378e-05  -6.1380037e-05  -1.5475003e-04  -2.3875957e-04  -4.0168458e-04  -1.6638402e-04   8.9450681e-05   3.1332666e-04  -4.6365923e-05   2.6872431e-04   6.4946893e-05  -8.1820064e-05  -2.1504640e-05   1.0047280e-04   1.0960049e-04  -2.5169898e-04   5.4050961e-06  -7.5421151e-05  -1.3719793e-05  -1.1585648e-04  -8.0896098e-05   1.4245221e-04  -1.0464147e-04   4.1568890e-04   1.5253208e-04   8.3106543e-06  -1.0744242e-05  -2.5745646e-06   2.6286457e-04   1.7829474e-04   2.0339055e-04   1.1045315e-04  -2.1157078e-04
  -9.0016110e-05  -1.2272719e-04  -2.7475867e-04  -3.0216321e-04  -2.1397878e-04  -1.3321154e-04  -2.5115383e-04   1.4177753e-05  -3.3746098e-04  -1.8011597e-04  -3.2123690e-04  -2.3074761e-04  -2.2682142e-04   2.9362921e-04  -5.8428475e-05  -1.0870702e-05   2.5192086e-04  -5.6823676e-05  -2.5458963e-04  -3.2236907e-04  -3.3846215e-04  -5.4836681e-04  -2.3659166e-04   2.0375555e-05   2.1365384e-04  -1.5918800e-04   2.9551226e-04   9.3816117e-05  -1.6126748e-04  -1.5750511e-05   1.9393518e-04  -1.7707733e-05  -1.9686866e-04  -3.4390589e-05  -1.4263742e-04  -9.5240219e-05  -2.3299259e-04  -1.3683464e-04   6.9200854e-05  -2.2885985e-04   2.5370350e-04   2.5250929e-04   1.5696474e-04   2.7992134e-04  -4.5385103e-05   3.6935898e-04   4.2355733e-04   3.0610448e-04   2.8814783e-04  -4.4962036e-04
  -1.2613046e-04  -1.0847766e-04  -3.0337347e-04  -3.4141983e-04  -1.9664115e-04  -1.1070449e-04  -2.0876100e-04   6.0361275e-05  -8.1133003e-05   9.6281423e-05  -4.4507695e-05  -3.9493181e-05  -1.6156500e-04   4.3165023e-04   1.0617355e-04   1.7540984e-05   4.3618563e-04  -2.0695572e-04  -8.3705345e-05  -2.8797632e-04  -3.0413090e-04  -4.8629229e-04  -1.7414864e-05  -6.1525272e-05   1.6737374e-04  -6.5324770e-05   3.8057324e-04   4.1646090e-05  -3.8691636e-05   5.9167291e-05   1.0742945e-04  -8.9009000e-06  -1.3582238e-04   1.3059091e-04  -3.4739416e-05   2.2644512e-04  -1.6167604e-04  -1.4832091e-04   1.6034352e-04  -4.2030817e-05   1.8021684e-04   1.5512346e-04  -5.4338841e-05   4.6638623e-05  -2.7687079e-06   6.8546343e-04   2.5577654e-04   6.8676251e-05  -2.0367651e-04  -4.5397773e-04
