   4.7273390e-04   3.9457009e-04   2.6747995e-04   4.4332925e-04   2.5770231e-04   2.5401017e-04   3.5898230e-04   1.6270693e-04   1.1683819e-03   6.7834475e-04   7.2916265e-04   4.5965731e-04   2.2336148e-04  -3.4079968e-04   1.7082284e-04  -3.5393832e-04  -4.9077359e-04  -1.1104199e-04   1.8457025e-04  -4.0099231e-04   3.2132425e-04   2.9009618e-04   2.5921923e-04   5.3793238e-04  -4.1893878e-04  -4.2060616e-05   2.4226718e-04  -7.5286247e-05   1.0594595e-04  -5.6291226e-04  -1.0382948e-03  -2.1098624e-04   2.7749717e-04  -8.0295504e-05   5.1688028e-05  -5.5929460e-04   7.0127330e-06  -2.7518881e-05  -5.3310650e-04  -5.1491483e-05  -1.5612510e-03  -1.0221432e-03  -6.0882588e-04   4.9617060e-04   9.5338539e-05  -6.2936480e-04  -1.2734736e-03   8.0597441e-05  -4.0079662e-04   1.9351495e-04
   3.9162283e-04   2.4306837e-04   1.4100337e-04   3.3385985e-04   1.6881934e-04   1.1117987e-04   1.9984673e-04  -1.5602945e-05   9.3139679e-04   3.7308651e-04   4.6453788e-04   2.1363598e-04   1.0295269e-04  -4.4036697e-04  -5.0919516e-06  -3.5459443e-04  -5.8929424e-04  -1.3767340e-04   1.5555842e-04  -5.3842203e-04   2.6453901e-04   2.5213396e-04   2.2260089e-04   3.7856452e-04  -4.9736036e-04  -1.2274484e-04   4.3825024e-05  -9.3035771e-05   1.1184713e-04  -5.7219231e-04  -1.1657599e-03  -2.6147228e-04   3.5530928e-04  -6.1875668e-05   6.0623508e-05  -5.7559472e-04  -4.3297165e-05  -3.1035717e-05  -5.6808995e-04   3.2273976e-05  -1.4328609e-03  -9.6327835e-04  -1.8110007e-04   1.9985929e-04   7.8426718e-05  -7.0403563e-04  -1.1859810e-03   2.6082277e-04  -2.5861178e-04  -7.0016767e-04
   5.4394337e-04   4.3087313e-04   2.4581735e-04   4.0666285e-04   3.1135313e-04   2.2066249e-04   3.4299374e-04   1.3385156e-04   1.2175145e-03   7.5941684e-04   7.3314511e-04   4.7814532e-04   2.3688037e-04  -4.4458339e-04   1.6123892e-04  -3.4852928e-04  -5.8251084e-04  -1.5477333e-04   2.5393060e-04  -4.5983939e-04   3.3859260e-04   3.4190208e-04   2.8173669e-04   5.4785400e-04  -5.7105784e-04  -2.2333667e-04  -2.0652153e-05  -1.2796074e-04   1.7732364e-04  -5.5313931e-04  -1.1498536e-03  -2.7774007e-04   2.0993737e-04  -1.3979959e-04   8.7722328e-05  -6.3174969e-04   1.1627308e-04  -1.3598883e-04  -5.7987188e-04   2.0928894e-05  -1.1802244e-03  -9.9933904e-04   2.6566177e-04   2.2344678e-04  -1.7003462e-05  -5.0545426e-04  -1.3196039e-03   4.8137942e-04  -3.6691691e-04  -7.3637668e-04
   3.4060597e-04   3.2209896e-04   1.7838379e-04   3.4166392e-04   2.4891482e-04   1.5105722e-04   2.4622411e-04   9.1719630e-05   9.5880544e-04   5.4999278e-04   5.2612566e-04   2.8000853e-04   1.4554005e-04  -4.6418858e-04   8.3334846e-05  -2.9824881e-04  -6.2358682e-04  -1.7063084e-04   3.2612943e-04  -5.7829899e-04   2.9260243e-04   2.3961585e-04   1.6848779e-04   4.3322082e-04  -5.0818874e-04  -2.6970854e-04  -3.0111711e-05  -1.0206433e-04  -4.0324503e-05  -6.7588425e-04  -1.2636336e-03  -3.5884185e-04   2.4902786e-04  -2.3973302e-04  -1.1388288e-04  -8.6725183e-04  -2.9272499e-04  -1.9230672e-04  -7.1678107e-04  -1.6661074e-04  -1.6540375e-03  -1.1821794e-03  -6.0086453e-04  -9.9068170e-04  -1.2258725e-04  -9.7378372e-04  -1.5023715e-03  -7.0205145e-04  -5.5627635e-05  -1.7928170e-03
   2.0599426e-04   1.5880782e-04   7.1309172e-05   2.4253107e-04   1.9210199e-04   6.2528103e-05   1.6459991e-04   7.4131290e-06   1.0164700e-03   6.0269650e-04   4.8132302e-04   2.8147246e-04   1.1538259e-04  -5.2074384e-04   1.9622834e-04  -3.5152398e-04  -6.4768072e-04  -2.1130734e-04   1.2201667e-04  -6.2841078e-04   2.4973074e-04   2.6891459e-04   2.2851156e-04   3.5824551e-04  -5.6849921e-04  -2.2607583e-04  -1.4421366e-04  -1.2061881e-04  -6.4630716e-05  -5.8965548e-04  -1.1744348e-03  -3.1482519e-04   2.6251667e-04  -2.1690431e-04  -9.9647714e-06  -7.3179306e-04  -3.3439344e-05  -2.4604314e-04  -6.0434523e-04  -2.9446348e-05  -1.4272782e-03  -1.0080291e-03   1.5947384e-05  -1.0983648e-04  -1.2234343e-05  -8.1329525e-04  -1.3722486e-03  -1.2969039e-04  -1.6837157e-05  -1.0413154e-03
   3.4210074e-04   3.1379802e-04   1.4263966e-04   2.5867205e-04   2.0915185e-04   1.4560686e-04   2.5379675e-04   4.9458347e-05   9.5837621e-04   6.0771662e-04   4.7349211e-04   2.4377913e-04   1.3253235e-04  -4.9163069e-04   1.5894098e-04  -4.3135075e-04  -6.0126348e-04  -2.3827561e-04   1.1918147e-04  -6.7308743e-04   2.3241375e-04   2.3202904e-04   1.3748360e-04   3.0055680e-04  -6.3234405e-04  -1.8903687e-04  -3.7546160e-05  -1.3918389e-04   4.8971790e-05  -6.5006345e-04  -1.1747589e-03  -3.9702607e-04   5.1755338e-05  -3.0984782e-04  -3.7174209e-06  -8.5119985e-04  -1.7501602e-04  -2.8976690e-04  -7.1874441e-04  -1.4917029e-04  -1.3866575e-03  -1.2532580e-03   1.9961473e-04   6.8406225e-04  -1.3120387e-04  -1.0005676e-03  -1.4742803e-03   6.6597061e-04  -1.0911000e-04  -1.3866097e-03
   2.2799999e-04   1.8379801e-04   3.1071995e-05   1.8155466e-04   1.4074212e-04   3.4689478e-05   6.6761670e-05  -1.0869939e-04   7.3759380e-04   3.5470186e-04   2.3944360e-04   3.1472555e-05   3.3533601e-05  -5.7520892e-04   2.9138488e-05  -4.2400247e-04  -7.1744557e-04  -2.7936971e-04  -1.8418734e-05  -8.0262509e-04   1.4676625e-04   5.2297917e-05  -8.9017136e-05   1.2253472e-04  -5.6840986e-04  -3.6805845e-04  -1.0847045e-04  -1.6897815e-04   7.4508353e-05  -7.6110271e-04  -1.1184931e-03  -4.8432211e-04  -1.0472588e-05  -4.4918517e-04  -1.5689942e-04  -8.5747568e-04  -2.1134510e-04  -3.3945005e-04  -7.0823065e-04  -1.9396351e-04  -1.3335681e-03  -1.1194634e-03  -6.6400025e-05  -1.9899177e-04  -1.4725274e-04  -1.0039611e-03  -1.3470555e-03  -9.5004711e-05  -5.8946636e-04  -1.3657741e-03
   3.5200268e-04   2.8776063e-04   8.2718645e-05   2.1857132e-04   2.0590682e-04   1.7873869e-04   1.3971985e-04  -9.3726900e-05   1.0979209e-03   6.3348725e-04   4.2963171e-04   2.1315618e-04   1.1664371e-04  -5.3236034e-04   1.0890059e-04  -4.3526778e-04  -7.3773885e-04  -2.5218964e-04   1.2057179e-05  -7.2582095e-04   1.8328395e-04   1.4146719e-04   1.3736905e-04   1.3883192e-04  -5.6942407e-04  -3.7698317e-04  -4.8288417e-05  -1.3274887e-04  -1.4349062e-04  -7.2689663e-04  -1.2588402e-03  -3.7283509e-04   1.0925242e-04  -2.9853030e-04  -1.0626017e-04  -7.5732701e-04  -3.2326029e-04  -3.3020484e-04  -7.8330986e-04  -2.5521396e-04  -1.4441879e-03  -1.1797843e-03  -8.0205192e-04  -4.0300874e-04  -9.4375289e-05  -7.7486085e-04  -1.4865765e-03   4.0737435e-05  -6.6661590e-04  -6.5096555e-04
   2.5237957e-04   2.2903137e-04   2.2187620e-05   1.8859928e-04   1.3939268e-04   6.0651986e-05   6.6403118e-05  -4.8750127e-05   7.6862919e-04   4.3198737e-04   2.6242004e-04   2.9285569e-05   4.3502594e-05  -5.6407071e-04   1.1939230e-04  -5.1194994e-04  -7.4555399e-04  -2.5373683e-04  -6.5325650e-05  -8.0140441e-04   1.5670675e-04   4.6798235e-05   2.6862535e-05   1.0643649e-04  -4.9544155e-04  -5.5308657e-04  -9.8906596e-05  -1.4429531e-04  -2.9205718e-05  -8.2447485e-04  -1.1668846e-03  -4.3207390e-04   5.7020585e-05  -3.7092727e-04  -9.5763819e-05  -9.6273026e-04  -4.6904336e-04  -3.2007348e-04  -8.7575219e-04  -4.1889548e-04  -1.5372047e-03  -1.2735731e-03  -1.0123706e-04   2.4281025e-04  -2.1089269e-04  -9.2141889e-04  -1.5765057e-03  -5.8042695e-04  -8.3422492e-04  -1.1717849e-03
   1.8394607e-04   1.8552286e-04   2.4174416e-05   1.7236570e-04   1.4295051e-04   1.0969488e-04   9.7317512e-05   2.6751344e-05   9.5592346e-04   5.4142781e-04   3.3281030e-04   9.0422604e-05   9.2304239e-05  -5.0514756e-04   1.4512586e-04  -4.5977443e-04  -7.8271987e-04  -2.2865040e-04   7.8867619e-05  -7.7075651e-04   1.3910381e-04   1.0461139e-04   4.4544577e-05   1.1278519e-04  -4.8801317e-04  -3.7101874e-04  -4.7397611e-05  -1.3621556e-04  -2.1918440e-04  -6.9106102e-04  -1.2216637e-03  -3.5637314e-04  -2.5673555e-05  -3.3293435e-04  -1.6983044e-05  -8.3632895e-04  -1.7187110e-04  -2.7489176e-04  -7.3312089e-04  -1.7076022e-04  -1.4577922e-03  -1.1812091e-03   4.8296686e-05   9.3452996e-05  -2.4924642e-05  -1.0308489e-03  -1.4738640e-03  -9.8795186e-05  -1.4428380e-04  -1.2619421e-03
   2.3282616e-04   2.5829405e-04   4.5166067e-05   2.0004720e-04   1.5497374e-04  -8.5777710e-06   1.6291217e-04   1.9483350e-04   9.4942114e-04   4.4104713e-04   2.6408737e-04   3.6848698e-05   8.7580287e-05  -4.8391783e-04   2.2056415e-04  -4.2672118e-04  -7.6267973e-04  -2.1114755e-04  -2.0235198e-04  -7.6616328e-04   1.4139687e-04   1.2308607e-04   8.8378009e-05   2.3995666e-05  -5.1888038e-04  -4.3379213e-04  -3.6016510e-05  -1.2982117e-04   9.4862909e-05  -7.5618224e-04  -1.2910241e-03  -4.2891162e-04   1.1105027e-04  -3.1787017e-04  -2.3566301e-05  -8.5293659e-04  -4.1505523e-04  -3.1067131e-04  -8.9990767e-04  -4.3011986e-04  -1.7557952e-03  -1.3430336e-03  -3.6933998e-04   1.9264151e-04  -1.1859933e-04  -9.0483850e-04  -1.6274581e-03   2.9633788e-04  -9.4713806e-04  -1.2955250e-03
  -4.6709691e-05   1.2885149e-04  -4.8836697e-05   1.1776418e-04   1.0272778e-04  -5.1484501e-05  -4.1739655e-05  -3.0604264e-04   6.7518209e-04   1.4481948e-04   4.9072940e-05  -1.8217722e-04   2.5968451e-05  -5.5234850e-04   2.2591547e-04  -4.4052411e-04  -8.1018440e-04  -1.9330635e-04  -1.0171644e-05  -8.4523496e-04   1.1497753e-04   1.0056959e-04  -1.1885194e-05   1.0172519e-04  -4.5424089e-04  -4.0448568e-04  -8.7910819e-05  -5.7496938e-05   1.8802815e-04  -7.2264916e-04  -1.3779940e-03  -3.8049521e-04   2.0222047e-05  -3.3072248e-04   5.4422741e-05  -7.9106673e-04  -3.1789020e-04  -3.1143642e-04  -8.3713088e-04  -2.7977719e-04  -1.5282909e-03  -1.2734433e-03   2.3522170e-04  -1.4675414e-04   3.2716071e-05  -9.7479805e-04  -1.5493199e-03  -9.7812631e-04   8.2825623e-05  -1.7227872e-03
   3.0101338e-04   2.9417980e-04   7.9817917e-05   2.0301066e-04   1.9479284e-04   1.2796912e-04   1.5646641e-04   9.6021759e-05   9.6984411e-04   4.6526385e-04   3.1836249e-04   5.2080934e-05   1.3629025e-04  -4.0041225e-04   3.1188282e-04  -3.4969722e-04  -7.2673889e-04  -1.4741955e-04  -8.0706079e-05  -7.5519236e-04   1.6597196e-04   1.5149507e-04   5.2523992e-05   4.0867850e-05  -4.9299217e-04  -4.6056963e-04  -1.7295524e-05  -3.9371036e-05  -4.3140750e-05  -6.9922948e-04  -1.1784196e-03  -3.3726377e-04  -1.5962058e-04  -2.1495031e-04  -1.9666611e-05  -7.9951284e-04  -1.0580145e-04  -2.3145031e-04  -7.4926397e-04  -1.2328049e-04  -1.4732667e-03  -1.2511085e-03   6.2589897e-05  -3.1472713e-04  -1.0566934e-05  -8.5645780e-04  -1.4747736e-03   1.3509543e-05  -5.3513743e-04  -2.2039239e-03
   8.5258383e-05   1.9611210e-04   2.4631319e-05   1.9998994e-04   1.0592535e-04  -1.1484914e-05   9.9906421e-05  -1.1698167e-05   8.6081226e-04   2.6724886e-04   1.9114972e-04  -3.2580530e-05   1.5209442e-04  -4.9311557e-04   2.1253276e-04  -3.4329115e-04  -7.6503144e-04  -1.6438177e-04  -1.6462727e-04  -7.7617285e-04   1.4004720e-04   9.0796973e-05  -1.8798237e-05   1.4613313e-05  -5.3157815e-04  -4.4228265e-04  -1.1161780e-04  -7.3255789e-05   9.3847942e-05  -7.6949055e-04  -1.3185921e-03  -4.2175388e-04  -1.4306381e-04  -3.9041013e-04  -5.1952778e-05  -8.6358655e-04  -3.4909506e-04  -2.2309285e-04  -9.2459982e-04  -4.7089250e-04  -1.5640015e-03  -1.4123912e-03  -1.7674155e-04  -4.6740568e-04  -3.1055813e-05  -1.1883032e-03  -1.5273819e-03   2.1522051e-04  -5.2936823e-04  -1.0816957e-03
   2.0585906e-04   2.6739185e-04   6.7060326e-05   2.4479436e-04   1.8754056e-04   1.1228897e-04   1.3133921e-04   1.5861250e-04   1.0752000e-03   5.0983345e-04   3.7288846e-04   1.7171641e-04   2.2479445e-04  -4.9139973e-04   3.2663308e-04  -2.7119866e-04  -7.8004092e-04  -1.6238085e-04  -5.4852528e-05  -7.0525188e-04   1.6841209e-04   1.7995921e-04   7.4914322e-05   1.5176558e-04  -4.7484000e-04  -4.2366967e-04  -1.7823368e-05  -2.7035605e-05   4.4309149e-05  -6.6197990e-04  -1.3617666e-03  -3.0878116e-04   1.7264688e-04  -2.7929340e-04   1.4162048e-04  -7.8395189e-04  -2.6262456e-04  -1.9761879e-04  -7.6767511e-04  -2.5875936e-04  -1.5333423e-03  -1.1894415e-03  -8.9587484e-05  -2.0170108e-04   5.1497042e-05  -5.6959642e-04  -1.5890325e-03   2.9490780e-04  -1.3544055e-04  -2.8272110e-04
   1.0565631e-04   2.6483243e-04   1.2615159e-04   2.6881078e-04   1.6468842e-04   1.0538159e-04   1.5264895e-04   2.0062769e-04   1.0437764e-03   4.0421411e-04   3.2381061e-04   1.2687848e-04   2.4446048e-04  -4.6662946e-04   2.6578724e-04  -3.0324669e-04  -7.3235336e-04  -1.7637147e-04   3.2556560e-05  -6.8451598e-04   1.7114717e-04   1.3771394e-04   2.6709280e-05   5.8718077e-05  -4.9991813e-04  -4.4636428e-04   8.3609440e-05  -2.9753915e-05  -7.7630706e-05  -6.5258623e-04  -1.3876810e-03  -3.2851368e-04   1.0357162e-04  -3.1111878e-04   4.1553307e-05  -5.9365062e-04  -1.5994768e-04  -2.3330451e-04  -8.2859705e-04  -4.1099559e-04  -1.4477998e-03  -1.1712096e-03  -7.9379760e-04  -8.1952996e-05  -1.0136893e-04  -9.0264867e-04  -1.5858123e-03  -2.3785369e-04  -3.7893085e-04  -1.2466894e-03
   8.1357408e-05   1.2930819e-04   2.9976154e-05   2.1229763e-04   6.8192800e-05  -5.3708551e-05   2.3313476e-05  -7.8857869e-05   7.7235146e-04   1.4833009e-04   1.1452132e-04  -2.2100077e-05   1.2801182e-04  -4.4838103e-04   1.7538050e-04  -2.9880446e-04  -7.2078838e-04  -2.0024700e-04  -1.1297402e-05  -7.5640372e-04   1.2571993e-04   1.2211227e-04   4.6274417e-05  -1.5088866e-05  -3.9000591e-04  -3.6768883e-04   5.6030931e-06  -3.5592238e-06  -2.8403696e-05  -5.7676394e-04  -1.2273738e-03  -2.8702759e-04   1.0601403e-04  -1.8459944e-04   8.6905304e-05  -6.4590538e-04  -3.3765499e-04  -1.7783770e-04  -6.9858297e-04  -2.5789707e-04  -1.3054145e-03  -1.0702016e-03  -1.6613503e-04   4.0829393e-05   1.2830911e-04  -8.4241631e-04  -1.3020196e-03   7.3737337e-04   7.8772486e-05  -7.0153142e-04
   2.1041257e-04   2.9591477e-04   1.3626716e-04   3.1486514e-04   2.1912693e-04   1.1155945e-04   1.9045766e-04   1.6705930e-04   1.2515844e-03   4.3946985e-04   3.8670018e-04   2.1098371e-04   2.4802983e-04  -3.1545892e-04   2.0362959e-04  -2.1584224e-04  -6.5206329e-04  -1.8464816e-04  -8.2913157e-06  -6.6043431e-04   1.6823498e-04   1.7505362e-04   9.8240838e-05   1.4282492e-04  -4.4584309e-04  -3.6368013e-04   8.9130168e-05  -3.6716774e-05  -3.2555279e-05  -5.4282980e-04  -1.2081061e-03  -2.8317905e-04   3.1363298e-04  -2.3835129e-04   1.6756020e-04  -6.1421318e-04  -2.7480171e-04  -1.1151196e-04  -6.6407659e-04  -2.7716413e-04  -1.3095578e-03  -1.0665931e-03  -3.2188094e-04  -6.9614314e-04  -1.2667808e-05  -6.6341244e-04  -1.3593930e-03   6.3250540e-04  -3.5163283e-04  -1.4245291e-03
   1.7501021e-04   1.9269533e-04   9.7043150e-05   2.8498765e-04   1.3974709e-04   7.2977040e-05   1.4160514e-04   2.0655137e-04   1.0741740e-03   2.4622123e-04   2.5534915e-04   1.3443617e-04   2.1504935e-04  -3.9812361e-04   1.8429586e-04  -2.0334229e-04  -6.5798365e-04  -2.4858632e-04  -1.3031802e-04  -7.3492597e-04   1.1186775e-04   4.6888104e-05   4.0747262e-05   7.0232098e-05  -5.1162933e-04  -3.3762638e-04   3.0353969e-05  -6.1198087e-05   1.0125206e-04  -6.2891655e-04  -1.2252335e-03  -2.4196468e-04   2.0561650e-04  -3.3531661e-04   2.4998626e-05  -5.0972431e-04  -3.0158518e-04  -1.6971226e-04  -8.0309930e-04  -3.3647779e-04  -1.2759819e-03  -1.1350954e-03   3.3944987e-05  -4.5009525e-05  -8.6514789e-05  -7.3577085e-04  -1.2821704e-03  -5.5658363e-04  -1.6144630e-04  -1.7349157e-05
   2.0912461e-04   2.5819501e-04   1.3517897e-04   3.1172350e-04   1.7957212e-04   8.3810461e-05   2.3312958e-04   8.1712729e-05   1.2540563e-03   4.6798197e-04   4.2571613e-04   3.2296334e-04   3.0432252e-04  -2.8167106e-04   2.3265828e-04  -2.1935438e-04  -5.8725168e-04  -2.3637452e-04   5.9194732e-05  -6.7250559e-04   1.2576835e-04   6.9778063e-05   5.8080306e-05   2.1356807e-04  -4.8837007e-04  -1.6123903e-04   3.4742785e-05  -8.9641770e-05   4.0634670e-05  -5.5853883e-04  -1.0428563e-03  -2.1643532e-04   1.4870196e-04  -9.3615461e-05   1.5516442e-04  -3.7416708e-04  -7.2371680e-05  -1.7420847e-04  -6.6581729e-04  -8.4067280e-05  -8.9041021e-04  -8.2649454e-04   2.7491471e-05  -3.1964588e-05  -4.8876941e-06  -6.5351964e-04  -1.0939151e-03  -6.5154984e-04  -1.7068139e-04  -1.1413108e-03
   2.5818852e-04   2.5866699e-04   1.3165885e-04   3.4988756e-04   1.6885993e-04   2.4578430e-05   2.3087487e-04   1.1401595e-04   1.0729404e-03   3.2150175e-04   3.6911215e-04   2.3430382e-04   2.5146850e-04  -2.9846240e-04   2.2792100e-04  -2.5332370e-04  -5.4066692e-04  -2.1649034e-04   4.9692680e-06  -6.4551539e-04   1.1646452e-04   5.5250272e-05   4.8330643e-05   1.5077603e-04  -4.8599043e-04  -2.1478847e-04  -6.2684099e-05  -5.1385428e-05   2.8966196e-04  -5.3159153e-04  -1.0325208e-03  -1.8804788e-04   1.8124036e-04  -1.9738672e-04   1.2859322e-04  -3.9589073e-04  -4.3317479e-05  -1.5546716e-04  -6.6349428e-04  -2.3168602e-04  -1.1619658e-03  -1.0304380e-03  -2.6659385e-04   3.5430593e-04  -1.2542396e-04  -7.0200558e-04  -1.2873854e-03  -4.9465091e-04   1.0275431e-04  -9.6363935e-04
   1.1696587e-04   1.3668036e-04   1.0424144e-04   2.7687100e-04   1.3770770e-04   1.0202705e-04   1.2106459e-04  -4.9394115e-05   1.1436226e-03   3.4089718e-04   3.6156154e-04   2.6106290e-04   2.6135391e-04  -2.1734941e-04   2.1834951e-04  -1.4887785e-04  -5.1376177e-04  -2.0696878e-04   2.7231379e-05  -6.4917619e-04   1.2052767e-04   1.5077898e-05   1.2306336e-04   8.2260362e-05  -5.0725479e-04  -1.9364132e-04   1.5856350e-04  -4.5247736e-05   1.8867134e-04  -4.4689130e-04  -1.0447067e-03  -2.0741942e-04   3.8730062e-04  -7.6607408e-05   2.5123041e-04  -1.9287270e-04   2.3599820e-04  -8.7656510e-05  -5.8473257e-04  -5.7489142e-05  -1.1532252e-03  -9.6175773e-04   1.2309614e-04   2.8260451e-04   1.0332121e-04  -3.8475456e-04  -1.0197832e-03   4.6674427e-04  -1.5074278e-04  -1.2030149e-04
   2.9948904e-04   3.0892817e-04   2.2899536e-04   3.8070875e-04   2.0451663e-04   1.8651421e-04   2.9431429e-04   1.8227517e-04   1.0509724e-03   3.6511209e-04   4.5617128e-04   3.0603391e-04   3.5360979e-04  -1.9574849e-04   2.7798777e-04  -1.1373231e-04  -4.8256820e-04  -1.6585093e-04  -1.9198762e-05  -5.7068595e-04   1.8190022e-04   1.4076446e-04   4.2059368e-05   1.3135282e-04  -4.2215007e-04  -7.8247656e-05   1.7456466e-04  -1.4874106e-05  -3.7417409e-05  -4.2067934e-04  -1.0536223e-03  -1.6166329e-04   2.1180860e-04   3.4691970e-05   2.2440453e-04  -3.2914028e-04   3.1430623e-05  -4.6390269e-05  -6.0735748e-04  -1.1035035e-04  -1.1932410e-03  -1.0592252e-03  -1.5398553e-04  -2.3568579e-04   2.4683266e-05  -1.1900502e-04  -1.1638050e-03   2.2804116e-04   8.5970369e-06  -7.3335413e-04
   2.3035737e-04   2.2411563e-04   1.4861974e-04   3.3845447e-04   1.5446161e-04   6.2173007e-05   1.9898076e-04  -2.1988597e-04   1.0021096e-03   1.4456095e-04   2.8891285e-04   1.5256010e-04   2.0623347e-04  -2.3985149e-04   2.2651849e-04  -1.0942318e-04  -4.9224729e-04  -2.0421202e-04  -4.7189864e-05  -6.6275260e-04   1.3105647e-04  -5.7470761e-06   8.5514665e-05   6.0007638e-05  -5.1455980e-04  -2.5657832e-04   2.4792663e-04  -9.6449689e-08   6.4525681e-05  -4.4950450e-04  -9.9108147e-04  -2.1263030e-04   2.2798860e-04  -1.2303915e-04   1.8316932e-04  -2.2301232e-04  -9.0145775e-05  -1.3195096e-05  -5.1868410e-04  -1.0226721e-04  -1.2792533e-03  -9.8478270e-04   3.1253722e-04   8.7858352e-05   6.1230137e-05  -4.1178017e-04  -1.1152432e-03   8.1135571e-04  -1.1869459e-04  -1.4556827e-03
   3.9054538e-04   3.5828570e-04   2.3132905e-04   4.1855380e-04   2.8010397e-04   1.9454415e-04   3.4834960e-04   3.5138408e-04   1.2673975e-03   4.8333502e-04   5.4545590e-04   4.0755619e-04   3.8912965e-04  -1.6273717e-04   2.7309655e-04  -1.3723315e-04  -4.2028073e-04  -1.7254300e-04   5.9610597e-05  -5.0531380e-04   2.0956037e-04   1.1989399e-04   3.5133606e-05   3.4905368e-04  -4.2050975e-04  -2.5232723e-05   1.9858962e-04   5.8785513e-06   3.8888542e-05  -3.8276389e-04  -1.0799268e-03  -1.0284917e-04   2.9749621e-04   3.4560479e-05   3.1764887e-04  -2.2569770e-04   1.3043379e-04  -9.5230380e-06  -4.8465343e-04   3.2023083e-05  -1.0377680e-03  -9.6204167e-04  -6.8842579e-05   6.8386749e-04   1.2870276e-04  -4.7227179e-04  -1.0453864e-03  -3.6910587e-04  -1.2062929e-04  -9.2413911e-04
   3.8756357e-04   3.2354859e-04   2.3269809e-04   4.0981261e-04   2.4244009e-04   1.7555569e-04   2.9968278e-04   2.7561368e-04   1.0605332e-03   2.8599356e-04   4.5114080e-04   2.8244508e-04   3.0529339e-04  -2.3029285e-04   2.0006482e-04  -6.2942810e-05  -4.7309804e-04  -1.6830288e-04  -5.2024312e-05  -5.1767466e-04   2.1684710e-04   1.1840390e-04   5.4199954e-05   2.3570498e-04  -4.4086794e-04  -8.1124861e-05   1.5692992e-04   5.5281375e-06   2.4056305e-04  -3.7869133e-04  -1.1295280e-03  -1.9251142e-04  -5.4181011e-05  -4.6452406e-05   2.3314987e-04  -3.5295726e-04   1.3004239e-04   1.9710995e-05  -5.3141610e-04  -1.4093744e-04  -1.2810221e-03  -1.1322354e-03  -4.5259148e-04  -1.8931941e-04  -5.7821144e-06  -5.0689629e-04  -1.1858133e-03   3.7805899e-04  -2.3969253e-04  -8.2162535e-04
   1.7923655e-04   2.0079520e-04   1.6372246e-04   3.2138219e-04   1.8580157e-04   1.1190354e-04   1.9244706e-04   1.1782066e-04   1.0857293e-03   3.7585251e-04   4.6600556e-04   3.5903533e-04   2.8636470e-04  -3.0067260e-04   2.7230324e-04   4.3661298e-06  -4.8892642e-04  -1.5761019e-04   6.3419116e-05  -5.2044360e-04   2.2858454e-04   1.7278887e-04   7.8795551e-05   2.1252518e-04  -4.1158427e-04  -8.4574596e-05   1.3376845e-04   1.2828260e-05   2.4142608e-04  -3.2263665e-04  -1.1348618e-03  -1.7386877e-04   3.9108490e-04  -6.9710855e-05   2.7240577e-04  -3.0812729e-04   1.0652676e-04   9.3196773e-05  -4.2832529e-04   2.4860467e-05  -9.8161434e-04  -1.0171515e-03  -7.9786041e-05  -3.0169255e-04   2.0758224e-04  -4.3261828e-04  -1.0334086e-03   6.2025595e-04  -1.2013700e-04  -1.7229086e-03
   4.7267112e-04   3.9063819e-04   2.9427305e-04   4.4365574e-04   2.9647292e-04   2.0808911e-04   3.7929104e-04   4.0846129e-04   1.1937463e-03   4.2055568e-04   5.5915525e-04   3.6665809e-04   3.6193404e-04  -2.4837861e-04   2.4443102e-04  -3.4848912e-05  -4.6500357e-04  -1.5865220e-04   1.9567063e-04  -4.3383118e-04   2.7630397e-04   1.9060328e-04   1.6256400e-04   3.8153044e-04  -5.0857873e-04  -1.0447629e-04   1.8165271e-04  -3.3678225e-05   1.5758802e-04  -3.1490327e-04  -1.2323136e-03  -2.2152951e-04   2.4348957e-04  -2.8154809e-05   2.8003452e-04  -2.3613346e-04   2.7169430e-04   6.3407431e-05  -4.1621676e-04  -2.1655606e-04  -1.1735992e-03  -1.0814220e-03  -6.8397808e-04   7.9717887e-05   1.6947801e-04  -3.5000086e-04  -1.0774662e-03   3.1503255e-04  -1.0436041e-04  -1.4870570e-03
   4.2293276e-04   3.0007408e-04   2.6053711e-04   3.8049999e-04   2.4571118e-04   1.6361971e-04   2.2580246e-04   8.6744047e-05   9.7804167e-04   2.1162930e-04   3.8637858e-04   2.1262107e-04   2.7963705e-04  -3.7390433e-04   2.0725939e-04  -1.1835739e-04  -5.2054547e-04  -2.1686198e-04   1.4470870e-04  -5.2716595e-04   2.3130425e-04   1.1500631e-04   1.6730960e-04   1.6446855e-04  -4.8310813e-04  -1.3674748e-04   1.2466840e-04  -3.4953784e-05   9.4644929e-05  -4.0078128e-04  -1.3248473e-03  -2.3494470e-04   1.2020768e-04  -1.5457523e-04   1.8933030e-04  -4.4497158e-04   9.0882022e-05   2.3221230e-05  -4.7568319e-04  -1.6909649e-04  -1.2769473e-03  -1.0347201e-03  -8.8878011e-04  -1.0550753e-04   1.6200892e-04  -2.8783764e-04  -1.0918053e-03  -6.8985159e-05  -1.9959327e-05  -2.6084034e-04
   5.4460054e-04   3.9051980e-04   2.7584253e-04   4.3674762e-04   2.9022322e-04   2.1552641e-04   2.8760641e-04   2.2407639e-04   1.2691949e-03   5.1239919e-04   6.2016241e-04   4.0193886e-04   3.3234502e-04  -3.0081515e-04   2.1035358e-04   1.9871888e-05  -5.0061056e-04  -1.8401543e-04   1.4655359e-04  -4.1904571e-04   2.9336929e-04   2.3604375e-04   1.4465456e-04   4.4081814e-04  -4.1530642e-04  -1.0463363e-05   1.3074932e-04  -2.4110761e-05   4.0149197e-04  -2.8078823e-04  -1.1317610e-03  -1.0820344e-04   3.4181564e-04   8.3384375e-06   3.5815311e-04  -2.1594585e-04   1.2200999e-04   6.2423198e-05  -3.5131819e-04   8.4747167e-05  -1.0149762e-03  -8.9018623e-04  -2.4175191e-04   6.1359096e-05   2.5439757e-04  -6.1651133e-04  -1.0620763e-03  -5.8466771e-06  -3.9600258e-04  -9.1223523e-04
   5.5805122e-04   4.1858808e-04   3.5987145e-04   4.8900238e-04   3.4689487e-04   2.4892576e-04   3.5367615e-04   3.0103413e-04   1.0938644e-03   4.0139511e-04   5.4386619e-04   3.1243122e-04   3.3142773e-04  -3.1466116e-04   2.4995772e-04  -9.0943922e-06  -4.7294973e-04  -2.0070183e-04   2.8887446e-04  -4.1162912e-04   2.9859805e-04   2.0305476e-04   1.6213232e-04   2.8948436e-04  -4.6316755e-04  -7.1627299e-05   1.7650837e-04  -4.3899912e-05   2.5421084e-04  -2.9257967e-04  -1.2467345e-03  -2.2589503e-04   2.8145115e-04  -4.2437860e-05   2.1790844e-04  -3.5328980e-04   8.4147207e-05   5.4719974e-05  -4.0870690e-04   5.0791881e-05  -1.3657310e-03  -1.0718442e-03  -7.2464143e-05  -3.6654953e-04   1.5645989e-04  -5.5422046e-04  -1.2171270e-03   1.3589067e-03  -2.5742126e-04  -9.7421306e-04
   2.5896475e-04   2.8819987e-04   2.6879570e-04   3.9023344e-04   2.2706127e-04   1.7032198e-04   2.1364764e-04  -2.1557366e-04   8.6506532e-04   2.2300193e-04   3.2926118e-04   1.5819949e-04   2.2541193e-04  -2.8463014e-04   6.4886277e-05  -1.2095570e-05  -4.5079071e-04  -2.0932840e-04   1.4459340e-04  -4.6852478e-04   2.6691725e-04   2.3229745e-04   9.6277974e-05   3.8480578e-04  -5.3758145e-04  -3.7957732e-05   1.7198506e-04  -3.6081426e-06   3.7950638e-04  -2.1276949e-04  -1.1042141e-03  -1.9691826e-04   4.1483733e-04  -3.1526968e-05   3.3979848e-04  -4.9006654e-04   2.5163495e-04   9.8123477e-05  -3.3978897e-04   1.9159130e-04  -1.1773794e-03  -9.2633913e-04  -7.0184564e-05   2.2830596e-04   2.8445903e-04  -3.9258908e-04  -1.0284059e-03   1.0428888e-03  -4.4416584e-04  -1.2604176e-03
   5.1993277e-04   4.9158843e-04   3.9133089e-04   5.3119491e-04   3.6920336e-04   3.2480835e-04   4.4694936e-04   2.5512135e-04   1.1936473e-03   5.1479699e-04   6.0073490e-04   3.6192071e-04   3.7385189e-04  -2.5974156e-04   2.3067047e-04   4.6562367e-05  -3.9939559e-04  -1.7288713e-04   2.5274168e-04  -3.2556313e-04   3.5089231e-04   2.9500164e-04   2.7169156e-04   5.8296294e-04  -3.8169703e-04   2.4079060e-05   2.6365859e-04   5.8922701e-06   2.7999212e-04  -2.4707071e-04  -1.1369837e-03  -1.9315323e-04   3.3482799e-04   3.7492140e-05   3.0384626e-04  -3.3282730e-04   3.6815426e-04   1.2824840e-04  -3.0160713e-04   1.5712038e-04  -1.3450829e-03  -9.8798284e-04   7.8664561e-05   4.3934287e-04   2.2436040e-04  -3.3045089e-04  -9.5814635e-04   3.5267964e-04  -1.0475750e-04  -2.5593247e-03
   6.0642191e-04   3.8682373e-04   3.7083298e-04   4.7918528e-04   2.9077593e-04   2.7480337e-04   3.1048065e-04   6.0230555e-05   1.0468306e-03   2.9330881e-04   4.0759309e-04   1.8500802e-04   2.4277580e-04  -2.1503252e-04   1.6854586e-04  -2.2188362e-05  -3.8539842e-04  -2.0190884e-04   1.6592887e-04  -4.1570075e-04   2.9968686e-04   1.7790588e-04   1.3301719e-04   3.8694360e-04  -4.5829048e-04  -3.1877367e-05   1.8560514e-04  -2.1547226e-05   1.9426034e-04  -2.9157836e-04  -1.1305823e-03  -2.2416255e-04   3.1995735e-04  -1.1346801e-04   2.2718719e-04  -3.4872856e-04   1.3990857e-04   9.2053444e-05  -3.5476015e-04  -8.4281950e-05  -1.5049580e-03  -9.9498197e-04  -6.6012813e-05  -8.6550630e-05   8.4494604e-05  -3.3538320e-04  -1.1323148e-03   8.1709659e-05  -3.3624825e-04   6.3595940e-07
   4.6523937e-04   4.0145178e-04   3.4733446e-04   4.5468597e-04   3.3539164e-04   3.3781712e-04   3.6624903e-04   3.8181461e-05   1.3098500e-03   4.9334858e-04   5.1151292e-04   3.0897214e-04   2.6338460e-04  -1.8219453e-04   1.5738685e-04   1.0692677e-05  -3.7164136e-04  -2.0798994e-04   3.4956424e-04  -3.5282038e-04   3.2793439e-04   3.0096588e-04   2.7138038e-04   4.3074400e-04  -4.4909501e-04   3.0102867e-06   2.6352011e-04  -5.3482099e-06   1.1021881e-04  -2.1508111e-04  -1.0841904e-03  -1.2000518e-04   3.8371337e-04   1.6905551e-04   4.1236865e-04  -3.4075399e-04   3.7174727e-04   1.4996837e-04  -2.3359460e-04   9.3154456e-05  -1.2305246e-03  -8.8062620e-04   1.4309025e-04   6.3742622e-04   2.8223699e-04  -2.7787342e-04  -9.7829744e-04   5.9997855e-04   4.1805333e-04  -1.5302866e-03
   6.0497224e-04   4.5048274e-04   4.0476987e-04   4.9571559e-04   3.6273539e-04   4.3902727e-04   3.7270426e-04   2.9506677e-04   1.2612289e-03   4.2969474e-04   4.6672506e-04   2.7505856e-04   2.8294104e-04  -2.1748486e-04   2.0475176e-04   9.9450772e-06  -3.7594847e-04  -2.1266715e-04   3.8584127e-04  -3.1115909e-04   3.5018538e-04   2.9610359e-04   2.9644396e-04   5.0744612e-04  -4.4199536e-04  -1.0604342e-04   2.0274076e-04  -1.8337671e-05   2.0286140e-04  -2.0872397e-04  -1.1004417e-03  -2.2139354e-04   3.0030409e-04  -7.6016249e-06   2.3150558e-04  -3.7513135e-04   1.2124301e-04   7.4650728e-05  -3.1733466e-04   2.2308160e-04  -1.2573535e-03  -1.0536024e-03  -4.6195358e-04   1.0599245e-04   2.3956910e-04  -5.8009743e-04  -1.1211431e-03   5.4226047e-04  -1.6453423e-04  -1.6403659e-03
   4.2435282e-04   3.1394258e-04   2.9877745e-04   4.2433164e-04   2.8582022e-04   2.1308252e-04   2.3718635e-04   7.7026067e-05   7.9918618e-04   1.5441679e-04   2.2962678e-04   6.7397807e-05   1.2188120e-04  -2.8278033e-04   9.8775483e-05  -5.7782268e-05  -4.4075548e-04  -2.3491011e-04   2.2338361e-04  -4.6685859e-04   2.8007926e-04   1.8793717e-04   1.3167007e-04   2.6298990e-04  -4.4944539e-04  -1.7887121e-04   9.0360802e-05  -3.5717178e-05   2.2622090e-04  -2.9377351e-04  -1.1063301e-03  -2.2048297e-04   4.2354915e-04  -1.4775620e-05   2.3712855e-04  -3.1064521e-04   3.3903285e-04   1.6368314e-04  -3.3600870e-04   8.7768858e-05  -1.3608895e-03  -9.3579123e-04  -6.5083941e-04  -8.0653510e-05   3.1284484e-04  -7.5661187e-04  -1.1307473e-03   3.5237218e-04  -2.7209037e-04  -2.0891735e-03
   6.5902970e-04   4.4532923e-04   3.6108124e-04   4.7495181e-04   3.7640519e-04   4.1174123e-04   3.9990747e-04   2.3478380e-04   1.2000287e-03   4.8421512e-04   4.8470116e-04   3.0289657e-04   2.3414321e-04  -3.2685799e-04   1.4181272e-04  -1.3326781e-05  -4.4426342e-04  -2.1998778e-04   2.1668368e-04  -3.3630399e-04   3.5277667e-04   2.7616450e-04   3.5648406e-04   4.2990051e-04  -5.2512123e-04  -7.2918134e-05   1.9011460e-04  -1.2236546e-05   2.0411953e-04  -2.1588658e-04  -1.2145992e-03  -1.9911895e-04   3.0858425e-04   1.0797517e-05   2.3449989e-04  -4.1569688e-04   1.6504829e-04   1.2207335e-04  -2.6373458e-04  -4.9303915e-05  -1.5814838e-03  -1.1140918e-03  -2.9351166e-04   5.2009345e-05   3.1545918e-04  -5.7657948e-04  -1.1369607e-03   2.3885342e-04   2.8405070e-06  -5.1735586e-04
   6.0386094e-04   3.7880053e-04   3.0155634e-04   4.5881551e-04   3.4811065e-04   3.7328116e-04   3.6261938e-04   1.6035781e-04   1.0196539e-03   2.9112952e-04   3.0979977e-04   1.7079490e-04   1.4394152e-04  -4.1748764e-04   1.6263906e-04  -2.6823180e-05  -5.0560822e-04  -2.3829904e-04   2.7357205e-04  -3.8862621e-04   3.3688417e-04   2.8071014e-04   1.7737465e-04   2.7951054e-04  -5.4719951e-04  -2.3385583e-04   1.4374188e-04  -3.1396892e-05   4.2317511e-04  -2.7168958e-04  -1.3584332e-03  -2.5727795e-04   2.6248727e-04  -1.4359268e-04   1.6569035e-04  -5.5686198e-04   3.0639957e-04   2.1683289e-05  -3.4698870e-04  -2.8894549e-06  -1.3196878e-03  -1.1637666e-03  -7.9734920e-04   3.4630828e-04   1.0288386e-04  -8.0911076e-04  -1.3014316e-03  -7.7431387e-04  -4.6755208e-04  -1.2538010e-03
   3.9058429e-04   2.5202153e-04   2.3065125e-04   3.6079515e-04   3.0814952e-04   3.2745535e-04   3.3233504e-04  -8.2375291e-06   1.0592629e-03   3.6671059e-04   3.0131781e-04   2.1659836e-04   1.8135324e-04  -3.5368360e-04   1.4717641e-04  -3.2954482e-05  -5.3051376e-04  -2.2992434e-04   2.5467851e-04  -3.9929085e-04   3.1150744e-04   2.3561450e-04   1.8869375e-04   3.7225749e-04  -4.7234667e-04  -1.8139111e-04   8.6443484e-05  -4.2891308e-05   3.2303715e-04  -2.2639699e-04  -1.3270471e-03  -2.0707014e-04   2.2714717e-04  -4.4575470e-05   1.4663172e-04  -4.3888146e-04   1.5455467e-04   8.1488928e-05  -2.4491333e-04   8.3944084e-05  -1.4089027e-03  -1.0913769e-03  -3.6166975e-04   5.0818484e-04   2.3701788e-04  -4.4319520e-04  -1.2739690e-03   7.4203919e-05   2.5061847e-05  -1.0479656e-03
   5.9718912e-04   3.9815507e-04   2.9128647e-04   4.4805126e-04   3.7994338e-04   3.6865994e-04   4.2755823e-04   2.3794328e-04   1.0145614e-03   3.7817605e-04   3.5677341e-04   2.2290240e-04   1.7033782e-04  -3.6106911e-04   1.0487062e-04  -8.5435859e-05  -4.8825543e-04  -2.3568673e-04   2.6880397e-04  -3.8198827e-04   3.4402497e-04   2.8696773e-04   2.3166121e-04   2.7340188e-04  -4.9194170e-04  -2.1280684e-04   1.4078396e-04  -5.0560837e-05   3.2885120e-05  -2.0779572e-04  -1.2628429e-03  -2.6535647e-04   2.5075127e-04  -1.2559156e-04   1.1589035e-04  -5.2694132e-04   2.7511475e-04   5.2552678e-05  -2.7939025e-04   5.6287157e-05  -1.3386422e-03  -1.3085477e-03  -4.1835697e-04  -2.1673637e-04   1.9449998e-04  -6.7310099e-04  -1.3107966e-03   5.1503611e-04  -6.0271082e-04  -1.6938560e-03
   4.3991290e-04   2.9461700e-04   2.1815966e-04   3.7458102e-04   2.8711840e-04   2.4539421e-04   2.9397703e-04   1.8486120e-05   8.0336822e-04   1.3216633e-04   1.7073085e-04   3.4098342e-05   9.0290196e-05  -4.1045190e-04   8.9217334e-05  -1.0258995e-04  -5.5460556e-04  -2.2642134e-04   9.2748589e-05  -4.9662846e-04   2.9128796e-04   2.0882681e-04   8.7411281e-05   2.2372759e-04  -5.6037982e-04  -3.2947358e-04   1.0469432e-04  -1.9664067e-05   1.9387742e-04  -3.5456524e-04  -1.3123692e-03  -3.5259244e-04   5.6151533e-05  -1.5005154e-04   8.0256832e-05  -5.7958736e-04  -1.0521496e-04   2.7231205e-05  -3.5116839e-04   1.0357692e-04  -1.5176703e-03  -1.2227853e-03  -3.8861696e-04   5.8113041e-05   3.0320417e-04  -4.2713896e-04  -1.3272844e-03  -2.4579477e-04  -6.0726710e-05  -9.9463959e-04
   4.7289301e-04   3.9571259e-04   2.3566991e-04   4.2268838e-04   3.7902975e-04   4.1344517e-04   4.0029976e-04   2.9288084e-04   1.0985592e-03   4.1544577e-04   3.7200280e-04   2.4133714e-04   1.8387078e-04  -3.8136335e-04   1.9962355e-04  -1.0686528e-05  -5.2390911e-04  -1.8904835e-04   1.4365403e-04  -3.8697585e-04   3.4986777e-04   3.2032444e-04   5.6889061e-05   3.1392821e-04  -4.7600752e-04  -1.7531739e-04   7.1950075e-05  -3.1054347e-05   3.0437094e-04  -2.5164458e-04  -1.2776529e-03  -2.7952780e-04   3.0085392e-04  -1.1451335e-05   1.3171777e-04  -5.6030817e-04   1.4648153e-04  -1.6367378e-05  -2.7240330e-04   2.4318820e-04  -1.3233066e-03  -1.1849219e-03  -4.8842729e-04   3.9246387e-04   2.2534584e-04  -6.6422456e-04  -1.3500056e-03  -2.9845804e-04   2.4670290e-04  -1.7498498e-04
   4.0377714e-04   3.4485685e-04   2.2754240e-04   3.7690485e-04   3.1922926e-04   3.9029913e-04   3.5441256e-04   3.0372583e-04   9.5096126e-04   2.1237528e-04   2.5653615e-04   1.0859835e-04   1.0699519e-04  -3.8383069e-04   1.4187951e-04  -6.8422050e-05  -5.2662013e-04  -2.1129701e-04   3.1312500e-04  -4.5432415e-04   3.1282342e-04   2.4432674e-04   5.0289527e-05   3.1627828e-04  -5.5974716e-04  -3.7981765e-04   1.4940584e-04  -4.3519110e-05   1.8415129e-04  -2.8574702e-04  -1.3057101e-03  -3.3478325e-04   1.8402618e-04  -1.2794332e-04   1.2681677e-04  -5.3375791e-04  -1.0718985e-05   1.2515210e-05  -3.7819945e-04   1.4690710e-05  -1.4721450e-03  -1.1771882e-03  -7.1585446e-04   3.4893041e-05   9.7360287e-05  -6.4682640e-04  -1.5220721e-03  -1.5708918e-03  -4.7023792e-04  -1.0012457e-03
   3.8005353e-04   1.8263189e-04   1.3902766e-04   2.6700037e-04   1.8866837e-04   1.6967910e-04   2.0195769e-04   7.3151838e-05   7.7800563e-04   5.2115498e-05   8.5659573e-05   1.8868219e-06   2.5248599e-05  -4.5385439e-04   1.7493428e-04  -7.5166514e-05  -5.8488880e-04  -2.3845732e-04   1.0432495e-04  -5.3331832e-04   2.6832873e-04   2.0900354e-04  -8.5501728e-05   1.5264851e-04  -5.7794474e-04  -2.9088388e-04   1.5043469e-04  -3.2055741e-05   1.9449326e-04  -2.7272545e-04  -1.3673989e-03  -3.2727775e-04   1.2658813e-04  -1.5692906e-04   1.1335760e-04  -5.5246614e-04   1.2608437e-04  -6.2706138e-05  -2.8088273e-04   1.4582652e-04  -1.4621883e-03  -1.1794386e-03  -5.1576330e-04   4.2526980e-04   2.5616202e-04  -5.7365966e-04  -1.3817052e-03   8.3585345e-04   7.7468940e-05  -9.6670340e-04
   5.2260980e-04   3.5241287e-04   1.9775883e-04   3.5408800e-04   3.1219292e-04   3.3580218e-04   3.7736580e-04   8.0524460e-06   9.5674902e-04   2.7392464e-04   2.8743740e-04   1.5246290e-04   1.3842374e-04  -4.0098492e-04   2.5699098e-04  -5.4454271e-05  -5.4505392e-04  -2.3005449e-04   4.3994169e-05  -4.9568911e-04   2.9441822e-04   2.4621637e-04   7.8536817e-05   1.2589076e-04  -5.9772446e-04  -3.0236650e-04   4.1265703e-05  -2.3586104e-05   3.0806288e-04  -2.7914945e-04  -1.3108015e-03  -3.3311147e-04   1.9364008e-04  -1.1794833e-04   2.5269488e-05  -6.5897463e-04   1.5249287e-04  -1.6186572e-05  -3.0748913e-04   9.7855656e-05  -1.4596983e-03  -1.2046611e-03  -5.4187265e-05  -4.3524941e-04   1.1780138e-04  -5.9423636e-04  -1.3488140e-03   5.9498916e-04  -9.8789961e-04  -1.2548388e-03
   4.0676119e-04   2.3713334e-04   1.2153720e-04   3.0596284e-04   2.4446985e-04   2.7034528e-04   2.6240078e-04   2.8612188e-04   7.9280132e-04   4.9919501e-05   1.1603550e-04  -1.2288131e-05   3.3042354e-05  -4.0103757e-04   1.1707199e-04  -9.4082134e-05  -6.1481178e-04  -2.4718093e-04  -2.8608902e-05  -5.8840471e-04   2.3493460e-04   1.5659137e-04  -4.6491841e-05  -3.2297094e-06  -5.6877232e-04  -5.6123652e-04   1.5144273e-04  -6.7129004e-05   1.6797037e-04  -3.7364179e-04  -1.3491038e-03  -3.7067718e-04   1.5194956e-04  -2.2629015e-04   2.7625678e-05  -6.7648944e-04  -4.3829674e-05  -8.6077474e-05  -3.9666140e-04  -1.2758643e-04  -1.7780903e-03  -1.2936433e-03   2.0279013e-07   5.8271806e-05  -1.0214320e-04  -6.5772544e-04  -1.4479493e-03   4.0628078e-05  -1.1235271e-03  -1.0674366e-03
   4.3658295e-04   2.3540280e-04   3.2453750e-05   2.4337697e-04   2.5981470e-04   2.8069716e-04   2.7308663e-04   3.0154551e-04   1.0891290e-03   2.3692391e-04   2.2805783e-04   1.0858281e-04   7.4796611e-05  -4.1224738e-04   1.5785992e-04  -5.0418889e-06  -6.4091693e-04  -2.1944624e-04  -9.8280529e-05  -5.8983709e-04   2.3822590e-04   1.4235622e-04  -2.3952845e-05   2.9972429e-05  -5.4971065e-04  -3.2918257e-04   1.4480832e-04  -3.5325458e-05   3.5048884e-04  -3.2812887e-04  -1.4487784e-03  -3.2866004e-04   9.4285460e-05  -1.6146636e-04   1.2378968e-04  -6.4911821e-04   1.4468525e-04  -4.7206959e-05  -3.4034773e-04  -1.4809757e-05  -1.3828919e-03  -1.1699088e-03  -8.5975853e-04   1.9991152e-04   1.0398745e-04  -6.2744122e-04  -1.3637128e-03   6.8702258e-04  -3.4740401e-04  -1.6644472e-03
   3.7781522e-04   2.7392711e-04   7.1015085e-05   2.6646786e-04   2.5951554e-04   2.6483915e-04   2.8817588e-04   2.1388649e-05   8.6800213e-04   1.7471187e-04   2.0436656e-04   6.2756859e-05   9.9975397e-05  -4.5819374e-04   1.4601472e-04  -4.9223909e-05  -6.4382359e-04  -2.1009331e-04   1.3152897e-04  -6.1432004e-04   2.3308519e-04   1.9518870e-04  -5.9952083e-05   1.2873710e-05  -5.6028127e-04  -4.8864575e-04   8.4731961e-05  -1.5252055e-05  -5.8612663e-05  -3.2057654e-04  -1.4377300e-03  -4.1103616e-04   7.1768955e-05  -2.4823542e-04   1.0898280e-04  -6.6142232e-04  -2.1035994e-05  -1.0567714e-04  -3.5536851e-04   3.3316308e-06  -1.5053928e-03  -1.1933851e-03  -4.3353692e-04   2.2861556e-04   8.0468191e-05  -9.4934483e-04  -1.5332259e-03  -4.3570730e-04  -1.7289234e-04  -8.5393351e-04
   2.6684091e-04   1.4369132e-04  -3.2813856e-05   1.8301629e-04   1.7406768e-04   1.2345896e-04   1.5480520e-04   1.7588791e-05   7.6171686e-04  -8.0801874e-05   1.0221971e-05  -1.2520504e-04  -1.4831100e-05  -4.4513334e-04   1.4638879e-04  -1.0649550e-04  -7.1165926e-04  -2.3686592e-04   3.2553685e-06  -7.3469616e-04   1.6580500e-04   6.1883060e-05  -1.5588410e-04  -2.4296333e-04  -5.8829144e-04  -5.8790261e-04   8.0753607e-06  -5.2715972e-05   2.4120238e-05  -4.4847405e-04  -1.4527615e-03  -4.4731426e-04  -1.0734728e-04  -3.3433229e-04  -5.2588610e-05  -7.8074553e-04   1.7162245e-04  -1.6007618e-04  -3.8564971e-04  -2.9667545e-04  -1.6773035e-03  -1.3648510e-03  -4.9684948e-04   5.3940492e-04   1.6649945e-05  -9.0094941e-04  -1.4823838e-03   6.0220779e-04  -4.7376880e-04  -1.6408269e-03
   3.2006006e-04   2.5146172e-04  -1.4200895e-06   2.2103534e-04   2.6729406e-04   2.2875502e-04   2.7777007e-04   2.5112325e-04   1.0144695e-03   2.3020283e-04   2.4701524e-04   7.2718227e-05   4.6007430e-05  -4.5706477e-04   2.0824879e-04  -5.6323246e-05  -7.0279144e-04  -2.1595084e-04  -1.0662627e-04  -6.7577121e-04   2.0630626e-04   1.5956703e-04  -4.2176034e-05  -9.4227857e-05  -4.8188315e-04  -4.3594476e-04   1.2675073e-04   5.4893731e-06   3.0083040e-04  -3.0377568e-04  -1.4487966e-03  -4.2151404e-04   1.2286095e-04  -2.4769668e-04   8.1433485e-05  -7.5810915e-04   1.4089730e-04  -1.2990384e-04  -4.3849926e-04  -2.6318780e-04  -1.4089593e-03  -1.1965312e-03  -4.1858145e-04   2.1466335e-04   1.5452193e-04  -6.0707488e-04  -1.3544561e-03   3.8133279e-04  -3.4010166e-04  -1.1891852e-03
   2.5418564e-04   2.1082214e-04  -8.9418945e-06   2.0036477e-04   2.1337537e-04   1.5099165e-04   1.7808833e-04   1.9462487e-04   8.3012908e-04   6.7219145e-05   1.5637786e-04  -2.1209768e-05   4.6543126e-05  -4.2685092e-04   1.1175399e-04  -1.1444974e-04  -7.0509448e-04  -2.3286449e-04  -1.9096378e-04  -7.1676116e-04   1.5943707e-04   1.0541007e-04  -4.5719353e-05  -6.3790627e-05  -5.9720944e-04  -4.9131276e-04  -2.9433433e-05  -1.6246990e-05   9.9240795e-05  -3.8417891e-04  -1.4895201e-03  -4.0489659e-04   1.7591282e-04  -3.6019023e-04   4.2136919e-05  -8.1130827e-04  -1.0411943e-04  -1.4149831e-04  -5.0432811e-04  -1.9308824e-04  -1.4559965e-03  -1.1812916e-03  -3.4903776e-04  -3.1916946e-04  -7.4104355e-05  -8.3792076e-04  -1.4732254e-03  -1.7303182e-04  -4.1207665e-04  -5.0414598e-04
   2.0592885e-04   5.4150882e-05  -9.8602657e-05   9.8103999e-05   9.6994125e-05  -2.7469363e-05   6.3932939e-06   4.6144447e-05   6.5623026e-04  -2.0937432e-04  -9.1706796e-05  -2.5481448e-04  -7.5919263e-05  -4.7598479e-04   4.0336825e-05  -1.3321325e-04  -7.3848601e-04  -2.4083641e-04  -4.2568827e-06  -8.2543126e-04   1.0582755e-04   4.5112047e-05  -1.9438425e-04  -2.0358854e-04  -5.1949295e-04  -4.1950599e-04   9.0974318e-05   4.6154200e-06   1.4159085e-04  -3.5855730e-04  -1.3369243e-03  -4.1178628e-04   1.3065120e-04  -2.9640837e-04   6.2903862e-05  -7.0599461e-04  -1.1533368e-04  -1.2987139e-04  -4.2705704e-04  -1.3290861e-04  -1.4346449e-03  -1.2471585e-03  -5.8767459e-05  -5.3079795e-05   6.3557258e-05  -1.0451166e-03  -1.3911297e-03  -4.8322338e-04  -5.4805120e-04  -5.7580118e-04
   3.0361867e-04   2.3032688e-04   3.0079143e-05   1.8127132e-04   1.9996852e-04   2.0759160e-04   2.2399005e-04   2.6452143e-04   9.0884918e-04   1.3517817e-04   2.1241909e-04  -3.7163543e-05   8.4315121e-05  -3.8686511e-04   1.3412054e-04  -9.2490336e-05  -6.7912642e-04  -2.2179713e-04  -2.9622197e-05  -7.5367122e-04   1.4705877e-04   4.7825517e-07  -5.5335116e-05  -1.9633071e-04  -5.0620025e-04  -2.9202193e-04   1.5179436e-04   3.1343573e-06   1.3645367e-04  -3.4499157e-04  -1.3069141e-03  -4.2410899e-04   4.2023672e-05  -2.9329938e-04   1.2837617e-04  -6.8637700e-04   7.6892851e-05  -1.8303044e-04  -5.2177749e-04  -2.4191034e-04  -1.4167078e-03  -1.1796112e-03  -5.3757714e-04   2.6654362e-04   7.3072542e-06  -7.9584564e-04  -1.3685783e-03   1.5630593e-04  -2.2198218e-04  -9.6131081e-04
   2.9540050e-04   1.4478235e-04  -4.6933968e-05   1.2276742e-04   1.4095995e-04   6.2171624e-05   1.0105138e-04   1.1537089e-05   6.1256683e-04  -7.6590652e-05   6.6358029e-05  -1.9697107e-04  -2.5001198e-05  -4.6269514e-04   1.7474101e-04  -1.3250163e-04  -7.2008109e-04  -2.2754498e-04  -1.1575402e-04  -8.0978760e-04   1.1221473e-04   5.1003793e-05  -2.9876933e-04  -2.2382791e-04  -5.5972621e-04  -4.7099072e-04   4.8774353e-05   7.1809814e-07   1.4502028e-04  -4.4478022e-04  -1.4242580e-03  -4.5943932e-04  -2.7494170e-05  -3.8216126e-04  -4.9856758e-06  -6.5672665e-04   3.6685287e-05  -2.2821297e-04  -5.3673441e-04  -3.1371549e-04  -1.4611559e-03  -1.2477053e-03  -6.1237795e-04  -3.9551733e-04  -1.4439374e-04  -9.6448575e-04  -1.4293168e-03  -1.5045311e-04  -4.9449014e-04  -1.4761430e-03
   6.3500760e-05   1.7561717e-05  -9.9853140e-05   8.3186438e-05   1.0930124e-04   6.5468368e-05   9.8134951e-05   1.7249116e-05   8.6322392e-04   3.6632842e-05   1.1713891e-04  -1.2034697e-04   1.8043384e-05  -4.0345301e-04   2.3391546e-04  -8.1718965e-05  -7.5955887e-04  -2.0961951e-04  -1.1178975e-04  -8.1129646e-04   1.1421566e-04   4.0873590e-05  -4.2703847e-05  -1.7256207e-04  -5.7007355e-04  -3.6125409e-04   9.0447073e-05   4.5407801e-06   7.5963981e-05  -3.7688616e-04  -1.4788081e-03  -4.2051959e-04   3.1125619e-05  -2.4762095e-04   1.0280966e-04  -6.6754688e-04   1.0480906e-04  -1.9228461e-04  -4.6804815e-04  -2.7718439e-04  -1.5016511e-03  -1.2151768e-03  -1.1191429e-03  -4.2412244e-04   4.0170002e-05  -6.7219645e-04  -1.3423911e-03   3.7170725e-04  -5.0255703e-04  -7.4554869e-04
   2.5544304e-04   2.0880243e-04  -6.0864982e-06   1.5606427e-04   1.9395771e-04   1.1942314e-04   1.8807311e-04   6.1274732e-05   9.2635397e-04   7.0975664e-05   2.1571701e-04  -1.0187377e-04   5.4050415e-05  -3.7005515e-04   1.0719267e-04  -5.6533707e-05  -7.3416071e-04  -1.7541378e-04  -1.0730216e-04  -7.4545806e-04   1.7163008e-04   5.5530825e-05  -1.1322294e-04  -1.9838933e-04  -5.7572004e-04  -3.4981617e-04   1.2452860e-04  -3.5746125e-06   2.2248198e-04  -3.3695460e-04  -1.3985804e-03  -3.9651647e-04   8.1304759e-05  -3.3787251e-04  -2.0823678e-05  -6.6658523e-04   4.7801282e-06  -1.7140698e-04  -4.6782376e-04  -2.9923418e-04  -1.7754899e-03  -1.1433472e-03  -5.3971732e-04   6.0303777e-04  -5.6709607e-05  -8.6031458e-04  -1.3533891e-03  -3.1210808e-04  -1.3402250e-04  -1.4892700e-03
   2.5914074e-04   1.1583190e-04  -1.4896243e-05   1.0401291e-04   1.3878685e-04   2.4047960e-05   6.4141677e-05   1.7110804e-05   7.0556684e-04  -1.5134098e-04   5.2023617e-05  -2.8236734e-04  -3.5948640e-05  -3.6505584e-04   1.3210418e-04  -2.9501240e-05  -7.3559833e-04  -2.1769168e-04  -2.5604034e-04  -8.2995842e-04   1.1795886e-04  -3.0952840e-06  -1.7697184e-04  -1.8287227e-04  -4.9331546e-04  -3.7750654e-04   2.4474013e-04  -1.0786890e-06   1.0111442e-04  -4.3145381e-04  -1.3874498e-03  -4.5857910e-04   8.7763947e-05  -3.9474809e-04  -2.3609475e-05  -7.1434141e-04   1.0502624e-04  -2.5547182e-04  -6.1721663e-04  -4.7900970e-04  -1.5163578e-03  -1.1998405e-03  -2.3352381e-04  -6.9527107e-04  -1.2809543e-04  -9.5007807e-04  -1.3165649e-03  -1.1643529e-04  -3.8099856e-04  -3.3979342e-04
   2.6946171e-04   1.8765194e-04   1.7221468e-05   1.4522267e-04   1.7833375e-04   1.1935730e-04   1.5354464e-04   8.0061865e-05   1.0196081e-03   1.3728847e-04   2.2206498e-04  -7.2324387e-05   5.2865671e-05  -3.3018517e-04   1.5808111e-04  -2.6153199e-05  -6.8571593e-04  -1.9792365e-04   2.7754068e-06  -7.3066837e-04   1.6937088e-04   6.7452922e-05  -9.6266784e-05  -5.8535668e-05  -5.1136740e-04  -2.8076916e-04   1.0617201e-04  -4.9001433e-06   1.8754473e-04  -3.0721110e-04  -1.3036673e-03  -3.2263264e-04   1.3698953e-04  -2.8403522e-04   1.1516122e-04  -5.9984764e-04  -9.2564114e-05  -1.7377771e-04  -5.0357304e-04  -2.1361944e-04  -1.3124238e-03  -8.8207755e-04  -2.3773647e-04  -6.3316454e-04   4.5697405e-05  -7.9158926e-04  -1.0847162e-03   9.7832672e-05  -2.7506496e-04  -9.9936454e-04
   3.4182114e-04   2.1603779e-04   1.5130013e-04   1.6566235e-04   1.7997281e-04   9.0004927e-05   1.8197596e-04   5.2758140e-05   1.0168396e-03   7.1433285e-05   2.3337478e-04  -1.0671553e-04   9.7193537e-05  -2.8691147e-04   2.1787224e-04  -2.8472177e-05  -6.1899080e-04  -2.1217983e-04   4.2605079e-05  -6.9277652e-04   1.9252565e-04  -5.3251815e-06   3.2109281e-05  -1.0903618e-04  -5.1252509e-04  -2.7050846e-04   9.1359907e-05  -1.2130961e-05   2.1608108e-04  -3.3326444e-04  -1.2761785e-03  -3.6292878e-04  -7.0945032e-05  -2.9022328e-04   1.5340548e-04  -5.8949593e-04   5.9686427e-05  -1.8568912e-04  -4.8306872e-04  -3.2199605e-04  -1.3029941e-03  -1.1855175e-03   1.6659407e-04  -1.8352202e-04  -6.5562708e-05  -6.4960279e-04  -1.2209038e-03   6.6899176e-04  -2.8730091e-04  -4.0852872e-04
   2.6384881e-04   9.5574382e-05   4.2977190e-05   1.1934996e-04   1.2155910e-04  -4.1722091e-05   5.5616230e-05   1.3797653e-04   6.2836136e-04  -1.8859241e-04   1.7760278e-05  -2.6694470e-04  -3.6996291e-05  -2.9730826e-04   8.7658220e-05  -6.0003051e-05  -6.5172912e-04  -2.3386085e-04  -1.3922996e-04  -7.7881105e-04   1.3353555e-04  -1.7536247e-05  -1.0836124e-04  -3.0377309e-04  -5.8139628e-04  -3.5979404e-04   1.7511542e-04  -2.9804893e-05   8.4726336e-05  -3.8167799e-04  -1.1409861e-03  -3.7792212e-04   8.0659702e-05  -4.0478047e-04   1.7986174e-05  -4.2946741e-04   1.5565463e-04  -2.2299602e-04  -5.1378796e-04  -3.4212947e-04  -1.2601406e-03  -1.0167557e-03  -7.2251662e-04  -5.0772598e-04  -1.0787579e-04  -8.4806612e-04  -1.1660091e-03   9.2999317e-04  -5.7517027e-04  -1.1144282e-03
   3.6998314e-04   2.3005255e-04   1.6775813e-04   2.0417063e-04   2.3580506e-04   2.1545052e-04   2.4245231e-04   2.2756518e-04   1.0124079e-03   2.0791420e-04   3.1811610e-04   2.4619092e-05   1.4131676e-04  -2.5924269e-04   1.8770441e-04   5.4965625e-05  -5.9688662e-04  -2.0796705e-04   8.8518536e-05  -6.3846796e-04   2.1407632e-04   1.2458600e-04  -1.4957343e-05  -3.1382253e-05  -5.2647630e-04  -1.4088980e-04   1.2267139e-04   1.6217278e-05   1.5518315e-04  -2.9240295e-04  -1.1700635e-03  -3.0710018e-04   2.5367312e-04  -1.2614270e-04   2.1447885e-04  -3.4292680e-04   4.6569130e-05  -1.5169280e-04  -3.9897792e-04  -3.7465678e-04  -1.3764427e-03  -8.8373717e-04  -7.1770744e-05  -7.3386083e-04   3.5538487e-05  -4.2405713e-04  -9.7241258e-04   1.3984078e-04  -3.1252721e-04  -1.3091966e-03
   4.5065925e-04   2.3820969e-04   2.6170199e-04   2.3612207e-04   2.0975394e-04   1.4854554e-04   1.2635326e-04  -1.1905176e-04   8.2728796e-04   5.0764662e-05   2.4792412e-04  -6.7783025e-05   1.2747265e-04  -2.5487100e-04   1.1942328e-04   4.8249651e-05  -5.5888970e-04  -2.0712102e-04   7.0618036e-05  -6.0968596e-04   2.3988915e-04   1.0690341e-04   5.8569971e-05  -5.9283335e-05  -5.1772548e-04  -1.6528206e-04   8.1144979e-05   3.0125550e-06   2.5978233e-04  -3.0277198e-04  -1.1490455e-03  -2.9495638e-04   1.8661704e-04  -2.9203494e-04   1.8007732e-04  -3.6405950e-04   4.2640637e-05  -1.5650065e-04  -5.4521690e-04  -3.0613542e-04  -1.0657716e-03  -9.0387661e-04  -2.1869656e-04  -4.6437726e-05  -5.6305300e-05  -6.2466820e-04  -1.0550930e-03   4.2417843e-04  -5.5483502e-04  -1.4064062e-03
   2.1315161e-04   1.0853664e-04   1.5347412e-04   1.5471752e-04   1.4803935e-04   2.0962214e-05   3.6800797e-05   1.9973703e-04   6.8253413e-04  -1.9386080e-04   5.2923180e-05  -2.1909714e-04  -1.1173139e-05  -2.9382264e-04   7.7882076e-05  -8.4234496e-05  -6.0545601e-04  -2.3279832e-04   3.2246273e-06  -6.8520458e-04   1.7087621e-04   2.6275295e-05   5.2030191e-05  -6.8937061e-06  -5.4463028e-04  -2.2325113e-04   1.7577650e-04  -5.7025391e-06   2.5694916e-04  -3.4288946e-04  -1.1765242e-03  -3.2702216e-04   1.1829127e-04  -2.6698675e-04   1.6157185e-04  -3.6021892e-04   1.0678724e-04  -2.1536746e-04  -4.0315418e-04  -2.4372252e-04  -1.1986895e-03  -8.6850865e-04  -1.3609213e-04  -2.3909340e-04  -5.6519199e-05  -3.0099519e-04  -9.6911745e-04   3.9539623e-04  -6.9797895e-04  -7.7287632e-04
   5.4159167e-04   2.8801148e-04   3.2998042e-04   2.6531983e-04   2.8595229e-04   1.7028276e-04   2.3261060e-04   1.4614945e-04   1.0798915e-03   2.0403077e-04   3.8795487e-04   9.0901645e-05   1.8627210e-04  -2.1461416e-04   2.1928319e-04   2.1713740e-05  -5.1266473e-04  -2.1314945e-04   8.3665209e-06  -5.2207883e-04   2.8204272e-04   1.6782190e-04   8.6788241e-05   3.3115939e-05  -4.7481971e-04  -7.1580696e-05   1.4212036e-04   2.6575259e-05   3.3075362e-04  -2.2152781e-04  -1.0813477e-03  -2.0169016e-04   4.3430444e-04  -1.2688574e-04   2.4144471e-04  -2.8706098e-04   8.0033264e-05  -1.2791320e-04  -4.9091229e-04  -3.4677327e-04  -1.0321144e-03  -7.0206699e-04  -1.3292271e-04   3.4257866e-04  -2.2267059e-06  -9.8492288e-05  -8.8257936e-04   9.5351465e-04  -8.9895737e-05  -1.5683102e-03
   4.5656614e-04   2.5739631e-04   3.3888954e-04   2.5060240e-04   2.5326930e-04   1.9414315e-04   2.1874734e-04   2.0591670e-04   8.4665965e-04   7.8625526e-06   2.7647565e-04  -3.7923266e-05   1.0974103e-04  -1.5137927e-04   1.5441929e-04  -2.6933762e-05  -4.9687986e-04  -2.1355972e-04  -1.5904616e-04  -5.1927660e-04   2.7122130e-04   1.5885416e-04   1.5891358e-04   2.4020464e-05  -5.0457928e-04  -1.9972576e-05   2.4316432e-05  -3.9375886e-06   2.1060991e-04  -2.4737444e-04  -1.1555566e-03  -2.5572657e-04   1.4202426e-04  -2.6522731e-04   1.8142496e-04  -3.2739664e-04   1.9970747e-04  -1.2490661e-04  -5.0640618e-04  -3.8456780e-04  -1.3085034e-03  -8.4018515e-04  -7.0491445e-04  -5.4454076e-04  -9.8600278e-05  -5.3118361e-04  -9.3069969e-04   1.3807437e-03   1.2759492e-04  -2.0000809e-04
   3.7067258e-04   1.2319842e-04   2.9043632e-04   1.8548507e-04   1.6680738e-04   9.2373566e-06   5.0172712e-05   1.2323778e-04   6.6406518e-04  -2.5876547e-04   7.0394446e-05  -2.1714641e-04   1.4384747e-05  -2.4747272e-04   1.0239022e-04   3.7425310e-05  -5.2849232e-04  -2.2119656e-04   5.0333394e-05  -5.7746557e-04   2.3416527e-04   1.2438153e-04   6.2428582e-05   4.0303890e-05  -4.8065188e-04  -1.3872355e-04   1.6492403e-04   2.2432268e-05   9.5158255e-05  -2.7544893e-04  -1.1276311e-03  -2.7614197e-04   3.0068393e-04  -1.1380985e-04   1.9985408e-04  -3.0353878e-04   1.3452454e-04  -1.3754856e-04  -4.1734605e-04  -3.9730966e-04  -1.0625664e-03  -7.6690729e-04  -4.0382161e-04  -2.3655727e-04   2.5009669e-07  -4.5459060e-04  -9.1877446e-04   8.3906628e-04  -1.2182803e-04  -3.4550321e-04
   6.6742481e-04   3.2289830e-04   3.9585592e-04   3.0499275e-04   3.2185033e-04   1.9051552e-04   2.6780603e-04   1.5657736e-04   1.0633992e-03   1.5803322e-04   4.2765550e-04   1.0541784e-04   2.0305984e-04  -1.7641991e-04   1.3889023e-04   7.7176162e-05  -4.7039179e-04  -2.0046839e-04   1.1860899e-04  -3.8977290e-04   3.1880723e-04   2.6701111e-04   1.6529259e-04   1.7911548e-04  -4.7800812e-04  -1.9375731e-05   2.5946373e-04   5.8414099e-07   2.4433451e-04  -2.1032017e-04  -1.1083358e-03  -2.4160180e-04   3.4041129e-04  -1.4652111e-04   2.3958873e-04  -2.6491855e-04  -2.6099116e-05  -1.0483242e-04  -3.7747392e-04  -2.2021781e-04  -1.2254663e-03  -6.6614209e-04  -1.1436046e-04  -5.5615098e-04   6.8132402e-05  -4.9200840e-04  -7.1470474e-04   8.0767780e-04  -4.3683921e-04   1.3806185e-04
   6.2789500e-04   2.6712008e-04   4.2135417e-04   2.9964547e-04   2.7180332e-04   2.1066805e-04   2.5399934e-04  -1.0912269e-04   1.0063747e-03  -3.5871544e-05   3.1798799e-04  -4.0413229e-06   1.5870409e-04  -1.4115294e-04   9.4887779e-05   6.9538095e-05  -4.6110319e-04  -2.2399523e-04   1.2412245e-04  -4.3216877e-04   3.0843384e-04   2.3663187e-04   7.7057630e-05   1.7660399e-04  -4.8154354e-04  -7.8162790e-05   2.7146624e-04   3.8845512e-05   1.4717736e-04  -2.7368608e-04  -1.0741822e-03  -2.9915932e-04   2.3746165e-04  -1.5662050e-04   1.8156612e-04  -3.5256852e-04   1.5690157e-04  -1.2956564e-04  -4.8944791e-04  -4.3226790e-04  -1.0136173e-03  -8.1398361e-04  -6.6860917e-04  -3.8246156e-04  -3.2863118e-05  -5.6936720e-04  -8.7625789e-04   5.3331384e-04  -2.7431318e-04  -7.6948636e-04
   4.8375936e-04   1.1095348e-04   3.1275544e-04   2.2296076e-04   1.8526767e-04   7.9443525e-05   4.6420886e-05   9.3151153e-05   9.0225198e-04  -9.8760145e-05   2.0549752e-04  -4.8666057e-05   1.3670392e-04  -2.1723338e-04   3.1243224e-05   2.2614753e-05  -4.7028216e-04  -2.0971046e-04   2.8431631e-04  -4.5829144e-04   2.8950817e-04   2.2042004e-04   2.8810778e-04   2.0731523e-04  -4.3599989e-04   5.3048941e-05   1.8198273e-04   4.5384752e-07   3.5957308e-04  -1.9989400e-04  -1.0696042e-03  -2.2895503e-04   5.2557548e-04  -9.3808841e-05   2.2190572e-04  -2.5092106e-04   1.9599784e-04  -8.7020548e-05  -3.8048223e-04  -2.9442422e-04  -1.1626388e-03  -6.8355794e-04  -3.1816118e-04   8.5616732e-05   1.6600669e-04  -3.7553330e-04  -6.8256154e-04   4.3844036e-04   4.2513642e-05  -5.0868042e-05
   6.5849419e-04   3.2418797e-04   4.4294211e-04   3.5137974e-04   3.5017743e-04   2.3188234e-04   3.0109653e-04   1.3696242e-04   1.0130269e-03   8.9591711e-05   4.4529332e-04   9.0175119e-05   2.1217944e-04  -1.2171733e-04   7.8845573e-05   1.1522111e-05  -4.2557818e-04  -2.3688185e-04   2.7233345e-04  -3.2692874e-04   3.3014044e-04   2.5401128e-04   2.5040668e-04   2.2504697e-04  -6.3842861e-04   1.4183168e-04   2.3860711e-04  -3.4891775e-05   1.1765242e-04  -1.9336089e-04  -1.0682072e-03  -1.5355031e-04   2.2616217e-04  -2.7586635e-05   2.0655830e-04  -8.4398540e-05   8.4997278e-05  -1.5003541e-04  -3.0260949e-04  -2.6308934e-04  -9.5883815e-04  -5.4558692e-04   1.4024113e-04  -3.0072959e-05   8.9304762e-05  -5.1721610e-04  -7.0777786e-04   2.5756410e-04  -2.7814973e-04   6.6650973e-04
   5.2395026e-04   2.4552838e-04   4.0554270e-04   3.2066758e-04   2.5499699e-04   1.6335072e-04   2.8677820e-04   2.2661881e-04   8.7747234e-04  -1.1030779e-04   2.9456307e-04  -3.1407020e-05   1.4348346e-04  -1.9334862e-04   1.0807409e-04  -4.4300214e-05  -4.5322030e-04  -2.5473145e-04   1.6699855e-04  -3.5579869e-04   2.8384567e-04   2.3082399e-04   1.0857852e-04   1.3365348e-04  -5.7127076e-04  -2.9997059e-06   1.4607393e-04  -4.1252828e-05   4.8560130e-05  -3.0236182e-04  -1.0108734e-03  -2.3803824e-04   2.6762803e-04  -1.7228234e-04   1.4752297e-04  -2.2331600e-04   1.4202723e-04  -7.0824186e-05  -4.1490697e-04  -3.2046917e-04  -9.8176952e-04  -6.8638474e-04  -3.8249427e-04  -3.4602816e-04   9.2931281e-05  -3.2833865e-04  -6.8213954e-04   1.0141329e-03   3.0910794e-04  -4.6931225e-04
   5.7035952e-04   3.4639734e-04   4.4240349e-04   4.0427822e-04   3.5477988e-04   2.5936152e-04   3.5149915e-04   1.1091316e-04   1.1199288e-03   1.7804047e-04   5.3995074e-04   1.7795972e-04   3.0086702e-04  -1.9945952e-04   2.5556958e-04  -3.8559363e-05  -4.1929079e-04  -1.7514912e-04   2.4186284e-04  -2.0520804e-04   3.7717525e-04   3.5713415e-04   3.8893262e-04   2.4383629e-04  -5.2788685e-04   1.2398497e-04   7.9522346e-05  -6.0668477e-05   1.6549852e-04  -2.2767676e-04  -1.0228631e-03  -1.6073469e-04   4.7092751e-04  -3.5863316e-06   2.9286830e-04  -2.4389446e-05   1.1394811e-04  -1.4752612e-04  -3.0662256e-04  -6.5233093e-05  -9.9395879e-04  -5.5383384e-04  -3.3413677e-04  -1.7214566e-05   3.0365973e-04  -4.8206307e-04  -6.0081808e-04   1.3774302e-03  -2.8837007e-04  -8.9533984e-05
   5.7279598e-04   3.5158842e-04   5.0758623e-04   4.2990706e-04   3.5780866e-04   2.4656643e-04   2.8065135e-04   1.2186468e-04   1.0330318e-03   5.1738534e-05   5.0951220e-04   1.1367105e-04   2.6682252e-04  -1.1781639e-04   2.7991922e-04  -6.1045459e-05  -3.6876349e-04  -1.8930623e-04   3.0165011e-04  -1.9040737e-04   4.0410075e-04   3.5658170e-04   3.6310178e-04   3.4023431e-04  -4.3792959e-04   1.4304386e-04   2.0182118e-04  -1.4080788e-05   3.0150684e-04  -2.4655182e-04  -9.7212614e-04  -1.5043671e-04   5.0332252e-04  -3.4721794e-05   3.4624716e-04  -3.4514560e-05   7.3483046e-05  -7.9830497e-05  -3.3499155e-04  -2.2301088e-04  -1.0653986e-03  -5.0236651e-04   2.0206766e-04   9.6484859e-05   1.8554373e-04  -2.4538318e-04  -6.0145912e-04   1.1158746e-03   2.3052884e-04  -5.3429382e-04
   4.5682650e-04   2.6465332e-04   4.6292960e-04   3.8449225e-04   3.5657102e-04   3.1422047e-04   3.5232218e-04   2.1969718e-04   1.1207649e-03   1.4097808e-04   5.4563762e-04   1.8159041e-04   2.7208924e-04  -1.1050717e-04   2.5429518e-04   4.8644662e-05  -3.5977343e-04  -1.2805164e-04   3.9226317e-04  -1.1437846e-04   4.1187031e-04   4.1341849e-04   4.9597473e-04   2.9020748e-04  -3.7932751e-04   3.2889863e-04   1.4871918e-04   3.2211250e-05   3.9340102e-04  -1.7718493e-04  -8.4949454e-04  -8.1487939e-05   5.0899253e-04   8.5911255e-05   4.0139657e-04  -8.7691122e-05   1.2071129e-04   6.6252462e-05  -1.8595673e-04   7.5858502e-06  -8.4450474e-04  -4.7677659e-04  -2.3864031e-04   4.5423410e-04   3.7164372e-04  -1.0104781e-04  -5.3356925e-04   1.4967703e-03   9.5461626e-05  -5.4182956e-04
   6.9274870e-04   4.2222059e-04   5.6476955e-04   5.0931436e-04   4.6093800e-04   3.4442276e-04   3.8175358e-04   2.6941218e-04   1.2300747e-03   1.6550883e-04   6.5638678e-04   2.3846212e-04   3.4699176e-04  -6.9573638e-05   6.7492576e-05   6.2188985e-05  -3.1076581e-04  -1.1172076e-04   5.1101792e-04  -1.3426087e-05   4.7135161e-04   5.1865121e-04   4.5286867e-04   3.6811610e-04  -4.2730768e-04   3.2378983e-04   1.6220144e-04   4.3666518e-05   1.9922003e-04  -1.4481304e-04  -8.4837974e-04  -7.9447622e-05   4.1988731e-04   9.8229000e-05   3.5684399e-04  -2.5520405e-05   4.1675637e-04   1.1426460e-04  -1.8930864e-04  -7.1570634e-05  -8.0350711e-04  -3.9143261e-04  -7.9011319e-05  -3.9932894e-04   2.4622760e-04  -5.4262546e-05  -4.9024419e-04   1.1687254e-03   1.5295456e-04   6.1921653e-04
   5.8853399e-04   3.1161329e-04   5.4080808e-04   4.4988943e-04   3.8749658e-04   2.2146411e-04   3.1428336e-04   2.8765277e-04   9.7050564e-04  -6.1862229e-05   4.6526184e-04   8.6993627e-05   2.4221736e-04  -6.2581355e-05   2.5973990e-04   2.0408870e-05  -3.2745121e-04  -1.5919420e-04   2.8900150e-04  -1.2584213e-04   4.0785939e-04   3.9625372e-04   3.7319821e-04   3.3661700e-04  -3.7909564e-04   1.4120636e-04   3.2765124e-04   1.6084310e-05   3.0371299e-04  -2.3618141e-04  -9.2628872e-04  -1.1426579e-04   4.7710977e-04  -3.4905348e-05   2.4545178e-04  -4.6608777e-05   1.9274617e-04   2.6779595e-05  -2.4733084e-04  -1.6868238e-04  -6.5981445e-04  -5.4065179e-04  -2.2924674e-04  -1.1899971e-04   3.0257087e-04  -3.8187424e-04  -5.0245208e-04   7.1308186e-04  -4.5320613e-04  -7.9918937e-06
   7.9264166e-04   4.0339737e-04   6.2861200e-04   4.8043544e-04   4.5187891e-04   4.4480068e-04   4.8171368e-04   2.4915877e-04   1.4593976e-03   2.3738462e-04   6.8987033e-04   2.9809607e-04   3.5445980e-04  -2.3403518e-05   2.2919652e-04   1.3205169e-04  -2.7147846e-04  -1.3321343e-04   5.5508415e-04   1.6357444e-05   4.6351287e-04   5.0399883e-04   4.7987606e-04   3.9326842e-04  -4.2133339e-04   2.5211298e-04   2.3501068e-04   9.8088552e-05   3.3478971e-04  -2.6099402e-05  -8.8448427e-04  -7.8622230e-05   8.1424706e-04   1.2942584e-04   4.2091173e-04  -1.5781956e-05   4.3415205e-04   1.7814913e-04  -6.2863823e-05   5.0020659e-05  -7.3554798e-04  -2.6301373e-04  -1.9661213e-04   8.3934021e-04   3.9375725e-04   7.8866215e-05  -4.2735515e-04   1.0836297e-03   4.1408237e-04  -1.2809399e-03
   7.2066922e-04   3.7255281e-04   6.0195324e-04   5.1210175e-04   4.3207320e-04   3.6060577e-04   4.6511204e-04   4.4041470e-04   1.2071752e-03   8.9008478e-05   6.1083440e-04   2.0732926e-04   3.1169131e-04  -3.2405082e-05   1.6205173e-04   1.0781415e-04  -2.4599119e-04  -1.4796447e-04   4.6210067e-04   3.8491730e-06   4.2828632e-04   4.7490743e-04   4.1636138e-04   4.2918039e-04  -4.0305706e-04   2.9494477e-04   1.6882752e-04   4.7059722e-05   3.4309804e-04  -1.0293393e-04  -8.1083423e-04  -5.1157051e-05   6.9414731e-04   9.4772091e-05   2.8931620e-04   1.0524696e-04   3.0374029e-04   8.8929402e-05  -1.3667939e-04  -5.3151398e-06  -5.2436622e-04  -2.7493003e-04   3.9618052e-04  -2.7418230e-04   1.4699290e-04   4.8855574e-05  -4.9617194e-04   5.5174675e-04   8.7695371e-06   2.1990269e-04
   5.9504295e-04   2.0942735e-04   4.9968797e-04   4.1628678e-04   3.2132579e-04   2.5903428e-04   3.1222569e-04   4.2232082e-04   8.6902879e-04  -1.4081609e-04   3.5405337e-04   3.6238547e-05   1.6742577e-04  -6.2016035e-05   1.8857958e-04   7.7708144e-05  -2.8786177e-04  -1.7742559e-04   4.6775106e-04  -6.4719185e-05   3.6426494e-04   4.0524523e-04   4.0120760e-04   4.2349083e-04  -4.8807322e-04   1.8940697e-04   2.3971673e-04   6.9926973e-05   4.7498959e-04   6.0787875e-06  -7.9443661e-04  -5.8240003e-05   6.5005588e-04   1.0889881e-04   3.3725862e-04   6.1143481e-05   3.6531792e-04   1.2962295e-04  -4.9788741e-05   1.9804334e-04  -7.5117307e-04  -1.6405593e-04   3.1693239e-04   4.9987307e-04   3.6539044e-04  -1.1283182e-04  -4.8339344e-04   1.3401018e-03  -2.4741130e-05   1.0824904e-03
   6.6859717e-04   3.8793235e-04   5.6066905e-04   5.1383430e-04   4.4780751e-04   4.5757118e-04   5.2497367e-04   3.7190045e-04   1.2726359e-03   1.6897613e-04   6.2173203e-04   2.3241523e-04   3.0968245e-04   6.4805672e-06   1.5880082e-04   1.3242512e-04  -2.5317646e-04  -1.7031658e-04   6.5052928e-04   1.5766347e-05   3.8205663e-04   4.6321659e-04   3.6431474e-04   4.6314541e-04  -5.3355464e-04   3.2420192e-04   2.2805684e-04   1.5406264e-05   1.2762506e-04   2.1897748e-05  -7.9185271e-04  -1.9836030e-05   5.4633128e-04   1.4700643e-04   3.0006617e-04   3.3128151e-04   2.7458387e-04   1.3988279e-04  -5.8095895e-05   8.3445135e-05  -7.5619773e-04  -1.2514039e-04   1.2536711e-04   6.8792904e-04   3.3921562e-04  -5.1379127e-05  -5.0526543e-04   8.2598609e-04   4.7990147e-04  -1.8453445e-04
   6.2716851e-04   2.7302204e-04   5.0095608e-04   4.5949593e-04   3.8484990e-04   3.1014869e-04   4.4382119e-04   1.9750439e-04   1.0059987e-03  -3.1420575e-05   4.5196203e-04   9.2172791e-05   2.4339254e-04  -4.1252391e-05   1.8841319e-04   1.3663473e-04  -3.0795540e-04  -1.8494439e-04   5.8839918e-04  -8.2430161e-05   3.2977207e-04   3.0439635e-04   2.6696644e-04   2.8150654e-04  -4.5647941e-04   1.8580134e-04   2.2105125e-04  -1.4770588e-05   6.0606511e-05  -1.1989514e-04  -8.8712870e-04  -1.6473011e-04   3.7620074e-04   5.8024030e-05   2.4010192e-04  -1.1228560e-04   1.5501320e-04   9.9603851e-05  -1.9297114e-04  -9.8814467e-05  -6.5274670e-04  -2.8331965e-04  -3.9175194e-04  -1.0308928e-04   2.5276595e-04  -2.5443558e-04  -5.0422340e-04   8.9307572e-04  -2.2912741e-04  -1.2822435e-03
   6.3646282e-04   3.1516791e-04   4.7132629e-04   4.7716536e-04   4.3737071e-04   3.9304455e-04   5.3025089e-04   3.6452073e-04   1.2934447e-03   1.7442007e-04   5.9870363e-04   2.1730442e-04   2.4859828e-04  -1.3435564e-04   2.0971966e-04   1.0754981e-04  -3.6068296e-04  -1.7036046e-04   7.0987747e-04   4.1257522e-06   3.4415719e-04   4.1311549e-04   4.0929642e-04   3.0355604e-04  -4.5125460e-04   2.8529103e-04   1.5127257e-04  -4.6112003e-05   3.5986668e-04  -3.9092851e-05  -8.6611381e-04  -9.0668233e-05   6.9890457e-04   1.3062924e-04   2.2443447e-04  -1.4001924e-04   2.5652678e-04   1.9125013e-04  -9.7435834e-05   1.4238169e-04  -8.6072565e-04  -2.3012004e-04  -1.5873615e-04  -3.6660807e-05   4.8790732e-04   2.4676490e-05  -5.3152163e-04   6.7506859e-04  -1.9278289e-04  -3.0045482e-04
   7.1721210e-04   3.1775315e-04   4.9101934e-04   5.0055428e-04   4.4994187e-04   3.9464692e-04   5.1188283e-04   3.1723254e-04   1.2520668e-03   9.4032825e-05   5.4885185e-04   1.3845001e-04   2.5332993e-04  -2.1961868e-04   2.2243966e-04  -3.9341494e-06  -3.5274518e-04  -2.1040022e-04   6.5857422e-04  -3.0422096e-05   3.1909559e-04   3.1924763e-04   3.1010277e-04   3.2533391e-04  -5.1443715e-04   1.0475260e-04   6.0146322e-05  -6.4608968e-05   1.9007140e-04  -7.5170530e-05  -9.0922840e-04  -1.1643848e-04   5.0000701e-04   6.1769919e-05   1.8044985e-04  -3.6255791e-05   1.2664207e-04   1.0199079e-04  -8.0018952e-05   2.5287338e-05  -6.4973976e-04  -4.0396120e-04  -7.6131109e-04   8.9346911e-05   2.9043050e-04  -1.6960496e-04  -6.0945016e-04   1.7353240e-04  -1.6677668e-04  -9.4598840e-04
   4.9796834e-04   1.7037656e-04   3.7225496e-04   4.0111507e-04   3.1933381e-04   3.5733863e-04   4.1552205e-04   1.5962057e-04   1.2779536e-03   5.7432659e-05   4.6807894e-04   8.2051454e-05   1.8046086e-04  -2.3328341e-04   1.0690567e-04   8.1100938e-05  -4.4369727e-04  -1.7847595e-04   6.3492608e-04  -6.6890098e-05   3.0850063e-04   3.6121681e-04   4.4887047e-04   1.8280027e-04  -5.0774257e-04   7.7315177e-05   8.9478650e-05  -2.4513361e-05   1.5996798e-04  -6.0603183e-05  -1.0184002e-03  -1.4048656e-04   4.0537072e-04   8.2116268e-05   2.9633046e-04  -6.0382510e-05   3.2153772e-04   1.6321358e-04  -3.2216110e-05   1.4867175e-04  -8.3137973e-04  -2.6802559e-04  -2.6384108e-05   6.2039372e-04   5.1059318e-04  -2.4278287e-04  -6.2476145e-04   4.7906034e-04   8.9051391e-05  -5.5877044e-04
   5.7971274e-04   3.0662227e-04   4.2459648e-04   4.7531308e-04   4.3283781e-04   4.0506347e-04   5.8471871e-04   5.3082738e-04   1.2170258e-03   1.4265132e-04   5.6970899e-04   1.1373313e-04   1.9283204e-04  -1.9471227e-04   1.2004439e-04   8.9200330e-05  -3.8162083e-04  -1.5422080e-04   4.2271326e-04  -2.3290888e-05   3.0663575e-04   3.4731568e-04   2.5207549e-04   1.3202676e-04  -4.8809836e-04   1.1823717e-04   1.7773859e-04  -3.8452901e-05   3.0188175e-04  -7.9680161e-05  -9.0729189e-04  -1.4464716e-04   4.6886996e-04   1.1340809e-04   1.7639034e-04  -2.3205347e-04   2.6903249e-04   6.7104425e-05  -1.0871919e-05   5.7261841e-05  -8.9454243e-04  -4.3235067e-04  -3.0323632e-05   4.1118794e-04   4.1394593e-04  -2.9174259e-04  -7.6821417e-04   8.0880325e-04  -4.6395129e-04  -1.2943781e-03
   3.9051709e-04   1.8474650e-04   3.7201046e-04   4.0272696e-04   3.4792122e-04   2.7369490e-04   4.9852981e-04   4.8863085e-04   9.9900982e-04  -6.4862128e-05   3.7654646e-04  -7.9165235e-05   7.6510863e-05  -2.9004898e-04   8.6628017e-05   5.2964253e-05  -4.4431837e-04  -1.7089421e-04   5.5970548e-04  -1.3776739e-04   2.4687583e-04   2.9601905e-04   1.4344865e-04   1.8256548e-04  -5.8613659e-04   1.2475552e-05   5.0998504e-05  -3.7981350e-05   3.2007057e-04  -1.2636276e-04  -8.9750235e-04  -1.7522764e-04   5.6384021e-04  -1.4652021e-05   1.4144117e-04  -2.8480729e-04   2.4331422e-04   1.2183901e-04  -4.3506157e-06   9.1990107e-05  -1.1798348e-03  -4.6757984e-04  -4.9052079e-04   3.0150791e-04   5.1102287e-04  -1.9294971e-06  -7.4284221e-04  -2.6745438e-05   9.0312838e-05  -1.0012420e-03
   6.4045732e-04   2.9285974e-04   3.6309659e-04   4.4032506e-04   4.2386024e-04   4.2566698e-04   5.8648287e-04   4.0957789e-04   1.5293699e-03   2.0924765e-04   5.8659626e-04   8.7737360e-05   1.3078851e-04  -2.0915549e-04   3.8277016e-05   5.1327472e-05  -3.8899493e-04  -1.2954543e-04   6.6939043e-04  -6.9966627e-05   2.8389337e-04   2.8857181e-04   2.0338262e-04   5.3664076e-05  -4.9659150e-04   1.7449645e-05   9.0586604e-05  -2.0273907e-05   4.0004356e-04  -7.8962141e-05  -9.1454037e-04  -1.3529130e-04   5.8080041e-04   6.1244733e-05   1.3183628e-04  -1.0441787e-04   3.1957170e-04   1.4385956e-04   2.4239842e-05   1.9046178e-04  -8.2530675e-04  -3.8373002e-04  -8.0092723e-04   2.0325337e-04   3.4526811e-04  -3.7655525e-04  -7.7684922e-04   1.0098207e-03   1.4868831e-04  -2.6192609e-04
   4.3359617e-04   1.9388989e-04   2.9764062e-04   3.8086437e-04   3.5396506e-04   2.4562643e-04   5.4165837e-04   1.7584569e-04   1.1352983e-03   1.0415412e-05   4.0707321e-04  -8.5795262e-05   2.0340996e-05  -2.4514343e-04   7.2521296e-05   1.8729525e-05  -3.9725349e-04  -1.4426826e-04   4.8412097e-04  -1.9223978e-04   2.2833716e-04   2.2900935e-04   1.5777940e-04   9.6701362e-05  -5.6507316e-04  -3.6739828e-05   1.5648076e-04  -3.7330334e-05   2.4194224e-04  -1.4128712e-04  -9.4970764e-04  -2.3704280e-04   2.7494776e-04  -8.5336025e-05   1.1698398e-04  -3.5784629e-04   9.7338372e-05   4.1350038e-05   1.9087003e-05   2.3054979e-06  -8.1183197e-04  -5.7567004e-04  -4.6871117e-04   1.6163598e-04   2.4160583e-04  -5.7546742e-04  -9.8457048e-04   1.1954015e-03   7.0092433e-06  -7.3703333e-05
   4.6871207e-04   1.9499774e-04   2.4742330e-04   3.3636147e-04   3.3385452e-04   3.2207786e-04   5.9501012e-04   3.0722033e-04   1.3392844e-03   1.9070078e-04   4.8037193e-04  -1.2024459e-06   2.1367016e-05  -2.0292189e-04   1.7860286e-04  -4.2882046e-05  -3.7776938e-04  -1.8292789e-04   5.1186403e-04  -1.9036607e-04   2.2485675e-04   2.2230131e-04   2.4710916e-04   1.6838893e-04  -4.5890009e-04  -1.0990707e-05   7.3713119e-05  -6.9561320e-05   6.0446211e-05  -5.1130664e-05  -9.6195005e-04  -1.6665569e-04   3.9029369e-04  -2.6416943e-05   1.1894835e-04  -2.8320748e-04   3.5889389e-04   7.5177901e-05  -2.7169952e-05   1.6439216e-04  -1.1386020e-03  -5.0675555e-04   3.7910978e-04   6.0192251e-04   2.9210618e-04  -3.4327048e-04  -8.3658344e-04  -4.8951415e-04  -4.3801792e-04   4.7814256e-06
   4.0971296e-04   1.7032392e-04   2.1505673e-04   3.5575542e-04   3.1165374e-04   3.5549785e-04   6.0520571e-04   1.2511050e-04   1.2409309e-03   9.3536044e-05   4.3912799e-04  -6.6769753e-05   4.3685490e-05  -2.2729895e-04   2.0498500e-04  -2.5333353e-05  -4.0269611e-04  -2.0269412e-04   6.4045476e-04  -2.5031969e-04   2.1301417e-04   1.5688523e-04   4.1817828e-05   8.5924592e-05  -5.3969817e-04   1.7387307e-05   7.0983326e-05  -7.2384602e-05   1.8539318e-04  -1.5607661e-04  -1.0041308e-03  -2.4289680e-04   4.7861770e-04  -8.4895881e-05   4.7015477e-05  -3.4307910e-04   1.7565815e-04   4.1629191e-05  -8.8652661e-05   1.2299581e-04  -1.0428622e-03  -4.3107965e-04  -6.5392832e-04   6.3957070e-04   1.3791346e-04  -4.4408313e-04  -9.4030844e-04   8.0771378e-04  -2.4135185e-04  -6.6755537e-04
   3.0251418e-04   1.2919668e-05   1.6082395e-04   2.4119150e-04   2.1903828e-04   1.8657053e-04   4.4836709e-04   2.4392140e-05   1.0785620e-03  -1.3873811e-04   1.8456040e-04  -2.5277323e-04  -1.2828213e-04  -2.5110898e-04   3.1611227e-05  -4.8329512e-05  -4.5927649e-04  -2.1100746e-04   3.9630942e-04  -3.6890130e-04   1.6394928e-04   1.0285752e-04   6.9973095e-05   8.8927314e-05  -5.2251876e-04  -4.2856373e-05   1.6304566e-05  -6.1944789e-05   1.6876425e-05  -1.2382290e-04  -1.0170559e-03  -2.3688521e-04   2.4384074e-04  -1.1118661e-04   4.9716713e-05  -4.0282382e-04   1.9475818e-04   3.9352686e-05  -3.3221497e-06   8.1284030e-05  -9.2013285e-04  -5.6311581e-04  -4.9594266e-04   3.4960697e-04   1.9232385e-04  -3.5050910e-04  -8.4511796e-04   6.1934837e-04  -4.3437176e-04   3.5583493e-05
   3.8282029e-04   1.5337871e-04   1.7081658e-04   2.9701964e-04   2.8137301e-04   2.4461339e-04   5.4344418e-04   3.8847825e-04   1.2326059e-03   1.4042653e-04   3.9512801e-04  -5.9074380e-05  -5.6446614e-05  -2.4126263e-04   6.5477834e-05  -5.3540563e-05  -4.5075544e-04  -2.2928236e-04   4.8734838e-04  -3.4755640e-04   1.8813764e-04   1.0374524e-04   1.9369373e-04  -4.4548135e-05  -4.9053924e-04  -5.3246411e-05   1.0560380e-04  -1.0211327e-04   1.7017974e-04  -1.6284587e-04  -9.8630902e-04  -2.6938276e-04   4.2614035e-04  -1.8221623e-04   2.6212672e-05  -4.1229097e-04   1.6129435e-04  -5.5124665e-06  -3.8325932e-05  -5.6319725e-05  -1.0578905e-03  -4.8770281e-04  -8.2139333e-05   4.4362861e-04   1.4878933e-05  -5.4781907e-04  -8.4924931e-04   3.8842460e-05  -1.9001545e-04  -6.5881381e-04
   2.2269286e-04   3.4067474e-05   1.0851472e-04   2.1012042e-04   2.2687181e-04   2.3491077e-04   4.3460567e-04   2.1677270e-05   1.1100194e-03  -7.5043026e-05   2.3002425e-04  -2.2108192e-04  -1.2235405e-04  -2.8878776e-04   2.9088740e-05  -7.4677388e-05  -5.3265202e-04  -2.6740343e-04   2.9522518e-04  -4.6629965e-04   1.4722813e-04   3.0676634e-05  -4.7640791e-05   5.4363554e-05  -5.4145505e-04  -1.1760490e-04   5.4415315e-05  -1.1519379e-04  -1.2786199e-04  -2.7960143e-04  -1.0550928e-03  -3.4347427e-04   3.6160694e-04  -3.0552450e-04  -1.6622282e-05  -4.6893151e-04   9.5890915e-05  -7.7913784e-05  -1.3546052e-04  -1.1160896e-04  -1.0363096e-03  -5.6985463e-04  -4.1011174e-04   3.8376672e-04   2.5143721e-05  -3.2804918e-04  -8.8228087e-04   4.7427037e-04  -2.4889293e-04  -1.0390957e-03
   4.0850110e-04   9.8710625e-05   7.0154587e-05   2.1201150e-04   2.3657287e-04   3.2700633e-04   4.9239979e-04   3.6222409e-04   1.3118611e-03   1.7326383e-04   4.1892513e-04  -4.9571379e-05  -9.6113508e-05  -2.4741038e-04  -2.1411441e-05  -8.8174689e-05  -5.2968069e-04  -2.7460328e-04   4.7923467e-04  -4.6934542e-04   1.6865888e-04   7.4281139e-05   4.2309999e-05   9.4850162e-05  -5.0868647e-04  -3.7082787e-05  -7.9141435e-05  -1.4790836e-04   7.4092655e-05  -2.3717040e-04  -9.7008439e-04  -3.2931269e-04   3.1839462e-04  -2.9598785e-04  -3.3819651e-05  -4.4912324e-04   5.8723959e-05  -1.4524318e-04  -1.3163153e-04  -9.5546064e-05  -8.3135261e-04  -5.3671107e-04   2.8182566e-04   4.9802015e-04   4.9335104e-05  -4.2077480e-04  -8.5102499e-04   3.5245225e-04  -6.8743175e-05  -4.1471169e-04
   3.1342442e-04   4.0869261e-05   7.5928263e-05   1.8982710e-04   1.9660984e-04   1.4851478e-04   4.4785076e-04   3.7649611e-04   1.2444699e-03   4.1028520e-06   2.8555814e-04  -1.5508907e-04  -7.3331808e-05  -3.1557900e-04  -5.2338335e-05  -9.3322407e-05  -5.5266841e-04  -3.0081705e-04   4.2546302e-04  -5.3546613e-04   1.5163558e-04  -5.7482868e-07  -7.9250931e-05   5.4291313e-06  -6.2675471e-04  -1.0605921e-04  -5.0402603e-05  -1.4971758e-04  -1.8070505e-05  -3.1178142e-04  -1.0306329e-03  -3.7970254e-04   2.7593796e-04  -3.3657509e-04  -5.4403008e-05  -5.6315376e-04  -1.2542459e-04  -1.9783652e-04  -2.0748781e-04  -2.0261107e-04  -1.1882978e-03  -5.2573771e-04  -6.3944829e-04   4.1637072e-04  -1.3581403e-04  -5.3968187e-04  -8.9028239e-04  -6.2667351e-04  -3.9677933e-04   5.1418133e-04
   1.9669872e-04  -1.9818832e-05   4.6542456e-05   1.3303978e-04   1.6249905e-04   1.6029317e-04   4.3787621e-04   4.4497221e-05   1.3217194e-03   1.1709522e-04   3.6669121e-04  -7.5098251e-05  -4.6561046e-05  -3.1188459e-04   7.4522541e-06  -1.4395577e-04  -5.9183256e-04  -2.6802174e-04   5.0486234e-04  -5.3661660e-04   1.7413076e-04   6.5630476e-05   7.7665078e-05   5.9661299e-05  -5.5335078e-04   1.9476853e-05  -4.6363402e-05  -1.1285653e-04  -6.0230155e-05  -2.7080541e-04  -1.0278745e-03  -3.5552497e-04   3.7589247e-04  -2.3198500e-04  -3.6304686e-05  -4.8403413e-04   5.1177049e-05  -1.9087527e-04  -1.9328221e-04  -7.3962008e-05  -9.1228710e-04  -4.3325219e-04   1.9448857e-04  -1.0773221e-04  -3.8663275e-05  -7.3065050e-04  -7.7597954e-04  -3.2647030e-04  -3.5101670e-04  -2.9012575e-04
   2.7495628e-04   7.7135956e-05   6.0996237e-05   1.7654631e-04   2.0508296e-04   1.8021042e-04   4.5204235e-04   1.1786439e-04   1.2933842e-03   6.4859581e-05   3.6475740e-04  -1.0961410e-04   4.9571536e-06  -2.3643793e-04   1.4015623e-05  -1.4436248e-04  -5.6844874e-04  -2.5583419e-04   2.4911016e-04  -5.5863470e-04   2.0149178e-04   5.4976477e-05   6.5303655e-05   1.0922521e-04  -5.5372412e-04  -2.8377304e-05  -2.1970289e-05  -1.3575572e-04  -6.8504021e-05  -3.6363560e-04  -9.5102354e-04  -3.6546739e-04   2.7463771e-04  -2.8999153e-04  -1.1772287e-04  -4.3850983e-04   4.6976107e-05  -2.4463440e-04  -1.9125457e-04  -2.4455437e-04  -1.0168467e-03  -5.2061310e-04  -4.4343920e-04  -2.9984978e-04  -6.5830114e-05  -6.5311545e-04  -7.6917879e-04   3.7253069e-04  -1.1175067e-04   8.4256608e-04
   2.3453009e-04  -2.8086670e-05   3.1017073e-05   8.9027242e-05   1.0928090e-04   1.3031042e-04   2.8737527e-04   5.6378794e-05   1.1997955e-03  -8.6884116e-05   2.4001568e-04  -2.3281113e-04  -9.2951683e-05  -2.4396107e-04   9.0430884e-05  -2.1439837e-04  -5.6104187e-04  -2.0806913e-04   4.1952418e-04  -5.6905806e-04   1.9604596e-04   9.3761504e-05   1.5713042e-04   7.6380915e-05  -4.9241912e-04   5.4275202e-05  -9.9953340e-06  -1.2346328e-04   6.0477476e-05  -2.6610785e-04  -1.0218067e-03  -3.7364211e-04   4.7364761e-04  -3.1786051e-04  -1.6082367e-05  -5.0837040e-04   3.3456741e-05  -2.2464035e-04  -1.8238825e-04  -1.3791549e-04  -9.2119665e-04  -4.4301210e-04  -2.6889899e-04  -2.3608115e-04   6.4662599e-05  -6.9108122e-04  -6.9069560e-04   1.4457593e-03  -5.9639919e-04   5.4902448e-05
   4.2204495e-04   1.3768453e-04   1.2755145e-04   1.8057578e-04   2.0584826e-04   2.2471650e-04   4.9115892e-04   7.4599324e-05   1.2580717e-03   1.1449409e-04   4.2140248e-04  -3.9075538e-05   5.7089852e-05  -1.4345288e-04   1.4482542e-04  -1.1247575e-04  -5.1941047e-04  -2.0901249e-04   2.9012052e-04  -4.9016136e-04   2.6731857e-04   1.4196119e-04   1.1918167e-04   1.7225370e-04  -3.9843185e-04   4.8287202e-05   2.3812299e-05  -8.1439750e-05  -3.7000438e-05  -3.1397512e-04  -8.6337770e-04  -3.0813608e-04   4.4637761e-04  -2.8323178e-04   1.3082305e-05  -3.8304814e-04   1.8712262e-05  -2.2167311e-04  -2.4053521e-04  -1.5522381e-04  -1.0918708e-03  -5.2285602e-04   4.8622034e-05  -3.5359740e-04   3.7338570e-05  -4.1677651e-04  -6.3668966e-04   1.5596325e-03   2.1794807e-04  -6.0332910e-04
   3.2314056e-04   5.4329248e-05   1.2084069e-04   1.4236050e-04   1.6162766e-04   1.0571664e-04   3.4848339e-04   3.2991156e-04   1.1994875e-03  -1.0920686e-04   2.6620584e-04  -1.7221158e-04   1.6644854e-05  -1.4790878e-04   9.6825308e-05  -2.2140489e-04  -5.4553838e-04  -2.2780735e-04   2.3487689e-04  -5.4956012e-04   2.3301815e-04   8.3654690e-05   1.2663779e-04   2.3663358e-04  -4.2673459e-04   7.9537895e-06   5.5355125e-05  -7.1954113e-05   6.5934946e-05  -3.5323534e-04  -8.9703838e-04  -3.3400403e-04   1.6168041e-04  -3.1459398e-04   3.2996544e-05  -2.9264105e-04  -7.6633340e-05  -2.0371530e-04  -1.9803386e-04  -2.6922830e-04  -9.3144289e-04  -4.9038988e-04   2.2626923e-04  -1.3039021e-04  -7.0439688e-05  -4.2141078e-04  -5.6657800e-04   9.3205960e-04  -2.1465024e-04  -2.3192214e-04
   3.9648204e-04   1.8461556e-04   2.1449913e-04   1.9211587e-04   2.7265694e-04   2.7231011e-04   4.9256918e-04   4.8931059e-04   1.4282314e-03   1.9856005e-04   5.3835846e-04   7.9375975e-05   1.7582141e-04  -8.6880580e-05   1.5227063e-04  -8.6716456e-05  -4.9052044e-04  -2.2372611e-04   4.2254309e-04  -4.1098159e-04   2.9961835e-04   1.6288551e-04   2.7222343e-04   3.6281932e-04  -4.6061573e-04   2.4422340e-04   7.4624666e-05  -5.9202644e-05  -2.0344911e-05  -2.7291698e-04  -8.2302897e-04  -3.4237091e-04   3.4299801e-04  -1.9453336e-04   5.6874487e-05  -3.6140802e-04   4.9232447e-05  -1.5993323e-04  -2.3115765e-04  -2.5572197e-04  -1.0098860e-03  -3.7447942e-04  -3.9163194e-04  -2.6198154e-04   3.2032905e-05  -5.0367386e-04  -5.7441060e-04   5.2879745e-04   4.1997203e-04  -3.3921623e-04
   3.2494901e-04   1.2925910e-04   2.2950255e-04   1.8874060e-04   2.2548267e-04   1.7234634e-04   4.7660869e-04   1.1533395e-04   1.3095122e-03   1.8442024e-05   4.0577550e-04  -6.4109514e-07   1.4353562e-04  -1.2532300e-04   4.2742529e-05  -9.2483409e-05  -5.1126484e-04  -2.3531175e-04   2.7528766e-04  -4.2447553e-04   2.9036024e-04   1.5657903e-04   2.2710949e-04   3.2519319e-04  -4.4085272e-04   2.3531143e-04   1.2115831e-04  -7.5302472e-05  -1.5831301e-04  -3.4602667e-04  -9.4140391e-04  -3.3537066e-04   2.7554599e-04  -2.6582662e-04   1.4651057e-05  -3.8669398e-04   1.0798765e-04  -2.4584724e-04  -3.1942106e-04  -2.7179666e-04  -8.2782365e-04  -4.8317914e-04  -6.5170880e-04  -4.7178066e-04  -7.7121353e-05  -5.3523597e-04  -5.7830650e-04   6.8456051e-04   1.6700054e-04  -3.7744030e-04
   5.4113293e-04   1.6972674e-04   2.3084941e-04   1.9476075e-04   2.6407850e-04   2.2024805e-04   4.1588530e-04   3.0265734e-04   1.3538449e-03   1.8866411e-04   5.4679165e-04   1.3454858e-04   2.2381240e-04  -9.5478827e-05   1.4938624e-04  -7.6886012e-05  -4.9870863e-04  -2.2551994e-04   4.2311981e-04  -3.8201435e-04   3.2119773e-04   2.2779440e-04   3.3674377e-04   4.1055706e-04  -4.2152559e-04   2.6101666e-04   1.1823243e-04  -4.3285690e-05  -1.8059147e-04  -2.0267531e-04  -9.6040266e-04  -2.4574861e-04   5.4731488e-04  -1.6106649e-04   9.5226358e-05  -1.8556157e-04   1.1116776e-05  -1.8346118e-04  -2.2865395e-04  -2.6242790e-04  -6.8110606e-04  -2.0013313e-04  -3.9586506e-04  -5.5226893e-04   1.3534377e-05  -1.4692465e-04  -5.0468609e-04   4.3975527e-04   2.8775475e-04   5.6548574e-04
   3.6639781e-04   1.6335380e-04   2.5942005e-04   2.1430940e-04   2.4116787e-04   1.5142788e-04   4.2292770e-04   2.1692572e-04   1.2493051e-03   8.2274186e-05   4.9548829e-04   9.1917864e-05   2.2361954e-04  -1.0028504e-04   2.1577906e-04  -5.8012087e-05  -5.1240897e-04  -2.4583520e-04   4.9301249e-04  -3.7630557e-04   3.2541846e-04   1.4820648e-04   2.5781544e-04   4.8524543e-04  -3.5299608e-04   2.4836915e-04   1.4358229e-04  -6.1109888e-05   5.0819861e-05  -2.7695755e-04  -8.4562530e-04  -3.1732509e-04   4.3177165e-04  -2.7302152e-04   2.9094856e-05  -1.3277409e-04  -4.7708095e-06  -1.5197751e-04  -2.3286695e-04  -2.5424757e-04  -1.0478931e-03  -4.0915725e-04   5.6604680e-05  -2.2699570e-04  -1.3231386e-04  -2.2579553e-04  -6.0290738e-04   1.3181915e-03  -4.5237303e-04  -6.6850823e-04
   2.8338272e-04   4.7239864e-05   1.8744949e-04   1.2887892e-04   1.9309499e-04   1.6236422e-04   3.8847560e-04   2.7571322e-04   1.0390560e-03   5.3684213e-05   4.0865314e-04   9.3246854e-05   2.0414208e-04  -9.4778232e-05   1.8128587e-04  -4.0503313e-05  -4.8990309e-04  -2.2058259e-04   3.6842588e-04  -3.9512129e-04   3.0836093e-04   1.6335720e-04   3.5186968e-04   5.5101921e-04  -4.4915898e-04   2.6170787e-04   1.6908241e-04  -3.5621470e-05   2.0255420e-05  -2.5737577e-04  -8.6957123e-04  -2.7888649e-04   3.0428937e-04  -1.3540895e-04   1.3672249e-04  -5.9799302e-05  -1.2109453e-04  -1.5808886e-04  -1.8181809e-04  -1.8794420e-04  -5.9023459e-04  -4.0278709e-04  -4.5069511e-04   4.8668962e-04   8.6082851e-05  -2.3133963e-04  -5.5026071e-04   5.3229544e-04   6.1526685e-04  -1.0063697e-04
   5.0357776e-04   1.9181312e-04   2.9011403e-04   2.2591966e-04   2.7656477e-04   2.1402871e-04   4.5230030e-04   2.8312430e-04   1.1776246e-03   9.7681026e-05   4.9692026e-04   1.2642833e-04   2.9443915e-04  -8.6992761e-05   7.3690739e-05  -3.5781177e-05  -4.9904198e-04  -2.1668602e-04   4.0311815e-04  -3.1988605e-04   3.2649620e-04   1.9466777e-04   3.7596183e-04   4.5586188e-04  -4.4755769e-04   3.6790810e-04   6.3203872e-05  -9.2028858e-05   1.2503000e-04  -2.4129573e-04  -8.1709935e-04  -2.9276579e-04   5.1090587e-04  -1.9367323e-04   1.6014901e-05  -1.6153183e-04   2.0078684e-05  -1.7244898e-04  -2.3456811e-04  -2.4645400e-04  -7.1829662e-04  -3.2721780e-04  -4.5969075e-04   2.1156088e-04   8.6776519e-05  -4.6227206e-04  -5.1776256e-04   1.0075584e-03  -1.0515597e-04  -4.9259333e-04
   4.6655911e-04   1.1523846e-04   2.6627892e-04   1.8332603e-04   2.3125765e-04   1.5230929e-04   3.7598374e-04   2.3564053e-04   9.5317588e-04  -1.1826767e-04   3.2838382e-04   7.9241245e-06   1.9939373e-04  -1.5183538e-04   7.8783676e-05  -5.3762429e-05  -5.2707951e-04  -2.1750595e-04   3.0109566e-04  -3.5761981e-04   2.9374505e-04   1.8262186e-04   4.6181041e-04   3.8134435e-04  -4.0317015e-04   3.3352754e-04   5.0078921e-05  -9.4704854e-05   1.4904416e-04  -2.6348766e-04  -9.7831502e-04  -2.7233962e-04   5.0204602e-04  -1.0899024e-04   1.0727718e-04  -1.0200400e-05   1.9929752e-04  -1.4734549e-04  -2.9591884e-04  -1.9243995e-04  -7.3394470e-04  -4.5490082e-04  -2.6729752e-04  -5.6317041e-04   1.8473096e-04  -2.9857623e-04  -4.6008496e-04   8.9038583e-04   1.5186101e-04  -7.2369917e-04
   5.8492157e-04   2.5393089e-04   2.8249994e-04   2.5904426e-04   3.1683710e-04   3.0298854e-04   5.0189032e-04   2.8501963e-04   1.1423052e-03   9.7270669e-05   5.2047143e-04   1.6330916e-04   3.3431352e-04  -8.0793267e-05   8.2922692e-05  -8.7171022e-05  -4.6272692e-04  -1.9260944e-04   3.4890280e-04  -2.5834644e-04   3.4473804e-04   2.2782516e-04   6.0889934e-04   4.6239755e-04  -4.1043165e-04   2.8543398e-04   1.8211720e-04  -1.2544495e-04   1.0261035e-04  -2.3237141e-04  -9.1652403e-04  -2.7276846e-04   4.7817390e-04  -3.0587460e-05   1.0415378e-04  -1.1536973e-04  -2.7089502e-05  -1.8695934e-04  -2.9402215e-04  -1.1500078e-04  -7.1810914e-04  -3.1869404e-04  -5.6354242e-04   8.3306268e-06   2.0487262e-04  -2.0530104e-04  -4.5732872e-04   1.6072879e-03  -1.3754597e-04  -5.0477381e-04
   5.0552975e-04   1.6849977e-04   3.0641275e-04   2.5339713e-04   2.4982347e-04   2.3383641e-04   4.1771567e-04   3.6647389e-04   8.2653662e-04  -1.1618863e-04   3.4372602e-04   2.2110427e-05   2.7272938e-04  -8.0538724e-05   1.1951989e-04  -1.4759070e-06  -4.5461967e-04  -1.8856063e-04   1.4803674e-04  -3.1504253e-04   3.1222138e-04   1.7436962e-04   4.5662202e-04   3.8235934e-04  -4.1965509e-04   2.4199329e-04   2.1658599e-04  -5.8520131e-05   7.9165409e-05  -2.2764056e-04  -9.0223266e-04  -2.0215566e-04   5.6594412e-04  -1.0425060e-04   1.0244644e-04  -2.2052152e-05  -7.1973664e-05  -1.1542461e-04  -1.2220781e-04  -1.0046055e-04  -6.9069711e-04  -4.0982771e-04  -2.5579674e-04   4.6491437e-05   2.0868013e-04  -4.8218419e-05  -4.3319201e-04   8.3373336e-04   6.0051651e-05  -1.1035282e-03
   5.8685691e-04   2.6694025e-04   3.3566580e-04   2.9118903e-04   3.4079590e-04   4.2893979e-04   5.4503611e-04   6.9779978e-04   1.0463052e-03   9.0172085e-05   5.1606249e-04   1.6077615e-04   3.2734458e-04   4.8097005e-05   2.0798335e-04   3.7874179e-05  -3.5912285e-04  -1.3113228e-04   5.2275305e-04  -1.9675485e-04   3.5371465e-04   2.0129244e-04   5.4507697e-04   4.5951540e-04  -3.9659598e-04   3.5971790e-04   1.5988764e-04  -7.1720328e-06   2.9880926e-04  -1.5888017e-04  -7.9243863e-04  -1.2595412e-04   5.6002673e-04   2.0441877e-05   1.7440951e-04   2.0619749e-05   1.2225519e-04  -2.2001686e-05  -1.6814617e-04  -1.1823653e-04  -5.8096449e-04  -1.9928583e-04  -1.0777542e-04  -6.1940833e-04   2.2129965e-04  -9.1809707e-05  -4.4168837e-04   5.8672053e-04   1.5472164e-04  -1.2524718e-03
   4.9288821e-04   1.9687082e-04   3.0917110e-04   2.6960403e-04   3.0587419e-04   2.5130864e-04   4.8074062e-04   6.5339782e-04   7.2208286e-04  -1.0989940e-04   3.5747222e-04   3.8443930e-05   2.4523019e-04   4.6821460e-05   5.3514290e-05   6.8677371e-05  -3.5242713e-04  -1.3452969e-04   3.4494465e-04  -2.4667921e-04   3.1258818e-04   2.0465827e-04   4.3084711e-04   3.5602244e-04  -3.8225102e-04   3.3608906e-04   2.3411625e-04  -3.6645226e-05   2.5146425e-04  -1.6111652e-04  -8.4144826e-04  -1.8584137e-04   5.1650486e-04  -5.3034917e-05   8.8602814e-05   3.8687114e-05   1.7882253e-04  -1.7057861e-05  -2.0210902e-04  -2.1196340e-04  -6.4880314e-04  -4.5678735e-04   5.0005503e-05  -3.9448109e-04   1.8770959e-04  -1.5854114e-04  -5.2388461e-04   7.5332524e-04   4.4399808e-04  -1.1998625e-03
   4.8955489e-04   2.4385510e-04   3.2490861e-04   2.8629470e-04   3.3988501e-04   4.7031461e-04   5.1668379e-04   3.8814679e-04   9.7629958e-04   7.5946853e-05   4.7072076e-04   1.6496023e-04   3.3912648e-04   4.1087977e-05   1.8461364e-04   1.3298039e-04  -3.1220267e-04  -1.1131180e-04   4.7636469e-04  -1.6857669e-04   3.3916565e-04   2.6468289e-04   5.2800204e-04   4.5599011e-04  -4.1658187e-04   3.7613633e-04   2.6992767e-04   5.8033038e-06   1.0936229e-04  -6.8541936e-05  -7.4261875e-04  -8.9009438e-05   5.9310981e-04   4.1349300e-05   1.5254741e-04   1.0818338e-04   3.1746106e-04   2.9373405e-05  -7.6638651e-05  -2.7471280e-05  -5.2711234e-04  -3.2470073e-04   1.2630968e-04  -2.5682242e-04   2.9208430e-04  -2.0880120e-04  -4.6114091e-04   1.0389192e-03   4.6205273e-04  -6.4325542e-04
   4.7366862e-04   2.0730721e-04   3.1816153e-04   2.8910945e-04   3.2771484e-04   3.5191182e-04   5.0844788e-04   4.2815963e-04   8.1368920e-04  -8.5631713e-05   3.7006047e-04   4.0314211e-05   3.2289603e-04   8.9139394e-05   1.7465295e-04   9.9699217e-05  -3.1481974e-04  -1.2313577e-04   4.1960759e-04  -1.9791846e-04   3.0738136e-04   2.4917937e-04   4.4822812e-04   5.0381443e-04  -3.6712724e-04   3.6446415e-04   2.6292010e-04  -2.8266444e-05   1.3185354e-04  -9.7335622e-05  -7.8634417e-04  -1.7077108e-04   3.2482439e-04  -6.9102658e-05   1.3073249e-04   6.3216707e-05   2.4814316e-04   2.7604705e-05  -8.8761779e-05  -3.1364616e-05  -6.0654432e-04  -3.4621201e-04  -1.4580641e-04  -3.0419705e-04   2.0993162e-04  -1.2441464e-04  -5.9079682e-04   2.8165450e-04  -5.6520512e-04  -7.4162381e-04
   4.2226654e-04   6.9485308e-05   2.4677560e-04   2.0521702e-04   2.7934270e-04   2.9083181e-04   4.6224479e-04   4.0287332e-04   7.7223650e-04  -5.0132916e-05   3.2572210e-04   6.2388368e-05   2.7256287e-04  -3.2016185e-05   1.2919254e-04   1.7041975e-04  -3.2594675e-04  -1.2307560e-04   2.6947114e-04  -1.9228354e-04   2.6753277e-04   1.4008806e-04   5.3759292e-04   4.4029937e-04  -3.8399248e-04   3.1660861e-04   2.8132720e-04  -4.5963943e-06   3.4480734e-04   1.8302055e-05  -7.9503702e-04  -1.0159049e-04   5.1913672e-04   5.0932038e-05   2.4319658e-04   1.1121266e-04   1.3052307e-04   1.2558536e-04   3.1591186e-05  -9.0399308e-06  -6.7288644e-04  -3.2365727e-04  -2.1836642e-05   5.2168884e-04   3.2200955e-04   2.4337631e-05  -5.0651847e-04   5.1666977e-04  -1.9503759e-04  -6.7567860e-04
   5.4999109e-04   1.9336537e-04   2.8692200e-04   2.9037768e-04   3.1598058e-04   3.3419961e-04   4.9553142e-04   5.7419640e-04   7.3304219e-04  -3.8665621e-05   3.7007194e-04   4.9686678e-05   2.8263187e-04   5.6232966e-06   1.4457536e-04   1.0007231e-04  -3.0339236e-04  -1.6391619e-04   3.0660909e-04  -1.6183726e-04   2.6261876e-04   1.7697425e-04   4.4464829e-04   3.9669845e-04  -3.3742664e-04   3.0775901e-04   2.7821254e-04  -5.0350951e-05   2.6093569e-04   1.5616521e-05  -7.2589115e-04  -1.8983457e-04   4.6851762e-04   5.1102950e-07   8.1842692e-05   4.0994240e-05   3.6875394e-04   8.5867432e-05  -1.1389719e-06  -2.7522350e-05  -6.8735611e-04  -3.6046823e-04  -1.6353947e-04   5.0293712e-04   2.9529279e-04  -4.0050608e-04  -6.3131779e-04   7.6479797e-04   1.3117037e-04  -7.9061475e-04
   3.0632984e-04   7.9687743e-05   1.9003217e-04   2.0546385e-04   2.4993849e-04   1.8822287e-04   3.9852207e-04   5.0296669e-04   5.1324820e-04  -2.7133056e-04   1.4953972e-04  -1.3306129e-04   1.6974346e-04  -8.6674067e-05   3.6908608e-05   4.1379870e-05  -3.6497359e-04  -1.9723234e-04   2.7001926e-04  -3.0115552e-04   1.8042159e-04   5.2802814e-05   3.4209253e-04   2.4640351e-04  -4.4766208e-04   1.1399027e-04   1.9409663e-04  -6.4393913e-05   2.8331956e-04  -7.6610624e-05  -8.2257134e-04  -2.3626235e-04   2.8440688e-04  -1.9672887e-05   5.6562472e-05  -6.5265449e-06   3.3963876e-04   3.6306905e-05  -5.9858477e-05   6.3429834e-05  -7.5407716e-04  -2.9254096e-04   2.3305237e-04   3.6982488e-04   2.0844690e-04  -3.3712361e-04  -5.8616989e-04   4.9601331e-05   2.9890181e-04  -1.0395377e-03
   3.8749690e-04   1.5351595e-04   2.2153545e-04   2.4628724e-04   2.9118970e-04   3.4375838e-04   5.2146433e-04   5.8637909e-04   8.3631487e-04  -1.0960974e-05   3.4608447e-04   3.0185480e-05   2.2586816e-04  -2.6867296e-05   9.0461799e-05   6.8011694e-05  -3.4073109e-04  -2.2083682e-04   3.4130630e-04  -2.2724393e-04   1.6962692e-04   4.3202846e-05   2.9444741e-04   3.1557970e-04  -4.1236900e-04   2.5680810e-04   8.0326601e-05  -7.4339878e-05   7.0849834e-05  -5.1943712e-06  -8.1507757e-04  -1.4168976e-04   4.9023854e-04   8.1593898e-05   1.4262523e-04   2.4651317e-04   2.3618451e-04   4.8652684e-05   4.0237694e-05   5.4156080e-05  -6.0921680e-04  -3.7807380e-04   9.3616814e-05  -3.3341462e-04   2.6285058e-04  -3.8754861e-04  -6.5933587e-04   1.0573912e-03  -1.9731700e-04  -3.0084411e-04
   2.3017637e-04   8.1833874e-05   1.6989042e-04   2.1630233e-04   2.3326959e-04   2.5751686e-04   4.0415546e-04   3.1320498e-04   6.6729746e-04  -1.9574616e-04   1.9198844e-04  -1.1857237e-04   1.2407800e-04  -6.0775372e-05   5.1225066e-05   2.1669486e-05  -3.7360177e-04  -2.4534980e-04   1.7417116e-04  -2.8951676e-04   1.1522022e-04  -6.6631328e-06   2.6922656e-04   2.5394766e-04  -5.5920630e-04   1.4513513e-04   1.4905001e-04  -1.1368714e-04   2.7004461e-04  -2.4777049e-05  -7.9636194e-04  -2.5406241e-04   4.6815455e-04  -5.2586929e-05   1.4594318e-05   5.5015287e-05   1.9239876e-04  -3.8737293e-05  -5.9264272e-05  -9.0887610e-05  -7.3868339e-04  -5.0515123e-04  -2.2212004e-04   6.9577701e-04   1.7293036e-04  -7.2165451e-05  -6.6813786e-04   2.6362008e-04  -4.4609825e-04  -6.8478816e-04
   2.3251472e-04   7.2971612e-05   1.1807599e-04   2.0552431e-04   2.2923593e-04   2.8837722e-04   3.7793090e-04   2.3914118e-04   7.2465878e-04  -5.2619896e-05   2.6314319e-04  -5.7518409e-05   1.5241126e-04  -1.2064265e-04   1.9599705e-05   2.2839466e-05  -3.7113027e-04  -2.3297260e-04   1.3850293e-04  -2.5061489e-04   1.0088028e-04   2.8549304e-05   3.2281413e-04   2.3613211e-04  -4.7391374e-04   1.4465179e-04   1.4689891e-04  -1.0331064e-04   1.7622599e-04  -3.0664364e-06  -8.0901606e-04  -1.6361702e-04   5.9578026e-04   7.1178431e-05   9.0419046e-05   1.6887706e-04   1.8107414e-04  -4.3848972e-06   3.9238446e-05  -1.1642041e-05  -4.4687252e-04  -3.7490478e-04   3.3213588e-04   1.3424788e-04   2.9484145e-04   1.5493482e-05  -7.1746961e-04  -2.3333410e-05  -6.9767411e-04  -1.8472367e-03
   1.8761656e-04   8.6279404e-05   1.2158285e-04   2.5797985e-04   2.3621865e-04   2.7150108e-04   4.3325560e-04   3.9148214e-04   6.4896268e-04  -1.3085621e-04   2.2138350e-04  -1.3155758e-04   8.4098341e-05  -1.0997116e-04   5.4621123e-05  -1.0137867e-05  -3.3531580e-04  -2.2724568e-04   3.1511250e-04  -2.7348308e-04   9.3468218e-05  -1.7738179e-07   1.2715459e-04   1.4229478e-04  -5.1346730e-04   1.0191627e-04   1.4309653e-04  -1.2668765e-04   1.3558966e-05  -3.6883750e-05  -8.0545287e-04  -1.5894015e-04   4.4566899e-04   2.6551851e-07   4.0178682e-05   1.0729479e-05   2.6158046e-04  -1.8783301e-05   3.1421918e-05  -8.3610401e-05  -8.5949100e-04  -4.4353277e-04  -5.0231355e-04   3.2505128e-04   1.4460797e-04  -2.9347409e-04  -8.2758709e-04   8.0514100e-04  -4.7787296e-04  -1.2714135e-03
   1.7504934e-04  -4.6914916e-05   7.8378063e-05   1.7911766e-04   1.5204193e-04   1.2409771e-04   3.3721715e-04   2.4651637e-04   6.0157874e-04  -1.3872398e-04   1.5491011e-04  -1.8552202e-04   3.4756493e-05  -7.4494470e-05   2.5595393e-05  -3.2433254e-05  -2.9065058e-04  -1.9456107e-04   1.3349294e-04  -3.0671046e-04   7.4563388e-05  -2.2940550e-05   1.1654441e-04   1.4606692e-04  -4.2076499e-04   1.5720392e-04   2.6228389e-04  -7.3369440e-05   1.3632038e-04   2.3638722e-05  -7.7537220e-04  -1.1836195e-04   5.2197027e-04   7.6364908e-05   5.9340189e-05   5.7198853e-05   3.8525058e-04   1.9252655e-05   8.5585532e-05   1.0475278e-04  -6.2010833e-04  -3.9545397e-04  -8.6730885e-05  -1.7368514e-04   2.6806880e-04  -2.1064425e-05  -7.3904492e-04   8.1713370e-04   8.0037519e-04  -5.6311104e-04
   1.8253006e-04   5.3113410e-05   1.2071164e-04   2.3000324e-04   2.0891028e-04   1.9557006e-04   4.4634644e-04   5.0225900e-04   6.4933166e-04  -1.3118637e-04   1.6571261e-04  -2.0504910e-04   2.8140419e-05  -7.0425813e-05   7.5329219e-05   9.6052863e-06  -2.2558721e-04  -1.7340355e-04   2.5932462e-04  -2.8701007e-04   8.2512168e-05  -2.5487332e-05   1.5319409e-04   1.5792088e-05  -4.1826372e-04   6.9886883e-05   2.3473361e-04  -4.0220395e-05   3.5474132e-04   3.7980943e-05  -6.9413811e-04  -1.9739635e-04   5.5723789e-04   1.1339354e-04   3.7833528e-05  -6.0353344e-05  -1.1567993e-05   2.8083437e-05   1.1180656e-05   4.3701435e-05  -6.9716660e-04  -4.5494043e-04   4.5334693e-04   8.6731969e-05   1.7187264e-04  -5.2610711e-05  -7.3906640e-04  -5.4781459e-04  -4.7522591e-04  -1.0221318e-03
  -7.0280544e-06  -6.5474575e-05   3.7209615e-05   1.3203062e-04   9.3551251e-05   2.0156576e-05   2.9382613e-04   3.9281847e-04   3.1418877e-04  -3.4952760e-04  -3.9601440e-05  -3.8724282e-04  -9.4722935e-05  -5.4916392e-05  -9.9175040e-06  -4.6158901e-05  -2.3406601e-04  -1.7085492e-04  -6.2151116e-06  -4.0694501e-04   3.1532956e-05  -1.2231851e-04  -2.1484124e-05   3.2928306e-06  -3.7430675e-04  -5.7707817e-05   2.3161758e-04  -6.3884836e-05   2.7819947e-04   1.1211995e-05  -6.6684559e-04  -1.5579609e-04   3.8521687e-04   4.6966165e-05   6.5456479e-05   4.5474768e-05   2.3236583e-04   3.2199758e-05   8.7055159e-05   4.6041936e-05  -6.7656918e-04  -5.6241592e-04  -3.6615331e-04   1.4401427e-04   1.5795149e-04  -4.9942406e-05  -7.5292320e-04   7.7418040e-04   7.0669003e-06  -2.0254283e-04
   1.8374962e-04   4.5621826e-05   5.7822013e-05   1.9566515e-04   1.6498148e-04   2.5870849e-04   4.0646040e-04   4.4875880e-04   5.9332029e-04  -6.9633737e-05   1.4710535e-04  -2.2066791e-04  -4.8689311e-05  -2.2829612e-05   8.7809480e-05   1.1599223e-05  -2.0129935e-04  -1.7991100e-04   2.1266942e-04  -3.4375297e-04   5.9745824e-05  -5.7664049e-05   1.0925505e-04  -1.8492890e-05  -3.4175339e-04   2.0125128e-05   1.3569875e-04  -6.0402996e-05   1.2437091e-04  -9.9394147e-06  -7.0519058e-04  -1.2284974e-04   5.5095000e-04   1.0038852e-04   3.3579636e-05   1.4871544e-05   1.8225142e-04   6.0568611e-05   1.3999394e-04   5.3838641e-05  -5.9851207e-04  -4.6355455e-04   3.1118115e-04   1.2880843e-04   1.6717170e-04  -4.2327575e-04  -8.0247968e-04   1.0421277e-03  -7.9324102e-04  -1.6501687e-03
   4.3969423e-05  -6.9800379e-05  -2.8886621e-05   1.4039464e-04   6.2289153e-05   1.4123136e-04   3.0403121e-04   3.8719570e-04   5.4927188e-04  -2.4574960e-04  -1.1393672e-05  -3.3807522e-04  -1.1713029e-04  -1.6126734e-04  -3.5085428e-05   1.7372138e-05  -2.5913131e-04  -1.8740782e-04   5.3893527e-05  -4.1980148e-04   1.5077348e-05  -1.9393883e-04  -2.1745967e-05  -5.7287136e-05  -5.0234416e-04  -4.5294124e-05   1.2124664e-04  -8.3478066e-05   1.1614563e-04  -5.0761289e-05  -6.9598976e-04  -1.8367777e-04   3.4147847e-04  -6.9919421e-05  -6.5578635e-05  -1.3347864e-04   2.7098786e-05  -9.4390780e-05   9.1832417e-06  -3.1090934e-05  -8.5226120e-04  -6.2648859e-04  -3.7251189e-04  -4.9140805e-04  -3.3298707e-05  -3.7790471e-04  -7.9334504e-04   7.0007879e-04  -3.6494280e-04  -8.1238785e-04
   6.1039485e-05  -2.8605462e-05  -1.4262862e-05   1.4088507e-04   1.2715305e-04   1.3660511e-04   3.0687600e-04   3.0797841e-05   6.5893994e-04  -5.2927997e-05   1.0029625e-04  -2.2012964e-04  -6.9552625e-05  -1.3021400e-04   2.2043560e-05   2.7720154e-05  -2.5855907e-04  -1.7858978e-04   1.8823899e-04  -3.7432357e-04   3.5950899e-05  -7.1668605e-05   5.8788602e-05  -3.0840736e-05  -4.4370035e-04  -2.9867319e-05   8.2957515e-05  -1.1631987e-04   1.0394559e-04   1.3049787e-06  -7.0579594e-04  -1.4076450e-04   2.6262100e-04  -1.9343959e-05  -7.6514261e-05   4.7849764e-05   2.3384708e-05   1.0245672e-05   8.8004010e-05  -6.6040506e-05  -8.1797200e-04  -4.7521465e-04   5.7722384e-04  -2.4565743e-04   5.6280307e-05  -3.9158904e-04  -7.2808278e-04   2.2387368e-04  -4.1485354e-04  -9.3657494e-04
   2.1200938e-05  -5.6197085e-05   2.4925650e-06   1.3355001e-04   7.8224301e-05   9.5780626e-05   2.7471830e-04   5.1350804e-04   5.7069218e-04  -1.2684980e-04   5.7535231e-05  -2.5690600e-04  -1.2965289e-04  -1.9422914e-04  -1.1844440e-04  -1.4132204e-05  -2.9008021e-04  -2.0927191e-04   2.4030198e-04  -4.1690280e-04   2.2395468e-05  -1.3708266e-04   3.5839964e-06   7.3775900e-06  -4.7981215e-04  -5.0336471e-06   1.5484789e-04  -1.2627407e-04   3.8407383e-05  -6.1639352e-05  -6.0471968e-04  -1.9911314e-04   2.5575710e-04  -6.1098937e-05  -1.3314876e-04  -2.0798122e-06   8.7807755e-05  -8.6827829e-05   1.9493169e-05  -1.2230634e-04  -5.8657135e-04  -5.6670100e-04  -3.6598172e-04  -4.3448465e-04  -7.4485572e-05  -5.4035243e-04  -8.1845111e-04   5.2135310e-04  -2.4741964e-04  -1.3576429e-03
  -1.0318101e-04  -2.0453814e-04  -9.2893359e-05   4.7781210e-05  -1.7678984e-05  -2.5188208e-05   1.6859139e-04  -6.4988194e-06   5.2104343e-04  -2.6240110e-04  -1.0192650e-04  -3.3895779e-04  -1.8856864e-04  -3.0238586e-04  -1.0373903e-04  -5.6716541e-05  -3.6343985e-04  -2.6264400e-04   3.6806006e-05  -4.5781655e-04   6.4689732e-07  -1.7242671e-04  -3.7878839e-05  -3.2103637e-06  -5.8464654e-04  -7.4310301e-05   1.1916118e-04  -1.6422011e-04   7.8273210e-05  -2.2604501e-05  -7.4838003e-04  -2.3550511e-04   2.9631620e-04  -3.4064342e-05  -8.9726156e-05  -4.7541791e-05   7.2817893e-05  -1.0543472e-04  -1.5078525e-05  -3.1356500e-05  -3.8722149e-04  -4.4177441e-04   6.2838386e-05   1.7579555e-04   1.4636945e-05  -4.0976296e-04  -6.2908483e-04   9.4663708e-05  -6.1422586e-04  -1.5803472e-03
  -1.4206820e-05  -6.8275585e-05  -8.8985624e-05   1.1113338e-04   3.8814105e-05   9.2263297e-05   2.7703866e-04   2.8074803e-05   5.9583742e-04  -7.3974006e-05   7.2345174e-05  -1.9149936e-04  -1.3327455e-04  -2.5426783e-04  -9.2791044e-05  -3.8850994e-05  -3.7741847e-04  -2.7057968e-04   2.3531160e-05  -4.0081807e-04   2.1397345e-05  -1.4176103e-04  -9.4491836e-05  -8.9535453e-05  -5.7354785e-04  -8.3630664e-05  -4.0003074e-06  -1.8069343e-04  -6.1423598e-05  -1.2120555e-04  -7.8430399e-04  -2.3528322e-04   4.6556708e-04  -5.6457269e-05  -1.7067273e-04  -3.4346984e-05   8.9581972e-06  -1.4847277e-04  -7.6141820e-05  -1.9642602e-04  -5.2463409e-04  -4.8500070e-04  -1.8119736e-04  -6.1978685e-04  -8.1104336e-05  -6.3640351e-04  -6.8650127e-04   8.9104869e-04  -2.9910367e-04  -6.9196679e-04
  -5.7055884e-05  -1.6086503e-04  -7.7035329e-05   7.0327726e-05  -1.3240407e-05  -3.0323888e-05   1.7340765e-04   9.7551247e-06   4.2585924e-04  -2.5513355e-04  -6.6268833e-05  -3.1755312e-04  -2.3601974e-04  -3.1119425e-04  -2.2767975e-04  -1.1134222e-04  -4.3038448e-04  -2.9167466e-04  -1.3405585e-05  -5.2058551e-04  -3.7012847e-05  -2.5075182e-04  -1.2060808e-04  -1.0206269e-04  -6.5650279e-04  -1.8303446e-04  -1.5320569e-06  -1.8980097e-04  -9.6766118e-05  -1.4762027e-04  -7.5199036e-04  -2.2521811e-04   3.5033270e-04  -1.4540616e-04  -2.0615075e-04  -8.1078237e-05  -1.1222511e-04  -1.1442822e-04   1.3948775e-05  -1.1063305e-04  -7.5494533e-04  -4.6755312e-04  -1.2273859e-04  -1.1467400e-04  -5.7733037e-06  -6.2563858e-04  -6.3937221e-04  -3.7808789e-04   2.0260521e-04  -9.9562993e-04
   4.3375239e-05  -4.4369779e-05  -3.6187994e-05   1.4102519e-04   5.5378492e-05   7.0063477e-05   2.2817521e-04   1.2650125e-04   8.0114719e-04  -2.0358821e-06   1.4952346e-04  -1.2791381e-04  -7.5202406e-05  -3.0037630e-04  -2.0831176e-04  -1.6093126e-04  -3.6229059e-04  -2.7317126e-04   9.4919771e-05  -4.1407751e-04   2.6806954e-05  -1.5550756e-04  -2.0779653e-05   3.1290620e-05  -5.4768304e-04  -2.4069952e-05   3.0799569e-05  -1.8606229e-04  -6.3573798e-06  -1.2429596e-04  -7.1317726e-04  -1.8323481e-04   2.7561351e-04   2.3638040e-05  -2.0191699e-04  -1.7372468e-04   1.6748834e-04  -1.7841706e-04   5.8937028e-05   8.4426596e-05  -6.9438427e-04  -4.6864583e-04  -9.4354135e-04  -8.8890566e-04  -1.4612395e-05  -6.1260915e-04  -5.9258303e-04   1.9636967e-04  -3.3032673e-04  -8.2590571e-04
  -8.4261439e-05  -1.1199937e-04  -8.7689354e-05   9.6176802e-05  -5.6765048e-06  -3.6020185e-05   2.1047730e-04   7.9688463e-05   5.1495305e-04  -1.6708123e-04   2.0414443e-05  -2.2205188e-04  -1.1573946e-04  -2.4031552e-04  -1.5650781e-04  -1.5370273e-04  -3.9152487e-04  -2.8704654e-04   2.1756139e-05  -4.4734543e-04   2.6100492e-05  -2.3477164e-04  -6.9680515e-05  -1.3397609e-04  -6.3768931e-04  -1.0144167e-04  -2.0529424e-05  -2.2038999e-04  -3.6745285e-05  -1.8629325e-04  -6.3078495e-04  -2.8486041e-04   2.3668543e-04  -1.3400923e-04  -2.0155784e-04  -4.3958291e-05   6.5727254e-05  -1.7739044e-04  -5.2314586e-05  -7.3417395e-05  -4.4809416e-04  -4.7454564e-04  -6.6992507e-05  -1.5355636e-04  -7.4688382e-05  -4.6438744e-04  -5.1989802e-04   1.2996166e-03  -3.0658633e-04  -1.0447443e-03
  -6.4162581e-05  -3.9328905e-05  -8.3203877e-06   1.1921230e-04   5.3103075e-05   1.8567700e-05   3.1481797e-04   1.4850868e-04   8.1158587e-04   3.8809714e-05   1.8372988e-04  -6.0977382e-05  -6.4262691e-05  -1.7971219e-04  -1.0828825e-04  -3.6600744e-05  -3.1104736e-04  -2.6186771e-04   1.0082839e-04  -3.4715075e-04   9.7898439e-05  -9.9287805e-05   1.2521302e-04   6.0736165e-05  -5.3927489e-04   1.1089614e-04   1.1404893e-05  -1.6754643e-04  -3.9089973e-05  -9.0275083e-05  -6.2465208e-04  -1.5424650e-04   2.7218251e-04  -5.6248497e-05  -7.6708326e-05  -6.6615779e-05   1.3586915e-04  -1.7313240e-04   8.0009813e-06  -8.6553235e-05  -4.9819070e-04  -3.2753058e-04   2.7971028e-04  -1.4034590e-04   2.1378284e-05  -5.5635266e-04  -4.7184833e-04   8.7082037e-04  -2.1979953e-04   2.0144302e-04
  -1.9029922e-05  -7.7771656e-05   3.2153894e-05   1.1918018e-04   3.4745401e-05   3.3645940e-06   2.7936470e-04   3.3963591e-04   6.2253617e-04  -1.1346812e-04   1.0547559e-04  -1.6833872e-04  -7.6648284e-05  -2.2264730e-04  -6.7516841e-05  -1.4679389e-04  -2.8848840e-04  -2.4843289e-04   2.5872310e-04  -3.8429230e-04   1.0245955e-04  -1.5942441e-04  -5.3634660e-05  -2.1524631e-05  -5.4625171e-04  -6.3137618e-06   8.0594677e-05  -1.5057636e-04  -1.5462986e-04  -1.7271155e-04  -5.7527563e-04  -2.1053002e-04   1.9383601e-04  -1.1481989e-04  -2.0680054e-04  -2.7698390e-05  -1.2322009e-05  -1.7811678e-04  -5.7731126e-05  -1.8570067e-04  -7.1428879e-04  -5.6737073e-04   4.9479033e-05   2.0080541e-04  -2.0358518e-04  -4.3092197e-04  -4.7059756e-04   9.5835578e-04  -6.1979335e-05  -1.0344292e-03
   8.1870596e-05  -5.9676560e-05   4.1690578e-06   1.0251401e-04   4.0175066e-05   2.4566694e-05   3.0019428e-04   9.2887240e-05   6.3050829e-04   2.7423765e-05   2.2601501e-04  -4.3726937e-05   8.7162252e-06  -1.4576680e-04  -6.8771915e-05  -9.5073301e-05  -2.5514886e-04  -2.4911202e-04   1.2159840e-04  -3.0018328e-04   1.5148395e-04  -8.5942818e-05   1.3392798e-04   1.3246558e-04  -4.4450336e-04   1.4816014e-04   2.1275357e-04  -1.5737234e-04  -2.1477480e-04  -1.0067333e-04  -4.4213605e-04  -1.6284551e-04   3.5655897e-04  -1.9663968e-05  -5.9618982e-05   1.2410857e-04   7.1471200e-05  -1.3609204e-04   5.8548703e-05  -4.6510711e-05  -4.7267467e-04  -1.9103914e-04   4.3959353e-06  -1.8089777e-04  -3.8147853e-05  -3.0316357e-04  -3.1626390e-04  -1.9373505e-05   1.3985707e-04   2.8552205e-04
   2.2386518e-04  -4.3904627e-05   8.6731270e-05   1.1863478e-04   5.3491560e-05   9.1413909e-05   3.2826190e-04   3.2578080e-04   7.0243067e-04  -3.6398182e-05   2.1434642e-04  -4.3058491e-05   5.8426518e-05  -7.2862975e-05  -7.1263843e-05  -8.7775879e-05  -2.5006224e-04  -2.6182554e-04   1.5746370e-04  -2.8412160e-04   1.5728059e-04  -1.3254146e-04  -1.7235430e-05  -1.7275994e-06  -4.3594820e-04   1.4303678e-04   2.2557113e-05  -1.6371104e-04   1.3501948e-04  -9.5284013e-05  -4.8645661e-04  -2.0669634e-04   2.5094935e-04  -2.6847438e-05  -8.2063365e-05   9.6901458e-05  -4.9950759e-05  -1.5214809e-04   1.1011466e-05  -1.1652031e-04  -1.4216198e-04  -1.6301640e-04   6.7015644e-05  -2.0934561e-04  -1.6924576e-04  -4.3102753e-04  -3.0857159e-04   7.3762814e-05  -3.7144776e-04  -6.3819782e-04
   3.0426405e-05  -1.6949371e-04   1.6441079e-05   5.6651505e-05  -2.2130831e-05  -9.5314172e-05   2.1117151e-04   1.0791427e-04   6.1895116e-04  -3.0580577e-05   1.7132830e-04  -1.6842327e-05  -1.7263998e-05  -1.3637543e-04  -1.5451698e-04  -1.2814626e-04  -2.5832356e-04  -2.6606277e-04   2.2047592e-04  -2.9210429e-04   1.4512539e-04  -6.2475905e-05   2.0242503e-04   1.2152886e-04  -4.6221621e-04   1.9887573e-04  -2.7931505e-05  -1.7489603e-04  -4.4701694e-05  -7.0492621e-05  -3.6977266e-04  -1.7093601e-04   4.0045785e-04   1.1780420e-05  -9.5915275e-05   1.4934423e-04   1.9469062e-05  -1.7717580e-04   6.7008958e-05   3.7617836e-05  -4.7608635e-05  -1.2512619e-04  -1.0293158e-04  -9.1935573e-05   1.8161947e-05  -1.7615999e-04  -1.2781506e-04   1.0759846e-03   2.5377705e-04   1.0517570e-03
   2.1514672e-04  -2.6548732e-05   1.2391894e-04   1.5294262e-04   8.8440305e-05   6.0634880e-05   3.1736834e-04   2.5420377e-04   7.6403061e-04   8.2289389e-06   2.7694192e-04   5.6564553e-05   1.0319291e-04  -1.1709190e-04  -4.1268420e-05  -1.3707120e-04  -2.5659477e-04  -2.6813190e-04   8.2633691e-05  -2.5009780e-04   1.5093001e-04  -6.8728572e-05   1.5155452e-04   1.0731419e-04  -4.8965984e-04   2.8004622e-04   9.7201007e-07  -1.8897105e-04  -1.5353090e-04  -1.1009054e-04  -3.1825315e-04  -1.6978622e-04   2.0736850e-04  -1.8230290e-05  -1.3681279e-04   2.4270533e-04  -1.5432756e-04  -1.8827718e-04  -3.4195458e-05  -1.5498999e-04  -1.9388263e-04  -1.2397078e-04  -3.2975420e-04  -6.9590256e-05  -1.1017804e-04  -4.1378778e-04  -1.2763639e-04   5.8376818e-04   2.2436715e-04  -1.9258227e-04
   4.2868855e-05  -1.2945119e-04   8.6651926e-05   8.5241976e-05   9.5473861e-06   4.6996711e-06   2.5585599e-04  -2.8467699e-05   5.0483062e-04  -2.1366143e-04   8.9317109e-05  -1.0197180e-04  -1.2055288e-05  -1.2229945e-04  -1.2773530e-04  -1.6265325e-04  -2.5367053e-04  -2.9928648e-04   7.8283978e-05  -3.4489430e-04   7.6329525e-05  -1.0837240e-04   1.8586124e-04  -2.7732811e-05  -6.2262593e-04   2.3232517e-04  -2.7883956e-05  -1.7217465e-04  -8.1896520e-05  -1.3365550e-04  -3.4050515e-04  -1.2489546e-04   3.0924293e-04  -1.1727944e-05  -1.0072564e-04   2.2903310e-04   1.6963801e-04  -1.7901030e-04  -4.6559853e-05  -1.0969256e-04   3.1371380e-04   1.6633069e-04  -1.8866140e-04  -6.1920451e-05  -2.3830080e-05  -8.7762106e-05  -3.9489485e-05   2.9356053e-04  -1.2683017e-04  -3.9257246e-04
   5.9982005e-05  -1.0776790e-05   1.8604563e-04   1.5118095e-04   7.0120004e-05   1.2023895e-04   2.9398417e-04   2.0446489e-04   7.0239912e-04   3.4181921e-05   2.8933305e-04   1.0017934e-04   1.1798396e-04  -1.2210762e-04  -1.6146357e-04  -2.6421322e-04  -2.1628018e-04  -3.1841471e-04   2.9581448e-04  -2.4974559e-04   3.2997050e-05  -9.3567112e-05   1.0911380e-04   8.2492043e-05  -6.4291822e-04   2.6803804e-04  -1.5926956e-04  -2.3161311e-04  -3.3252480e-04  -1.4351631e-04  -1.3668225e-04  -1.6826786e-04   1.8800839e-04   2.1363237e-06  -1.7452691e-04   3.9205639e-04   2.0331576e-05  -2.2019964e-04  -5.4607568e-05  -4.9136128e-05   4.5311701e-04   3.3336517e-04   1.9313271e-05  -2.2410108e-04  -1.3672108e-04  -1.5455317e-04   9.0907306e-05   1.1948422e-03  -1.4157020e-04  -5.2542175e-04
  -1.5188948e-05  -9.6158481e-05   1.2786585e-04   1.2503038e-04   9.4926272e-06  -7.3104650e-07   1.9109607e-04  -1.1987407e-04   5.4333953e-04  -1.5543276e-04   1.7710448e-04  -2.0538848e-05   7.5456293e-05  -1.1294323e-04  -2.4685627e-04  -2.8850170e-04  -2.3907883e-04  -3.7066618e-04   9.1109971e-05  -3.1314194e-04  -3.6312380e-05  -2.0544544e-04   2.2016116e-04   3.7066664e-05  -6.6135317e-04   2.6864983e-04  -5.9826747e-05  -2.6020742e-04  -3.1083522e-04  -1.7036338e-04  -1.9707947e-04  -1.8363501e-04   3.6455452e-04  -9.2530914e-05  -1.2882294e-04   4.3793992e-04   1.7167479e-04  -3.0105805e-04  -1.8744577e-05  -1.2700610e-04   6.8755395e-04   4.0061312e-04   8.3150959e-04  -1.5737714e-04  -2.1858292e-05  -3.2137544e-04   2.8590398e-04   7.6272245e-04  -2.4775614e-04  -1.9475281e-04
   7.8966288e-05   4.4918388e-06   1.3817121e-04   1.8051785e-04   9.2466456e-05   5.1677263e-05   3.2612210e-04   1.6825930e-05   6.7731010e-04   8.9996138e-05   3.6727465e-04   1.6207548e-04   2.0764666e-04  -1.0073063e-04  -1.4402732e-04  -2.5324052e-04  -2.0867895e-04  -3.5067150e-04   1.0012256e-04  -2.0656736e-04  -2.8605926e-05  -1.5462737e-04   3.1805443e-04   1.6318804e-04  -6.5276423e-04   3.6335754e-04  -1.9167940e-04  -2.3053111e-04  -3.6312459e-04  -1.3657451e-04  -9.0237038e-05  -1.2894941e-04   2.1408478e-04   1.0411806e-05  -1.0242761e-04   5.6152727e-04   5.9489354e-05  -2.5248653e-04   2.6088994e-05  -5.3268526e-05   5.1852741e-04   5.1879446e-04   1.2782477e-04   2.3088892e-04  -7.1383511e-05  -6.2274295e-05   4.4252916e-04   5.6951394e-04  -3.5849045e-04  -1.4764760e-03
   6.6624365e-05  -2.9123481e-05   1.8657182e-04   1.5979099e-04   2.8662156e-05   8.0206300e-05   2.3071458e-04   9.4560957e-05   4.6279587e-04  -9.1024325e-05   2.3766815e-04   3.4819826e-05   1.8693553e-04  -1.4394327e-04  -3.1807518e-04  -2.6514602e-04  -2.0121923e-04  -3.3402228e-04   5.5170360e-05  -2.1016833e-04  -5.3315758e-05  -1.4520524e-04   2.8471794e-04   8.0646161e-05  -5.7522143e-04   3.2554366e-04  -1.7100202e-04  -2.0896950e-04  -2.6753364e-04  -1.3209479e-04  -6.2669766e-05  -1.5525786e-04   2.8929790e-04  -9.1716494e-05  -1.5929108e-04   3.7996462e-04  -1.4046067e-04  -3.2195417e-04  -4.2107749e-05  -1.6863097e-04   5.0897530e-04   2.4913991e-04  -5.5365195e-05  -6.1606022e-04  -9.5458221e-05  -6.6623361e-05   3.4623739e-04   5.5725570e-04  -2.9205458e-04   4.8829353e-04
   2.2366723e-05   2.9285584e-05   2.1499407e-04   1.9757930e-04   8.9421963e-05   1.5067213e-04   3.3371316e-04   1.8000902e-04   6.2091585e-04   2.1668415e-05   3.5666910e-04   1.0041429e-04   2.3114329e-04  -8.3763400e-05  -1.1973277e-04  -1.4466955e-04  -1.6601504e-04  -2.5953713e-04   2.8506445e-04  -1.2304028e-04  -1.5359110e-05  -7.8391240e-05   4.1259962e-04   1.6897706e-04  -4.8135835e-04   4.0838460e-04  -1.3816658e-04  -1.8597314e-04  -4.9978559e-04  -6.0979597e-05  -1.2606398e-04  -1.0163435e-04   3.1942004e-04   5.4454071e-05  -2.0041940e-05   4.4662782e-04   2.7125640e-04  -2.5788049e-04   5.5608143e-05   3.5671648e-05   3.7750276e-04   3.4135088e-04   1.3992417e-04   2.8165313e-04   5.1432380e-06  -2.3955358e-04   3.1764334e-04   9.8192226e-04   2.7905998e-04  -1.0827156e-04
   1.3838462e-04   1.6469625e-05   2.0836566e-04   1.8934470e-04   8.5674212e-05   1.6456560e-04   3.3319418e-04   5.1322797e-08   4.8085509e-04  -1.1779794e-04   2.5228219e-04  -1.7152075e-05   2.0283482e-04   2.8354449e-05  -6.2891682e-05  -2.0583623e-04  -1.0926766e-04  -2.5664855e-04   4.6230016e-05  -1.5768989e-04  -2.9038705e-05  -1.1445207e-04   4.0427511e-04   6.8683868e-05  -4.9272913e-04   3.9625529e-04   4.6544892e-06  -1.0528755e-04  -2.1324710e-04  -5.7339807e-05   4.9750102e-05  -1.1651486e-04   2.9084022e-04  -1.4041972e-05   3.0003968e-05   6.2274863e-04   6.4347347e-05  -2.2706841e-04  -4.0851122e-05  -1.5110291e-04   3.8606330e-04   3.0283409e-04   4.5775311e-04  -5.9476699e-04  -6.3674372e-05   6.3985695e-05   3.1585465e-04   5.9967206e-05  -3.1385550e-04  -5.0163700e-04
   1.9554731e-04  -4.8049176e-05   1.8087782e-04   1.6244952e-04   7.5579665e-05   2.4400750e-04   3.1252066e-04   2.4715811e-04   5.2263541e-04  -2.0104111e-05   3.0072097e-04   4.8783550e-05   2.0765387e-04   7.6428441e-05  -8.5288011e-05  -1.5464838e-04  -7.9900718e-05  -2.1248501e-04   2.3172944e-04  -1.2826358e-04  -4.0455918e-05  -8.1690006e-05   4.9118372e-04   2.3750658e-04  -3.6605872e-04   5.2319415e-04   7.4071118e-06  -1.0685284e-04  -2.1254238e-04   3.1570787e-06   3.8492253e-05  -5.3115709e-05   5.5687723e-04   1.8208061e-04   5.9583264e-05   7.0800318e-04   7.3862946e-05  -8.8367422e-05   1.6154895e-04   4.0839448e-05   6.8022532e-04   4.5690272e-04   3.5870878e-05   3.1999531e-04   8.6437167e-06   3.5699944e-05   3.7154768e-04   1.9327740e-04  -1.8324614e-04   6.3927655e-05
   2.5416608e-04   4.2957050e-05   2.5925512e-04   2.1549028e-04   1.2517557e-04   2.5757877e-04   3.7812782e-04   1.7190499e-04   4.6495156e-04  -5.4146105e-05   3.2353812e-04   3.8193662e-05   2.5906484e-04   1.4480307e-04  -3.1322630e-05  -1.1015053e-04  -1.7961760e-05  -2.2134770e-04   1.8321030e-04  -9.8096709e-05  -5.9013804e-05  -7.8205536e-05   3.4895143e-04   1.9244150e-04  -3.9998046e-04   5.0021877e-04   5.2558113e-05  -9.4674549e-05  -2.2642064e-04  -8.8364131e-06   1.0725423e-04  -8.1707738e-05   3.9236862e-04   6.1004521e-05   3.6942278e-05   5.5640296e-04   8.4025269e-06  -1.0935919e-04   6.3524290e-05   6.0653638e-06   5.7064695e-04   4.7929338e-04  -9.5242185e-06   1.6849548e-04   1.0840277e-05   9.3783434e-05   2.7293115e-04   6.1197084e-04  -3.6624513e-04  -8.0915552e-04
   8.2447674e-05  -6.9195688e-05   1.9422671e-04   1.6096749e-04   2.7356367e-05   7.8368452e-05   2.7340135e-04   2.6763673e-06   2.3855110e-04  -2.7671410e-04   1.1519198e-04  -1.2246746e-04   1.2335689e-04   9.0944064e-05  -2.0409528e-04  -1.7300667e-04  -6.4402171e-05  -2.5365077e-04   1.5075524e-05  -1.8569472e-04  -1.2903601e-04  -1.7868391e-04   2.8144522e-04   9.5277144e-05  -4.4410702e-04   4.0188598e-04   3.2742162e-05  -1.2919058e-04  -2.5357309e-04   3.9965129e-05   2.2368169e-04  -2.4888142e-05   3.0958094e-04   8.0255835e-05   6.7683017e-05   5.6453526e-04   2.6136904e-04  -1.2013398e-04   1.1475794e-04   1.5361406e-04   8.3287054e-04   4.9322873e-04   6.9943740e-04  -9.5692463e-05   9.8022965e-06   2.7367999e-04   4.6943087e-04  -2.0574944e-05  -4.4171684e-04  -7.0361304e-04
