   8.0524071e-05   1.2425157e-04   3.8735703e-05   2.3423557e-04  -2.8129475e-04   6.5743894e-04   5.4188451e-05  -7.8671769e-04   3.0384687e-04   2.9145900e-04  -2.1943208e-04   8.1222242e-05  -7.7800278e-04  -7.6216442e-04  -6.5248011e-04  -1.2328335e-03  -7.4043719e-04  -1.5696530e-03   1.0018629e-03  -5.3705659e-04   3.0064091e-04   7.8480941e-04  -2.3210088e-04  -5.2435696e-04  -5.7322526e-04  -1.4978446e-03  -1.0627786e-03  -8.6716830e-04   8.5700094e-04   3.3869315e-04  -8.3688472e-04  -3.5069237e-04   1.3749122e-04  -2.8791273e-04  -7.5943192e-04   4.6681213e-05  -3.4828632e-04   3.5946601e-04   2.3361459e-05   3.8772519e-05  -1.4816481e-03  -4.0902647e-05  -1.5784034e-03   6.2602143e-05  -1.9872293e-04  -3.3928559e-04  -9.0935522e-05   1.4154484e-02  -8.3035171e-05  -1.5712091e-04
   1.4911822e-04   1.3594660e-04  -7.4228556e-05   2.3072213e-04  -1.2827234e-05   6.2670407e-04   2.5746110e-04  -1.0446002e-03  -3.4915635e-04   2.5031334e-04  -1.7489362e-04   6.3018988e-06  -7.0684444e-04  -7.4022298e-04  -7.7066128e-04  -1.0840041e-03  -7.5368996e-04  -1.6118143e-03  -1.7904726e-04  -2.2439609e-04   3.2520128e-04   4.3171993e-04  -5.0650910e-04  -2.7269230e-04  -8.7542715e-04  -1.5910009e-03  -1.0403702e-03  -6.4749911e-04   1.4309790e-03   3.5886199e-04  -1.6472792e-03  -1.1743008e-03   2.2181304e-04   6.0260165e-05  -7.9001830e-04   8.7786769e-04   2.3184888e-04   3.6222374e-04  -5.3690441e-05  -6.5225831e-05  -2.9096578e-04  -2.2167790e-04   7.8209732e-03   9.8641001e-05  -3.4893194e-04  -1.4128965e-04  -7.8070763e-05   5.5927783e-03  -1.8884352e-04  -1.9412233e-04
   9.8050790e-05   9.2077040e-05   2.0975542e-04   2.5330650e-04   2.4773707e-04   5.6187616e-04  -1.1080871e-04  -6.3167309e-04  -1.2569823e-03   3.2312935e-04  -1.3383805e-04   2.6057044e-04  -6.8895298e-04  -7.3015864e-04  -7.4082287e-04  -1.2365110e-03  -7.7518000e-04  -1.5922098e-03  -2.8525334e-04  -1.2615351e-04   3.2000788e-04   4.3498672e-04   4.9252430e-05   2.3473843e-03  -1.6682872e-04  -1.3895199e-03  -1.0220836e-03  -8.6116145e-04   2.0681196e-03   3.2382828e-04   1.5757366e-03  -1.1419879e-04   1.6008801e-03  -5.1883831e-06  -8.0273929e-04   4.3314937e-04  -5.4677960e-04   2.5677800e-04  -1.0820218e-05   3.7137949e-04  -1.0713307e-03  -6.0752598e-05  -7.1689632e-04  -1.2913333e-05  -2.7035663e-04  -4.7308268e-04  -1.2825428e-04   1.4439468e-02  -1.8531902e-04  -2.5711537e-04
   1.6209661e-04   7.0660120e-05   1.6614588e-04   2.5432993e-04  -2.9074083e-04   7.7457831e-04   8.6318309e-05  -1.4822006e-04   3.6299819e-04   2.9248404e-04  -1.9101649e-04  -5.3726508e-06  -5.7637866e-04  -6.5973226e-04  -6.7679846e-04  -1.1152163e-03  -6.4983568e-04  -1.6178740e-03  -8.7645149e-04  -5.7063418e-05   3.1256987e-04   2.9385238e-04  -6.5894134e-04   1.0479953e-03  -2.8783118e-04  -1.3802447e-03  -1.0215592e-03  -5.5072946e-04   7.3767459e-04   3.5763739e-04  -5.5250386e-04  -9.8373170e-04   7.9912403e-05   3.2472424e-05  -7.0914306e-04   4.1897077e-04  -4.3855846e-04   3.0184747e-04  -1.2122576e-04  -3.1022661e-05   9.7992923e-04  -2.0132788e-05  -6.1367638e-03   1.3202211e-04  -2.9243194e-04  -1.8874278e-04  -1.4803842e-04   8.9115314e-03  -6.6752320e-05   2.0490324e-06
   2.0297715e-05   1.0167740e-04   7.0251124e-05   2.1295427e-04  -5.5620726e-06   5.1353406e-04   2.9467233e-04  -4.1321144e-04   6.9821608e-04   2.3170581e-04  -2.0901462e-04   2.5766977e-04  -6.5798895e-04  -6.6967693e-04  -4.9255742e-04  -1.0257645e-03  -6.1437301e-04  -1.5475063e-03   3.1297619e-04  -3.6746318e-05   2.9440009e-04   4.8888108e-04   9.4303250e-05   1.4693328e-03  -7.6809240e-04  -1.3589880e-03  -1.0200444e-03  -6.4558495e-04   1.6821387e-03   3.4605587e-04  -1.6968057e-03   1.7438858e-04   8.7296277e-05  -1.4921131e-04  -7.3988864e-04   2.3722212e-04  -2.6268313e-05   3.5603263e-04  -1.2421448e-04   2.5717064e-04   9.2732278e-04  -2.0725891e-04  -5.7289638e-03   3.2147524e-05   7.2209613e-04   2.0947617e-04  -1.2273013e-04   7.7126245e-03  -1.1566783e-04  -1.3622054e-04
   1.5169593e-04   1.6578429e-04   1.9928026e-04   2.2313217e-04   1.1000381e-04   6.9937552e-04   8.0944446e-05   4.7317767e-04  -2.0947601e-04   2.7694859e-04  -1.4481162e-04   1.7783069e-04  -6.6587224e-04  -7.2508887e-04  -5.9511827e-04  -1.1763414e-03  -8.0178882e-04  -1.6103333e-03   2.0420352e-04  -1.7559214e-04   3.1268489e-04   6.5327290e-04   7.9284876e-04  -6.7647395e-04  -6.7690905e-04  -1.4748728e-03  -1.0112242e-03  -6.3963432e-04   7.4603490e-04   3.6417876e-04  -1.1511388e-03  -4.4039616e-04   7.4753462e-04   1.5266112e-04  -7.6498871e-04   9.7406987e-04   1.6197817e-04   3.4707700e-04  -3.2174219e-05   7.2715164e-04   1.7306971e-04  -2.3797964e-04  -9.6040368e-03   6.8552392e-05   4.2678442e-04  -1.2514510e-04  -1.0238084e-04   1.1643833e-02  -2.9670176e-04  -1.5739461e-04
   9.1998445e-05   1.6986756e-04   2.7766576e-04   2.5295140e-04   3.4499579e-04   7.2721264e-04  -1.8004821e-04   3.8768683e-04   1.4559152e-03   2.5741250e-04  -8.3355990e-05   2.0675143e-05  -6.3657627e-04  -7.1334449e-04  -6.1170297e-04  -1.0681312e-03  -8.0242631e-04  -1.6269831e-03   1.2512075e-03   9.6481177e-05   3.0368549e-04   3.3379166e-04  -5.7617575e-04   5.0658319e-04  -1.1473190e-03  -1.3992044e-03  -1.0166706e-03  -5.4281013e-04   5.2596763e-04   3.5845421e-04  -1.9209620e-03  -7.3488243e-04   3.1705035e-04  -2.5169816e-04  -7.1918441e-04   5.5281795e-05  -1.8178287e-04   3.3720784e-04   3.1313893e-06  -1.1728284e-04  -6.2573941e-05  -1.4620170e-04   1.1405779e-04   9.3711511e-05  -6.6195714e-04   1.8103998e-04  -9.1359136e-05   5.7186070e-03   1.5707841e-04  -2.3674796e-04
   1.6715667e-04   1.4874620e-04   2.9381172e-04   2.8491535e-04   1.0810066e-04   3.9897367e-04   1.8601547e-04  -6.5607179e-05   1.1575801e-03   2.6481273e-04  -9.8697754e-05   4.1252955e-05  -6.0118543e-04  -7.3340966e-04  -5.9673638e-04  -1.0766475e-03  -7.9981307e-04  -1.4651298e-03   1.7814219e-03  -6.1987364e-04   2.8894591e-04   5.7692931e-04   3.9816723e-04   3.1760754e-04  -1.3767663e-04  -1.3897852e-03  -1.0347826e-03  -3.8397009e-04   4.1326645e-04   3.4953427e-04  -1.0648110e-03  -2.5801806e-04   4.5954145e-04   1.9780455e-04  -7.3671702e-04   1.4588595e-03   1.5895197e-04   3.6282145e-04   4.1230091e-06   3.8430226e-04  -4.0328762e-04  -2.5345675e-05  -1.2003891e-02   8.6688589e-05  -4.5039470e-04  -2.9732610e-04  -1.1722597e-04  -7.4070911e-03  -9.5853211e-05  -2.1985463e-04
   5.5141143e-05   1.7369782e-04   2.1330010e-04   2.5779524e-04   6.6207467e-05   7.2260591e-04   2.1769418e-05   1.0168399e-03   3.2790458e-06   2.4574468e-04  -1.1573138e-04   2.3460214e-04  -6.4141356e-04  -7.3382648e-04  -6.1627559e-04  -1.0061449e-03  -7.5598242e-04  -1.5282565e-03  -3.6535176e-04  -1.6606634e-04   2.6062323e-04   6.6375697e-04   4.1740690e-04  -2.4785264e-03  -1.9665044e-03  -1.3830340e-03  -1.0127857e-03  -3.8278947e-04   1.3050745e-03   3.6142624e-04  -8.5108686e-04  -4.9327902e-04  -6.4242558e-06  -3.5013894e-05  -7.2961458e-04   6.0414366e-04   4.0906639e-04   3.3433200e-04  -7.5320488e-05  -2.0961468e-04   4.4979941e-05   1.6750104e-04  -7.7528176e-03   1.3425628e-04  -1.6352055e-03  -3.7395619e-04  -1.0326866e-04  -1.7545173e-02   3.0751838e-05  -2.0914887e-04
   1.5031986e-04   1.7780204e-04   8.7143468e-05   2.3335013e-04   1.4197675e-05   6.7652890e-04   3.3517668e-04   4.5400465e-04   4.5323465e-04   2.5807283e-04  -1.7885037e-04   3.3063444e-04  -6.2757928e-04  -6.8500941e-04  -5.5988663e-04  -1.0203735e-03  -6.7609950e-04  -1.4765967e-03  -5.0196675e-05  -1.5263080e-04   2.7244742e-04   3.2331282e-04  -5.8000180e-05   6.3433888e-04  -1.6735143e-03  -1.3437037e-03  -1.0113177e-03  -7.4933207e-04   8.3840021e-04   3.6291115e-04  -4.9601204e-04   2.0623750e-04   7.1895681e-04   4.3137968e-04  -7.7578326e-04  -1.0064068e-05   1.1926147e-04   3.5128673e-04  -9.8297642e-05   6.7576622e-07   3.7973878e-05  -6.8995127e-05  -3.7478335e-04  -2.9013878e-05   7.2100473e-04  -2.0185900e-04  -1.2085183e-04  -1.0921878e-02  -3.3457927e-05  -2.6107274e-04
   5.6456607e-05   1.8959487e-04   1.8241191e-04   2.6346155e-04   2.5184074e-04   3.6913401e-04   5.1912302e-06   4.0114223e-04   1.4844874e-03   3.0732935e-04  -1.1008011e-04   9.1228118e-05  -5.9832062e-04  -7.2015560e-04  -6.0514070e-04  -1.0810161e-03  -6.3067628e-04  -1.4795965e-03  -1.2411281e-03   1.8614324e-04   2.5000956e-04   7.1111711e-04   2.9959550e-04   2.1666244e-03  -1.3011943e-03  -1.2890066e-03  -9.7792340e-04  -6.2281673e-04   3.9914623e-04   3.5178559e-04  -8.7925803e-04  -3.4186052e-04   6.8723725e-04   1.7417500e-04  -7.6817954e-04  -1.8559094e-05   1.6253153e-04   2.6571201e-04  -8.1397793e-06  -2.2618250e-04   2.6734931e-05   1.8479690e-05  -9.9664438e-04   6.8874899e-05  -3.1083252e-04  -4.4075350e-04  -9.2738272e-05  -1.1103410e-02  -2.0558612e-06  -1.3525059e-04
   3.2190120e-04   2.0124884e-04   8.8799556e-05   2.5743968e-04   3.9643631e-04   4.8619334e-04   1.8553891e-04   5.2207959e-04  -7.7693257e-05   2.9798629e-04  -1.2464925e-04   2.0426445e-04  -6.2435924e-04  -6.5093843e-04  -5.3932931e-04  -9.3456160e-04  -5.7959068e-04  -1.5225917e-03  -9.7010826e-04  -2.2951259e-04   2.3389887e-04   4.4374293e-04   2.5211525e-04  -1.4313436e-03  -1.1196677e-03  -1.3196272e-03  -9.4166613e-04  -5.6201138e-04   5.6852045e-04   3.4833743e-04  -8.2176708e-04  -1.7395017e-04  -3.7921336e-04  -3.4873465e-05  -7.4693467e-04   9.0389850e-04   2.5893294e-04   2.9065783e-04   1.6096401e-05   6.7802524e-05   3.7089665e-04   1.6602562e-05  -1.1640941e-03   1.6186135e-04   2.0175856e-05  -1.6813878e-04  -1.2211516e-04   1.2337395e-03  -1.6201299e-04  -2.1899218e-04
   4.9227870e-05   1.4393230e-04   3.3033043e-04   2.2675635e-04   1.6596030e-04   5.9479749e-04   2.1443939e-04  -1.5944490e-05   5.9071335e-04   2.5660693e-04  -2.2443081e-04   1.0092564e-04  -6.6680164e-04  -6.9183082e-04  -7.5384468e-04  -8.8069396e-04  -6.0015573e-04  -1.5954780e-03  -5.4710900e-04  -2.6603666e-04   2.0980883e-04   3.7611986e-04   9.3325316e-06   5.4746133e-04  -3.6689197e-04  -1.3877532e-03  -9.7850850e-04  -4.7338972e-04   6.2073860e-04   3.7006804e-04  -3.8614371e-04  -7.9826586e-04  -6.6829578e-04   1.0300153e-04  -6.8094948e-04  -8.1315404e-04   2.5140038e-05   3.5277597e-04   2.5530625e-04   2.2648078e-04   7.1548822e-04  -1.1913577e-04  -4.9871515e-04   9.7851789e-06  -6.0072518e-05  -3.6587589e-04  -8.5255204e-05  -5.4509606e-04   1.5564750e-04  -8.5388296e-05
   1.2903394e-04   1.7482507e-04   2.6486992e-04   2.2449324e-04  -1.8224776e-04   8.0843479e-04   9.1411523e-05   4.2754848e-05   1.2393072e-03   2.7459612e-04  -9.5977368e-05   6.3873405e-05  -6.6121714e-04  -6.2519440e-04  -4.7999958e-04  -9.9982484e-04  -6.3488068e-04  -1.5694816e-03   2.5830977e-04  -1.5883325e-04   2.3020999e-04   6.3310890e-04   6.2231900e-04   1.2020265e-04  -1.6710302e-03  -1.2815030e-03  -9.4719720e-04  -6.0853391e-04   1.2083413e-03   3.2371920e-04  -1.2530123e-03   5.1834908e-05   7.8049389e-04  -1.4025578e-04  -7.0619653e-04  -1.9079074e-04  -4.4484567e-04   2.8883299e-04   5.1298249e-04   1.3278358e-04  -1.2166039e-03  -1.3897101e-05  -5.6324075e-03   1.6225448e-04  -1.1961300e-04   1.9824281e-05  -5.0717405e-05  -6.0268934e-03   4.0128456e-05  -2.2487668e-04
   1.3738811e-04   1.9766994e-04   8.2768442e-05   2.1160461e-04   1.6534739e-04   5.5412273e-04   1.7366404e-04   4.2406266e-04   7.5009023e-04   3.5063724e-04  -1.0505057e-04   2.6721371e-04  -6.2501524e-04  -6.1617093e-04  -5.9222215e-04  -1.0572062e-03  -8.0601178e-04  -1.3825943e-03   4.1461317e-05  -3.2723874e-05   2.6578331e-04   4.6352632e-04  -9.7030497e-05   1.2385237e-03  -5.0230441e-04  -1.2533118e-03  -8.9948357e-04  -7.6549611e-04   9.6564082e-04   3.3770691e-04  -1.2834480e-03  -1.1431822e-04   1.2290739e-03  -2.0148867e-04  -6.3777866e-04   3.2456635e-04  -1.5448844e-04   2.6685555e-04   9.7305143e-05  -3.6550453e-05  -7.4233481e-04   1.2101873e-05  -9.9352654e-04   7.1194081e-05  -5.3288601e-04  -9.5752388e-05  -1.5346357e-04   1.5070461e-02  -3.5178753e-05  -3.3287064e-04
   6.4809203e-05   1.8630479e-04   1.3027804e-04   1.9876576e-04  -1.1922948e-04   4.4646329e-04   2.2204200e-04   1.0283705e-05  -1.2712507e-04   2.6211728e-04  -2.0312337e-04   9.8987235e-05  -6.2802114e-04  -5.7917007e-04  -5.1974930e-04  -1.0244070e-03  -6.1591814e-04  -1.3010185e-03   1.2807105e-03   1.5731892e-04   2.0845098e-04   5.6435657e-04  -2.4085317e-04  -6.7009445e-04   1.9534395e-05  -1.2460341e-03  -9.3775103e-04  -4.4107408e-04   7.4725569e-05   3.1211984e-04  -3.2829648e-04  -2.9946072e-04   1.3860617e-03  -6.5951991e-07  -6.6583004e-04  -1.4858537e-04   2.3498981e-04   2.7784597e-04  -2.6174024e-04   5.2083626e-05   8.5359655e-04  -9.7934586e-05  -5.2303297e-04   1.8839320e-04   2.4555137e-04  -1.5223346e-04  -3.1685475e-05   3.0875751e-03  -3.6938305e-04  -8.9770510e-05
   1.0204826e-05   1.3076342e-04   2.2259164e-04   2.3393161e-04   1.7759317e-04   6.0740538e-04   1.0629090e-04  -7.5890502e-04  -5.9673731e-04   2.4685552e-04  -1.9581727e-04   2.4033593e-06  -6.1637646e-04  -6.0064846e-04  -5.6004710e-04  -8.4938837e-04  -7.4384949e-04  -1.4020462e-03   1.2855855e-03  -3.6767244e-04   2.1564617e-04   2.5483672e-04  -3.0634529e-04  -1.8493249e-04  -1.4933835e-03  -1.2640174e-03  -8.9180341e-04  -4.8615935e-04  -1.4405057e-04   3.2634113e-04   2.4913493e-04  -4.9713469e-04  -4.7485850e-05  -1.5074800e-04  -6.4656796e-04  -7.6008379e-05  -6.3636326e-05   3.2341704e-04   6.4888292e-05   1.2313970e-05   2.6630887e-04  -8.5908068e-05  -8.7521330e-04  -3.4535264e-05   1.9126582e-04   1.4068965e-04  -1.3783312e-04  -1.2514297e-02   2.2673296e-06  -2.7899962e-04
   1.9780741e-04   1.7844353e-04   1.1868714e-04   2.3186170e-04   4.8937503e-04   6.3631858e-04   4.3146417e-04  -4.5457220e-04  -8.4096723e-04   2.5733473e-04  -1.3807925e-04  -3.4289453e-05  -5.9327262e-04  -5.8298273e-04  -6.1793206e-04  -1.0482754e-03  -6.0169294e-04  -1.3704809e-03  -9.9685206e-04   2.4634419e-04   2.2831514e-04   2.2104497e-04   7.6988991e-04   9.8911591e-04  -5.8664626e-04  -1.1530396e-03  -9.3434087e-04  -6.6326454e-04   6.8209838e-04   3.2727007e-04  -1.6518532e-03  -2.7564893e-04   6.5253454e-04  -1.4535873e-05  -6.4320967e-04   5.1959261e-04  -2.5958210e-05   3.4760087e-04  -1.4545918e-04   3.7043926e-04   1.5859597e-04  -7.5613745e-05  -4.6064751e-03   1.8405951e-04   1.3351892e-03  -1.3498464e-05  -9.9120261e-05   5.6777718e-03   8.2305771e-05  -2.1953338e-04
   1.2296962e-04   1.3555140e-04   1.9322313e-05   2.3291347e-04   1.1626945e-04   4.1132831e-04  -2.4021450e-04  -2.0944574e-04  -2.2303047e-04   1.9640678e-04  -1.5148069e-04  -2.5618767e-06  -5.0999713e-04  -6.1741174e-04  -4.9319083e-04  -1.0057145e-03  -7.2083692e-04  -1.4562726e-03  -3.5867223e-04  -2.1945937e-04   2.4023441e-04   4.2628578e-04   5.0131918e-04   2.9685441e-04  -7.3900830e-04  -1.2369471e-03  -9.1347325e-04  -6.8223529e-04   4.4097332e-04   3.5660862e-04  -1.6866613e-03  -4.0597498e-04   9.0034149e-04   7.3031573e-05  -6.7660160e-04   7.6260592e-04   8.0614281e-04   3.4121290e-04  -6.0473387e-05   4.5015794e-04   7.7262043e-04  -4.1430714e-05   2.4890361e-04   1.6288039e-04   1.8990632e-03  -1.5787929e-04  -1.8089551e-04  -1.5885465e-02   8.8200941e-05  -2.4135328e-04
   1.0858989e-05   1.8294055e-04   3.2369895e-05   2.2660414e-04   1.1010118e-04   4.8253793e-04   2.3192402e-04  -5.1638403e-04   1.2060030e-03   2.2890483e-04  -1.4767940e-04   1.4957697e-04  -5.7266344e-04  -6.1875198e-04  -5.0369184e-04  -8.7588775e-04  -6.7718828e-04  -1.3751886e-03   8.2750374e-04  -1.8620247e-04   1.9309879e-04   6.0950354e-04   6.4162550e-06  -3.4776161e-04  -1.5206484e-03  -1.2307544e-03  -9.0392894e-04  -4.6961027e-04   6.7607360e-04   3.0526656e-04  -2.2514521e-03  -1.0719246e-03  -2.2486513e-04   3.8340129e-04  -6.9875491e-04   8.5178530e-04  -5.1857234e-04   3.4724295e-04  -1.2162020e-04   5.0489893e-05   4.1407536e-04   2.5678439e-05  -4.9276371e-03   4.9279377e-05   1.6869042e-03   5.1494764e-05  -1.0238258e-04  -1.1171809e-02   5.3189266e-05  -1.3271369e-04
   4.0512678e-05   1.9410969e-04   1.5422776e-04   2.2374457e-04  -2.0004725e-04   4.6956167e-04   1.6230113e-04  -6.2507589e-04   5.1323214e-04   2.5216880e-04  -1.6577535e-04   2.9382185e-04  -6.1182666e-04  -5.9823948e-04  -4.6960570e-04  -7.2157785e-04  -7.4139179e-04  -1.4716760e-03   1.5596430e-04   4.2184791e-05   2.3535245e-04   5.2451924e-04   2.3742371e-04   9.3069283e-04  -1.0107397e-03  -1.4051443e-03  -9.2289649e-04  -5.7286373e-04   1.3601178e-03   3.2355587e-04  -1.4423762e-03  -7.4232486e-04   1.1339888e-03  -7.6246703e-05  -7.3839450e-04   3.0852164e-04  -3.3496262e-04   2.3190933e-04   2.4314683e-04  -4.0724368e-05  -1.2325146e-03  -5.2446303e-06  -3.1536832e-04   2.1782865e-04  -4.2532955e-04  -2.0461410e-04  -2.1697269e-04   8.5900594e-03   1.2540468e-05  -2.4846994e-04
   1.7229706e-04   1.8722615e-04  -2.6718338e-04   2.4868728e-04   3.7246260e-05   6.1101688e-04   4.6023331e-04  -7.8850921e-05  -1.6127616e-03   2.8312753e-04  -1.1360124e-04   1.2839439e-04  -6.3538691e-04  -5.8689207e-04  -4.6523253e-04  -1.0053677e-03  -7.5153104e-04  -1.4370392e-03  -8.5962383e-06  -1.4847459e-04   2.3373516e-04   5.9282704e-04   8.8253837e-05   8.4803323e-04  -8.3021459e-04  -1.3597468e-03  -8.8834314e-04  -4.0676323e-04   6.6157308e-04   2.8914711e-04  -4.9560156e-04  -6.3407567e-04  -1.0234392e-04  -3.9279403e-05  -6.6462834e-04  -5.3836477e-05  -3.8169985e-04   3.3575765e-04   3.3387824e-04   7.7264340e-06  -3.2888414e-04   4.3618231e-05   2.7465704e-03   1.1826744e-05   6.6968065e-04  -8.4870553e-06  -1.6529503e-04  -8.7855430e-03   5.4405311e-05  -9.2974944e-05
   1.6550095e-04   1.6773540e-04  -2.0230949e-05   2.2632054e-04   2.4181190e-04   7.2554569e-04   3.1415321e-04  -4.8717996e-04  -3.1584778e-04   2.5540081e-04  -1.0485018e-04   2.6314403e-04  -6.6031353e-04  -6.3898141e-04  -4.9749872e-04  -8.9169206e-04  -8.0638286e-04  -1.5557822e-03   1.5295521e-04   8.8762485e-05   2.1397734e-04   5.5470021e-04  -4.7360893e-04  -9.8287093e-04  -1.3774778e-03  -1.2955574e-03  -8.6982467e-04  -4.9217144e-04   1.8936151e-03   2.8710926e-04  -1.0134322e-03  -5.2826939e-04   1.1450403e-03  -3.9803912e-04  -6.6729955e-04  -8.0501492e-04   5.4852740e-04   3.2230341e-04   7.8487967e-05   1.7478317e-04   2.7805925e-04  -8.4598629e-05   1.7859453e-02   1.9087616e-04   1.2117790e-03  -9.2281269e-05  -7.2992909e-05   8.8454736e-03  -9.7222066e-05  -1.9333443e-04
   4.9948427e-05   1.5769168e-04   4.6097234e-06   2.2354377e-04  -1.4660967e-04   3.9058988e-04   4.8493978e-04   1.2452589e-04   3.6877522e-05   2.2655596e-04  -9.5331765e-05   2.2394568e-04  -6.1151636e-04  -6.3463981e-04  -5.7692616e-04  -1.2124537e-03  -7.1668008e-04  -1.3897865e-03   8.0880025e-05  -8.9379901e-05   2.7322455e-04   7.4754999e-04   9.0022186e-05   1.8756057e-03  -1.6404436e-03  -1.3649999e-03  -9.0304320e-04  -5.5211480e-04   1.8757007e-03   3.0181918e-04  -7.9045288e-04   5.0420588e-04   1.4785677e-03  -2.8397333e-05  -6.9664954e-04   1.3517330e-03   1.4540820e-05   2.5477158e-04  -5.4209366e-05   3.4684755e-04   9.7451848e-04   5.2646847e-05  -3.9894247e-04   2.0255354e-04  -2.4111522e-04   1.0065659e-04  -2.0763850e-04   1.2255367e-02  -5.6354671e-05  -2.0239566e-04
   1.3703202e-04   1.6182520e-04   7.5215044e-05   2.1299080e-04   6.9892056e-05   4.6598259e-04   1.3799344e-04  -3.4152952e-04   6.0367002e-04   2.1734969e-04  -2.1710998e-04  -2.4920211e-05  -6.1106239e-04  -6.3040835e-04  -5.5527204e-04  -1.0174669e-03  -6.8944541e-04  -1.3748955e-03  -7.7814533e-04   4.3575483e-04   2.1754039e-04   3.7040943e-04   5.8350596e-04   4.5143167e-04   4.4922673e-04  -1.3688515e-03  -8.7015360e-04  -5.8007147e-04   1.6719598e-03   2.9910568e-04  -1.4768501e-03  -3.7459334e-04   1.5627424e-03  -6.5996719e-05  -6.8470265e-04   5.6749047e-04  -6.2104453e-05   3.1775108e-04  -3.3332119e-05   5.2791322e-04   9.0601656e-04  -3.2300013e-05  -3.3907301e-03   1.8658394e-04   1.8427984e-03  -1.9504708e-04  -8.0269921e-05  -2.1518528e-02  -6.0535007e-05  -2.1751711e-04
   1.0704392e-04   1.0310949e-04   9.1464019e-05   2.1669225e-04  -2.3167839e-05   4.6222497e-04  -1.7355875e-05   1.5519781e-04   1.2887840e-03   2.3976054e-04  -1.1651636e-04   2.0202409e-04  -6.5447384e-04  -6.3710887e-04  -4.0144715e-04  -1.1058706e-03  -6.5144483e-04  -1.4145061e-03   5.7025801e-04  -2.9582594e-04   2.5560922e-04   4.3573059e-04   4.8300783e-05   1.1050452e-03  -2.7475727e-04  -1.2960094e-03  -8.6261216e-04  -5.4185058e-04   1.2405723e-03   2.8398723e-04  -1.3878929e-03  -3.2280653e-04   8.1144163e-04   1.4040162e-04  -6.8404397e-04  -2.3658673e-05  -2.1561520e-04   2.8962904e-04   5.6290478e-06  -3.0841827e-04  -5.0660485e-04  -7.8770325e-05   1.8473700e-04   5.6956091e-05   1.0074531e-03  -2.3250810e-04  -6.1087769e-05  -7.0758718e-03  -7.4356627e-05   2.1305499e-05
   1.0567366e-05   1.3366526e-04   1.5981011e-04   2.5008683e-04  -4.5067365e-05   5.6480995e-04   2.8753132e-04   1.5336898e-04  -9.1485673e-04   2.1691993e-04  -1.2672841e-04   2.0347565e-04  -5.3073140e-04  -6.6370168e-04  -6.0895371e-04  -9.3867775e-04  -7.1824010e-04  -1.5020140e-03   1.6199515e-03  -8.5118583e-05   2.6627659e-04   7.8637508e-04  -3.8562277e-05  -1.9369210e-05  -4.9786322e-04  -1.3452317e-03  -8.9107075e-04  -4.3547005e-04   1.1734299e-03   3.2182675e-04  -3.7315520e-04  -2.7553929e-04   3.1591151e-04   1.9752800e-04  -7.0107641e-04   7.7812799e-04  -6.0655928e-04   3.1925712e-04   4.1255919e-04   5.8467622e-04  -9.6778088e-04  -1.3750266e-04  -3.3189380e-03   4.5674908e-05   6.6381803e-04  -2.6669950e-04  -1.2408524e-04   1.2429385e-02   8.8177032e-05  -2.7494138e-04
   5.5343749e-05   1.1505443e-04   3.6928459e-04   2.5155424e-04   2.8182319e-04   3.9907062e-04   3.7276157e-04  -2.9629536e-04  -1.2333375e-04   1.7613382e-04  -1.3412577e-04   6.9487047e-05  -5.4607773e-04  -5.9232255e-04  -3.7290115e-04  -8.6150522e-04  -6.6326867e-04  -1.3386877e-03   7.9137518e-04  -3.3647064e-04   2.0057549e-04   5.1173783e-04  -2.2633655e-04   1.8611926e-03  -3.3645640e-04  -1.1833817e-03  -7.8159285e-04  -3.2817671e-04   7.8021525e-04   2.7888268e-04  -1.4161923e-03   3.8281901e-04  -8.6137687e-04  -7.2258415e-05  -6.9063948e-04   5.8679370e-04  -9.3532035e-05   2.4208601e-04   1.7655843e-04   2.0178570e-04  -4.3283307e-04  -5.0027040e-05  -7.4525955e-03   6.0374787e-05   1.5624696e-04  -1.9452545e-04  -3.6292906e-05  -2.0060113e-03  -1.1212410e-04  -1.4832677e-04
   7.8465215e-05   8.6689266e-05   1.6103114e-04   1.7986179e-04  -2.5386063e-04   4.9887231e-04   8.4689316e-05   2.2849914e-04  -1.2192735e-04   2.0449539e-04  -1.6919387e-04  -1.2875271e-04  -5.7026051e-04  -5.5821240e-04  -3.5511798e-04  -9.3900954e-04  -6.1305804e-04  -1.3156300e-03   5.0280470e-04   7.1518606e-04   1.8662619e-04   3.2752965e-04  -2.4199352e-04   2.1281974e-04  -1.2161311e-03  -1.1589840e-03  -7.6806103e-04  -5.5328553e-04   6.0860883e-04   2.6241661e-04  -5.0595409e-04  -1.1475288e-03   1.2161705e-03   8.8470588e-05  -6.4341450e-04  -1.8746019e-04  -1.3784508e-04   2.4891709e-04  -1.3066216e-05   1.7873329e-04   1.5147995e-04  -1.0292917e-04  -1.6291835e-03   1.3054877e-04   1.2212492e-03  -2.5505872e-04  -7.9783451e-05   3.2616151e-03   1.6888767e-04  -1.6842558e-04
   1.4466424e-04   1.6227739e-04   2.6576730e-04   2.3669597e-04   4.3681270e-05   5.5232464e-04   1.4980750e-04  -4.9149187e-04   1.7872886e-03   1.9485105e-04  -1.0002968e-04   2.8542314e-05  -5.7152077e-04  -5.6122721e-04  -3.6938189e-04  -8.3986006e-04  -6.7094952e-04  -1.3918553e-03  -2.1836454e-04   1.4386406e-04   1.8151454e-04   5.3198362e-04   4.1019628e-04  -2.0716456e-03  -3.2133743e-04  -1.1961217e-03  -7.3587644e-04  -6.8745029e-04   3.5928737e-04   2.5750577e-04  -9.0806920e-04   6.0768285e-05  -8.1945752e-04  -1.5940855e-04  -5.7013129e-04   6.0310861e-04  -8.5929154e-05   2.3980680e-04  -3.0413168e-04  -2.4363965e-04   4.7144707e-04  -1.0596358e-04  -7.9404970e-04   1.7584492e-04   4.0797653e-04  -1.0899053e-04  -7.7080564e-05   4.3994104e-03  -7.7114033e-05  -1.6848900e-04
   1.9430181e-04   1.7415790e-04   2.9543546e-04   1.9564872e-04  -8.8376044e-05   3.6377923e-04   1.1596891e-05   6.9462520e-04   1.0255644e-04   2.1151945e-04  -6.7334928e-05   9.8190183e-05  -5.2362093e-04  -5.2878528e-04  -4.2073359e-04  -7.5418578e-04  -6.2066695e-04  -1.2383326e-03  -1.8590281e-03   3.4010562e-04   1.8422284e-04   9.8993638e-05  -2.1099873e-05  -3.5578781e-04  -1.5308229e-03  -1.2045772e-03  -7.3267729e-04  -3.7067253e-04   8.8103069e-04   2.7012645e-04  -1.0085267e-03  -4.4195133e-04  -4.5844521e-05  -1.4312576e-04  -5.5267685e-04  -5.6855136e-04   3.0349343e-04   2.9548825e-04  -1.3119962e-04   6.5372253e-05  -1.1854017e-04  -8.6335967e-05   3.2739872e-03   5.7158263e-06   5.3687557e-04  -3.4494532e-04   2.6446200e-05  -2.5189377e-03   1.1647103e-04  -1.0718762e-04
   9.1348535e-05   1.6224416e-04  -4.4685279e-05   1.8842598e-04  -1.7659380e-05   3.6614996e-04   2.2805984e-04   3.2089523e-04   4.9934309e-04   1.7541063e-04  -6.1521336e-05   1.0636902e-04  -5.7433604e-04  -4.9168622e-04  -4.3356774e-04  -6.9709367e-04  -5.8493583e-04  -1.1984593e-03  -8.9344008e-05   2.8131460e-04   2.0908444e-04   3.4757939e-04   3.5117008e-04  -9.3716907e-04  -1.1340157e-03  -1.1676857e-03  -6.9430785e-04  -3.6658387e-04   1.2267377e-03   2.3287858e-04  -5.0028619e-05   1.4234637e-04   5.6038139e-04  -3.5819357e-05  -5.4859236e-04  -4.9164507e-04  -3.2991175e-05   1.7040619e-04   8.8002686e-05   1.8061161e-04   7.9371699e-04   6.4553433e-06  -3.8999903e-03   1.0886613e-04  -7.6013786e-04  -1.2264232e-04  -9.3754614e-05  -1.9403853e-02   7.7920769e-05  -3.7613133e-04
  -2.2881943e-06   1.5400743e-04   1.1703042e-04   2.1484989e-04   1.3142214e-04   3.1303373e-04   4.3054795e-04  -3.1144367e-04   3.9141020e-04   1.4945837e-04  -4.9215756e-05   1.9432911e-04  -6.0059380e-04  -5.0416100e-04  -3.9252007e-04  -8.3419046e-04  -6.8367005e-04  -1.1265950e-03   6.8079733e-04   4.2783516e-04   1.7573559e-04   4.8054178e-04   2.5137296e-04  -4.8428393e-04  -1.8205073e-03  -1.1917028e-03  -6.6273636e-04  -3.9132193e-04   1.1170800e-03   2.1792807e-04   7.8556995e-04  -2.9172388e-05  -3.5266316e-04  -9.0053487e-05  -4.8763384e-04   3.1353717e-04   1.7331894e-04   2.4172572e-04   1.6891125e-04   4.7533445e-05   1.7826991e-03  -4.6271827e-05  -9.7955316e-03   9.7269636e-05   1.4166752e-04  -1.6984050e-04  -6.1010251e-05  -3.4045307e-03  -1.8795789e-04  -5.1304913e-05
   2.5545685e-05   2.2831169e-04   3.0752365e-04   1.9804192e-04   2.2804234e-04   4.5081630e-04   2.0902180e-04   3.5633225e-04   1.1740909e-03   1.2199891e-04  -3.4916942e-05   2.3453309e-04  -5.5182137e-04  -5.2340201e-04  -4.4943218e-04  -7.9740485e-04  -6.3301926e-04  -1.1289236e-03  -8.3572645e-04   6.4058972e-06   1.9046916e-04   2.2061134e-04  -8.1641501e-04  -1.8834762e-03  -1.6912491e-03  -1.2538752e-03  -6.5508293e-04  -3.2369827e-04  -1.5075094e-04   2.2863872e-04  -8.7138923e-04   4.6082117e-05  -1.3053019e-03  -1.8460606e-04  -5.6635420e-04   3.7304009e-04  -7.3409581e-04   2.4118395e-04   3.5399225e-04   3.0385258e-04   3.8754180e-04  -9.5006370e-05   6.2696828e-04   8.4633357e-05   9.6207834e-04   3.5950387e-05   1.8238851e-06  -8.7691844e-03  -7.1267372e-05  -2.2086463e-04
   2.4059533e-04   1.4549392e-04   2.3382623e-04   1.7371438e-04   3.6802550e-05   2.1078969e-04   1.4529668e-04  -3.2267763e-04   2.1760324e-04   1.2942252e-04  -1.0510609e-04   5.3437343e-05  -4.9668923e-04  -5.0443556e-04  -4.0184491e-04  -7.0111541e-04  -6.2778889e-04  -1.1086254e-03  -2.0863111e-03  -8.7055487e-06   1.8028361e-04   3.6305064e-04  -2.7347173e-04   1.3245720e-03  -1.4256110e-03  -1.2131089e-03  -6.8377733e-04  -4.7215540e-04   9.7148627e-04   2.2357333e-04  -1.6110195e-03  -2.7276593e-04   3.8401579e-04  -3.1468389e-04  -5.3665024e-04   3.2044240e-04   3.1339610e-04   1.8855065e-04   1.9287143e-05   8.9617743e-06  -8.3084189e-04  -9.5390584e-05  -4.1187187e-03   9.1591210e-05   5.1647495e-04   4.5858321e-04  -6.0653952e-06   1.4737401e-02  -7.5127915e-05  -1.5698539e-04
   6.3703708e-05   1.1727574e-04   2.0713474e-04   2.2260385e-04   3.7195618e-04   2.0297986e-04   3.4957283e-04  -1.2167072e-04   1.8763220e-03   1.2631314e-04  -1.0771622e-04  -1.2226224e-05  -5.7525729e-04  -5.0732074e-04  -4.6336980e-04  -7.8017142e-04  -6.8412133e-04  -1.1436424e-03   1.3184577e-03   1.1359352e-05   1.5585108e-04   3.5183024e-04   3.7903889e-04  -1.1726673e-03  -1.3520931e-03  -1.2315399e-03  -6.1387470e-04  -3.3834809e-04   1.2375547e-03   2.5356543e-04   7.3093513e-05   1.5996686e-04  -8.8175474e-04   1.0887787e-04  -5.7591579e-04  -5.0917274e-04   4.7427478e-05   1.9931907e-04   2.8816471e-04  -2.8112398e-05  -3.3163736e-04  -7.8104094e-05  -5.3290711e-03   7.8872545e-05  -1.2895355e-03  -1.4395303e-04  -7.6418946e-05  -1.1139801e-02   4.9942413e-05  -1.6669574e-04
   7.8104822e-05   1.8685609e-04   1.8627182e-04   1.9253099e-04   2.0075485e-04   3.2456001e-04   2.2259640e-04   1.1839506e-03   1.1925689e-03   1.4957055e-04  -3.8366361e-05   4.4821016e-05  -5.1124254e-04  -4.9322029e-04  -3.9734985e-04  -7.5381441e-04  -6.0616271e-04  -1.1717231e-03  -6.8884011e-04   1.2000052e-04   1.5456148e-04   3.8111280e-04   3.4145538e-05   1.0766604e-03  -4.0513300e-04  -1.2104609e-03  -6.4542337e-04  -3.1922487e-04   8.5838279e-04   2.3790407e-04  -1.6841689e-03  -1.6930938e-04   1.1253809e-04   1.5288184e-05  -5.9476611e-04   1.6627982e-04  -1.0823197e-04   2.0286623e-04  -1.0174526e-04   3.7675604e-04  -8.0970541e-04  -1.3311965e-04  -1.0831977e-03   4.5509798e-05  -2.4349627e-04  -2.0209161e-04   2.4294191e-05   5.9706317e-03   3.5657219e-04  -6.0137889e-05
   1.4655438e-04   1.4989375e-04   1.2020577e-04   2.5297079e-04   1.8718731e-04   3.1020268e-04   4.0467567e-04   2.7099627e-04   1.7807628e-03   1.5449517e-04  -6.6752851e-05  -1.4096012e-04  -5.2733463e-04  -4.6553370e-04  -3.5872156e-04  -7.5459795e-04  -6.1493699e-04  -1.1321533e-03  -4.3785261e-04   1.1880248e-05   1.6926910e-04   4.4514384e-04  -5.3902599e-04   1.4502907e-03  -4.6983224e-04  -1.1533356e-03  -6.2343635e-04  -2.8967106e-04   8.3805720e-04   2.2945250e-04  -8.9461188e-04  -1.1686763e-04   1.1775881e-03  -5.4398522e-05  -4.9209630e-04   3.1222071e-04   3.0607660e-04   1.8954829e-04   3.7555626e-04   4.4595721e-04  -2.3382838e-04  -1.3525451e-04  -6.0502999e-03   1.6705466e-04   8.2673895e-04   1.8324974e-05  -4.2163733e-06  -1.1777597e-03   2.5752268e-04  -2.6393493e-04
   1.5375493e-04   1.5493872e-04   3.9466438e-04   2.3574046e-04  -3.5823992e-04   6.0790044e-04   4.3201502e-04   8.7374682e-04   5.6799332e-04   1.6350075e-04  -5.8952857e-05   1.8606472e-04  -4.6394774e-04  -4.9691083e-04  -2.5565192e-04  -7.9509499e-04  -6.8660558e-04  -1.0311332e-03  -6.1482925e-04   6.6437831e-05   1.9418042e-04   4.3135320e-04  -3.2519180e-04  -1.0310085e-03  -1.2500847e-03  -1.0237111e-03  -5.9678184e-04  -5.9633549e-05  -7.1267576e-05   2.3175009e-04  -1.1434578e-03  -8.3939941e-04   5.5485452e-04   1.0605309e-04  -4.9326260e-04  -7.7306305e-04   4.0034525e-04   2.3159437e-04   3.1976553e-04   6.4811939e-06  -1.7773540e-04  -2.3079076e-04  -3.4853502e-03   1.1862804e-04  -1.2945130e-03  -2.8447606e-04   4.9839960e-05   1.0890009e-02  -1.6635683e-04   3.9562805e-05
  -2.6894268e-06   1.8116631e-04   1.3325113e-05   1.8287794e-04   1.9984265e-04   4.1889292e-04   2.2340272e-04   1.6425752e-04  -2.2246248e-04   1.4495787e-04  -5.5107514e-05   1.6993268e-04  -4.1045196e-04  -4.5807232e-04  -2.7540611e-04  -8.1983668e-04  -6.6690921e-04  -1.0628243e-03   5.1517895e-04   3.8264578e-04   1.8817975e-04   2.8737023e-04   3.0017656e-04  -2.9581944e-03  -3.5851263e-04  -1.0920333e-03  -5.7995174e-04  -3.6361092e-04   6.8626652e-04   2.0752779e-04  -1.8571707e-03  -6.1116653e-04   8.1019325e-04  -1.9186940e-04  -4.5542230e-04   4.0514766e-05  -4.1002527e-06   2.3401562e-04   8.2766870e-05  -1.9501671e-04   3.6197103e-04   5.5812325e-05  -5.6176907e-03   1.5206107e-04   1.0216013e-03  -2.7245749e-04  -8.2970262e-05  -9.2412448e-03   2.9563977e-04  -2.4360849e-04
   7.2589653e-05   1.6348051e-04   1.9153292e-04   2.2266762e-04   3.7981727e-04   2.9036458e-04   6.1619357e-04  -4.2767145e-04  -7.0698920e-04   1.7518591e-04  -1.2557322e-04   6.7948902e-05  -5.4112647e-04  -4.8719556e-04  -3.1669674e-04  -7.4248470e-04  -6.3206098e-04  -1.0372633e-03   1.4608640e-04   3.1865734e-04   1.8753341e-04   4.7153936e-04  -2.1108956e-04  -2.4618235e-04  -1.1946372e-03  -1.1065077e-03  -5.8170676e-04  -4.3279259e-04   4.6976641e-04   2.0391494e-04  -5.6246550e-05   1.2300811e-04   8.5909222e-04  -3.0419993e-04  -3.8127261e-04   1.3299521e-04   2.5917130e-04   1.5414116e-04  -1.3695881e-06   3.4170831e-04   7.0300343e-04  -1.6907595e-04  -1.9179134e-03   1.8010712e-04  -7.6642795e-04  -3.4192599e-05   7.4578770e-06   1.4036932e-03  -2.2589735e-04  -2.1942893e-04
   1.4687842e-05   1.8824126e-04   3.2752778e-04   1.8727461e-04   2.4983461e-04   5.7840650e-04  -9.2597620e-06   2.4887186e-04   1.1269198e-03   1.6736993e-04  -2.8361876e-05   2.2349604e-04  -5.6278048e-04  -4.6527167e-04  -2.0904702e-04  -6.7758339e-04  -6.4059842e-04  -1.0172371e-03   8.4020238e-04  -1.8303027e-06   1.7417506e-04   2.2561922e-04  -2.5318129e-04  -9.5751917e-04  -8.9101458e-04  -1.0257147e-03  -5.4231705e-04  -2.6687805e-04   4.6359026e-04   1.9626187e-04  -1.0281864e-03  -3.3837298e-04  -8.4139181e-05  -1.6324273e-04  -3.3983143e-04   4.7348958e-04   2.4570047e-04   1.8135471e-04  -1.0274818e-04   2.6027518e-04  -7.9860631e-04   1.0789436e-05   1.2028677e-02   1.5296394e-04  -3.0322705e-04  -3.8632049e-04  -6.6072162e-06  -4.4012289e-03   2.9400369e-04  -9.9122160e-05
   9.8927871e-05   1.7963788e-04   3.3683787e-04   2.0063964e-04   8.9876259e-05   5.7945843e-04   2.8309404e-04   1.4993988e-04   5.8852800e-04   2.1497764e-04   3.2128642e-05   4.6377361e-05  -5.3783064e-04  -4.5697685e-04  -3.7948642e-04  -7.0202199e-04  -6.8335276e-04  -9.4127789e-04  -1.3735426e-04  -1.8579412e-04   1.9500851e-04   2.8846759e-04   3.3042295e-04  -1.7211163e-04  -8.0369954e-04  -9.1333647e-04  -4.9685250e-04  -3.8798965e-04  -2.6579137e-04   1.8397819e-04   8.5536129e-05   4.6367131e-04   1.9252335e-03  -1.5235928e-04  -3.5823119e-04   2.8260518e-04  -5.4325734e-05   1.8261893e-04   9.0826608e-05   9.4875235e-05   7.3434913e-04  -1.2077786e-04   2.0440239e-03   1.2005788e-04   6.3737622e-04  -5.9098459e-04   7.9502694e-05  -8.9271609e-03   1.4744373e-04  -1.0404118e-04
   1.2429507e-04   2.2734908e-04   3.5432761e-04   2.1917315e-04   2.5289188e-04   5.5370334e-04   2.2586885e-04   2.3400724e-04  -5.7861826e-04   1.9258582e-04   3.6565263e-05   1.4004027e-04  -5.4601219e-04  -4.5034161e-04  -2.7521927e-04  -6.0222793e-04  -5.5062043e-04  -9.4746525e-04   2.4247263e-04  -5.2186381e-04   1.4524150e-04   4.0485535e-04  -8.6057895e-05   7.3280802e-04  -6.2022434e-04  -9.8923733e-04  -4.9625750e-04  -4.3815348e-04   9.4470539e-04   1.9226648e-04   3.9670017e-04  -4.3240745e-04   4.6410452e-05  -6.5447377e-05  -3.0419132e-04  -7.5269236e-06   4.5774764e-04   2.1920682e-04  -5.8699337e-05   7.4000633e-04  -1.3513574e-03  -5.5935132e-05  -2.2949451e-03   1.1483710e-04  -3.8278816e-04  -2.6217892e-04  -1.3186999e-06  -4.1661106e-04   5.5845081e-05  -1.0703823e-04
   1.8016259e-04   1.9710182e-04   3.9411883e-04   1.6693283e-04   2.9027424e-04   2.3212671e-04  -1.8663661e-04  -3.1587560e-04  -2.0456366e-04   1.7700410e-04   3.4867885e-08   1.2021313e-04  -5.1976962e-04  -4.3887252e-04  -3.5581194e-04  -7.1107672e-04  -6.4271205e-04  -8.2837668e-04   2.9623052e-04   1.3456769e-04   1.3245104e-04   1.6331642e-04  -2.0727333e-04   1.7831643e-03  -1.3077329e-03  -1.1919040e-03  -5.5815658e-04  -1.7310159e-04  -8.1916852e-04   1.8732171e-04  -1.2305690e-04  -6.2970794e-04  -4.0308898e-04  -2.9226864e-04  -4.1410470e-04   2.8625564e-04   3.7650485e-04   2.1412526e-04   2.1949162e-04  -1.3026760e-04  -6.3803140e-04  -1.6802170e-04   6.0202368e-03   1.0674621e-04   7.0040755e-05  -1.9580858e-04   3.4250686e-06   1.0744409e-02  -8.9161949e-06  -2.1076525e-04
   9.0365975e-05   2.0544644e-04  -9.7901757e-05   1.7852701e-04   3.3276383e-04   4.4017722e-04  -6.1719467e-05   5.2755605e-04  -2.9748160e-05   1.4900166e-04  -2.1613501e-05   1.7971553e-05  -5.2505493e-04  -3.9140772e-04  -3.6579356e-04  -5.7577097e-04  -6.8251119e-04  -8.6764112e-04   7.0387922e-04  -2.8303338e-04   1.3128127e-04   5.6673551e-04  -4.0028384e-04   1.9412376e-03  -9.7914180e-04  -1.1199960e-03  -4.8634849e-04  -1.2917953e-04   9.4186148e-04   1.9432027e-04  -4.1602610e-04  -1.4724620e-04  -7.5066782e-04   1.0159702e-04  -3.6937292e-04   2.8453398e-04   2.1560056e-04   1.4204449e-04   3.5362836e-04  -2.3506727e-04   6.3908304e-04  -2.5909304e-04   2.4280590e-03   2.1489039e-07   2.6916128e-04  -7.2235166e-04   2.8147206e-05   5.0873924e-03   1.7653503e-04  -1.7058724e-04
   9.7809905e-05   1.4786652e-04   1.2985937e-04   1.7210424e-04   4.7340058e-04   5.4302177e-04   3.6924137e-04  -1.5913165e-04  -2.1618835e-05   2.1608430e-04   1.4349369e-04   2.7632064e-04  -4.2944492e-04  -3.6158616e-04  -2.9623232e-04  -5.4584432e-04  -5.7215767e-04  -7.9323747e-04   2.4859197e-04  -2.3605449e-04   1.2007630e-04   5.0516595e-04  -1.0213300e-03   1.6779536e-03  -6.0565135e-04  -1.0382972e-03  -5.0061528e-04  -3.7058481e-04   8.4468210e-04   1.5114879e-04   4.3074990e-04  -6.8139634e-04  -1.3650054e-03   1.8960892e-03  -2.7605318e-04   7.2756367e-05   1.7302678e-04   2.3529603e-04   1.7727642e-04   3.5579744e-04   8.7130204e-04  -8.0593585e-05  -2.3812296e-04   1.7943009e-04   3.4438272e-04  -5.9832347e-04   4.3556447e-05   1.4924875e-02   1.0483979e-05  -3.7449918e-04
   8.7633081e-05   1.6290584e-04   3.0876993e-04   1.7013137e-04   2.6407428e-04   5.7209574e-04  -2.2582593e-04   8.1818266e-04   4.2420882e-04   1.5026478e-04  -1.4292542e-05   7.6246783e-05  -4.7262758e-04  -3.7231756e-04  -2.1294548e-04  -6.2616367e-04  -4.9523078e-04  -8.3409768e-04   6.3435273e-04  -7.0166122e-04   1.4756589e-04   4.8596231e-04   2.7844126e-04  -1.1450154e-03   7.2665740e-04  -9.6858590e-04  -4.6639156e-04  -1.9815171e-04   3.8222392e-04   1.4508728e-04  -1.7550301e-03  -1.0999687e-03   1.9024836e-04   8.3001913e-05  -3.1414602e-04   2.3491764e-04   4.0986983e-04   1.7357060e-04   3.0999028e-04  -1.5307823e-04   2.4448783e-04  -2.8939881e-05  -8.8293049e-03  -4.9469936e-06   5.9642259e-04  -1.1004142e-04   7.1974726e-05   1.3946146e-03   7.7383927e-05  -3.3051812e-04
   7.6807235e-05   1.7728691e-04   1.1493111e-04   1.8574376e-04   3.5501458e-04   4.4070810e-04   1.7930291e-04  -6.0559567e-05  -1.4817117e-04   1.7496895e-04   5.1483446e-05  -1.4804603e-04  -5.1539013e-04  -3.0702833e-04  -2.2743136e-04  -6.7102467e-04  -5.5480527e-04  -7.2720618e-04   3.4189961e-04  -3.8109405e-04   1.0811508e-04   4.4309677e-04   2.0159766e-04  -1.6828497e-03  -5.3543656e-04  -1.0116659e-03  -4.2539602e-04  -1.9227006e-04   5.9626112e-04   1.3659486e-04   2.7801070e-04  -1.3310085e-04  -8.4571034e-04  -5.2558407e-05  -2.5073392e-04   1.0369187e-03   1.4208887e-04   2.0571379e-04   4.5444624e-05   5.4359505e-05   4.4025321e-04  -2.9397855e-04  -6.8004457e-03   2.2365307e-04   1.5678651e-04   4.1181072e-05   1.2374898e-04  -4.8887110e-03  -1.7329509e-04   1.5586292e-06
   1.6871518e-04   2.0574173e-04   4.2745515e-04   1.7747363e-04   2.9374278e-04   4.0013934e-04   6.4585780e-05   3.1641129e-04   6.4013893e-04   1.5442724e-04   2.7704011e-05   2.4145187e-04  -5.0689414e-04  -3.4851336e-04  -2.2031231e-04  -5.6493701e-04  -6.4201962e-04  -8.1045693e-04  -4.9258326e-04  -2.0090984e-04   1.1127630e-04   3.4793082e-04   3.1156480e-05  -2.9756443e-04  -9.8382833e-04  -9.2066277e-04  -4.2551864e-04  -1.7002493e-04  -5.2239530e-04   1.5287254e-04  -2.2967288e-04   3.9175840e-04  -4.8765010e-04   8.0429571e-05  -3.7833807e-04  -2.4180075e-04   1.7912996e-04   1.7126337e-04  -1.2196339e-04   3.8066634e-04   3.1139306e-04  -2.5442863e-04  -6.3360869e-03  -6.9607231e-05   4.1058267e-04  -5.9220874e-05   6.2500585e-06  -1.0238008e-03   3.2737837e-05  -2.1913451e-05
   2.5261508e-05   1.6575246e-04   4.0618947e-04   1.9183441e-04   2.2597516e-04   2.8235826e-04   3.1462329e-04   4.6166187e-04   9.9382794e-04   1.3759687e-04  -5.8555643e-06  -4.9158280e-05  -4.6235233e-04  -3.4538252e-04  -3.4497736e-04  -5.9216813e-04  -5.6461885e-04  -7.0059544e-04  -6.3006839e-05   1.5427738e-04   1.1700912e-04   2.5165649e-04  -5.7321042e-04   7.9062826e-04  -5.1830237e-04  -9.3290425e-04  -4.3751631e-04  -2.8759416e-04   1.8821773e-04   1.4458163e-04  -2.1261810e-03  -8.7922951e-04  -1.5846499e-03  -2.1153939e-05  -3.0221284e-04   4.9880902e-05  -2.0634220e-04   2.0700644e-04   2.8890764e-04  -2.0318863e-04   1.3305866e-03  -1.3297606e-04  -5.3037750e-03   4.5580749e-05   2.0652087e-03   1.2057032e-04  -1.2307883e-04  -1.4869346e-03  -1.0013310e-04  -7.0487673e-05
   1.4728990e-04   1.7137382e-04   1.0783504e-04   1.6723669e-04  -3.1970845e-05   4.2973712e-04   1.3021879e-04   4.9872405e-04  -7.1527739e-04   1.4608487e-04  -2.3964763e-05   1.2189373e-04  -4.3358881e-04  -3.6736141e-04  -2.4796286e-04  -4.2528976e-04  -5.7915645e-04  -7.4163487e-04   7.7079568e-04   7.7867799e-04   9.8560915e-05   3.0767402e-04  -3.9316411e-04  -1.1716175e-03  -5.4574857e-04  -9.7472058e-04  -4.4096803e-04  -6.2421341e-06   7.5131160e-04   1.5341598e-04  -2.0666026e-04  -1.2659101e-03  -7.6297489e-05   1.2391982e-04  -2.9684071e-04   5.6457578e-04  -1.8676475e-04   7.3171526e-05  -3.5589485e-04  -2.1388098e-04  -7.1559843e-05  -2.2625241e-04  -7.1609970e-03   1.1491077e-04   3.8423008e-04  -1.4134770e-04  -7.3160741e-06   6.3010063e-03  -2.1770431e-05  -1.0071288e-04
  -1.9701060e-05   1.3606671e-04   2.4071510e-04   2.2068532e-04   1.2159764e-04   4.7416525e-04   8.0953097e-05   2.3149316e-04   1.8622277e-04   1.0353574e-04  -7.7666751e-05   2.6123031e-05  -3.9634411e-04  -3.3835752e-04  -3.5727216e-04  -4.9889018e-04  -5.6608458e-04  -6.9586473e-04  -6.3908339e-04   1.2948438e-04   1.0063997e-04   1.0168499e-04   5.7712226e-04   1.0141667e-03  -6.5985270e-04  -9.3644252e-04  -4.4182572e-04  -1.4987600e-04   1.2615990e-03   1.9790696e-04  -2.7305908e-03   6.8988069e-04   1.1367117e-03   8.0327818e-06  -2.8775493e-04   8.0580398e-04  -3.0869397e-04   1.9283194e-04   2.0144056e-04   2.2641300e-04   6.0063420e-04  -1.6072684e-04   2.6086101e-03   1.3768001e-04   1.0650824e-03  -2.0949060e-06  -1.2752951e-04   1.6797500e-02  -3.0472507e-05  -1.8380389e-04
   5.7435671e-05   1.5546732e-04   2.3577042e-04   1.6545088e-04   3.0539252e-04   5.4054498e-04   1.2357724e-04   1.1857681e-04  -6.3199259e-04   6.6151551e-05  -6.9603600e-05   3.2835278e-06  -4.2419901e-04  -3.0859048e-04  -9.7102544e-05  -5.7707162e-04  -4.5307251e-04  -8.3030551e-04  -6.0717511e-04   1.6788604e-04   4.6280980e-05   5.3685234e-04   8.6806729e-05  -6.8218249e-04   4.6620691e-05  -8.7115593e-04  -4.4682331e-04  -1.7620405e-04   1.0940875e-03   1.8207614e-04  -1.2437649e-04   5.1605474e-04  -7.9172244e-04   2.2901541e-04  -2.9642065e-04  -2.3104165e-04   2.6786522e-04   1.6025103e-04   2.2968603e-04   1.7896364e-05  -1.9986647e-04  -6.8386522e-05  -9.5499388e-04   1.5150585e-04  -6.6931076e-05   6.2242478e-05  -9.1852253e-06  -2.7462055e-03   6.6156914e-05  -6.9900998e-05
   9.0766480e-05   1.3995990e-04   3.3852819e-04   1.7526875e-04   1.1242241e-04   3.4385576e-04   4.1705818e-04  -2.2754811e-04  -2.2405670e-04   1.5330309e-04  -6.3388667e-05  -6.3080588e-05  -3.6562703e-04  -3.1585409e-04  -4.1891926e-04  -6.9626013e-04  -4.7883118e-04  -9.2465454e-04   2.3271682e-04   3.9175400e-04   8.1519996e-05   4.1834055e-04  -1.5871985e-04   1.1022182e-03  -5.4781808e-04  -8.3236460e-04  -4.6603667e-04  -3.5528743e-04  -3.7941494e-04   1.8069314e-04   2.2516045e-04   2.0602500e-04  -1.5242297e-04   8.3465427e-05  -3.0381803e-04   3.0413517e-04  -4.7403711e-04   2.2823854e-04   2.2825095e-04   1.7374867e-04   1.7405653e-04   3.7963400e-05  -3.3934247e-03   5.9831553e-05   1.1936449e-03  -2.5063750e-04  -1.0054751e-04   4.1695768e-03   3.7608686e-05   8.4744774e-05
   2.7481183e-05   1.9077664e-04   1.9554042e-04   1.9582279e-04   9.3308510e-05   5.5306987e-04   3.3861346e-04   5.7272834e-04  -1.4836796e-03   7.6826465e-05  -2.3042441e-05   5.1940831e-05  -3.8413637e-04  -3.2285246e-04  -4.2284996e-04  -6.4186851e-04  -5.0797185e-04  -8.4851281e-04  -9.2995731e-04   8.4664469e-05   8.5007065e-05   2.3921001e-04  -8.6571829e-04   1.6701930e-03  -4.7241341e-04  -7.9521874e-04  -4.4805460e-04  -6.0319711e-05   6.2860706e-04   2.3338858e-04  -1.4127332e-03   1.4535304e-04  -4.6507482e-04  -8.7711836e-05  -3.7663712e-04  -2.2237592e-04   7.3257506e-05   2.3416110e-04   2.3880028e-04   6.8090252e-05   3.8597695e-04   2.6945061e-05  -4.6168622e-03   1.8366310e-04   1.5807882e-03  -8.2863829e-05  -1.0447211e-04   2.0309689e-02  -1.0489062e-04  -8.8757843e-05
   4.3413853e-05   2.2550355e-04   2.8730227e-04   2.2063927e-04   1.5880975e-04   3.7416152e-04   2.0141335e-04  -2.3788755e-04  -8.9883828e-04   6.7118322e-05  -9.5942669e-05   3.2207870e-05  -3.8076739e-04  -3.2654847e-04  -3.3108040e-04  -6.9475989e-04  -6.1204645e-04  -9.8415581e-04   6.9150107e-04  -1.1613331e-04   6.4407657e-05   2.1491147e-04   1.9018316e-04   8.0772792e-04  -3.6506495e-04  -7.6033443e-04  -4.7170933e-04  -4.0173388e-04   5.7726877e-04   2.4588624e-04  -1.1363387e-03  -2.8160287e-04  -4.3557255e-04   1.7114119e-04  -4.2856490e-04   2.9760148e-04  -2.8065010e-04   1.3613302e-04   1.1457795e-04   5.7269854e-04  -7.6108699e-04   1.3958324e-05  -1.6211532e-03   2.1124505e-04  -4.6333348e-04  -4.5471717e-04  -8.1265141e-05   2.0320280e-02  -2.2603245e-04   1.0439230e-04
   1.7795402e-04   1.8237256e-04   1.4982554e-04   1.8347871e-04  -2.9189867e-05   7.0455240e-04   4.7757843e-04   1.1777735e-04   5.8318890e-04   3.2084190e-05  -1.6644934e-05  -9.7614342e-05  -3.2678962e-04  -3.2912902e-04  -2.8516079e-04  -4.9653609e-04  -4.9739558e-04  -9.1341545e-04  -1.5908148e-03   3.0985806e-04   4.6194717e-05   2.6196489e-04   2.8767835e-04   1.3986777e-03  -6.5722992e-04  -6.8323623e-04  -4.7363763e-04  -1.8739144e-04   6.5128057e-04   2.4167860e-04   7.9552480e-04  -1.4857031e-04   3.6564183e-05   1.4089396e-04  -4.0862928e-04   6.2725192e-04  -5.4563428e-05   3.0905360e-04   6.0974569e-05  -1.7498467e-04   3.0485023e-04   4.4747103e-05  -5.2029868e-03   8.7021166e-05  -2.7368756e-04   1.4609013e-05  -1.6003475e-04   3.0892901e-03  -1.0078979e-06  -1.5747681e-04
   1.3078710e-04   2.0290942e-04   1.2731521e-05   2.2487382e-04   1.1332599e-04   5.8656937e-04   2.9276835e-04   1.9146470e-04   1.8039008e-04   1.1220091e-04  -9.3658891e-06   1.1139369e-04  -3.1963247e-04  -3.5876618e-04  -4.1647008e-04  -7.0708571e-04  -5.6156737e-04  -8.4352464e-04   1.4391058e-04   5.2557228e-04   8.2666353e-05   2.8797242e-04  -5.7972479e-04   1.7400524e-03  -1.2240026e-03  -6.8838306e-04  -4.7123054e-04  -3.3276755e-04   4.4964667e-04   2.5603635e-04  -2.6713769e-04   2.9804363e-04   6.8464311e-04   1.0381800e-04  -3.8310871e-04   2.3886212e-04  -3.6939114e-06   2.1882223e-04   9.9786812e-05   3.5044516e-04  -3.6852140e-04  -2.7007756e-05  -1.2160717e-03  -2.0066662e-05  -7.8335812e-04  -5.9514365e-05  -1.2317701e-04   2.0421026e-03   2.1154735e-04   6.1563784e-05
   1.4024290e-04   1.8345151e-04  -9.9084566e-05   1.7858669e-04  -1.2410111e-04   2.7541904e-04   8.8631044e-05   2.3649538e-04  -3.1755547e-04   4.4508015e-05  -5.0947263e-05  -6.2470906e-05  -2.6902632e-04  -3.3022999e-04  -2.3530402e-04  -5.9626036e-04  -5.4543529e-04  -9.5654593e-04  -2.3629925e-04   8.2867009e-05   5.4897493e-05   5.4901943e-04   7.9185446e-04   9.9129870e-04  -9.1202190e-04  -6.6367036e-04  -5.1681173e-04  -2.0017191e-04   7.2989886e-04   2.3827680e-04  -1.5212729e-04  -4.9307046e-04  -1.4013873e-04  -1.1452031e-04  -4.3712070e-04  -1.1271352e-04   3.3288251e-04   2.2419295e-04   2.9802765e-04   2.7836699e-04   6.3809617e-05  -1.3268749e-04  -1.7433128e-03   4.4810833e-05   1.2162890e-03  -5.5849919e-04  -1.4087696e-04  -9.4300285e-03  -2.6283087e-04  -2.5456669e-05
   7.6204036e-05   1.3196451e-04   1.3038373e-04   1.8342705e-04   1.4382989e-04   5.0502783e-04   2.9349350e-04   2.6153823e-05  -7.8225561e-04   7.0931281e-05  -1.8082904e-06  -1.3836732e-05  -3.5497351e-04  -3.3679506e-04  -2.9051304e-04  -6.3193846e-04  -4.2328241e-04  -1.0530376e-03  -3.3493491e-04   2.4713180e-04   7.9784571e-05   1.4845081e-04  -1.0776831e-03   1.1787278e-04  -6.8862538e-04  -6.4588076e-04  -5.0094357e-04  -2.8434835e-04   2.3040829e-04   2.5275190e-04  -1.4603577e-03   3.9104780e-05   1.1656843e-03  -1.7937718e-04  -4.4101384e-04  -1.4767530e-04   2.3292458e-04   2.0389404e-04   1.4915971e-04   2.5825104e-04   5.2809139e-04   1.4140522e-04  -3.0649907e-03   8.1882798e-05  -7.0898759e-04   7.1298218e-06  -1.1167046e-04  -1.3505260e-02   3.0551307e-06  -9.9771780e-05
   2.3742020e-04   1.9301655e-04   2.7074741e-04   2.1973804e-04  -1.8443154e-04   5.7114154e-04   2.1094683e-04   5.0361959e-05   5.2261785e-05   8.6413449e-05  -7.9279314e-05   9.1359252e-05  -2.9281905e-04  -3.2464904e-04  -3.4146395e-04  -6.4715807e-04  -4.4623218e-04  -9.5002493e-04  -8.3593499e-05   2.5957858e-04   7.7234516e-05   3.5192035e-04   4.0695453e-05   1.0549217e-03   6.0781423e-04  -5.7613268e-04  -5.0672359e-04  -1.8388306e-04  -1.7540218e-05   2.3962696e-04  -5.5721716e-04   1.2836828e-04   6.7000079e-04   1.2213609e-04  -4.2065352e-04   8.2884252e-04   4.5283668e-05   2.4696221e-04  -4.1587391e-05  -1.1377598e-04   1.1274272e-04  -1.6209960e-05  -1.3097335e-03   8.8789660e-05   8.4619633e-06   1.5084748e-04  -4.8982813e-05  -1.1010133e-02  -1.3675337e-04  -1.3094062e-04
   9.9132187e-05   2.2610136e-04   2.7876871e-04   1.9417761e-04  -3.4608140e-05   3.7632568e-04  -1.9542848e-04   8.4119107e-05   5.8082229e-04   8.5034240e-05   3.6644735e-05   1.8368223e-04  -2.7544363e-04  -3.1484320e-04  -3.7011009e-04  -6.6829158e-04  -6.4530625e-04  -1.0173871e-03  -1.1043522e-03   4.0019606e-04   9.4881987e-05   3.1028970e-04  -3.6245814e-04   6.2112400e-04  -7.2487100e-04  -6.2643993e-04  -4.5959352e-04  -2.6122469e-04  -6.9316063e-04   2.0737773e-04  -3.5154705e-03  -3.4709436e-05   7.2373485e-04   5.0845421e-05  -3.4334554e-04   4.5149366e-04   2.5755342e-04   2.4538726e-04  -6.9989896e-05  -2.0744206e-05   1.4057099e-04   6.8300564e-05  -6.8896627e-03   5.7646601e-05  -7.7469123e-04  -8.8082976e-05  -1.2467042e-04  -3.9754300e-03   2.6812235e-05  -7.0030015e-05
   1.0599862e-04   2.2314546e-04   1.4900528e-04   1.9658323e-04  -7.6923054e-05   4.3961793e-04   5.0621905e-04   5.0161296e-04  -4.5720721e-04   4.7897600e-05   4.6973131e-05  -1.0290124e-04  -2.9951357e-04  -3.1073860e-04  -2.9469715e-04  -7.2580262e-04  -4.8824318e-04  -8.9270802e-04  -4.6803398e-04  -3.1402108e-04   1.0816836e-04   1.7008914e-04   5.2171788e-04   1.3957716e-03  -7.5482758e-04  -6.8660005e-04  -4.6447825e-04  -4.4878465e-04  -1.4550754e-04   2.1688822e-04   8.1797986e-04  -3.2744565e-04  -1.8949273e-04   3.1790370e-04  -3.9142181e-04   6.3920469e-04  -7.6067779e-05   1.8560667e-04   1.6143787e-04  -1.2885440e-04  -5.3758739e-04  -4.6464971e-05   1.2757527e-03   7.2877738e-05   3.2322900e-05   6.0257182e-05  -5.0094717e-05  -3.9484063e-03  -1.6054015e-04  -8.2016020e-05
   2.6462687e-04   1.9510870e-04   4.2095443e-04   1.7848030e-04   2.3858753e-04   2.9896852e-04   2.3396066e-04   5.0137873e-04   7.8130391e-04   1.1224170e-04   8.3997576e-05  -5.5356722e-05  -3.1911980e-04  -3.3473133e-04  -3.4750762e-04  -6.5192214e-04  -5.1600678e-04  -8.9392345e-04  -2.3463597e-04   4.5600487e-04   1.3553978e-04   5.3227699e-04  -8.1354834e-04   1.1479263e-04  -3.4692205e-04  -6.5641885e-04  -4.4625491e-04  -2.7270231e-04   1.4024567e-03   2.4752860e-04  -2.5073389e-04   5.2294512e-05  -1.2355484e-04   6.9790411e-05  -3.9276516e-04   2.5378016e-04  -9.2122013e-05   1.7940665e-04   8.4570493e-05  -3.5813529e-04  -5.8747944e-04  -2.9556313e-05  -2.2740916e-03   1.4692180e-04   7.6259742e-04   5.6568999e-05  -1.0240266e-04   4.5400364e-03  -1.4913759e-04  -2.4125371e-05
   2.3499748e-04   1.5396443e-04   3.5337533e-04   1.7919682e-04   1.8843032e-04   5.6567631e-04   1.8188839e-04  -5.0563656e-04  -4.4183380e-05   1.4053658e-04   3.8429171e-05   5.1697432e-05  -4.3006096e-04  -3.5343098e-04  -2.5781876e-04  -5.5626099e-04  -5.2168890e-04  -8.9820870e-04   7.6755107e-04   1.9737353e-04   6.4777931e-05   3.0321610e-04   6.5034989e-04  -1.2105710e-03  -1.0693216e-03  -7.5158803e-04  -4.6735271e-04  -5.2375632e-04  -1.1845570e-04   2.3154703e-04   4.3703264e-04  -8.7319018e-04   1.6651393e-03   1.6943163e-04  -3.7342848e-04  -7.2432587e-05   3.1620127e-04   2.7089915e-04   2.7616959e-04   7.0515345e-04   3.2873027e-04   5.7091097e-07   1.0080186e-03   1.2106187e-04   1.3635582e-03  -1.8539502e-04  -9.2046939e-05  -1.4551654e-03   1.4316343e-04  -5.0107072e-05
   1.3814341e-04   1.7399454e-04   4.9707978e-05   2.5464076e-04   3.0394824e-04   3.9200945e-04   5.9708155e-04  -2.0722771e-04   3.9934705e-04   8.3614927e-05   1.6185908e-04   1.2819743e-04  -3.5445575e-04  -3.7027031e-04  -3.4651565e-04  -7.2129793e-04  -7.1456761e-04  -9.2539273e-04  -2.6749715e-04  -5.6573935e-04   1.2653694e-04   5.8180682e-04  -1.3827709e-04  -8.0262776e-04  -9.6944044e-04  -6.3859008e-04  -4.4702709e-04  -3.5233551e-04   1.1655964e-03   2.1781638e-04   1.2646992e-03  -2.3652961e-05   9.0730202e-04   2.3856954e-05  -5.1102269e-04   2.9023577e-04   2.7037159e-04   1.5754167e-04   1.2868305e-04   7.8131598e-05   7.9202517e-05  -2.2695509e-04  -1.1508167e-03   2.2322897e-04   5.9099268e-04   1.2511331e-05  -1.1685532e-04   4.5671398e-03  -1.9128258e-05  -2.3393099e-05
   6.7094639e-05   1.3962404e-04   8.5958520e-05   1.8797923e-04   5.8619981e-04   4.8427298e-04   4.0539340e-04   1.9702081e-04  -2.8026602e-04   1.2373146e-04   1.7031377e-04  -9.5942623e-06  -3.8017720e-04  -3.8799390e-04  -2.0258718e-04  -7.2783692e-04  -4.5559657e-04  -9.3831494e-04   2.3110094e-03  -1.9806695e-05   1.1101022e-04   2.0622734e-04   2.5050665e-04   3.0733459e-04  -9.9005597e-04  -6.9601979e-04  -4.7997027e-04  -1.1873602e-04  -8.3473024e-05   2.5517284e-04  -3.7777712e-04  -3.8973785e-06   4.2660839e-05   1.8743320e-05  -4.6052798e-04   3.5132508e-04   2.7900713e-04   2.0482831e-04   1.7146143e-04   1.1068153e-04  -6.8851508e-04  -6.5991982e-05  -4.2863712e-03   1.6240371e-04  -1.2088062e-03   2.9043903e-04  -7.3613781e-05   8.0266030e-04  -1.1667955e-05  -6.4747444e-05
   2.1574946e-04   1.7906097e-04   6.8651039e-05   2.0588111e-04   1.4460833e-04   3.4717328e-04   2.4469887e-04  -3.0160515e-04  -7.3020952e-04   1.5471454e-04   5.3956501e-05   4.6093704e-05  -2.7084045e-04  -3.2673424e-04  -4.4525092e-04  -7.1228691e-04  -5.0718762e-04  -9.8404102e-04  -9.8539014e-05   5.0948892e-04   9.4207280e-05   3.5456699e-04   1.7704781e-04  -9.5971581e-04   1.2117829e-04  -6.1300030e-04  -4.3519158e-04  -4.5667175e-04   5.3113460e-04   2.2330403e-04  -1.0837775e-03   7.8375050e-04  -1.0649597e-04   9.8666955e-05  -3.3508410e-04  -2.0997092e-04   1.5178460e-04   1.5492248e-04  -9.5054274e-06   3.4854168e-04  -1.4717862e-03   2.7655829e-05  -2.8281631e-03  -4.0572409e-06  -7.9730275e-04   3.8920419e-04  -1.1255300e-05  -1.7346611e-02   1.1980539e-04  -2.8673463e-05
   1.4223394e-04   2.2424027e-04   2.9677743e-04   2.0161012e-04   3.3488229e-04   4.6438369e-04   2.3314108e-04   2.9292467e-05  -7.3364872e-04   1.1080685e-04   3.9206705e-05  -5.7520858e-05  -2.6980028e-04  -3.4175979e-04  -2.5101702e-04  -5.9875340e-04  -4.0789027e-04  -9.2437962e-04   5.0810393e-04   3.3519510e-04   8.0751262e-05   3.9823260e-04  -4.2908516e-04   2.3473178e-04  -2.7473306e-04  -6.5839518e-04  -4.4079756e-04  -1.8491801e-04   7.7363843e-04   2.4857779e-04  -8.8016153e-04   4.5570967e-04  -1.7046175e-04  -4.1769155e-05  -4.1358839e-04   1.1073710e-04  -4.1423537e-04   1.7279126e-04   7.9557642e-05   1.5989580e-04  -3.2589372e-04  -3.2304884e-05  -5.4217880e-03   1.7359087e-04   9.3631417e-04  -1.3215007e-04  -8.5680804e-05  -4.5137852e-03   5.2176212e-05  -3.8995677e-05
   1.3084525e-04   2.2243547e-04   1.2882167e-04   2.0660819e-04  -2.5069385e-04   4.7659641e-04   1.3449244e-04  -3.0361880e-05  -2.1121108e-04   1.5162592e-04   2.0904405e-04  -5.3721138e-05  -3.3110683e-04  -3.2573647e-04  -1.6142160e-04  -7.1833050e-04  -4.9019745e-04  -9.3495334e-04  -6.8128528e-04   5.1969843e-04   1.4219954e-04   1.6459648e-04  -3.2987946e-04  -1.8842383e-04  -3.1090796e-05  -5.3404860e-04  -4.5871266e-04  -2.1341573e-04   1.5405179e-03   2.3450583e-04   1.2767055e-03  -1.1489681e-04  -2.9477908e-04   9.3801456e-05  -3.8829804e-04   1.3703679e-03   6.4965466e-04   1.9599311e-04   1.7219559e-04   6.3445084e-05   5.9369946e-04  -8.1244238e-05  -5.3282888e-03   4.4015091e-05  -1.0285895e-04  -5.9433551e-05  -6.7232380e-05  -1.0397616e-02   1.0282064e-04  -3.1958665e-05
   1.7527679e-04   1.9501292e-04   4.6351092e-04   1.7875209e-04   3.2722097e-04   5.5517309e-04   3.4273788e-04  -1.7727165e-04   6.9684512e-04   1.0991483e-04   1.8586454e-04   6.4256659e-05  -2.3999890e-04  -2.9595921e-04  -1.5157420e-04  -5.4664037e-04  -4.2503249e-04  -6.6616811e-04   3.7570158e-04   5.3516735e-05   7.6767319e-05   2.8253155e-04   4.0894016e-04   1.8391720e-04  -1.3397973e-03  -3.9496331e-04  -4.0380866e-04  -1.7806899e-04   3.2071298e-04   2.1125970e-04  -4.3315464e-04  -7.9741795e-04  -5.5619190e-04  -2.1151420e-04  -2.3990516e-04   1.4900988e-04  -9.6635325e-05   2.6365017e-04   1.0995158e-04   3.9910118e-04  -1.1385811e-04   1.0047114e-04  -5.4579970e-05   1.4518439e-04  -8.4975673e-06  -1.8172739e-04  -9.2739414e-05  -8.3602918e-03   3.2824461e-04  -1.3077071e-04
   1.5917978e-04   2.7456062e-04   7.7691875e-05   1.5512395e-04  -3.8618320e-05   5.5026071e-04   4.0618994e-04   3.0426870e-04   5.7306956e-04   1.1322648e-04   1.2758067e-04   1.5107945e-04  -2.7259398e-04  -3.2261881e-04  -1.2817216e-04  -5.8327470e-04  -4.3816329e-04  -7.6219131e-04   2.2848547e-04  -1.7332999e-04   6.4650747e-05   4.2070090e-04  -5.6036306e-04   7.8380539e-04  -3.5973400e-04  -5.2601798e-04  -3.7913476e-04  -7.3135379e-05   5.8836199e-04   1.8342945e-04  -2.2657700e-03   2.4742188e-04  -3.6791884e-04  -1.4441417e-04  -2.1833151e-04   4.9961777e-04   5.4474373e-04   1.9082073e-04   3.8391570e-04   2.3220353e-04   3.6905217e-04   2.5363785e-05  -4.3646353e-03   8.6247514e-05  -4.6545619e-04  -5.5181625e-04  -1.4119236e-04   1.0864909e-02   2.1866910e-04   5.5744094e-05
   1.1457117e-04   2.5383290e-04   2.6629973e-04   1.9648192e-04  -5.2848241e-06   6.4205390e-04   2.3324757e-04  -6.5944536e-04   4.7848982e-04   8.3644467e-05   9.0187183e-05   5.9505001e-05  -2.6888138e-04  -2.6363225e-04  -2.4899998e-04  -4.3108765e-04  -3.8212346e-04  -6.7335198e-04  -9.2985138e-04   8.3059778e-05   7.5430864e-05   3.3089444e-05   7.7063311e-04   2.5285818e-04  -6.5455720e-04  -5.4050708e-04  -3.4588051e-04  -6.7242378e-05  -1.7464487e-05   1.8885641e-04  -1.9295885e-04  -8.3906409e-05  -1.6359935e-04   1.6524477e-04  -2.4484564e-04   2.1646071e-04  -1.0012641e-04   1.4463434e-04  -2.7483967e-04  -3.2336061e-04  -1.0313901e-04  -2.1482949e-04  -4.9713249e-03   1.1370221e-04   4.0666427e-04  -2.9092858e-04  -4.9523835e-05   2.0444574e-02   1.5939555e-04  -1.8267994e-04
   1.9015248e-04   2.3262674e-04   3.9512708e-04   2.0384412e-04   2.6718801e-05   4.1475202e-04   2.0194001e-04   1.1904090e-04   1.0315018e-03   1.5162690e-04   6.1269704e-05   1.4521047e-05  -3.3364465e-04  -2.5399853e-04  -1.8109346e-04  -5.5705069e-04  -4.5293066e-04  -5.5331143e-04  -5.1828701e-04  -6.6508968e-05   1.1198549e-04   4.2239830e-04  -6.9692713e-04   4.0540320e-04  -1.0413933e-03  -4.8537803e-04  -3.2586593e-04  -1.3644333e-04   1.7349990e-04   1.5206455e-04  -6.1442889e-04  -6.8147638e-04   1.3572029e-03  -1.5892144e-04  -1.8793420e-04   1.6582679e-04   7.8846578e-04   1.4636075e-04  -2.2094454e-04   1.2229280e-04   5.4937234e-05  -1.7657495e-04   1.5101852e-02   2.0340781e-04   2.6937341e-04  -2.1386596e-04  -8.9259323e-05  -1.4853232e-02  -1.1517256e-04  -1.9843251e-04
   1.6582030e-04   2.4601014e-04   2.2990144e-04   1.9482530e-04   2.6002779e-04   5.3186074e-04   3.1120679e-04  -5.2071940e-05  -2.3767582e-04   1.6394582e-04   1.4697743e-04   2.3553624e-04  -2.5109251e-04  -2.5443456e-04  -1.2503863e-04  -3.7453388e-04  -5.0286640e-04  -7.4449892e-04  -1.9899353e-03   3.8282556e-04   8.9607114e-05   3.1806430e-04  -4.0416882e-05   1.0836807e-03   8.6142849e-05  -4.4911233e-04  -3.0796693e-04  -2.7864522e-05   3.4345983e-04   1.4908740e-04  -7.4395462e-04   1.7539342e-04   1.5358306e-05  -2.0384196e-04  -1.7242775e-04   1.0141934e-03   4.0580385e-04   1.9560305e-04   1.0448282e-04   1.7570969e-04   1.1203623e-03  -1.3500239e-05  -4.3476205e-03   2.1605639e-04   4.8362263e-04  -3.4834335e-05  -1.2581947e-04  -8.9565376e-03   4.5663492e-05  -9.1309295e-05
   2.3237476e-04   2.8160948e-04   4.3080223e-04   2.0225212e-04   3.0763310e-04   3.0688738e-04   2.7741122e-04   9.3498576e-04   1.7976059e-05   1.5362124e-04   1.1172683e-04   3.4885328e-05  -2.6879169e-04  -2.7661375e-04  -1.4950104e-04  -6.2936224e-04  -4.4209920e-04  -6.9731701e-04   1.4291877e-04  -7.7445155e-05   7.3133066e-05   1.1131415e-04   4.6966327e-04   1.3589206e-03  -4.8973144e-04  -4.0024810e-04  -3.3814917e-04  -1.8864466e-04   8.4591331e-04   1.9273419e-04   3.4455913e-03  -5.6453602e-04   1.7181678e-03  -1.9523574e-04  -2.4707071e-04   4.8742571e-04   3.1246920e-04   2.5645102e-04   1.3586668e-04  -4.3818000e-04   9.3708810e-04   8.0881888e-05  -5.3852759e-03   1.2102223e-04  -4.4178369e-04  -3.0908023e-04  -1.4042252e-04  -1.5467093e-02   4.8789181e-05  -1.9051899e-04
   3.0307929e-04   2.5577354e-04   6.0099736e-04   1.6361782e-04  -4.1336760e-05   4.4843290e-04   2.1242212e-04  -4.0264367e-04   4.5780736e-04   1.3668824e-04   1.6233845e-04  -7.3712014e-05  -1.5943374e-04  -2.3420424e-04  -1.8224753e-04  -6.6507724e-04  -4.5434554e-04  -8.6315197e-04  -5.0090050e-04   2.7863512e-06   8.5402164e-05   2.8567074e-04   2.2889956e-04   5.9669639e-04  -8.0176862e-04  -3.6827076e-04  -3.4352337e-04  -3.4502929e-04  -6.0244667e-05   1.8417668e-04  -6.2036794e-04  -8.1004400e-04  -5.4151309e-04  -1.3610601e-04  -2.3137180e-04  -5.8763468e-04  -7.3606163e-05   2.2691244e-04   2.1105575e-04   1.1923318e-04   3.3313668e-04  -4.7855738e-05  -3.7074187e-03   3.1822045e-05   2.6526139e-04  -1.5926428e-04  -4.3124623e-05  -9.3753142e-03  -1.1273886e-04   6.9265414e-05
   1.0793112e-04   2.6644353e-04   2.9888283e-04   2.2956025e-04  -1.9214442e-04   4.8112517e-04   1.6800188e-04   1.3824759e-04   5.3450617e-04   8.8727276e-05   1.5734696e-04   1.5627532e-04  -2.1147127e-04  -2.5548911e-04  -1.6352074e-04  -5.1219371e-04  -5.0481473e-04  -6.9332193e-04   1.0141284e-03   2.9280034e-04   7.5261014e-05   3.0655900e-04   3.9428740e-04  -3.5821929e-04  -8.7605941e-04  -4.0413710e-04  -3.4788245e-04  -2.7468169e-04   7.3976914e-04   1.7995808e-04  -1.0820694e-03  -4.8167707e-04   1.2814270e-03   1.2668315e-04  -1.2083545e-04  -2.7543365e-04   3.0859548e-05   1.6796069e-04  -3.8656850e-05  -1.4503297e-04  -6.7794288e-04  -1.0474829e-04  -2.3985200e-03   5.8010708e-05   3.6322264e-04  -6.5017113e-05  -5.7525781e-06   6.9091339e-03  -1.4061229e-04   6.6583884e-06
   2.2363676e-04   2.7440826e-04   9.2337490e-05   2.0328755e-04   8.4409803e-06   2.2120298e-04   3.6598524e-04   6.3491520e-05  -5.2104925e-04   1.0710236e-04   2.1468379e-04  -8.1314778e-05  -1.3726696e-04  -2.6466025e-04  -1.3602857e-04  -5.5483781e-04  -4.3187517e-04  -6.7082641e-04   1.3295135e-03  -4.3763248e-05   6.5549582e-05   3.3604860e-04   1.9063365e-04  -3.1429014e-04  -7.4923760e-04  -4.4423004e-04  -3.0303170e-04   4.3809490e-05   1.8632620e-04   1.9399876e-04   1.1699655e-04  -2.9903866e-04  -1.6769790e-04   2.0334378e-04  -1.7077899e-04   5.5140781e-04  -1.4127135e-04   2.1356688e-04   2.3527184e-05   2.1556795e-04  -1.1563209e-04   2.1628975e-05  -2.8442873e-03   5.4886626e-05   2.2498387e-04   5.0607156e-05   7.8362345e-06   3.0352331e-03   3.3110511e-04  -5.6744997e-05
   3.2303939e-04   2.9035317e-04   3.8993705e-04   2.1906504e-04   9.1980197e-05   3.2662114e-04   4.6669113e-04   2.6026717e-04   3.6600660e-04   1.6598882e-04   2.0956855e-04   1.3861137e-04  -2.8145051e-04  -2.1166545e-04  -7.5486205e-05  -5.2292558e-04  -4.4555470e-04  -7.4674760e-04   4.5250711e-04   2.9845085e-04   5.6846991e-05   5.7992427e-05   1.2278439e-04   6.2602304e-04  -2.6663963e-04  -3.6695832e-04  -3.0014620e-04  -2.7250883e-04   6.1633479e-04   1.9375120e-04   1.3258276e-03   9.7715517e-04   2.2708612e-04  -1.1803034e-04  -1.9515259e-04  -3.0851068e-05   2.6575313e-04   2.0911143e-04   3.0086198e-04   3.0817572e-04   3.5107107e-04  -1.0872997e-04  -2.2820767e-03   1.2427163e-05  -8.9158426e-04   2.4888598e-04  -5.0427330e-05   6.8574222e-03   8.0213547e-05  -2.8739309e-05
   2.7013669e-04   2.7171377e-04   6.3075851e-05   2.4047785e-04   2.4020970e-04   6.5404963e-04   4.4036182e-04   2.6133377e-04   2.3826717e-04   1.6373675e-04   1.9572537e-04  -1.5146034e-05  -8.4612482e-05  -2.1737342e-04  -2.9624856e-04  -4.8331762e-04  -3.6802620e-04  -6.0628139e-04   8.3280058e-04  -2.0310075e-05   8.1619197e-05   2.3067137e-04   6.3338340e-04   1.1597377e-03  -3.4381053e-04  -2.9513138e-04  -2.8251379e-04  -6.9863498e-05   2.2347043e-03   1.9429275e-04  -1.4751209e-03  -5.7859835e-04  -5.4639223e-04   2.8958020e-04  -4.9487928e-05   5.7536957e-04  -2.1697002e-04   1.5760772e-04   2.7152930e-05   2.3064544e-04   2.5688941e-04   9.9027020e-05   1.5483402e-04   1.6276696e-04  -6.0060131e-04  -1.8593812e-04  -5.7622266e-05  -1.1515153e-02   6.5114829e-05   1.5689449e-05
   1.5923895e-04   2.4025422e-04   3.2122689e-04   2.1169608e-04  -1.6832838e-04   4.4928383e-04   5.5770081e-04  -2.3054898e-04   1.4490259e-04   1.1839299e-04   1.6866623e-04   1.0475700e-04  -1.7276830e-04  -1.6974923e-04  -1.0959153e-04  -3.5877840e-04  -4.3831582e-04  -6.4111286e-04   1.5013169e-03   4.4603192e-04   5.2561605e-05   3.4155697e-04   3.5053867e-04  -9.4053615e-04  -5.6322251e-04  -2.6597537e-04  -2.9659411e-04  -2.4121656e-04   7.3456019e-04   1.5392069e-04  -1.5545145e-03  -9.8893128e-04   5.3977838e-04   7.1282302e-05  -1.8012742e-04  -9.0440160e-05  -7.3481300e-07   1.7504160e-04   2.9345069e-04   2.0727279e-04  -8.3407824e-04  -2.1678420e-06  -4.9241781e-03   5.2861800e-05   3.3548853e-04  -1.3959270e-04  -1.1153562e-04   1.4274432e-02   1.3340893e-04  -9.1879112e-05
   2.8174920e-05   2.6365987e-04   3.4645127e-04   1.8104547e-04  -1.0624329e-04   2.8897179e-04   5.0081685e-04   7.2162884e-04  -5.2744721e-04   1.1987131e-04   1.3644469e-04   1.1909692e-04  -2.0602945e-04  -1.8616617e-04  -2.6071758e-04  -5.3314457e-04  -4.0426457e-04  -5.8934931e-04  -9.4623980e-04   5.9834263e-05   6.5376567e-05   5.2144303e-04   1.5991899e-04   1.3953400e-03  -9.9943578e-04  -3.4787404e-04  -2.7467433e-04  -9.4517374e-05  -2.6683955e-04   1.9721575e-04   2.4891892e-03   7.2280585e-05   9.6225733e-04   2.9757413e-05  -1.9431172e-04   6.2904763e-04   4.6740056e-04   1.3401183e-04  -5.8149435e-05   4.3537424e-04   1.3858065e-03  -3.7033999e-05  -5.0583258e-03   1.7478591e-04   1.1511327e-03   3.0751733e-04  -6.7429437e-06   2.7270719e-02   1.0727403e-04  -1.0503867e-04
   2.5911981e-04   2.4460183e-04   4.3764614e-04   2.4894363e-04   4.2721981e-04   4.3396291e-04   2.4772598e-04  -4.9758371e-04  -6.9333863e-04   9.3235998e-05   9.3060931e-05  -3.9889626e-05  -1.8227770e-04  -1.8788445e-04  -3.4526802e-04  -3.8030758e-04  -3.7226011e-04  -7.2079652e-04   1.7129384e-03   1.1296547e-04   6.0474991e-05   2.5556839e-04   3.0672766e-04   2.5358918e-04  -4.4124099e-04  -3.5903795e-04  -2.7306494e-04  -5.7294448e-05   1.6211346e-03   1.9333647e-04   3.4751484e-04  -6.9447077e-04   3.3501233e-04  -1.9302113e-04  -1.4659930e-04   2.5407985e-04  -1.4410271e-05   1.8714661e-04   1.7461859e-04  -1.2679852e-04   3.0743083e-04  -2.1259997e-05  -5.3252298e-03   1.6070899e-04   4.7281838e-04   7.2661140e-05  -3.1316245e-05  -2.2182029e-03   5.2626870e-06   1.1236202e-05
   3.4018472e-04   2.9736588e-04   2.2779174e-04   2.0446980e-04   1.8898489e-05   5.1791273e-04   3.3145590e-04   6.6305959e-04   9.1134285e-04   1.0841832e-04   2.0099926e-04   1.1885448e-04  -1.4781234e-04  -2.1373280e-04  -1.9590370e-04  -4.7678861e-04  -4.7174099e-04  -7.9726812e-04   2.6097253e-04   3.9913124e-04   4.9386810e-05   3.3666004e-04  -1.4882935e-03   3.6984796e-03  -5.2026822e-04  -2.8314351e-04  -3.1221396e-04  -2.1140842e-04   5.8943115e-04   1.9363164e-04  -6.0158054e-04  -2.9201171e-04   1.0804107e-03   4.0842366e-04  -2.1784205e-04   3.3348732e-04   3.0718558e-04   1.8798216e-04   8.0151927e-05   3.0574537e-04  -4.4877734e-04   1.5573678e-04   6.6386221e-04   1.2147344e-04   9.3689351e-04  -3.3113165e-04  -9.8734090e-05  -9.5133679e-03   7.1105409e-05   4.5139862e-07
   3.2820948e-04   2.7822272e-04   4.6729672e-04   2.4885294e-04  -7.3170639e-05   5.1744288e-04   6.0316967e-04   7.0578343e-04  -2.1224251e-04   1.2256370e-04   1.3965640e-04  -3.2382231e-05  -1.4900167e-04  -2.8096008e-04  -1.9385728e-04  -4.2698008e-04  -4.3669366e-04  -5.2551617e-04   1.5858671e-03   1.6884248e-04   3.9064820e-05   3.6724794e-04   8.6076075e-04   1.9026438e-03  -8.6237349e-05  -2.8271409e-04  -2.9292959e-04  -3.8699506e-04   8.3859643e-04   1.8937793e-04  -6.3738713e-05   2.6674676e-04   6.1847073e-05   1.1197541e-05  -1.8620267e-04   3.2238190e-06  -5.4392812e-04   2.1754361e-04  -6.9483553e-07   3.1447786e-04   9.7060372e-04   3.8140315e-05   8.6735637e-04   1.6557628e-04   1.0899678e-04  -2.8859492e-04   4.9373575e-05   8.4825419e-03   2.0313371e-05  -9.9812009e-05
   1.3569088e-04   2.7625373e-04   5.4450060e-04   1.7657728e-04   9.2233327e-05   2.7354699e-04   2.1740062e-04   2.1411089e-04  -6.1636907e-04   7.4000833e-05   2.5988638e-04  -1.1022234e-04  -2.2009101e-04  -2.0735062e-04  -2.5724227e-04  -8.2157418e-04  -4.0986235e-04  -7.2133343e-04   7.5906870e-04   2.1090491e-04   3.9263363e-05   1.7098042e-04   6.0174812e-04   5.4619048e-04  -6.0316600e-04  -3.3915709e-04  -3.3649121e-04  -1.5444390e-04   8.5287838e-04   1.9867883e-04   8.5112266e-04   5.0160399e-04   1.4374770e-03   1.0473003e-04  -2.5255152e-04   1.6466014e-04   4.9583911e-04   2.4922358e-04   6.1424304e-05   1.6158550e-04  -5.5375353e-05   2.1038874e-04  -6.6494602e-03   1.6167462e-04  -5.7338196e-04   1.3277491e-04  -9.2293718e-05  -1.8188119e-02  -4.9086655e-05   1.1835899e-04
   3.2356711e-05   2.4063783e-04   1.9847763e-04   2.5396765e-04   4.1740428e-04   5.1321939e-04   1.8286209e-04   3.0201848e-04   1.2176434e-03   7.1221832e-05   2.8243989e-05  -2.5097175e-05  -9.3340088e-05  -2.3732470e-04  -3.1645034e-04  -5.8829022e-04  -3.5045965e-04  -7.4950402e-04   9.0430432e-05   4.8005214e-04   3.4494438e-05   6.6242959e-05   5.9346342e-04   2.5360838e-03   4.3370448e-05  -2.9587324e-04  -3.1114809e-04  -2.3048004e-04   4.4705975e-04   2.0870483e-04   1.2381861e-03   1.7794160e-05   6.9044210e-04  -1.3102045e-04  -1.7772865e-04  -3.7534841e-04  -2.1668077e-04   2.1319938e-04   2.5238385e-04  -1.0203792e-05  -1.8415488e-03   1.1327014e-04  -6.4195343e-03   3.8512761e-05  -6.3131662e-04   3.0993880e-04  -5.7934019e-05  -5.9095705e-03  -8.4019193e-05   1.0871959e-04
   3.4802867e-04   2.6143220e-04   1.7074938e-04   2.1664078e-04   9.3315968e-05   4.3584110e-04   4.2439194e-04   4.2317374e-04   1.2440328e-03   5.9483540e-05   1.5894862e-04  -1.9049938e-04  -9.1736729e-05  -1.9475647e-04  -3.1679723e-04  -5.2114989e-04  -3.5083070e-04  -7.4897421e-04   7.1975292e-04   2.5993389e-05   2.6362699e-05   1.3008219e-04   3.2562215e-04  -1.5498048e-03  -7.4590695e-05  -2.8966638e-04  -3.0341512e-04  -2.7549002e-04   1.3344634e-03   2.1809703e-04  -6.8878772e-04   1.7397766e-04  -7.2433038e-05   1.4590449e-04  -2.8260233e-04  -1.1151490e-05  -1.6784642e-04   2.2846751e-04   2.4403913e-05  -2.0029992e-04   1.1769468e-04   3.4942455e-05  -5.6186272e-03   1.8404052e-04   6.9773564e-04  -1.7291780e-04  -4.1856434e-05   1.8667709e-02  -2.2549891e-04  -1.0483401e-04
   3.5503047e-04   2.7408148e-04   3.6708752e-04   2.5660073e-04   5.1948003e-04   5.0155231e-04   5.4610340e-05   2.4000529e-04   9.1708702e-04   1.0690221e-04   1.9161591e-04   2.9705482e-04  -1.1134000e-04  -2.2897389e-04  -2.0480518e-04  -5.2782043e-04  -3.4237883e-04  -7.7283877e-04   4.0108612e-04   1.0397366e-04   7.2375122e-05   2.2658007e-04   5.9992137e-05   1.1840496e-03  -1.1971333e-03  -2.0541766e-04  -2.9322424e-04  -1.9680880e-04   5.8075582e-04   2.1133161e-04  -1.6266162e-03  -8.4667804e-04  -4.5604669e-04   3.8830136e-04  -1.9076529e-04   6.2498689e-04   3.0880907e-04   2.7670068e-04  -1.9899051e-05  -4.5288740e-05   8.4538758e-04  -4.5543507e-05  -1.6853408e-03   1.6395880e-04   5.2400434e-04   1.2961855e-04  -7.4246454e-05  -8.8265277e-03   1.8539724e-04   5.3771368e-05
   2.3256836e-04   2.9073333e-04   2.2751513e-04   2.8227232e-04   2.3308967e-04   3.2144642e-04   4.1981172e-04  -9.2059105e-05   1.6539624e-04   1.0778667e-04   9.1216119e-05  -7.8321180e-05  -1.2127218e-04  -2.0966282e-04  -1.7019919e-04  -4.8971234e-04  -3.3879475e-04  -7.9140282e-04   4.1107612e-04   3.1021416e-05   4.9544989e-05   3.3829440e-04   9.9490740e-07   9.7555685e-04   6.6390884e-04  -2.4522195e-04  -3.2591366e-04  -3.8960480e-04   8.1826281e-04   1.9773189e-04  -4.4891975e-04  -8.9913618e-04   8.6799485e-04   9.4184841e-05  -1.1789401e-04   4.8371102e-04   2.7287705e-04   2.2158696e-04   4.2923668e-04   6.0325989e-04  -4.5440596e-04   4.8849099e-05  -1.5567441e-03   1.9168772e-04   1.0943745e-03   4.6360212e-05  -1.3564447e-04   8.4437453e-04   2.8141146e-04  -1.4736880e-04
   1.3163287e-04   2.5271063e-04   6.1240653e-04   2.6541320e-04  -6.5516630e-05   4.7186535e-04   4.7220333e-04  -1.3225003e-04   8.6236076e-04   6.2179723e-05   1.7821536e-04   2.4619354e-05  -1.2421720e-04  -1.9619304e-04  -2.7227652e-04  -5.1046745e-04  -3.5328380e-04  -7.4603350e-04   5.3811132e-04  -1.9069950e-04   5.2786971e-05   4.3681360e-04  -1.5278254e-05   3.0756221e-04  -6.6840515e-04  -3.1759334e-04  -2.7810957e-04  -1.5326904e-04   5.3581735e-04   1.8020037e-04  -7.8416109e-04  -2.2495024e-04   1.4593675e-03  -7.5416909e-05  -1.0861803e-04   8.0574548e-04   6.6741288e-04   1.9372281e-04   6.7545207e-06   8.3022349e-04  -4.7760282e-06  -5.5467211e-05  -4.5491769e-03   1.6419732e-04  -6.5345271e-04  -3.4277275e-04  -1.9109010e-04  -1.1414402e-03   1.3760275e-04   1.2213635e-04
   3.1458840e-04   2.8516044e-04   4.4481494e-04   2.1855115e-04   6.7129045e-06   3.1069742e-04   2.3880076e-04  -3.6098802e-04   1.8634420e-04   7.8593264e-05   1.7157626e-04   1.1295439e-04  -2.2165806e-04  -2.5575008e-04  -2.3363350e-04  -5.8661692e-04  -3.4171806e-04  -6.0521369e-04   4.9072114e-04   8.5020554e-05   6.3008316e-05   5.9653894e-04  -8.0432401e-05  -1.2050639e-03   3.3300963e-05  -3.4898499e-04  -2.7452107e-04  -3.3701057e-05  -1.7308218e-04   1.9718298e-04   5.7243695e-04  -3.1132382e-04   7.4300327e-04   3.5720368e-05  -1.3809856e-04  -1.4462151e-05  -1.5314211e-04   2.1857888e-04   3.3348453e-05  -2.6370439e-05  -2.7025238e-04   9.7565964e-05  -7.3211617e-03   9.1779671e-05   6.4641522e-04   3.0392257e-04  -1.2498382e-05  -7.3915333e-03   4.4579199e-05  -7.9798141e-05
   2.4496153e-04   2.4955394e-04   5.3165562e-04   2.3118089e-04  -3.9475450e-05   2.6378621e-04   1.9081209e-04  -1.9756802e-04   2.9724420e-04   1.3862534e-04   1.6227724e-04   1.7064193e-04  -1.7503998e-04  -2.0852436e-04  -1.6690140e-04  -3.7511502e-04  -5.4632401e-04  -6.0158561e-04   1.5336740e-03   2.3412502e-05   1.0956058e-04   3.4039360e-04   4.7278579e-04   4.8245362e-04  -7.4245792e-05  -3.0543946e-04  -2.3854671e-04  -1.3407122e-05   5.3552573e-04   1.3416434e-04  -7.4228185e-04   1.1810709e-03   4.4374453e-04   1.4747123e-04  -4.7630947e-05  -3.4401033e-04   2.8536195e-04   1.7180736e-04   1.3331969e-04   4.9618527e-04  -9.3272608e-04  -1.6577878e-04  -3.2317366e-03   5.0179446e-05   2.6835996e-04  -1.8065964e-04  -5.3534495e-05  -7.7297916e-03   1.8793003e-04   9.5897747e-05
   3.0751948e-04   1.8927029e-04   3.4130330e-04   1.8314061e-04   6.8369351e-05   4.7679353e-04   7.4909709e-05   3.9070967e-04   1.1204184e-03   8.2558137e-05   2.6446377e-04   1.9687458e-04  -1.6604824e-04  -2.2423231e-04  -1.3109339e-04  -3.0067336e-04  -3.5789263e-04  -4.6231944e-04   7.9973321e-04  -6.6025805e-04   8.3633713e-05   1.9113711e-04   5.5293762e-04   1.6683335e-03  -4.1645233e-04  -3.4939375e-04  -2.1529221e-04   3.1695698e-05   6.2441599e-04   1.1610144e-04  -1.0093248e-04   6.4179505e-05   5.7042146e-04  -1.0169283e-04  -8.9405148e-05   3.2253639e-04  -2.2096805e-04   1.9747281e-04  -4.1365329e-05   6.3028460e-04   1.0165108e-03   9.8873403e-05  -4.2183977e-03   1.1270648e-04   1.8114051e-03  -3.5319713e-04  -5.1010098e-05  -2.5994297e-02   1.0996337e-04  -6.2834108e-05
   3.1191399e-04   2.4480119e-04   4.6029253e-04   2.4715081e-04   1.1005783e-04   3.1755728e-04   2.3068662e-04  -2.0897518e-04   4.6630380e-06   3.7571608e-05   1.5131968e-04   5.6493256e-05  -1.6986493e-04  -2.4404221e-04  -2.5816250e-04  -2.3742850e-04  -3.5235489e-04  -5.9437146e-04   3.9534792e-04  -1.9218064e-04   8.7968998e-05   2.9479622e-04   3.6171224e-04  -2.1899433e-03  -1.2761288e-03  -3.3304188e-04  -2.2407778e-04  -9.9563484e-05   6.1855921e-05   1.1829101e-04  -2.1851959e-03  -3.4203366e-04  -2.5118978e-04   1.9498795e-05  -1.0343648e-04   6.2159367e-04   3.2540294e-04   1.1882930e-04   1.5156862e-04   2.9289996e-04   2.8595983e-04  -1.1731667e-04  -9.7343134e-04   1.1066881e-04  -1.7194453e-04  -3.9313926e-04  -1.6160549e-04   6.4552501e-03   9.0232752e-05  -1.7231728e-04
   1.9511209e-04   2.4748567e-04   3.4738972e-04   1.8872046e-04   1.4476627e-04   4.4712788e-04   4.4539326e-04   1.1081314e-03   1.0278708e-03   1.8220679e-04   1.5439717e-04   1.9846291e-04  -2.0624457e-04  -2.2786591e-04  -2.5917811e-04  -2.1942813e-04  -3.5759481e-04  -3.8523626e-04   1.8387479e-03   3.9642787e-04   8.7322987e-05   1.1708139e-04   2.2652531e-04  -5.7235731e-05   6.7943765e-04  -3.6889766e-04  -2.3532982e-04  -2.3492759e-05   4.3493920e-04   1.2224184e-04  -1.2859997e-03   1.0893478e-04  -5.7886599e-04  -9.0032758e-05  -9.1382833e-05   4.0060902e-04   4.2894368e-05   1.6612472e-04   1.4476375e-04  -1.7961987e-05   5.8107544e-04   2.8587110e-05  -2.0207402e-03   4.2422682e-05  -1.2714780e-03  -3.1544777e-04  -5.4482472e-05   1.6491917e-03   6.6700254e-06  -1.6729131e-04
   1.4937790e-04   1.8272195e-04   4.6197043e-04   2.2191076e-04   8.4278814e-05   2.8365952e-04   5.8643538e-05   5.0136825e-04  -4.8245816e-04   1.1002275e-04   2.8541646e-04   1.9932206e-04  -1.7322967e-04  -2.4737447e-04  -9.8799144e-05  -1.5940830e-04  -3.8020365e-04  -5.8110355e-04   1.2084184e-03   1.6325850e-04   1.1043542e-04   1.8586703e-04  -3.4837681e-04   1.8107940e-03  -6.4630475e-04  -2.5507886e-04  -2.1250566e-04  -2.0163834e-04   3.0842499e-04   1.0043367e-04   9.4722846e-04   5.2831700e-04  -8.1049767e-04  -1.8393072e-05  -8.3693913e-06  -5.3726352e-04   1.3917942e-04   2.0630390e-04   1.9352754e-04   4.0486202e-04  -9.0917217e-04  -1.7128288e-04  -9.1805318e-03   1.9333282e-05  -2.9756309e-04  -9.3149218e-05  -8.8695146e-05  -9.2785591e-03   1.3018381e-04  -8.5265965e-05
   2.1266006e-04   1.7737613e-04   4.2489805e-04   2.4161721e-04   2.9005925e-04   2.5054871e-04   8.7249871e-05   2.5714183e-04  -2.6131983e-04   5.0879575e-05   1.6291691e-04   9.4754650e-06  -1.1000530e-04  -2.1757494e-04  -2.4558775e-04  -4.0550265e-04  -4.0193534e-04  -5.4281257e-04   1.0661869e-03  -9.7851422e-05   8.1730570e-05   3.6789547e-04  -3.4566360e-04   2.5478671e-03   3.9568637e-04  -2.1346062e-04  -3.0434510e-04   4.6857622e-06  -4.6336901e-04   1.1772187e-04  -2.3724677e-03  -4.3841582e-04   1.2949869e-03  -1.0077430e-04  -9.3693219e-05  -9.5568399e-04   7.3386400e-05   1.8243607e-04   4.1173139e-04   2.0748819e-05   5.2255864e-04  -6.5610548e-05   2.6007844e-03   6.4744658e-05  -4.2013061e-04  -6.0230872e-05  -1.3154556e-04   6.3008340e-03  -6.4498388e-05  -1.1596607e-04
   2.3750613e-04   1.9150079e-04   4.5131531e-04   2.0261020e-04   2.6412832e-04   4.9219880e-04   1.8694373e-04   9.7934145e-04   2.5649386e-04   1.6585695e-05   1.1246654e-04   3.2532287e-05  -9.9442346e-05  -2.1993066e-04  -1.4997428e-04  -3.3671217e-04  -3.2200929e-04  -5.8840530e-04  -4.1887713e-05  -2.0048747e-05   5.4920820e-05   1.3751841e-04   2.9272391e-04  -4.0939162e-04  -3.0089432e-04  -2.1703991e-04  -2.4633171e-04  -4.4899545e-05   1.3660915e-04   1.3546803e-04  -1.5982048e-03  -8.6699729e-04   4.9689173e-04  -1.1394256e-06  -9.8135875e-05   8.9421700e-04   6.0416420e-04   1.3838852e-04   7.6990822e-05  -1.1860152e-04   1.2296410e-03   7.2797644e-05   8.4015471e-04   9.1745005e-06  -1.6069266e-03   1.2770291e-04  -1.4244884e-04   2.5024584e-03  -3.8307237e-05  -7.7572040e-05
   2.7565428e-04   1.9376854e-04   3.9161905e-04   2.3090506e-04  -8.8825655e-05   2.6002075e-04   2.8540939e-04   1.2489322e-03  -1.0906499e-03   1.0448197e-04   2.4331563e-04   3.0246951e-05  -1.8784136e-04  -1.5093150e-04   1.2978319e-04  -3.0206240e-04  -3.2487934e-04  -4.3112991e-04  -4.4477682e-04   6.2311435e-04   9.0948713e-05   3.5012528e-04   7.1274303e-04   2.5686595e-04  -4.7713038e-04  -2.4098952e-04  -1.5134967e-04  -1.3844739e-04   2.9688224e-04   5.7101046e-05  -4.1851323e-05   2.0697540e-04  -1.0756954e-03   2.2953982e-04   5.1793777e-05   1.7520154e-04   7.0642395e-04   1.2243536e-04  -1.1260336e-04  -1.5684706e-04   5.2709162e-04   5.8663327e-06  -5.5980207e-03   1.0024786e-04   3.7492669e-04  -3.7915102e-04  -6.9879279e-05  -6.0593225e-03  -8.8763394e-05  -2.0350752e-04
   2.1816672e-04   1.6808181e-04   4.1629226e-04   2.1765677e-04   2.3313981e-04   2.8031241e-04   2.1884192e-04   6.9447176e-04  -6.5320070e-05   9.3600058e-05   2.2348610e-04  -1.7609149e-04  -1.5121717e-04  -1.8894194e-04   3.6249585e-05  -3.8839583e-04  -4.0389854e-04  -3.7445524e-04   3.4724709e-04   2.8488255e-04   1.1136459e-04   9.4105220e-05  -1.6607702e-04  -2.8277242e-05   4.2924151e-04  -2.2518684e-04  -1.6546050e-04   2.4110138e-04   7.9585251e-04   5.2198455e-05   2.9493286e-03   6.7783811e-04  -2.1598447e-04  -8.1718590e-06   5.7290395e-05   8.3482300e-05   4.8380063e-04   1.6174148e-04  -1.5067114e-04   3.4727587e-04  -2.6069398e-04  -1.2186079e-04   2.1778625e-03   3.2246058e-05   1.9478364e-04  -1.4769600e-04  -5.6902049e-05   3.2679167e-02  -1.4091187e-05   1.0724155e-04
   1.3123025e-04   1.3619680e-04   2.6142577e-04   2.4364582e-04   1.7767033e-04   4.6710361e-04   1.3950498e-04   2.3064979e-04  -1.5006048e-03   7.2212242e-06   1.3561592e-04  -1.3922607e-05  -1.1911683e-04  -1.8167248e-04  -1.4699112e-05  -3.3430706e-04  -3.4359164e-04  -4.3051422e-04  -6.9028698e-04  -2.7670385e-04   6.9121088e-05  -5.6795296e-05   8.4709551e-04   1.3492488e-03   8.2868984e-04  -2.2153846e-04  -1.4868514e-04   2.0122317e-04   6.7123990e-05   6.7777204e-05  -3.9464494e-04   2.6186294e-04   1.4867885e-04  -1.2299904e-04   5.5623022e-05   7.4799062e-04  -1.3201413e-04   5.4731983e-05   1.8943330e-04   3.4858673e-04   7.7952439e-04  -2.5772757e-04  -5.8570066e-03   1.0969029e-04   1.3318972e-04  -3.3583897e-04  -1.3936586e-04  -2.8603366e-03   2.7193231e-04  -1.0984429e-04
   2.5568050e-04   1.3319547e-04   1.4441862e-04   2.1583229e-04   1.1889789e-04   2.2971169e-04   5.0100178e-04   1.7864151e-04   1.1329389e-03   5.3445623e-05   1.7224799e-04   5.9685099e-06  -1.2751319e-04  -1.3735422e-04  -7.1612390e-06  -4.4476968e-04  -4.1564813e-04  -5.2779680e-04  -7.0614484e-04  -4.6291071e-04   4.8563339e-05   5.3682027e-04  -3.9550939e-04  -1.1083904e-03   1.7103313e-03  -2.0321269e-04  -1.4335501e-04  -2.1976899e-04   4.2707150e-04   6.9600799e-05   1.9772652e-04   1.8692904e-04  -1.2062239e-03   1.4636794e-04   5.4443182e-05   1.0731643e-03   4.6450202e-04   1.7538245e-04   1.3276083e-04   1.4101420e-04  -8.1295107e-04  -9.9720834e-05  -5.5024410e-03   1.9527176e-04   2.1686392e-04   2.6815515e-05  -1.5778157e-04   5.5739353e-04   8.5564025e-05  -8.5546002e-05
   2.5635329e-04   1.9941760e-04   4.1890750e-04   1.9727139e-04   2.0500793e-05   3.6674333e-04   2.9574978e-04  -7.3482573e-05   1.5977167e-03   5.0067756e-05   4.5054963e-05   6.6370951e-05  -1.0981842e-04  -1.5218786e-04  -1.7073724e-05  -2.9667717e-04  -4.0304023e-04  -4.4850650e-04   3.3519024e-04  -4.9807772e-04   5.6451856e-05   2.5248580e-04   1.3305355e-04   6.9061376e-04  -1.1464005e-04  -2.1147341e-04  -1.4652990e-04  -8.5138359e-05  -2.6919792e-04   6.8401030e-05   1.6522510e-03  -6.4024044e-04   5.9201859e-04   3.1265834e-05  -9.0492376e-06   1.9114501e-04  -4.0123363e-05   1.1042189e-04   1.8292658e-04  -5.4298740e-05   4.7395067e-04  -2.5880500e-04  -7.0367912e-03   1.3741775e-04   2.4163139e-03  -2.7379094e-04  -1.5760925e-04  -6.1364174e-03   9.9788369e-05  -2.5681427e-05
   1.3220044e-04   1.5904348e-04   2.9249210e-04   2.4732793e-04   2.0502468e-04   4.7662880e-04   2.6603241e-04  -6.2684785e-04   1.2289900e-03   5.5950128e-05   2.1334962e-04   8.2664941e-05  -1.2623233e-05  -1.9281141e-04  -1.5599660e-05  -2.8526722e-04  -3.9130051e-04  -4.3346363e-04   1.8435338e-03  -8.6813889e-05   7.4224808e-05   1.2957372e-04  -5.4637395e-04   1.7698047e-03  -5.3267163e-04  -1.4638613e-04  -1.4046603e-04  -6.9176749e-05   1.7463944e-04   9.5320502e-05   6.1900006e-04   1.0655165e-03  -4.1449228e-05   2.0598435e-04   5.9892929e-05   5.5117893e-04   1.2610934e-04   1.9601392e-04  -2.0687099e-05  -6.5393804e-05   9.9026610e-04  -2.1572392e-05  -3.2907838e-03   1.0095402e-04   4.8793675e-04  -3.8853436e-04  -1.5553007e-04   4.4163582e-03   2.4476944e-04  -9.0337599e-05
   2.3448418e-04   1.7083014e-04  -5.5686705e-05   2.1345734e-04  -2.2965544e-04   2.4676905e-04   3.4450757e-04  -5.3148856e-04  -2.9428164e-04   5.4675784e-05   1.8206734e-04   3.5139550e-05  -1.0489165e-04  -1.5956628e-04  -7.3277180e-05  -3.1894021e-04  -3.3630058e-04  -3.6997814e-04  -1.2075950e-03   3.0633045e-04   6.0296821e-05   1.6902477e-04   5.7914964e-04   2.0851258e-03  -1.8598617e-04  -1.3879006e-04  -1.2917171e-04  -7.2881172e-05   7.5522013e-04   9.4663883e-05  -9.5972273e-04   3.1493040e-04   1.3860429e-03   6.1789266e-05   1.9538285e-05  -1.1487350e-04  -1.3999220e-04   1.7267924e-04   6.7085857e-05  -8.2653560e-07  -2.2127057e-04   6.5338395e-06  -6.3645071e-03   6.2259984e-05  -4.4802950e-06  -1.0978367e-04  -1.2594006e-04  -5.2852314e-03   4.0995437e-05   8.2817925e-05
   1.6495469e-04   9.9772020e-05   4.6625137e-04   2.2557893e-04  -2.5125063e-04   3.1833356e-04   1.3598271e-04   2.8043723e-05   1.2658737e-03   7.7891935e-05   1.2195042e-04   7.1383729e-05  -7.1275223e-05  -1.5046285e-04  -1.0180858e-04  -2.0015502e-04  -3.5717164e-04  -3.9262211e-04  -6.7993975e-04  -2.8780050e-04   7.8677098e-05   2.0710281e-04  -1.1819452e-03   2.4657317e-03  -1.0582919e-03  -2.3542756e-04  -1.7594511e-04   1.6032411e-05   3.4398766e-04   7.4291747e-05  -3.1550619e-05   1.7003107e-04   5.6415441e-04   6.1684259e-05   1.1594345e-04   3.9145321e-05  -3.9900912e-04   1.1886998e-04  -1.2168204e-06  -1.0272249e-05  -2.9436615e-04   2.7259128e-05  -7.0590065e-03   1.0373002e-04   2.6168698e-04  -1.9838045e-04  -1.6067969e-04   3.2352246e-02   1.0514684e-04  -3.5641463e-06
   2.7388660e-04   1.5552828e-04   3.2754880e-04   2.0653280e-04   4.6208752e-05   3.2582553e-04   2.6169617e-04   4.9203919e-04   1.4427023e-04   4.6566456e-05   1.1731031e-04  -3.1106729e-06  -1.6507828e-04  -1.2889713e-04  -4.5578337e-05  -2.1666382e-04  -3.2143790e-04  -5.0018448e-04   1.3836447e-04  -4.7953548e-05   6.6194647e-05   1.1234883e-04  -1.4343116e-06   1.9626664e-03  -1.4739719e-03  -2.4569136e-04  -1.6235812e-04   4.7928854e-05   3.5419551e-04   9.8195298e-05  -1.9059466e-03   1.2013992e-04  -5.5310532e-04   1.5211139e-04   5.1965148e-05  -6.7132298e-04   5.7436887e-04   1.0538635e-04   1.5329399e-04  -3.8915157e-05  -5.5733015e-04   9.8763121e-05   2.6477904e-03   2.3185505e-05   1.9659875e-04   3.9602310e-04  -1.2137346e-04   1.0152777e-02   7.1184193e-05   1.9725445e-05
   6.2786145e-05   1.2217216e-04   5.0125387e-04   2.5480578e-04   9.9822297e-05   3.9473153e-04   6.7794637e-04  -9.7190036e-04  -3.1213716e-05   7.3639952e-05   1.7515369e-04  -7.8233694e-05  -1.0217367e-04  -1.4383683e-04   7.3775227e-05  -4.8111714e-04  -3.1271295e-04  -3.9267735e-04   7.6632691e-04  -9.5094583e-06   1.0739236e-04   1.8493654e-04   1.5099371e-04   6.6819991e-04  -7.7102130e-04  -6.3928535e-05  -1.4458552e-04  -3.5234196e-05   8.4617012e-04   9.1232781e-05  -8.0097490e-04  -5.1083975e-06   5.1918620e-04   1.7940132e-04   1.1427754e-04   1.4347386e-03  -9.9803670e-05   1.3836817e-04  -2.2296654e-05   4.6459600e-04   4.6074408e-04  -1.4198324e-04   3.8188431e-04   1.3053977e-04   1.0109826e-03  -7.8225596e-05  -9.3023220e-05  -3.5956446e-03   8.6992222e-05   2.0326707e-04
  -6.2140418e-05   1.5245409e-04   2.1375727e-04   2.5009536e-04   8.9151727e-05   6.3904517e-05   2.4226648e-04  -2.9029217e-04   1.5212907e-04   7.0004295e-05   1.9050602e-04   8.8609042e-05  -9.5209347e-05  -1.7596364e-04  -9.6509093e-06  -3.2394091e-04  -4.1797775e-04  -3.3880139e-04   3.1021252e-04  -1.7400440e-04   9.9365185e-05   4.7269746e-04   6.4762664e-04   9.8855468e-04  -1.0023103e-03  -7.4726442e-05  -1.3295925e-04  -9.4465620e-05  -1.8554063e-04   6.1958774e-05  -7.1198266e-04   2.1142385e-04   1.9654909e-03   6.4269923e-05   2.9300412e-05  -2.8197523e-04   2.7349012e-04   1.5479227e-04  -6.3432075e-05   4.4175194e-04   7.8093569e-04   1.5182127e-04   1.3428908e-03   7.7762539e-05   8.6509454e-04  -1.7173954e-04  -2.5735801e-04   8.2891271e-04   6.7275258e-05  -1.5994771e-04
   1.8972070e-04   1.9681541e-04   4.2597103e-04   2.1933847e-04   9.7309814e-05   1.7110027e-04   1.7527203e-04   4.2917969e-04   3.3185855e-04   7.2860566e-05   1.6216784e-04   2.2063388e-04  -3.9385053e-05  -9.3648065e-05  -2.1607723e-04  -7.3125957e-05  -4.1464911e-04  -4.3776911e-04  -3.4175659e-04   2.4939296e-04   1.0606056e-04   4.5778201e-04  -3.9095979e-04   9.4622542e-04  -9.5586764e-04  -5.1531033e-06  -1.6558786e-04   1.2063711e-04   3.5105678e-04   7.1713759e-05   1.9063524e-04   3.8568585e-04  -1.2924763e-03   8.4845400e-05   8.5012805e-05   3.0589773e-04   3.5155049e-04   1.2389034e-04   3.2450430e-04   3.8169295e-04  -3.3115305e-04  -7.8359422e-05  -4.6172822e-03   5.9422749e-05   4.5469755e-04   2.1142350e-04  -2.1837451e-04  -2.9362426e-03   2.8481541e-04  -1.6739553e-04
   2.4226503e-04   1.4856718e-04  -1.3772136e-04   2.4542739e-04   3.0637012e-04   3.3160305e-04   5.8564841e-04   2.6629932e-04   8.1216916e-04   5.5839148e-05   2.2794234e-04  -2.8174463e-05  -9.2685354e-05  -1.5713135e-04   4.0942661e-05  -2.7595382e-04  -3.3656473e-04  -3.5769449e-04   9.6543903e-05  -1.1249559e-05   7.4584554e-05   1.9932764e-04  -3.6552778e-04   2.1182590e-03  -1.9489166e-04  -1.4020044e-04  -1.6049290e-04   2.4551447e-04   3.3264875e-04   9.7044292e-05  -2.4259335e-03   1.6539908e-04   1.5044249e-04   2.1383965e-04   3.5673478e-05   2.8943150e-05   3.1247587e-04   1.6103548e-04   3.5613118e-04  -7.6054159e-05  -3.2795233e-05   1.3321992e-04   1.6728238e-03   6.4049389e-05   7.5756128e-05  -1.3524969e-04  -1.9201092e-04  -3.6389106e-03   5.9680960e-06   5.9585000e-05
   2.9468324e-04   1.8852393e-04   5.2182080e-04   2.3920638e-04   2.4647944e-04   3.8831538e-04   4.2159858e-04   2.6231626e-04  -8.3176303e-04   8.5572901e-05   1.9012301e-04   1.4500106e-04  -3.4973571e-05  -1.6954346e-04  -1.2002647e-04  -2.7588304e-04  -3.0022752e-04  -3.9596262e-04   1.5900622e-04  -2.4910492e-04   7.9614489e-05   1.3560477e-04   1.2801208e-03  -1.3245349e-03  -9.3125307e-04  -6.5894921e-05  -1.4712461e-04   1.2085419e-04   8.8990964e-05   9.5662472e-05  -8.5921795e-04  -3.3173789e-04   6.4929714e-04   1.2134211e-04   1.4909903e-04  -4.7683672e-04   4.6281950e-04   1.9229126e-04  -4.1934836e-05   4.7365492e-04   2.7248068e-04  -3.2609732e-05  -6.0238619e-03   7.1781484e-05  -6.7695312e-04   2.8986079e-04  -2.1195853e-04  -4.4839554e-03  -1.5087634e-04   1.0750099e-04
   1.4917567e-04   1.6624799e-04   4.1516603e-04   2.3110415e-04   5.1747059e-04   1.0694251e-04   6.2660442e-04   7.2539160e-06  -7.5696188e-04   9.8238786e-05   2.5668083e-04   1.8794308e-04  -4.3962849e-05  -1.3992074e-04   1.6964678e-04  -2.2842601e-04  -4.3922983e-04  -3.9797690e-04  -7.5242098e-04   7.6511299e-04   9.0810368e-05   5.1551126e-04   1.5237133e-04   5.7765533e-04   3.9967804e-04  -3.2009015e-05  -1.5666102e-04  -1.5957616e-04   1.0518625e-03   9.2931332e-05  -2.0287526e-03   3.7437311e-04   4.2251506e-04  -1.0045182e-04   2.0811809e-05   5.7865743e-04   3.4482701e-04   1.9439710e-04   7.7307130e-05   1.0831389e-04  -5.8167754e-04   2.7115728e-05  -1.0147853e-03   1.7069496e-04  -6.1569757e-05   5.4312459e-05  -1.9317621e-04  -3.0207815e-02   2.1159969e-04  -7.3905733e-07
   2.5274168e-04   2.0498026e-04   4.5569989e-04   2.0965272e-04   6.1851069e-06   3.5471332e-04   5.6522747e-04   1.1920153e-04   7.5534242e-04   1.0199628e-04   1.0966065e-04   9.7425480e-05  -7.7059893e-05  -1.4391755e-04  -1.6771707e-04  -2.9429322e-04  -2.5352670e-04  -3.6964333e-04  -7.2089449e-04   1.2051704e-05   6.4940614e-05   2.4501089e-04  -5.6631601e-04  -2.6226594e-04   6.8045349e-04  -4.5603934e-05  -1.3833561e-04   7.8831392e-05   6.7727693e-04   1.1781434e-04  -9.4374339e-04  -4.0968726e-04   4.1552805e-04   1.3513640e-05   3.8573648e-06   1.7123707e-04   4.5571555e-04   1.3789184e-04   4.2089017e-04   1.0602672e-04   1.7436758e-04  -1.9155547e-04  -2.9723460e-03   1.6292604e-04   5.6443329e-04   5.0693093e-04  -1.2534780e-04   1.1974180e-03   4.2423457e-05  -1.5383061e-04
   1.8615431e-04   1.8915227e-04   3.3113049e-04   1.8979267e-04   1.0859425e-04   5.6511717e-04   6.0527120e-04   2.4152265e-04   1.2004086e-04   1.1596729e-04   1.1510477e-04  -8.3152234e-05  -4.8977672e-05  -1.3392871e-04  -1.5346822e-04  -2.6688533e-04  -2.8419675e-04  -5.8222597e-04   7.3422520e-06   4.1354862e-05   7.3480049e-05   2.3089444e-04   7.6664408e-05  -3.8527450e-04   3.6985986e-04  -7.1037633e-05  -1.4825210e-04  -4.9301452e-05   4.5736681e-04   1.5617372e-04   1.2512106e-03   3.2056874e-04   7.0020527e-04   1.2868369e-04   6.5446162e-05  -1.1546069e-03   6.2241114e-04   1.3249465e-04   3.2731338e-04   5.1632622e-04  -3.7872333e-06   1.6678269e-04   7.5735315e-04   5.3961987e-05   2.9081549e-04  -6.6302637e-05  -1.3616872e-04   5.6139310e-03   1.3088230e-04  -5.9638027e-05
   4.5697478e-04   2.2040869e-04   3.7817250e-04   2.0722103e-04   4.1472347e-05   3.1610412e-04   5.3369423e-04   7.8225962e-04   2.9565403e-04   1.6359778e-04   2.6268099e-04   1.9739413e-04   2.2535587e-05  -1.4307036e-04  -1.6210836e-04  -3.5140011e-04  -3.8682128e-04  -4.6076719e-04   7.9808227e-04   8.3319799e-05   1.1849291e-04   4.2795789e-04   5.1917316e-04   2.1002223e-04   1.2249245e-03   3.8552695e-05  -1.2509270e-04   3.1455151e-05   6.0622190e-04   8.4859945e-05  -2.7596820e-03   2.5069044e-04  -2.2345407e-04  -8.8043438e-05   1.0281846e-04   1.2221223e-03   4.4297479e-04   1.0317086e-04  -1.0996738e-04   8.3567407e-05  -9.2493219e-04  -6.8750713e-05  -5.7302299e-03   1.4135645e-04   2.2248134e-03   6.0714892e-04  -5.5204611e-05  -3.6231810e-03   1.7241696e-04   1.4778877e-04
   1.4585559e-04   1.7542340e-04   2.9700113e-04   2.3011502e-04   1.6924192e-04   2.1367660e-04   2.6933406e-04  -4.2107640e-04   1.3297858e-03   1.7467243e-04   3.2963537e-04   1.5023891e-04   3.6214577e-05  -6.8578207e-05   1.0670763e-04  -3.8213542e-04  -2.6000579e-04  -4.3445206e-04  -5.2831107e-04   2.1416131e-04   1.0536223e-04   1.3421250e-04  -4.4441545e-05  -1.4441862e-03   1.2021801e-03  -4.3658070e-05  -1.3843573e-04   1.5846154e-04   6.1803393e-04   8.6306231e-05  -3.6370559e-04   1.5711445e-04  -3.5850433e-04  -1.0593246e-04   1.3149210e-04   1.0441979e-04   1.6514074e-04   1.1188348e-04   2.5418052e-04   2.3045248e-04   1.3625864e-03   1.3707109e-05  -1.9751946e-03   6.8105895e-05  -2.4395698e-04   2.3623930e-05  -1.2055487e-04  -5.3803208e-03   3.1909591e-04   7.4179748e-05
   2.8757416e-04   2.4380507e-04   5.3662539e-04   2.0501860e-04   1.7950704e-04   4.2638020e-04   2.4376990e-04  -5.0172984e-04   4.5968904e-04   1.4742513e-04   2.4293234e-04   5.7119658e-05  -9.7588825e-05  -5.4973134e-05   2.5611114e-06  -2.1793650e-04  -3.1096669e-04  -2.7111120e-04   7.3880929e-04   1.2903273e-04   1.0092236e-04   3.9644365e-04  -5.9163722e-04  -9.3722122e-04   4.0790276e-04  -1.0142567e-05  -1.3249660e-04   1.2126776e-04   9.3081791e-04   6.1710998e-05  -1.9568608e-03   9.7152486e-04   9.0808542e-05   1.7500871e-04   1.5036808e-04  -3.4210773e-04  -3.6957423e-04   1.0702905e-04   7.3351643e-05   2.9301632e-04  -4.9895793e-04   4.4169428e-05  -2.2831163e-03   1.1701282e-04   5.8101019e-04  -1.9373135e-04  -3.2437616e-05   3.5770908e-03   7.3663337e-05  -3.4767509e-05
   2.7236860e-04   2.5078777e-04   2.8274485e-04   2.2339205e-04   2.6700363e-04   3.8206330e-04   3.2740086e-04   5.0109357e-04  -1.3240891e-03   1.0590086e-04   1.7574310e-04   2.2830076e-04  -8.7394394e-05  -9.0852380e-05  -3.7396843e-05  -2.8115828e-04  -3.0375883e-04  -3.5191089e-04   1.7116074e-03   1.9775868e-04   9.4471274e-05  -5.0335162e-05  -4.4623518e-04  -9.9099893e-04  -4.3825569e-04  -8.9517183e-05  -1.2301050e-04   2.1694695e-04   7.0362986e-04   8.0428123e-05  -1.0138316e-03  -8.8303554e-04   5.8373768e-04   6.3296939e-05   1.5200763e-04   3.6528010e-05   3.2360468e-04   9.2844653e-05   3.4345777e-04  -1.0112522e-04  -3.3770391e-04   1.7545843e-05  -3.7814721e-03   2.6760912e-05  -5.5006280e-04  -1.8463829e-04  -6.6776411e-05  -5.9183049e-03  -1.7674470e-04   7.6898454e-05
   2.1050118e-04   1.9964937e-04   3.0015380e-04   2.5986601e-04  -8.5261643e-05   3.6674200e-04   3.6115973e-04   7.4407173e-04   5.9524726e-04   1.4218515e-04   1.3159429e-04   1.8189952e-04  -1.8350562e-05  -9.3458519e-05  -1.5310731e-04  -2.8106596e-04  -3.0672213e-04  -2.6608727e-04   9.5820508e-04   1.5515045e-04   7.3166491e-05   2.5951613e-05  -7.7498460e-04  -2.0618015e-04   3.1619603e-04   7.2702715e-06  -1.3698077e-04   9.8459886e-06   2.3882801e-04   6.7510518e-05  -1.0337974e-03  -4.8840302e-05   1.4472539e-03   1.9986034e-04   6.4018786e-05   2.7974922e-04  -8.9398251e-05   1.0116747e-04   2.1776179e-04  -1.8958148e-04  -8.9593115e-04   2.5932968e-04  -1.8209575e-03   1.8188146e-04   2.9415012e-04   1.1402438e-04   4.0776180e-05  -1.1712559e-02   6.2946558e-05   3.9402978e-05
   2.6252883e-04   2.0667608e-04   3.7308407e-04   2.1575300e-04   1.5344059e-04   3.4475769e-04   4.5833926e-04   6.8221136e-04   1.5842721e-03   1.2039463e-04   2.0767837e-04   1.7514039e-04   4.6329883e-06  -6.8857924e-05  -5.0003102e-05  -2.8085380e-04  -3.8108032e-04  -4.5205417e-04  -1.6148848e-05   6.9003634e-04   5.3730968e-05   1.1291232e-04   4.9942848e-04  -8.2810840e-04  -3.5491621e-04   7.8458652e-05  -1.2805389e-04   3.2084677e-04   3.9951268e-04   8.2621205e-05  -2.0590462e-03   3.6367503e-04   1.9064431e-04   3.2148982e-04   1.1450791e-04   1.8802719e-04   2.8843609e-05   1.2832612e-04  -7.6799724e-06  -6.2008316e-05   3.2654594e-04  -2.2076167e-06  -8.8921323e-04   1.8597668e-04   1.4206747e-03   3.7506944e-04   7.7155804e-05   3.6525449e-03   1.7319727e-04   6.1866085e-05
   3.0032109e-04   2.3024878e-04   4.6400056e-04   2.0398459e-04   4.7289333e-04   2.2955342e-04   7.5703581e-05   1.1263214e-04   8.2017272e-04   1.1439152e-04   1.9796997e-04   2.3580196e-05   4.8462673e-05  -8.9080509e-05  -7.5149423e-05  -1.9201277e-04  -3.4036377e-04  -1.8608382e-04   7.3651475e-04   5.1427464e-04   7.3517695e-05   2.3470561e-04  -2.8616763e-04   2.1978698e-03  -4.7147350e-04  -3.2160973e-05  -1.4906625e-04   3.2526255e-05   4.6658548e-04   1.2775211e-04  -1.0562901e-05   2.0124855e-04   1.2817010e-04  -1.0126512e-04   5.7328012e-05  -1.0663864e-05   6.1678095e-04   1.5673079e-04   5.7239522e-04  -2.9854220e-04   5.3379819e-04   1.4887513e-04  -6.2357038e-03   2.4754583e-04  -4.5742653e-04   2.9052806e-04  -1.3729601e-04   6.4027719e-03   8.7843044e-05   3.3016207e-05
   2.7945786e-04   2.7641631e-04   9.0708665e-05   2.3681899e-04   6.5690756e-04   3.3795219e-04   2.5465313e-04  -2.1614596e-04   1.8053895e-03   1.0211494e-04   1.6829331e-04   1.4739974e-04  -1.1349412e-05  -7.8073790e-05   5.4865224e-05   3.2817090e-05  -1.7440194e-04  -3.4154809e-04   7.6751725e-04   5.8347610e-04   5.8071713e-05   4.5587280e-04   1.1212323e-03   2.8748444e-04  -1.2910724e-04   3.3799202e-05  -1.5461651e-04   1.1197801e-05   5.7693943e-04   1.0565481e-04   2.3639119e-04  -1.5953025e-04   1.7861233e-04   9.5327530e-05   6.2505809e-05   6.4475671e-04   7.4435964e-05   1.2439927e-04   8.5493608e-05  -2.1203567e-04   4.0278817e-04   7.7007615e-05   3.9038965e-03   1.8207078e-04  -9.8787749e-04   4.7930729e-04  -1.7851622e-05   7.7538476e-03   1.6361634e-04   4.1155356e-05
   2.8187750e-04   2.0558805e-04   4.2092692e-04   2.0619464e-04   1.3206423e-04   3.1110653e-04   3.7012645e-04  -3.6304747e-04   4.0105797e-04   1.5044442e-04   1.9988760e-04   7.4082076e-05   1.2946351e-06  -2.0590147e-05  -1.3516650e-04  -1.9766188e-04  -2.8720434e-04  -3.9261591e-04  -7.8005652e-04   3.3295798e-04   5.9027047e-05   3.9598886e-05   8.1031467e-04  -6.7752920e-04   1.1500862e-04   1.7706178e-04  -1.6636400e-04   2.2543830e-04   4.4783694e-04   1.1623189e-04  -5.3756835e-04  -5.2649464e-04  -3.2124840e-06   3.6755344e-04   3.4550460e-05   4.3829071e-04  -2.1781951e-04   1.6606769e-04  -3.1558840e-05   1.1353567e-05   1.2438300e-04   1.6812932e-04  -3.5517300e-03   7.3768424e-05  -7.0871058e-05  -1.6901011e-05   7.2677460e-05  -1.3190895e-02   2.0587625e-04   4.7036676e-05
   2.8459792e-04   2.1688243e-04   6.2161899e-04   2.3768705e-04   8.9200854e-05   3.5908396e-04   4.6534397e-04  -1.7625745e-04   1.4979140e-03   8.9839654e-05   1.8038905e-04   6.1129074e-05   5.9502436e-05  -7.5049938e-05   1.4304050e-05  -3.8697393e-04  -2.3901720e-04  -5.3481862e-04   3.7963010e-04  -4.6284861e-04   8.5884712e-05   3.5580661e-04  -1.8843112e-04   5.5397372e-04  -1.0645086e-03   1.8877449e-04  -1.4225929e-04  -1.2093119e-04   4.4269217e-04   1.1178133e-04   2.0337753e-05   2.8212718e-04   2.7263732e-04   8.7859014e-05   3.3917877e-05   2.1796042e-04  -1.6876380e-04   1.5439975e-04   1.3300370e-04   5.2451977e-04   1.4581767e-05   1.9097704e-04  -5.9993081e-03   1.3874064e-04  -1.0667847e-03  -1.0152692e-04  -2.2047632e-06   3.3651402e-03   9.5764663e-05   1.1414483e-04
   2.4406072e-04   2.4551395e-04   4.0724716e-04   1.7823931e-04   1.9867600e-04   4.5532364e-04   2.7599497e-04   3.1642197e-04   1.5517056e-03   1.1335371e-04   2.2474534e-04  -2.1774278e-05   1.5384487e-04  -4.3955348e-05   3.6608475e-05  -2.1524938e-04  -2.6124856e-04  -2.8471916e-04   1.0740718e-04   7.3252368e-04   8.5496125e-05   1.7496063e-04   6.0618826e-04   4.7147795e-04   5.8725005e-04   1.2790327e-04  -1.3772570e-04   3.1666616e-05   2.8264103e-04   1.0848100e-04  -6.8006810e-04   1.2268710e-03  -3.3769934e-04   2.4682665e-04   5.7595815e-05   1.9425618e-04   1.9082594e-04   1.4782838e-04   5.4974549e-05   4.0329480e-05  -5.3429022e-04  -1.6517899e-05  -7.7879140e-03   8.4867970e-05   7.4845215e-04  -9.6494259e-06   1.1765234e-06   5.7766545e-03  -2.8410196e-04   5.9517770e-05
   3.8331246e-04   2.7337615e-04   1.6319931e-04   2.1124452e-04   1.2984192e-04   1.7553208e-04   3.8383045e-04   1.3658950e-04  -7.3826255e-04   1.2998156e-04   1.9153813e-04  -1.9147753e-04  -2.4564444e-05  -5.6514738e-05   1.1089030e-04  -1.2397286e-04  -2.4080837e-04  -3.0898757e-04   4.7674178e-04   4.5227804e-05   6.4090003e-05   3.0109228e-04   4.3262154e-04   1.3516280e-04  -1.0077739e-03   6.5317974e-05  -1.4174120e-04   1.5617508e-04   5.3253112e-04   9.7269738e-05   6.4831320e-04   5.8639073e-04   6.2560698e-04   1.8999554e-04   3.1858621e-05  -7.2453076e-05   2.6919518e-04   1.3151451e-04   2.4107246e-04   1.5790455e-04  -2.3214736e-04   6.9108406e-05  -3.3645038e-03   9.9164165e-05  -2.0424834e-04  -1.5680485e-04   3.5929832e-05   2.6528597e-02  -9.1903239e-05   1.7976316e-04
   2.7545189e-04   2.7272294e-04   2.9636256e-04   2.5717285e-04   4.2572858e-05   4.8406483e-04   3.8982768e-04   2.0013825e-04   1.1010851e-03   1.6493340e-04   1.3474262e-04  -8.1618768e-05   2.4609068e-05  -4.7170233e-05   1.2668357e-06  -3.0287547e-04  -2.6470373e-04  -2.6754173e-04  -1.9406933e-04   9.2069316e-04   7.3727184e-05   3.8950203e-04   6.8261533e-04   3.9509282e-04   9.1521368e-05   1.5259278e-04  -1.2972734e-04   1.0440578e-04   8.9701207e-04   1.2795744e-04   1.3712279e-03   9.7889325e-04  -1.0338611e-03   1.3556941e-04   3.2865206e-05  -9.1678323e-04   4.5317583e-04   1.2673109e-04   2.5243583e-04  -1.4431853e-04  -3.5859335e-05   1.7672639e-04  -2.0195674e-03   1.8322327e-04  -4.9061287e-04  -6.8512131e-06   5.3624379e-05   3.9026068e-05  -7.9596080e-05  -3.5868241e-05
   3.5493745e-04   2.4747229e-04   2.8625739e-04   2.2599062e-04   1.0149656e-05   2.6439445e-04   4.8383992e-04   3.9569393e-04   3.4018492e-04   1.8140500e-04   1.5109409e-04   2.3995897e-04   5.9512331e-06  -4.3280379e-05  -1.4675263e-04  -4.2283069e-04  -2.5491026e-04  -3.8567951e-04   8.4425800e-04   8.3270961e-06   6.9649352e-05   3.2500867e-04  -1.4723070e-05  -1.6714464e-04  -8.3216984e-04   1.5442002e-04  -1.4570905e-04  -1.4383772e-04   2.6292019e-04   1.0266593e-04  -5.8887370e-05  -1.3075648e-04   1.9243524e-04   7.1667979e-05   4.4729357e-05   4.0459848e-04   4.4377695e-04   1.3567382e-04   3.5982390e-04   6.7468209e-05   7.1482325e-04   1.1519504e-04  -4.3296274e-03   1.2381011e-04   5.0056161e-04   1.8069404e-04   5.4564272e-05  -1.2321757e-02   2.5115474e-04   1.4252974e-04
   3.0217940e-04   2.2446398e-04   1.9281397e-04   2.2836283e-04   3.7295657e-05   1.9761957e-05   4.4563410e-04   3.5597431e-04   2.2171892e-04   1.5658156e-04   1.4429577e-04  -1.8337071e-04   9.1312220e-05  -2.2071456e-05  -1.8157312e-05  -2.8625989e-04  -3.2534738e-04  -2.3335773e-04  -1.6341834e-04   1.4310588e-04   3.7509664e-05   4.6243757e-05   2.8968928e-04   4.6879804e-04  -1.2100297e-04   2.0681272e-04  -1.3964198e-04   2.1032033e-04   1.0082776e-03   1.0349342e-04  -5.5181899e-04  -2.3809896e-04   9.2364784e-04  -1.2149481e-04   3.5270608e-05   2.6288057e-05   1.2127319e-04   9.8604367e-05  -4.4136017e-05   8.9482193e-05  -1.1440055e-03   2.0132567e-04   7.1367035e-03   3.8183462e-05  -3.1311531e-04   2.4719143e-04  -2.7128403e-05   4.3459674e-03   3.7258997e-04   1.8602781e-04
   3.2593450e-04   2.4438387e-04   2.0540314e-05   2.2695972e-04  -2.2589589e-05   4.5402301e-04   4.4803016e-04  -4.7089052e-04   8.9060108e-04   1.5371451e-04   2.7065756e-04  -4.3812077e-05   6.5102227e-05  -6.0228234e-05   1.8373763e-05  -3.4911558e-04  -2.2148607e-04  -3.0704297e-04   1.1790537e-03   3.3349299e-04   7.0026195e-05   3.3348301e-04  -1.1244330e-04  -9.8733429e-04  -4.3551531e-06   1.0859506e-04  -1.2340023e-04   1.7100819e-04  -4.8218411e-05   1.3641370e-04   1.3898069e-03   2.1801534e-04   3.0134426e-04   4.7937301e-05   2.5917525e-05  -2.2742624e-04   1.3635052e-06   1.1167287e-04   4.3947971e-04   2.1867652e-04   1.1823300e-03   3.0728005e-04  -3.5642595e-03   2.1805987e-04  -3.4648736e-04  -1.1297299e-04   7.2920462e-05  -1.6353263e-02   2.8191350e-04   6.1767954e-05
   3.1470470e-04   2.2578469e-04   3.8588123e-04   2.3335651e-04   9.9847357e-06   2.6961783e-04   4.3922392e-04   7.5716752e-04  -6.7822740e-04   1.9038936e-04   2.6013696e-04   5.3757369e-05  -1.4782739e-05  -7.0776645e-05  -1.7845266e-05  -2.2668325e-04  -3.7760087e-04  -3.5967267e-04  -2.1627068e-04   2.4383049e-04   5.6115598e-05   2.9184273e-04   1.0488756e-04  -1.6693757e-03   2.2612626e-03   2.1844570e-04  -1.1280731e-04   7.0084738e-05   3.1196271e-04   1.1049966e-04  -8.8447414e-04  -4.0746891e-04   7.2425720e-04  -1.8665587e-04   4.8184429e-05   8.6926593e-04   5.7483691e-04   1.6874133e-04   2.7401140e-04   1.9420438e-06  -4.9184007e-04   9.7836877e-05   2.2206006e-03   2.1611320e-04   1.5734449e-03   3.2164840e-04   7.8012461e-05   1.1634921e-02   1.4094700e-04   3.2196760e-05
   3.2022345e-04   1.9955773e-04   4.1283690e-04   2.2550298e-04   5.0307121e-05   3.3097778e-04   4.3014268e-04   9.0181554e-04  -4.2212050e-04   1.3812186e-04   2.0891700e-04   1.2697592e-04   1.8900539e-05  -4.2719905e-05   1.8333492e-05  -2.9351414e-04  -2.7129884e-04  -2.2243769e-04  -9.1078400e-04  -2.6798618e-04   9.2875358e-05   1.2610487e-05  -3.1329450e-04  -5.0953345e-04   8.3230516e-05   2.1246265e-04  -1.5456110e-04   1.0559704e-04  -2.3466353e-04   1.2157067e-04   7.2570617e-04  -2.0568852e-05  -1.1756121e-03   1.4709512e-04   9.0898160e-05   4.0544278e-04   6.8744743e-04   1.1169759e-04  -7.1612987e-05   3.0489964e-04   4.7099855e-04   1.5344808e-04   7.4602547e-04   1.2461178e-04   1.2489231e-03   5.5647071e-04  -7.5935022e-06  -3.6464843e-03  -1.0604155e-05  -3.8890350e-05
   2.2622000e-04   1.9225890e-04   4.9511861e-04   2.1803481e-04   3.2250048e-04   3.5034024e-04   3.4922941e-04  -2.9801694e-04  -1.2846073e-03   1.3795214e-04   1.9879230e-04  -1.6770899e-04   4.3577300e-05  -2.6482716e-05   7.5467695e-05  -3.2986409e-04  -2.4756984e-04  -3.1655078e-04   6.4079941e-04  -3.7118352e-05   5.0138689e-05   1.3436942e-04   2.0162418e-04  -7.5933797e-04  -5.2483485e-04   1.5871461e-04  -1.2266541e-04  -8.5859538e-05   6.6105102e-04   1.0203536e-04  -8.5770665e-04   5.6930189e-04  -5.3249521e-04   6.3503081e-05   1.1049490e-04   6.5000972e-04   9.6683088e-04   1.4923672e-04   2.9964064e-04   5.0931971e-04   4.2258421e-04   2.3151170e-04   1.0195188e-02   6.1178049e-05   3.9504463e-04   3.3097804e-05  -8.0895647e-05   2.6754832e-03  -3.8528069e-05   7.8679968e-06
   2.5570631e-04   2.2765841e-04   7.9805279e-05   1.4854113e-04   2.7346105e-04   4.1893654e-04   3.3453462e-04   1.4402375e-03   1.2072296e-03   1.1193896e-04   1.0782167e-04   4.8822083e-05   9.2891045e-05  -9.7159284e-07  -3.7033991e-05  -1.8872648e-04  -1.6740820e-04  -4.7445379e-04   1.7975847e-04   4.9806968e-04   3.3366021e-05   2.9512303e-04   1.2364167e-03   1.5649066e-04  -9.1902516e-04   2.2506935e-04  -1.4760284e-04  -6.4235777e-05  -8.8166993e-04   1.1705417e-04   6.5757864e-04  -1.0985656e-03  -1.1410190e-03   1.1451770e-04   7.0440627e-05  -4.4221061e-04   3.3213411e-05   9.6528303e-05   4.4475283e-04  -7.0812953e-06   1.4905449e-03   1.0139190e-04  -1.2852149e-03   1.9159343e-04  -8.6494087e-04  -2.5886143e-04  -7.6791825e-05   3.0192074e-03   1.5763687e-04   1.6586613e-04
   2.8746240e-04   2.5863328e-04   2.4598138e-04   1.8680042e-04   1.3099327e-04   3.1217793e-04   4.1538634e-04  -2.5939097e-04   6.5919099e-04   1.4463662e-04   1.6994918e-04   3.9425220e-05   1.1458420e-04  -4.5593086e-05  -5.6366007e-05  -1.4566469e-04  -2.5639898e-04  -4.4151550e-04   5.6522171e-04  -4.6237645e-04   6.2335101e-05   6.3568477e-05  -1.4103451e-04  -1.2970368e-03  -7.3986179e-05   3.4966852e-04  -1.6252814e-04   2.9377823e-04   3.4634551e-04   1.0739044e-04   1.9337503e-03   5.1737603e-05   1.8444187e-04   9.2175687e-05   7.6857883e-05   4.1154135e-04  -1.9864028e-04   1.9991114e-04   1.3711362e-04   3.0654999e-05   1.4796486e-03   8.1339611e-05   1.5286612e-03   1.5140549e-04   1.7317926e-03   3.4150295e-04   1.7200713e-05  -5.8261573e-04  -5.2437659e-05  -8.5136540e-05
   2.3177783e-04   2.1673800e-04   2.2389561e-04   2.0807903e-04   4.9479328e-05   2.7072665e-04   3.8139464e-04  -1.1688771e-03  -3.3320719e-04   1.1689311e-04   1.3528613e-04  -3.9012855e-05   1.0456666e-04  -9.3528779e-06   1.4069475e-05  -3.2895981e-04  -1.3806869e-04  -3.3198047e-04   1.7021646e-03  -5.7253979e-05   7.0381320e-05   7.8969439e-05  -2.9208773e-05   3.7731796e-03   8.3983579e-04   3.2867881e-04  -1.4916019e-04  -3.2032105e-05   2.1505810e-03   1.1506319e-04  -7.0241943e-04   8.6794666e-04   1.1451861e-03  -5.0310216e-05   3.0571216e-05  -7.4529665e-04   6.8569608e-04   1.3098784e-04   8.4154039e-05   7.2629955e-05  -1.1652404e-03   1.1768781e-05  -5.9598624e-03   1.2726439e-04   2.5459877e-04   2.0636272e-04  -7.2347830e-05   2.2699789e-03  -8.0209116e-05   2.9468096e-05
   2.2510350e-04   2.6018338e-04   1.8455047e-04   1.8415060e-04  -1.1758861e-04   2.4000666e-04   1.6830263e-04  -4.0452153e-04  -9.5832220e-05   1.1393536e-04   1.6157349e-04   4.6024255e-05   1.6942585e-04   1.7726148e-05   7.5090749e-05  -9.1787821e-05  -1.4323705e-04  -2.8250227e-04  -1.5527374e-04   2.3028580e-04   4.9317059e-05   1.5621883e-04   3.1344858e-05  -5.3253134e-05   9.1596181e-04   2.8757300e-04  -1.3681900e-04  -1.0565452e-04   3.9325524e-04   7.2521252e-05   1.7167825e-03  -2.8026209e-04   4.9057428e-04   1.1403872e-04   1.1436180e-04  -2.7765401e-04   4.1925535e-04   9.5102994e-05   1.3350025e-04   5.8453332e-04   4.6763380e-05   3.0006873e-04  -4.8648370e-03   4.8738634e-06  -9.6902874e-04   4.3940981e-04  -1.0179746e-04  -5.1681311e-03   4.5913484e-04   1.1707258e-05
   1.7824915e-04   1.8392116e-04   3.6903072e-04   1.9479237e-04   3.3121195e-04   3.0365461e-04   5.2491075e-04  -1.5251944e-04   3.5891563e-04   1.3230655e-04   6.3344385e-05  -1.5065554e-04   6.3349282e-05   1.8647141e-05  -9.3648696e-06  -2.0253440e-04  -2.4049818e-04  -1.4895410e-04  -8.4718416e-04   4.1505464e-04   5.5185188e-05   3.5666599e-04  -3.7395471e-04  -5.1363633e-04   8.0370368e-04   2.2125426e-04  -1.0279563e-04  -3.9020466e-05   6.5011904e-04   8.6282118e-05  -1.1084116e-03  -2.9651046e-04   5.8251515e-04   5.9388785e-05   5.8567490e-05   2.9371472e-04   3.3574231e-04   1.2230556e-04   1.4371552e-04   1.2134890e-04  -4.7169617e-04   6.6937479e-05   1.7257659e-03   1.1827545e-04   2.1950503e-04   2.7653229e-04  -1.0024657e-04   1.9101832e-03   3.0729519e-05  -4.9984861e-05
   3.2885143e-04   2.3363557e-04   1.0313489e-04   1.6899801e-04  -2.8267010e-05   4.0548897e-04   5.7314313e-04  -9.2022493e-04  -3.8278237e-04   1.1645435e-04   1.3198066e-04  -4.9703402e-05   1.1097328e-04  -1.8486653e-05   1.1167435e-04  -3.0921231e-04  -2.6641318e-04  -1.7349796e-04  -3.3918355e-04  -2.5972474e-04   4.0651103e-05   4.7683931e-04   1.8593988e-04   1.5483717e-03   1.5316132e-03   3.0924278e-04  -1.3349706e-04   1.3016835e-04   4.3609555e-04   7.4689560e-05   2.7670944e-04   8.6333434e-04   2.7711404e-04   2.5531129e-04   4.1668307e-05   5.4254220e-04  -2.4822706e-04   1.3292948e-04   9.9804711e-05   4.5453467e-05  -2.9684792e-04   2.2533860e-04  -3.0489687e-03   2.9866853e-06  -4.0257911e-04   2.0856534e-04   7.8536978e-05   1.0287696e-02  -6.0350114e-05   1.6128311e-04
   2.4641384e-04   2.2958312e-04   1.1985521e-04   2.1752930e-04   2.3211572e-04   6.5930595e-04   1.7577247e-04   1.6363779e-04  -1.0109513e-04   1.3052647e-04   2.1111747e-04   1.7948753e-04   1.1492716e-04   4.3942044e-05   1.3288758e-04  -1.6026094e-04  -2.0804585e-04  -3.2309658e-04   3.3101544e-04  -2.3617047e-04   1.0440261e-04   1.8045126e-04   7.5990881e-04  -4.3158070e-04  -5.2670133e-04   3.4606995e-04  -7.5071148e-05   4.9826672e-06   2.8045388e-04   8.7114568e-05  -7.1647525e-04  -4.2947487e-04  -6.3502736e-04   2.4169629e-05   1.3441058e-04  -9.6004915e-05   7.1887556e-04   1.2380250e-04   2.8603751e-04  -9.7860044e-05   3.2258153e-04   2.7341133e-05   8.6247595e-03   1.3212299e-04   6.7672669e-04   4.4827719e-04   2.7682290e-05  -2.3921208e-02  -1.0601889e-04   1.8272095e-04
   2.5064693e-04   1.4754101e-04   2.3073977e-04   1.7153248e-04   1.6732619e-04   2.2112766e-04   4.4186894e-04  -9.3791180e-04   3.1679223e-04   9.2286398e-05   1.8046760e-04   1.1204812e-04   1.4165844e-04   3.3340202e-05   1.1096607e-04  -9.5656302e-05  -1.9161878e-04  -2.4608528e-04   5.5270549e-04   3.1858202e-04   8.0971236e-05   6.8359317e-05  -5.4769953e-05   1.1360541e-03  -2.7384894e-04   3.0836475e-04  -1.0791192e-04   1.0725111e-04   6.9690560e-04   6.8382549e-05  -1.3882180e-03   9.0189342e-04   2.1828376e-04   2.1828324e-04   1.0272386e-04  -1.2017674e-04  -2.2185931e-04   1.1020796e-04   5.4632596e-06  -7.0511604e-05   6.1258918e-04   2.9195184e-04   2.2830688e-03   1.1629290e-04   5.0691608e-05   8.6041749e-05  -4.1228683e-05  -2.5830346e-03  -1.0529121e-04   6.4221691e-05
   2.4158866e-04   1.7148587e-04   1.5136525e-04   1.7884822e-04  -5.6013832e-06   1.8910914e-04   3.9554693e-04  -5.4907595e-04  -3.3956347e-04   8.9021960e-05   1.3944862e-04   2.0247064e-05   9.5373172e-05   2.7416705e-05  -2.0978765e-05  -1.4731553e-05  -1.2982602e-04  -1.9149322e-04   1.7855255e-03   1.8895439e-04   5.8331058e-05   2.8591843e-05  -1.7126434e-04  -7.0053054e-04   1.8616299e-04   2.3443096e-04  -1.0156842e-04   7.1045135e-05  -5.5533761e-05   6.6419598e-05  -1.9289498e-03   6.3230771e-05  -3.9335305e-04   2.2140294e-04   1.5559295e-04  -1.8715978e-04   6.3320878e-04   9.7243392e-05  -3.0754550e-04   3.5721346e-04  -3.6422483e-04   1.3954943e-04   5.0670370e-03   1.1752988e-04   1.1965070e-04  -2.8558756e-04  -1.0459803e-04   5.4988433e-03   1.2988922e-04  -8.1826721e-07
   3.1975145e-04   1.6588865e-04   3.6751560e-04   1.5705837e-04   6.1112885e-05   2.8697503e-04   9.6892218e-05  -1.0021841e-03  -1.2105050e-03   1.2938895e-04   7.5217904e-05  -4.5597688e-05   3.6545800e-05   2.6045602e-05   1.5040413e-04  -2.6006525e-04  -2.3546172e-04  -3.1896940e-04  -1.3755518e-04   4.7106805e-04   1.8567196e-05   3.6462431e-04   6.0528569e-04  -1.0141599e-03  -1.2194927e-05   3.0334745e-04  -9.9492871e-05   1.4412170e-04   2.8270992e-04   8.1933191e-05  -1.5665177e-04   3.9290776e-04   1.5474614e-04  -1.5411027e-04   9.6037773e-05  -6.4088649e-04  -3.2900026e-04   1.6454469e-04   2.3613761e-04  -5.2781877e-05   1.9852761e-05   7.1779032e-05  -6.7725196e-03   3.0288789e-05  -8.9098474e-05  -1.3934236e-04  -5.4115328e-05   1.8537611e-02   4.4620904e-04  -6.1496874e-05
   3.4505335e-04   1.7702849e-04   5.2877917e-04   2.0978761e-04   1.0277561e-05   2.2576445e-04   4.4145333e-04  -2.9367057e-04  -7.0157344e-04   1.2458512e-04   1.2735490e-04  -7.8483448e-05   6.2096900e-05   3.9852421e-06   7.0964525e-05  -2.0144340e-04  -9.1430389e-05  -1.8337664e-04   6.9286943e-05   4.9274736e-06   9.6643380e-05   2.8632578e-05   2.3232053e-04  -5.7674840e-04  -9.3258997e-05   3.6329453e-04  -9.9422687e-05  -3.8597485e-05   1.3287780e-04   7.5589895e-05   9.9986338e-04   2.8138832e-04  -2.3822358e-04   1.1219504e-04   1.0234414e-04   1.0285800e-04   4.6636985e-04   8.6156404e-05   5.1426490e-05   3.0715528e-04  -1.7947824e-04   3.2589647e-05   4.2778803e-03   1.1077557e-04   6.0071709e-04   5.2334861e-05   2.1862692e-05   1.5112342e-03   3.8176488e-05   2.6475181e-04
   1.8777087e-04   1.5388403e-04   3.4205301e-04   2.0163586e-04  -2.6142519e-04   1.1086407e-04   1.5681030e-04   4.1847874e-04   1.1316210e-03   6.8541129e-05   1.3173073e-04  -1.8462897e-04   1.6166440e-04  -4.4859676e-06  -9.4458643e-05  -2.5464539e-04  -1.7776444e-04  -3.8305498e-04   6.0669490e-04  -2.1497167e-04   8.4993095e-05   2.3944647e-05  -1.0035937e-04  -3.2782616e-04  -1.6347472e-04   1.7564921e-04  -1.3171650e-04   1.7363291e-05  -4.6118663e-04   7.9176083e-05   1.4030671e-03  -9.1496273e-04  -4.6095264e-04   1.0908297e-04   8.4717030e-05  -8.1579259e-04   3.2773038e-04   7.6816359e-05  -6.7880668e-05   5.8603066e-04   4.6669348e-04   1.1024192e-04  -6.2426114e-03  -4.3262746e-05   1.5779748e-03  -1.4708815e-05  -3.0467083e-05   1.5753217e-02   5.6098426e-05  -1.0855317e-05
