  -6.9410884e-04   3.7380031e-04   5.0835084e-04  -5.1710656e-04   2.9712159e-04  -4.2118630e-04  -3.3192403e-04  -1.0380793e-03  -1.7445093e-03  -2.1561147e-03  -1.2538407e-03  -1.1719639e-03   1.5947733e-03  -2.9676253e-04   1.5203119e-03  -6.6253269e-04   4.4770693e-04   1.6679985e-05  -1.6936456e-03  -5.9856870e-04  -3.9802957e-04  -7.6947897e-04   2.7168184e-03  -5.0715175e-03   2.6344263e-03   1.4014648e-03   5.8921636e-04  -5.3093524e-04  -9.3698240e-04  -8.4880868e-04   6.8377348e-04  -1.5008055e-03  -1.2515611e-03  -2.0130014e-03  -8.0626737e-04  -1.2487632e-03  -5.8002427e-04  -9.4465120e-04  -6.8866910e-04  -4.6614901e-04  -1.2509996e-03  -6.1457773e-04   6.0961407e-04  -6.1805238e-04  -2.0607014e-03  -4.2974751e-04   5.6527584e-04   7.7725346e-03  -5.6266488e-04  -2.1321535e-04
   5.3968302e-05   8.8379550e-04   6.6548563e-04  -6.2952538e-05   9.5405744e-04  -2.4900289e-04   7.1075647e-06  -2.9186911e-05  -7.6349708e-04  -1.5407805e-03  -9.9133211e-04  -6.0539250e-04   1.6822689e-03  -3.2783375e-04   1.9618862e-03  -5.1507953e-04   4.1641443e-04  -1.5550019e-04   4.0254259e-04  -5.6462403e-04   3.3979572e-04  -8.6362095e-05   3.2686824e-03  -1.9345109e-03   2.5983339e-03   1.6800495e-03   6.2649278e-04   1.9992232e-04  -1.3278129e-03  -4.3467377e-04   1.7152565e-03  -1.4458507e-03   2.5859076e-04  -1.4774164e-03  -4.8585300e-04  -1.0713766e-03  -7.5384579e-04  -3.6116206e-04  -1.4569947e-04  -2.6242292e-04  -6.0999431e-05  -5.1949802e-04   4.0931865e-03  -4.5720648e-04  -7.7446771e-04  -2.2522939e-04   6.1171287e-04   3.0545492e-02  -8.3240354e-04  -1.7675111e-04
   1.4842029e-05   9.4950240e-04   6.4978708e-04  -7.0452923e-05   6.1821379e-04  -2.6762957e-04  -1.4146886e-04  -1.3799900e-03  -1.3456808e-03  -1.6567602e-03  -1.0274299e-03  -7.7576225e-04   1.6998204e-03  -2.8004311e-04   1.6940502e-03  -7.5684785e-04   4.0873504e-04  -2.5794742e-04   8.2388008e-04  -1.4650822e-04   2.1099926e-04  -3.0438771e-04   2.2248679e-03  -7.2023715e-04   3.7346028e-03   1.6191789e-03   6.0743775e-04   4.3882450e-04   1.7435459e-05  -5.1474140e-04  -1.2124367e-03  -1.0079101e-03  -5.3379830e-04  -1.8001003e-03  -4.4291100e-04  -1.0167683e-03  -4.9090188e-04  -4.3790095e-04  -6.7203125e-04  -1.9394369e-04   9.6971744e-05  -5.3634733e-04   8.5641025e-03  -5.5113464e-04   8.6052954e-05  -5.7435659e-04   3.7675066e-04   4.1019350e-02  -6.1621913e-04  -1.6152648e-04
  -3.4817655e-04   5.5354164e-04   1.5049679e-04  -4.1730682e-04   5.4656743e-04  -6.3371990e-04  -3.5146796e-04  -4.7730777e-04  -1.2250626e-03  -2.0053328e-03  -1.2512828e-03  -1.2033106e-03   1.6861125e-03  -3.2273016e-04   1.6600189e-03  -8.2625792e-04   5.1203300e-04   2.7406437e-04  -1.5750467e-03  -8.4566977e-04  -1.2904599e-04  -3.9457271e-04   2.6296289e-03  -7.0882728e-04   3.9043443e-03   1.7016296e-03   5.5384485e-04  -2.9707613e-04  -1.5905907e-03  -7.1000599e-04  -1.2505734e-04  -1.2937284e-03  -1.4016777e-04  -1.7063626e-03  -7.2536385e-04  -1.5900398e-03  -4.5342499e-04  -7.8954000e-04  -7.3890650e-04  -1.1767059e-03  -1.4210959e-03  -7.3071202e-04   2.7181492e-03  -8.7107701e-04  -1.2699366e-03  -1.2276008e-03  -2.1597378e-05  -2.9722259e-03  -1.0503220e-03  -6.6333811e-04
  -9.6577051e-04   1.0465420e-04  -2.4063827e-04  -7.5123343e-04   1.8568462e-04  -6.3005480e-04  -4.8525559e-04  -7.9972594e-04  -2.6539669e-03  -1.9719040e-03  -1.3148194e-03  -8.2213193e-04   1.6754357e-03  -3.9167449e-04   1.7500727e-03  -1.1282060e-03   1.6428161e-04   1.2791228e-04  -9.2431967e-04  -4.0516324e-04   3.7102686e-04  -2.8734605e-04   2.8341268e-03  -2.1029264e-03   2.1389720e-03   1.6892711e-03   4.8705871e-04  -1.0715257e-04  -1.3118924e-03  -4.6220724e-04   2.9054576e-05  -8.9839840e-04   5.5487268e-05  -1.4389671e-03  -3.8447449e-04  -5.4708950e-04  -1.6287778e-04  -1.9186967e-04  -1.1108127e-04  -6.8436557e-04  -2.2990196e-03  -5.6645006e-04   6.8482659e-03  -3.4392870e-04  -1.8199865e-03  -6.0400384e-04   4.1350172e-04   1.5621340e-02  -8.2341838e-04  -7.1211201e-05
   3.0997267e-05   1.0715188e-03   6.7561079e-04  -1.3225180e-05   6.0809287e-04  -1.1212137e-04   2.3206297e-04  -7.1175920e-04   7.8472408e-04  -1.5516845e-03  -1.0317470e-03  -3.2795436e-04   1.7060379e-03  -3.2738096e-04   1.8559890e-03  -6.4929191e-04   3.3882787e-04   1.6473097e-04  -1.7013025e-03  -3.9001618e-04   5.1711139e-04   2.1432832e-04   3.3136485e-03  -2.6385160e-03   4.7646514e-03   1.6552396e-03   5.8265764e-04   3.1157615e-04  -5.8857934e-04  -3.9082274e-04   3.5622481e-03  -8.6130184e-04  -4.6581312e-04  -1.6367978e-03  -3.7933578e-04  -5.3100282e-04  -4.9407239e-04  -2.1397120e-04  -4.0997111e-04  -2.6377232e-04  -5.9704995e-04  -4.1561588e-04   6.3427230e-03  -4.2649978e-04  -2.3320840e-04  -1.2252986e-03   3.3031229e-04  -7.3087481e-03  -9.4534742e-04  -8.3443183e-06
  -8.0353793e-06   8.0782670e-04   5.7991862e-04  -2.2037579e-04   8.1816205e-04  -6.1714338e-05  -3.1804762e-04  -5.9979421e-04  -1.3378288e-03  -1.7886313e-03  -1.1414838e-03  -7.4715575e-04   1.7432552e-03  -2.0383444e-04   1.7893130e-03  -5.9668859e-04   4.0388151e-04   1.3212500e-04   7.7594124e-04  -7.6582259e-04   1.4830248e-04  -4.0314818e-04   2.3161159e-03  -3.3229365e-04   4.5445915e-03   1.7845328e-03   6.4075540e-04   2.2552378e-04  -6.4197899e-04  -6.2394928e-04   1.9496190e-03  -1.3070572e-03  -2.8409291e-04  -1.3264344e-03  -5.4949307e-04  -1.2875656e-03  -4.1075493e-04  -5.3930015e-04  -4.7691190e-04  -1.1090767e-03  -1.1989225e-03  -6.7536690e-04   6.5184361e-03  -6.2716880e-04  -2.2972075e-03  -1.0814180e-03  -5.1738689e-06   9.0589067e-03  -7.0023182e-04  -4.1751406e-04
  -1.0011524e-03   3.3233105e-04  -9.7568291e-06  -6.1892916e-04   5.8463169e-04  -6.0812844e-04  -6.6244463e-04  -3.1286292e-04  -8.1914320e-04  -2.3315579e-03  -1.4226522e-03  -1.0991731e-03   1.6462165e-03  -4.4350591e-04   1.4083111e-03  -8.8451977e-04   5.0782389e-04  -1.0572991e-05   8.0333157e-05  -1.1473031e-03  -4.2320287e-04  -8.1202260e-04   3.1603959e-03  -1.6679129e-03   4.6078833e-03   1.7061676e-03   5.7338900e-04  -5.9330341e-04  -1.5888959e-03  -7.8579894e-04  -5.8913737e-04  -1.0500845e-03  -4.6028598e-04  -1.9455538e-03  -7.3982554e-04  -1.0171286e-03  -8.3470118e-04  -8.4649044e-04  -9.1043848e-04  -1.1541890e-03  -5.1264709e-04  -5.7039200e-04  -2.7327181e-04  -6.8842719e-04  -1.6812995e-03  -8.1891415e-04   2.8704546e-04  -2.2393056e-04  -8.7607914e-04  -3.7759382e-04
  -9.6377706e-05   8.8632345e-04   6.5511279e-04  -1.3820153e-04   8.2307518e-04  -3.8519673e-04  -1.0614785e-04  -1.3774020e-03  -1.4304082e-03  -1.4202429e-03  -1.1403289e-03  -4.5529587e-04   1.8443671e-03  -1.9181543e-04   2.2198299e-03  -5.3002947e-04   6.5848086e-04   5.4057129e-04   1.5574115e-03  -1.2953952e-04   5.6436134e-04  -9.8528317e-06   2.9282081e-03  -8.7462722e-05   2.6268871e-03   1.8952254e-03   8.7387825e-04   2.9824438e-04   3.5237303e-04  -3.9712284e-04   1.9237743e-04  -2.0147960e-03   1.1880165e-03  -1.3134256e-03  -3.3621144e-04  -5.6727085e-04  -7.1892882e-04  -2.4738701e-04  -1.6388785e-05  -1.9807027e-04  -2.3614534e-03  -4.4570869e-04   7.2801616e-03  -3.7384531e-04  -1.0893912e-03  -1.0091556e-03   4.3012266e-04   8.6412281e-03  -4.9763150e-04  -2.8546543e-05
   3.2864310e-04   1.0248810e-03   5.5418402e-04  -6.3863190e-05   6.9882529e-04  -3.8511766e-04   3.6215217e-05  -1.1595014e-04  -2.0300777e-04  -1.4923156e-03  -1.0616976e-03  -2.7022255e-04   1.8073429e-03  -1.7922363e-04   1.6860396e-03  -6.1809178e-04   7.5542589e-04   1.8819199e-04  -8.6331251e-04  -1.4409758e-04   4.1455799e-04  -1.2854008e-04   2.7669990e-03  -3.3271445e-03   4.3838001e-03   1.8920542e-03   7.2378118e-04   2.4826129e-04  -1.5244595e-03  -4.4312552e-04   1.3934072e-03  -9.3681956e-05   7.8903133e-04  -1.2066272e-03  -3.6788848e-04  -9.0024248e-04  -5.0839974e-04  -2.9292519e-04  -2.0416500e-04  -5.8782200e-04  -1.2626513e-03  -5.7114597e-04   2.4696584e-03  -4.1617025e-04  -1.0531959e-03  -9.1956294e-04   2.8161891e-04   6.8189101e-03  -5.2692631e-04  -1.5886500e-06
  -3.2613368e-04   7.0169062e-04   5.5344572e-04  -3.8740697e-04   4.4561474e-04  -4.9925625e-04  -4.2269792e-04  -6.6586566e-05  -9.7904966e-05  -1.9262714e-03  -1.1516842e-03  -7.8223174e-04   1.6912369e-03  -2.1341980e-04   1.9916028e-03  -1.7075942e-04   8.6187583e-04   1.4960463e-04   1.0254128e-03  -1.0536930e-03   5.3887135e-05  -5.2646891e-04   3.7404948e-03  -1.2730786e-03   1.9854798e-03   1.9579250e-03   8.8385295e-04  -7.9129990e-05  -8.4633811e-04  -7.0347654e-04  -2.2930864e-03  -8.4950664e-04  -6.6508172e-04  -1.6626935e-03  -4.8807598e-04  -2.2844002e-03  -8.0161862e-04  -6.2718883e-04  -7.6282211e-04  -1.0028320e-03  -1.4309470e-03  -7.8810088e-04   1.7372175e-03  -7.8952062e-04   1.3237809e-04  -1.3562329e-03   1.3306006e-04   6.6743609e-03  -1.1387191e-03  -4.3186877e-04
  -7.4910297e-04   2.7274361e-04  -6.9077803e-05  -8.0350431e-04   2.9097250e-04  -4.0489592e-04  -7.5330248e-04  -1.8332417e-04  -1.7735288e-03  -2.2112424e-03  -1.3985125e-03  -1.1265140e-03   1.5531284e-03  -2.2294695e-04   1.5400472e-03  -5.3894287e-04   7.0369709e-04   1.5982421e-04  -1.9144586e-03  -8.0487126e-04  -2.8613211e-05  -5.1326014e-04   2.8266618e-03  -2.2288035e-03   1.3848682e-03   7.8493409e-04   5.4839888e-04  -2.4048680e-04  -5.6910288e-04  -5.9009640e-04   2.1650267e-03   2.3922342e-04  -5.6734419e-04  -1.2731664e-03  -5.2440743e-04  -1.1639727e-03   1.9068469e-04  -2.9155493e-04   1.3228433e-04  -6.5705559e-04   1.6966100e-04  -8.4328756e-04  -3.5287046e-03  -4.1805484e-04  -8.7544514e-04  -1.0159201e-03   5.0836231e-04   1.8926528e-03  -6.6553132e-04   5.9554668e-07
   4.7858161e-05   1.0169409e-03   8.8594621e-04  -7.5540709e-05   8.7981054e-04  -7.2767878e-05  -2.4233334e-04   2.7776553e-04   8.5536449e-04  -1.2783153e-03  -1.0046030e-03  -4.7868682e-04   1.7559234e-03  -3.0596659e-04   1.3709435e-03  -7.0156809e-04   6.6025642e-04   2.4909698e-04  -2.4631724e-04  -3.8101131e-04   2.0376586e-04  -3.2737624e-04   1.4663788e-03  -2.7907053e-03   2.9730131e-03   6.1481458e-04   4.9385929e-04  -8.6972075e-05   1.1102892e-04  -2.9015297e-04   2.5865161e-03  -9.7496068e-04  -2.6675788e-04  -1.5178910e-03  -3.4078368e-04  -8.2959028e-05  -2.4173717e-04  -1.3984196e-04   1.3825520e-04  -5.2237279e-05   1.3693782e-04  -4.5303520e-04   3.4280426e-03  -4.1187409e-04  -1.4791104e-03  -8.5312501e-04   5.0251040e-04   2.5031962e-02  -1.6666432e-04  -1.5413002e-04
  -5.1522191e-05   9.5034874e-04   7.3877978e-04  -2.1303399e-04   7.5323781e-04   1.0013882e-04  -1.3138504e-04  -7.0294132e-04  -1.2125375e-03  -1.5213720e-03  -7.2241970e-04  -5.8143708e-04   1.6784490e-03  -3.1792978e-04   1.1481713e-03  -8.6998835e-04   1.6493432e-03   6.1715324e-04   1.0966926e-03   1.3393418e-04  -7.0378819e-04  -7.1445381e-04   2.2931094e-03  -4.5324536e-04   1.9217721e-03   9.4394962e-04   3.6540852e-04   1.0969196e-04  -7.9723977e-04  -3.4360352e-04   3.6823831e-03  -1.5679098e-03   4.8751876e-04  -1.2536953e-03  -4.4388836e-04  -4.5354024e-04  -2.1557116e-04  -3.3019137e-04  -1.5774478e-04  -3.9782634e-04  -8.2536438e-04  -2.2585489e-04  -1.4781395e-03  -6.3787040e-04  -1.5982187e-04  -5.6128844e-04   4.1812868e-04   3.2409022e-03  -3.6304965e-04  -6.2556315e-04
  -2.8810438e-04   4.1974036e-04   3.3932988e-04  -5.2451604e-04   3.8679404e-04  -2.9744310e-04  -2.7800907e-04  -1.3218590e-04  -1.3189170e-03  -1.8360345e-03  -8.7116082e-04  -1.0911307e-03   1.3337763e-03  -4.1290608e-04   6.9483538e-04  -1.1616125e-03   1.6470810e-03   1.9415143e-04  -1.1217310e-03  -4.6026922e-04  -1.1673028e-03  -1.4154821e-03   2.3509371e-03  -1.7545384e-03   1.7604515e-03   8.8127190e-04   1.9559743e-04  -4.8808989e-04  -5.9829990e-04  -4.3570084e-04   9.5661968e-04  -1.0506772e-03   7.5989345e-04  -1.5237320e-03  -6.0624781e-04  -1.2977094e-03  -6.1705511e-04  -4.7152996e-04  -8.1761340e-05  -1.9443145e-05  -9.5426256e-04  -5.2284705e-04  -5.3659012e-04  -6.8494712e-04   1.3086607e-04  -4.2522186e-04   4.7306067e-04   9.5351925e-03  -9.9042089e-05  -3.3270032e-04
   3.4863935e-04   7.2657346e-04   8.0292381e-04  -9.9412820e-05   8.1115187e-04  -9.6290350e-05   1.2073473e-04   1.7438832e-04  -1.2666197e-03  -1.2954632e-03  -6.1174424e-04  -2.0586063e-04   1.4752190e-03  -9.2175425e-05   8.1782922e-04  -9.6370018e-04   2.0703946e-03   6.8650424e-04  -2.0225147e-04   2.6002454e-05  -5.4206443e-04  -8.7886018e-04   2.0980588e-03  -3.1076345e-04   2.8127127e-03   1.0869217e-03   2.9728480e-04   1.7086240e-04   5.3742633e-04  -1.1282742e-04   2.9136549e-04  -9.6544292e-04   1.2705204e-03  -6.5107405e-04  -1.6977530e-04  -5.3935032e-04   1.9224914e-04   3.5827561e-05   1.0598794e-04   2.9809013e-04  -8.8290381e-04  -2.0257266e-04   4.9319277e-03  -1.7564934e-04  -9.6017472e-04  -9.8884606e-04   4.7169786e-04  -6.6333995e-03   4.9131972e-06  -1.7113458e-04
   4.0740630e-04   1.0117418e-03   1.2628167e-03  -1.1663737e-05   1.3563742e-03   6.9010413e-05   4.4311466e-05  -3.9655241e-04  -2.5644395e-04  -1.3923941e-03  -5.0505885e-04  -2.9435003e-04   1.5257151e-03  -1.6306873e-04   4.4630640e-04  -8.3005481e-04   2.0873402e-03   4.5426769e-04  -1.6189090e-03  -8.2757336e-04  -5.4434902e-04  -7.6490245e-04   2.1648163e-03  -2.0221469e-03   2.7577321e-03   1.3145618e-03   7.1622630e-06  -1.1674466e-04  -8.4051862e-04  -7.6033786e-05  -1.8197127e-03  -1.4322596e-04   5.1263580e-04  -9.9698477e-04  -2.1422701e-04  -1.6284003e-03  -3.0916106e-04   1.4831823e-04   1.5155788e-04  -7.1046839e-04  -1.8647837e-03  -1.8161247e-04   1.3990409e-03  -3.1159070e-04   2.6217854e-04   1.7482680e-04   1.3930495e-04   8.1913918e-03  -8.0678910e-05  -4.9910921e-04
   1.0795596e-04   6.6308462e-04   3.6941923e-04  -3.2736969e-04   7.2892732e-04   1.7465488e-04   2.1034555e-05  -2.8605881e-04  -5.3236180e-04  -1.8958439e-03  -5.5101630e-04  -1.0426509e-03   1.4209675e-03  -2.8064669e-04   2.8591088e-04  -1.3264098e-03   2.3290382e-03   4.7185915e-04   3.8806640e-04  -6.3736824e-04  -8.9768431e-04  -1.1656517e-03   2.5305019e-03  -2.7068115e-03   1.7710909e-03   1.1994094e-03  -2.5280012e-04  -6.2141794e-04  -1.1402855e-04  -2.6251641e-04   3.2644772e-03  -5.7755527e-04  -5.9529743e-04  -1.3453019e-03  -2.2979960e-04  -6.9093861e-04  -3.4402177e-04   4.2791344e-05  -4.3456748e-04  -3.0043439e-04  -1.7189727e-03  -3.1641746e-04   5.1540451e-04  -6.5715879e-04   3.9701859e-04  -8.7898102e-04   2.8044336e-05   1.2092312e-02  -3.0390406e-04  -6.7598780e-04
  -6.2922272e-04   2.7494918e-04   5.6922909e-05  -4.7696338e-04   2.3936489e-04  -3.1599289e-04  -3.2327251e-04  -7.0027076e-04  -1.5999406e-03  -1.6903977e-03  -6.9294171e-04  -3.8415074e-04   1.1423617e-03  -4.8355397e-04  -5.1710267e-05  -1.3062550e-03   1.9134069e-03  -3.5192072e-04  -4.9352064e-04  -3.3226798e-04  -2.5315073e-04  -4.7481817e-04   2.2301390e-03  -8.6736510e-04   6.2486395e-04   1.1212897e-03  -4.7301746e-04  -3.4438688e-04  -5.6962826e-04  -1.4894892e-05   5.9880799e-04  -1.0358767e-03   4.3267742e-04  -1.0781296e-03  -3.8124967e-06   1.8946441e-04   4.2789525e-04   5.9339276e-04   3.2039382e-04  -1.6879408e-04   4.8046510e-05  -1.8290417e-04   6.1656581e-03  -6.3325875e-05   7.2420784e-04  -2.3626910e-04   5.4569880e-04   1.4148084e-02  -8.3934574e-05   1.8509197e-04
   4.8217244e-04   1.3213428e-03   8.1480719e-04   3.7458041e-04   7.4483838e-04   2.8475924e-04   2.9953703e-04   3.7668349e-04   5.9781171e-04  -1.3505417e-03  -1.9866720e-04   9.0465546e-05   1.4206854e-03  -3.3596958e-04  -7.3790994e-05  -1.4312646e-03   1.8361412e-03  -2.2886603e-05   2.0876504e-03  -4.4529743e-06   7.9205500e-05  -1.0598300e-05   2.9180145e-03  -1.3458097e-03   2.3229679e-03   1.2734361e-03  -5.3788826e-04  -2.7818090e-04   2.6139387e-04   1.1625034e-04   1.2267806e-03  -3.9444148e-04  -1.7618276e-04  -1.0490442e-03   2.3336361e-04  -1.1048323e-03  -3.7284853e-04   8.0804410e-04   6.2858179e-04  -1.0792972e-06  -1.4279101e-03  -1.6883624e-04  -9.1251095e-05  -1.3837260e-04   1.8818505e-04  -7.5033185e-04   5.6066673e-04   7.1016238e-03  -1.0560486e-04   1.9481526e-04
   2.1399364e-04   1.0065357e-03   5.5709603e-04   1.9262730e-04   9.9097041e-04   4.0904153e-04   2.3243009e-04  -1.0323368e-03  -7.1796391e-04  -1.6510189e-03  -2.2365764e-04  -1.6932694e-04   1.5245699e-03  -4.0306657e-04  -5.7532336e-04  -1.4964442e-03   1.8057482e-03  -4.5260743e-04   1.1045187e-03   3.8376017e-04  -5.0197972e-04  -5.9470092e-04   2.6323691e-03   1.5821033e-03  -9.8075066e-04   8.4942474e-04  -1.1411328e-03  -6.5265206e-04   4.0787144e-04   8.7736160e-05   1.7499706e-03  -7.9395273e-04  -1.5612401e-03  -1.1336167e-03  -3.3338124e-06  -7.0541387e-04  -2.2688717e-05   7.9955644e-04   2.8293763e-04   1.9490876e-04  -2.6280104e-04  -1.9320326e-04   4.3607960e-03  -3.0012851e-04  -3.2491234e-04  -2.9763623e-04   9.0905080e-05   2.3554411e-04  -5.0225604e-04  -3.8309072e-04
  -5.1180919e-04   5.3069746e-04   5.2483447e-05  -1.2360371e-04   4.1917889e-04   1.9082572e-05  -2.8448889e-04  -4.3885474e-04   3.1706260e-04  -1.9938643e-03  -5.5570138e-04  -6.8634510e-04   1.3027190e-03  -7.0546306e-04  -1.2495358e-03  -1.9319148e-03   1.8419044e-03  -7.9963781e-04  -7.4066111e-04  -1.9176010e-05  -8.7951653e-04  -7.7893143e-04   2.4512990e-03  -1.2908991e-03   8.6346752e-04   7.1159314e-04  -1.3072848e-03  -1.0916761e-03   3.1441628e-04  -4.3568489e-05   1.0444955e-03  -4.1800676e-04  -1.0764615e-03  -1.3850624e-03  -3.5700455e-04  -1.0556428e-03  -4.0554081e-04   6.7441282e-04  -9.1978771e-05  -2.6180089e-04  -1.5562853e-04  -1.3983902e-04   9.5730436e-05  -4.0215699e-04  -5.3044275e-04   5.6801544e-04   2.6691944e-04   1.0540555e-02  -2.9830073e-04  -4.1931402e-04
   1.8781388e-05   5.0345703e-04   5.3508003e-04   3.3146297e-04   5.1625882e-04   5.8716949e-04   4.7905219e-04  -1.2029293e-04  -4.3428441e-05  -1.5520240e-03  -1.0136730e-04  -3.6833098e-06   1.5619883e-03  -5.1214034e-04  -1.6090909e-03  -1.5193759e-03   2.2646652e-03  -3.3442929e-04  -1.3761531e-03   2.4787505e-04  -4.3004118e-05  -1.8022492e-04   2.4212445e-03   1.9033907e-05   7.8814640e-04   1.3073030e-03  -9.5913891e-04  -1.0038512e-03  -7.1772054e-04   3.7435483e-04   3.0492749e-03   1.3612675e-03   1.9742189e-04  -6.4515317e-04   1.0196228e-04  -8.0841023e-04   1.2634173e-05   1.3452978e-03   5.6417735e-04   5.2453286e-04  -3.1487860e-05   9.3798604e-05   1.6274020e-03   1.4419429e-06  -6.2210915e-05   6.8332936e-04   2.6207569e-04   9.3546109e-03  -5.4775475e-04  -8.1447099e-05
   2.2564211e-04   6.9575402e-04   7.8497722e-04   3.5257539e-04   8.6021668e-04   5.3162221e-04   1.0503303e-03  -2.9166570e-04  -1.7187472e-04  -1.6313836e-03   3.1148124e-04   1.0318115e-04   1.6724631e-03  -2.4446988e-04  -1.4064775e-03  -1.3475034e-03   2.4121217e-03   3.1113985e-04  -1.5345737e-03   2.2910112e-05  -3.3493459e-04  -6.5973483e-04   2.3957393e-03  -6.9326302e-04  -1.2382928e-04   1.5744361e-03  -5.5186660e-04  -4.3291884e-04  -3.4437893e-04   2.9452244e-04   2.2963868e-03   1.4896167e-04  -7.8935950e-04  -8.5706695e-04   7.1433533e-05  -5.9442583e-04  -3.9984126e-04   1.0979224e-03   6.4628950e-04   5.0998630e-04  -8.5532147e-04  -5.7475543e-05   1.9275362e-03  -1.5931834e-04  -4.8370587e-04   5.3044630e-04   1.2658494e-04   6.5192319e-03  -3.5612876e-04  -1.9008662e-04
  -4.5996632e-05   2.2487793e-04  -8.6570690e-05  -1.1242859e-04   2.4722319e-04   1.7280239e-05   1.0767357e-04  -8.0651935e-04   1.8719600e-04  -2.0687494e-03   3.5412351e-04  -2.1016746e-04   1.7203388e-03  -4.3802516e-05  -5.9664372e-04  -1.3096845e-03   2.2428355e-03   7.6197839e-04  -2.0569609e-03  -1.0259439e-05  -5.3418317e-04  -6.3117448e-04   3.4316368e-03  -1.5086595e-03   2.9594537e-03   2.1008297e-03   3.3604074e-04  -5.8770907e-04  -8.6618552e-04   3.1083760e-05   3.1834934e-03  -2.8646117e-04   5.9318467e-04  -1.1036228e-03   4.3601685e-05  -1.1862287e-03  -4.0429991e-04   5.2570028e-04   6.2839990e-04   3.5279343e-04  -2.5664564e-04  -3.7516590e-04  -1.7406457e-04  -4.3653802e-04  -1.7338307e-03  -5.2755808e-05  -2.4962623e-05   1.0548227e-03  -4.6411206e-04  -6.9117639e-04
  -2.9867984e-04  -2.5209197e-04  -5.4186326e-04  -5.8949675e-04  -1.2371273e-04  -7.0737541e-04  -4.0690679e-04  -8.2769745e-04  -7.1169116e-04  -2.1415255e-03   1.2794723e-04  -7.3517743e-04   1.0944468e-03  -4.6425953e-04  -4.9571053e-04  -1.6495336e-03   1.1467389e-03   6.0828339e-04   2.1443521e-03  -1.6903294e-05  -6.5714662e-04  -6.6303537e-04   2.5197626e-03  -1.6382204e-03   1.4913449e-04   1.8716115e-03   4.9703394e-04  -8.0823246e-04  -8.9835987e-04   3.9107967e-04   1.9865423e-03  -1.3615648e-04  -2.7233912e-04  -1.2405569e-03  -7.8474397e-05  -3.9906878e-04   9.5775345e-04   9.9593075e-04   7.2105409e-04   1.0941598e-03  -3.9809104e-04  -3.2159346e-04   5.6340155e-04  -1.8112219e-04  -1.4064815e-03   4.6555515e-04   4.5989733e-04   6.0679698e-03  -5.9742911e-04  -4.8381771e-04
   7.9486903e-04   6.3174451e-04   2.0291551e-04   4.5591430e-04   6.2463817e-04  -2.4139418e-04   4.3799091e-04  -1.0455175e-03   1.7257226e-03  -1.2032343e-03   5.5995188e-04   3.5190248e-04   1.1422876e-03  -6.1061082e-04  -8.4344845e-04  -1.6397468e-03   8.9377142e-04   5.9610698e-04   5.7587703e-04  -5.3832220e-04  -2.0595209e-04  -5.4744224e-04   1.8677694e-03   1.2078172e-03   1.1531502e-04   1.6187417e-03   5.3959357e-04  -2.1604366e-04  -3.0127136e-04   7.4873853e-04  -7.8977231e-04  -8.3762547e-04  -3.8518466e-04  -9.0450433e-04   9.3709947e-05   5.4297969e-04   9.3198026e-04   1.2231218e-03   1.5825514e-03   6.9834769e-04   1.3299141e-03  -2.2863569e-04  -3.5387804e-03  -3.5621320e-05  -1.7024748e-03   4.1602447e-04   4.6169566e-04   1.1251165e-03  -5.1278149e-04  -4.6286907e-04
   5.3735863e-04   4.4462475e-04   1.6542411e-04   2.5286811e-04   4.3263077e-04  -1.5613345e-04   2.3493615e-04  -1.0969341e-03   7.6553330e-04  -1.3350216e-03   7.5747416e-04   9.3787785e-05   1.0502838e-03  -6.1848736e-04  -6.2748295e-04  -1.3335211e-03   1.0574965e-03   6.0523988e-04   7.0673716e-04   1.6620563e-04  -4.2446787e-04  -5.3027383e-04   2.6248656e-03  -1.0451569e-03   1.5456184e-03   1.7920325e-03   1.1087708e-03  -5.6624674e-04  -4.6314421e-04   6.5200205e-04   3.9616176e-03   4.2304592e-04   3.6343897e-04  -9.4630168e-04   5.2352709e-05  -4.1811523e-04   1.2241831e-03   7.9912739e-04   1.3630167e-03   1.1104814e-03   3.8943555e-05  -2.6319973e-04  -1.2466566e-03  -2.1390994e-04  -2.5092931e-03   2.8328766e-04   2.5420045e-04   3.1573081e-04  -6.2092626e-04  -8.6102186e-04
   2.3892696e-04  -2.2509345e-04  -2.2119796e-04  -2.2682850e-04  -1.4629758e-04  -6.8832736e-04  -1.2474685e-04  -1.6727685e-03  -5.8831758e-04  -1.4303331e-03   7.6035853e-04  -1.8826897e-04   1.0988635e-03  -2.6603864e-04  -2.5398668e-04  -1.2834093e-03   1.1315274e-03   1.0088385e-03   5.1295437e-04  -4.2236093e-04  -3.1697235e-04  -7.2613347e-04   3.1034942e-03  -1.2038611e-03   1.6395714e-03   2.4267151e-03   1.1964715e-03  -4.5769787e-04  -9.8650670e-04   3.8082642e-04   2.8695979e-03  -1.8422276e-04   1.0784628e-03  -1.2169573e-03  -4.6515172e-05  -6.5517874e-04   6.6318840e-04   4.7230601e-04   6.7153538e-04   3.4954676e-06  -1.8015664e-04  -4.1729191e-04  -1.3068385e-04  -3.8849819e-04  -1.4057731e-03  -1.9615212e-04  -2.6791912e-04  -8.0001904e-03  -7.4832956e-04  -9.3043945e-04
  -4.3754524e-04  -6.7627378e-04  -1.0237158e-03  -7.1734498e-04  -7.6976581e-04  -9.8306569e-04  -2.4430276e-04  -1.5106993e-03  -1.5598240e-03  -1.1240240e-03   6.0174812e-04  -8.1040424e-05   1.1654326e-03  -2.1839816e-04  -7.3840594e-05  -1.1733610e-03   1.4648329e-03   1.6199839e-03   5.4894568e-04  -2.7091079e-05  -1.0348855e-04  -8.6776668e-04   2.4032602e-03  -2.8042153e-03   2.4210420e-03   2.4896895e-03   2.1795137e-03   1.2348115e-04  -1.7336131e-03   4.9064809e-04   1.9260817e-03   1.7030750e-04   4.0696014e-04  -8.0800487e-04   2.7312723e-04  -1.9585139e-05   1.4328886e-03   4.4384439e-04   1.2976910e-03   8.9669728e-04   3.6288128e-04  -3.9270724e-04  -1.2344155e-04  -5.2776308e-05  -1.0984520e-03   3.5824161e-04   2.0103079e-04   4.7276095e-03  -9.6650817e-04  -5.3162844e-04
   1.0655432e-03  -1.9186710e-04   4.9714115e-04  -1.2691645e-04   1.9394163e-04  -8.4779231e-04   1.9096819e-04  -2.0420593e-03   3.6830668e-04  -4.4320378e-04   1.1035681e-03   2.0479018e-04   1.3719475e-03  -3.5856108e-04   4.4275299e-04  -8.7823503e-04   4.7416639e-04   1.6905626e-03   6.0493284e-04   3.2373291e-04   2.8759363e-05  -1.0005181e-03   3.3159549e-03  -1.7489297e-03   2.8709273e-03   2.4599510e-03   3.7386385e-03   2.5430188e-04  -1.2204245e-03   8.7584200e-04   4.7271405e-03  -6.0345235e-05  -4.3384201e-04  -1.0178142e-03   2.0418350e-04   3.8670507e-04   2.4636518e-03  -1.2492256e-04   2.1772296e-03   8.3812571e-04   1.5388405e-03  -5.5063626e-04  -7.1667819e-03  -4.7178095e-04  -3.7857066e-03   8.5358525e-04   2.3008521e-04  -2.4133291e-02  -2.2749654e-03  -1.1265491e-03
   9.2560420e-04  -6.0026930e-04  -5.9270405e-04  -4.3586828e-04  -3.3669063e-04  -7.0204714e-04   5.6901710e-05  -2.6219913e-03  -5.3570181e-04  -4.8674000e-04   9.7231689e-04   1.2854961e-04   4.9348321e-04  -1.0427812e-03   2.1375718e-05  -1.4208625e-03  -1.1858430e-03   1.4930458e-03   1.5781634e-03  -2.4675840e-04   8.2512088e-06  -9.2537061e-04   1.6792592e-03  -2.9223366e-04   1.8636547e-03   1.7592293e-03   3.6429157e-03  -7.4493233e-05  -1.6725361e-03   9.2380948e-04   1.2440481e-03  -6.9272384e-04   5.8237457e-04  -1.3618708e-03   2.5240757e-04   7.5894161e-05   2.0651247e-03  -4.1652919e-04   1.6268506e-03   9.9861808e-04   1.2871512e-03  -7.6948130e-04  -6.8604033e-03  -6.9390907e-04  -2.1704307e-03   5.3435372e-04   6.8475587e-05  -6.5785726e-03  -2.3968634e-03  -1.4063859e-03
   4.3673642e-04  -1.1215133e-03  -1.0842603e-03  -8.7278098e-04  -1.1061955e-03  -1.2292872e-03  -2.4353627e-04  -3.4478134e-03   3.4966128e-04  -1.1215026e-03   7.4274046e-04  -6.4465869e-04   3.5090355e-04  -1.0067181e-03   5.5957034e-06  -1.4085748e-03  -9.1009348e-04   1.4650411e-03   1.5963574e-03  -4.2262633e-04  -4.5794199e-04  -1.5485613e-03   1.8613100e-03  -3.0222682e-03   9.3973411e-04   1.4630678e-03   3.2872681e-03  -8.8961817e-05  -1.8014276e-03   5.6792173e-04   1.5357960e-03  -1.0306373e-03  -9.1621070e-04  -1.3134936e-03  -8.6325759e-05  -1.0230620e-04   1.2089442e-03  -7.6394936e-04   1.1304296e-03   2.4841228e-04  -2.0504114e-04  -9.4857306e-04  -7.8797399e-04  -8.1518700e-04  -2.5229587e-03   7.3468793e-05  -3.2870733e-04   3.7903506e-03  -1.6066894e-03  -1.1985091e-03
  -5.9233909e-04  -1.4771775e-03  -1.3946266e-03  -1.3143113e-03  -1.1793085e-03  -1.3925558e-03  -9.0146204e-04  -2.9492425e-03  -2.1807794e-04  -1.2986264e-03   1.9584190e-04  -8.6687872e-04   2.4053318e-04  -8.9760352e-04  -3.3091143e-04  -1.1213362e-03  -7.7552523e-04   1.1748434e-03   3.1197057e-03  -2.9548910e-04   6.1355393e-05  -9.7352633e-04   2.3684271e-03  -6.6975266e-04   9.2767394e-04   1.4891252e-03   2.6036054e-03  -1.0149572e-04  -1.7573580e-03   5.7488371e-04   2.5123400e-03  -7.9905248e-04  -5.0435017e-04  -1.1584108e-03  -3.9531795e-05  -4.9331272e-04   1.0072478e-03  -3.5656983e-04   1.1270092e-03   2.4606296e-04  -7.9405674e-04  -8.0180308e-04  -6.0060201e-03  -3.9696478e-04  -2.4860587e-03   5.7686499e-04  -1.4477309e-04  -1.0800967e-02  -1.0363364e-03  -6.5055827e-04
   7.7459589e-04  -4.0806975e-04  -2.5535267e-04  -4.1400277e-04  -4.5629681e-04  -9.5623051e-04  -1.8633218e-04  -2.5208439e-03  -2.6566963e-04  -9.2810148e-04   3.7401853e-04  -2.8518570e-04   3.2416661e-04  -7.4356684e-04  -1.3928782e-04  -9.3250605e-04  -7.0221402e-04   1.1080255e-03   1.0682509e-03   2.5930525e-05   3.8036160e-04  -3.8629584e-04   1.3023023e-03  -7.3127687e-04   2.0689634e-03   1.5770112e-03   2.1595645e-03  -4.2849584e-04  -2.2341185e-03   5.3620752e-04   6.4976615e-05   5.2314799e-04  -2.9521150e-04  -9.0573844e-04  -1.1559272e-04  -1.4162201e-03   1.2842173e-03  -3.6268411e-04   1.0523773e-03   4.7550467e-04  -1.0839980e-03  -9.1178942e-04  -3.3890030e-03  -4.0544945e-04  -1.6033056e-03  -6.2958468e-05  -4.9543136e-04  -1.7036049e-03  -8.4609736e-04  -7.1395136e-04
  -3.1846910e-05  -4.7750367e-04  -7.5624010e-04  -6.0754357e-04  -5.5436220e-04  -9.6443010e-04  -7.3437596e-04  -2.1026994e-03  -1.5905658e-03  -1.3640857e-03   1.1443220e-04  -9.9857338e-04   3.0659567e-04  -6.9994514e-04  -6.0244976e-04  -1.2392947e-03  -6.7896576e-04   7.3230983e-04   4.9203320e-04  -7.4473181e-04   5.3356802e-05  -9.5943944e-04   1.8139094e-03  -1.8129185e-03   1.0210878e-03   1.4113663e-03   1.7360175e-03  -5.7758630e-04  -2.2416583e-03   2.7328180e-04   1.7251392e-03  -5.7163805e-04   3.9853089e-04  -1.3538856e-03  -4.1197811e-04  -6.4608268e-04   5.3420849e-04  -7.1075646e-04   6.9323054e-04  -4.2195574e-04  -1.2484164e-05  -1.0327759e-03  -1.9148324e-03  -7.1905868e-04  -1.2774551e-03   1.1079045e-04  -9.5775694e-04   1.6968096e-02  -1.1920229e-03  -9.7976497e-04
  -4.6298021e-04  -9.2488353e-04  -1.4252332e-03  -9.3039597e-04  -8.2276616e-04  -1.2955181e-03  -8.5211208e-04  -2.9747966e-03  -5.9464516e-04  -1.7427908e-03  -1.8687338e-04  -1.2758189e-03   9.9550365e-05  -7.7501335e-04  -4.5382511e-04  -1.1372517e-03  -6.2259188e-04   3.0483337e-04   6.2931341e-04  -8.1568450e-04  -2.8503418e-04  -1.1642552e-03   9.1363315e-04  -1.7149788e-03   4.1548818e-04   1.1510917e-03   1.3770771e-03  -8.9816173e-04  -2.7027209e-03  -1.6381546e-04   1.5339267e-03  -1.6903486e-03   7.4334088e-04  -1.8876338e-03  -5.6018913e-04  -1.1053547e-03   1.4841922e-04  -1.0866147e-03  -4.9423339e-04  -7.4548868e-04  -8.2594552e-04  -1.4677541e-03  -1.3133499e-03  -1.0874425e-03  -2.1851091e-03  -7.3656312e-04  -1.3178858e-03  -7.2899793e-04  -1.6665461e-03  -1.2379496e-03
  -1.3808309e-03  -1.2529717e-03  -1.9221143e-03  -1.2429308e-03  -1.5886270e-03  -1.3189054e-03  -1.1582830e-03  -1.7556611e-03  -1.0855583e-03  -2.1104533e-03  -7.2393130e-04  -1.4538229e-03  -1.3784363e-04  -8.9941791e-04  -9.6760003e-04  -9.7812130e-04  -6.2368630e-04  -6.2586449e-05   5.4071331e-04  -9.9842495e-04  -1.3741673e-04  -1.1512407e-03   1.1859295e-03  -2.1547875e-03   9.7371510e-04   5.8610295e-04   7.1607006e-04  -1.0440348e-03  -1.9496197e-03  -1.4210767e-04   1.5165639e-03  -9.9187926e-04  -8.3969114e-04  -1.6016598e-03  -5.5961841e-04  -1.0068259e-03  -1.1236018e-04  -6.3583307e-04   3.1126743e-05  -6.8374240e-04  -4.2704880e-04  -1.2038967e-03  -2.1350316e-03  -7.4524869e-04  -2.3409356e-03  -6.6601198e-05  -1.1138173e-03   2.2364152e-03  -7.9042494e-04  -9.7108650e-04
  -1.7690983e-04  -3.7790358e-04  -9.3552493e-04  -4.0317213e-04  -7.7799067e-04  -8.0282724e-04  -8.0702768e-04  -1.5833013e-03  -9.5174334e-04  -1.2922033e-03  -6.4197736e-04  -6.1925215e-04  -3.0275234e-05  -8.1240555e-04  -8.1201020e-04  -9.5443131e-04  -7.1510923e-04   4.6066176e-05   6.7466329e-04  -7.8163965e-04   9.4468000e-05  -5.2574574e-04   1.0270627e-03  -2.2654892e-03   1.1439082e-05   6.6774478e-04   6.1088253e-04  -6.4276258e-04  -1.8301618e-03  -1.0084263e-04   1.2131295e-03  -6.6048256e-04  -5.7332520e-04  -1.4158819e-03  -5.5675686e-04  -8.1464212e-04  -2.7457322e-04  -5.7528500e-04  -3.1008190e-04  -2.1050946e-04  -1.0599395e-03  -1.4116989e-03  -1.7550289e-04  -8.0748630e-04  -1.7557638e-03  -1.0529384e-06  -1.1675953e-03   8.7709194e-03  -1.0966376e-03  -8.3839311e-04
  -5.7705463e-04  -4.2931479e-04  -9.7773597e-04  -5.1148434e-04  -6.8227889e-04  -1.0151588e-03  -8.7793346e-04  -1.5930621e-03  -2.2566069e-03  -1.4596296e-03  -6.4272637e-04  -7.4203679e-04  -2.9848678e-05  -8.2247192e-04  -8.3072734e-04  -9.0952870e-04  -9.0007088e-04  -1.5291644e-05  -3.2490474e-04  -1.9415887e-03  -6.9389425e-05  -6.4153806e-04   1.3702717e-03  -2.5816949e-03   3.7740867e-04   6.7129580e-04   5.9397973e-04  -6.0345652e-04  -2.4106517e-03  -3.1159617e-04  -5.2330587e-03  -6.6333532e-04  -9.5588056e-04  -1.3992763e-03  -6.9502200e-04  -1.6463376e-03  -3.7080931e-04  -8.2214148e-04  -3.5257841e-04  -9.9322747e-04  -4.3274739e-04  -1.6359201e-03   2.7041691e-03  -9.7179669e-04  -1.0297942e-03  -2.5701598e-04  -1.3618033e-03  -1.3954481e-03  -1.1626097e-03  -1.2020700e-03
  -9.6071389e-04  -7.4804027e-04  -1.6096403e-03  -8.1198383e-04  -9.8248827e-04  -1.2421538e-03  -1.2197142e-03  -1.1325127e-03  -3.3817516e-04  -1.7668839e-03  -6.9608021e-04  -1.1003839e-03  -1.1956621e-04  -8.2502555e-04  -9.2145853e-04  -9.2883740e-04  -9.0087787e-04  -3.4264047e-04  -1.1492145e-03  -9.8604173e-04  -4.5943525e-04  -9.6937758e-04   5.9448346e-04  -9.6599641e-04   2.4194839e-04   4.6564513e-04   5.9664273e-04  -8.6015894e-04  -2.1871193e-03  -5.7655270e-04  -6.1177439e-04  -1.4302871e-03  -1.7072248e-03  -1.5318041e-03  -8.1147818e-04  -1.8833225e-03  -3.8922534e-04  -1.1897470e-03  -1.1258180e-03  -1.2616555e-03  -1.7482211e-03  -1.5311362e-03  -1.1269693e-03  -1.2260925e-03  -1.8994090e-03  -1.1104629e-03  -1.6157981e-03  -1.9640066e-03  -1.3741043e-03  -1.4086621e-03
  -1.2646470e-03  -1.0929535e-03  -1.7154167e-03  -8.7857706e-04  -9.9551841e-04  -9.3319186e-04  -1.0867901e-03  -1.4658071e-03  -1.7028552e-03  -1.3521489e-03  -8.3946832e-04  -6.4629404e-04  -1.9544929e-04  -8.4472820e-04  -6.9749181e-04  -8.7830052e-04  -9.4869192e-04  -6.2605301e-05   1.1847871e-03  -1.4840859e-03   7.9119382e-05  -5.4128957e-04   9.6451404e-04  -5.0779390e-03   7.5621711e-04   5.6665723e-04   5.7574495e-04  -6.0595060e-04  -1.7017400e-03  -3.5926537e-04   1.1579711e-03  -9.4115629e-04  -2.0309789e-04  -1.2913038e-03  -5.6545285e-04  -1.5434410e-03  -4.4144716e-04  -6.3237111e-04  -4.0642472e-04  -5.3814141e-04  -2.9329909e-04  -1.1912571e-03  -2.3567174e-03  -7.0347113e-04  -1.3588571e-03   4.5827339e-05  -1.0666710e-03  -1.3206331e-03  -9.7463612e-04  -9.9401537e-04
  -3.9725075e-04  -2.1100779e-04  -1.1014990e-03  -3.3465406e-04  -6.0675305e-04  -7.8904373e-04  -7.7795156e-04  -1.1749304e-03  -2.1376442e-03  -1.1405471e-03  -5.8160338e-04  -6.0999399e-04   6.1276041e-05  -7.4745825e-04  -6.8453111e-04  -9.0272300e-04  -1.0162659e-03  -2.1805256e-04  -1.6583048e-03  -1.0334615e-03   1.6849907e-04  -3.2951951e-04   7.5703894e-04  -1.6178924e-03   4.8815439e-04   4.6216545e-04   5.0387013e-04  -9.1314735e-04  -1.3624531e-03  -2.8608803e-04   4.5756172e-04  -4.1355984e-04  -7.3980342e-04  -1.4476659e-03  -5.8562134e-04  -8.1269623e-04  -9.5205795e-04  -6.9585507e-04  -5.0022115e-04  -8.5498189e-04  -1.0166711e-03  -1.2935370e-03  -1.4500095e-03  -8.5930206e-04  -2.9071230e-03  -2.2090864e-04  -9.4829779e-04   3.7054867e-03  -7.0232531e-04  -8.1312272e-04
  -6.8055489e-04  -3.3896184e-04  -1.1593832e-03  -4.9354124e-04  -6.9029839e-04  -8.1376336e-04  -8.5511990e-04  -1.9681265e-03  -1.1678599e-03  -1.4131053e-03  -6.7521021e-04  -8.1166270e-04  -5.8754518e-05  -7.5496046e-04  -6.2740425e-04  -7.9441693e-04  -9.3925145e-04  -1.0159422e-04  -1.4133384e-03  -1.0640335e-03  -1.9107459e-04  -6.2761258e-04   1.3516635e-04  -8.7756163e-04  -5.4609502e-04   4.2013309e-04   5.3368445e-04  -8.7377650e-04  -1.7051143e-03  -4.9464987e-04   1.4995673e-04  -1.3311858e-03   3.0936932e-04  -1.6419532e-03  -6.5040519e-04  -1.8038161e-03  -3.0581091e-04  -9.9640281e-04  -8.3383505e-04  -9.2401152e-04  -1.8109827e-03  -1.1123006e-03  -1.7680960e-03  -1.0215827e-03  -1.0519476e-03  -5.6917203e-04  -1.0105127e-03  -1.1869306e-02  -1.1087204e-03  -1.1182121e-03
  -9.3682442e-04  -6.8904279e-04  -1.1885538e-03  -8.3236332e-04  -1.3116004e-03  -1.0764940e-03  -1.2150023e-03  -1.5974751e-03  -8.7579747e-04  -1.7903120e-03  -7.5735035e-04  -1.1360162e-03  -1.5967012e-04  -7.2654308e-04  -6.9510809e-04  -8.3204411e-04  -8.0249796e-04  -2.5224726e-04   6.2892650e-04  -1.4164873e-03  -5.7816482e-04  -9.4964181e-04   1.2684732e-03  -3.1097962e-03  -6.2244898e-04   4.0017939e-04   5.7756930e-04  -8.0646254e-04  -2.1740373e-03  -7.7085290e-04   8.2516053e-04  -1.8810222e-03  -4.3742027e-04  -1.4703106e-03  -8.1664708e-04  -1.6921890e-03  -1.2394667e-03  -1.2762737e-03  -1.1223737e-03  -1.6863372e-03  -1.8498444e-03  -1.2776407e-03   2.2575918e-03  -8.0275745e-04  -2.4740817e-03  -2.9778946e-04  -9.6543547e-04  -8.4722610e-03  -7.5176306e-04  -1.0179618e-03
  -3.2708881e-04  -2.0770213e-04  -3.8338808e-04  -3.1161154e-04  -4.6654281e-04  -7.2601659e-04  -9.1725588e-04  -5.3699443e-04  -1.1249590e-03  -1.0526548e-03  -5.3176872e-04  -5.6459091e-04   1.4359347e-05  -6.7990465e-04  -6.5761217e-04  -7.5020775e-04  -8.3813374e-04  -3.7890957e-05  -1.8905413e-03  -1.1722838e-03   3.3235300e-04  -1.5246659e-04   1.6137171e-03  -2.5387534e-03  -4.6279765e-05   7.5081032e-04   5.5009732e-04  -7.3696434e-04  -9.1301720e-04  -2.6452841e-04   9.3761581e-04  -1.0864194e-03   3.6986065e-04  -1.1771566e-03  -3.7290470e-04  -1.7304195e-05  -5.8453769e-04  -4.6366765e-04  -4.9445004e-04  -9.3018782e-04  -1.4729742e-03  -8.8217843e-04  -1.9014466e-03  -4.9470214e-04  -1.6720201e-03  -2.0093682e-04  -6.0138945e-04  -4.6251360e-03  -7.4942142e-04  -7.2207773e-04
  -1.0875871e-04   1.0816989e-04  -5.3086475e-04  -8.4958090e-05  -3.6001502e-04  -4.8617495e-04  -7.6852663e-04  -1.2553097e-03   5.3458265e-04  -9.9519943e-04  -2.0841163e-04  -2.9998340e-04   3.9785265e-04  -5.9524173e-04  -6.3932163e-04  -5.2671751e-04  -6.9631060e-04  -7.4712189e-05   1.0440018e-03  -7.6079456e-04   1.9064054e-04  -1.4223810e-04   1.0991376e-03  -9.7168569e-04  -1.4731786e-04   6.6006847e-04   4.7987141e-04  -6.3662068e-04  -1.7435948e-03  -2.7036629e-04   3.2111342e-04  -1.6913053e-03  -7.2088698e-04  -1.2469443e-03  -3.8114024e-04  -1.3512013e-03  -7.8265619e-04  -4.9855473e-04  -7.6429383e-04  -6.6481734e-04  -9.1879809e-04  -9.3368796e-04   2.1540085e-03  -5.5379089e-04  -1.6334048e-03   1.5095760e-04  -6.3521561e-04   3.3560407e-03  -6.0361909e-04  -7.3440792e-04
  -5.1253987e-04  -1.2116897e-04  -8.4122957e-04  -3.4555214e-04  -6.5582013e-04  -8.6312171e-04  -6.4741418e-04  -8.7939063e-04  -1.3078258e-03  -1.3623867e-03  -3.8014303e-04  -8.3059410e-04   3.3387551e-04  -5.5677193e-04  -7.4114098e-04  -3.9579137e-04  -5.6030572e-04  -1.0662371e-04  -1.5022713e-03  -7.1195100e-04  -2.3190018e-04  -7.3823531e-04   1.1298534e-03  -2.3792882e-03  -3.1195916e-04   6.3860457e-04   4.6263973e-04  -9.0362848e-04  -1.8982049e-03  -3.9474788e-04   1.6306550e-03  -8.4562879e-04   1.2575769e-03  -1.1229496e-03  -4.4637924e-04  -1.3019070e-03  -8.0877094e-04  -8.0743188e-04  -7.6645135e-04  -1.2100796e-03  -5.6630326e-04  -9.2445873e-04   7.4496682e-05  -7.1041763e-04  -1.2389678e-03   7.4704811e-05  -8.0507883e-04   7.7224658e-03  -3.5885317e-04  -8.1234431e-04
  -8.1783056e-04  -5.0400122e-04  -1.2637011e-03  -7.2072208e-04  -1.0234461e-03  -7.0284208e-04  -1.1518786e-03  -2.3798596e-03  -2.2433181e-03  -1.7365828e-03  -6.7517359e-04  -9.7175187e-04   2.0098766e-04  -5.5979966e-04  -6.3282734e-04  -3.8096710e-04  -5.0397369e-04   1.0817566e-04  -1.1338586e-03  -1.5870682e-03  -4.8514295e-04  -6.7224546e-04   1.0122042e-03  -9.8270783e-04   1.4679819e-04   7.8787538e-04   4.7976599e-04  -9.2088833e-04  -2.2852065e-03  -5.1582645e-04   2.6146660e-04  -6.1360302e-06  -2.1514755e-04  -9.1250433e-04  -3.8100363e-04  -9.9323201e-04  -2.2275075e-04  -4.1275183e-04  -4.7868161e-04  -5.6567899e-04  -1.3620034e-03  -6.9832278e-04   5.0673578e-05  -3.6773676e-04  -2.5173037e-03   3.4986973e-05  -5.6204491e-04  -1.2148590e-02  -7.6326483e-04  -3.5496350e-04
   9.9787059e-05   2.9732345e-04  -1.0717447e-04   1.4994176e-04  -2.0509357e-04  -2.9729310e-04  -3.5724719e-04  -4.0114237e-04  -3.2911851e-04  -7.5848587e-04  -7.5553937e-05  -1.4288565e-05   6.5249600e-04  -1.9304756e-04  -3.0051329e-04  -4.1856163e-04  -2.5573399e-04   2.6073822e-04  -9.8460307e-04  -2.5758974e-04   4.7147225e-04  -2.2375341e-05   1.7236894e-03  -2.0064295e-03   9.9661725e-04   1.1594275e-03   6.7162124e-04  -1.7884352e-04  -1.2668734e-03  -7.8749799e-05  -4.6545192e-05  -1.7772662e-04   8.9996778e-05  -4.6264014e-04   1.0036821e-05  -1.7015869e-04  -3.9126445e-04  -1.5328696e-04  -2.2320283e-04   5.0693331e-04  -2.9975295e-04  -4.8720397e-04  -1.8376799e-03  -1.6017492e-04  -1.3119625e-03   5.1593757e-04  -2.8956303e-05   5.3733665e-02  -1.6684363e-04  -1.8644586e-04
   2.0651665e-04   2.8703047e-04   1.0504565e-04  -5.5384116e-05  -3.5757490e-04  -6.0659373e-04  -3.7557250e-04  -1.6792022e-03  -2.4458644e-04  -1.0468172e-03   5.0504389e-04  -4.8790895e-04   9.1793807e-04  -8.0824779e-05   7.5009695e-05  -5.5819175e-05   1.2683157e-04   9.0244715e-04   1.6142133e-03  -6.1697210e-04   2.8880517e-04  -3.9388280e-04   2.1530634e-03  -5.9917796e-04  -1.9240473e-05   1.6321243e-03   1.7686139e-03  -2.0886183e-04  -2.0280362e-03  -6.2363870e-05  -7.2951359e-04   3.3359497e-04   7.6734001e-04  -7.0637499e-04   8.3870313e-05   2.1914663e-04   1.6568508e-04  -5.0132169e-04  -1.3125954e-04  -5.8491743e-04   2.9443423e-04  -5.1749579e-04  -1.5764914e-03  -3.4346789e-04  -1.1261385e-03   8.2171449e-05   8.7818073e-05   5.7789660e-03  -6.2174979e-04  -2.9693687e-04
  -2.1339622e-05  -2.5609008e-04  -6.4667396e-04  -4.8435444e-04  -2.4099517e-04  -6.7883736e-04  -7.6702732e-04  -2.0866308e-03   4.2093979e-04  -1.4274732e-03   6.7162636e-04  -5.7194062e-04   1.2386931e-03   2.4833035e-04   6.9237093e-04   3.4859782e-04  -1.2256565e-04   1.4013165e-03  -1.2542516e-03   4.2559588e-04  -1.7678432e-04  -6.3751207e-04   2.9963541e-03  -3.6955150e-04   3.7884470e-03   2.5285333e-03   2.5523065e-03   1.6916862e-04  -1.5977870e-03  -4.2835993e-04  -1.4376669e-03  -4.1944286e-04  -1.4531598e-03  -6.6733698e-04  -1.1232089e-04  -5.1797152e-04   3.8269421e-04  -1.0206226e-03  -5.0850253e-04  -8.6356461e-04   3.5704311e-04  -5.4427306e-04  -2.2937804e-03  -4.0390983e-04  -9.4001669e-05   2.7991453e-04   1.0891079e-06  -1.1451689e-02  -6.6350086e-04  -5.4185610e-04
  -3.3859207e-04  -7.9679239e-04  -1.2232214e-03  -9.7181555e-04  -1.2254900e-03  -1.2729935e-03  -1.0819141e-03  -1.9960483e-03  -1.2231622e-03  -1.5816055e-03   4.2097861e-04  -1.0623399e-03   5.5357045e-04  -9.3248091e-05   1.5687573e-04  -1.4332726e-04  -4.7008871e-04   1.5603849e-03  -5.9926586e-04  -1.1452392e-03  -6.3083391e-04  -1.1305737e-03   5.8905949e-04  -2.4699245e-03   1.0355173e-03   1.5465958e-03   2.8118708e-03   1.7281264e-04  -2.4420791e-03  -4.6206123e-04   1.7807859e-03  -1.0320431e-03   8.0718839e-04  -1.2642859e-03  -4.6606143e-05  -2.1220908e-04   7.0595788e-04  -8.0343941e-04   1.3877875e-04   1.9100306e-04  -2.8662840e-04  -6.2928797e-04  -7.2293994e-03  -1.9896631e-04  -8.4544934e-04   8.0487231e-04   6.5111089e-04  -3.7054121e-03  -1.0920238e-03  -1.8756569e-04
   8.1362843e-04  -4.7503669e-05   9.2388036e-05  -7.0157163e-05   2.7528529e-05  -6.5326318e-04  -5.1541363e-05  -1.9012319e-03  -1.6531794e-03  -2.8985759e-04   1.0469052e-03   1.4977642e-04   6.0123258e-04  -1.9153180e-04   3.6489964e-04  -7.6589138e-05  -9.8723138e-04   1.6627136e-03   1.1820184e-03  -3.9591506e-04   4.8121135e-04  -3.8293202e-04   1.0334386e-03  -1.7334201e-03   1.6145352e-03   1.0397858e-03   3.2018272e-03   3.2573013e-04  -1.8774702e-03   2.6217627e-04   1.0688414e-03   5.9561447e-05   1.5868638e-03  -7.0847716e-04   2.6604164e-04   1.0249477e-04   1.3869648e-03  -4.6651094e-04   9.6365734e-04   8.1814948e-04   1.0338131e-03  -5.0498795e-04  -1.1863163e-03  -2.5270854e-05  -2.3839935e-03   5.2888086e-04   9.2410989e-04   5.0748372e-03  -7.0280291e-04   1.1183753e-04
   9.8206417e-04   1.9656986e-04   3.2542550e-05  -4.8153579e-05  -3.6099934e-04  -6.0423091e-04  -1.2615694e-04  -1.3812999e-03  -7.0672482e-04   8.3915467e-05   8.1986701e-04   1.9232833e-05   2.4606014e-04  -4.1582505e-04  -1.9684398e-04  -2.7226491e-04  -1.3726375e-03   7.5135636e-04   3.1599400e-03  -3.8378572e-04   6.6578854e-04   5.4587317e-06   9.9662784e-04   2.1738915e-03   2.9456662e-04  -2.2331910e-04   1.9495632e-03  -2.0136786e-04  -1.9659505e-03   5.0933944e-04   2.5165302e-03   1.2130610e-03   8.3198451e-04  -6.6216185e-04   2.4120268e-04   6.0964777e-04   9.3789422e-04  -2.9118953e-04   5.4040673e-04   2.1633691e-04   1.9385119e-04  -3.6799363e-04  -3.2657774e-03   8.5307292e-05  -2.2698555e-03   3.5763244e-04   7.2726485e-04  -1.5578781e-02  -2.1285430e-04  -1.4359780e-05
   1.4860423e-04  -2.6876151e-04  -5.4663437e-04  -3.1833377e-04  -7.1281072e-04  -7.1398652e-04  -1.9549807e-04  -1.5901753e-03  -2.6409749e-03  -1.1622778e-04   7.0810558e-05  -4.9420862e-07   1.3253919e-04  -5.1543501e-04  -4.3397286e-04  -2.0432699e-04  -1.3198733e-03   4.0929360e-04   4.3724765e-04  -4.3192110e-04   1.5083142e-04  -2.3998784e-04   6.6185876e-04  -2.0178934e-03  -2.1937594e-05  -5.3208496e-04   1.2626846e-03  -1.7056099e-04  -1.5328478e-03   3.0825293e-04  -8.0581912e-04  -1.3559729e-04  -1.9027265e-04  -4.2874654e-04  -1.8870602e-05  -1.5492864e-04   6.7787862e-04  -4.6407155e-04  -3.1802309e-04  -3.6196585e-04   2.1253817e-04  -3.4979064e-04  -3.1743038e-03  -1.1312160e-04  -3.4171555e-04   5.2838528e-05   3.6348103e-04  -5.5913609e-03   2.7075348e-06  -4.8840820e-04
  -5.2118546e-04  -6.0299464e-04  -9.5581653e-04  -5.4461806e-04  -4.4313938e-04  -7.4197864e-04  -8.3549443e-04  -1.0832916e-03  -2.2840900e-03  -4.2451656e-04  -8.0145785e-04  -4.9192243e-04  -3.3800717e-04  -1.2327537e-03  -1.5161622e-03  -5.6653557e-04  -1.1185900e-03  -6.8609702e-04  -1.2047820e-03  -1.1023366e-03  -1.1925287e-04  -4.8780226e-04  -7.3973753e-04   4.2581747e-04  -3.9040856e-03  -1.9361462e-03  -6.7511358e-04  -1.4963610e-03  -9.2079455e-04   1.4563196e-04  -5.8663875e-04  -1.4449999e-03   7.0137705e-04  -3.3985201e-04  -2.3531949e-04   3.2333613e-04  -3.9464119e-04  -1.5899456e-04  -2.6838132e-04  -3.7691562e-04  -6.9480424e-04  -2.6788554e-04   2.9050421e-03   1.9049006e-04  -1.0185457e-03  -8.9724555e-05   4.3580189e-04  -2.2473594e-02   6.1568666e-05  -1.8881744e-04
   1.6492343e-04   5.0296392e-05  -1.5795528e-04   1.9136100e-04   5.3051550e-05  -8.1470962e-06   2.3972224e-04  -9.2302309e-04  -1.2303790e-03   4.4220244e-04  -8.8996132e-04   3.6035344e-04  -2.2815428e-04  -1.2491067e-03  -1.7022958e-03  -7.2532205e-04  -1.2123995e-03  -8.2470971e-04  -5.1145110e-04  -5.9320626e-04   9.6697349e-04   3.2858443e-04  -6.7849265e-04   2.7830902e-04  -2.9325145e-03  -1.5927355e-03  -7.1772374e-04  -6.7253958e-04   4.8013604e-05   6.0077460e-04  -1.8207918e-04  -3.1617110e-05   7.4731087e-04  -3.7436257e-04  -1.8705221e-05   2.0471930e-04   6.4489577e-04   3.3965221e-04   1.9507309e-04   3.2250088e-04  -7.8366324e-04  -2.0073078e-04   3.2107048e-03   3.1560441e-04  -1.7207197e-03   4.0389135e-04   3.6453441e-04  -5.5648703e-03   3.5256776e-04  -3.3019885e-04
   5.4506911e-04   9.8855035e-06   1.0511675e-06   1.8615942e-04   3.2877666e-04  -6.8715592e-05  -1.0315605e-04  -9.9964452e-04  -1.0183017e-04   2.0789269e-04  -1.1334930e-03   3.4273701e-04  -2.1559188e-04  -1.1596413e-03  -1.5472051e-03  -6.2311330e-04  -1.0982156e-03  -1.1045309e-03   2.0054351e-03  -3.4718437e-04   7.9834019e-04   2.1426342e-04  -1.5140358e-04   1.6873303e-03  -3.7811240e-03  -1.5168646e-03  -7.4502215e-04  -8.1301847e-04   9.9139009e-04   4.4227680e-04   6.2816114e-05  -1.4190122e-03   5.0998409e-04  -1.3795299e-04  -5.6926285e-05   1.0368402e-04   3.5332923e-05   2.3178048e-04  -1.3590651e-04   1.1142843e-04   7.7818922e-04  -3.3707122e-04   3.4847299e-03   8.2437742e-05  -1.9508906e-03   1.3251512e-04   5.2900665e-05  -2.6208939e-02  -1.5839328e-04  -5.5812887e-04
  -1.3127242e-04  -4.6659019e-04  -3.4812681e-04  -1.5850556e-04  -3.2817232e-04  -1.5153836e-04  -1.1383426e-04  -6.5067533e-04  -8.1066781e-04  -9.4918687e-05  -1.5830596e-03  -2.0425507e-05  -5.0999149e-04  -1.4082926e-03  -2.0580275e-03  -9.2633063e-04  -1.6294083e-03  -1.6964568e-03  -7.5360481e-04  -7.5074297e-04   5.7026662e-04   3.1803228e-04  -1.2530040e-03  -1.4009316e-03  -1.9694404e-03  -2.1633948e-03  -1.4684171e-03  -1.5139675e-03   8.8055816e-04   3.0387851e-04   2.8571551e-04  -1.1181970e-03  -3.1191928e-04  -2.8113683e-04  -4.0112733e-04   4.8444176e-04  -3.1554163e-04  -8.3437008e-05  -5.3734757e-04  -1.5773646e-04  -6.2498706e-04  -4.4781138e-04   5.3623412e-03  -2.5846314e-04   3.9307390e-05  -5.1681179e-04  -3.3067164e-04  -5.0739208e-03  -5.4027908e-04  -1.1702779e-03
  -6.5737742e-04  -8.8821258e-04  -7.4045971e-04  -5.1773363e-04  -3.3614546e-04  -2.8189967e-04  -1.7800940e-04  -3.5721104e-04  -2.1070379e-03  -5.4008391e-04  -2.0474766e-03  -5.0070806e-04  -7.4156368e-04  -1.6007752e-03  -2.2285613e-03  -1.1165253e-03  -1.6885392e-03  -1.8773305e-03  -9.3341625e-04  -1.3448950e-03   2.6500211e-04  -2.7451562e-04  -1.3805374e-03  -2.9779563e-03  -3.5921147e-03  -2.5622873e-03  -2.0130016e-03  -1.5395172e-03   9.8206487e-04   1.0752011e-04  -2.2788080e-03  -4.7413228e-04  -1.5522064e-04  -6.8023591e-04  -4.7320192e-04  -2.7867084e-04   2.6738411e-04   1.5238058e-04  -5.7172548e-04  -4.4332497e-04  -5.4988317e-04  -4.5165041e-04   4.8700371e-03  -2.1492480e-05  -1.8060318e-04  -8.4877218e-04  -3.5973539e-04  -1.2054509e-02  -3.3513500e-04  -7.8128866e-04
   4.2199274e-05  -3.1182647e-04  -1.0270839e-04   6.3062944e-05   2.6071377e-04   2.7963091e-04   4.7516922e-04  -2.3109966e-04  -6.5782027e-05   2.1221297e-04  -2.0242254e-03   3.3632413e-04  -7.3187676e-04  -1.6978830e-03  -2.6320608e-03  -1.4832559e-03  -1.8900641e-03  -2.3560964e-03   1.4792074e-03  -1.2193173e-03   1.1052360e-03   5.8782572e-04  -1.2974226e-03  -5.9301505e-04  -3.1136558e-03  -2.6429640e-03  -2.5726561e-03  -1.2983334e-03   8.0300606e-04   5.1112100e-04  -1.9610729e-03  -7.3297328e-04   3.2819845e-04  -2.3298708e-04  -4.0810875e-04  -5.2511350e-06  -4.0298808e-04   4.4536678e-04  -2.5332169e-04  -2.8538276e-04  -1.9186300e-03  -5.1786809e-04  -2.6744365e-04   1.1774169e-04   1.0591052e-03  -1.1685458e-03  -5.6325755e-04  -1.3096961e-02  -4.9363938e-04  -8.3995698e-04
  -2.3426556e-04  -3.5759062e-04  -1.3260295e-04   2.0835843e-04   1.9352447e-04   7.9191243e-04   5.4260530e-04   2.1012622e-04  -1.9871958e-03   2.0432763e-04  -2.3647477e-03   2.8664403e-04  -8.2332490e-04  -1.8171455e-03  -2.9335455e-03  -1.2600145e-03  -1.8588692e-03  -2.8677729e-03  -3.5732079e-04  -1.2942042e-03   9.5419516e-04   7.6526002e-04  -9.9560537e-04  -1.5958983e-03  -3.7742613e-03  -2.8871384e-03  -3.2002111e-03  -1.7680529e-03   4.5712467e-04   4.5926552e-04  -1.0722439e-03  -1.9824258e-03  -6.3922937e-04  -6.0873217e-04  -5.9858453e-04  -1.3864845e-04  -6.2153110e-04   4.2591523e-04  -8.9040369e-04  -3.1684022e-04  -1.2483136e-03  -5.3713674e-04   7.5433170e-03  -9.5247211e-05  -9.4741111e-04  -1.1960077e-03  -9.0379937e-04   2.0582669e-03  -1.2014257e-03  -1.3465902e-03
  -7.0609676e-04  -6.5787707e-04  -4.2800896e-04  -2.2813630e-05  -1.7768507e-05   6.0469256e-04   3.3738275e-04   4.3609118e-05  -2.6488379e-03  -9.3097296e-05  -2.6691856e-03  -2.6940650e-04  -9.7235775e-04  -1.8481683e-03  -3.0177147e-03  -1.7366826e-03  -1.9702245e-03  -3.0519103e-03   7.1858912e-04  -1.2731514e-03   5.8097951e-04   2.6542813e-04  -1.5700455e-03   1.3540722e-03  -4.0685530e-03  -2.9163242e-03  -3.4759049e-03  -2.0249386e-03   5.4661906e-04   2.2681693e-04  -2.6894785e-03  -1.5128147e-03  -5.8480218e-04  -1.0629565e-03  -7.8376324e-04   8.8460496e-05  -7.8226079e-04   8.9397377e-05  -9.4567164e-04  -1.1001432e-03   4.2731458e-04  -6.5310561e-04   2.0442393e-03  -5.1265984e-04  -8.9281413e-04  -1.4479638e-03  -1.2919403e-03  -2.9494523e-03  -1.1699364e-03  -1.5706365e-03
  -1.2207918e-03  -1.1835530e-03  -1.0893892e-03  -4.0039388e-04  -3.5342076e-04   2.9418472e-04  -3.0568120e-04   8.3463936e-04  -2.6404480e-03  -2.0993024e-04  -3.0461738e-03  -1.8530482e-04  -1.0270948e-03  -1.9003770e-03  -3.2758112e-03  -1.8289183e-03  -2.2154520e-03  -3.6287969e-03  -1.4735220e-03  -2.1048638e-03   9.3114632e-04   6.1072782e-04  -1.9102667e-03  -1.2468480e-03  -4.9486239e-03  -2.7772393e-03  -3.6020940e-03  -1.9076864e-03   1.9883530e-03   4.3969648e-04  -3.6458166e-03  -1.6785666e-03  -1.1166332e-03  -1.0048574e-03  -7.3187659e-04  -2.5832481e-04  -4.9314735e-04   7.2827440e-04  -4.1810726e-04  -1.7900068e-04   4.8970771e-05  -5.2559812e-04   3.0448092e-03   1.2085041e-05  -3.4283515e-04  -1.0233410e-03  -9.2719228e-04   5.4425816e-03  -6.9351855e-04  -9.1743504e-04
  -6.4026579e-05  -3.7428751e-04   4.7455833e-05   3.5534782e-04   5.4652337e-04   1.1398032e-03   6.9069106e-04   8.2311803e-04  -1.4888190e-03   3.7253773e-04  -2.8043799e-03   3.8372076e-04  -8.4355602e-04  -1.8063266e-03  -2.9771568e-03  -1.7554308e-03  -2.1906658e-03  -3.2658235e-03  -2.4071641e-03  -1.9587134e-03   1.1399294e-03   1.0134630e-03  -1.4218721e-03  -9.0747647e-04  -3.3733777e-03  -2.6514151e-03  -3.4700504e-03  -1.6358183e-03   1.0806776e-03   5.6072726e-04  -2.0342807e-03  -2.9137025e-03   1.0237535e-03  -7.5970375e-04  -6.8142882e-04   2.0107132e-04  -1.3951637e-05   7.1841665e-04  -2.1178919e-04  -2.1546400e-04  -8.3340559e-04  -5.1254837e-04   1.4180418e-03  -5.8499088e-05  -1.1237548e-03  -1.3752909e-03  -1.0929747e-03   7.8637563e-03  -8.8400539e-04  -1.0152480e-03
  -4.0407971e-04  -5.9792749e-04  -9.4001363e-05   1.6193445e-04   4.5454406e-04   5.2308646e-04   4.4569539e-04   2.2204695e-04  -7.3026022e-04   1.3130471e-04  -2.8369906e-03   1.1693167e-05  -8.4556430e-04  -1.6713592e-03  -2.9725363e-03  -1.6741117e-03  -1.8260857e-03  -3.2383099e-03   9.0897549e-04  -1.7534212e-03   7.5206108e-04   7.3459226e-04  -1.2030154e-03  -1.1990761e-03  -3.4167452e-03  -2.5497805e-03  -3.3475354e-03  -1.8711267e-03   1.0976118e-04   3.2176464e-04  -2.6658364e-03  -1.2937646e-03  -9.2105125e-04  -5.4351479e-04  -7.1699859e-04  -1.7644232e-04  -9.9726208e-04   3.3184336e-04  -8.9067244e-04  -6.3746650e-04  -9.2827296e-04  -6.6660659e-04   5.8263834e-03  -3.8524953e-04  -1.0024961e-03  -1.5073834e-03  -1.2110069e-03   9.5972506e-04  -1.0881518e-03  -1.1866940e-03
  -9.7872585e-04  -1.1503369e-03  -7.0285227e-04  -3.5485544e-04   1.6253027e-04   4.2001429e-04  -1.9720243e-04  -2.5983754e-04  -1.4276569e-03  -4.8900995e-04  -2.9528751e-03  -5.4188241e-04  -5.4290786e-04  -1.0674181e-03  -2.1504036e-03  -1.0927082e-03  -1.3032525e-04  -2.4557076e-03  -1.3117244e-03  -1.9161883e-03   7.7809600e-05  -1.0452609e-04  -6.6622946e-04  -7.0232811e-04  -3.0436923e-03  -1.7500308e-03  -2.7661517e-03  -1.4371118e-03   1.8945180e-03  -1.9113006e-04  -1.5508150e-03  -1.9103588e-03   1.6752015e-04  -7.6083036e-04  -9.3017041e-04  -6.3995994e-04  -1.5106730e-03  -2.0703324e-04  -1.6993133e-03  -1.3186659e-03  -7.3481130e-04  -9.4608590e-04   1.3501593e-03  -5.7318679e-04  -1.3330531e-03  -1.4772982e-03  -1.6177497e-03   2.6023998e-03  -1.3963234e-03  -1.5939738e-03
  -1.6832520e-03  -1.7356764e-03  -1.3034490e-03  -8.6583901e-04  -1.1882240e-04  -1.8808609e-04  -4.8896868e-04  -2.9465373e-04  -1.9872729e-03  -6.3416205e-04  -2.9964373e-03  -9.2344085e-04  -4.2986378e-04  -8.7572937e-04  -2.1663951e-03  -6.3333561e-04   4.5215830e-04  -1.9889360e-03  -4.2601163e-04  -9.4506860e-04   4.3694759e-04   3.5375713e-05  -4.0101630e-04  -1.0100350e-03  -1.5572413e-03  -1.4014508e-03  -2.6054899e-03  -1.3349598e-03   3.7604952e-04  -9.9117766e-05  -2.4752568e-03  -8.8904297e-04  -4.9464061e-04  -4.8763107e-04  -8.0581632e-04  -4.3165821e-04  -1.0275453e-03   3.0340225e-04  -7.3413301e-04  -2.1847093e-04  -1.7266034e-03  -5.7859748e-04   5.1739963e-04  -1.7773248e-04  -1.9209497e-03  -1.1863136e-03  -1.1252973e-03   1.1153303e-03  -8.2453783e-04  -7.4306136e-04
  -5.2094727e-04  -7.2006823e-04   2.0498784e-04  -4.6982186e-05   1.3397294e-04   4.6149982e-04  -3.5801317e-05   1.0048485e-04  -4.8124164e-04  -3.4125819e-04  -2.5564791e-03  -3.2444263e-04  -1.5703263e-04  -7.1892736e-04  -2.0264068e-03  -4.7062623e-04   5.8889610e-04  -1.9962785e-03  -8.1052829e-04  -5.7963136e-04   5.1622308e-04   2.5352766e-04  -1.5096617e-05  -4.1093014e-04  -2.7386316e-03  -1.1379317e-03  -2.3452160e-03  -1.4133153e-03   5.0272932e-04   9.2819046e-06  -2.4874480e-03  -1.0881834e-04   1.3370384e-04  -7.8395224e-04  -7.1967405e-04  -7.3351647e-04  -9.5785467e-04   2.1454999e-04  -9.1167493e-04  -6.8659737e-04   7.2756864e-04  -4.5068801e-04   2.1557414e-03  -1.6443750e-04  -4.1656694e-04  -1.0068070e-03  -1.0561872e-03   2.4301535e-03  -9.0244744e-04  -7.8726071e-04
  -9.6472207e-04  -7.4574293e-04  -3.6833179e-04  -1.9620072e-04   4.0365187e-05   1.8134103e-04  -1.8800367e-04   7.7785319e-04  -1.6725746e-03  -6.1903620e-04  -2.4096693e-03  -6.5573194e-04  -8.1139835e-05  -7.4224215e-04  -2.0151583e-03  -5.8886845e-04   3.9399767e-04  -2.0568008e-03  -1.0552077e-04  -6.3696963e-04   1.6091924e-04  -1.6503260e-04  -2.5298723e-04   9.4355346e-04  -1.4081686e-03  -1.2485182e-03  -2.2436054e-03  -1.3387837e-03   1.9064590e-03  -2.0108381e-04  -8.8201079e-04  -1.3140065e-03  -1.6781066e-04  -8.9574355e-04  -8.9915539e-04  -1.0045439e-03  -3.1450923e-04  -1.1176790e-04  -1.4176862e-03  -9.0906123e-04  -9.8858622e-04  -7.4683258e-04  -1.5502617e-03  -3.8943440e-04  -5.2231440e-04  -8.4826961e-04  -1.1148332e-03   2.0128479e-02  -8.5260771e-04  -9.1352529e-04
  -1.1519156e-03  -9.8224892e-04  -8.3039206e-04  -5.1899470e-04  -1.9255072e-04   3.7468704e-05  -4.2272813e-04   7.6306384e-04  -1.8945216e-03  -1.0478520e-03  -2.3623719e-03  -9.1616658e-04  -1.0310312e-04  -5.5595639e-04  -1.7540805e-03  -4.7020652e-04   8.1226259e-04  -1.6973218e-03  -3.0017858e-03  -8.1290357e-04  -2.7479834e-04  -4.9514964e-04  -3.6663876e-04   2.1894418e-03  -1.3581075e-03  -9.8515768e-04  -1.9438488e-03  -1.5231606e-03  -3.4389072e-04  -5.0194131e-04  -3.0595837e-03  -2.0937655e-04  -3.1470208e-04  -9.2736370e-04  -9.6477655e-04  -1.4015832e-03  -1.2053159e-03  -5.5609731e-04  -1.9054803e-03  -1.0218157e-03  -4.5984806e-04  -7.1602984e-04   3.0193964e-03  -6.2413857e-04  -4.2802253e-04  -1.2354866e-03  -1.2481404e-03   9.4505878e-05  -7.6196488e-04  -9.2752808e-04
  -1.1869903e-03  -9.2766288e-04  -1.0562483e-03  -3.8584962e-04  -3.2511086e-04  -8.9196779e-05  -1.9463293e-04   6.6776230e-04  -1.7507693e-03  -7.8905281e-04  -2.0346842e-03  -3.9066467e-04   9.7314944e-05  -4.9142545e-04  -1.4035079e-03  -6.0259184e-04   8.9858659e-04  -1.4553028e-03   4.2383312e-04  -4.6060618e-04   2.1084482e-04   3.9867158e-05   4.6628556e-04  -2.1477831e-03  -1.2616873e-03  -6.3510437e-04  -1.5715862e-03  -1.2224456e-03   4.8093640e-04  -2.5169266e-04   1.0401177e-04  -1.3680164e-03  -2.5254645e-04  -4.9918838e-04  -5.8027584e-04  -8.8681083e-04  -9.5429952e-04  -1.2342443e-04  -1.0689517e-03  -1.0656351e-03  -8.7893713e-04  -3.0703325e-04   3.8125820e-03  -1.1748789e-04  -7.5477792e-04  -7.4209843e-04  -6.2534073e-04   2.3314798e-02  -6.1029052e-05  -6.8953296e-04
  -4.9389200e-04  -4.6982855e-04   8.9230780e-05  -2.0332310e-04  -1.3962573e-04  -5.0284329e-05  -3.7357115e-04  -5.0608238e-04  -7.6282059e-04  -6.9258950e-04  -1.2328729e-03  -4.9495889e-04   5.9974182e-04   7.4175310e-05  -4.9222418e-04   1.7014433e-04   1.8221162e-03   2.2001138e-04  -5.0947658e-04  -3.8551402e-04   1.3058097e-05  -1.7691824e-04   6.7352073e-04  -2.6543660e-03   5.9439824e-04   6.9668907e-04   6.5040996e-04  -4.6443698e-04   1.5856102e-04  -4.3588795e-04   1.4607116e-03   8.6300791e-04   8.6410664e-04  -3.3183268e-04  -5.1324489e-04  -3.6833659e-04  -8.4781938e-04  -6.3478446e-04  -9.4117905e-04  -8.9877326e-04  -1.0172473e-03  -3.4410314e-04  -2.3334217e-03  -3.5776652e-04  -1.1088517e-03  -5.3382776e-04  -1.9122968e-05  -2.0150963e-02  -5.0801621e-04  -6.0144678e-04
  -3.5677696e-04  -8.9294452e-04  -4.8829697e-04  -7.5511640e-04  -5.8630580e-04  -5.2975630e-04  -1.0495041e-03  -8.9099910e-04  -6.7055284e-04  -1.2683036e-03  -6.7318353e-04  -8.6207018e-04   6.0351752e-04   1.6240390e-04   1.6396979e-04   4.0448137e-04   1.2759446e-03   1.0477001e-03   7.0504710e-04   1.4442968e-04  -5.0563202e-04  -9.0147584e-04   1.9562794e-03  -1.6485495e-03   1.5711257e-03   8.6213025e-04   1.3759427e-03  -2.0792281e-04  -8.0680713e-04  -5.9314026e-04   1.1993296e-03   5.7302875e-04   8.2660037e-05  -3.6332465e-04  -6.5579615e-04  -2.1416236e-04  -7.1824255e-04  -1.1022362e-03  -9.0655772e-04  -7.8481709e-04   7.0530170e-04  -5.9662445e-04  -1.3733787e-03  -5.6606665e-04  -1.2483025e-03  -2.1465738e-04   1.2836691e-04   6.4569982e-03  -4.2518778e-04  -6.0851086e-04
  -6.6474947e-04  -1.0691468e-03  -9.1824972e-04  -1.1018834e-03  -1.1108571e-03  -1.0145336e-03  -1.0576790e-03  -5.6229555e-04  -4.1959324e-04  -1.1763800e-03  -6.0489983e-04  -9.9358754e-04  -5.3110143e-05  -9.0977854e-05  -3.9030155e-04   2.3342589e-04   7.4838713e-04   3.6936117e-04   6.9038925e-04  -6.5867498e-04  -5.8950175e-04  -9.1386872e-04   4.7685820e-04   5.3287897e-04   1.9324558e-04  -4.8255944e-04   1.7276793e-04  -9.3092205e-04  -8.5862365e-04  -5.1631680e-04  -2.8340807e-03  -3.9647543e-04  -7.0527618e-05  -7.7231642e-04  -7.4880366e-04  -1.3263867e-03  -7.7343150e-04  -1.1525368e-03  -1.1403721e-03  -6.7231333e-04  -1.9594234e-04  -3.9323635e-04   3.0957162e-03  -4.1992997e-04   2.9539707e-04  -5.3609943e-04   1.2319232e-04  -1.2419287e-02   6.0465863e-05  -3.9309586e-04
  -1.8355325e-04  -3.7355829e-04  -2.4352293e-04  -4.0029929e-04  -4.6730052e-05  -4.4825708e-04  -5.3055817e-04  -9.2926604e-04  -5.5286044e-04  -1.9580235e-04  -5.3781184e-04  -3.7174986e-04   3.6002102e-04  -4.7476689e-05  -2.6527565e-04  -2.9432325e-05   6.6035468e-04   2.4191722e-04   9.7482977e-04  -2.9117812e-04   3.7173289e-04  -1.7058478e-04   1.8242032e-04   1.6951250e-03  -1.1054460e-03  -5.6477860e-05   7.2941260e-04  -6.2973599e-04  -1.5704904e-04  -1.0698441e-04  -1.6983978e-03   9.6332456e-04   3.1659479e-04  -3.7199410e-04  -4.1805921e-04  -1.4381560e-03  -5.8776579e-05  -6.8168476e-04  -4.1033645e-04  -4.2739778e-04  -7.6050765e-04  -1.5455333e-04  -7.2968085e-03  -1.4919534e-04   6.7005231e-04  -2.7572201e-04   7.9551269e-04   2.8262177e-04   1.6063041e-04   7.5820550e-05
   2.2630852e-04   6.2197978e-05  -2.9634961e-04  -1.3054564e-04  -2.4042251e-04  -2.4824889e-04  -4.3652547e-04   3.0531481e-04  -2.4582264e-03   4.8739201e-04  -4.5266814e-04   1.7277474e-04  -9.8051452e-05  -5.9923809e-04  -1.0634202e-03  -3.6652034e-04  -8.0171616e-05  -4.7562702e-04  -2.7822149e-03  -3.6455944e-04   8.3423028e-04   4.6465677e-04  -5.9881358e-04  -2.9562731e-04  -2.7913011e-03  -1.7007975e-03  -1.1255585e-03  -1.1389486e-03  -1.0686166e-04   3.4420154e-04  -6.7566545e-04   2.3743145e-04   1.0398329e-03  -3.6509722e-04  -4.3034900e-04  -7.8005297e-04   1.5883082e-04  -3.4058894e-04  -3.7584844e-04  -9.6359447e-04  -4.2244699e-04   3.4029048e-04   4.8924075e-03  -1.1820731e-04  -2.9760692e-04  -4.4943736e-04   5.1114894e-04   3.6325909e-03   2.4001814e-04  -6.0083799e-05
  -4.4765772e-04  -2.0199560e-04  -6.2887516e-04  -1.8998353e-04  -3.8858119e-04  -2.2745618e-04  -4.7037701e-04   3.0577386e-04  -2.4403695e-03   1.4469454e-04  -9.8706514e-04  -2.8656592e-04  -8.0240592e-05  -8.8009489e-04  -1.6952398e-03  -2.2010805e-04  -1.2246992e-04  -1.1497918e-03  -5.8187591e-04  -3.7032430e-04   2.4965109e-04   3.7748652e-04  -1.5352557e-04   1.3474267e-03  -1.0098196e-03  -1.7067122e-03  -1.3773952e-03  -1.6871339e-03   2.5826786e-04  -1.1696418e-05  -8.8033662e-04  -1.0178954e-03  -5.7107315e-04  -2.4522346e-04  -5.3317746e-04  -1.1138751e-03  -4.2878362e-04  -5.6321983e-04  -9.0673525e-04  -1.4984930e-03  -4.3818212e-04  -2.1051514e-05   5.6329039e-03  -1.9889338e-04   6.5242196e-04  -4.9284394e-05   4.2913892e-04   9.8717622e-03   4.2076968e-05  -5.3422898e-04
  -8.0939539e-04  -6.3560368e-04  -8.8743679e-04  -4.7394438e-04  -5.3069473e-04   5.4215947e-05  -2.8768621e-04  -3.0189398e-04  -4.6915485e-04  -2.4687350e-04  -1.4468420e-03  -2.6172146e-04  -4.2827567e-04  -1.1664761e-03  -2.2655264e-03  -1.0869821e-03  -6.7188177e-04  -1.4346096e-03  -1.7951011e-03  -1.3707813e-03   1.8824598e-04   1.0062895e-04  -7.9331174e-04   1.1293333e-03  -2.8716871e-03  -2.3013984e-03  -2.3791436e-03  -1.8612248e-03  -1.1474794e-04  -4.8872822e-05  -6.9397048e-04  -1.2605995e-03   1.2581990e-03  -2.4116214e-04  -5.2679994e-04   7.0293063e-05  -9.9250779e-04  -1.2514822e-04  -7.5071078e-04  -9.0777659e-04   1.1126642e-04   2.0475032e-04   3.1029077e-03   2.0827843e-04  -1.9700898e-04  -5.4127129e-04   5.6076481e-04  -2.5786307e-02   1.5127694e-04  -1.3351640e-04
  -1.9325515e-04   3.2800389e-04  -5.5434826e-05   3.4967449e-04  -1.3257531e-05   7.5744843e-04   2.7432377e-04  -2.3642059e-04  -7.2939397e-04   8.7875046e-04  -1.1496048e-03   6.9060962e-04  -3.3694552e-04  -1.4914558e-03  -2.7936660e-03  -1.5638000e-03  -1.4591012e-03  -2.7980125e-03  -5.6103419e-04  -1.3802839e-04   1.5169750e-03   1.5257491e-03  -1.0272003e-03   4.6004515e-04  -2.9767123e-03  -2.5925753e-03  -3.1177201e-03  -1.4582904e-03   3.7656588e-04   5.7027867e-04  -5.4646819e-04  -1.6234061e-03   4.5731518e-04   9.7086464e-05  -2.5015301e-04   3.0085459e-04  -3.7136015e-05   3.6252409e-04  -2.5682111e-04  -6.8199076e-04   1.2806341e-03   3.3842371e-04   1.4773265e-03   3.5795354e-04  -3.0362920e-04  -2.8941486e-04   7.1923132e-04   1.4580955e-02   5.4071582e-04  -9.4196555e-05
  -2.6610904e-05   5.0284032e-04   3.5873821e-04   5.5761350e-04   8.4465901e-05   1.0742376e-03   4.6709497e-04   7.9237315e-04  -3.4520603e-04   9.9093351e-04  -1.0629867e-03   9.1412611e-04  -3.6661298e-04  -1.4671003e-03  -2.9811400e-03  -1.1348652e-03  -1.4722378e-03  -2.5226178e-03  -7.8831159e-04  -7.0423720e-04   1.3141410e-03   1.3298526e-03  -1.1516757e-03   1.2623188e-03  -3.6826562e-03  -2.6984180e-03  -3.2335042e-03  -2.0190959e-03   1.0013141e-03   5.8619631e-04  -2.2703041e-03  -2.2316472e-04   7.6401728e-04  -9.5378462e-05  -3.6854809e-04  -2.8812626e-04  -3.6197976e-05   3.5762999e-04  -5.9159932e-04  -4.7682723e-04  -1.6845798e-04   5.9812155e-04  -1.6110610e-03   3.6124207e-04   7.5011264e-04  -3.2095070e-04   2.8778426e-04  -1.4343070e-02   7.2125753e-04  -3.2778774e-04
  -2.9570318e-04   1.1601754e-04  -4.5891458e-04   3.2927279e-04  -2.5284488e-04   1.1647054e-03   4.0241968e-04   3.6293853e-04  -5.9788860e-04   6.5568747e-04  -1.5335693e-03   5.0049275e-04  -4.7480408e-04  -1.7051714e-03  -3.2039946e-03  -1.8219755e-03  -1.6261860e-03  -3.2029077e-03   1.5489469e-04  -5.2682223e-04   8.7509846e-04   9.6792536e-04  -1.3563898e-03   1.9759079e-03  -4.3027001e-03  -3.1516105e-03  -4.3336116e-03  -2.2297616e-03   1.8613767e-03   3.9579425e-04  -1.1313567e-03  -1.1982243e-03  -3.6062629e-04  -3.9648835e-04  -5.2635965e-04   8.9198857e-04  -3.6614487e-04   2.7693380e-04  -1.3332024e-03  -7.7241100e-04   2.8130340e-05   3.3466014e-04   4.4134744e-03  -3.5304842e-05   1.0965691e-03  -5.5898307e-04  -1.6336986e-04   7.1746125e-03  -3.4208436e-04  -6.7591976e-04
  -1.1119072e-03  -3.3546702e-04  -7.1923755e-04   1.1017648e-04  -3.4199088e-04   9.3046116e-04   2.4700051e-04   6.8698253e-04  -1.9634811e-03   2.8389003e-04  -1.8968189e-03  -4.5931687e-05  -6.1495765e-04  -1.8123965e-03  -3.5639361e-03  -1.8413024e-03  -1.6702628e-03  -3.6309452e-03  -6.7979406e-04  -1.2731326e-03   2.9148249e-04   4.4606309e-04  -1.4603559e-03   7.5303542e-04  -5.3085852e-03  -3.5413529e-03  -4.9306438e-03  -2.4205486e-03   1.7862131e-03   9.8794902e-05  -3.3364203e-03  -1.8263569e-03   3.1312386e-04  -3.0963423e-04  -6.5592368e-04  -6.1858440e-04  -5.2942260e-04   4.1803086e-04  -1.1733054e-03  -7.8356836e-04   6.9512450e-04   3.2595263e-04   7.5621600e-03   1.4206719e-04   1.1239173e-03  -1.0488739e-03  -3.5246171e-04   5.8227405e-04  -2.4593697e-04  -3.1525947e-04
  -2.4943869e-04   2.5985902e-04  -2.6504535e-04   8.1432163e-04   9.0355015e-06   1.8567918e-03   1.1948530e-03   1.0478201e-03  -2.7030995e-04   1.3536189e-03  -1.6509844e-03   9.8213379e-04  -4.2419336e-04  -1.8636115e-03  -3.7790851e-03  -2.0984004e-03  -2.1260306e-03  -4.0250057e-03   4.7351047e-04  -4.6148564e-04   1.3814613e-03   1.7004295e-03  -8.0863235e-04  -1.2269634e-03  -5.3809215e-03  -3.6445952e-03  -5.5216514e-03  -2.3614091e-03   2.6583306e-03   7.7956304e-04  -3.5687524e-03  -2.4842685e-03   1.3777453e-03  -2.2019215e-04  -3.4159911e-04   7.0390996e-04   1.5263070e-04   1.0376761e-03  -9.2182128e-04   8.8758352e-05   7.0951838e-04   5.6972937e-04   5.3340024e-03   4.1960293e-04  -7.8626099e-04  -9.3791861e-04  -3.7671099e-04   2.0815127e-02  -1.3408519e-04  -1.1754531e-04
  -1.9626519e-04   5.1321631e-04   5.6861521e-04   1.0432589e-03   6.4536888e-04   2.1723760e-03   1.3585418e-03   1.9072108e-04   4.5045686e-04   1.4439974e-03  -1.6106550e-03   9.7637472e-04  -4.3267274e-04  -1.8878453e-03  -3.9219866e-03  -2.1481270e-03  -2.2266817e-03  -4.3983068e-03  -1.7837019e-03  -8.4076438e-04   1.2077843e-03   1.4289757e-03  -1.7300609e-03   4.9909443e-04  -5.5983867e-03  -3.7567257e-03  -5.7928334e-03  -2.3312967e-03   3.5560317e-03   7.8963739e-04  -4.5100353e-03  -1.7502307e-03   2.6261815e-04  -3.5759236e-04  -3.4255235e-04   3.8342908e-04  -7.4608158e-04   1.0658201e-03  -1.2144941e-03   2.4643345e-04   7.8685803e-04   5.3015200e-04   9.1828434e-03   3.9849879e-04   5.1030609e-05  -1.1452477e-03  -7.4951805e-04  -2.5915384e-02  -6.2750431e-04  -4.9719360e-04
  -6.6374074e-04   1.9643734e-04   2.2640805e-04   8.2494976e-04   2.2751768e-04   2.0559996e-03   1.0495040e-03   7.9773081e-04  -6.0769910e-04   1.0431514e-03  -1.9913320e-03   6.7239889e-04  -5.8247329e-04  -1.9186975e-03  -4.1796505e-03  -2.3463331e-03  -2.3330597e-03  -4.6086931e-03  -1.8295953e-03  -6.9153070e-04   7.3398557e-04   1.2947485e-03  -1.8320634e-03   1.7019464e-03  -6.1465297e-03  -3.8986835e-03  -6.0412195e-03  -2.6158050e-03   1.9990169e-03   5.6948338e-04  -5.4296758e-03  -2.1401960e-03   1.2734184e-03  -7.7261112e-04  -5.5438461e-04   7.4102514e-04  -5.0642126e-04   8.9924829e-04  -1.2920446e-03  -6.9348095e-04   3.8468293e-04   2.7619515e-04   2.3286047e-03  -1.9232295e-05   1.1044699e-03  -1.0797902e-03  -1.1722508e-03   1.5702920e-02  -1.0271334e-03  -9.1906177e-04
  -1.0981408e-03  -4.6029559e-04  -6.6584401e-04   4.8885884e-04   7.0740833e-05   1.6861339e-03   7.2802947e-04   1.3939821e-04  -7.7231938e-04   5.3317682e-04  -2.3651931e-03   1.8414835e-04  -6.7882123e-04  -1.9311800e-03  -4.2714318e-03  -2.4301468e-03  -2.2631241e-03  -4.9321912e-03  -1.2531632e-03  -6.5333844e-04   2.3038319e-04   4.6221123e-04  -1.7555687e-03   1.2382603e-03  -6.6287988e-03  -3.8754197e-03  -6.0602212e-03  -2.9362559e-03   1.5874425e-03   3.6284054e-04  -7.7156397e-04  -1.8105234e-03  -6.2087487e-04  -8.0503675e-04  -6.2732270e-04   6.9089903e-05  -6.1232958e-04   1.0313201e-03  -9.5543539e-04  -5.2185630e-04   2.2162405e-04   2.9377171e-04   4.6669724e-03   2.4200551e-04   1.9123276e-03  -1.3010975e-03  -1.1305255e-03   1.2558995e-02  -9.3910616e-04  -6.5039855e-04
  -3.9647013e-04  -4.0338978e-06   1.6077203e-04   9.1970625e-04   3.1485345e-04   2.0571607e-03   9.0656837e-04   4.0099159e-04  -8.8491407e-04   1.2578721e-03  -2.2409810e-03   7.6405099e-04  -4.7659711e-04  -1.7668254e-03  -4.0550521e-03  -2.5454187e-03  -2.1769290e-03  -4.6370146e-03   8.7665406e-04  -1.0040558e-03   8.9338643e-04   1.3582205e-03  -1.6249835e-03   1.2462895e-03  -5.4350370e-03  -3.6014705e-03  -5.8431644e-03  -2.1171155e-03   3.0524868e-03   6.7411992e-04  -3.0983626e-03  -1.8097541e-03  -2.2174272e-04  -6.4778520e-04  -4.8633327e-04   5.1226019e-04  -7.8279019e-04   1.1604450e-03  -8.1446336e-04   1.2284133e-04   1.9879431e-04   1.1522102e-04   1.0179939e-02   3.6169225e-04  -3.1664225e-04  -8.7568205e-04  -1.1957565e-03   9.3948864e-04  -9.3990850e-04  -5.6603295e-04
  -5.3943903e-04  -2.7251820e-04   6.8396830e-06   8.2148053e-04   3.7446013e-04   1.9628243e-03   9.4650604e-04   1.1850068e-03  -1.1170424e-03   9.1784762e-04  -2.4566695e-03   6.9018221e-04  -5.7731039e-04  -1.4897602e-03  -3.8624550e-03  -2.2251974e-03  -1.6850994e-03  -4.3007424e-03  -2.1047843e-05  -8.1010902e-04   6.4971071e-04   1.1300253e-03  -1.3397932e-03   1.0726191e-03  -4.2082197e-03  -3.1914362e-03  -5.3404798e-03  -1.7987400e-03   1.1728549e-03   4.5736297e-04  -2.5888134e-03  -4.2467102e-04  -1.6182780e-04  -5.0489046e-04  -5.1213009e-04   5.7977386e-04  -3.9471543e-04   7.4874290e-04  -1.4653712e-03  -8.1592397e-04  -7.2473066e-04  -2.1014936e-04   9.5712915e-03  -8.5329200e-05   9.2310668e-04  -1.0974979e-03  -1.3884368e-03  -4.0858034e-03  -1.2900286e-03  -8.4116723e-04
  -9.7700802e-04  -8.2798535e-04  -2.2288516e-05   3.5424437e-04  -2.2883956e-05   9.6166792e-04   3.6414847e-04   1.1869846e-03   2.5890232e-04   3.0061271e-04  -2.7241628e-03   1.6842788e-04  -5.5529864e-04  -1.1072240e-03  -3.0388883e-03  -1.6051669e-03  -9.5913274e-04  -3.3987467e-03  -1.7751339e-03  -1.6354223e-03   7.7029676e-05   4.9055595e-04  -1.4542172e-03   2.1185037e-03  -4.4939797e-03  -2.5394920e-03  -4.4478965e-03  -1.6630595e-03   1.7069362e-03   8.9308996e-06  -4.0091192e-03  -1.9784013e-03  -4.4063493e-04  -8.0572878e-04  -6.1566028e-04  -7.3772411e-05  -1.3219058e-03   1.5985162e-04  -1.6673886e-03  -1.2267258e-03  -1.0135380e-03  -4.9383793e-04  -4.4820942e-03  -2.8059850e-04  -4.4987697e-04  -1.6392649e-03  -1.6081865e-03  -4.8251757e-03  -1.0831314e-03  -1.1393991e-03
  -1.4993720e-03  -1.3869776e-03  -7.1353302e-04   3.9948813e-05  -6.7867462e-05   9.3542464e-04   2.7603883e-04   3.6419334e-04  -1.2328584e-03   3.4985683e-04  -2.6715617e-03   3.5287263e-07  -5.3115562e-04  -9.5356669e-04  -2.6310517e-03  -1.5437029e-03  -5.9322594e-04  -3.1292681e-03  -2.4189666e-04  -5.2404497e-04   4.1110846e-04   8.7236636e-04  -1.0260543e-03   1.0027282e-03  -3.2790173e-03  -2.1430503e-03  -3.7154956e-03  -1.1886455e-03   2.2654058e-03   1.4800420e-04  -1.3276037e-03  -2.2243527e-03   1.9704673e-04  -2.6401432e-04  -3.6700853e-04   4.8647876e-04  -1.2216552e-03   5.7681656e-04  -8.5960992e-04  -4.0419679e-04   3.6131189e-04  -3.1386694e-04   3.4383703e-03   7.8660760e-06  -9.2228292e-04  -1.2276123e-03  -1.0178819e-03  -1.0948773e-02  -3.6339869e-04  -3.2886647e-04
  -3.9746999e-04  -4.9606111e-04   1.6709389e-04   5.2096252e-04   2.3861371e-04   1.1431817e-03   6.5523788e-04   4.8349221e-04  -2.7343081e-04   2.4316396e-04  -2.4602402e-03   1.6317828e-05  -3.2642749e-04  -6.7941891e-04  -2.5061271e-03  -1.0309942e-03  -1.0095804e-04  -2.5398806e-03  -8.2926243e-04  -6.7688810e-04   4.5399150e-04   5.2931136e-04  -1.0647470e-03  -1.1908078e-03  -2.8597692e-03  -1.6348409e-03  -3.1677934e-03  -1.0786747e-03   2.6270475e-03   1.6725820e-04   3.6874379e-04  -1.1241257e-03  -2.7305068e-04  -5.2025501e-04  -3.8358400e-04   6.5147341e-04  -9.6633722e-04   4.7798324e-04  -1.0112372e-03  -3.8502182e-04  -5.3054723e-04  -8.0157304e-05   7.0332880e-03   2.4123616e-05  -5.9612212e-04  -9.1681088e-04  -9.6890156e-04  -1.8480126e-03  -3.8454600e-04  -3.1929807e-04
  -6.2665122e-04  -6.3257769e-04   2.6308651e-05   3.1328286e-04   2.6550971e-04   9.5328467e-04   1.8377398e-04   1.3313467e-03  -5.5975909e-04  -1.0619262e-04  -2.3050234e-03  -7.3396557e-05  -4.7172900e-04  -6.7752914e-04  -2.3642413e-03  -1.2159698e-03  -2.5874326e-05  -2.6300058e-03  -1.2457378e-03  -1.3657637e-03   8.2980478e-05   4.3193565e-04  -2.3603160e-04   7.1610132e-04  -2.5493130e-03  -1.6567101e-03  -2.9742166e-03  -1.2523221e-03   1.6421636e-03  -3.8049628e-05  -9.3403825e-04  -6.0715858e-04  -5.8607868e-04  -4.2679705e-04  -6.3515955e-04  -1.2341821e-04  -8.7774207e-04   6.7581059e-05  -1.2963008e-03  -6.1951077e-04  -1.6506973e-03  -4.3431015e-04  -6.2541021e-03  -3.0914508e-04  -1.0963107e-06  -1.1529728e-03  -1.1000340e-03  -2.1508879e-03  -9.0156595e-04  -6.1194162e-04
  -1.0239827e-03  -8.3585415e-04  -4.6321604e-04   3.9941660e-06   8.2467101e-05   2.8830679e-04  -5.3459502e-05   5.0480082e-04  -1.1514113e-03  -5.4326066e-04  -2.3594694e-03  -5.3168560e-04  -3.1636900e-04  -4.9917377e-04  -2.2124399e-03  -9.2435285e-04   8.4092200e-04  -2.1684831e-03  -5.9529569e-04  -1.3358309e-03  -2.6888325e-04  -1.9766708e-04  -9.2465605e-05   2.3945690e-04  -2.0086775e-03  -1.3462520e-03  -2.6410527e-03  -1.0744984e-03   1.8968538e-04  -3.5611980e-04  -1.7087696e-03  -1.7141674e-03   2.1248958e-04  -1.7992726e-04  -5.7778397e-04  -8.1046019e-05  -6.4767391e-04   6.6999087e-06  -1.3436417e-03  -6.8351562e-04  -1.8985112e-06  -3.3087193e-04  -7.7326753e-04  -2.6589734e-05  -7.7440665e-04  -9.7418041e-04  -8.3845935e-04   2.7410027e-02  -3.8608990e-04  -3.1366703e-04
  -2.5819754e-04  -3.6902868e-04   7.2136303e-05   2.5972567e-04   3.7522416e-04   6.0639926e-04   3.9672232e-06   1.4886038e-03  -4.9337815e-04   1.7579451e-04  -1.4232422e-03   1.9975168e-05   3.4855035e-04   3.1430167e-04  -7.9686346e-04   1.0453994e-05   2.0181150e-03  -6.9070747e-04   3.6133797e-04   1.2814888e-04   4.6611085e-04   3.9382221e-04   1.1807192e-04   1.7917033e-03  -1.1316302e-03  -1.4987723e-04  -8.8923244e-04  -3.6724381e-05   8.4454339e-04  -3.4238823e-05   1.0355250e-03  -2.3370379e-04   1.6011453e-03   2.6436255e-04  -1.9132129e-04  -9.4989478e-04  -2.5606266e-04   1.8378616e-05  -6.5116351e-04  -7.7227422e-05  -2.5521216e-04  -3.1566256e-04   2.2332959e-03   2.2412676e-05   1.0529935e-03  -4.5899427e-04  -4.4785127e-05   7.0933225e-03   1.7872156e-04   1.5174622e-04
   1.0892572e-04  -3.4574175e-04   5.2186084e-04  -8.8077009e-05   3.5793087e-04  -8.5468155e-06  -2.7417019e-04   4.6381814e-04  -2.1033880e-04  -6.1108847e-05  -8.7619189e-04  -3.7709739e-05   5.9029990e-04   6.3869095e-04   5.5668422e-04   5.4135366e-04   2.2189086e-03   9.1827271e-04   8.5392676e-04   6.7149558e-05  -7.8123427e-05  -5.8574782e-04   6.7135849e-04   2.5805715e-03   2.4781448e-03   1.4484723e-03   9.6727436e-04   6.9000758e-04  -1.0298003e-03  -2.6110568e-04   1.9733650e-03   6.2307762e-04  -8.9986454e-05  -5.7960267e-05  -2.5311037e-04  -1.4138571e-03  -5.4699124e-04  -4.5513196e-04  -6.0829328e-04   7.2232688e-05  -1.3308498e-03  -1.4701865e-04  -1.6734521e-03  -1.5773477e-04  -1.1353355e-03  -5.8251846e-04  -2.3916520e-05   1.0466204e-02  -2.3118149e-04   1.1753329e-04
  -2.9406187e-04  -6.2637177e-04  -5.4769934e-04  -3.7228488e-04  -6.1497929e-05  -5.3246447e-04  -5.2828633e-04  -1.8952131e-04  -5.5889552e-04  -9.4498193e-04  -7.6756795e-04  -6.1064406e-04   2.3699926e-04   2.7062668e-04   2.1837502e-04   1.7547701e-04   1.5421985e-03   4.2088001e-04   1.1550625e-03  -5.3260155e-06  -8.2976003e-05  -1.6607695e-04  -2.9706521e-04  -2.6197727e-03   7.9838274e-04   7.9716201e-04   9.4501569e-04   1.9247946e-04  -4.3562902e-04  -4.0758471e-04   1.6578700e-03   1.4894236e-03   7.5308100e-04  -1.0750330e-04  -4.4214679e-04  -8.5177878e-04  -6.9335307e-04  -7.4591627e-04  -4.9875432e-04  -8.0625754e-04   7.0344581e-04  -5.7391304e-04  -3.6360463e-03  -4.7294694e-04  -8.7038550e-04  -4.9095642e-04   7.1498522e-05  -9.1606732e-03  -1.0037815e-04  -1.5341201e-04
  -7.3860312e-04  -8.3669508e-04  -8.7463373e-04  -6.4394902e-04  -2.8021951e-04  -6.3835492e-04  -7.0797489e-04  -8.7952468e-04  -1.2933889e-03  -1.2464405e-03  -8.0578629e-04  -1.2404158e-03  -4.8351005e-05   2.7110521e-04   2.7548076e-04   1.4844362e-04   1.4193296e-03   5.5042451e-04   1.7763919e-03  -6.4087764e-04   1.3937559e-05  -3.2013466e-04   6.6110695e-04   3.2460046e-04  -2.1536433e-04   7.6828717e-04   8.9279615e-04   7.4686890e-05  -7.1615120e-04  -3.3276933e-04   7.7737455e-04   2.4020112e-04   9.2729012e-04  -1.5151320e-04  -4.9785763e-04   8.3187508e-05  -1.3270977e-04  -4.4055269e-04  -8.2298073e-05  -1.5890994e-04   8.6496228e-05  -3.9458071e-04  -7.2837673e-04  -6.1630763e-06  -8.2202861e-04  -1.9345547e-04   5.8662100e-04   3.6067592e-03   3.1574309e-04   5.6421384e-04
   3.5007298e-04   2.5627267e-04   1.5122467e-04   2.6903889e-04   2.1622072e-04  -1.0876432e-04   2.6711599e-05  -2.7394333e-04   2.1988079e-04   1.8573651e-04  -1.6898077e-04   3.4578599e-04   1.4549418e-05   2.1263397e-06  -4.1975721e-04   6.3932581e-05   9.3280320e-04   4.7992835e-05   4.8426242e-04  -8.4449060e-04   9.3805784e-04   6.1995018e-04  -6.4016192e-04  -3.5713962e-04  -1.3616754e-03  -2.1312675e-04   6.1783375e-04   2.9335106e-05  -5.3958513e-04   1.8391754e-04  -1.0240806e-03  -1.1313336e-03   3.4950231e-04  -8.5399766e-04  -2.7941092e-04   3.1123470e-04   3.4684716e-05  -3.7066722e-05   5.4761348e-04   1.3365924e-04  -2.0501575e-05  -1.2563856e-04  -2.3038858e-03   2.1672476e-04   2.6512472e-04   3.2409828e-04   1.0230090e-03   1.1871024e-02   7.1113353e-04   6.8758213e-04
   2.9656428e-04   5.2511238e-04   1.5197790e-04   3.4119721e-04   1.2218782e-04  -2.9334606e-04   1.7976736e-04  -8.4588939e-04   5.0389068e-04   3.3247034e-04   7.8590921e-05   3.5017528e-04  -2.0224776e-04  -9.5155381e-05  -3.4962728e-04  -1.7598495e-04   7.2113669e-04  -2.2081558e-04   1.7139707e-04  -6.6276925e-04   6.8418321e-04   3.5068599e-04  -4.9575028e-04  -1.3513237e-03  -1.0182625e-03  -6.4332294e-04   3.9031489e-05  -3.2885914e-04   1.1004239e-03   2.2086252e-04  -1.4578202e-03  -3.9139204e-04  -6.4519962e-05  -4.1600564e-04  -2.5720161e-04  -2.1840418e-04  -4.3721081e-04  -1.7501642e-04   2.0797885e-05  -1.4309070e-04   4.2587057e-05  -1.0554572e-04   2.1912849e-03   9.1323171e-05   5.4143404e-04   4.0363491e-04   8.8563358e-04   1.9064797e-02   6.5568043e-04   6.7184662e-04
  -1.1861479e-04   1.2222547e-04  -1.2488302e-04   1.2512080e-04  -1.3605299e-05  -1.0373197e-04  -4.7305413e-05   4.2479337e-06   4.7486025e-04   1.8358580e-04  -2.6259056e-04  -1.1919921e-04  -3.6952022e-04  -3.0452781e-04  -8.3276589e-04  -5.3883885e-04   4.3920529e-04  -4.6113320e-04  -1.0815761e-03  -8.6257124e-04   3.4952784e-04   2.5121300e-04  -6.3481316e-04   1.0875289e-04  -1.0862865e-03  -1.2075044e-03  -4.7713445e-04  -7.2517223e-04  -3.1791988e-04   4.1105908e-05  -1.1134790e-03  -1.3376087e-03   3.5983301e-04  -4.4671752e-04  -5.1939691e-04  -3.8814210e-04  -4.2590822e-04  -4.5284521e-04  -3.9655843e-04  -3.1041217e-04   2.6898275e-04  -3.7506434e-05   3.5982463e-03  -2.4600976e-04   5.5166590e-04  -9.1685914e-05   5.1985786e-04   1.1209371e-03   5.3676049e-04   3.4232382e-04
  -6.9355033e-04  -3.5487305e-04  -5.0758768e-04  -2.3628460e-04  -5.5851782e-04  -6.4685999e-05  -6.3767447e-04  -1.0258043e-03  -3.1365547e-04  -2.0036839e-04  -7.4037508e-04  -4.5049263e-04  -5.8862055e-04  -4.7976419e-04  -1.1802368e-03  -3.0195634e-04   2.9681888e-04  -1.1504120e-03   2.3946718e-03  -3.1897135e-04   2.3501678e-04   1.6458739e-04  -7.5326063e-04   2.4602422e-03  -1.4399799e-03  -1.3842527e-03  -8.7563565e-04  -8.7462837e-04   2.1298423e-04   5.7288191e-05  -2.9497638e-03   1.2309002e-04  -5.6936877e-04  -4.0247815e-04  -3.7951180e-04  -3.2157486e-04  -7.6342854e-05   2.8215345e-05   4.4301428e-06   1.2133111e-05   9.4965706e-04   1.1648209e-04  -3.5836610e-03   3.3500054e-04   1.0700712e-03  -2.6162766e-04   9.6058322e-04   1.5289612e-03   8.9688861e-04   6.4788858e-04
   2.7015471e-04   4.0123303e-04   3.5932785e-04   6.6951924e-04   6.6954707e-04   3.6389809e-04   1.0632083e-04   5.7254994e-04   5.3215816e-05   1.1048433e-03  -4.0206517e-04   9.1405236e-04  -2.7434350e-04  -4.9146288e-04  -1.1255045e-03  -6.0500740e-04   1.7157684e-04  -1.1689982e-03   1.8505451e-04  -5.6794251e-04   1.0640891e-03   9.7809895e-04  -5.4707361e-04   1.8467020e-03  -2.3170458e-03  -1.4431257e-03  -1.2375562e-03  -6.5044832e-04   6.2436884e-04   4.6354052e-04  -9.0468384e-04  -9.2186575e-04  -6.8842672e-04   5.1696876e-05  -2.0210085e-04   1.5731894e-03   4.8917183e-04   3.0052089e-04   1.3924860e-05   1.4612269e-04  -6.2381470e-05   5.1906781e-04   2.3693086e-03   3.9920711e-04   9.5612888e-04   2.6258433e-04   1.0375024e-03   1.9109819e-02   1.2245340e-03   1.0088969e-03
   4.8933364e-04   5.0293346e-04   6.8218407e-04   7.4947055e-04   3.3647270e-04   5.7395699e-04   1.8929610e-04   6.7331493e-05   9.0306136e-04   1.0132978e-03  -3.4666754e-04   3.9099655e-04  -1.6433102e-04  -3.7800646e-04  -1.4390281e-03  -7.4327533e-04   2.8603899e-04  -1.2280582e-03   2.3091622e-03   7.2809147e-05   9.2332333e-04   1.2410368e-03  -1.1036004e-03   2.2872903e-03  -2.2395689e-03  -1.2610102e-03  -1.4937863e-03  -5.5308576e-04   2.7813768e-04   2.8609927e-04   7.1829598e-04  -1.5161827e-03  -1.9337020e-04   7.2917981e-05  -5.3519467e-05  -4.6664765e-04  -2.1168595e-04   1.1848332e-04  -6.7980657e-04  -2.2071003e-04   5.8215437e-04   6.0276920e-04   2.0347349e-03   1.6211816e-04  -9.0518378e-04  -1.7311184e-04   7.1586430e-04  -7.0691912e-04   7.3904020e-04   4.7024307e-04
  -3.1595057e-04   1.1142263e-05  -4.9995630e-05   3.9249694e-04  -2.1368767e-04   1.7591468e-04  -2.1961208e-04   1.0390636e-03  -7.2833558e-04   6.3627720e-04  -7.2028302e-04   1.0491846e-04  -2.4532311e-04  -4.1574432e-04  -1.3910061e-03  -5.0836388e-04   2.2490797e-04  -1.3651239e-03  -2.8827609e-03  -1.4721480e-04   5.3657679e-04   7.5386226e-04  -5.0727610e-04  -4.2629588e-04  -2.8430896e-03  -1.5469464e-03  -1.8186865e-03  -1.1861420e-03   1.5261433e-03   1.1224489e-07  -2.0338385e-03  -9.4926672e-04  -1.2127262e-03   1.5561230e-04  -3.6264173e-04  -3.9169873e-04  -6.3653009e-05  -2.4705869e-04  -7.4725488e-04  -7.9449796e-04  -1.9067404e-04   1.2196648e-04   3.8621363e-03  -8.4481442e-05   6.1196234e-04  -3.9316941e-04   3.6472778e-04   8.9236507e-03   4.4842091e-04  -6.4345200e-05
  -7.7854324e-04  -4.4772026e-04  -4.9022975e-04   1.5618954e-05  -1.0301853e-04   3.1876512e-05   1.0453240e-04  -8.9629211e-05  -3.8897916e-04   9.1877257e-05  -1.2064140e-03  -2.4630132e-05  -6.7903742e-04  -7.3373422e-04  -1.6668042e-03  -1.2067467e-03  -5.0013873e-04  -1.9318463e-03  -9.6235430e-04  -4.0319000e-04   8.3476334e-05   2.5172264e-04  -1.3481573e-03   3.6661539e-04  -2.3025332e-03  -2.1765567e-03  -2.3211378e-03  -1.1987744e-03   2.3626118e-04  -2.1202852e-04  -1.6795972e-03  -1.1919237e-03  -1.2189887e-03  -8.7163120e-04  -5.5835175e-04   4.8840680e-04  -2.5335239e-04  -1.8851958e-04  -7.9763291e-04  -2.9209908e-04   1.2429077e-04   1.2043204e-04   3.5920413e-03   5.0357379e-05  -7.3239993e-04  -2.7307140e-04   5.3389400e-04  -1.7471229e-04   2.8924740e-04   3.2162605e-04
  -1.3826971e-04   1.3425309e-04   2.8603541e-04   5.9200550e-04   4.0171624e-04   6.3183618e-04   7.4771204e-05   1.4257748e-03  -1.0873440e-03   1.1268994e-03  -1.0901486e-03   5.3047581e-04  -6.0975843e-04  -8.4380410e-04  -1.8566889e-03  -1.0891275e-03  -9.7736879e-04  -2.1474115e-03  -3.0123646e-04  -8.6000195e-04   9.5262879e-04   1.1035425e-03  -1.4772462e-03  -4.0752111e-05  -2.9222840e-03  -2.3268517e-03  -2.5108829e-03  -1.1531598e-03   1.1982081e-03   3.1967243e-04  -2.9883257e-03  -1.8487282e-03  -2.5790947e-04  -3.5405051e-04  -2.8393915e-04  -5.7657486e-05  -9.5629555e-05   3.6213486e-04  -1.1758268e-04  -1.9016201e-04   5.3263764e-04   2.2499707e-04  -1.7563278e-02   1.3125880e-04   3.3821928e-04  -3.5375258e-04   5.5756752e-04   2.3134645e-02   4.2882937e-04   2.1799444e-04
  -3.8409067e-05   1.6526836e-04   3.7097698e-04   6.8523217e-04   1.6129404e-04   8.2952657e-04   1.4598333e-04   9.0403068e-05   1.6275930e-03   1.0588798e-03  -1.2084880e-03   6.0931337e-04  -6.8325747e-04  -9.8410854e-04  -1.9278149e-03  -1.3193114e-03  -1.2579593e-03  -2.2519594e-03  -4.7080946e-04  -5.5358635e-04   8.3951029e-04   1.2444893e-03  -1.8712102e-03  -1.1924439e-03  -3.9370358e-03  -2.5681611e-03  -2.9668766e-03  -1.0739041e-03   9.4225159e-04   2.9788754e-04  -2.2753931e-03  -1.7535847e-03   6.4677373e-04  -2.5550573e-04  -3.1801834e-04   4.9515336e-04   2.3468962e-04   3.3670556e-04  -4.0670493e-04   1.4428711e-05   3.3074027e-04   4.2005340e-04  -9.0960931e-04   1.8443758e-04  -4.3033026e-04  -7.3123997e-04   3.8660038e-04  -6.8411924e-04   6.6158315e-04   9.7590775e-05
  -3.4557373e-04  -2.0140623e-04   1.7518117e-04   5.1023165e-04   5.2312080e-05   5.4634374e-04   2.4835984e-04   5.0626247e-04  -8.7404833e-04   7.7729678e-04  -1.4323721e-03   4.7888159e-04  -7.7058258e-04  -1.0111618e-03  -2.1356950e-03  -1.5686164e-03  -1.3607959e-03  -2.7576855e-03  -1.7440974e-03  -1.5631724e-03   5.8203883e-04   1.1026029e-03  -1.6618894e-03   2.8553528e-03  -3.5449909e-03  -2.5506341e-03  -3.0628028e-03  -1.0567327e-03   4.1705200e-05   6.0381841e-05  -1.7312822e-03  -2.1662433e-03  -1.4369474e-03  -2.3813709e-04  -5.0246809e-04   1.0467529e-04  -4.4745739e-04   9.6086216e-05  -1.1704996e-03  -4.8546173e-04   5.6221476e-04   5.9924652e-05   3.7115258e-03  -1.3982083e-04  -4.2152879e-04  -1.1206568e-03  -1.3813182e-06  -5.8957688e-03   2.0097005e-04  -3.4111991e-04
  -8.9661323e-04  -6.1567582e-04  -4.2281952e-04   1.0434136e-04  -5.2622989e-05   4.4055466e-04  -2.5613495e-04  -4.2962420e-06   5.1511038e-04   1.4654754e-04  -1.6881386e-03  -2.1032555e-04  -7.9173996e-04  -7.6149375e-04  -1.9272800e-03  -1.0440532e-03  -5.9482834e-04  -2.3314902e-03  -8.1970758e-04  -5.3738459e-04   4.6005510e-04   6.1497634e-04  -1.2987138e-03  -7.8814110e-04  -3.1298050e-03  -1.9559413e-03  -2.6550386e-03  -1.0912905e-03   7.5863634e-04  -5.2148440e-05  -4.2253090e-03  -6.7467790e-04  -6.4745260e-04  -3.1579248e-04  -3.6785769e-04  -1.4903150e-04  -7.0210744e-04   2.4092714e-04  -4.0060215e-04  -9.8135308e-05   4.0940414e-04   2.4791743e-04  -1.2637491e-03   1.1534277e-04   9.3986420e-04  -1.9526282e-04   1.7441064e-04   7.8499311e-04   4.3212954e-04   1.0524190e-04
  -3.4526700e-05   4.8720271e-05   3.6287389e-04   6.1653799e-04   3.3352579e-04   8.7400951e-04   4.8149537e-04   1.5098670e-04  -3.2288887e-04   8.2854473e-04  -1.5431204e-03   4.6384579e-04  -5.3177041e-04  -5.4745789e-04  -1.6297261e-03  -6.7626056e-04  -4.8458576e-04  -2.0335391e-03   5.3753919e-04  -6.0374616e-04   9.5119717e-04   1.1505552e-03  -2.0482026e-03  -1.0370873e-03  -2.8979310e-03  -1.6059875e-03  -2.3482973e-03  -7.2990987e-04   1.6121615e-03   9.1362701e-05  -2.2021150e-03  -1.7806983e-03  -5.4419163e-04  -3.9495088e-05  -1.7874959e-04   1.1291208e-05  -4.6857787e-04   3.2326902e-04  -6.3422037e-04  -2.8242686e-04   4.9567141e-04   2.3931770e-04   6.6937869e-03   2.4735695e-04   1.4967539e-03  -5.2547653e-04   4.9741400e-05   3.2973792e-03   2.6791060e-04  -1.8383200e-04
  -2.2471139e-04  -4.3626726e-05  -3.3055729e-04   4.9510889e-04   6.8873609e-04   6.5998512e-04   4.3614677e-04   4.0162110e-04   4.1434527e-04   6.8513805e-04  -1.2881547e-03   1.6847288e-04  -4.9991161e-04  -4.9848075e-04  -1.6806136e-03  -9.7533478e-04  -3.9273227e-04  -2.1429393e-03  -1.0195619e-03  -4.1714177e-04   7.3323294e-04   1.0552502e-03  -9.0573065e-04  -1.4038561e-04  -3.5112528e-03  -1.7628057e-03  -2.8426971e-03  -8.0464815e-04   1.0801876e-03  -5.6902765e-05  -1.8913086e-03   5.6580186e-04  -5.3044036e-04  -9.2309398e-05  -4.0474301e-04   1.3817403e-04  -6.6375959e-04   1.1441817e-04  -7.8328187e-04  -5.3801958e-04  -2.1490519e-04   2.0651834e-04   4.6631475e-03  -1.5283174e-05   3.5366803e-04  -9.9756604e-04  -3.9463493e-04   9.4026132e-03  -6.9006546e-06  -4.3596537e-04
  -6.0869684e-04  -3.9783647e-04  -4.7383466e-04   2.6113915e-04   1.7901426e-04   4.9537548e-04  -7.8238474e-05  -2.6884617e-04  -2.4262654e-05   3.5588458e-04  -1.6868255e-03  -1.7638822e-05  -5.6035613e-04  -7.7587791e-04  -1.8385835e-03  -1.3037940e-03  -5.2205386e-04  -2.3727312e-03  -1.6761248e-03  -7.0102565e-04   2.5951798e-04   4.7366202e-04  -9.6873171e-04   8.8897470e-04  -3.6152699e-03  -2.0118139e-03  -3.2196192e-03  -1.3548050e-03   4.6989802e-04  -2.9328230e-04  -2.2283145e-03  -1.5291407e-03  -6.3088658e-04  -1.8302035e-04  -5.2274822e-04   1.8658028e-04  -9.1552950e-04  -2.5032353e-04  -1.3349453e-03  -1.0917298e-03  -5.5544433e-04   6.8190493e-05   4.0355665e-03  -2.5994494e-04   3.1590514e-04  -1.2738764e-03  -7.2190893e-04   1.6383724e-02  -1.1219228e-04  -3.9124169e-04
  -5.6548323e-04  -2.1434823e-04  -3.9582043e-05   4.2005174e-04   5.5606855e-04   8.3181338e-04   3.1143471e-04  -1.3344776e-04   5.4150918e-05   7.0692803e-04  -1.5219919e-03  -1.5836224e-05  -5.3141650e-04  -6.5583503e-04  -1.8204638e-03  -9.8424347e-04  -4.8580155e-04  -2.4024311e-03  -1.4519366e-03  -6.8584859e-04   8.3371496e-04   1.2147417e-03  -9.2923298e-04   2.0160349e-03  -2.8158014e-03  -1.7048562e-03  -3.2632560e-03  -1.0333179e-03   1.2575618e-03   6.5597284e-05  -2.5441865e-03  -1.3008596e-03   3.0979019e-04   3.0911353e-04  -3.2097514e-04   2.1888345e-04  -4.2598820e-04   7.3332328e-04  -3.4572667e-04   2.0462459e-04  -7.3626766e-04   6.9503009e-04  -2.2770024e-03   3.1441014e-04  -8.4576174e-04  -1.0516389e-03  -6.5131561e-04   1.0371764e-02  -1.5564112e-04  -9.0182658e-07
  -2.0855688e-04   1.4374936e-04   2.9967804e-04   1.0003247e-03   4.4631146e-04   1.7308884e-03   8.3846983e-04   1.2451122e-03  -1.1132429e-03   1.4167958e-03  -1.2915019e-03   7.6558144e-04   5.1790743e-05  -4.2522050e-04  -2.1139146e-03  -1.1938830e-03   2.7375805e-04  -2.8704207e-03  -2.0419059e-03   1.2440355e-04   1.0629521e-03   1.2284541e-03  -7.6448533e-04   2.2500849e-03  -1.2920833e-03  -1.3548518e-03  -4.4895727e-03  -6.9598714e-04   2.3681426e-03   1.9497306e-04  -2.6849215e-03  -1.2038085e-03  -3.8145791e-04   6.9049513e-04  -6.4737687e-05  -1.7536673e-04  -7.7217934e-04   6.4970233e-04  -9.4867341e-04  -5.8656078e-06   3.8051079e-05   3.1913322e-04   1.0309020e-02   1.6967100e-04   1.7885992e-03  -1.2725329e-03  -9.0371922e-04   1.3030129e-02  -1.7417139e-04  -3.4214195e-04
  -4.6400816e-04  -3.5395182e-04  -1.2743767e-04   4.0156426e-04   6.1762228e-05   1.0552604e-03   6.3425326e-04   1.0778891e-03   1.1224931e-03   2.7799376e-04  -1.6033142e-03  -2.0721591e-04  -4.3037751e-05   1.3396471e-05  -1.2282806e-03  -1.8015924e-04   4.9852458e-04  -2.0114460e-03   2.5042341e-04  -7.2291805e-05   3.8928678e-04   7.0047105e-04  -7.5652433e-04   2.0488964e-03  -9.3837309e-04  -1.0276507e-03  -2.6352161e-03  -6.7276781e-04   4.1298303e-04  -1.4736743e-04  -2.4847938e-03   4.5478370e-04   9.9395751e-04  -5.5752946e-05  -2.9055058e-04   4.1843225e-05  -4.8658790e-04   1.3722472e-04  -1.0362482e-03  -6.3391810e-04  -4.1099006e-04  -3.6880071e-04  -3.4704342e-04  -2.1964460e-04   4.1032731e-04  -6.0253288e-04  -4.3010002e-04   1.7985648e-03  -4.3413063e-04  -5.0803972e-04
  -6.6061283e-04  -6.8866415e-04  -5.9817435e-04  -6.8765781e-05  -3.0504365e-04   1.9205219e-04  -4.5193275e-04   3.3607869e-04  -3.1547961e-04   9.1189613e-05  -1.7497396e-03  -1.9130355e-04  -5.3484068e-04  -3.3440031e-04  -1.2521783e-03  -5.5767514e-04   4.9676991e-04  -1.2944012e-03  -1.3057698e-03  -5.7195977e-04   3.8599590e-04   4.3600518e-04  -8.2000520e-04   8.7700965e-04  -1.1562937e-03  -9.2418958e-04  -1.8484890e-03  -4.6976720e-04   1.1136740e-03  -3.3390701e-05   1.2140556e-03   3.9983126e-05  -3.6635340e-04   3.5900751e-04  -2.5789113e-05   7.1688608e-04  -8.8377754e-05   4.8404431e-04  -5.3348474e-04  -3.0820252e-04  -4.2099479e-04   3.3696841e-05   4.1228769e-04   2.7475925e-04   2.4094856e-04  -3.7300243e-04  -6.8269284e-05  -2.0616394e-03   2.9312732e-04   2.2275389e-04
   1.8597029e-04   3.3960730e-04   5.3821609e-04   7.8755623e-04   6.5294444e-04   8.6726667e-04   6.4163550e-04   2.5825965e-04  -3.7195126e-04   7.0867385e-04  -1.0153607e-03   4.1107254e-04   4.0208699e-05  -2.3475335e-05  -7.2376791e-04  -5.0733652e-04   8.5923256e-04  -1.3060699e-03   1.8676311e-03   5.0294937e-05   9.4368367e-04   1.1995459e-03  -2.6328539e-04   4.1641964e-04   2.9149029e-04  -1.2079898e-05  -1.6765475e-03   1.2662965e-04   8.5533323e-04   1.3436965e-04  -2.1758347e-03  -7.1482541e-04   8.1475664e-05   3.8868905e-04   2.1054401e-04   9.9797267e-04  -6.2693929e-04   6.7991333e-04  -2.0475946e-04   2.7593735e-04  -1.3307837e-04   2.5008208e-04   4.4201389e-03   4.3952127e-04   1.4577155e-03  -3.8180052e-04  -1.6605521e-04   1.0139729e-02  -1.1574994e-05   3.2787968e-04
   9.0671405e-05   4.5705796e-04   2.3157345e-04   6.8605266e-04   3.2864790e-04   9.1672072e-04  -2.0835758e-04  -8.6674292e-05  -1.2432496e-03   3.2268188e-04  -9.4111240e-04   2.6367349e-04  -1.2123504e-04   6.4288339e-05  -5.8233459e-04  -2.2705663e-04   7.3051796e-04  -1.0740297e-03   1.4255337e-04  -1.3683087e-04   8.4002019e-04   9.0771075e-04   5.2008999e-04  -2.8885372e-05  -7.9620146e-04  -7.6763128e-05  -1.1991184e-03  -3.2042101e-04   5.0592370e-04   3.7983466e-07  -3.4107335e-04  -4.9759349e-04   3.7082168e-04   7.3114243e-05   2.1922199e-06  -4.2774598e-04  -5.6454365e-04   2.9701853e-04  -2.7079636e-04  -5.0976450e-05   1.2880379e-04   2.4397657e-04   6.0851788e-03   8.4360072e-05   1.4335926e-04  -1.4181178e-04   3.1023916e-05   8.9260554e-03   5.3620384e-05   1.0596522e-04
  -2.1854248e-04   1.3877737e-04  -5.0570536e-04   3.0625422e-04   3.7231264e-04   5.1224534e-04  -1.2129982e-04   5.9625340e-06  -2.5615664e-04   2.9408508e-05  -8.6928665e-04  -1.6158511e-04  -2.1675901e-04  -1.7294440e-05  -7.2311214e-04  -1.1845416e-04   4.9274741e-04  -1.0422700e-03   4.5014627e-04  -6.5307179e-04   4.0993260e-04   6.4166432e-04  -1.1679691e-03  -8.5775345e-04  -1.5580397e-03  -5.8822130e-04  -1.2678865e-03  -4.6129414e-04   2.6093191e-04  -1.2866770e-04  -3.1753834e-03   1.0644693e-04  -1.6648183e-03   8.9886154e-05  -2.6130848e-04  -1.4445555e-04  -5.9033843e-04   8.5746035e-07  -4.3280664e-04   8.0308506e-05  -4.4139160e-04  -1.5736322e-04   4.9850680e-03  -6.4885076e-06   6.8883359e-04  -2.3859252e-04   2.5650338e-04   2.8359948e-03   4.7276556e-04   2.4715764e-04
   1.1010715e-04   5.5746955e-04   2.0135113e-04   7.0707721e-04   1.0907435e-03   8.3552726e-04   6.7582674e-04   2.2463936e-04  -5.4735446e-04   7.6548022e-04  -6.6954450e-04   5.2300951e-04  -5.3088553e-04  -3.4209207e-04  -1.2303171e-03  -3.7830402e-04  -4.5505597e-04  -1.8092836e-03   4.4146407e-04  -3.5918484e-04   1.2742828e-03   1.4985802e-03  -6.2199502e-04   4.2170080e-04  -2.2620014e-03  -1.3644430e-03  -1.9362789e-03  -6.3692621e-04   7.2909053e-04   5.5383553e-04  -2.7206594e-03  -9.3777967e-04   5.9503332e-06   1.9290266e-04   8.2500483e-05   8.3047146e-04   3.4242618e-04   1.0112087e-03   2.0992641e-04   6.9200475e-04   1.5097701e-04   2.3047454e-04   6.7495648e-03   5.9375458e-04   6.0033641e-04  -3.0148401e-06   6.5147202e-04  -2.1853583e-02   8.8778039e-04   7.0126809e-04
   6.1220606e-04   1.0489307e-03   7.3310506e-04   1.2704035e-03   8.0199301e-04   1.5460761e-03   1.2027033e-03   1.5163585e-04   1.4334832e-03   1.4116712e-03  -6.2890945e-04   1.1145599e-03  -4.4588858e-04  -7.3735550e-04  -2.0431029e-03  -7.6207129e-04  -7.8376126e-04  -2.2770716e-03  -1.7119838e-03  -3.3379671e-05   1.2220383e-03   1.6086168e-03  -1.5504988e-03   2.8010716e-03  -2.4539928e-03  -2.0840697e-03  -2.9033474e-03  -7.8717235e-04   1.1771921e-03   7.4885081e-04  -2.7575039e-03  -1.5924589e-03   8.7432063e-04   3.6183617e-04   4.2479118e-05  -4.8239806e-05   7.7261691e-05   9.6093927e-04   1.1815801e-04   5.5938441e-04   1.2812431e-03   3.5559147e-04   5.7030786e-03   5.4458313e-04   2.5457952e-03  -5.5356947e-04   4.5671326e-04  -1.9396890e-03   4.3671057e-04   3.6027512e-04
   2.8821864e-04   5.2140682e-04   5.1158329e-04   1.0130563e-03   7.8901608e-04   1.5351971e-03   9.3809440e-04   1.7838823e-03  -7.2192523e-04   1.0765288e-03  -1.0441998e-03   8.3294290e-04  -5.0403789e-04  -6.6039542e-04  -1.8482496e-03  -6.6705269e-04  -7.3252944e-04  -2.3401009e-03   8.9183811e-04  -5.5690570e-04   8.7685167e-04   1.2268892e-03  -1.9662138e-03   1.1242040e-03  -2.3203662e-03  -2.1008621e-03  -3.0785641e-03  -9.5225545e-04   2.5093248e-03   5.4076547e-04  -1.2047011e-03  -7.2064251e-04  -2.0387213e-04   1.4488620e-04  -1.5267299e-04   3.3870054e-04   4.2830789e-04   7.1429042e-04  -3.1390012e-04   9.4963492e-05   9.6864329e-04   1.1154620e-04   5.1663662e-03   2.4195181e-04  -2.8105380e-04  -3.2005913e-04   2.3885479e-04   1.2618966e-02   4.5439680e-04   1.9302608e-04
  -1.6110454e-04   8.5966560e-05   7.3477793e-05   6.5746316e-04   3.0471015e-04   1.0183509e-03   6.1575451e-04   9.8589645e-04  -4.4351883e-04   7.5246167e-04  -1.3997107e-03   5.0867524e-04  -5.9904729e-04  -7.5156905e-04  -1.9555360e-03  -9.9144736e-04  -6.4354477e-04  -2.1684468e-03  -1.5272184e-04  -3.8951600e-04   4.0810832e-04   6.0564047e-04  -1.5566178e-03   2.5328780e-03  -3.4317931e-03  -2.3056914e-03  -3.2039166e-03  -1.0953246e-03   9.9769339e-04   2.9790343e-04  -4.0377760e-03  -7.2534941e-04   4.7271571e-04   2.6404881e-04  -1.7525596e-04   4.3265490e-04   1.8864614e-04   7.5604569e-04  -1.3837381e-04  -2.6879752e-05   3.1511771e-04   4.4696205e-04   2.4252576e-03   2.9208590e-04  -3.4214192e-04  -9.2564180e-04   2.7996427e-04   2.2590824e-03   2.3625193e-04   2.8402227e-04
   4.6197209e-04   5.4105173e-04   9.0157147e-04   1.2221821e-03   7.6187524e-04   1.4007057e-03   1.3478613e-03   1.5810255e-03  -6.0859247e-04   1.7463431e-03  -1.0525441e-03   1.2359720e-03  -4.1834160e-04  -7.1676570e-04  -1.9300962e-03  -9.4896281e-04  -7.0535939e-04  -2.1380179e-03   1.2865028e-03  -4.8640111e-04   1.3986458e-03   1.9833753e-03  -1.1039001e-03   2.7939635e-03  -4.0475978e-03  -2.2948855e-03  -3.2163516e-03  -9.1076153e-04   1.3229974e-03   8.5439364e-04  -1.5767996e-03  -8.4744097e-04  -3.4592371e-04   5.8673514e-04   1.0633216e-04   9.5369725e-04   7.8484771e-04   1.2086062e-03  -6.2452549e-05   7.0002850e-04   1.0559052e-03   6.5558299e-04   1.0180806e-03   6.5401726e-04   1.1169575e-03  -2.7737019e-04   5.7868258e-04   1.9975912e-02   3.3445284e-04   3.3157395e-04
   7.0787850e-04   7.6755474e-04   1.0393329e-03   1.3107717e-03   1.1234983e-03   1.4688923e-03   1.3550343e-03   1.5471597e-03   2.5391852e-05   1.8166406e-03  -9.4611337e-04   1.3229734e-03  -4.9429398e-04  -7.6282403e-04  -2.1279964e-03  -1.1744653e-03  -8.5601129e-04  -2.2732040e-03  -7.4575731e-04  -1.2239631e-03   1.1848501e-03   1.7910001e-03  -2.0076137e-03   4.0155584e-03  -2.5101188e-03  -2.4072984e-03  -3.2836956e-03  -1.0244343e-03   2.0741324e-03   8.0849131e-04  -1.5382412e-03  -4.2882786e-04   7.9650292e-04   3.5998723e-04   4.6968002e-05   1.3001006e-04   2.6198733e-04   9.5287763e-04  -3.7289326e-05   6.8985129e-05   4.9584359e-04   4.3877360e-04   3.8674215e-03   3.8241156e-04   1.6510432e-03  -7.0770894e-04   5.3659588e-04   2.9540111e-03   4.9532234e-04  -1.2368737e-05
   3.7480274e-04   3.0819816e-04   9.3347591e-04   1.0466605e-03   5.5542780e-04   1.4992371e-03   1.3617689e-03   1.2408559e-03   1.4210301e-03   1.3709352e-03  -1.2512119e-03   1.1558859e-03  -7.2944944e-04  -7.7067647e-04  -2.2696655e-03  -8.6025172e-04  -7.0215907e-04  -2.1758794e-03   1.4504998e-03  -9.9380105e-04   7.1935187e-04   1.0358436e-03  -1.7380497e-03   1.6561017e-03  -4.1208952e-03  -2.6000231e-03  -3.2571678e-03  -1.2519740e-03   1.8304845e-03   5.4157310e-04  -1.8363795e-03  -3.9546954e-04   2.3323018e-04   5.8556569e-04  -1.8598123e-04  -1.3358230e-04   3.0508891e-04   6.1975658e-04  -5.8141851e-04  -9.8678946e-05  -1.1500571e-03   2.2630778e-04   4.3196343e-03   1.2539895e-04   8.4653764e-04  -8.5814140e-04   1.7694337e-04   1.2295106e-02   5.0120731e-04  -2.3516078e-04
  -4.1794378e-04  -1.6753335e-04   2.5958156e-05   6.3280528e-04   3.3252878e-04   1.1880890e-03   8.6107902e-04   1.0734809e-03  -1.0763880e-04   8.8567246e-04  -1.6243818e-03   4.4260529e-04  -9.0315362e-04  -8.6373102e-04  -2.2985018e-03  -1.2848690e-03  -8.3411997e-04  -2.2363898e-03  -9.0417708e-04  -1.0171039e-03   2.1948425e-04   3.3173370e-04  -2.1611194e-03   1.8377743e-03  -2.0203483e-03  -2.8862155e-03  -3.3872614e-03  -1.3862033e-03   2.0004357e-03   2.0102132e-04  -2.3549863e-03  -9.6557965e-04  -2.5305743e-04   5.6838766e-05  -3.6452510e-04   3.3615818e-04   1.0462201e-04   3.7200141e-04  -5.2768417e-04   2.2306906e-04   5.2515534e-04   2.5862601e-04   3.4101161e-03   1.8953705e-04   7.2660093e-04  -1.0635863e-03   2.4309866e-04  -7.6834001e-03   2.8945677e-04  -1.2757319e-04
   2.3522993e-04   1.8073610e-04   9.2558016e-04   1.1194405e-03   7.5876468e-04   1.2814131e-03   1.1926531e-03   8.7162090e-04  -1.9859392e-03   1.6534911e-03  -1.4506391e-03   1.2607562e-03  -8.5443328e-04  -9.8441541e-04  -2.3473555e-03  -9.3731622e-04  -1.2753147e-03  -2.7240613e-03   4.9379369e-04  -6.6319329e-04   1.0955004e-03   1.4346109e-03  -1.8628127e-03   1.2086347e-03  -4.8539429e-03  -2.6872868e-03  -3.5596201e-03  -1.2225668e-03   2.1244537e-03   7.8235805e-04  -8.0129877e-04  -9.6281711e-04  -7.3582056e-04   1.5156360e-04  -1.5577459e-04   6.4247422e-04   4.0671430e-04   9.8344358e-04   1.9522870e-04   8.3908957e-04   1.3519240e-03   3.5332388e-04   3.1478959e-03   4.4420053e-04  -7.1674585e-04  -4.9751013e-04   3.1041820e-04   1.5419389e-02   3.1314394e-04   1.6481774e-05
   5.1778462e-04   4.0311378e-04   5.6031550e-04   1.2409422e-03   1.1074155e-03   1.5732008e-03   1.2313761e-03   1.5307801e-03  -4.5028454e-04   1.6869359e-03  -1.4223168e-03   1.2848310e-03  -9.6116768e-04  -1.0403676e-03  -2.2704268e-03  -1.3475595e-03  -1.4226155e-03  -2.8437774e-03   1.6166858e-04   1.6297275e-04   9.3820581e-04   1.1625107e-03  -2.2399905e-03   2.0983203e-03  -4.5838514e-03  -3.0783294e-03  -3.7710480e-03  -1.2145224e-03   3.0509089e-03   6.8787229e-04  -1.5703136e-03   1.1393342e-04  -8.1266102e-04  -9.4070019e-05  -1.3673962e-04   1.2483951e-03  -1.3790015e-04   8.9132553e-04  -5.6625075e-05  -1.2931744e-04   6.1592850e-04   5.1158265e-04   8.8014910e-03   1.1806160e-04   3.8420118e-04  -5.3054851e-04   4.7983587e-05   1.1858488e-02  -1.2298625e-04  -2.6557638e-04
  -7.9794690e-06   1.2082831e-05   1.4947299e-04   9.3597488e-04   9.3883876e-04   1.1223296e-03   8.0658030e-04   1.4675714e-03  -1.1271823e-03   1.3379322e-03  -1.7610008e-03   1.0706189e-03  -1.1067713e-03  -1.1872544e-03  -2.6120339e-03  -1.4518746e-03  -1.6135150e-03  -3.0333363e-03   5.4400926e-04  -1.8281704e-03   5.2589533e-04   1.0948123e-03  -2.4564397e-03   2.4272272e-04  -4.8604510e-03  -3.2609804e-03  -3.9075683e-03  -1.3698925e-03   1.5584410e-03   4.1052455e-04  -3.2425774e-03  -1.4373319e-03  -8.4729673e-04  -4.7916046e-04  -3.0149959e-04   8.3236635e-04  -4.9991859e-04   4.5529380e-04  -6.4064324e-04  -1.3476079e-04  -1.2235704e-04   1.3899735e-04   7.0985132e-03  -1.0816988e-04  -2.6375550e-05  -1.1511049e-03  -2.4308232e-04   7.6630181e-03  -4.7918706e-04  -5.1213760e-04
  -4.0825256e-04  -4.1781677e-04  -1.3742494e-04   5.7175680e-04   3.5576234e-04   1.3247473e-03   6.0474686e-04   7.5466337e-04  -9.2537387e-04   8.0355961e-04  -2.1031222e-03   5.3434842e-04  -1.1919446e-03  -1.2152290e-03  -2.5196839e-03  -1.3713645e-03  -1.6480540e-03  -3.0359789e-03  -1.1010822e-03  -1.1336604e-03   9.4351053e-05   6.5456651e-04  -2.0704784e-03   2.8387748e-03  -3.2991713e-03  -3.0835110e-03  -3.7359023e-03  -1.8277562e-03   2.0420020e-03   1.0447803e-04  -2.0243255e-03  -2.1409967e-03  -7.3104870e-04  -4.2756510e-04  -5.4658321e-04   3.3669063e-04  -5.4890162e-04   4.8814371e-04  -3.3140476e-04   1.4763609e-05  -5.7609065e-04   7.7716977e-05   2.1041224e-03  -8.0280861e-06   1.4315355e-03  -1.5582041e-03  -3.8029629e-04   3.4213178e-03  -3.1447162e-05  -4.7276929e-04
   1.0841539e-04  -1.0928937e-04   4.1625134e-04   8.7303849e-04   8.0750894e-04   1.1569993e-03   1.1585270e-03   2.9967327e-04  -3.8664931e-04   1.2123125e-03  -2.0001261e-03   1.0053781e-03  -1.0085582e-03  -8.6469669e-04  -2.0134309e-03  -1.1248953e-03  -1.2143035e-03  -2.4667473e-03  -1.4876500e-04  -1.5898541e-03   6.5291190e-04   1.1242322e-03  -1.1139495e-03   1.6857600e-03  -3.8348376e-03  -2.4590530e-03  -3.1508924e-03  -8.5558853e-04   1.5582328e-03   2.8676447e-04  -2.4693522e-03  -2.1534185e-03  -6.0576192e-05  -4.1853607e-04  -3.7414880e-04   1.1977683e-04  -1.3392640e-04   5.9091294e-04  -9.7740733e-04  -5.7486951e-04  -1.2740803e-04   2.9376108e-04  -2.8550467e-03   1.5141375e-05  -7.6273858e-04  -1.3134921e-03  -3.4458085e-04   6.8730622e-04  -3.2541819e-04  -3.9146587e-04
  -1.1422792e-04  -1.3336558e-04   5.3608167e-04   6.7099254e-04   4.4140240e-04   7.2657189e-04   8.2136440e-04   1.0967078e-04  -3.0326113e-04   7.0197106e-04  -1.8810562e-03   4.5538243e-04  -7.5575628e-04  -5.9514598e-04  -1.6175860e-03  -9.8582858e-04  -9.9122037e-05  -2.0424353e-03  -7.7168393e-04  -7.5577456e-04   2.6951460e-04   5.4027746e-04  -1.2828846e-03   3.6299205e-03  -2.3376611e-03  -1.4259566e-03  -2.0740523e-03  -4.7453304e-04   7.5183605e-04  -2.7447431e-05  -2.5530095e-04  -6.1951793e-04  -8.7486504e-04  -3.7125629e-04  -2.7118696e-04   4.6936222e-04  -3.8728141e-04  -2.7362352e-05  -8.0916833e-04  -2.7699652e-04   6.8978331e-04  -1.0905600e-04   5.0728852e-03  -2.9007014e-04   8.6133578e-04  -1.1064542e-03  -4.9967278e-04   2.2809713e-03  -4.2786624e-04  -6.4081029e-04
  -2.4716664e-04  -5.6666258e-04   2.7938985e-04  -1.3480001e-04  -2.7741897e-05  -3.7090460e-05   7.7130579e-05   6.4493250e-04  -5.5836857e-04  -4.0587937e-04  -1.8095565e-03  -2.9702386e-04  -6.9697446e-04   3.7882975e-05  -2.4854206e-04  -1.6113395e-04   9.4412931e-04  -6.7283056e-04  -4.3223595e-04  -9.2529220e-04  -3.0617748e-04  -1.7378117e-04  -1.4297768e-03   2.0238732e-04  -2.0711843e-03  -5.7235139e-04  -7.1303465e-04  -3.3135791e-04  -4.6976737e-04  -6.1047863e-04  -2.1777062e-03  -1.1104704e-03  -7.7990943e-04  -5.1165163e-04  -7.1353803e-04   1.2375537e-04  -9.1223326e-04  -7.4744615e-04  -1.3422940e-03  -1.2088662e-03  -1.2463962e-03  -4.4884975e-04   2.0784077e-03  -6.6883810e-04  -1.1473960e-03  -1.4673918e-03  -5.7588739e-04  -7.7160965e-03  -6.2610960e-04  -1.0158701e-03
  -8.8117330e-04  -8.8232191e-04  -6.6693587e-04  -4.2867954e-04  -1.7892708e-04  -2.1424356e-04   2.2738846e-05   8.4602268e-04  -1.6798091e-03  -3.9533788e-04  -1.6136138e-03  -3.4372814e-04  -4.0007592e-04   1.3709175e-04  -5.1104885e-06   2.6170906e-05   1.5618957e-03  -7.7718083e-04  -1.4992302e-03  -4.1015071e-04   2.7852951e-04   4.6098905e-04  -8.3395327e-04   1.0063855e-03   3.4878519e-04   1.7656041e-06  -1.7628052e-03  -5.2677753e-04   3.0103189e-04  -3.6588957e-04  -2.7789623e-03  -5.1493850e-04  -1.3910506e-03  -8.7498869e-05  -5.9962174e-04   5.4876506e-04  -6.5861561e-04   2.9464209e-04  -6.8332476e-04  -5.3205114e-04  -3.8950460e-04   1.8722155e-04   1.0278124e-02   1.0238188e-04  -6.2623651e-05  -1.6187954e-03  -1.0952025e-03   1.1600592e-02  -6.6420750e-04  -3.0292143e-04
  -8.3884159e-05  -1.2566744e-04   3.3212782e-04   5.7191448e-04   5.1525357e-04   1.1476214e-03   9.4988575e-04   1.5895324e-03  -1.2679299e-03   9.6985503e-05  -1.7303297e-03   1.4733119e-04  -2.5835683e-04  -2.1926496e-04  -1.6289899e-03  -8.4862235e-04  -7.8909499e-05  -2.9383027e-03  -3.9610616e-04   6.3084590e-05   8.7007473e-04   1.1456617e-03  -8.9694624e-04   1.8942951e-03  -1.6106574e-03  -1.0354369e-03  -3.0213669e-03  -9.9046039e-04  -2.0986417e-06  -7.0898655e-05  -2.9569622e-03  -1.5247341e-03  -7.5467658e-04  -8.1471464e-04  -4.7946096e-04  -5.9888704e-04  -1.2933167e-03   1.7683975e-04  -6.6591584e-04  -8.3687913e-04  -2.8622025e-04   3.6880872e-05   5.2874000e-03   6.4458938e-05  -3.6689464e-04  -1.2794348e-03  -8.6579123e-04  -5.5400985e-03  -9.6131361e-04  -8.3533826e-04
  -4.6442967e-04  -5.2500551e-04   1.2182035e-04  -3.8285514e-05   9.2540155e-05   6.5626134e-04   7.0716179e-04   8.6930365e-04  -1.7684430e-03  -1.9596903e-04  -1.7779541e-03  -1.4329294e-04  -3.9609527e-04   1.4734420e-04  -7.8562449e-04   5.4448086e-04   1.0710913e-03  -1.2703728e-03  -7.0530514e-04  -8.9143816e-04   3.0657536e-04   2.6880225e-04  -5.8655097e-04  -8.0397283e-04  -1.4547135e-03  -6.7472894e-04  -1.6092274e-03  -5.6011241e-04   9.6117408e-04  -3.9997097e-04  -1.5034756e-03  -9.3233265e-04  -1.8757852e-04  -2.8407984e-04  -5.9664011e-04  -7.2829466e-04  -7.7427784e-04  -5.6057295e-04  -9.2181098e-04  -9.7758579e-04  -5.0701911e-04  -4.6709884e-04   8.2001761e-03  -3.6321266e-04  -2.1100351e-04  -1.6514403e-03  -9.3808275e-04  -6.9431951e-03  -5.8589771e-04  -8.2389102e-04
  -9.3051605e-04  -8.0546516e-04  -5.5871456e-04  -3.2907052e-04  -1.7901087e-04   2.0928914e-04   3.7429058e-05   7.8005210e-04  -7.3545997e-04  -5.1402586e-04  -2.1293126e-03  -5.4208952e-04  -7.6231960e-04  -4.2600700e-04  -1.5042169e-03  -5.1057740e-04  -3.4776650e-04  -1.9100117e-03  -1.5059615e-03  -9.2168379e-04   4.2343236e-05   2.2324915e-04  -1.6596460e-03  -7.4099778e-04  -1.5836230e-03  -1.6409962e-03  -2.2416483e-03  -1.0724935e-03   5.7702983e-04  -4.9779710e-04  -3.4840952e-03  -8.4198697e-04   2.9511508e-04  -9.6047047e-04  -8.5523364e-04  -9.5687393e-04  -1.0473076e-03  -7.9573784e-04  -1.3769955e-03  -1.1683023e-03  -1.3875935e-03  -3.8161402e-04   4.4902717e-03  -7.3968607e-04  -1.4217655e-04  -1.5767375e-03  -1.1141438e-03   1.4507056e-02  -1.0566991e-03  -1.1642494e-03
  -1.0365266e-03  -8.6317043e-04  -1.6235959e-04  -2.1518272e-04   1.1424749e-04   1.1674518e-04   4.4091369e-04   7.9512160e-04  -1.6833461e-03   2.0397376e-04  -1.9881292e-03   1.6282826e-04  -7.5254939e-04  -3.5324530e-04  -1.3591654e-03  -6.2086747e-04  -2.1642899e-04  -2.0338774e-03  -2.5411500e-03  -1.0497868e-03   5.3678290e-04   6.2153442e-04  -1.6534750e-03  -6.5531663e-04  -2.2641814e-03  -1.6884141e-03  -2.4141814e-03  -1.1782922e-03   2.4884377e-04  -1.0628743e-04  -3.3965569e-03  -5.8904581e-04  -1.1268751e-03  -5.3675723e-04  -5.0132128e-04  -8.9264440e-04  -7.8957091e-04  -4.9402704e-09  -5.2905164e-04  -6.2805013e-04  -1.4272588e-04  -8.3406318e-05  -1.1857809e-03  -1.1856991e-04  -8.2849793e-04  -1.7736146e-03  -7.1579550e-04   1.3162342e-02  -8.4198185e-04  -6.6622009e-04
  -3.1987243e-04  -2.1076859e-04   2.1887627e-05   2.4645796e-04   3.7365899e-04   7.2680577e-04   3.4496785e-04   7.0495356e-04  -3.2526991e-04   5.4001837e-04  -1.6977964e-03   2.5260387e-04  -6.5579114e-04  -4.2479788e-04  -1.6256886e-03  -6.9989136e-04  -3.9422978e-04  -2.0699280e-03   1.1758272e-03  -5.2774907e-04   6.1937922e-04   6.4715603e-04  -1.6028567e-03   1.2919966e-03  -2.5302507e-03  -1.9415381e-03  -2.7170142e-03  -1.1186223e-03   7.3692523e-04   7.5567373e-06  -2.4234974e-03  -9.2362560e-04  -3.6882667e-04  -3.3033715e-04  -5.3455454e-04  -1.8877491e-04  -6.7425473e-04  -2.6996624e-05  -5.8534031e-04  -5.0403655e-04  -3.5412604e-04  -1.7007845e-04   2.7539192e-03  -1.8081671e-04   7.3508616e-04  -1.4296949e-03  -9.1455859e-04  -2.7234249e-02  -7.2579406e-04  -5.9938349e-04
  -5.4346467e-04  -4.0115594e-04  -3.2867549e-04   8.7517554e-05   4.1523689e-04   1.0924758e-03   4.4105423e-04   5.6697359e-06  -1.5076195e-03   3.6752914e-04  -1.7309469e-03  -7.7470220e-05  -8.0391695e-04  -6.9660699e-04  -1.9864771e-03  -6.8768463e-04  -7.2874356e-04  -2.5169500e-03  -1.0669823e-03  -1.0791041e-04   2.4621782e-04   6.4473751e-04  -1.9591069e-03   1.1208232e-03  -2.6935420e-03  -2.2394662e-03  -3.2341743e-03  -1.4022108e-03   1.7343230e-03  -1.1462429e-04  -3.6341040e-03  -1.6140895e-03   2.0172604e-04  -9.7211316e-04  -6.9000636e-04  -8.1264164e-04  -8.3182042e-04  -2.0875242e-04  -1.1454422e-03  -9.3509827e-04  -1.3733440e-03  -2.4070774e-04   1.7901998e-03  -3.8282643e-04  -1.3454123e-03  -1.8091128e-03  -1.2280900e-03  -1.8405515e-03  -1.2134872e-03  -8.8351022e-04
  -1.1205905e-03  -6.7756290e-04  -5.8222911e-04  -9.7784075e-05   1.8988756e-04   7.4272911e-04   1.4058631e-04   1.4623605e-03  -7.1344746e-04  -1.2532399e-05  -2.1362030e-03  -5.1884592e-04  -9.4866386e-04  -8.6575618e-04  -2.4392034e-03  -1.2207091e-03  -9.0164284e-04  -3.0491895e-03  -1.5706754e-03  -1.3778969e-03  -2.2072982e-04   8.7883716e-05  -1.9523459e-03  -1.2622771e-03  -3.6548316e-03  -2.6412427e-03  -3.6057783e-03  -1.5476480e-03   6.3783419e-04  -2.9087541e-04  -2.4011177e-03  -1.8616632e-03  -1.1834773e-03  -9.4512868e-04  -9.1238529e-04  -1.4621653e-03  -1.4014069e-03  -4.5794531e-04  -1.6870730e-03  -1.2935466e-03  -9.4674417e-04  -4.4104023e-04   3.5560124e-03  -5.1808282e-04  -1.8662167e-03  -1.7625814e-03  -1.2222704e-03  -1.4036982e-02  -7.4284303e-04  -6.5638049e-04
  -6.5290293e-04  -4.8166697e-04   1.1912067e-04   2.6480469e-04   2.2337832e-04   1.0250986e-03   5.1344035e-04   6.9444714e-04  -8.0296519e-04   6.8475836e-04  -1.9892124e-03   2.5426276e-04  -8.9978229e-04  -9.9976861e-04  -2.4013089e-03  -1.3357810e-03  -1.1435943e-03  -3.0005779e-03  -5.0396525e-04  -1.0840122e-03   4.8635853e-04   8.9742965e-04  -1.2903080e-03   9.8805572e-04  -3.7800421e-03  -2.5807132e-03  -3.7794274e-03  -1.4397275e-03   1.7191177e-03   1.7676389e-04  -2.8156755e-03  -2.4795712e-03  -6.6073640e-04  -8.1196323e-04  -4.7459689e-04   1.9176232e-05  -7.9695357e-04   4.6557339e-04  -4.2419665e-04  -4.5639160e-04  -1.5058572e-04   3.0515081e-04   6.5729809e-03  -3.7703820e-05   1.1164933e-04  -1.3319005e-03  -9.8713220e-04  -7.8739822e-03  -5.9360469e-04  -5.2230043e-04
  -2.6997624e-04  -7.5261669e-05   2.6457570e-04   5.9663720e-04   1.5743868e-04   1.1482376e-03   6.3050084e-04   1.2164214e-03  -2.9938243e-04   9.3009486e-04  -1.7781961e-03   3.9750629e-04  -6.7105918e-04  -8.2740188e-04  -2.3176584e-03  -1.1741670e-03  -1.1406812e-03  -2.9865974e-03  -1.3147161e-03  -8.0352451e-04   5.7159120e-04   9.9125330e-04  -1.3477958e-03   1.3035737e-03  -2.7324995e-03  -2.5272954e-03  -3.7120357e-03  -1.5408245e-03   1.3539583e-03   1.9238012e-04  -1.9377209e-03  -1.5457551e-03  -1.3598626e-03  -5.9901638e-04  -3.7467855e-04  -1.1683108e-05  -9.2280668e-04   3.4201753e-04  -1.1997907e-03  -4.6801183e-04   3.4869320e-04   1.1974209e-04   5.1111123e-03  -1.1076389e-04   1.1839919e-04  -1.4794687e-03  -9.0466259e-04   2.9020356e-02  -3.9493441e-04  -4.7530254e-04
  -7.2468101e-04  -2.9175420e-04  -2.7348805e-04   3.9530790e-04   1.0484245e-04   1.0259928e-03   2.0310476e-05   3.5093800e-04  -1.2796684e-04   5.5915181e-04  -1.8498552e-03   2.3268463e-04  -8.6560351e-04  -8.5248251e-04  -2.2570393e-03  -1.1058711e-03  -1.0684129e-03  -3.0596566e-03  -3.4545399e-03  -1.1019126e-03   2.3147822e-04   6.5358420e-04  -1.6818304e-03  -6.3894156e-05  -3.7921001e-03  -2.6617553e-03  -3.7913143e-03  -1.4232858e-03   1.1170618e-03  -7.8124858e-06  -2.8440359e-03  -1.8146619e-03  -1.3828386e-03  -6.8558671e-04  -6.0614449e-04   5.9360557e-04  -1.1138892e-03   1.4910448e-04  -1.2045581e-03  -7.2052475e-04  -1.0908431e-03  -7.0912254e-05   5.5116881e-03  -3.7351222e-04  -1.1587882e-04  -2.7082914e-03  -9.7920070e-04  -1.4602610e-02  -7.5671490e-04  -7.9826033e-04
  -1.0463754e-03  -6.9617853e-04  -4.0066111e-04   1.0772773e-04   3.2083588e-04   1.0301681e-03   1.0578348e-04   2.1971733e-04  -1.1994126e-03   3.2774219e-04  -2.0805134e-03  -8.5760264e-05  -1.1173041e-03  -1.1295323e-03  -2.6885220e-03  -1.7147767e-03  -1.6141433e-03  -3.4868245e-03  -2.7750267e-04  -1.0022001e-03  -3.5898043e-05   4.9624173e-04  -2.5552220e-03   4.0842034e-04  -4.8130658e-03  -3.4648303e-03  -4.1698362e-03  -1.8155604e-03   1.8745320e-03  -1.4612806e-04  -2.9688680e-03  -1.7996009e-03  -1.2274407e-03  -8.1543141e-04  -7.2988652e-04   2.9994466e-05  -8.4748620e-04  -3.9458853e-05  -1.4036160e-03  -5.6124560e-04  -3.3240637e-04  -2.4311447e-04  -1.9674033e-03  -2.7249809e-04   2.7414039e-04  -1.6572801e-03  -6.5597775e-04  -3.1373973e-03  -5.7734875e-04  -4.7743451e-04
  -6.9611473e-04  -3.7348628e-04  -3.2931016e-04   5.0567708e-04   4.2540597e-04   1.1805504e-03   5.6451792e-04  -4.9657078e-04  -7.2896952e-04   1.0254221e-03  -1.8933682e-03   5.4726866e-04  -1.0136281e-03  -1.0720548e-03  -2.5191633e-03  -1.6587417e-03  -1.6038108e-03  -3.6637268e-03   2.1266059e-03  -1.2802422e-03   7.8673055e-04   1.6519289e-03  -2.4779667e-03   3.2988742e-03  -5.5091907e-03  -3.6055299e-03  -4.0130378e-03  -1.8993221e-03   1.7630256e-03   2.7122555e-04  -2.0282108e-03  -1.3648740e-03  -6.8167217e-05  -9.5163012e-04  -4.0512739e-04  -8.5325330e-04  -5.6819490e-04   3.8895837e-04  -7.9244655e-04  -4.8084857e-04  -1.2801116e-03  -2.8916029e-04   5.2287290e-03   1.2942060e-04  -1.4230737e-03  -1.3806924e-03  -2.9500082e-04   2.0286011e-02  -5.2430789e-04  -2.9398876e-04
