   3.3426192e-04  -2.0523957e-04   4.3253202e-04  -2.2006070e-04   8.1224716e-04   6.6582137e-04   1.4124237e-03   1.7241301e-03  -4.9138616e-04   2.2497049e-03  -4.7841878e-04   1.4679490e-03  -2.7832601e-04   8.3449559e-05   7.0602124e-05   6.3678011e-04  -5.3267146e-04  -1.2084992e-04  -2.9095403e-05   4.3204514e-04   1.2222902e-03   1.1663123e-03  -1.1838289e-03   2.6454083e-03   8.4194669e-04  -1.1183470e-03  -5.8826257e-04   1.2620213e-03   9.7716996e-04  -4.0152809e-04  -1.7679874e-03   3.4121805e-04   9.4747980e-04  -2.4771708e-04   3.8816952e-04   2.5988070e-04  -1.0585789e-04   1.4323261e-04  -5.9202506e-04  -7.5085956e-04   3.3990256e-04  -4.1271260e-04   9.7146528e-03  -6.6986548e-05  -9.2995702e-04  -1.4406306e-03  -1.2402312e-03  -7.4292221e-03  -1.1578132e-03  -1.3017027e-03
   5.3136371e-04  -2.0228768e-05   7.2257750e-04  -2.1056191e-04   7.4047770e-04   5.6583848e-04   6.6732476e-04   2.4830390e-04  -1.2567010e-03   2.2789675e-03  -2.7347149e-04   9.8428410e-04  -4.4470100e-04   3.5692781e-06   3.0820927e-04   3.6537729e-04  -8.2342961e-04   1.4070922e-04  -2.2906649e-03  -1.0870433e-03   1.1177375e-03   1.0522823e-03  -7.2704547e-04   1.9683721e-03  -3.1068534e-04  -1.3765739e-03  -3.0060438e-04   1.2666603e-03   1.0960503e-03  -3.6095828e-04  -1.4588068e-03   1.8552153e-03   4.6047458e-04  -9.5474197e-06   3.3577363e-04  -2.5182558e-04   3.2378265e-04  -1.5416443e-04  -5.7042146e-04  -9.4829139e-04   9.1631176e-05  -1.2378447e-04   3.5524024e-03  -1.4939638e-04   4.7917300e-04  -1.8342747e-03  -1.1234066e-03   4.8058205e-03  -1.1166094e-03  -1.7664682e-03
   1.6948700e-04  -4.3210015e-04   3.8197433e-04  -5.6703168e-04   4.3808372e-04   8.7505701e-05   9.0210211e-05   3.8701051e-04  -1.1205850e-03   1.7493624e-03  -6.4970180e-04   1.0280184e-03  -6.0505659e-04   2.3819357e-05   3.1825568e-04   4.6102944e-04  -9.2499051e-04   1.4331941e-04  -1.3772610e-03  -7.5083913e-04   7.0929911e-04   3.6661638e-04  -1.0147601e-03   1.5085926e-03   1.2715403e-03  -1.1878050e-03  -3.6418266e-04   8.0750912e-04  -1.5117059e-04  -6.6705141e-04  -2.5112701e-03  -5.0032797e-04   2.3595564e-04  -2.7718814e-04  -8.0138947e-05   1.9630359e-04  -6.9131318e-04  -5.2529480e-04  -1.1969563e-03  -1.4445793e-03  -2.4808958e-04  -4.9717980e-04   1.3278142e-03  -4.5408661e-04  -1.2708367e-04  -1.9675712e-03  -1.3873115e-03   1.0951974e-04  -1.0130747e-03  -1.5374199e-03
   4.8736570e-04  -2.4732901e-04   2.8262957e-04  -2.9985601e-04   3.6571827e-04   3.8729937e-04   6.6870853e-04   1.2286828e-03  -5.5201887e-04   2.0872338e-03  -4.6412548e-04   1.2271148e-03  -4.4090918e-04  -6.0261049e-05   6.9098278e-05   3.0815756e-04  -8.6144620e-04  -4.8108403e-05   1.5367048e-04   2.7503245e-04   1.2309479e-03   9.3275064e-04  -1.0959441e-03   4.8432266e-04   1.2655034e-04  -1.2648072e-03  -5.5436150e-04   1.0974682e-03   8.2457659e-04  -3.1656417e-04  -3.1731846e-03   1.2650294e-03   6.6695805e-04  -1.6777907e-04   3.5824685e-04   1.4500381e-04  -2.0473612e-04   1.9282283e-04  -4.8465980e-04  -9.8214194e-04  -5.2358053e-04  -1.0782719e-04   3.9711497e-03   4.4007385e-05   1.3908083e-04  -1.9972948e-03  -1.3393310e-03  -3.6659436e-03  -9.8089164e-04  -1.3748328e-03
   5.7824916e-04  -5.9582958e-06   5.7375297e-04  -1.6863096e-04   6.9800869e-04   5.7279726e-04   7.0962001e-04   3.9248174e-04  -6.7926140e-04   1.9703142e-03  -5.0291535e-04   9.0735086e-04  -3.5446507e-04  -1.1003113e-04   5.6566329e-05   3.7385797e-04  -9.1431930e-04  -1.3596100e-04  -9.0507657e-04   1.3865654e-04   1.2477444e-03   9.9595450e-04  -8.2527136e-04  -1.5963099e-04  -6.4201397e-04  -1.0503852e-03  -5.8984279e-04   6.9075456e-04   1.5844328e-03  -3.3150960e-04   6.0040122e-05   9.5756556e-04  -2.5622759e-04   3.0390307e-04   3.0268187e-04  -2.5106699e-04  -5.2546099e-04  -1.8190145e-05  -7.7221048e-04  -1.2153760e-03  -1.7701516e-04  -4.2911738e-04   5.8921669e-03  -5.2967760e-05  -1.8502151e-03  -1.5709256e-03  -1.3673611e-03   6.9016768e-03  -1.1283496e-03  -1.5118925e-03
   5.0675884e-05  -3.0694477e-04  -1.2740954e-05  -4.8892567e-04   4.8673025e-04   5.1070005e-04   4.0020590e-04   3.4518974e-04  -6.8863144e-04   1.5932354e-03  -7.1646785e-04   5.5318803e-04  -4.8708776e-04  -1.7778482e-04  -1.7082622e-05   1.8588357e-04  -1.1418213e-03  -4.8990001e-04   8.3849474e-05  -6.7735213e-04   8.2154432e-04   7.1682478e-04  -1.1081193e-03  -3.3259843e-04  -1.6226523e-03  -1.3261334e-03  -7.9680607e-04   5.3835561e-04   2.0480174e-05  -5.5319176e-04  -1.5629448e-03  -2.2415261e-04  -5.2882230e-04  -9.6799177e-04  -1.1241496e-05  -8.3666656e-04  -6.2961719e-04  -2.0708790e-04  -8.1702287e-04  -9.8526827e-04  -2.3991682e-04  -5.0408795e-04   6.1403364e-03  -3.8041078e-04   1.5921857e-04  -2.3046457e-03  -1.7573405e-03   7.8753224e-03  -1.2576685e-03  -1.5491822e-03
   3.3652785e-04  -2.9157902e-04   5.3400081e-04  -2.1468774e-04   9.6242205e-04   6.4869720e-04   6.4751500e-04   7.3381147e-05   3.0920122e-04   1.9408774e-03  -3.8235777e-04   1.1012037e-03  -4.5743096e-04  -1.5314114e-04  -1.3725070e-04   1.1851974e-04  -1.1632948e-03  -6.7043031e-04  -3.6440484e-04  -2.5454155e-04   1.4418684e-03   1.0801823e-03  -6.5814448e-04   1.3916109e-03  -1.9186667e-04  -9.1394252e-04  -7.8467111e-04   6.2483549e-04   8.6052949e-04  -1.5029714e-04  -1.9672217e-03   4.5151064e-05  -1.1579401e-04  -2.7886889e-04   3.5810654e-04  -3.5096449e-04   1.1595436e-05   3.6187595e-04  -2.3587515e-04  -5.1947369e-04   2.6886791e-04  -5.0293293e-05   3.3176467e-03   2.2619721e-04  -9.2396440e-06  -1.2413779e-03  -1.2585303e-03   6.8096505e-03  -1.0853393e-03  -1.1485965e-03
   7.8958570e-04   1.7582827e-04   7.4374914e-04   3.0219075e-05   7.0209417e-04   9.6566224e-04   8.5715886e-04   1.3024379e-04  -9.0827997e-04   2.0433390e-03  -3.1846354e-04   1.2686990e-03  -3.1123444e-04  -1.2374367e-04  -6.6410503e-05   1.0827395e-04  -1.0926325e-03  -5.1158544e-04  -6.6568062e-04   6.6239254e-06   1.4805273e-03   1.3150235e-03  -8.3704927e-04  -3.2424789e-05  -2.1148144e-04  -1.0395945e-03  -8.2563277e-04   8.1962801e-04   1.8464444e-04  -1.0945433e-04  -8.1365847e-04   1.1640880e-03  -8.4364251e-04   9.5437063e-05   2.4473094e-04   4.4622895e-05  -7.5326912e-05   3.1825277e-04  -3.7278794e-04  -5.8111286e-04  -8.8083686e-04  -2.3919884e-04   7.2924551e-03   7.3377458e-05   3.0976185e-04  -1.7390064e-03  -1.3209196e-03  -6.1111775e-04  -7.5640285e-04  -1.0910428e-03
   3.5623508e-04  -7.2115231e-06   4.8081664e-04  -1.9649441e-04   7.8403536e-04   4.7854587e-04   9.9842087e-04  -3.1660000e-04  -1.9323885e-03   1.6388918e-03  -5.1920122e-04   9.4406022e-04  -3.7028579e-04  -1.4217691e-04  -1.5700911e-04   2.1941941e-04  -1.2920495e-03  -9.1055571e-04   1.5682531e-04  -1.9243518e-04   1.1053145e-03   9.1038778e-04  -2.8643556e-04  -8.7997573e-04  -1.1103388e-03  -1.1004307e-03  -1.0624853e-03   6.4889644e-04   1.0426571e-03  -3.2332356e-04  -6.5978896e-04   5.7022481e-07  -6.9743866e-04  -4.5508530e-04   1.0744568e-04   3.3655402e-04  -4.0236083e-04   1.3406458e-04  -6.3745817e-04  -1.2506605e-03  -5.3743029e-04  -5.4090633e-04   6.5740319e-03  -5.8399895e-05  -1.7981873e-04  -1.7317113e-03  -1.6618585e-03   2.0620205e-02  -1.1016810e-03  -1.4353200e-03
  -2.1727370e-04  -4.2361807e-04  -1.0248068e-04  -5.0271477e-04  -2.8137652e-05   3.9066462e-04   1.4906019e-04   1.1328614e-04  -1.0489083e-03   1.0937663e-03  -8.7477575e-04   4.3932575e-04  -4.4743926e-04  -2.6588855e-04  -2.4387265e-04  -3.2687891e-05  -1.2034781e-03  -9.4025431e-04   7.3060329e-04  -1.2716805e-04   7.0102041e-04   5.2893092e-04  -6.4372941e-04   1.7930855e-03  -8.9288427e-04  -1.0740350e-03  -1.0461471e-03   4.4830958e-04   3.8386037e-04  -4.6385042e-04  -1.3742869e-03  -7.7633082e-04   2.2981068e-04  -4.7898298e-04   1.1344356e-04  -7.6377146e-05  -8.3602761e-05   3.1691007e-04  -1.5926798e-04  -6.7908032e-04  -1.5192243e-04  -2.7937882e-04   3.1239202e-03   9.6139898e-05   7.0824253e-04  -1.3523529e-03  -1.3171340e-03   3.8108325e-03  -7.6830806e-04  -1.0508267e-03
   5.7765649e-04   2.8518357e-04   6.8672356e-04   1.2678230e-04   6.3848833e-04   7.8628270e-04   7.1921368e-04   4.3919016e-04   7.3527265e-04   1.9432171e-03  -3.3345656e-04   9.9517405e-04  -2.5876478e-04  -1.0486210e-04  -1.1070685e-04  -2.1592434e-06  -1.1508571e-03  -8.7109994e-04  -5.0258311e-04  -3.1090112e-04   1.4733804e-03   1.4301301e-03  -3.5831073e-04   2.1802341e-03   1.1362725e-04  -7.8065688e-04  -8.4967806e-04   3.4280872e-04   1.7789929e-03  -9.8313467e-05  -2.7002236e-03   8.9133350e-04   3.8678199e-04  -1.4198677e-05   4.0116863e-04   3.8185416e-04   8.4731400e-05   3.9685646e-04  -5.9994098e-05  -5.5887847e-04  -1.0749693e-03  -2.5822557e-04   4.8417212e-03   1.9102445e-04   9.0215768e-04  -1.2617168e-03  -1.2713724e-03  -9.4854587e-04  -6.3480099e-04  -9.3300286e-04
   4.4302453e-04   1.0061816e-04   8.5566408e-04   3.1585189e-06   6.8853318e-04   6.5111747e-04   7.8111870e-04   9.6156460e-04  -2.4361208e-03   1.7310767e-03  -2.8365897e-04   6.8841304e-04  -1.1322489e-04   4.1986139e-05   2.8290780e-04  -1.6671648e-06  -7.7867921e-04  -4.9603591e-04  -2.7133847e-04   4.6046531e-05   1.1796074e-03   1.2288628e-03  -7.5184711e-04   2.5420811e-03  -2.2348209e-04  -6.7564833e-04  -7.1917142e-04   9.8585885e-04   9.5703185e-04  -3.0615029e-04  -2.4983284e-04   7.5275668e-05  -4.3480951e-04  -2.6201509e-04   2.4588627e-04  -5.5763155e-04   3.4784159e-04   7.1416463e-05  -7.8311382e-04  -6.2548346e-04  -1.1793791e-03  -2.2464062e-04   3.8255136e-03  -1.1523002e-04   3.5718910e-04  -1.5350492e-03  -1.4628933e-03  -4.5235073e-03  -7.1849150e-04  -1.1995500e-03
  -6.9175781e-05  -3.6495324e-04   1.5034927e-04  -4.6256842e-04   2.0520641e-04   2.5023194e-04   2.8272712e-04  -4.7275407e-04  -9.5189939e-04   1.1259154e-03  -7.8851159e-04   5.3293753e-04  -4.0974372e-04  -3.5908382e-05  -1.5836042e-06   4.3824301e-04  -6.9124380e-04  -2.6619618e-04   2.3083035e-04  -8.9064887e-04   6.2303588e-04   7.4233441e-04  -8.3131687e-04  -3.1099631e-03  -5.5389543e-04  -9.5094688e-04  -7.7602250e-04   5.9833663e-04   4.0160739e-04  -5.8358745e-04  -2.1571061e-03  -7.1865790e-05  -2.5934787e-05  -3.2136196e-04  -3.0355523e-05  -1.0527937e-03  -9.5749705e-04  -2.0093184e-04  -1.1455825e-03  -1.0024091e-03   1.2229348e-04  -6.5261248e-04   9.8673552e-03  -3.6943890e-04   3.8187869e-04  -1.9830973e-03  -1.7904459e-03   3.6411816e-03  -1.3446985e-03  -1.5714872e-03
  -4.8206179e-04  -8.0672675e-04  -4.4880324e-04  -9.6760422e-04   4.2598058e-05  -3.2757487e-04  -1.2174509e-04   3.6514294e-04  -8.6593913e-04   6.3534878e-04  -1.1420392e-03  -2.3293872e-04  -4.8513548e-04   1.7664282e-05   1.3397016e-04  -1.3057581e-04  -4.3919359e-04  -1.2486700e-04  -4.3166315e-04  -6.4368546e-04   2.7995801e-04   1.4542697e-04  -7.5043977e-04   1.4780772e-04  -2.5920820e-04  -7.7029708e-04  -6.9761643e-04   4.7985261e-04   1.2011513e-03  -6.8364030e-04   1.6436744e-03  -1.5155794e-04   1.4005849e-04  -4.5153918e-04   3.2154810e-05   4.4856104e-05  -5.4698152e-04  -9.3352173e-05  -6.9773942e-04  -9.8607375e-04   8.7535242e-04  -2.8941655e-04   3.5620006e-04   1.4618606e-05  -1.4083015e-03  -1.8080854e-03  -1.4814964e-03  -1.0843011e-02  -8.2708668e-04  -1.2637518e-03
   2.2148946e-04  -1.0293711e-04   5.4458872e-04  -2.2899653e-04   6.1013224e-04   4.5792005e-04   4.3749498e-04   1.4380713e-04  -1.7192132e-03   1.4289366e-03  -5.4227881e-04   4.6578128e-04  -2.4234552e-04  -6.9338217e-05  -7.7132288e-05   7.8399149e-05  -6.2404724e-04  -5.3537317e-04   8.9096761e-04  -1.2180681e-04   8.4864628e-04   7.9674827e-04  -1.9493837e-04   2.3829468e-04  -4.0784752e-04  -9.4076939e-04  -7.7872444e-04   7.5514329e-04   2.9668285e-04  -3.7670991e-04  -1.7454788e-04   9.5820671e-04  -3.4591986e-04  -3.5440971e-04   6.2129118e-05  -4.4148217e-04  -4.9882469e-04   1.0075770e-04  -5.8923999e-04  -1.0537931e-03  -1.0737501e-03  -4.8480253e-04   1.0517071e-03   1.2456128e-04   3.9576244e-04  -1.8435721e-03  -1.5089967e-03  -6.7310394e-03  -1.1044244e-03  -1.1435257e-03
   7.2377305e-05  -2.3772224e-04   3.0651892e-04  -3.8734890e-04   3.3932686e-04   3.3177054e-04   2.2973053e-04   6.1459432e-04  -1.0548158e-03   1.1298180e-03  -7.3210470e-04   5.4928422e-04  -4.8638444e-04  -1.1170597e-04  -5.8031394e-05   3.1570753e-04  -8.4214401e-04  -4.9558061e-04  -2.7287714e-03  -1.6399773e-04   6.0368172e-04   4.8657079e-04  -6.6115469e-04   1.5576530e-03  -1.2541056e-03  -8.9596678e-04  -8.2991482e-04   9.1074262e-04   4.4076637e-04  -4.8661596e-04  -1.3966139e-03  -2.3262973e-04   5.6196027e-06  -5.3759216e-04  -4.2903041e-05  -7.9363323e-04  -3.8075750e-04  -1.2101835e-04  -6.8052212e-04  -1.2853317e-03  -1.8981469e-03  -7.3736260e-04   9.5920108e-04  -2.9199047e-04  -1.5997081e-03  -1.6734404e-03  -1.7785233e-03  -2.4485363e-02  -1.0699080e-03  -1.3782915e-03
  -3.7247880e-04  -6.7821873e-04  -4.2038233e-04  -8.1309583e-04  -1.0200216e-04   1.4823480e-04   1.0862140e-04   5.2408694e-04  -1.5216286e-03   7.6333480e-04  -1.0734851e-03  -2.8702891e-05  -5.3465192e-04  -2.0048420e-04   3.7948077e-05  -2.1564876e-04  -8.9775602e-04  -5.4487924e-04  -1.7658261e-03  -7.4976229e-04   2.1303579e-04   1.7231073e-04  -1.2581212e-03  -1.8278684e-03   2.6021400e-04  -1.1066167e-03  -9.4296044e-04   3.7896464e-04   9.2327106e-04  -6.9319987e-04  -6.8895653e-04  -9.3147173e-05  -9.6083764e-04  -7.4902060e-04  -2.9210467e-04  -1.1349957e-03  -3.3037807e-04  -4.9153704e-04  -1.2207779e-03  -1.4951255e-03  -1.1961211e-03  -6.7616167e-04   1.2642967e-03  -5.1222305e-04  -1.7434814e-03  -1.6176968e-03  -1.9884289e-03  -4.0368312e-03  -1.4641142e-03  -1.6280327e-03
  -2.4785471e-04  -4.7050169e-04   2.3009171e-04  -4.8240522e-04   1.6181722e-04   2.3105199e-04   1.7607790e-05   4.2388545e-04  -1.5720562e-03   1.2060576e-03  -8.6624204e-04   3.7526715e-04  -5.6179729e-04  -2.5896495e-04  -1.5007665e-04  -3.0309740e-05  -1.1133595e-03  -5.2968081e-04  -2.5624185e-04  -8.3857443e-04   8.4186811e-04   9.1243710e-04  -4.9348653e-04  -7.4941653e-04   3.7481057e-04  -9.1828383e-04  -9.0393337e-04   3.1937190e-04   1.2245661e-04  -3.8406329e-04  -1.3217033e-05  -3.0189319e-04  -4.0034414e-04  -8.1060966e-04  -8.7222936e-05  -5.1959348e-04  -2.7399487e-04  -4.5112181e-05  -4.0812662e-04  -7.4690493e-04  -1.2935956e-03  -5.1974889e-04   1.8296260e-03  -7.3517993e-05   4.7430888e-04  -1.1925140e-03  -1.7511210e-03  -2.4387124e-03  -9.7853458e-04  -1.1666401e-03
   5.2969775e-05  -2.5054786e-04   2.7154325e-04  -4.1501279e-04   3.8350685e-04   1.7655472e-04   3.1962464e-04   2.5943058e-04   7.3672424e-04   1.1683680e-03  -8.8041829e-04   2.6934728e-04  -4.3150358e-04  -2.4135946e-04   4.3820568e-05   5.4013104e-05  -1.0101293e-03  -5.6313054e-04  -8.3993754e-04  -6.8803405e-05   6.6626846e-04   7.7242334e-04  -5.7223754e-04  -5.1250976e-05   4.1440278e-04  -1.0703423e-03  -8.8762585e-04   5.7949754e-04   6.6341221e-04  -4.0877343e-04  -3.4458819e-04  -7.4902980e-04  -3.2921718e-04  -4.9337954e-04  -4.5881792e-05  -9.0419321e-04  -3.8988554e-04  -1.3168108e-04  -5.3285813e-04  -9.7947766e-04   9.7203610e-04  -4.5753652e-04   4.3109469e-03  -1.7287793e-04  -1.0410061e-03  -1.5944779e-03  -1.8835869e-03  -4.6054749e-03  -1.3474224e-03  -1.5876640e-03
  -3.8296988e-04  -5.4468407e-04  -4.0802202e-04  -7.3485402e-04  -1.9354235e-05   1.6520816e-04   1.0099194e-04   2.0263286e-04  -8.5994303e-05   6.6560064e-04  -1.0308392e-03  -6.8692403e-05  -5.6302396e-04  -3.0069845e-04  -1.6447710e-04  -2.1182805e-04  -1.1628736e-03  -6.4770266e-04   2.8192176e-04  -8.8422815e-04   2.5311706e-04   2.4743253e-04  -8.4114535e-04   1.6693863e-03  -2.8101751e-04  -1.1993371e-03  -9.1747072e-04  -1.0207104e-05  -8.2556793e-04  -6.2201364e-04  -1.4139616e-03  -8.3359022e-04  -3.1292913e-04  -8.2815898e-04  -2.6272019e-04  -3.8056349e-04  -6.7774049e-04  -4.9209828e-04  -9.5679233e-04  -1.5412011e-03  -1.2150566e-04  -5.3770241e-04   1.8943185e-03  -4.4494410e-04  -3.9865222e-04  -1.6470191e-03  -2.1712885e-03   2.5675080e-03  -1.5866586e-03  -1.8493372e-03
  -9.2895154e-04  -8.8902633e-04  -3.9372034e-04  -8.3784101e-04  -1.7875319e-06   1.9119873e-04  -1.2697978e-04  -2.8802746e-04  -5.4529315e-04   1.0287486e-03  -1.0086285e-03   1.7342612e-04  -5.7459174e-04  -2.9884104e-04  -3.0035895e-04  -1.2334294e-04  -1.1256612e-03  -7.9584058e-04  -1.8840404e-03   9.6386269e-05   8.0371031e-04   8.7424112e-04  -8.6704007e-04  -8.1023976e-04  -2.3022712e-05  -1.0369254e-03  -9.3969179e-04   3.4900440e-04   3.3318339e-04  -3.2065294e-04  -9.8688330e-04  -9.8952197e-04   1.8961483e-04  -3.8542820e-04   9.5011223e-05   5.5599498e-04  -4.3635731e-04  -4.0072550e-06  -3.8484711e-04  -1.0245732e-03  -6.5465237e-04  -2.1952501e-04   7.2690691e-03   1.3375681e-04  -9.4226845e-05  -1.5500224e-03  -1.6729422e-03   7.9179564e-03  -1.0136684e-03  -1.2537979e-03
   1.5374910e-04  -9.9186589e-05   4.1183241e-04  -2.7113492e-04   5.7701887e-05   3.1850010e-04   4.9277878e-04   1.0452119e-03  -2.2619059e-03   1.3252213e-03  -7.3403370e-04   7.2096736e-04  -4.2825163e-04  -1.8850592e-04  -2.5345140e-05   7.6388260e-06  -1.0363293e-03  -6.5234408e-04  -8.2879228e-04  -5.5251829e-05   8.5783133e-04   9.4266242e-04  -1.0674614e-03   2.0961212e-03   1.0840810e-04  -9.4892661e-04  -8.8336237e-04   2.3009261e-04   1.2223667e-03  -2.5259322e-04   5.2075920e-04  -8.0262451e-04   2.8424000e-05  -3.5652233e-04   8.7765671e-05  -9.7273279e-04  -2.6914003e-04   8.4824060e-05  -3.8387298e-04  -6.2138785e-04  -1.3036657e-03  -3.6100336e-04  -6.3635339e-03   2.0308740e-04   9.1425161e-04  -2.0741555e-03  -1.7651268e-03   4.7758250e-03  -1.4654715e-03  -1.3031564e-03
  -9.8305929e-05  -2.5656546e-04   2.9617484e-04  -4.2234379e-04   5.1075232e-04   2.7313340e-04   4.8731660e-04   6.6667522e-04  -5.6662288e-04   8.8408485e-04  -8.4555458e-04   5.4916687e-05  -4.4447195e-04  -1.9914086e-04   4.7697322e-06   3.9588191e-05  -9.6243311e-04  -5.2945508e-04   3.7873862e-05  -1.1306999e-03   4.2630502e-04   5.1326765e-04  -1.9086455e-04  -1.7798800e-03  -1.0847141e-03  -1.0135431e-03  -8.9827710e-04   6.2499539e-04  -9.1539026e-05  -4.6803875e-04  -2.4702917e-03  -1.2916205e-03   5.9748610e-04  -3.7028035e-04  -1.8151106e-04  -9.7729196e-04  -3.6229455e-04  -2.1995405e-04  -9.0059306e-04  -8.9634839e-04  -9.0380153e-04  -5.4428173e-04   6.1450391e-03  -2.2654976e-04  -8.6133630e-04  -2.0224175e-03  -1.9433888e-03   4.3823570e-03  -1.6083153e-03  -1.6109190e-03
  -3.4084052e-04  -7.2403578e-04  -3.4896130e-04  -7.9529331e-04   1.8996577e-04   6.2696330e-05  -6.8432746e-05   3.6535467e-04  -5.6124275e-04   5.0175609e-04  -1.1364161e-03  -2.8027321e-04  -6.5823429e-04  -2.6420385e-04  -1.4018378e-04   1.6836434e-06  -9.4637688e-04  -6.1666343e-04  -1.3859959e-03  -2.5660929e-04   2.8020695e-05   2.9160589e-04  -6.7824137e-04   1.4885638e-03  -1.0035152e-03  -9.8564080e-04  -9.3377079e-04   1.9507064e-04  -8.2913968e-05  -6.4848183e-04  -1.9623623e-03   2.6348874e-04   4.2822052e-04  -5.1192433e-04  -7.6216224e-05  -1.3236164e-03  -5.2386080e-04  -7.8060068e-05  -3.6406593e-04  -9.6899847e-04   1.4692632e-04  -3.0174013e-04   6.8659671e-03   1.2616822e-04  -6.6944410e-04  -1.0145092e-03  -1.4518162e-03  -2.3584299e-02  -1.4291073e-03  -1.2390198e-03
   3.1217103e-04   8.1013990e-05   7.6433457e-04  -3.2725569e-05   4.9006165e-04   6.9732784e-04   9.3532953e-04   8.7773037e-04  -2.1248632e-03   1.5196070e-03  -5.0071510e-04   7.5063761e-04  -3.9769791e-04  -1.4040251e-04  -7.3503710e-05   2.0475156e-04  -1.0011535e-03  -6.0118386e-04  -1.9227789e-03  -4.7227292e-04   1.0510505e-03   1.1623109e-03  -1.9209347e-04   2.6761908e-03   7.9900422e-04  -9.7218086e-04  -9.5679722e-04   6.8091252e-04   1.1890965e-03  -5.3881413e-05   3.3559618e-04  -7.7754998e-04   4.8357080e-04  -8.5499787e-06   2.3419468e-04  -4.4968777e-04  -1.0040587e-04   3.1377599e-04  -2.4339999e-04  -5.2210712e-04  -9.3591417e-04   6.5028573e-05   2.0714032e-03   3.6713164e-04   3.2768882e-04  -6.9244183e-04  -1.2740768e-03  -4.9528056e-03  -7.7429984e-04  -9.0022670e-04
   6.2003575e-04   2.7545649e-04   5.9921399e-04   5.2994586e-05   4.9531163e-04   8.5205183e-04   2.5251391e-04   2.1973334e-04  -1.6055051e-03   1.4945661e-03  -3.0089382e-04   6.5425871e-04  -2.4178556e-04  -1.1961589e-04   5.9409078e-05  -1.7286341e-04  -1.0100185e-03  -4.0795933e-04  -3.3684005e-04   6.1588398e-05   9.1416616e-04   1.0327032e-03  -7.0800021e-04   1.6823324e-03   1.3747757e-04  -1.0295893e-03  -8.6826965e-04   8.8893139e-04   1.4100753e-03  -9.5036543e-05  -5.5227447e-03   1.2246206e-04   7.6745520e-04  -1.6402821e-04   2.1845705e-04  -5.5228134e-05  -1.2319937e-04   2.1430544e-04  -2.1557297e-04  -4.7751202e-04   3.1667107e-04  -9.6836811e-05   2.2045777e-03   1.5339906e-04  -1.0545189e-03  -9.7321527e-04  -1.3113628e-03  -1.1391941e-02  -1.1180693e-03  -1.0668896e-03
   1.7839059e-04  -2.8351624e-05   2.4287461e-05  -2.0917320e-04   2.9722383e-04   4.5806731e-04   2.1816228e-04   8.9169323e-04  -9.2573243e-04   1.1919523e-03  -5.9391599e-04   4.1409681e-04  -3.7524712e-04  -1.0366849e-04  -8.2139290e-05   1.6874229e-04  -1.0120185e-03  -4.7150656e-04  -9.1997511e-04  -2.0216180e-04   4.9538561e-04   6.8814843e-04   1.0820883e-04  -1.6687727e-03  -6.7567400e-04  -1.0984805e-03  -8.4197719e-04   4.6048374e-04   1.1934074e-04  -3.2935408e-04  -3.0591669e-03   4.5814455e-04   5.5210496e-04  -2.7943292e-04   8.2013532e-05  -5.7560357e-04  -1.5332476e-04  -3.1372128e-05  -5.3280074e-04  -1.6586250e-03  -1.9068510e-05  -1.7281424e-04   5.5478513e-03  -8.5712411e-05   1.1172620e-04  -1.5024268e-03  -1.5152394e-03   2.8002544e-03  -1.2152997e-03  -1.2845367e-03
  -2.3649390e-04  -5.0746987e-04  -3.2069723e-04  -5.6913856e-04  -7.2119947e-05   3.9241475e-04   3.2097794e-04   1.1037453e-03  -1.7784322e-03   6.7760824e-04  -7.9852797e-04  -5.7364468e-06  -4.3906839e-04  -1.5999548e-04   1.6878734e-06   3.7539507e-05  -8.3492114e-04  -5.3044659e-04  -1.3570985e-03  -8.7653048e-04   7.9100791e-06  -9.6669100e-06   2.2413991e-05  -8.9068862e-04   5.2206382e-05  -1.1632532e-03  -8.8511343e-04   1.9508091e-04   1.1090781e-03  -6.3112681e-04   1.7870903e-04   7.0597314e-05   1.0253033e-03  -4.8650443e-04  -1.1237892e-04  -8.8297384e-04  -1.9254275e-04  -1.5820080e-04  -8.4863621e-04  -1.0669844e-03  -2.8085953e-04  -2.8006290e-04   2.4049601e-03   8.3484665e-05  -2.7344836e-04  -1.6160210e-03  -1.4164806e-03   5.9669423e-03  -1.0476885e-03  -1.0732567e-03
   3.3022134e-04   1.4460152e-04   6.4297859e-04  -1.0766270e-05   6.4292288e-04   6.7737070e-04   5.7286408e-04   6.4700138e-04  -2.5792260e-04   1.4526231e-03  -2.7213359e-04   7.6974183e-04  -1.0668657e-04   5.6761739e-05  -1.1972152e-04   2.6869710e-04  -6.5594306e-04  -2.5866853e-04   8.3039507e-05  -1.9704066e-04   1.0090790e-03   9.8178233e-04   3.1259024e-04   1.6915200e-03   4.1689791e-04  -7.0690736e-04  -8.2563574e-04   4.6571408e-04  -4.2178499e-04  -1.2249881e-04   2.2521415e-03  -5.6249695e-04   2.0478132e-05  -1.1541000e-04   2.5421011e-04   7.1123497e-05  -3.8128273e-04   3.0885477e-04  -2.0876697e-04  -3.3098046e-04   3.1981894e-04   1.5426776e-05   7.3266979e-03   3.5439804e-04   3.4572498e-04  -9.5894706e-04  -1.2418542e-03   7.5635863e-03  -8.4775838e-04  -8.5496716e-04
   4.7294633e-04   2.9000669e-04   8.8990910e-04   7.3506511e-05   4.0606392e-04   6.4877234e-04   6.9381116e-04   9.0452103e-04  -6.6923647e-05   1.3676020e-03  -2.6036295e-04   5.2753516e-04  -5.7577774e-05   7.8675272e-05   8.5225465e-06   2.0906175e-04  -6.4365420e-04  -2.8013668e-04  -2.1017109e-04   4.9854285e-04   8.5888972e-04   8.1892632e-04  -1.1737499e-04   2.2833486e-04   6.4367865e-04  -6.5009034e-04  -8.1016700e-04   9.0139383e-04   1.0636899e-03  -1.9580268e-04  -1.1609753e-03   7.4727921e-04   5.3534535e-04  -3.1546329e-04   2.2166739e-04  -1.1839408e-04  -1.0299061e-04   2.1191222e-04  -4.4799026e-04  -9.1391971e-04  -3.2726981e-05  -2.6546908e-05   4.7872341e-03   1.9912199e-04  -2.8435889e-04  -1.1398150e-03  -1.4023811e-03  -9.8488980e-04  -1.0051512e-03  -1.0431657e-03
   8.5228887e-05  -1.1666740e-04   1.4798484e-04  -2.5561749e-04   4.3217727e-04   7.4920373e-04   1.2863865e-04   1.5669774e-03  -8.6665695e-04   9.0126490e-04  -3.9548118e-04   4.7131002e-04  -2.5146856e-04   5.1514464e-05   1.0274791e-04   8.4544627e-05  -6.3341483e-04  -4.8705217e-04  -3.6371307e-04  -1.2514981e-03   4.7236725e-04   5.5911276e-04  -5.8250257e-04   2.5101602e-03  -3.0887088e-05  -7.5582718e-04  -9.0512465e-04   6.1789568e-04   1.1297256e-03  -4.1943567e-04  -1.9131510e-03  -9.7555976e-04   1.0350188e-04  -9.5969132e-05   1.4458673e-05  -1.4145336e-03  -2.4279018e-04  -9.2016271e-05  -9.6639473e-04  -1.2702636e-03   9.2856813e-04  -2.6516218e-04   2.3937875e-03  -1.4418460e-04   3.2524392e-04  -1.8796383e-03  -1.7745801e-03   7.8974487e-03  -9.8390225e-04  -1.5636861e-03
  -4.4684179e-04  -5.5171247e-04  -2.7945603e-04  -6.7060994e-04  -4.2484992e-04   3.5450931e-04   2.7956790e-04   1.3492860e-04  -1.7014913e-03   4.2027773e-04  -9.2041155e-04  -3.2577707e-04  -4.2190473e-04  -5.4169570e-05  -1.4509287e-04   3.2285356e-05  -7.7449705e-04  -5.5442657e-04  -7.9248642e-04  -1.1592685e-03   2.8118922e-05   6.4099520e-05  -8.7652996e-04  -2.2956727e-03  -8.1444759e-04  -8.8083051e-04  -9.1611367e-04   6.7438814e-05  -3.2582899e-04  -7.3051086e-04  -2.9673902e-03  -1.1539776e-03   4.6293208e-04  -5.0691864e-04  -2.8906640e-04  -5.6953606e-04  -8.1482658e-04  -3.6488823e-04  -1.1976532e-03  -1.4356169e-03   1.8733221e-05  -4.7969195e-04   6.8145548e-03  -1.8404260e-04   1.0291560e-04  -2.0415848e-03  -1.6357385e-03  -2.3631476e-02  -1.0089944e-03  -1.0101699e-03
   2.4838874e-04   7.9326237e-06   2.5528777e-04  -2.0482804e-04   2.7429059e-04   4.8392848e-04   6.6543469e-04   4.5648903e-06  -1.0172774e-03   1.1074647e-03  -5.6314381e-04   3.5907177e-04  -3.1438738e-04  -6.2324012e-05  -1.0697443e-04   3.7274114e-04  -8.6705980e-04  -6.2538631e-04  -1.0222422e-04   1.0515756e-04   8.6108904e-04   6.2951521e-04   1.9987942e-04  -1.6434709e-04   6.3982868e-04  -8.1572251e-04  -9.2787255e-04   5.8118411e-04   3.1145534e-04  -2.8112702e-04  -4.9481675e-04  -3.8441046e-04   1.0665851e-03  -4.9772684e-04   8.6629312e-05  -7.9726591e-04  -2.9247749e-04   6.7341411e-05  -5.7613559e-04  -9.0630155e-04  -9.4731664e-04  -3.4176261e-04   1.6712502e-03   5.1141407e-05   3.9087721e-05  -1.3318839e-03  -1.5085061e-03   1.1046494e-03  -8.8593410e-04  -9.5442700e-04
   4.2902541e-04   4.9158996e-05   3.7866106e-04  -1.1009553e-04   5.0743134e-04   4.4891809e-04   5.0937285e-04   1.1804771e-05  -1.0733816e-04   1.0642811e-03  -4.7869678e-04   1.8144588e-04  -3.0524575e-04  -1.0496499e-04  -1.1464909e-05  -1.6647961e-04  -9.2821242e-04  -6.1169721e-04   6.9285079e-04  -3.0471131e-04   7.1209582e-04   7.2105409e-04  -1.1215118e-03   1.4554991e-03  -4.4053863e-04  -8.5075299e-04  -1.1354664e-03   2.3774079e-04   1.4739524e-04  -2.6763041e-04  -1.9476679e-03  -8.5569292e-05  -3.1760958e-04  -5.2589411e-04  -1.2814182e-05  -6.3726213e-04  -2.2661578e-04   7.7818673e-05  -4.4713932e-04  -1.1544544e-03  -2.0113271e-03  -3.8578318e-04   3.2392261e-03  -9.0965936e-05  -6.2161118e-05  -1.4098913e-03  -1.6184272e-03   4.3955250e-03  -1.0331960e-03  -1.1130298e-03
  -2.2070628e-04  -2.9714883e-04  -7.5572963e-05  -4.3267594e-04  -4.4219512e-05   3.1827440e-04   5.0097611e-04  -1.0942349e-04   4.9762946e-04   7.0853630e-04  -7.3897734e-04   4.2690586e-05  -5.0134136e-04  -2.3291561e-04  -3.0365682e-04  -6.6182058e-04  -1.1358078e-03  -9.2420587e-04  -2.1070198e-03  -5.1842921e-04   2.7755115e-04   5.4248545e-04  -7.5281446e-04  -2.5670277e-03  -5.9092738e-04  -1.2081568e-03  -1.2630844e-03  -1.5372192e-04   1.0717632e-03  -4.4361257e-04  -5.3950248e-04  -8.5957296e-04   7.2393887e-04  -7.4647734e-04  -2.7752316e-04  -1.2270609e-03  -5.6447880e-04  -1.1106970e-04  -7.7049976e-04  -1.1005948e-03  -1.0401470e-03  -5.7454512e-04   3.0186551e-03  -4.0975210e-04  -3.3937158e-05  -1.8544419e-03  -1.8178464e-03  -4.3160659e-03  -1.1177463e-03  -1.5747118e-03
  -5.4120034e-04  -6.8794028e-04  -6.9487240e-04  -7.7789550e-04  -2.0646269e-04  -6.6380009e-05   5.0663963e-05   3.5407746e-05  -1.2865127e-04   4.0746966e-04  -1.1158044e-03  -5.1590789e-04  -6.1691098e-04  -3.0195556e-04  -6.1514735e-04  -3.2630874e-04  -1.2507240e-03  -1.0692561e-03  -1.2034401e-03  -5.6556636e-04   6.1670784e-04   4.3320528e-04  -2.4162268e-04   3.1811616e-04  -9.6981367e-04  -1.0016626e-03  -1.3655731e-03   7.7467281e-05   2.2358817e-04  -3.1805644e-04  -5.4819491e-03   1.1351312e-04  -6.3442637e-04  -2.8282116e-04  -1.6703714e-04  -7.0219894e-04  -6.1102450e-04   2.6625750e-04  -5.5033551e-04  -1.0300769e-03  -6.8319938e-04  -4.3607218e-04   7.1456525e-03   8.1217795e-06  -1.1489732e-03  -1.5876895e-03  -1.4117120e-03  -3.4766199e-04  -7.8009540e-04  -8.8479341e-04
   4.0542232e-04   1.1537853e-04   7.5007987e-04  -1.0020162e-05   4.1680416e-04   5.8185344e-04   5.9712131e-04   1.9004310e-03  -3.8886912e-05   1.1717351e-03  -5.0238782e-04   3.9719680e-04  -3.5053308e-04  -2.9402028e-04  -2.7140282e-04  -3.1291190e-04  -1.1738065e-03  -1.1948100e-03   1.7101450e-03  -6.8132344e-05   8.7459804e-04   9.1762462e-04  -4.7242595e-04   1.3414650e-03  -9.6241175e-04  -1.0486568e-03  -1.3741553e-03   1.1553798e-04   7.0042697e-05  -8.6561391e-05   2.6935816e-04  -9.2297117e-04  -4.7347919e-04  -2.9531054e-04  -3.3175143e-05  -4.0063201e-04  -3.3534699e-04   3.1638195e-04  -6.7168869e-05  -8.0781715e-04  -5.1821256e-04  -3.4099128e-04   5.5192136e-03  -4.1887964e-05  -9.0526801e-04  -1.5818449e-03  -1.4498924e-03   2.2794618e-03  -1.0940389e-03  -8.7461178e-04
   2.0219240e-04  -2.9897132e-05   1.9392306e-04  -1.6856042e-04   4.9215782e-04   6.3262769e-04   3.4657150e-04  -1.7845072e-04  -1.5512770e-03   9.8419259e-04  -5.8981980e-04  -4.5552965e-06  -4.8087694e-04  -2.5538050e-04  -4.6708417e-04  -8.2935655e-04  -1.2377002e-03  -1.3893206e-03   5.7402474e-05  -3.8510066e-04   6.0096482e-04   4.3910756e-04  -7.2293810e-04   7.6556200e-04  -7.9844095e-04  -1.1280272e-03  -1.4307545e-03   1.7204914e-04   4.8121484e-04  -2.2921214e-04  -1.4873612e-03  -1.6994083e-03   1.6806310e-04  -3.8581504e-04  -2.8440097e-04  -8.0420577e-04  -3.6362986e-04   6.0727933e-05  -8.2253362e-04  -7.6519989e-04  -6.9850317e-04  -4.7448790e-04   1.4321838e-03  -2.2676228e-04  -1.4106459e-03  -1.8390410e-03  -1.6574685e-03   8.1207678e-03  -1.4407686e-03  -1.2788556e-03
  -4.1120269e-04  -3.5490887e-04  -2.5329107e-04  -5.2779837e-04  -9.7012926e-05   3.9069771e-04   2.4354612e-04   6.1918021e-04  -1.8122816e-04   6.5965031e-04  -9.6708938e-04  -3.4467506e-04  -5.8984256e-04  -3.7653453e-04  -6.6172733e-04  -4.5973607e-04  -1.2597076e-03  -1.2252340e-03  -1.2692176e-04   3.0473966e-04   2.0318224e-04   2.8921905e-04  -1.3158292e-03  -5.8760663e-05  -7.3428957e-05  -1.2848916e-03  -1.4458831e-03  -3.1980311e-05   1.2421611e-03  -4.5500751e-04  -1.7977816e-03  -3.5969377e-04   3.0099344e-04  -6.5301970e-04  -5.0253881e-04  -9.6332212e-04  -5.1295850e-04  -2.5722999e-04  -7.4112543e-04  -1.3906687e-03  -1.7289174e-03  -6.3343538e-04   2.6167356e-03  -6.0704642e-04   1.1867249e-03  -2.0549605e-03  -1.9605525e-03  -1.3214711e-04  -1.4385721e-03  -1.5093478e-03
  -6.4634148e-04  -7.4276881e-04  -8.7791028e-05  -5.7570176e-04   1.4659970e-04   4.4452195e-04   4.8187558e-04   6.7624223e-04   8.7438739e-04   1.0995429e-03  -8.0397807e-04   4.1747157e-04  -5.0736190e-04  -3.9167859e-04  -5.8156671e-04  -6.9986848e-04  -1.3643125e-03  -1.2829170e-03   1.3029805e-04  -6.7348778e-04   9.5893064e-04   9.3141984e-04  -2.9651012e-04   5.0060888e-04  -7.3821418e-04  -1.2354372e-03  -1.4971412e-03  -1.5547618e-04   1.1260703e-04  -5.9281007e-05  -1.4207187e-03  -6.6909281e-04   1.7233974e-04  -3.4157539e-04  -1.9342407e-04  -9.7780903e-05  -1.8300205e-04   3.9820574e-04  -1.5004794e-04  -6.6591427e-04  -5.0246209e-04  -3.7384362e-04   4.2517716e-03   5.5932687e-05  -6.7710504e-04  -1.4829304e-03  -1.1660211e-03  -4.2538559e-03  -5.7215936e-04  -7.9776690e-04
   4.4204301e-04   2.8158390e-04   4.4352267e-04   6.6019100e-05   5.9088139e-04   8.8827050e-04   8.8544667e-04   8.5874705e-04  -6.1355846e-04   1.4452637e-03  -5.1549001e-04   6.0999993e-04  -4.2617234e-04  -3.3306019e-04  -5.5271835e-04  -4.3838413e-04  -1.1982482e-03  -1.2813940e-03  -2.7248944e-04  -3.2244506e-04   1.1186111e-03   9.6752791e-04  -1.0466274e-03   2.2124778e-03  -1.9630976e-03  -1.2227502e-03  -1.4622288e-03  -1.4959113e-05   1.5022444e-03   1.0181328e-04  -3.3931625e-03  -1.0117100e-03   5.6469959e-04  -1.7877168e-04  -9.7178490e-05  -1.0383507e-03  -3.8728460e-05   4.3847846e-04  -2.9054389e-04  -7.0815469e-04  -4.9631944e-04  -3.0612783e-04   6.4198435e-03   1.8704626e-04  -1.1073591e-03  -1.4881929e-03  -1.1823588e-03   7.6787006e-03  -8.8552129e-04  -9.1272354e-04
   3.2604637e-04   1.3711645e-04   5.2934524e-04  -5.1761832e-05   4.4245092e-04   6.5148872e-04   4.9342710e-04  -3.6048191e-04  -6.8853120e-04   1.1759182e-03  -6.1081973e-04   1.7560240e-04  -3.8909682e-04  -3.6898314e-04  -5.3159840e-04  -3.4189763e-04  -1.2666428e-03  -1.1199928e-03  -1.8982557e-03  -2.9053004e-04   7.8217301e-04   8.0925174e-04  -1.0926165e-03   2.6822306e-04  -2.0663082e-03  -1.2486023e-03  -1.4535337e-03   1.3720576e-04   9.1630185e-04  -6.9354770e-05   3.4686329e-04  -1.8917923e-04  -9.8488282e-04  -4.4121823e-04  -2.3684750e-04  -6.0524122e-04  -5.5174914e-04   1.2512876e-04  -4.7515344e-04  -3.5599738e-04  -3.9547510e-04  -3.3627750e-04   4.7184275e-03  -9.2764152e-05  -6.4319099e-04  -1.1264998e-03  -1.3373741e-03  -9.6353851e-03  -7.9262746e-04  -1.1241226e-03
  -1.9512959e-04  -2.4554264e-04  -2.5198972e-04  -3.7296576e-04   1.9149516e-05   5.7971856e-04   4.1115741e-04   7.2951830e-04  -5.2725471e-04   7.4864959e-04  -8.2871527e-04   5.1956784e-05  -5.0441897e-04  -4.0090884e-04  -6.1587116e-04  -6.7301316e-04  -1.2119017e-03  -1.3620794e-03  -2.3018470e-04  -8.7481417e-04   3.5217794e-04   4.2746935e-04  -1.0553243e-03  -1.4549750e-04  -5.8528106e-04  -1.2920696e-03  -1.5213842e-03  -2.6525964e-04   8.5389300e-04  -3.0464289e-04  -2.4372449e-03  -1.1923454e-03  -1.1997207e-04  -2.2862702e-04  -5.9170712e-04  -3.5803748e-04  -7.0530374e-04  -1.3602267e-04  -7.8577822e-04  -1.1986917e-03  -2.7633808e-04  -6.9645187e-04   4.0955702e-03  -5.0848012e-04  -1.3388054e-03  -1.8632544e-03  -1.6599274e-03   4.1104527e-03  -1.2752467e-03  -1.4047700e-03
  -3.9890729e-04  -4.8825314e-04   2.3531754e-04  -3.4303285e-04   2.3839722e-05   5.6926283e-04   4.6233527e-04   4.4086980e-04  -1.5264351e-03   1.2783194e-03  -6.8670028e-04   3.4949669e-04  -5.8820151e-04  -4.2172722e-04  -4.4939644e-04  -4.6451160e-04  -1.2475768e-03  -1.2323636e-03   7.7353371e-04  -3.3423284e-04   1.0651507e-03   8.9044432e-04  -5.9545063e-04   1.2658266e-03  -7.6652830e-04  -1.2042586e-03  -1.4612799e-03   5.4196844e-05   9.8862685e-04   6.5303204e-05  -2.0076532e-03  -1.2889268e-03  -9.1644627e-04  -1.9375044e-04  -1.2704536e-04  -9.1850711e-04  -3.2810401e-04   4.2350017e-04   2.1246775e-05  -3.1577121e-04  -1.4531201e-04  -5.6742869e-05   4.8649888e-03   1.8028393e-04   4.4442124e-05  -1.1592732e-03  -8.8013441e-04  -3.3304194e-04  -7.9994177e-04  -8.3549612e-04
   5.0084695e-04   3.5480503e-04   8.4131514e-04   1.4805884e-04   5.4083171e-04   7.8026397e-04   6.5846357e-04   1.3044990e-04  -6.8917283e-04   1.5455035e-03  -3.1807981e-04   7.9077500e-04  -3.1762171e-04  -2.5844271e-04  -6.7472225e-04  -5.6770880e-04  -1.0033179e-03  -1.2542929e-03  -1.2437832e-03  -1.3615080e-04   1.1758246e-03   9.7280089e-04  -4.6970218e-04   1.0872078e-03   3.0952279e-04  -1.1248927e-03  -1.3110150e-03   5.1329110e-04   1.0199187e-03   1.3183375e-04  -8.7449927e-04  -7.3783868e-04  -3.6561568e-04  -2.0927485e-04  -7.9867241e-05   3.9197886e-04   1.8207847e-04   3.5161295e-04  -2.4017495e-04  -4.6810237e-04  -9.9777280e-05  -3.9309121e-05   2.3030636e-03   9.2240871e-06  -2.8368147e-04  -1.4368563e-03  -8.8155194e-04   7.7329605e-04  -4.9484230e-04  -7.1510184e-04
   2.9974981e-04   2.0880235e-04   2.5709256e-04  -3.2883967e-05   4.6604374e-04   9.1113546e-04   6.9771183e-04   1.8381103e-04  -1.4831329e-03   1.1165513e-03  -3.9853872e-04   4.4174035e-04  -2.5869187e-04  -1.2789620e-04  -4.9584417e-04  -1.1821449e-04  -8.3180179e-04  -8.2420791e-04  -1.7250858e-03  -3.8435729e-04   7.0755836e-04   6.6406751e-04  -8.8207965e-04  -5.6723179e-04  -2.0627256e-03  -1.0078353e-03  -1.2053270e-03   6.5295884e-05   9.2336710e-04  -1.5775679e-04  -2.2645176e-03  -1.2431343e-03   7.2062467e-05  -5.7091325e-04  -2.5526053e-04  -3.1786537e-04  -3.7956069e-04   8.5770271e-06  -6.6083309e-04  -1.0242723e-03  -1.5036918e-03  -2.9872070e-04  -1.3340177e-03  -2.4167993e-04   3.7674673e-04  -1.1078086e-03  -1.1598939e-03   1.5589917e-03  -9.9958491e-04  -1.0322829e-03
  -2.4976823e-04  -2.2513865e-04   4.0711744e-05  -4.0385354e-04   1.0178622e-04   6.1527884e-04   1.7530534e-04   1.6332598e-04   4.9149478e-04   6.0826319e-04  -7.9450582e-04   1.7424481e-04  -4.7042736e-04  -2.2567247e-04  -6.1121100e-04  -5.3178932e-04  -7.5133558e-04  -8.5792603e-04  -9.2939317e-04  -3.1590866e-04   2.6807704e-04   2.5532249e-04  -7.2246185e-04   8.7896717e-04  -7.1104115e-04  -1.0973815e-03  -1.3003171e-03  -3.1201294e-04   2.8552269e-04  -4.4537958e-04   9.3940434e-05  -1.1986347e-03  -1.2969518e-03  -8.0211641e-04  -5.3003611e-04  -7.2261231e-04  -6.5270328e-04  -2.7010607e-04  -9.9201151e-04  -1.2338439e-03  -7.7467842e-04  -5.9012312e-04   4.2978600e-03  -5.7186105e-04   9.8704081e-04  -2.1436107e-03  -1.5582442e-03   1.6434865e-02  -1.1147002e-03  -1.4090403e-03
  -5.9383578e-04  -7.5200270e-04  -5.8394286e-04  -6.2118645e-04  -4.7000780e-05   3.2738288e-04  -2.2289003e-05   3.1525467e-04  -2.1994303e-04   8.9304644e-04  -7.2248303e-04   1.4573656e-04  -4.1770400e-04  -2.8103939e-04  -5.9561775e-04  -5.2546366e-04  -8.5516571e-04  -9.9210965e-04   8.5792941e-04   5.9071148e-04   9.0322504e-04   7.4017339e-04  -7.2706968e-04   8.9664030e-04  -8.1220554e-04  -8.5607154e-04  -1.3949269e-03  -2.1295837e-05   8.7306224e-04  -1.3280008e-04   1.1359229e-03  -1.3124668e-03  -8.5922751e-05  -2.0308144e-04  -1.9756943e-04  -5.9103809e-04  -1.6578363e-04   3.2604835e-04  -2.1541433e-04  -6.7098706e-04  -1.2618231e-03  -3.7381999e-04   8.1118438e-03   1.3348791e-04   1.8893091e-04  -1.1961280e-03  -1.0039157e-03   3.7504653e-03  -3.7198709e-04  -7.2153215e-04
   4.3835895e-04   1.9799196e-04   6.3438690e-04   1.8416726e-05   5.7131500e-04   7.4794982e-04   6.9067749e-04   4.6729972e-04  -9.4526832e-04   1.1512877e-03  -4.4089480e-04   5.4975209e-04  -1.6602033e-04  -2.2582508e-04  -3.7618252e-04  -1.8556978e-04  -8.3739881e-04  -1.1461509e-03   8.3227077e-04  -2.5323848e-04   9.8224031e-04   1.0775058e-03   3.0380467e-04   2.0342474e-03  -1.1214275e-03  -7.4062316e-04  -1.3130988e-03  -4.4129811e-05   5.7226967e-04   1.6212432e-05  -4.3682437e-04  -9.8871184e-04  -3.5586223e-04  -3.7524535e-04  -1.7363008e-04  -4.9572601e-04  -6.9532689e-04   3.1738583e-04  -2.5016617e-04  -1.0129440e-04  -1.2801564e-03  -5.0044601e-04   2.4240920e-03  -1.9553663e-05  -1.8468109e-04  -1.7706886e-03  -1.0919182e-03  -8.8529603e-05  -9.7457453e-04  -7.2678231e-04
   2.6587304e-04   1.4447232e-04   2.5246205e-04  -9.2580223e-05   2.2045073e-04   6.9445837e-04   6.8266405e-04   3.4752782e-04  -6.0519564e-04   8.9750381e-04  -6.7398878e-04   1.9850596e-04  -2.6910141e-04  -2.1387293e-04  -5.6133873e-04  -5.3324713e-04  -8.4872381e-04  -8.9749135e-04  -1.7251625e-03  -2.6519914e-04   6.6964125e-04   5.8787287e-04  -3.8666639e-04  -9.9969783e-04  -1.6137958e-04  -9.8111329e-04  -1.4062689e-03  -3.3546130e-05   5.6154520e-04  -1.2492886e-04  -2.2411162e-03   3.3586705e-04   5.6303805e-04  -2.0715829e-04  -2.4825957e-04   1.4129361e-04  -5.4595078e-04   1.0113144e-04  -7.3880964e-04  -1.0869880e-03  -8.0007245e-04  -4.0987536e-04   6.8505402e-03  -1.7188897e-04   6.0343673e-04  -1.4813162e-03  -1.2628370e-03  -5.3374302e-03  -9.6769683e-04  -9.7561441e-04
  -1.5999914e-04  -1.8473571e-04  -1.0048335e-04  -3.4561090e-04  -1.0289370e-04   5.6161132e-04   3.1364264e-04  -3.3952584e-04  -3.9538069e-04   5.3789944e-04  -8.3601393e-04  -2.2738820e-04  -4.4110030e-04  -2.8337861e-04  -6.1209401e-04  -4.3849123e-04  -9.2851813e-04  -1.1584378e-03  -2.6592074e-04  -1.3010472e-03   3.1445539e-04   3.4719074e-04  -1.1259838e-03  -1.3043318e-04  -8.5944886e-04  -9.9628640e-04  -1.4895294e-03  -2.0685955e-04   8.9041016e-04  -3.1528692e-04  -2.2094033e-03  -1.6993014e-03  -6.5586582e-04  -5.6508323e-04  -3.7678287e-04  -7.2733907e-04  -7.7305280e-04   1.0606624e-04  -3.3695283e-04  -1.2086460e-03  -9.4262842e-04  -3.1901663e-04   5.7875076e-03   1.9483814e-04   8.8131678e-04  -1.7687615e-03  -1.0575419e-03   7.0414743e-03  -8.9708698e-04  -5.7185837e-04
   4.9651251e-04   3.5709681e-04   6.4831675e-04   2.0210727e-04   7.7432580e-04   7.8425795e-04   8.9570141e-04   1.0367195e-04   2.4109271e-04   1.2431330e-03  -4.6029018e-04   6.4640632e-04  -2.0812052e-04  -2.5422510e-04  -6.8123487e-04  -4.0265973e-04  -9.3483535e-04  -1.0282039e-03  -4.8906048e-04   2.5069655e-04   1.1035441e-03   1.1739298e-03  -1.9291836e-04  -1.2432314e-03  -6.6842971e-04  -8.4355188e-04  -1.4276179e-03   7.6323398e-05   5.2192766e-04   1.3521480e-04  -3.5147131e-03   4.7980057e-04   1.4007422e-04  -8.8682129e-05  -8.6095199e-05  -1.2019282e-04  -3.5503128e-04   4.8332734e-04   3.3974941e-04  -2.4706291e-04  -1.2087491e-03  -2.4132685e-04   4.3860567e-04   2.8021913e-04  -1.1764436e-03  -6.6336407e-04  -9.6860394e-04  -1.7110139e-02  -5.2513648e-04  -4.8740560e-04
   5.8065681e-04   5.1576190e-04   8.6640276e-04   2.9907475e-04   6.5097469e-04   1.1514851e-03   8.5791602e-04   5.9888826e-04   2.1082124e-04   1.1891769e-03  -2.8297468e-04   6.9774338e-04  -2.5443285e-04  -2.0425399e-04  -6.1089173e-04  -2.3025135e-04  -9.0953097e-04  -1.4104604e-03  -5.8919011e-04  -2.1063810e-04   1.0181195e-03   8.9954521e-04  -5.8060611e-04  -1.2688913e-03  -3.1223625e-04  -7.5680739e-04  -1.4758628e-03   1.3460893e-04   5.4014457e-04   1.6332734e-04  -1.3354259e-03  -1.4856132e-03  -1.5300755e-04  -2.3002566e-04  -1.0695743e-04  -1.2811979e-04  -9.1824273e-05   5.0836202e-04  -5.5782035e-05  -7.0937246e-04  -5.2900281e-04  -3.4803496e-04   6.2838220e-03   1.5248530e-04   1.5283152e-04  -8.9602795e-04  -1.1153514e-03  -3.0010653e-04  -9.6343458e-04  -6.8898191e-04
   3.1059582e-04   1.8502800e-04   2.1817914e-04   4.2369044e-05   6.3346856e-04   6.7743310e-04   8.0606277e-04   1.1927759e-04   1.2567667e-04   8.3912077e-04  -5.9919019e-04   6.3605985e-04  -3.0761515e-04  -2.4183397e-04  -6.3354528e-04  -3.7414738e-04  -9.5792761e-04  -1.0865880e-03   1.6045674e-04   3.8971825e-04   6.5267796e-04   6.3439109e-04  -3.5911074e-04   6.7661068e-04  -4.6845747e-04  -7.5547397e-04  -1.4393965e-03  -1.7273916e-04   6.0614996e-04  -2.0602971e-05  -9.9462387e-04   2.3069656e-04   4.4564903e-04  -2.1997429e-04  -1.5438875e-04  -2.2960853e-04  -9.6500138e-05   2.3779779e-04  -2.1009021e-04  -8.1867346e-04  -4.3055424e-04  -2.9593564e-04   1.5121133e-03  -3.3564051e-05  -2.3705172e-03  -9.9007052e-04  -1.2303890e-03  -1.0082593e-02  -8.1516610e-04  -7.2807237e-04
   3.7242344e-04   2.3320212e-04   1.0043019e-03   2.3346019e-04   5.5020436e-04   1.1010965e-03   1.2567608e-03   2.0369313e-04  -1.7913391e-03   1.2907108e-03  -3.2341963e-04   7.5953384e-04  -1.5815187e-04  -2.0949804e-04  -5.9388089e-04  -5.2683020e-04  -9.8290248e-04  -8.8725577e-04   1.5119743e-03   3.2548368e-04   1.3273349e-03   1.2644330e-03  -3.0967346e-04   1.2482399e-03  -3.7121944e-04  -6.5046537e-04  -1.4557235e-03   1.0282495e-04   3.6638495e-04   3.6481908e-04  -8.2092755e-04  -3.6876468e-04   1.4369192e-03   1.9529197e-04   3.5759385e-04  -3.6715661e-04   1.0866731e-04   9.2224812e-04   3.8486862e-04  -2.0089824e-04   1.2954378e-04   1.0313489e-04   1.0706672e-02   5.3618249e-04   2.9893412e-04  -7.9915317e-04  -5.8275135e-04   2.4859961e-03  -5.8023509e-04  -4.9560640e-05
   1.1240653e-03   9.4643404e-04   9.6610677e-04   7.1709824e-04   9.8905968e-04   1.4484110e-03   1.4345199e-03   1.0463624e-03  -1.5188140e-04   1.5743946e-03  -2.5974334e-05   1.0791590e-03   1.8993615e-05  -1.4417568e-04  -5.8820989e-04  -2.9395218e-04  -9.7254111e-04  -1.0656464e-03   6.8443344e-04   2.8643080e-05   1.4111417e-03   1.4890503e-03  -2.3821704e-04   2.4082053e-03  -1.5167805e-03  -5.5150688e-04  -1.4304946e-03   4.0620140e-04   1.0275244e-03   4.8045060e-04  -2.0615014e-03  -1.1254227e-03   3.2641712e-04   2.0673028e-04   2.5446233e-04   8.6642358e-05   5.9056300e-04   8.6208334e-04   1.1243228e-04   3.4229970e-04   4.7112000e-04   1.0122130e-04   5.6208312e-03   5.2625337e-04  -2.1302766e-04  -3.1706181e-04  -5.8688939e-04  -3.5192277e-03  -4.8187841e-04  -2.5141123e-04
   8.3662546e-04   7.9364248e-04   1.1095416e-03   4.9644423e-04   1.0934904e-03   1.2896071e-03   1.1857194e-03   9.8534033e-04   5.2195002e-04   1.2493362e-03  -2.0512895e-04   7.3144917e-04  -1.0140667e-04  -8.9720023e-05  -3.9605176e-04  -4.1330044e-04  -8.6742174e-04  -6.4634945e-04  -6.5303518e-04   6.8230979e-04   1.0277962e-03   9.7962073e-04  -9.6244051e-04   1.3862969e-03  -2.8472469e-04  -7.4219424e-04  -1.3276818e-03   2.2697345e-04   8.5545029e-04   3.1098127e-04  -1.3415237e-03  -6.0161174e-04   6.7809771e-04   4.1609505e-04   1.6356701e-04  -3.2467779e-07   8.6878346e-05   6.5069745e-04   1.6520961e-04  -4.0856712e-06  -4.0903575e-05   1.9479450e-05   4.3569282e-03   3.0099065e-04  -8.8940456e-04  -3.4103767e-04  -7.2996347e-04  -1.1018347e-02  -5.7169568e-04  -3.8185297e-04
   3.6889600e-04   3.8765924e-04   2.4720532e-04   2.3934802e-04   9.0138934e-04   9.0523146e-04   9.3660370e-04   5.2236818e-04   2.5378188e-04   9.2522817e-04  -4.3532517e-04   1.4002518e-04  -2.5020560e-04  -1.3129001e-04  -4.7029278e-04  -2.5687538e-04  -8.1927789e-04  -9.5164956e-04   5.3214037e-04  -1.8615119e-05   5.6650367e-04   5.2953279e-04  -9.3780609e-04   5.2816231e-05  -1.4635741e-03  -8.5682108e-04  -1.3042521e-03   5.8415091e-05   1.2092091e-03   2.3665067e-05  -1.4906567e-04  -4.1249215e-05   6.9253787e-05  -6.8845686e-05  -5.3253996e-05  -2.0485504e-04  -7.5467506e-05   3.1973113e-04  -1.3832567e-04  -5.8050849e-04   1.1199476e-03  -1.0711298e-04  -1.3673049e-03   1.6166292e-04   1.8999077e-03  -1.3367976e-03  -9.2673372e-04  -1.6595572e-02  -9.0392603e-04  -7.6628732e-04
   5.7229592e-04   5.0150469e-04   8.5378956e-04   4.4639755e-04   7.3382031e-04   1.1885519e-03   1.2319059e-03   2.0754347e-03  -5.4088654e-04   1.4549586e-03  -1.2338813e-04   9.7485888e-04  -1.3604689e-04  -1.1587793e-04  -6.1162445e-04  -1.8624165e-04  -8.4977801e-04  -7.9356693e-04   3.9898074e-04   2.9287094e-04   1.3140503e-03   1.2951239e-03  -5.7666749e-04   1.5467631e-03  -6.3078280e-04  -5.2443304e-04  -1.3244661e-03  -2.1884355e-04   1.0147585e-03   4.8666925e-04  -2.3317451e-03  -7.0605945e-04  -1.1627262e-04   1.4164795e-04   4.6074486e-04   1.1134151e-04   4.8503483e-04   1.1792721e-03   5.6169688e-04   8.1491971e-04   6.0084107e-04   6.1351125e-04   3.8951905e-03   9.0505916e-04   1.4991037e-03   1.2758483e-04  -3.4393821e-04  -6.2418412e-03  -1.2032286e-04   3.5879715e-05
   1.3304545e-03   1.1671890e-03   1.3043667e-03   9.9306053e-04   9.4301678e-04   1.3485558e-03   9.9402678e-04   9.5816411e-04   8.2927983e-04   1.7040438e-03   2.6644074e-04   1.1276974e-03   3.4136134e-05   6.8423683e-06  -2.5430619e-04  -8.8687731e-05  -7.9786940e-04  -1.0005746e-03  -1.2926243e-03   1.0540248e-03   1.5332778e-03   1.5558691e-03  -1.6887201e-04   1.8153396e-03   1.7312396e-04  -2.5001584e-04  -1.2824127e-03   6.0743518e-04   2.0936495e-03   6.3726888e-04  -2.4519321e-03  -3.4594737e-04   1.7652269e-03   7.0210756e-04   5.4906303e-04   1.8246983e-03   1.3241198e-04   1.1298294e-03   4.0426952e-04   5.8512919e-04   1.1844769e-03   4.4240948e-04   7.1839453e-03   6.2471465e-04  -3.8054041e-04  -4.6128713e-04  -4.0966921e-04   1.5411613e-03  -2.7929372e-04   5.0867811e-06
   1.1520195e-03   9.1414171e-04   8.4619515e-04   7.5747457e-04   1.3953247e-03   1.4540608e-03   1.2220391e-03   1.1495702e-03  -2.6807634e-04   1.3577086e-03  -9.7524986e-05   7.6862652e-04   2.2244134e-05   8.6190608e-05  -4.5681247e-04  -1.7287301e-04  -5.5779604e-04  -8.0271513e-04   7.4471318e-04   1.0750608e-03   1.0957392e-03   1.0087856e-03  -1.0198182e-04   1.5023290e-03  -6.0181919e-04  -3.3263781e-04  -1.2376826e-03   5.7384261e-04   2.3487234e-03   3.4870411e-04  -2.1377725e-03  -6.3398998e-05   1.7336122e-04   3.2347935e-04   2.7887448e-04   4.4022285e-04  -5.4740529e-05   7.3170936e-04   3.7875609e-04   2.4233441e-04  -4.5173237e-04   4.8257052e-06   2.4345010e-03   3.6512743e-04  -1.1268222e-04  -7.4860576e-04  -6.5796723e-04   7.3070931e-03  -6.1778224e-04  -1.5033322e-04
   5.7593919e-04   3.9918860e-04   4.4141649e-04   3.9022166e-04   2.6366737e-04   9.0789382e-04   1.0781762e-03  -5.0916653e-05  -3.6523407e-04   8.3311665e-04  -2.1606898e-04   3.2385415e-04  -1.5356176e-04   5.1608433e-05  -2.5459271e-04  -1.0851956e-04  -4.7520339e-04  -6.2596815e-04   1.1766519e-03  -6.6423177e-05   6.2385527e-04   7.3564402e-04  -1.5064215e-05  -2.6607243e-04  -4.9387041e-04  -4.6695158e-04  -1.2952538e-03   5.3686988e-05   1.3443790e-03   3.9597649e-05  -1.6722295e-03   7.1244076e-04  -5.8422887e-05   1.2599304e-04   1.0335148e-04  -6.2520114e-05  -2.8603739e-04   4.4013985e-04  -4.4297174e-04  -2.8029142e-04  -4.1031072e-04  -1.6557606e-04   7.5569036e-03   1.8282379e-04  -3.2219308e-04  -6.6175387e-04  -1.1285789e-03   7.1839262e-03  -9.0872427e-04  -5.9287209e-04
   1.7505798e-04  -1.0810843e-04   2.3978896e-04   1.1760971e-04   7.2202901e-04   9.3714683e-04   9.4936538e-04   2.8263990e-04   3.4307333e-04   1.2275582e-03  -3.7274518e-04   7.0982787e-04  -2.1206067e-04  -3.3477929e-05  -5.1883201e-04  -2.3134711e-04  -5.1726331e-04  -9.4409991e-04   1.4583865e-03  -1.4191339e-04   1.1621061e-03   1.2047868e-03  -1.7197478e-04   1.7059642e-03  -8.3481870e-04  -3.1851945e-04  -1.3257659e-03   4.1881224e-04   1.0863816e-03   3.4466421e-04   1.0559615e-03  -2.1852525e-04   6.4469757e-04   5.7447096e-04   3.0096207e-04   4.0816714e-04   6.6581706e-05   8.5730676e-04   2.3153867e-04   6.4406249e-06  -5.1534276e-05   1.7258301e-04   7.7313213e-03   5.6394289e-04   3.0767437e-04   6.1660736e-05  -3.9222481e-04   1.5739735e-02  -3.5758372e-04   7.9156351e-05
   9.6227514e-04   8.3154649e-04   1.1117978e-03   7.3000102e-04   8.3365105e-04   1.3624837e-03   1.3633100e-03   8.6844154e-04  -1.4050305e-03   1.4976305e-03   7.9679405e-05   8.6421898e-04  -5.3999942e-05   7.3187381e-05  -3.4770145e-04  -8.5657732e-05  -5.4199505e-04  -8.2249782e-04   1.1289014e-03   1.2735405e-03   1.2672443e-03   1.4305917e-03  -4.3882785e-04   1.8448556e-03  -5.7258090e-04  -3.1186861e-04  -1.3299736e-03   3.1115246e-04   1.7851359e-03   4.4706746e-04   5.5848890e-05   1.4571852e-05   9.7301189e-04   4.4360227e-04   2.6524297e-04   1.7100728e-04   1.5657053e-04   8.7726035e-04   4.1838412e-04   1.0455717e-05  -5.0513312e-04   9.5334421e-05   6.7935064e-03   5.5097439e-04  -8.2126132e-04  -5.1419705e-04  -4.4184882e-04   6.3945237e-03  -3.3385586e-04   1.8539351e-05
   7.6731847e-04   7.2191819e-04   6.9169345e-04   5.4026616e-04   8.0918195e-04   1.2770980e-03   1.4419854e-03   4.4094755e-05   3.9442818e-04   1.1349332e-03  -8.2111299e-05   5.0605927e-04  -1.4631235e-04   1.7143264e-05  -4.2915778e-04  -1.5060886e-04  -4.9365649e-04  -5.7268678e-04   2.4985806e-03   2.5838896e-04   9.0785936e-04   9.2609331e-04   6.3766383e-05   1.5597898e-03  -1.0737422e-04  -4.7856494e-04  -1.2453806e-03   3.3516317e-04   8.1252097e-04   2.4393157e-04  -1.9848475e-04   5.6945666e-04  -6.6082645e-04  -3.7719252e-05   9.8183511e-05  -1.1107579e-04  -2.9524742e-04   6.2172394e-04   1.8311538e-04  -1.8770059e-04  -7.5785787e-04   6.4337211e-05   1.6515874e-03   2.1985358e-04   1.4917193e-03  -9.5210556e-04  -7.2127831e-04  -4.1864458e-03  -3.9489826e-04  -4.7124515e-04
   4.2762337e-04   3.2418329e-04   4.7335410e-04   1.8837041e-04   1.2325350e-04   8.6998421e-04   6.7397987e-04   4.5198310e-04   8.1543432e-05   8.1367395e-04  -4.0555335e-04   1.7593453e-04  -1.8326819e-04  -5.4833490e-05  -5.9293443e-04  -5.8962859e-04  -6.3624291e-04  -9.0151420e-04  -1.0507614e-03   1.3368594e-04   5.4619409e-04   6.7577465e-04  -2.6059037e-04  -3.4062020e-04  -9.6118799e-04  -6.1231438e-04  -1.3161700e-03  -6.3806481e-05   1.6632931e-04  -3.4885168e-05   7.2282029e-04  -7.2566349e-05  -5.3953339e-04  -9.0420785e-05  -2.0803633e-04  -9.3430252e-04   6.8161193e-05   2.5717172e-04  -3.1539061e-04   2.6479309e-05  -1.4204708e-03  -1.9119459e-04   1.5382374e-03  -3.5994301e-05  -1.1517525e-03  -7.4740744e-04  -9.3652826e-04   5.2953386e-03  -4.7997292e-04  -4.9442356e-04
   1.9979742e-04   1.4172382e-04   3.7617213e-04   2.4124907e-04   4.1436590e-04   1.1329678e-03   9.2645723e-04   1.3306603e-04  -2.0695854e-05   1.1718012e-03  -3.1302002e-04   4.2976328e-04  -2.7528848e-04  -1.2834405e-04  -4.6781229e-04  -3.5944936e-04  -8.4263837e-04  -1.1082877e-03   2.1305573e-04   5.1198801e-04   1.1316200e-03   9.5966546e-04  -1.0259269e-04   3.6361489e-05  -1.1111579e-03  -5.8614078e-04  -1.3661267e-03   2.4865899e-04   7.2154152e-04   2.3730594e-04   5.8646523e-04  -7.6681940e-04   3.3837816e-04   3.8076818e-04   7.0651702e-05   1.7765501e-04  -1.6086566e-04   7.0808060e-04   6.0490047e-04  -1.9015581e-04   7.9959637e-04  -4.2894775e-05   8.8758506e-03   3.4917815e-04   9.8368397e-04  -4.6765793e-04  -3.5919121e-04  -2.4346814e-03  -9.2282477e-05  -2.0429697e-04
   7.9369429e-04   6.9403887e-04   1.1466625e-03   5.6250358e-04   1.1731007e-03   8.9245214e-04   1.2882709e-03   1.0199778e-03   3.8367161e-04   1.3034933e-03  -8.3380095e-05   8.7807950e-04  -1.6129208e-04  -1.9736907e-04  -4.6081396e-04  -4.3902648e-04  -9.0953091e-04  -1.1073292e-03   9.3350466e-04   5.8771612e-04   1.1721241e-03   1.0826215e-03  -9.1825437e-04   4.9028039e-04  -8.9825923e-04  -6.1598269e-04  -1.4295690e-03   1.8182115e-04   1.2563310e-04   2.7362234e-04   4.3789867e-05  -3.8639471e-05   2.2411307e-04  -6.3639229e-05   2.8161952e-05  -4.1588393e-04  -1.3195894e-04   6.3172547e-04   1.0523878e-05   1.0908626e-04   1.4628773e-04   5.5003920e-06   1.4450824e-03   3.7835671e-05   3.9787582e-04  -4.9327861e-04  -3.8968062e-04  -5.2863224e-03  -2.5472682e-05  -8.9889210e-05
   5.2246539e-04   4.8518076e-04   5.3796457e-04   3.2198330e-04   3.6992287e-04   1.1341020e-03   1.0182193e-03   1.5827253e-03   1.5128083e-03   9.8776619e-04  -2.9527888e-04   4.3838882e-04  -3.2291148e-04  -1.7604472e-04  -4.7365244e-04  -6.2410755e-04  -7.7818055e-04  -9.2069467e-04  -1.0970143e-03  -2.7726140e-04   7.7649095e-04   6.8263849e-04  -7.6817343e-04   7.3491980e-04  -7.5066136e-04  -7.6688576e-04  -1.2750743e-03  -4.2072320e-04   1.2523100e-03  -1.4642505e-05  -1.1261778e-03  -1.6889986e-04   9.1272825e-04  -2.2536257e-04  -2.3870543e-04   2.1676984e-04  -4.5495958e-04   2.2435014e-04  -1.6925950e-04  -2.0773929e-04  -1.0569239e-04  -1.1049449e-05   1.3797085e-03  -1.8278333e-04   9.9335460e-04  -1.2774190e-03  -5.6217541e-04  -3.0982823e-03  -2.7200705e-04  -5.0268520e-04
   1.8358268e-04   3.4849163e-05   1.8586656e-04  -1.0329481e-04   2.7857898e-04   5.3832209e-04   5.1759096e-04   2.6117757e-04  -4.2607385e-04   5.5295008e-04  -6.0335064e-04   5.5089076e-06  -5.4431852e-04  -2.6561425e-04  -6.8206264e-04  -4.7093601e-04  -9.2525687e-04  -1.0303640e-03  -7.9019082e-04  -2.8380979e-04   3.0870686e-04   4.5323931e-04  -1.1324121e-03   1.8425424e-03  -4.3686639e-04  -9.3709672e-04  -1.3677710e-03  -6.3684281e-05  -4.8465325e-05  -3.4213677e-04  -1.4877344e-03  -1.0114521e-03   7.2348130e-06  -5.5759808e-04  -5.7486509e-04  -1.1784891e-03  -4.1668762e-05  -9.9730947e-05  -6.3423172e-04  -9.0396660e-04  -4.1124987e-04  -5.1562721e-04   1.6917472e-03  -4.7367995e-04   1.1250169e-05  -1.4597590e-03  -8.2554214e-04  -3.4859781e-03  -4.2650072e-04  -5.9451052e-04
  -3.5784007e-05  -4.9287610e-05   4.1839149e-04   8.6558022e-05   3.3701796e-04   7.2475121e-04   8.2304102e-04  -1.2056244e-04  -9.6284592e-04   1.1263937e-03  -4.2524381e-04   5.5131031e-04  -4.2373274e-04  -2.6326903e-04  -4.8236828e-04  -4.6963294e-04  -9.6146844e-04  -9.9382224e-04   1.5701618e-03   4.4512257e-05   1.1133072e-03   1.0977393e-03  -1.0521823e-03   1.7010592e-03  -8.9471258e-04  -7.5855287e-04  -1.2728969e-03   8.3513092e-05  -4.3955797e-04  -1.8149167e-05  -1.7068282e-03  -9.4663125e-04   9.7750075e-05   4.0201715e-04  -2.2437822e-04   4.0337659e-04  -6.2372047e-04   4.4650128e-04   3.5811347e-06  -1.5660831e-04   6.0895047e-05   2.0584054e-04   5.3043277e-03   8.6597582e-05   2.1089167e-04  -5.7303719e-04  -8.5501400e-05   1.5241830e-03   2.2095081e-04  -5.8540380e-05
   7.1706966e-04   6.4798607e-04   7.8660442e-04   5.6279101e-04   5.1742158e-04   8.4270886e-04   1.4264573e-03   1.1658866e-03   1.0087463e-03   1.3073444e-03  -7.0139824e-05   7.9813931e-04  -3.1098098e-04  -1.9000420e-04  -5.2581920e-04  -3.9885708e-04  -9.4439334e-04  -1.0778658e-03   8.3760743e-04   5.8270332e-05   1.1675063e-03   9.5409696e-04  -8.0024608e-04  -3.9161686e-04  -4.2590490e-04  -8.6295232e-04  -1.2698560e-03   1.0338920e-04   8.8158256e-04   3.4388388e-05  -1.0411191e-03   8.4782398e-05   8.4753404e-04   2.5434888e-04  -3.1957682e-04  -7.0465013e-04  -4.5946182e-04   3.5444298e-04  -1.9127224e-04  -1.5991295e-04   1.2668032e-04   1.4954383e-04   4.7442690e-03   4.7281392e-05   8.4757328e-04  -6.5658573e-04  -9.9089128e-05   1.2259290e-02  -2.0671122e-04  -1.4734652e-04
   3.4854782e-04   4.4124821e-04   7.3501637e-04   3.2125704e-04   5.2634039e-04   8.4498356e-04   6.0286716e-04   1.3296277e-03   5.7920872e-04   9.8735432e-04  -2.5455523e-04   8.0485758e-04  -3.5261878e-04  -2.4992853e-04  -5.7023880e-04  -2.2568661e-04  -1.0048989e-03  -1.0561435e-03  -5.3763826e-04   2.4506773e-05   7.2695891e-04   6.0230342e-04  -1.2156232e-03   3.4472885e-04   3.7668398e-04  -9.7177789e-04  -1.2344212e-03  -1.6971516e-04  -4.9589475e-04  -2.0898275e-04  -6.5919920e-04  -6.5764657e-04  -4.7173706e-04  -2.9910877e-04  -5.0830760e-04   1.9594477e-04  -4.3732725e-04   4.5430672e-05  -5.4003170e-04  -5.8976683e-04   1.5790331e-04  -4.2049192e-06   6.2728697e-03  -2.2677434e-04   1.0801590e-03  -6.5608387e-04  -3.2253793e-04  -5.1775491e-03  -3.9950490e-04  -4.6355816e-04
  -1.2834174e-06   1.3191290e-05   2.5600131e-04  -9.7097785e-05   3.2513542e-04   6.8669405e-04   3.9100394e-04  -4.8906411e-05   7.9370139e-04   5.3021742e-04  -5.5472751e-04  -1.1918862e-04  -4.9104344e-04  -2.6678669e-04  -6.0622895e-04  -2.5733875e-04  -8.3180011e-04  -9.3087467e-04  -6.0042663e-04  -6.2710873e-04   2.3951543e-04   3.2530536e-04   8.1857994e-05  -6.5318320e-04  -6.0566695e-04  -1.0071934e-03  -1.2727224e-03  -1.9464495e-04   2.7252713e-04  -5.3484435e-04   2.9196874e-05  -6.3399854e-04  -2.9326743e-04  -2.4775648e-04  -6.9158542e-04  -6.7801616e-04  -6.8345445e-04  -3.3920683e-04  -8.7138574e-04  -9.8464161e-04  -1.2071825e-03  -1.7029922e-04   3.6708794e-03  -5.6722033e-04  -1.6686851e-04  -1.2927159e-03  -7.3103281e-04   1.3896665e-03  -5.4951222e-04  -7.1840209e-04
  -6.7576469e-04  -5.9960678e-04  -6.5454590e-04  -6.2127429e-04  -6.2453357e-04   2.5329005e-04   1.7886209e-04  -3.2411437e-04   1.3605811e-04   2.3418193e-04  -8.0870092e-04  -4.8935012e-04  -5.9553812e-04  -2.8915243e-04  -5.7031377e-04   8.7308208e-06  -6.7183428e-04  -1.1183489e-03  -9.6226337e-05  -7.6613534e-04   6.4676750e-04   6.1755010e-04  -4.8169427e-04  -1.3565364e-03  -5.9994380e-04  -9.2737749e-04  -1.3238888e-03  -3.5296034e-04   6.4932735e-04  -3.7931337e-04  -1.4956678e-03  -2.3692145e-03  -9.8192319e-04  -1.9737105e-04  -6.5787073e-04   6.1456073e-04  -1.1553023e-03   9.5581687e-05  -1.3488046e-05  -9.1345137e-04   5.3182815e-04   9.5039919e-05   2.1336714e-03  -6.8651607e-05  -1.2547524e-03  -8.6152146e-04  -2.6059957e-04   7.5273344e-04  -1.6272608e-04  -1.1994698e-04
   4.1235081e-04   5.2201614e-04   4.0657332e-04   2.9876668e-04   3.1914079e-04   7.7253359e-04   8.4244035e-04  -1.0327235e-04   9.5743954e-04   1.0225286e-03  -3.4101596e-04   6.4329494e-04  -2.9182874e-04  -2.0663269e-04  -6.5876608e-04  -2.6925254e-04  -7.4652029e-04  -1.0695782e-03   2.4982933e-03  -5.4566603e-04   8.0989959e-04   7.6304894e-04  -4.6808063e-04  -3.6820184e-04  -5.3351349e-04  -9.3784143e-04  -1.2911235e-03  -2.7514948e-04   3.1673047e-04  -2.3486280e-04   1.3962273e-03  -2.0516176e-05  -9.0285164e-04  -4.0456944e-04  -3.9354997e-04   3.3692802e-05  -4.2588238e-04   1.0707879e-04  -1.8255076e-04   9.9941266e-05  -5.0801616e-05   1.1998813e-04  -5.9446180e-04   2.4823839e-05  -7.7377417e-06  -1.0746479e-03  -1.8078071e-04   1.2399415e-02  -1.6893617e-04  -2.9189294e-04
   3.4776493e-04   2.8515549e-04   4.4889454e-04   1.2440834e-04   3.4696562e-04   6.1238755e-04   3.8389562e-04   9.6536975e-04  -8.1069890e-04   7.9376489e-04  -2.8799428e-04   2.4083158e-04  -4.5429691e-04  -2.5207011e-04  -5.8695016e-04  -1.6428850e-04  -7.7144318e-04  -9.8661217e-04  -1.2555375e-03  -5.3230399e-04   5.1297230e-04   3.2143682e-04  -1.3052764e-03  -1.6333475e-03  -5.1826246e-06  -1.0430997e-03  -1.2988973e-03  -3.4562199e-04   4.9757387e-04  -3.6171329e-04  -1.1573597e-03   2.2255856e-04   3.4342214e-05  -2.9427369e-04  -5.6249718e-04  -6.8580281e-05  -6.1995356e-04  -1.8091677e-04  -6.9434452e-04  -6.2149280e-04  -1.1656255e-03   4.2175782e-07   5.5223242e-03  -2.6311493e-04  -6.2982476e-04  -9.6614950e-04  -4.4128465e-04   6.1396542e-03  -5.8884302e-04  -5.6343811e-04
  -1.7526910e-04  -1.0292239e-04   1.1536617e-04  -2.6500621e-04  -8.6943975e-05   2.3308616e-04   3.3745755e-04  -4.7712456e-05  -1.4547592e-04   3.5618246e-04  -6.3464383e-04  -1.7115838e-04  -5.3998816e-04  -2.8622645e-04  -6.4415124e-04  -1.6486527e-04  -7.0953462e-04  -8.5811317e-04  -1.7666423e-03  -1.0292256e-03   1.3131912e-04   8.6259388e-05  -1.2086132e-03   1.3674334e-04  -6.6567882e-04  -1.1530418e-03  -1.3215397e-03  -5.3866155e-04   1.8909189e-04  -6.5072905e-04  -3.3039874e-03  -7.3542906e-04  -3.4091520e-04  -4.9462811e-05  -7.7329809e-04  -9.8493336e-05  -1.3344719e-03  -4.5220443e-04  -1.0387602e-03  -7.0584274e-04  -1.0218654e-03  -3.2344973e-04   2.4416340e-03  -5.1257230e-04  -3.6815956e-04  -1.3947615e-03  -7.4070325e-04  -2.9877862e-03  -7.9931098e-04  -9.0950908e-04
  -7.7003968e-04  -5.7895947e-04  -8.2849863e-04  -6.9524610e-04  -4.0070192e-04  -6.7071337e-06  -2.5026890e-04  -6.8674632e-04  -4.0824714e-04  -7.7189921e-05  -8.9008937e-04  -7.5410999e-04  -7.2255015e-04  -3.3353161e-04  -7.2836410e-04  -3.8973492e-04  -8.0084457e-04  -1.0928141e-03   6.6174741e-04  -9.4698835e-04   1.4462446e-04  -3.8988883e-06  -4.7591366e-04  -1.8600706e-03  -1.3650458e-03  -1.1899484e-03  -1.2907741e-03  -6.4214395e-04  -7.1164436e-04  -6.1949115e-04  -1.4652705e-03  -9.2048215e-04  -4.4572962e-04  -4.3970963e-04  -7.0336787e-04   7.8501913e-04  -9.5595559e-04  -1.3536328e-04  -7.4985169e-04  -6.7640538e-04  -2.9958843e-05   8.6854750e-05   7.1814097e-03  -1.2033892e-04   2.5894307e-04  -1.0160196e-03  -3.5834513e-04   7.6620509e-03  -2.6039861e-04  -3.8439251e-04
   1.8318150e-04   2.4678610e-04   3.6288539e-04   2.5694089e-05   1.2991889e-04   4.7358344e-04   5.4874597e-04   1.3321027e-03  -9.2147657e-04   7.5246522e-04  -3.6398272e-04   2.7528420e-04  -5.7317235e-04  -2.6540525e-04  -6.7852373e-04  -3.6231530e-04  -7.9713040e-04  -1.0775883e-03  -6.6622189e-04  -3.2327470e-04   5.1287189e-04   6.9155329e-04  -6.9822121e-04   4.4881966e-04  -1.5614702e-03  -1.1224536e-03  -1.2392881e-03  -6.8563479e-04   4.0769513e-04  -3.7575018e-04   4.4081680e-05  -4.7216646e-04   3.4128941e-05  -1.8037138e-04  -4.8721588e-04  -1.1390878e-04  -7.3564774e-04  -4.8163965e-05  -6.1854720e-04  -7.5442210e-04  -1.0271670e-03   2.4279523e-04   6.5381629e-03  -8.6457498e-05  -2.6351321e-04  -5.8690470e-04  -2.9028958e-04   4.6245046e-03  -4.8784172e-04  -4.1781465e-04
   1.0658004e-05   1.8694456e-04   2.5579374e-04  -5.7685782e-05  -2.4817175e-05   4.8099487e-04   2.9583697e-04  -9.3380851e-04  -8.5439923e-04   5.6224188e-04  -4.2459066e-04   2.7976467e-04  -5.2854221e-04  -2.6938747e-04  -6.5448548e-04  -6.3319306e-04  -9.1916276e-04  -1.1831778e-03   1.1196070e-03  -1.1148684e-04   3.2822890e-04   3.4354260e-04  -1.1976656e-03   1.4099776e-03   4.0062292e-05  -1.1509976e-03  -1.2581097e-03  -1.7049763e-04   1.6784981e-04  -4.4322648e-04  -2.7171446e-03  -1.2183113e-03  -3.3602834e-04  -2.9816039e-04  -5.4108578e-04  -1.2451368e-03  -7.7527482e-04  -2.0872751e-04  -6.5735925e-04  -1.2701083e-03  -2.2952055e-04   8.7829096e-05   6.1841877e-03  -2.8497641e-04   3.7103197e-05  -9.9066133e-04  -5.3451222e-04   4.3477085e-03  -5.7608378e-04  -6.1369373e-04
  -3.9827789e-04  -2.5148626e-04  -5.3196627e-04  -4.4965223e-04  -1.3392647e-04   3.1689921e-04  -6.9369766e-05   6.9328654e-04  -1.4335820e-03   2.4634777e-04  -6.7259872e-04  -7.2684816e-05  -6.3378148e-04  -3.4313495e-04  -5.9179100e-04  -5.1476673e-04  -9.3374349e-04  -8.8475406e-04  -2.6279970e-04  -1.8595107e-04  -6.0648352e-05  -4.2210222e-06  -5.6714320e-04   1.4389569e-03  -1.5493240e-03  -1.2929286e-03  -1.2255264e-03  -6.6463737e-04  -5.0016789e-04  -6.4756884e-04  -1.6326008e-03  -1.4745523e-03   2.8219647e-04  -8.3236821e-04  -7.6969573e-04  -8.7581931e-05  -8.2018197e-04  -5.3056324e-04  -1.1523342e-03  -9.5773791e-04   7.4219250e-05   2.6431444e-05   2.6574759e-03  -5.7546899e-04   4.9652945e-04  -1.5010415e-03  -8.2612637e-04   3.7090520e-03  -9.4199349e-04  -8.9473295e-04
  -7.5410574e-04  -7.2726363e-04  -9.8492519e-04  -7.8140263e-04  -6.8348181e-04  -9.8033386e-05  -2.1868105e-04   7.5782955e-05  -1.8610648e-04   3.9864285e-04  -8.0133020e-04  -7.9127523e-05  -6.4655591e-04  -3.4915595e-04  -6.4549572e-04  -3.4764176e-04  -1.1514729e-03  -1.0164464e-03  -8.1939314e-04  -4.1602729e-04   5.8095792e-04   7.0697273e-04  -7.2552275e-04   1.5793066e-04  -7.9592055e-04  -1.1022711e-03  -1.2382910e-03  -5.8031169e-04  -7.7871681e-04  -3.8204290e-04  -1.6770881e-03  -1.4689758e-03  -1.3739854e-03  -2.9530626e-04  -4.4090158e-04  -4.6105264e-04  -5.6117424e-04   2.9120842e-05  -7.3299464e-04  -2.1933255e-04  -3.9726976e-04   4.5698410e-04   4.2358087e-03   6.9528745e-05   2.5481006e-04  -8.5649866e-04  -1.7770352e-04  -1.5878478e-02  -2.3008572e-04  -3.4312950e-04
   4.2123272e-04   3.6753839e-04   7.2740263e-04   1.5029633e-04   3.5550442e-04   7.4594101e-04   7.1639981e-04   1.0143290e-03   1.0192749e-03   9.6790813e-04  -1.9642028e-04   1.5028831e-04  -3.5601412e-04  -1.8798010e-04  -4.4418103e-04  -1.4373752e-04  -1.0199388e-03  -1.0314635e-03   7.0635760e-05  -9.1052116e-06   7.6865091e-04   7.9769589e-04  -1.2821048e-03   3.5411038e-03  -7.3528948e-04  -9.6429646e-04  -1.1014441e-03   1.9718276e-04   1.8940456e-04  -1.8641447e-04  -1.6329850e-03   5.2212784e-04   1.0588100e-03  -5.3326232e-05  -3.0720458e-04  -3.0974261e-04  -4.9722416e-04   5.6746572e-05  -5.4740114e-04  -5.8886997e-04   3.4057029e-04   5.2386336e-04   1.7248727e-03   1.5508942e-04  -1.3011848e-03  -1.0645227e-03  -2.4823906e-04  -1.0014960e-02  -1.6643359e-04  -4.4781508e-04
   3.5745956e-04   2.5036366e-04   2.2270136e-04   5.7039735e-05   1.9829506e-04   6.2475767e-04   6.6350418e-04   4.8633237e-04   5.4811174e-04   7.8328873e-04  -2.4087996e-04   1.3405959e-04  -4.7432169e-04  -2.2091655e-04  -5.5228244e-04  -2.5614270e-04  -1.0931987e-03  -9.1090682e-04   2.3136678e-04   1.6594114e-04   4.4722436e-04   6.4181472e-04  -1.4979937e-03   3.4805066e-03  -6.4998941e-04  -1.2005742e-03  -1.2327976e-03  -3.1784578e-04   2.1919186e-04  -3.1700890e-04  -6.9388872e-05  -1.1029892e-03  -3.3300527e-04   1.6340574e-04  -3.0669727e-04  -1.0644378e-04  -7.4385316e-04  -9.9030527e-05  -7.9479127e-04  -7.7333103e-04  -5.3928740e-04   3.7520955e-04   3.5716037e-03  -9.6858967e-06   5.6444347e-04  -9.7568583e-04  -3.4379849e-04   5.6199837e-03  -3.3970806e-04  -5.6217774e-04
  -1.7722875e-04  -4.6699075e-05   1.0346060e-04  -2.1021751e-04   3.2153737e-04   2.0914516e-04   2.1021070e-04  -1.2285801e-04   6.2348823e-05   3.1859669e-04  -5.6985201e-04  -1.9339431e-04  -5.7241786e-04  -2.5410924e-04  -7.3168415e-04  -2.1093537e-04  -1.0149031e-03  -8.6693920e-04  -2.0142321e-03  -6.1217317e-04   1.1157606e-05   2.2450360e-04  -6.5562467e-04   2.0137611e-03  -1.0507050e-03  -1.3063791e-03  -1.2915508e-03  -5.8780517e-04  -5.3711946e-04  -5.0597673e-04  -2.3987261e-03  -1.2786970e-03  -7.4074871e-04  -5.3581351e-04  -5.7622942e-04  -1.0523611e-03  -1.3726212e-03  -2.5805290e-04  -9.5425232e-04  -1.0834468e-03  -5.9310626e-04   2.1216115e-04   1.7442686e-03  -2.1570172e-04  -1.0652203e-03  -9.9487812e-04  -6.4283039e-04   4.2617517e-03  -4.7814054e-04  -8.4677903e-04
  -6.4979168e-04  -5.0276838e-04  -6.5167510e-04  -5.2230264e-04  -5.5719278e-04   7.6066426e-05   3.3966210e-04  -8.7577348e-05  -1.0937004e-03   6.2509044e-04  -4.9914885e-04   2.6660663e-04  -4.2632991e-04  -2.6466802e-04  -5.6247151e-04  -1.7811496e-04  -1.0304108e-03  -8.6395582e-04   1.9784742e-03   1.1830367e-04   6.5815571e-04   7.6823041e-04  -5.1280338e-04  -2.0120156e-03  -1.0125081e-03  -1.0335175e-03  -1.3094322e-03  -5.3755264e-04   4.1380076e-04  -1.6882611e-04  -1.1639913e-03  -1.1838011e-03   3.7573956e-04  -3.2293022e-04  -1.5410423e-04  -3.0370106e-04  -3.5527308e-04   4.0426484e-04  -3.4959271e-04  -5.6507107e-04   1.2571536e-04   3.6573279e-04   8.8313804e-04   4.6308601e-04   8.5846591e-04  -3.8424393e-04   6.8295951e-05   7.1451031e-03   1.7256018e-04   1.0157147e-04
   5.2769121e-04   6.6383148e-04   7.6254766e-04   4.1060298e-04   1.6981114e-04   7.0582872e-04   7.2152581e-04   8.3302194e-04   1.8815501e-03   1.0756394e-03  -7.6236778e-05   7.3809118e-04  -2.1162973e-04  -1.0993244e-04  -5.6152465e-04  -3.8905785e-04  -9.5945178e-04  -9.5743319e-04   7.1225065e-04   4.4316228e-04   8.8284886e-04   1.0689141e-03  -7.5820257e-04   1.5677738e-03  -9.7646890e-04  -9.6949935e-04  -1.2829404e-03  -1.4633054e-04   4.2649393e-04   1.1114738e-04   1.2385753e-03  -5.1536242e-04   3.3560931e-04   1.1777999e-04  -1.2508439e-05   2.7945382e-04  -9.4558680e-05   6.7508774e-04  -1.5858941e-04  -3.4974777e-04  -8.4043830e-05   8.5981627e-04  -3.4723161e-03   5.4684142e-04   1.0670701e-03  -2.6526814e-04  -1.9263745e-05   6.1510489e-03   8.2221581e-05   3.2725326e-05
   4.4193727e-04   6.3793210e-04   5.3159357e-04   3.7940324e-04   3.6511521e-04   8.4146135e-04   5.9253245e-04  -6.7543576e-04   6.7600828e-05   9.3838689e-04  -7.4573509e-05   5.1673531e-04  -2.0191663e-04  -8.9641559e-05  -6.2828709e-04  -1.6903388e-04  -7.5640186e-04  -7.9188403e-04   6.5233215e-04   2.8401893e-04   4.9594697e-04   5.7663070e-04  -9.6121896e-04  -6.0451485e-04  -1.0053732e-04  -1.0121944e-03  -1.2618864e-03  -1.5538081e-04   1.0551398e-03   2.7042528e-05  -2.1213405e-03   7.0489674e-05   3.0223382e-05   7.6496406e-05   9.0560588e-06   1.0386572e-03  -4.1198160e-04   4.6759183e-04  -1.1452408e-04  -2.8720594e-04   4.3599334e-04   2.8162965e-04   5.2797478e-03   3.3631769e-04   7.2211697e-04  -4.6070613e-04  -1.2196141e-04   8.3674761e-03   1.6431533e-05  -4.1615156e-05
   1.3130122e-04   1.8975092e-04   1.1375878e-04   5.9515645e-05   2.0273012e-04   6.8536773e-04   5.4111157e-04   6.9461059e-04   6.5422367e-04   4.4386176e-04  -2.8875464e-04   2.0754982e-04  -1.7757069e-04  -3.7017391e-05  -4.0934075e-04  -5.5459037e-05  -4.7881948e-04  -6.8717380e-04   1.0999549e-03   1.3562868e-04   1.6633468e-05   4.1353142e-05   1.1338685e-04  -2.5532874e-03  -4.4431232e-04  -9.9567370e-04  -1.2824405e-03  -3.2474194e-04  -6.7806069e-04  -1.8729342e-04  -6.2652491e-04  -1.1743800e-03  -5.4788728e-05   1.1281793e-04  -2.1391190e-04   2.4491106e-04   4.9548316e-06   1.5220219e-04  -2.6207080e-04  -6.4632040e-04  -4.4474201e-04   2.6555013e-04   2.2809645e-03   1.2718143e-04  -1.7837596e-05  -2.1082610e-04  -4.7309880e-04   1.5424668e-04  -4.1510913e-04  -4.2717141e-04
  -3.8152933e-04  -2.5102444e-04  -6.2407920e-04  -4.3211720e-04  -2.1556825e-04   2.4030286e-04   8.9341323e-05   7.5923475e-05   1.2018473e-03   4.1012172e-04  -4.6733386e-04  -8.9055447e-06  -2.6253244e-04  -3.2426295e-05  -2.9618971e-04  -7.1341710e-05  -5.0593057e-04  -6.2480924e-04   2.9733931e-04   4.0106394e-04   4.0160964e-04   4.0670004e-04  -5.8905839e-04  -5.1536725e-04  -1.2387609e-03  -7.7262509e-04  -1.1344751e-03  -5.2171981e-06   7.5876154e-04  -2.5517533e-05   1.1669599e-03  -3.8099554e-04   1.4464828e-04   3.6375338e-04  -1.0519252e-06   1.2734107e-04   1.3588864e-04   6.8901200e-04   2.7850253e-06   2.5865284e-04  -2.7814356e-04   4.9806177e-04   3.8859167e-03   4.9992156e-04   2.0497178e-03  -5.1945521e-05   1.4279463e-04   1.7119899e-02   2.6069564e-04   4.7846432e-04
   8.1840681e-04   7.7401416e-04   9.3390368e-04   5.3342670e-04   6.4637000e-04   1.1473785e-03   7.6622650e-04  -1.9252094e-04  -3.6566512e-04   1.0853712e-03   1.5929923e-04   7.2835007e-04   1.1734712e-06   4.5326040e-05  -3.8372740e-04  -1.5234129e-04  -4.4518334e-04  -4.4297887e-04   1.2246986e-03   4.7113010e-04   6.6917733e-04   9.0800773e-04  -5.6430593e-04  -3.0623085e-04  -1.3778140e-03  -7.5919146e-04  -1.0527115e-03   1.7018781e-04   1.2373688e-03   2.7493716e-04   1.5880124e-03   1.9619388e-03  -3.3549991e-04   3.6566218e-04   2.6855437e-04   5.4884673e-04   5.5464229e-04   7.8734575e-04   1.2187797e-04   4.3358677e-04   2.6856767e-04   7.5432099e-04   1.0593922e-03   8.3287671e-04   2.2650980e-03  -6.5538450e-04   1.7691786e-04   7.4897432e-03   3.8212715e-04   3.6532257e-04
   5.8013073e-04   7.5617363e-04   6.7933521e-04   4.6809285e-04   5.7542452e-04   1.1747790e-03   9.6915470e-04   6.6514342e-04   1.3521691e-03   8.9976803e-04   9.5266354e-05   6.0374488e-04  -1.6074137e-04   8.7612709e-05  -2.8986952e-04  -1.1542915e-04  -4.0533609e-04  -6.5444194e-04  -7.1686209e-04   1.1372308e-03   4.4904341e-04   7.6351047e-04  -5.1411160e-04   4.8850192e-04  -3.0790857e-04  -8.9186989e-04  -9.8986924e-04   1.9531575e-04   5.1221001e-04   1.7396301e-04  -9.4715372e-04  -2.9514122e-04  -3.8950343e-04   2.6216239e-04   1.7971829e-04  -7.4461021e-04   3.2041737e-04   5.6614052e-04   4.6426017e-04  -1.3440939e-04   3.6056453e-04   6.9393037e-04   6.0115955e-03   5.2520836e-04   3.0755906e-04  -5.6253053e-04  -5.7088957e-05   1.3356975e-03  -1.5287183e-05   1.2564941e-04
   2.5639401e-04   4.3702166e-04   1.7223130e-04   1.3850612e-04   2.3324901e-04   8.1563217e-04   3.9917341e-04   1.5273133e-03  -7.4833975e-04   5.8421830e-04  -1.4968232e-04   8.8135261e-05  -2.1612199e-04   1.6320344e-05  -3.6915691e-04   1.4606230e-04  -5.8475405e-04  -5.4196425e-04  -1.0629644e-03  -3.9514099e-04   1.1978150e-04   6.6254189e-04  -3.9701772e-04   6.1363724e-05  -8.3473435e-04  -8.7092613e-04  -1.0780130e-03   1.0582851e-04   3.1123913e-04  -5.0446695e-05   8.2409481e-04  -8.3428022e-04   4.4848322e-05   1.8331123e-04   1.3567133e-05   3.2659591e-04  -1.0588182e-04   3.3093712e-04  -1.2777241e-04   2.3885310e-04   6.3175539e-04   3.3341948e-04   2.8917802e-04   2.2000972e-04   2.6836139e-04  -1.0328351e-03  -4.3270399e-04  -1.7845184e-02  -3.6599810e-04  -3.3006587e-04
  -1.9575951e-04  -9.4292645e-06   5.7907750e-06  -1.4317875e-04   3.6008839e-04   8.9507381e-04   5.1212724e-04   9.7664865e-04  -1.5300482e-03   7.2283548e-04  -1.4351743e-04   4.5074728e-05  -2.7338468e-04  -4.3933640e-05  -5.1826256e-04   1.6502687e-04  -6.5951119e-04  -9.7790500e-04  -1.0866243e-03   9.1947883e-04   5.9420359e-04   6.8093213e-04  -5.8290584e-04   4.7897029e-04  -8.5952939e-05  -8.5517106e-04  -1.1712648e-03  -4.0379426e-05   1.2514322e-03   2.4284258e-04   9.9851727e-04   6.1154645e-04   5.4607424e-04   6.6115352e-04   1.7674959e-04   3.0527539e-05   6.4413575e-04   9.0173387e-04   1.2292678e-04   5.5956881e-04   6.9989421e-04   5.9596810e-04   2.0720102e-03   6.4784940e-04   6.5427960e-04  -1.0676369e-04  -6.1346356e-05  -1.1095696e-02  -2.9027672e-04   2.0855674e-04
   5.8928161e-04   8.0630468e-04   9.2657749e-04   4.7455938e-04   5.1369914e-04   1.0831300e-03   1.0678726e-03   8.6013897e-04   1.0329454e-03   9.3439198e-04   1.3313397e-04   6.0281780e-04  -8.4806816e-05  -2.4340612e-05  -3.4898598e-04  -1.6543239e-04  -6.7944289e-04  -8.0443523e-04  -6.4535736e-04   2.0109235e-05   6.2422763e-04   7.2319835e-04  -2.2606803e-04   1.9659258e-03  -9.5135235e-04  -7.9658459e-04  -1.1647980e-03   2.2811898e-04   4.8221226e-04   4.4438301e-04   1.3151582e-03   3.1234621e-04   8.7105669e-04   3.5312556e-04   3.3178148e-04   3.8742550e-05   1.8290717e-05   8.8205334e-04   2.0924676e-04   5.1264808e-04   2.0997287e-04   3.6673050e-04   9.1604103e-04   7.3054794e-04   1.2692520e-03  -2.8317099e-04  -1.8570792e-04  -2.4281603e-03  -2.3657132e-04   2.7473448e-04
   6.0533639e-04   6.9564424e-04   6.6928944e-04   3.4295351e-04   5.4321607e-04   1.0465616e-03   5.3838210e-04   2.4892141e-05  -7.9872890e-04   6.4755877e-04  -5.9935428e-06   5.0115545e-04  -1.0227502e-04   1.0080495e-05  -3.8556242e-04  -1.1400572e-04  -6.1677641e-04  -7.0216757e-04  -8.5290274e-05   6.1060418e-04   2.8797274e-04   6.2800833e-04  -3.8580009e-04  -1.0776749e-03   3.8337903e-04  -7.7871449e-04  -1.1100889e-03   2.9405553e-04   7.3718443e-04   2.4055284e-04   4.2416726e-04  -2.8016266e-05  -1.1942987e-04   4.1573049e-04   2.3064869e-04   6.5653352e-04  -3.1625148e-04   6.2509364e-04   1.5521423e-04  -3.2371707e-04  -1.1953140e-04   3.0173440e-04   4.8404909e-03   3.4743530e-04  -6.4938352e-04  -7.3132716e-04  -4.0618473e-04   9.9454308e-03  -2.6568334e-04  -2.0131397e-04
   2.1347011e-04   3.3500875e-04   1.6054309e-04   5.7283702e-05   5.6047091e-05   8.7751547e-04   6.4771710e-04   7.5842836e-04   1.5285116e-03   2.8419710e-04  -3.2577943e-04   1.1539463e-04  -2.2781339e-04  -3.1436146e-05  -4.5111970e-04  -9.2763752e-05  -6.5520778e-04  -7.1500940e-04   2.3038874e-04  -1.6395938e-05  -9.3832110e-05   4.1235493e-05  -6.7121774e-04  -1.6791370e-03  -4.2608724e-04  -9.7549346e-04  -1.2176730e-03  -2.4558316e-04   4.9863319e-04   5.4094118e-05  -2.8042760e-04   7.1979163e-04  -1.3240079e-04   2.8839830e-04  -3.2180007e-05  -9.0507872e-04  -8.8384331e-05   4.5682219e-04  -1.7523331e-05  -3.6751513e-05  -3.9472606e-04   6.4786262e-05   2.5981923e-03   4.2017596e-04   1.8722106e-03  -5.0384930e-04  -3.9576975e-04  -6.9569540e-03  -4.3516367e-04  -2.9495919e-05
   7.3348579e-04   7.6533202e-04   1.0724929e-03   5.8778783e-04   3.3574968e-04   1.1241895e-03   7.6063437e-04   3.5586592e-04   1.0112928e-03   9.7048131e-04   9.3823248e-05   9.5078268e-04  -1.4743063e-04  -1.2869949e-05  -4.9482554e-04  -7.0292546e-05  -6.0800696e-04  -6.9862796e-04  -7.9051894e-04   6.1328209e-04   7.3417340e-04   6.6807913e-04  -1.3892859e-04   4.0547614e-04  -7.5252535e-04  -8.1255339e-04  -1.1679517e-03   4.5722863e-04   1.0555329e-03   5.9344893e-04   1.0814178e-03  -1.4148529e-03  -7.6504820e-04   6.7619025e-04   4.2180612e-04  -1.1005629e-06   1.7618961e-04   9.8945096e-04   7.4390857e-04   5.0663622e-04   8.5153279e-04   7.5935601e-04   3.3040566e-03   6.3667278e-04   1.0742190e-03  -1.8957036e-04  -2.1644151e-04  -8.0189900e-03  -3.3689314e-04   2.6012855e-04
   1.0547875e-03   9.6511462e-04   1.0553544e-03   7.7132526e-04   6.9063634e-04   1.4585624e-03   1.4165787e-03   1.4761378e-03   5.8458938e-04   1.0107724e-03   1.2344877e-04   8.9977286e-04   7.1754963e-05   2.2969642e-05  -2.5683819e-04   2.3950084e-05  -5.4727396e-04  -7.8185985e-04   3.4584163e-04   3.8293164e-04   6.7113765e-04   5.5429584e-04  -1.2525026e-04  -6.6076545e-04  -1.2749457e-03  -7.8481395e-04  -1.2267173e-03  -1.0347134e-05   9.0113818e-04   6.2314956e-04  -8.8035868e-04  -1.8863418e-04   7.4268290e-04   5.1969441e-04   3.0859548e-04   4.9067952e-04   3.3229025e-04   9.8685699e-04   4.1102691e-04   6.1230094e-04   1.3682166e-04   6.2809244e-04  -3.2821007e-03   5.0231453e-04   4.8326535e-04  -5.2568788e-04  -3.1016165e-04   3.9613247e-03  -5.0028093e-04  -8.8076835e-05
   5.4932758e-04   7.0197874e-04   7.3566113e-04   4.3071163e-04   4.9666746e-04   9.7675726e-04   8.4909191e-04   1.9842386e-04  -8.8484836e-04   6.5713213e-04  -8.6925793e-05   2.7572009e-04  -1.0515540e-04  -1.4046228e-05  -3.9686772e-04   8.6374057e-05  -5.6638953e-04  -7.3126855e-04   6.1917433e-04   1.4537797e-04   2.2912223e-04   2.8757774e-04  -8.6279359e-04   2.7407093e-03  -1.5810316e-03  -9.1352267e-04  -1.1940057e-03   2.5026826e-04   7.1623921e-04   4.2202181e-04  -2.0817906e-04  -9.0913265e-04  -1.8578232e-04   5.5310444e-04   5.4643344e-05   2.5268670e-04   4.4320885e-05   7.0093467e-04   3.1661961e-04   1.5397492e-04  -9.9365297e-04   1.9626124e-04   2.8100456e-03   1.4904383e-04   4.5951956e-04  -9.5767074e-04  -6.2224537e-04   1.7487615e-02  -4.5799147e-04  -4.5635339e-04
   7.9251389e-05   2.4249098e-04   3.6901966e-04   3.1028267e-05   9.3614886e-05   9.1598753e-04   4.3324800e-04   9.5124362e-04  -1.0751478e-04   2.0424253e-04  -4.4561570e-04  -7.8951321e-05  -2.9561334e-04  -8.3117920e-05  -7.1900722e-04  -2.6189626e-04  -5.3984619e-04  -8.7046949e-04   7.0640945e-04  -1.6162804e-04  -1.6095133e-04  -1.9917739e-04  -7.5786945e-04  -1.0011157e-03   7.3011935e-05  -1.1969350e-03  -1.4609216e-03  -3.9485405e-04   1.2694606e-04   1.7641135e-04  -3.4276431e-03  -6.7502336e-04  -2.5428057e-04  -9.4488001e-05  -7.3000912e-05  -4.9958774e-04  -2.0496691e-04   8.5271482e-04   2.5367140e-04   3.5721975e-04  -2.2470867e-04   2.0667815e-04   2.4522555e-03   4.9146061e-04   1.0068322e-03  -4.1481594e-04  -4.8702038e-04  -7.2554667e-03  -5.3392758e-04  -1.0397164e-04
   9.4783562e-04   8.6554675e-04   1.0630679e-03   6.6504796e-04   1.0562990e-03   1.0332764e-03   1.3496231e-03   5.4653379e-04   5.3013425e-04   1.0710839e-03   1.9798104e-05   8.7082293e-04  -8.0693811e-05  -9.7587224e-05  -7.9187402e-04  -1.2391177e-05  -6.6950748e-04  -9.6984929e-04  -4.9762102e-04   7.9623132e-04   8.8793912e-04   5.2927225e-04  -8.2614226e-04   1.6224879e-03  -7.3868403e-04  -8.7009353e-04  -1.3379410e-03  -3.0623356e-04   1.3968421e-03   8.0059550e-04   1.1850431e-03   6.4103171e-04  -1.2575680e-03   4.3609767e-04   3.5683333e-04   7.2691916e-04   4.4063415e-04   1.2408736e-03   7.7819952e-04   7.1471202e-04   8.1860722e-04   5.8340671e-04   2.1670065e-03   7.6431403e-04   1.1345667e-03   3.1615753e-05  -1.9358331e-04  -6.0563963e-03  -5.9597554e-05   1.7859989e-04
   1.0644047e-03   1.0672898e-03   1.0985369e-03   8.5927907e-04   5.7903375e-04   1.3197172e-03   1.2610814e-03   6.0977257e-04   1.8275343e-04   1.1087668e-03   2.8409468e-04   7.8040600e-04  -6.0028265e-06  -9.2714276e-05  -5.0099846e-04  -3.1284522e-04  -5.6861201e-04  -6.6968793e-04  -9.4395882e-04   7.0365041e-04   7.5822929e-04   6.9005543e-04  -3.0775517e-04   5.0085824e-04   4.8358188e-04  -1.0808499e-03  -1.3101686e-03  -3.4272376e-05   1.4287204e-03   7.6152937e-04   8.8337949e-04   7.8343845e-05   5.6101580e-04   5.0860294e-04   1.9721237e-04   2.9116505e-04   6.6674472e-04   1.1667407e-03   4.3166662e-04   8.1336941e-04   1.1170801e-03   4.7627400e-04   4.4609178e-03   3.9811232e-04   1.2709491e-03  -7.0080702e-04  -3.2838105e-04   9.7998520e-03  -1.0323648e-04  -1.9883701e-04
   7.5684005e-04   7.7805051e-04   7.1991648e-04   5.2175455e-04   8.0030476e-04   1.1289789e-03   8.2312687e-04   3.6187397e-04  -6.1964436e-04   7.4390997e-04  -1.4763558e-05   2.9182716e-04  -1.8504613e-04  -1.2503540e-04  -7.0234429e-04  -3.1806649e-05  -5.6843593e-04  -9.5071463e-04  -1.1887559e-03   2.3531995e-05   3.4973858e-04   2.1047902e-04  -5.5359391e-04   9.2701893e-04  -9.4882323e-04  -1.1009084e-03  -1.2992009e-03   1.3556695e-04   1.7332132e-03   4.7520100e-04  -1.2786065e-03  -1.2881276e-03  -9.2980929e-04   5.9997637e-05  -5.5542681e-05   5.5605994e-04   4.9572735e-04   8.5423019e-04   4.0135439e-04   6.0489355e-04   1.5911662e-03   2.2000239e-04   5.9981872e-03   2.6120368e-04   5.0092160e-05  -5.0888822e-04  -6.2006270e-04   5.8438294e-03  -6.7006255e-04  -2.8683749e-04
   1.4405468e-04   3.0002822e-04   1.5935881e-04   5.5087185e-05   2.7971019e-04   7.1235327e-04   5.9221283e-04   7.8585593e-04  -4.8953271e-04   2.7044336e-04  -3.7336902e-04   4.2784646e-05  -3.1374156e-04  -1.5453741e-04  -8.4125716e-04  -2.2146374e-04  -4.5188074e-04  -7.6359307e-04  -4.6158090e-04  -3.5707253e-06  -1.1870801e-04   6.2150852e-05  -6.2195008e-04  -5.2452469e-05   5.1414816e-05  -1.1694739e-03  -1.4097734e-03  -4.0678235e-04   7.3724898e-04   1.6257269e-04  -1.1402228e-03  -3.4825722e-04  -3.4160048e-04  -3.2791792e-04  -2.5608775e-04  -6.1362531e-05  -2.9452858e-04   4.3753072e-04   2.5704547e-04  -2.8696016e-04   5.3434254e-04   7.2650240e-05   5.9099630e-03   1.0567190e-04  -6.1611843e-04  -3.6526882e-04  -6.7449408e-04  -2.5048268e-03  -4.0259605e-04  -4.3323290e-04
   6.6931290e-04   6.1177620e-04   9.6388761e-04   4.9712107e-04   9.7601296e-04   1.0202022e-03   1.1988039e-03   9.4833953e-04  -3.8998234e-04   8.6408912e-04  -6.6698405e-05   5.9373910e-04  -1.9599726e-04  -1.3614136e-04  -6.9573947e-04  -1.6006628e-04  -6.0636771e-04  -1.0821485e-03  -8.5612340e-04  -3.9928709e-05   6.9774856e-04   6.8539561e-04  -3.5021771e-04  -1.1612661e-03  -1.3042754e-03  -8.7800663e-04  -1.2361405e-03  -2.0945756e-05   7.9066231e-04   5.5671454e-04  -1.1367104e-03  -1.7617951e-03  -4.2661137e-04   4.8954244e-04   6.1514947e-05   5.3818349e-04   6.8168796e-05   1.0575432e-03   7.5424800e-04   6.8344991e-04  -5.0766871e-04   4.1985424e-04   1.2350389e-04   4.5506944e-04   1.3006928e-03  -4.6392711e-04  -2.9965132e-04   6.1131828e-04  -2.3452549e-04   1.6404586e-04
   9.5669762e-04   8.9027069e-04   6.8543362e-04   7.0325244e-04   9.5112878e-04   1.1047326e-03   9.9700701e-04   1.0329073e-03   2.7625199e-04   9.7076973e-04   1.1154414e-04   7.3589204e-04  -1.2385675e-04  -1.3466021e-04  -7.4876455e-04   5.2646737e-05  -4.8668444e-04  -8.7135826e-04   3.6292953e-05   6.0059497e-04   6.6906831e-04   7.6548499e-04  -7.5673976e-04  -2.6895248e-03  -1.4091909e-03  -1.0792883e-03  -1.2433270e-03  -3.1284650e-04   1.2970148e-03   5.0071982e-04  -2.2816069e-03  -1.1041518e-03   7.6835211e-05   4.4764463e-05  -9.0398325e-06  -2.4561179e-04   2.5874289e-04   9.2368003e-04   6.5884396e-04   4.8786783e-04  -5.8202737e-04   2.9582198e-04   5.7347449e-03   4.3175090e-04   5.8583159e-04  -4.3057441e-04  -3.0290402e-04   7.8581357e-03  -1.7638538e-04  -1.8112641e-04
   6.7747134e-04   5.8850122e-04   4.2468501e-04   3.8041564e-04   6.7104248e-04   9.4730954e-04   7.6015963e-04   6.0432829e-04  -4.4680698e-04   4.9227686e-04  -1.1249998e-04   1.0773333e-04  -2.1280593e-04  -1.4835340e-04  -4.1873317e-04  -1.9873954e-04  -7.2234968e-04  -1.0551456e-03   4.7949178e-04  -6.5349735e-04   2.5235055e-04   1.5080575e-04  -1.1619491e-05   1.5786735e-03  -1.8841035e-03  -1.0291826e-03  -1.3162917e-03  -2.1759546e-04   1.9387227e-03   3.0139586e-04  -1.4292361e-03  -1.5700007e-04  -2.3350034e-04   8.0651072e-05  -2.1118000e-04   2.7978473e-04   9.1120695e-05   6.6882669e-04   2.5568827e-04  -1.2225029e-04  -1.8343893e-04   2.7463178e-04   5.5862474e-04   1.7882827e-04   8.6707878e-04  -4.3967474e-04  -6.1325135e-04  -3.8251461e-04  -4.6349040e-04  -3.9877850e-04
   2.1227381e-04   1.7500641e-04   1.5484238e-05  -7.1824856e-05   6.0887785e-05   6.7143264e-04   5.3432066e-04   1.1060620e-04  -6.5224012e-04   1.7119202e-04  -5.2575720e-04  -7.2607909e-05  -4.3957622e-04  -2.0564524e-04  -6.6485908e-04  -1.9504999e-04  -6.4922223e-04  -8.6269528e-04   2.0293931e-03  -5.0774607e-04  -1.7072193e-04   1.4033730e-04  -6.4530125e-04  -3.3883227e-04  -1.1554277e-03  -1.1868275e-03  -1.3115756e-03  -4.9832190e-04   1.7033791e-04  -2.3386609e-05  -1.9493429e-03  -6.6948513e-04  -4.7166081e-04  -9.9660814e-05  -4.3697591e-04  -5.9722102e-04  -7.8276225e-04   2.4752517e-04  -2.3277994e-04   2.2973414e-04   9.1755734e-05   1.7994025e-04  -1.0444738e-04   2.4920371e-05   1.3698089e-03  -7.4320781e-04  -5.0741766e-04   3.8528503e-03  -5.4399605e-04  -2.7643182e-04
   5.5748189e-04   5.3647591e-04   9.9475891e-04   4.1318565e-04   8.7643525e-04   8.8987959e-04   7.6870411e-04  -3.8882740e-06   1.5295355e-04   7.8142085e-04  -1.6314109e-04   5.3537189e-04  -2.9350590e-04  -2.1736808e-04  -6.0101342e-04  -3.5283878e-04  -6.4767030e-04  -9.3880662e-04  -2.8416031e-04  -1.1911019e-04   5.8383355e-04   8.5065112e-04  -7.0101849e-04   2.0503900e-03  -4.1255185e-05  -1.0437544e-03  -1.1646007e-03  -5.0766300e-04   8.0747931e-04   2.9313716e-04  -4.1954783e-03  -1.1641020e-03   8.8555353e-05   4.2162530e-05  -1.6960737e-04  -1.7659769e-04  -6.9287472e-04   7.4839027e-04   3.0312786e-04   5.6577305e-04   8.2201941e-04   4.7374287e-04   6.3752946e-03   5.2248774e-04   3.9081203e-04  -8.2706014e-04  -2.2481021e-04  -7.5481678e-03  -1.0899347e-04   8.7150202e-06
   6.1946438e-04   7.3744776e-04   9.4881369e-04   5.5642775e-04   9.1845333e-04   8.1160048e-04   8.3462737e-04   1.4289366e-03  -1.7744173e-04   7.8366813e-04   2.9469969e-05   5.4258696e-04  -2.4373867e-04  -1.7349329e-04  -5.4672523e-04  -1.0476915e-04  -7.4128679e-04  -9.5105352e-04  -1.5779340e-03   2.0912038e-04   5.3342921e-04   7.7891222e-04  -1.2004343e-04   9.1459471e-05   2.9755151e-04  -1.0691717e-03  -1.1026530e-03  -8.8306086e-05   5.7538069e-04   2.3347905e-04  -2.7725711e-03   3.9760082e-05  -3.5813064e-04   3.3320318e-04  -8.6421285e-05  -6.8559637e-04  -1.5643777e-04   5.7385373e-04   2.6719243e-04  -1.4659167e-04  -5.8430445e-04   2.0847221e-04   4.9662143e-03   3.4197103e-04   1.2206011e-03  -1.5849974e-04  -2.6580435e-04   8.6581297e-03  -1.9722781e-04  -1.0189759e-04
   4.5241861e-04   4.6051294e-04   4.5678526e-04   2.4410563e-04   5.9435109e-04   6.5419980e-04   2.3721613e-04   6.6221884e-04  -4.2719359e-04   4.0688601e-04  -2.2281618e-04   1.3757164e-04  -4.0226360e-04  -1.6459430e-04  -6.3587585e-04  -1.9450368e-04  -6.6731957e-04  -8.3910441e-04   1.7528111e-03  -5.1193126e-04   2.0723972e-04   4.3479295e-04  -9.2215376e-04  -1.5807856e-03  -9.2891901e-04  -1.0737178e-03  -1.1459107e-03  -2.8869323e-04   5.3808471e-04   5.1898322e-05   1.1870074e-03  -5.4585798e-06   2.0589655e-04  -1.9882784e-04  -1.9541589e-04  -4.1977919e-04  -3.4349499e-04   3.7915897e-04  -1.4958707e-04   4.0727848e-04   2.7704373e-04   2.4466781e-04   5.1985122e-03   1.3921103e-04   9.9181692e-05  -4.9221452e-04  -4.9977284e-04   2.9361546e-03  -3.9850653e-04  -3.6991644e-04
  -5.2683790e-05   1.0241314e-04   7.2920026e-05  -3.0530606e-05   4.5766155e-04   4.9467862e-04   1.5601757e-04   1.7483065e-04  -7.4794149e-04   3.4656419e-05  -4.8723197e-04  -1.2985987e-04  -3.9166230e-04  -2.5099088e-04  -4.8175899e-04  -3.0876783e-04  -8.5726613e-04  -9.2652650e-04  -1.8534796e-04  -5.3428533e-04   6.6895540e-05   3.8499510e-04  -1.1393449e-03   1.0418018e-03  -1.0579823e-03  -1.2647364e-03  -1.1058325e-03  -4.7782730e-04   1.9549776e-04   1.4811029e-05  -1.2830171e-03  -1.3210309e-04  -2.8090461e-04  -9.3968563e-05  -1.0602947e-04  -1.0854441e-04   5.5449953e-05   5.9568271e-04   2.5208775e-04   3.3846672e-04   2.8354019e-05   3.6087909e-04   2.9635292e-03   5.5004779e-04   4.1571321e-04  -1.6433147e-05  -1.3564575e-04  -1.8571836e-05  -9.4273346e-05   5.5319928e-05
   7.9419446e-04   8.8968407e-04   1.1155764e-03   7.3979533e-04   1.0572500e-03   1.0150708e-03   1.0317070e-03  -8.9993853e-05   1.3108274e-03   9.1409578e-04   7.5783857e-05   6.4342946e-04  -6.9019152e-05  -1.5584084e-04  -5.8114668e-04  -1.2205486e-04  -7.5564918e-04  -9.9864311e-04   5.2354677e-04  -2.3880272e-04   7.4048014e-04   9.7990257e-04  -4.7630916e-04   1.7210031e-03  -4.4068589e-04  -9.8419492e-04  -1.0193342e-03   1.6112388e-04   5.0397334e-04   3.7473871e-04  -6.8770489e-04   5.3808442e-04   9.8962730e-05   7.8716094e-04   1.7320570e-04   7.8072917e-05  -2.3239329e-05   9.0350152e-04   3.9669313e-04   4.6031599e-04   7.0380839e-04   5.0280988e-04   4.2079673e-03   5.7510892e-04   5.1697357e-06  -2.3626551e-04  -3.3262370e-06  -7.6461001e-03   6.3198015e-05   2.0127893e-04
   9.9629769e-04   9.6313597e-04   8.2033710e-04   7.2383258e-04   9.9622516e-04   9.7021571e-04   1.1882243e-03   1.6256815e-04   2.5736017e-04   7.5402885e-04   1.2018677e-04   4.1590462e-04  -5.1170067e-05  -5.2823489e-05  -4.2345139e-04   1.0427888e-04  -7.4144441e-04  -5.0450058e-04  -9.3121012e-04   3.2986849e-04   5.8206468e-04   6.3987222e-04  -3.9091377e-04   6.2120357e-04  -6.6174328e-04  -7.8388402e-04  -1.0487499e-03   1.7403169e-04   1.7687551e-03   3.2758995e-04   4.2577393e-04  -1.2945010e-03   1.5601815e-03   4.8161129e-04   1.0448298e-04  -1.3972045e-04   3.1074620e-04   8.3857420e-04   2.7109438e-04  -7.0288326e-05   2.0026961e-05   6.3658546e-04   5.8022118e-03   5.1004189e-04   1.3756477e-03  -5.6221522e-04  -2.1608434e-04   8.5089728e-03  -5.9781054e-05   2.6797302e-04
   5.6010362e-04   5.9677608e-04   5.1222823e-04   3.8010586e-04   4.1926408e-04   8.2698866e-04   6.7142071e-04   1.3100614e-03   5.0431443e-04   4.6708222e-04  -6.9439535e-05   3.9486057e-04  -1.5565293e-04  -4.0238276e-05  -4.2450681e-04  -1.9738954e-04  -6.6338386e-04  -8.6652098e-04  -5.4728985e-04   2.9189885e-04   1.8773747e-04   6.8602862e-04  -1.0537002e-03   2.8499111e-04  -8.5930736e-04  -1.0278239e-03  -1.0800316e-03  -3.1038126e-04   1.4828126e-03   1.5931492e-04  -2.5844963e-03   2.2659960e-04   4.8396262e-04   5.3609583e-05  -1.8497799e-06  -2.9597859e-04  -5.3222879e-04   6.2871899e-04  -1.3466483e-05  -1.8109039e-04  -1.5115328e-04   3.3410074e-04   2.1033380e-03   3.0401887e-04   6.2008901e-04  -6.6206366e-04  -5.3301040e-04  -3.3663523e-03  -6.0486159e-04  -2.2536324e-04
   5.7306730e-05   2.5753706e-04   3.6070112e-04   1.9690538e-04   5.6920957e-04   6.7386363e-04   3.6013601e-04   3.7718765e-04  -4.3897011e-04   6.5136218e-04  -3.5247445e-05   5.5910519e-04  -2.1376350e-04  -5.2947769e-05  -5.2345154e-04   1.1474625e-04  -7.9361454e-04  -6.4332288e-04   4.6187220e-04   2.0180532e-04   7.3691626e-04   1.0614009e-03  -1.5764890e-04   1.9071092e-03  -4.7914693e-04  -8.0852740e-04  -1.1219010e-03   2.9762753e-04   6.3259376e-04   4.7893255e-04   2.6649660e-03   5.2491954e-04   7.9802872e-04   3.4232502e-04   3.2009761e-04   2.4829331e-04   4.0462252e-04   1.2293243e-03   8.4847736e-04   6.5149443e-04   7.4688421e-04   7.3223445e-04   8.0103223e-04   9.3087769e-04  -1.1376273e-04   2.3871874e-04   2.1405739e-04   4.3193758e-03   1.7150189e-04   5.5474776e-04
   1.3938043e-03   1.2830992e-03   1.3430438e-03   1.0590471e-03   1.2458886e-03   1.5654053e-03   1.1698732e-03   8.3952898e-04   1.7564180e-03   1.1351780e-03   5.1585265e-04   1.0073635e-03   1.8750661e-04   8.7001506e-05  -3.3028217e-04   1.3929782e-04  -5.9673504e-04  -5.2197062e-04   2.3754106e-03   1.2120217e-03   9.7217876e-04   1.2290868e-03   1.4441652e-04   2.6867629e-03  -3.5602349e-04  -7.0682669e-04  -1.0266508e-03   3.6548145e-04   1.8858969e-03   7.6320081e-04   1.5787177e-03   4.2032602e-04   5.8024313e-04   6.7943806e-04   6.0859241e-04   1.2778516e-03   8.8657864e-04   1.4208723e-03   7.6355424e-04   1.3527742e-03  -4.0865573e-04   7.3428097e-04   2.3004800e-04   1.0395643e-03   4.9846101e-04   4.1213052e-04   1.5499725e-04   5.9070135e-03   1.4504684e-04   5.3309120e-04
   1.0785761e-03   1.2641746e-03   1.1552833e-03   9.4088784e-04   8.7499502e-04   1.1869783e-03   1.0682574e-03   5.9038732e-04  -8.1980188e-04   9.1646338e-04   3.9769826e-04   7.8382983e-04   1.3047838e-04   1.4043797e-04  -5.7909766e-04   1.1070593e-04  -6.0671422e-04  -5.1324716e-04  -1.7567298e-03   4.2790064e-04   6.5932574e-04   1.1491588e-03   3.0135977e-04   1.2081621e-03  -6.9041469e-04  -7.9416449e-04  -1.0096135e-03   6.1593158e-04   2.8757493e-03   6.8383274e-04  -3.1951882e-03   1.0220597e-03   6.2201661e-04   7.7338167e-04   6.6354952e-04   3.6298059e-04   3.0504455e-04   1.2502213e-03   6.5531256e-04   1.2287822e-03  -2.9064430e-04   7.7705993e-04   4.2800568e-03   7.2395819e-04  -2.2091086e-03   2.8989726e-04   1.1068141e-05  -1.7272226e-03   2.7981747e-04   3.6557505e-04
   6.3631509e-04   8.9556689e-04   4.5932300e-04   6.9808436e-04   1.0181862e-03   1.2140082e-03   8.6100627e-04   1.1516667e-03   2.0584816e-04   5.9095654e-04   7.1350565e-05   6.0893467e-04   1.3630822e-05   1.4014932e-04  -3.7076100e-04   1.0923905e-04  -4.9082539e-04  -4.9643737e-04  -1.2307013e-03  -2.1137804e-04   2.8680713e-04   6.7411846e-04   1.3011276e-05   3.6628798e-03   5.7360908e-04  -8.9187996e-04  -9.9648267e-04   3.5812147e-05   1.4823742e-03   4.5472549e-04   9.7829907e-04  -4.2614504e-04   2.9024979e-04   2.4464988e-04   5.0249539e-04   3.3972485e-04   2.7322126e-04   1.0087355e-03   2.9067372e-04   3.9634848e-04  -4.7233018e-05   5.4586702e-04   1.1119973e-03   5.0837925e-04   7.9696321e-05  -1.5751114e-04  -2.4731306e-04   4.6041016e-03  -2.4962756e-05   9.6687931e-05
   6.9865823e-04   7.9573557e-04   1.2039097e-03   7.2144374e-04   9.4395329e-04   1.1097664e-03   7.5011328e-04   1.8139973e-03   9.9986501e-04   9.0566586e-04   2.7336300e-04   8.6574763e-04   2.1030208e-04   1.4022509e-04  -2.9179192e-04   2.7080369e-04  -4.4462620e-04  -2.8630593e-04   1.5842952e-03   1.4973189e-04   8.3260483e-04   1.0163845e-03  -2.8220098e-04   1.1328948e-03   6.6897500e-04  -5.9661269e-04  -8.7945856e-04   2.5888524e-04   1.1836401e-03   8.4617431e-04  -1.1079414e-03   9.0318767e-04   7.4101274e-04   9.6431834e-04   9.4666076e-04   1.5145987e-04   9.2414540e-04   1.5845801e-03   1.3036522e-03   1.7648854e-03   1.1130564e-03   6.9684174e-04   3.8785329e-03   1.1802451e-03   1.6035128e-03   5.7966431e-04   3.5626435e-04  -6.2619350e-03   4.9852196e-04   7.0744933e-04
   1.5266116e-03   1.4821426e-03   1.9061894e-03   1.2126772e-03   1.4945541e-03   1.4643455e-03   1.6065688e-03   1.1210949e-03   9.2919334e-04   1.1682013e-03   6.3468103e-04   9.1694959e-04   3.5775037e-04   3.1873371e-04  -5.0057297e-05   6.1660504e-04  -3.4936937e-04  -4.4191715e-05  -8.6745911e-04   4.4511256e-04   9.4310450e-04   1.3659475e-03   2.9514552e-04  -1.8356375e-03   1.3340950e-03  -4.5054001e-04  -7.1347936e-04   6.5942935e-04   1.3708315e-03   9.5399324e-04   5.9507519e-04  -3.3165721e-05   7.4507296e-04   1.1907485e-03   9.8759320e-04   9.9994987e-04   1.2825427e-03   1.5788210e-03   1.0098359e-03   1.3187921e-03   1.7746645e-03   8.6608157e-04   5.7178037e-03   1.1401018e-03   2.2220614e-03   5.2439020e-04   3.0329716e-04  -2.0587411e-04   2.1829861e-04   6.2727550e-04
   1.1901845e-03   1.3424704e-03   1.3070101e-03   1.0418521e-03   1.3269474e-03   1.6762315e-03   1.3887734e-03   9.5179235e-04   5.4660073e-04   8.1782928e-04   5.3515763e-04   9.3336205e-04   3.5594386e-04   3.0662649e-04  -1.2271672e-04   4.2598724e-04  -2.1931919e-04  -1.4504608e-04  -8.3268009e-04   6.7545730e-04   5.7027384e-04   9.7355654e-04  -6.9724559e-04   7.8998081e-04   5.5910170e-04  -5.8130530e-04  -8.1327255e-04   2.5944144e-04   1.9672180e-03   7.8505336e-04  -4.0813545e-03   9.8447839e-04   6.6523690e-04   1.2073978e-03   7.6715584e-04   5.0785369e-04   7.7997625e-04   1.3879457e-03   4.8217090e-04   1.5482835e-03   4.8890192e-04   7.0614647e-04   1.2168277e-03   8.5192168e-04   1.0265075e-03   1.8993241e-04   5.0981344e-05   9.9326251e-03   1.5027641e-04   3.7890891e-04
   8.4753841e-04   9.3780074e-04   6.6348678e-04   5.8273808e-04   5.8551633e-04   1.2703603e-03   1.0395163e-03   5.8993424e-04  -2.3463211e-04   2.6968261e-04   9.0623573e-05   5.9232244e-04   2.2640169e-04   2.7877168e-04  -8.2979124e-05   4.4868770e-04  -9.5354822e-05  -2.7736428e-04  -6.0268200e-04   1.6011603e-06   1.4457919e-04   7.2585524e-04  -7.9986195e-05   9.1877946e-04   3.4788417e-04  -5.6177308e-04  -7.7601109e-04   1.1675632e-04   1.0828191e-03   5.4924097e-04  -9.2459656e-04   1.3665304e-03   1.3101076e-04   4.4603134e-04   5.5502087e-04   6.7600334e-04   6.9899764e-04   1.1120253e-03   5.4240460e-04   9.0651453e-04  -8.4583677e-05   1.8428487e-04   9.0797700e-04   6.1225775e-04  -2.5829504e-04   3.5811120e-04  -2.7550320e-04   9.3051475e-03  -4.0126525e-04   3.1007736e-04
   7.2148681e-04   8.5817097e-04   1.0374323e-03   8.0224872e-04   8.9199573e-04   1.2462774e-03   1.1268171e-03   6.7600620e-04   7.7468890e-04   5.5599562e-04   8.4612337e-05   7.8912644e-04   3.6037096e-04   2.2873825e-04  -1.1915079e-04   5.8330363e-04  -3.3144985e-04  -2.8365661e-04  -6.1877980e-04  -2.0805311e-04   6.7453244e-04   9.8411634e-04   3.3026328e-04   1.3323750e-03   3.9470734e-04  -3.3709678e-04  -7.1008998e-04   7.1851379e-04   1.5484644e-03   8.6689420e-04   1.5189340e-03   1.5472970e-03  -3.6407766e-04   6.4633705e-04   7.3297101e-04   1.4026667e-03   1.1839647e-03   1.6347729e-03   1.4108357e-03   1.5355706e-03   1.5557582e-03   6.8396021e-04   2.9504884e-03   1.0045681e-03   4.3186061e-05   7.4087945e-04   7.6324526e-05  -2.3033498e-03   3.0010761e-04   5.6285819e-04
   1.3342996e-03   1.2096748e-03   1.4768245e-03   1.0787627e-03   1.2949929e-03   1.2377939e-03   1.6503042e-03   9.7493606e-04   6.6973572e-04   7.1704848e-04   2.8888907e-04   4.3207197e-04   3.7670034e-04   2.3619467e-04  -1.1531427e-04   5.0230906e-04  -2.9707304e-04  -2.4089159e-04  -2.3891097e-04   4.5424834e-04   7.3245302e-04   1.0170040e-03   1.1894236e-04   2.3797930e-03   8.8485470e-04  -3.2587623e-04  -7.0298591e-04   5.8068970e-04   1.9348738e-03   9.4049767e-04   3.4649079e-04  -5.9612375e-05   4.2496176e-04   6.4006849e-04   8.0216455e-04   3.3317698e-04   1.0037024e-03   1.5200875e-03   1.1197993e-03   1.4809918e-03   3.7465760e-04   4.7117204e-04   4.7619874e-03   9.4583759e-04   1.4601933e-03   5.5998471e-04  -6.6474502e-05  -2.1350726e-03  -1.6990960e-04   3.9284443e-04
   9.5412898e-04   9.9160464e-04   9.5386524e-04   8.2021073e-04   1.1043580e-03   1.1971513e-03   1.2613747e-03   7.6347939e-04   9.4080443e-04   3.7727552e-04  -2.0195554e-05   6.8801030e-04   2.4785788e-04   1.7140781e-04  -1.2295027e-04   3.3313839e-04  -2.9400791e-04  -2.7681471e-04  -1.0339957e-04   2.0794313e-04   3.7688526e-04   7.3457102e-04  -4.4786776e-04   3.0160968e-03   1.5276289e-03  -3.7640292e-04  -6.0915010e-04   2.3663850e-04   4.6050129e-04   7.4885716e-04  -2.7482721e-03   4.4763213e-04   2.0964832e-04   5.8159663e-04   6.8329729e-04   4.3787234e-04   5.9208530e-04   1.1827871e-03   9.2677359e-04   1.6539067e-03   1.3018595e-03   2.2385795e-04   4.5028203e-03   6.6841923e-04   3.6499684e-04   2.6496663e-04  -2.4260987e-04   5.2657566e-04  -1.7637288e-04   4.3915195e-05
   7.1840110e-04   5.9084984e-04   9.6719997e-04   4.1065543e-04   4.9538899e-04   6.0437212e-04   7.1765366e-04   9.4239425e-04   6.6596683e-04  -5.7762067e-05  -3.8201621e-04   1.2331273e-04   4.1720661e-05   1.9454661e-04  -5.4670199e-05   3.1928479e-04  -2.0311306e-04  -4.6997127e-04  -5.5898982e-04   2.1920969e-04   2.3628172e-05   3.9819191e-04  -1.7910523e-04  -7.6894683e-04   1.1418327e-03  -2.6660081e-04  -5.6751567e-04   2.6585878e-04   3.1544321e-04   4.4052032e-04  -3.6120767e-04   4.7197385e-04   4.2352887e-04   5.3615443e-04   4.9285620e-04   1.0201361e-03   4.0123970e-04   1.1691366e-03   9.5288910e-04   7.2480412e-04  -1.7389243e-04   1.8079374e-04   4.8057269e-03   6.9400284e-04  -7.7251060e-04   4.3411396e-04  -2.3091238e-04   5.8647725e-03  -2.3488900e-04   2.7388940e-04
   1.0773370e-03   8.5965224e-04   1.4277860e-03   8.6407992e-04   1.0096297e-03   7.7605847e-04   7.4416795e-04   1.8049433e-03   6.8741286e-04   5.1782856e-04  -1.2670826e-04   9.0528908e-04   2.1060309e-04   2.1602873e-04  -1.0289204e-04   3.4868962e-04  -3.7734993e-04  -4.5849862e-05   2.8027469e-04   3.8542991e-04   6.5304205e-04   1.0786438e-03   7.0417265e-04   2.8267695e-04   7.4281357e-04  -1.3998164e-04  -4.7132425e-04   4.9786223e-04   4.1221097e-04   7.7155244e-04   1.1954644e-04   7.0694910e-04   3.2458888e-04   7.7534461e-04   6.3336478e-04   1.4759380e-04   9.1417646e-04   1.3525119e-03   1.4940711e-03   1.3703274e-03   8.6077995e-04   3.9237636e-04   6.0429488e-04   6.3281821e-04  -1.9348809e-04   4.5036935e-04   1.3388162e-05  -1.5797265e-02  -1.0215100e-04   4.7349333e-04
   1.2596856e-03   7.2545768e-04   1.2320069e-03   7.7797298e-04   1.0642507e-03   7.6009729e-04   1.0988434e-03   9.0321118e-04   8.1165141e-04   2.9449342e-04  -2.1140897e-04   6.4207189e-04   1.9075267e-04   1.9303488e-04   3.3676839e-05   1.7566035e-04  -2.2232918e-04  -9.6292817e-05   1.3829775e-04  -2.6590723e-04   4.6155442e-04   6.6951162e-04   1.8622517e-04   4.8836326e-04   1.8444596e-04  -1.3153290e-04  -4.2568592e-04   4.6865392e-04   1.4288337e-03   6.3526764e-04  -1.3780650e-03  -6.8684363e-05  -6.8034278e-04   5.7128241e-04   3.9841485e-04   1.9169236e-04   4.8160195e-04   1.1246777e-03   1.3535138e-03   1.3203946e-03   9.9385018e-04   2.1384376e-04   3.6502129e-03   4.5149360e-04   1.2983747e-04  -3.0385406e-06  -3.9968421e-04   2.0275344e-04  -3.2951610e-04   1.8871629e-04
   7.0339057e-04   2.8462621e-04   8.9288462e-04   3.6352448e-04   7.3442044e-04   4.3711349e-04   4.5030375e-04   3.7098493e-04   7.4540247e-04  -1.6396474e-04  -5.3519098e-04   8.1575876e-05   4.5400971e-05   8.3462073e-05  -2.6125850e-05   2.0263491e-04  -1.9345827e-04  -1.8469119e-04  -6.7707332e-04  -1.4335805e-04   1.2522904e-04   3.5390662e-04   1.4290254e-04  -1.4628781e-03  -1.6989547e-04  -1.8461846e-04  -4.6926594e-04   4.0728864e-04   7.7092747e-04   3.4825312e-04  -1.9062451e-03  -1.4719554e-03   1.0989290e-03   4.3229647e-05   2.0398911e-04   9.5055970e-05   6.2221334e-05   6.4821716e-04   3.3564286e-04   5.6344800e-04  -1.0108174e-04  -7.1253271e-05   2.0314180e-03   1.3416809e-04  -1.0102240e-03   7.5830729e-04  -6.8045600e-04  -4.6953307e-03  -5.9376436e-04  -2.1282991e-04
   2.1815879e-04  -5.7726837e-05   5.0555589e-04   7.4497795e-05   5.8001938e-04   3.4225604e-04   6.5353763e-04   8.5205794e-04  -8.7783759e-04  -4.0298401e-05  -6.4056757e-04   1.7661898e-04  -1.4149149e-05   6.9839462e-07  -1.2194180e-04   1.1968243e-04  -3.0869100e-04  -9.5506999e-05   1.3804600e-03  -1.5801568e-04   4.8138216e-04   6.7667995e-04  -4.1543401e-04   2.4873405e-04   1.9622584e-04  -1.6972721e-04  -4.5648110e-04   6.2415638e-05   1.1131715e-03   5.1429897e-04   1.1234372e-03   1.8766540e-04  -1.4859978e-04   4.3442266e-04   2.6689211e-04   2.9324240e-04   7.9604931e-04   1.0226669e-03   1.3165139e-03   1.2311302e-03   8.5451186e-04   4.6081890e-04   4.4453065e-03   5.1875628e-04   2.1386705e-04   6.7599281e-04  -1.0158038e-04  -3.8510223e-03   2.1890581e-05   3.5816655e-04
   1.1706179e-03   5.4319197e-04   1.3382334e-03   6.2029745e-04   1.1834701e-03   6.5262086e-04   8.4333500e-04   1.9181940e-04  -4.1026631e-04   3.0823814e-04  -4.5933211e-04   4.0999133e-04   8.3387626e-05   9.5204086e-05  -1.3220272e-04   2.9386865e-04  -3.8808651e-04  -5.3327429e-05  -1.2286055e-03   1.5197603e-04   6.1553082e-04   5.5406668e-04   5.7425464e-06  -1.3911196e-03  -3.9643704e-04  -1.5623523e-04  -3.5774603e-04   3.1942912e-04   7.8124167e-06   5.7120807e-04   8.7520538e-04   6.0334604e-04   1.7702291e-04   6.2027917e-04   2.5772559e-04  -3.4192399e-04   1.8962180e-04   1.0031150e-03   7.3588744e-04   1.2379315e-03  -1.0795845e-03   1.2255450e-04   6.8244860e-03   7.1514671e-04  -2.8163896e-04   1.6148122e-04  -2.2877641e-04   2.1459379e-03   4.8526024e-05   5.5854418e-04
   7.7117066e-04   3.0387501e-04   7.9521548e-04   4.1344811e-04   7.2177139e-04   3.3746235e-04   6.2959682e-04   2.9861760e-05  -5.0648836e-05   6.7734160e-05  -5.2780606e-04   2.5346942e-04  -5.1107087e-05   1.0297671e-05   1.3965184e-05   7.0225440e-05  -3.3956024e-04  -2.4384836e-04  -2.2576639e-04  -3.0425942e-04   3.4890298e-04   4.5737444e-04  -1.3054340e-03   1.1564942e-04   1.1486643e-03  -7.6692217e-05  -2.6603849e-04   1.6288775e-05   6.6098559e-04   2.9945673e-04  -1.0133243e-04   3.9009753e-04   2.4492166e-04  -1.5947453e-04  -4.9229011e-06  -3.6194347e-04   1.8577100e-04   5.5419683e-04   7.6945487e-04   6.3154480e-04  -6.7587092e-04   1.0777506e-04  -1.3413015e-03   2.1312064e-04   8.4379973e-04  -2.1551093e-04  -3.0062936e-04   4.3083769e-03  -2.0802866e-04  -2.0357726e-05
   3.2486263e-04  -1.2609642e-04   1.8386541e-04  -3.6673420e-05   2.1489523e-04  -2.8033688e-05   7.7353143e-05   3.8855535e-04  -1.4605179e-03  -3.5146103e-04  -8.1046962e-04  -1.0046318e-05  -8.6444030e-05  -3.9193612e-05   1.0995343e-04   2.1955238e-04  -2.9304283e-04  -1.5233996e-04  -3.6849189e-04  -5.8408128e-04  -7.2480922e-05   2.5041593e-04   6.0016686e-05  -8.7269116e-04   6.5307372e-04  -2.4152242e-04  -2.8765417e-04   2.8935639e-04   5.8503971e-05  -3.7347447e-05  -3.1691638e-03  -3.3961574e-04   3.9163465e-04   8.0182763e-05  -2.8776002e-04  -2.3216696e-04   1.0273357e-04   1.7860334e-04   3.0840220e-04   5.9153943e-04  -2.0175346e-03  -1.3409638e-04   1.4101177e-03   9.4888332e-05  -6.9257349e-04   7.3298179e-05  -2.5442045e-04  -8.6107180e-03   2.0294018e-04   1.5125763e-04
   5.6602969e-04   1.6840994e-04   1.1132291e-03   3.5223537e-04   6.9098204e-04   1.2319916e-04   3.6624499e-04   1.5697906e-04   6.6632005e-05   2.2151317e-04  -6.1079627e-04   4.4871081e-04  -3.5929777e-05  -1.7072761e-06   7.7594566e-05  -4.3661836e-05  -3.2595749e-04  -8.6517270e-05   9.8182319e-04   2.5819894e-04   6.4347376e-04   7.1856362e-04  -2.3862043e-04   1.8752072e-03  -5.9300032e-04  -9.9652701e-05  -1.7891660e-04   4.4549015e-04  -7.8047317e-04   3.2359213e-04  -1.3734621e-04  -5.2177743e-04   5.7667331e-04   3.5292830e-04   6.6442903e-05  -2.7625591e-05   7.0241716e-05   6.7634211e-04   7.7678135e-04   2.7406681e-04   4.9214368e-04   4.2470053e-04   1.7889851e-03   4.9725152e-04   4.3696712e-04   3.9127897e-04   2.6178019e-04  -6.1572704e-04   3.4682633e-04   4.9149856e-04
   9.3866361e-04   3.5864764e-04   9.9779514e-04   4.8193359e-04   8.8658952e-04   5.7036534e-04   7.4806879e-04  -9.5744508e-05  -9.7156526e-04   2.9623622e-04  -3.8243891e-04   3.7188397e-04   1.3486700e-04   6.1111881e-05   2.0454887e-04   1.3239721e-04  -3.0963909e-04   6.2627252e-05  -1.1721856e-03   1.0168849e-04   5.9482385e-04   7.3723064e-04  -6.4562242e-05  -1.5468965e-03   1.0951010e-03  -7.5944372e-05  -1.4245237e-04   3.2606383e-04  -4.4917723e-04   2.2995086e-04  -8.7701611e-04  -6.3322851e-04   5.4991513e-04   2.8419361e-04  -1.0387414e-05   1.9886595e-04   2.0891862e-04   5.1519269e-04   5.2906043e-04   6.3168613e-04   5.2875147e-04   2.6820911e-04   1.6948368e-04   4.9912906e-04   2.0772966e-03  -8.1757760e-05   1.2389259e-04   8.2560796e-03   2.9763693e-04   2.8358991e-04
   5.5771414e-04   7.8550074e-05   5.2184809e-04   1.6590922e-04   4.4355498e-04   3.2543921e-04   2.1666101e-04  -4.9408909e-04  -7.0320838e-04  -1.1815784e-04  -6.7657209e-04   1.6332571e-04  -1.1901378e-04   6.0684182e-05   2.3364637e-04  -9.9433979e-05  -2.8368883e-04   3.9470394e-04  -1.1348750e-03  -9.7490753e-05   2.3804874e-04   2.6059427e-04   2.4695962e-04   1.6449880e-03   1.0004332e-03  -1.3452166e-04  -6.3242253e-05   2.3212342e-05  -4.1696845e-04  -2.9585748e-05   1.3526995e-03   3.5320528e-04  -4.2432619e-04   2.5570800e-04  -1.5771802e-04  -3.0354029e-04   3.0183735e-05   1.5595494e-04   4.0030496e-05  -1.1142185e-05   7.3456921e-04   3.7464063e-04   6.2478246e-04   2.0457679e-04  -8.9386094e-04  -5.1134976e-04  -2.1973415e-04  -9.0272399e-03   1.8841373e-04   4.5110097e-05
  -2.5816270e-04  -3.7513877e-04   6.9953909e-05  -3.2784985e-04   2.1995527e-04  -1.7469806e-04  -3.2103449e-04  -5.5969926e-04  -9.2651864e-04  -5.5880006e-04  -8.0685242e-04  -5.3879817e-04  -1.9136691e-04  -1.9276937e-05   2.6698902e-04   1.0899641e-04  -2.6595930e-04   4.6193156e-05  -6.4034888e-04  -6.9106312e-04  -2.7870436e-04  -2.4495160e-04  -3.0508896e-04   1.2268143e-03   6.2275049e-04  -1.7249618e-04  -5.3740361e-05  -6.0284776e-05  -1.1901893e-03  -3.6373376e-04   7.1679347e-04  -9.4952743e-04  -5.9394888e-04  -4.4861392e-04  -4.2751952e-04  -3.2868708e-04  -3.7007447e-04  -2.8015368e-04  -1.8063121e-04  -1.3804344e-04  -7.7058567e-04  -2.3788396e-04   8.0917624e-04  -2.5712579e-04  -1.0978966e-03  -8.3026395e-04  -6.1728945e-04  -3.2346700e-03  -1.4927892e-04  -4.3155823e-04
  -5.6136021e-04  -8.7439432e-04  -1.5558249e-04  -4.6252771e-04   4.9576850e-04  -4.6328281e-04  -5.3871318e-04   7.5264298e-04  -1.3327469e-03  -2.0171796e-04  -8.5990736e-04   4.1473355e-05  -7.5066782e-05   1.8547398e-05   1.0538033e-04   2.8903503e-04  -2.7094266e-04   1.1600331e-04   2.9453950e-04  -6.5778114e-04   3.5238065e-04   3.8777629e-04  -6.0265727e-04   2.6716755e-03  -2.6476817e-04  -1.3154547e-04  -1.1519701e-04   8.5640211e-05  -6.0371956e-05  -6.0612037e-05  -2.6330852e-03  -1.4678171e-03  -1.3771362e-03  -1.7342607e-04  -2.3090943e-04   7.7159195e-05   1.9288850e-04   3.9158663e-04   6.9953391e-04   3.5784612e-04  -6.4848841e-04   8.8401554e-05   5.2310298e-03   4.4445193e-04   2.3041177e-04  -4.2824546e-04  -6.3995743e-05  -4.6610665e-03   1.6160418e-04   3.8202520e-04
   5.8270100e-04   2.3779305e-04   9.6351595e-04   2.2452872e-04   2.4002351e-04   4.3631360e-05   2.7308537e-04  -1.1318396e-05  -4.8313194e-04   5.6183784e-05  -4.9637177e-04   2.8712783e-04   1.6993762e-04   9.5772455e-05   1.9472264e-04   3.7690610e-04  -1.3407654e-04  -1.5333200e-05   5.1817769e-04  -8.2411512e-05   4.9148564e-04   5.9468840e-04  -5.0379307e-04   4.8094062e-04   1.2277036e-03   4.9195718e-05  -4.1573319e-05  -7.7324250e-05  -5.7563407e-04   8.0105106e-05  -1.8361212e-03   1.5829071e-04  -7.2977977e-04  -4.2827032e-05   2.5968162e-05  -2.5452446e-04   1.2141106e-05   3.4127355e-04   6.4024003e-04   4.8224558e-04  -1.4367934e-04   4.3093234e-05   5.2853073e-03   3.9090496e-04   4.7098394e-04   6.7875662e-06  -1.1388131e-04  -1.2639401e-02   7.8811514e-05   2.2877434e-04
   1.9024892e-04   6.6474320e-05   3.3375181e-04  -1.1843573e-05   3.2289769e-04   2.1774312e-04  -3.6630661e-06   6.1755494e-04  -1.8276348e-03  -2.4351943e-04  -6.2976836e-04   3.2850658e-05   1.0175083e-04   1.1194472e-04   1.8857922e-04   1.5715029e-04  -1.5039874e-04  -7.8348217e-05  -2.2045735e-03   2.1108134e-04   1.7045888e-04   1.6667263e-04  -2.6411304e-04  -2.1358296e-04   3.7092634e-04   1.5815457e-04   1.9891027e-05   6.6659115e-05  -5.1158870e-04  -8.4503248e-05  -4.5556627e-04  -9.8266231e-04  -1.9197269e-04   1.4792653e-04  -2.0835013e-04  -8.6247164e-04   2.1973308e-05   1.4340271e-04   2.2837165e-04   5.0143848e-05  -6.4973242e-04  -1.3897003e-04   4.2819013e-03   1.1463204e-04  -1.3613182e-03  -2.2707904e-04  -3.7307502e-04  -4.9936571e-03  -2.0378733e-04  -1.7275628e-04
  -2.3873278e-04  -4.1394107e-04  -4.2788473e-05  -4.3347731e-04  -1.5615071e-04  -2.3862360e-04  -3.0008968e-04  -5.4004404e-04  -9.0745438e-05  -7.4514037e-04  -8.4277062e-04  -3.9215421e-04  -2.8687287e-05   9.8077588e-05   2.1001106e-04   2.7110279e-04  -4.0982177e-06   7.6532240e-05  -2.3912340e-03  -6.4939127e-04  -3.1986478e-04  -1.9720156e-04  -2.1393000e-04   7.4481155e-04  -6.0240418e-04   2.5620009e-05  -9.4832776e-06  -1.1904829e-04  -5.5105519e-04  -3.8836407e-04  -1.0423628e-04   1.5097073e-03  -4.7743969e-04  -5.3022197e-04  -3.9547231e-04  -6.5124658e-04  -4.9182831e-04  -2.9499602e-04  -1.8983467e-04   1.6132105e-04  -1.3456986e-03  -4.1615608e-04  -1.1519315e-03  -2.2314665e-04  -3.2197201e-04  -5.5169564e-04  -8.3309226e-04   4.5445142e-03  -2.6190141e-04  -6.1401579e-04
  -9.2233537e-04  -9.9492865e-04  -8.7457563e-04  -1.0011580e-03  -5.5000116e-04  -5.0264865e-04  -7.7656668e-04  -2.2847985e-04   1.1765837e-03  -1.2625423e-03  -1.3134300e-03  -8.9665438e-04  -2.2271668e-04  -5.4883836e-05   1.8954847e-04   2.4925912e-04  -1.1214196e-04   1.1824090e-04  -1.3075349e-03  -9.2493603e-04  -8.4417587e-04  -5.5954157e-04  -5.0028868e-04  -7.8930834e-04  -9.4717056e-05  -1.2377719e-04  -8.4857638e-05  -4.6542528e-04  -6.3938624e-04  -6.6980813e-04  -1.4034435e-03   2.5822278e-04  -2.2844729e-04  -6.3270755e-04  -6.2015286e-04  -5.1365414e-04  -6.2959688e-04  -2.4719298e-04   3.7800924e-05  -9.6073716e-05  -5.9551618e-04  -3.6526815e-04  -2.8948816e-03   5.8990787e-05   8.0162287e-04  -3.8654814e-04  -6.4492045e-04   2.8703553e-03  -2.4170024e-04  -1.2990541e-04
  -1.5562413e-06  -2.4647210e-04   3.9907146e-04  -1.9048262e-04   2.0113678e-04  -3.7054467e-04  -5.1613193e-04  -3.9940287e-04  -5.6195410e-04  -2.1448180e-04  -7.4846332e-04  -1.4063947e-04   5.3577493e-05   7.8201068e-05   3.3630864e-04  -2.2924472e-05  -1.2874194e-04   1.7008670e-04   8.3374057e-04  -5.1715902e-05   2.4343590e-04   4.5975100e-04  -2.2763637e-05  -1.8353879e-03   3.4114235e-04   8.3826410e-05   5.2889369e-05  -3.3755257e-04  -5.1308435e-04  -8.7479879e-05  -6.1579351e-04  -3.5222981e-04  -1.0443116e-03  -4.0423704e-04  -1.4594164e-04  -8.5083739e-05  -2.0639003e-04   6.0102833e-05   2.6299877e-04   1.5273067e-04  -2.9772535e-04  -3.7085311e-04   3.0449310e-03   1.9352275e-04  -8.4671844e-04   3.8705333e-04  -4.3221258e-04  -4.1262354e-03   5.3835749e-05   1.2387422e-05
   2.3638011e-05  -1.3706766e-04   1.6884808e-04  -2.3160098e-04   2.0357499e-04   2.2671120e-05  -3.2483388e-04   9.3592081e-04  -2.8686307e-03  -3.5538847e-04  -7.1021449e-04  -1.4651881e-04   1.1282026e-04   5.7173405e-05   1.9870140e-04   4.4711816e-04  -8.1853395e-05   2.2747558e-04  -3.0612496e-03   4.6051698e-04   7.8428246e-05   3.9139974e-05   1.6401707e-05   1.3207522e-03  -1.1449495e-03   4.6582172e-05   1.3058668e-06  -1.7555161e-04  -4.5469022e-04  -1.3346129e-04   8.5337501e-04  -1.6125884e-04  -2.8025952e-05  -5.8916095e-05  -2.5354238e-04  -3.2628523e-04  -2.8329305e-04   3.7583381e-05   3.2054749e-04   5.4189884e-05  -3.2467570e-04  -3.5083600e-04  -3.2779083e-03   1.1522328e-04   2.8173655e-04  -6.9126429e-05  -6.4318045e-04  -6.1360202e-03  -4.8947189e-04  -1.6687597e-04
  -2.1449740e-04  -6.1480916e-04  -3.3326933e-04  -6.6409865e-04  -1.7812843e-05  -3.6007722e-04  -2.9367034e-04   1.6979240e-04  -1.9849704e-03  -7.7991054e-04  -9.4134430e-04  -6.3453085e-04  -1.1028376e-04   4.1923264e-05   2.8268227e-04   2.0929545e-04  -5.3465187e-06  -6.2749583e-05   9.8020158e-05  -5.0221139e-04  -3.8190515e-04  -2.8676254e-04   2.0486732e-04   9.7349792e-04   1.2097986e-03  -2.1363585e-06  -9.4148018e-06  -2.1219185e-04  -1.1484941e-03  -3.8282297e-04  -6.9258804e-04   5.3134601e-04  -3.7218034e-04  -3.7256494e-04  -3.8438366e-04  -3.4180537e-04  -4.3919758e-04  -2.6000818e-04  -1.3169237e-04  -6.9287373e-04  -9.4430614e-04  -6.1127497e-04   1.4942457e-03  -2.5566175e-04  -5.5084022e-04  -7.5065094e-04  -1.0288684e-03   2.3855499e-03  -4.4563785e-04  -4.4896675e-04
  -1.3643282e-03  -1.1782178e-03  -1.1285479e-03  -1.2237957e-03  -6.6848478e-04  -7.3279988e-04  -1.1183048e-03  -3.3676368e-04  -2.0999024e-03  -1.3480731e-03  -1.5151409e-03  -1.1339089e-03  -2.0791212e-04  -2.0868063e-05   1.0582459e-04   1.3257137e-04   1.2585660e-04   1.0896466e-04  -2.1230481e-03  -1.6264598e-03  -9.3543995e-04  -1.0398026e-03  -5.6920951e-05  -1.3140700e-03   1.0115309e-03  -5.7548346e-05  -1.5661495e-05  -4.5502491e-04  -1.5517414e-03  -7.6784001e-04  -9.8560646e-04  -1.5419641e-03  -1.3347798e-03  -9.5072726e-04  -6.8440934e-04  -1.5672784e-03  -1.2210385e-03  -7.2514138e-04  -7.6222484e-04  -1.1015913e-03  -2.1076840e-03  -1.0060245e-03  -7.0206390e-04  -7.0281280e-04  -1.3325171e-03  -1.3324445e-03  -1.5013298e-03  -2.7209159e-03  -8.8155660e-04  -1.0866477e-03
