  -6.1806015e-05   1.9194526e-04   7.3636434e-04  -3.1241224e-04   1.5273097e-04   4.3499973e-04   5.4273690e-04   7.7101763e-04   1.4768436e-04   1.2913699e-03   2.4729132e-04   2.0576196e-04   1.3377606e-03  -9.3180372e-04   4.2987725e-04  -1.1999381e-03  -1.6880223e-03  -1.8756161e-04   1.0795053e-03   1.5497892e-03   9.9984137e-04   1.1281775e-03  -7.3683506e-04   2.6890999e-03  -1.3130854e-03  -6.5095455e-04   3.8327681e-04  -8.1854669e-06  -2.8447353e-04  -2.6019695e-04   1.5789781e-03  -2.2579571e-04   4.9515255e-04  -1.7597715e-04  -5.5819948e-04   4.0831428e-04   9.0474274e-04  -6.7713566e-04   1.9645438e-04  -1.2788649e-04   6.1943749e-04   4.0175457e-04   2.5407823e-03  -5.9280451e-04   1.9182072e-03  -5.6725057e-05   6.4395793e-04   1.8145057e-03   1.9979312e-03   8.4784470e-04
  -6.9172718e-05   2.1207397e-04   5.1590538e-04  -2.6884113e-04   3.7840295e-05   3.7521266e-04   4.2562492e-04   1.5518619e-03  -4.1177154e-05   1.2199514e-03   5.8828828e-05   2.2960136e-04   1.4854567e-03  -1.0181575e-03  -4.8953309e-05  -1.2457226e-03  -1.7380232e-03  -2.8687718e-04   5.3588656e-04   1.9523370e-03   1.0359376e-03   1.2848423e-03  -2.4178701e-04   2.1290542e-03  -7.8473194e-04  -5.7421479e-04   4.3851993e-04  -1.4758139e-04  -2.3949031e-04  -2.4704498e-04   2.1280216e-03  -7.4738567e-04   5.3275755e-04  -3.4062940e-04  -5.2313454e-04   4.8090462e-04   9.0305191e-05  -5.9249287e-04   5.5697794e-05   5.7593195e-05   2.4808614e-04   1.6462945e-04   2.3358287e-03  -5.0506770e-04   6.8247033e-04  -1.5009288e-04   2.9179483e-04   3.3560013e-03   1.8558558e-03   9.4965583e-04
  -2.4375790e-04   3.2622190e-04   1.8104796e-04  -1.2695370e-04   3.1698181e-04   7.4668438e-04   4.1688592e-04   1.9310762e-03  -1.1669798e-03   1.0389000e-03  -3.6472958e-04   3.3021686e-04   1.7774098e-03  -9.6555962e-04  -2.4229106e-04  -1.3502387e-03  -1.6635514e-03  -7.6325150e-04   3.8070863e-04   1.8250291e-03   1.1223931e-03   1.3807490e-03  -7.9963764e-04  -1.9000955e-04   6.9146231e-04  -3.7437823e-04   2.7210021e-04  -1.8708578e-04   1.7339073e-05  -2.4217206e-04   5.2798778e-04  -1.7005780e-03   7.4621569e-04  -3.4893700e-04  -4.8307161e-04   3.8644654e-04   4.9632444e-04  -5.9922133e-04  -1.1341404e-05   1.7102993e-04  -1.5121933e-04   6.4406064e-05   1.5579350e-03  -6.7008886e-04   1.8837905e-03   2.7057486e-05   5.8599853e-05  -1.8937513e-04   1.3898908e-03   6.4428413e-04
  -2.0549344e-04   3.5750325e-04   4.4046860e-04  -1.1214610e-04   1.6194592e-04   7.3201384e-04   1.7262004e-04   1.9089282e-03   7.7695382e-04   1.0766148e-03  -3.8877991e-04  -2.3809067e-05   1.7660124e-03  -1.0328153e-03   2.0634064e-04  -1.0376930e-03  -1.7900377e-03  -5.9990474e-04   1.8921042e-04   1.5429744e-03   1.2918690e-03   1.4106262e-03  -5.4049364e-04  -5.9870805e-04  -3.5602995e-04  -4.8186450e-04   1.8299092e-04  -1.6751318e-04  -3.7639975e-04  -2.5487703e-04  -1.1279774e-03   3.2581310e-04   2.0408901e-04  -3.8574907e-04  -5.2165048e-04   3.9555290e-04   4.0938533e-04  -6.6663825e-04  -1.7088842e-04  -1.9656754e-05  -6.1307807e-04   6.4607251e-05   1.3314425e-03  -6.2017312e-04   1.9135376e-04  -5.3597381e-04  -7.9771220e-05   5.6667323e-04   1.5906079e-03   4.8316063e-04
  -5.3084317e-05   3.5949217e-04   2.8678888e-04  -3.1136977e-05   4.0992527e-04   6.6803774e-04   2.6628308e-04   2.1493265e-03   6.5415967e-05   1.1816163e-03  -3.2633657e-04   1.2774068e-04   1.7253862e-03  -1.0608115e-03  -3.0690915e-04  -1.1490235e-03  -1.7528577e-03  -3.5976729e-04   3.3544452e-04   1.8406926e-03   1.3314978e-03   1.4731192e-03  -9.7777287e-04   9.6685428e-04   1.4239546e-03  -5.8196409e-04   1.5442712e-04  -1.2463328e-04  -9.9689190e-05  -2.2889850e-04   1.8566180e-03  -2.2388967e-04   1.0502742e-04  -1.4211918e-04  -5.6179403e-04  -9.5800904e-05   1.8105324e-04  -6.4731343e-04   5.8561227e-06   1.6312550e-04   6.5354089e-04  -3.1294730e-05   1.0905287e-03  -6.4443442e-04   1.9897387e-04  -3.3472144e-04  -4.4712680e-05  -6.8144058e-04   1.3660449e-03   5.6078983e-04
   9.2118709e-05   3.5224317e-04   3.9504367e-04  -1.1047267e-05   6.7401852e-05   8.9701317e-04   3.4415690e-04   1.5045403e-03   9.0711919e-04   1.0732511e-03  -3.9052902e-04   4.0987809e-04   1.5870183e-03  -1.1434472e-03   1.8437556e-04  -1.4797793e-03  -1.9680185e-03  -9.1840461e-04   2.0913144e-03   1.2830660e-03   1.4156058e-03   1.3994087e-03  -7.7558664e-04  -9.2102491e-05  -9.3060505e-04  -7.1290531e-04  -1.4191885e-04  -1.2873161e-05  -1.7536336e-04  -1.7673854e-04   1.5655801e-03  -1.0387647e-03   1.7763142e-04   1.3434129e-04  -5.3171982e-04   6.6848668e-05  -4.5353834e-05  -5.5950118e-04   2.1429641e-06   2.0898103e-04   6.5268989e-04  -7.1642491e-05   2.4240005e-03  -7.1826496e-04   1.6599537e-03  -4.8160867e-04   2.2887236e-06   2.0600860e-03   1.3389810e-03   6.4073200e-04
  -1.0199034e-04   4.2815899e-04   2.7801533e-04   5.2972416e-07   4.9744983e-04   8.3774712e-04   4.5608939e-04   2.3710162e-03  -5.7735248e-04   8.8693498e-04  -5.6815246e-04   2.7031731e-04   1.5929133e-03  -1.1845564e-03  -3.1542731e-04  -1.5200475e-03  -2.0297416e-03  -9.2942122e-04   1.2400737e-03   1.5119348e-03   1.1324470e-03   1.4927364e-03  -5.3024822e-04   1.2621367e-03   4.9985410e-04  -7.2671700e-04  -7.1904382e-05  -2.6684863e-04   4.7250978e-05  -1.5800114e-04  -6.7137706e-04  -5.6512357e-04  -4.2327755e-04   9.3274270e-05  -3.8305076e-04   1.9180922e-04   3.1612226e-04  -6.1449170e-04   7.7501230e-05   5.9546386e-05  -1.2641650e-04   1.7644605e-05   1.3015368e-03  -6.4631028e-04   2.0837729e-04  -6.1289122e-04   3.9413349e-06  -4.9005786e-04   1.3474461e-03   5.0015328e-04
  -3.9695998e-04   4.5780596e-04   3.2787709e-04   8.8171699e-05   6.5753586e-04   7.4666669e-04   3.8602497e-04   1.7101499e-03  -6.4453407e-04   9.7600691e-04  -6.2581059e-04   2.6250619e-04   1.6856627e-03  -1.1479639e-03   1.5416599e-04  -1.6944797e-03  -2.1927429e-03  -1.0375690e-03  -7.1938446e-04   1.6668191e-03   1.0594534e-03   1.6114829e-03  -5.6787982e-04   9.0304311e-05   1.6005513e-05  -5.9993600e-04  -1.3378620e-04  -1.1240393e-04   6.7989202e-04  -1.6599555e-04  -2.2186453e-03  -1.7713736e-04  -1.1627158e-05   2.4833433e-05  -5.8179488e-04   2.4763094e-05   2.8596120e-04  -5.6302256e-04  -5.3269738e-05   6.8711430e-05   2.2365706e-04   2.9700812e-05   2.5349213e-03  -6.1026611e-04   2.2847431e-03  -3.0369146e-04  -9.3586032e-06  -7.7871414e-04   1.3674623e-03   4.5549491e-04
  -4.1443942e-04   5.0170225e-04   2.6170613e-04   9.3770599e-05   5.5518595e-04   8.4188633e-04   1.8769794e-04   1.7836500e-03  -8.1043318e-04   9.7595196e-04  -5.4835319e-04   1.4102194e-04   1.5993940e-03  -1.2246640e-03  -1.7722213e-04  -1.6171978e-03  -2.2285797e-03  -1.2810723e-03   3.6722203e-04   1.6399025e-03   1.0861520e-03   1.4916731e-03  -1.0809288e-03   7.6157412e-05  -1.3828174e-03  -6.5673451e-04  -3.5229384e-04  -3.6853785e-04  -5.5517833e-04  -1.3677411e-04   2.6749747e-04   4.6571740e-04   3.3611816e-04   1.0379748e-04  -4.2907902e-04   1.7130135e-04  -1.1054811e-04  -5.4509897e-04  -8.4970714e-05   3.4054994e-04   1.6100387e-04   4.8470549e-05   2.2567601e-03  -5.0644303e-04   9.9686126e-04  -5.6656537e-04  -2.7838427e-05   1.1387077e-03   1.3694267e-03   4.8355927e-04
  -1.6389355e-04   5.2348519e-04   4.0603350e-04   1.0289544e-04   3.8609185e-04   9.8747073e-04   4.4797148e-04   2.1007692e-03   9.2403783e-04   9.7725063e-04  -5.9593457e-04   2.9120452e-04   1.5317678e-03  -1.1784246e-03  -3.3304936e-05  -1.9897560e-03  -2.3202451e-03  -1.5919863e-03   2.6725064e-04   1.6024297e-03   1.1318878e-03   1.6708082e-03  -3.8842938e-04   3.5573110e-05   1.6085007e-03  -8.3465996e-04  -4.2943333e-04   2.0852737e-04   1.1661562e-06  -1.1417551e-04  -4.1280710e-04  -1.3856055e-03   5.9778563e-04   2.7633947e-04  -4.0370564e-04   7.7401404e-05   1.7011986e-05  -4.9175753e-04   1.6833532e-04   1.6405180e-04  -2.1164661e-04   1.8287502e-06   1.2469452e-03  -5.2220200e-04   1.2256553e-03  -8.8712160e-04   4.7156536e-06   2.0089601e-03   1.3946195e-03   5.1894505e-04
  -2.5860855e-04   5.8495865e-04   6.1360880e-04   1.8266472e-04   3.4611090e-05   1.0825518e-03   2.2375697e-04   1.9447672e-03   1.5549248e-03   1.0340248e-03  -6.8178616e-04   5.3906674e-04   1.4259835e-03  -1.2065890e-03  -7.8452239e-04  -2.0496324e-03  -2.5882157e-03  -1.4407779e-03   1.0083843e-03   9.8334055e-04   1.1979555e-03   1.4839057e-03  -7.5556058e-04   1.3449392e-04  -9.8680507e-04  -6.0144981e-04  -5.8284111e-04   2.5419367e-05   3.8358755e-04  -7.7799152e-05   4.2840726e-05  -6.5494212e-05   9.0062147e-04  -1.3644547e-04  -3.7727010e-04   2.3414072e-04   9.2220565e-05  -4.3731084e-04   1.9095452e-04   2.9333998e-04  -1.0155533e-03   5.0856561e-05   1.5238411e-03  -6.2600482e-04   9.6589763e-05  -7.2354788e-04  -1.1035700e-05   3.3266016e-03   1.2337980e-03   4.7013565e-04
  -2.8553326e-04   5.1440933e-04   2.5052682e-04   1.8726932e-04   1.4083994e-04   9.0574072e-04   2.2419267e-04   1.5840406e-03   6.3318462e-04   1.0452530e-03  -7.0296909e-04   3.7542274e-04   1.5710861e-03  -1.1876300e-03  -4.1550584e-04  -1.5844798e-03  -2.2416045e-03  -1.3703757e-03   2.8555022e-04   2.2874626e-03   1.1880178e-03   1.4902445e-03  -5.7886558e-04   2.1409676e-05  -1.0378423e-06  -6.9302187e-04  -4.3469254e-04   7.8117464e-06   6.7179516e-04  -9.0064263e-05  -1.6967457e-03  -9.0164738e-04   2.5999191e-04   1.6847212e-04  -4.4007279e-04   6.2995539e-05   2.1721283e-04  -5.2514957e-04  -1.1370095e-04   2.4022230e-04  -4.0199469e-05   3.8734157e-05   1.7272665e-03  -6.0093508e-04   1.1483127e-03  -4.7984879e-04   1.3749882e-05   6.4935285e-04   1.2953499e-03   6.1573775e-04
  -2.5588789e-04   5.0789595e-04   5.1970745e-04   3.5068202e-05   1.6023176e-04   9.0693240e-04   5.1075523e-04   1.2695867e-03   1.2515072e-03   1.1492081e-03  -4.1605768e-04   2.3201463e-04   1.7979873e-03  -1.0448357e-03  -3.1096107e-04  -1.1556868e-03  -1.7548155e-03  -3.8542715e-04   2.4102209e-04   2.3238030e-03   1.1644836e-03   1.5176754e-03  -1.2361159e-05   2.8321655e-03  -2.1735732e-03  -4.4964495e-04   2.6990374e-04  -1.8872740e-04  -3.8670911e-04  -1.9513976e-04  -1.8644205e-03   1.7119615e-04   2.8268259e-04  -2.3905399e-04  -5.1157217e-04  -1.4412915e-04   6.9219916e-04  -6.9736317e-04  -1.3921125e-05   8.1172657e-05  -8.3787629e-04   4.0772396e-05   6.6255598e-04  -5.3861673e-04   5.0179020e-04  -4.2434345e-04   6.0894998e-04   2.9253627e-03   2.1539158e-03   8.9621841e-04
   2.5996246e-04   2.8930802e-04   8.6437410e-04  -2.5882953e-04  -4.9037999e-06   5.1651988e-04   6.6958659e-04   1.4766998e-03   1.0537512e-03   1.5404922e-03   5.2133779e-04   2.6294409e-04   1.4469950e-03  -1.0104459e-03   5.5020861e-04  -8.6805498e-04  -1.8964676e-03  -1.3984372e-04   1.5803043e-03   2.1083178e-03   1.2524747e-03   1.2034012e-03  -1.0116349e-04   3.6948515e-04  -1.1093840e-04  -2.1905286e-04   5.7782879e-04  -8.1617727e-05  -1.1404293e-04  -2.0111131e-04   1.7177374e-03  -1.0510775e-03   2.6484515e-04  -1.8603702e-04  -5.4264744e-04  -2.6704607e-04   1.2892028e-04  -8.1078720e-04   5.7247560e-04   6.9526554e-04  -1.0067557e-03   1.3466079e-04   1.0238664e-03  -5.4814713e-04   7.6343385e-05  -6.5219949e-04   5.5640080e-04   8.5565541e-04   2.1555675e-03   1.1417781e-03
   6.0961116e-04   1.9670298e-04   7.2699832e-04  -2.9010169e-04   4.6743215e-05   4.6936516e-04   5.3337723e-04   1.1438862e-03   8.9185043e-05   1.6236724e-03   6.2268320e-04   1.6302415e-04   1.2803068e-03  -9.7164116e-04   1.9752359e-04  -7.5030950e-04  -1.9345294e-03   2.0663286e-04  -1.2785430e-03   2.1858709e-03   1.2666205e-03   1.2332865e-03   3.7430636e-05  -9.1583328e-04  -9.5520844e-04  -2.9800902e-04   4.5083984e-04  -4.1386660e-04  -6.7183003e-04  -1.8187043e-04  -8.8011340e-04  -7.0756825e-04   3.4400384e-04  -2.8195072e-04  -5.7359855e-04   8.8527321e-04   1.1362121e-03  -8.3068374e-04   5.3692196e-04   5.4771524e-05   3.3093512e-04   2.4234476e-04   2.3420032e-03  -6.0443196e-04   3.5615763e-04  -3.4136410e-04   6.3928630e-04   2.7598473e-03   2.0592376e-03   9.1210712e-04
   2.0119439e-04   2.0367622e-04   1.0064837e-03  -3.2729976e-04   1.3438507e-04   4.5917049e-04   1.9809233e-04   5.8243348e-04   7.5577285e-05   1.7484642e-03   9.3182444e-04   1.5663046e-04   6.3218636e-04  -1.0003481e-03   2.5881783e-04  -6.2611117e-04  -2.5259175e-03  -1.4230802e-04   1.5680493e-03   1.8398254e-03   1.1879272e-03   1.1576430e-03  -5.6586403e-04  -4.1293664e-05  -2.8100415e-04  -8.5114455e-04   3.5729012e-04  -5.5568322e-04  -5.7803700e-04  -1.9121842e-04   1.5842363e-03  -1.2919992e-03   6.1537756e-04  -1.0647748e-04  -5.1227224e-04   7.8445976e-04   8.9765043e-04  -7.6928601e-04   1.3986792e-04   1.8243676e-04   8.5520005e-04   6.0430373e-04   1.4692242e-03  -6.7990768e-04   1.6025642e-03  -8.0120942e-04   7.2957552e-04   1.7669038e-03   1.9772020e-03   7.4009487e-04
   3.5645469e-04   2.1797717e-04   8.6760777e-04  -3.0041099e-04   7.9913269e-04   4.6477621e-04   4.5001306e-04   1.5673117e-03   1.8783418e-03   1.8028907e-03   9.1766880e-04   3.3681182e-04   4.9782719e-04  -1.0462464e-03   2.6211698e-04  -7.8152068e-04  -2.5770180e-03  -2.5249389e-04   5.9773790e-04   2.0270497e-03   1.0536659e-03   1.2725664e-03  -3.1445065e-04   5.8072875e-04  -5.4541201e-04  -6.7396654e-04   3.6408019e-04  -2.8264988e-04   2.0899247e-04  -1.7972296e-04  -3.6244390e-05  -7.4142014e-04   9.7914354e-04  -2.3018770e-04  -5.7769311e-04   7.3054124e-04   4.2162661e-04  -7.2157552e-04   3.2181729e-04   1.4384658e-05   2.0873625e-04   4.7622505e-04   1.0248658e-03  -6.4046297e-04   1.5672348e-03  -9.1802758e-06   7.0172100e-04   2.8492746e-04   1.6922618e-03   6.6384545e-04
   2.8716537e-04   3.0235140e-04   4.7080926e-04  -2.4657062e-04   5.7942088e-04   5.2820297e-04   6.0083286e-04   1.5053613e-03   1.1666905e-03   1.6468043e-03   8.4207382e-04   4.2293346e-04   3.9130930e-04  -1.0888011e-03  -1.1747456e-04  -7.2047120e-04  -2.6172388e-03  -5.1312282e-04  -5.2748207e-04   1.5261455e-03   1.0962347e-03   1.1704344e-03  -5.1067816e-04   6.0129430e-05  -2.9157629e-04  -8.0910773e-04   4.5387907e-04  -4.7967170e-04   1.9216782e-04  -2.0165034e-04   2.1423358e-03  -9.7771361e-04   1.0629182e-03  -6.5474327e-05  -5.4993533e-04   4.1119230e-04   4.3633708e-04  -7.4219389e-04   3.0426437e-04   1.2500564e-04   1.0927024e-03   5.6399364e-04   2.2985444e-03  -6.8865600e-04   1.2018923e-03  -6.5812410e-04   7.1215176e-04   6.2712765e-04   1.6762395e-03   5.0789624e-04
   2.8793138e-04   2.7247719e-04   7.5507484e-04  -2.6167740e-04   3.2660738e-04   5.2388525e-04   5.0278706e-04   8.3013880e-04   1.6947584e-04   1.6765137e-03   9.1141899e-04   3.0409385e-04   4.2430288e-04  -1.0922346e-03   3.7866365e-04  -6.7400414e-04  -2.6427112e-03  -2.6595005e-04  -3.2601750e-04   1.5576646e-03   1.1583623e-03   1.2313456e-03  -5.4836186e-04   1.4764565e-03   7.6545242e-05  -7.7051006e-04   2.7367030e-04  -2.0723372e-04  -3.7588415e-04  -1.9598760e-04  -1.0365375e-03   1.3050479e-04   6.1954965e-04  -3.8544953e-04  -5.6661316e-04   9.1897306e-04   1.8973743e-04  -6.8961253e-04   4.0057165e-04   1.3720062e-04   3.8546423e-04   4.4257339e-04   8.4582786e-04  -7.3092722e-04   6.7402469e-04  -4.2618529e-04   5.2756793e-04   1.0930558e-04   1.5490508e-03   5.3789042e-04
   2.9469420e-05   3.4658352e-04   5.6725566e-04  -1.5582313e-04   1.9304288e-04   6.3337211e-04   5.0308340e-04   1.2087695e-03   4.3356791e-04   1.5509587e-03   5.3774688e-04   4.0678712e-04   5.3915550e-04  -1.1042883e-03   1.2450088e-05  -8.0422912e-04  -2.7249372e-03  -4.4768583e-04   6.4086373e-04   1.6228146e-03   1.1507529e-03   1.4619663e-03  -8.1346877e-04   1.5076030e-03  -8.8721194e-04  -8.8646915e-04   1.7699775e-04  -2.6679350e-04  -4.0335557e-04  -1.8107414e-04  -7.5023272e-04  -7.8337983e-04   4.0809286e-04  -1.3076015e-04  -5.2430591e-04   5.6903436e-06   7.3522225e-04  -5.7663716e-04   2.6234060e-05   1.6593600e-04  -4.4392811e-05   2.6797550e-04   1.5215056e-03  -6.1272742e-04   1.2626083e-03  -4.9618940e-04   3.7030844e-04   6.2351517e-04   1.4613280e-03   3.8416055e-04
   8.9936446e-05   4.3577689e-04   5.1024358e-04  -7.6395547e-05   2.3539862e-04   7.7252550e-04   6.7246566e-04   1.6510470e-03   4.0422921e-04   1.5491304e-03   4.6427955e-04   4.5774446e-04   5.3316681e-04  -1.1611844e-03  -3.4163907e-04  -6.1873620e-04  -2.6857057e-03  -5.2146573e-04   5.3423736e-04   1.8183243e-03   1.2104425e-03   1.5542591e-03  -9.4219530e-04  -6.7825371e-04  -3.6085388e-04  -9.2928828e-04   1.2492550e-04   1.1120111e-04  -2.5319650e-05  -2.1531161e-04   1.7963559e-03  -2.9919125e-04   6.8297435e-04   1.7016551e-05  -5.1829201e-04   4.8726524e-04   3.1700422e-04  -5.8102561e-04   4.6010656e-04   3.1262494e-04  -6.0599262e-04   4.2497632e-04   2.3818356e-03  -6.0462503e-04  -9.9036501e-05   7.5982833e-05   2.7472401e-04   8.4229832e-05   1.5346278e-03   2.8799070e-04
  -1.1642325e-04   5.1776750e-04   3.6673812e-04  -3.4571047e-05   2.9063516e-04   6.3459610e-04   2.5222744e-04   1.5200487e-03  -1.2720644e-04   1.4631075e-03   2.8924449e-04   3.3555372e-04   6.1297946e-04  -1.1611609e-03  -5.1908038e-04  -7.6209003e-04  -2.7440914e-03  -6.9785374e-04   2.8085109e-04   1.2511223e-03   1.2447484e-03   1.4260050e-03  -1.0965506e-03   3.1140612e-03   1.6520311e-03  -8.8262500e-04   7.4387863e-05  -2.5080112e-04   1.5849386e-04  -2.0399420e-04   8.5303967e-05  -4.7942006e-04   5.7661685e-04   3.3901518e-04  -4.7165688e-04   8.2620821e-04  -1.0801338e-04  -5.8668706e-04   1.5677004e-04   1.9537812e-04  -8.8296423e-04   2.4140086e-04   2.0362546e-03  -6.9521484e-04   1.7806554e-03  -5.0124695e-04   1.9887253e-04  -3.3973198e-04   1.4973843e-03   3.4021845e-04
  -2.6905749e-04   5.1940384e-04   3.3124787e-04  -7.5737489e-06   6.4087962e-04   8.9681271e-04   5.0371647e-04   1.4024543e-03   6.7899050e-04   1.4344880e-03   1.9625793e-04   2.0397552e-04   6.5418647e-04  -1.1679505e-03  -8.3587278e-05  -1.0231829e-03  -2.6508898e-03  -5.2340014e-04   2.8228710e-04   1.5185110e-03   1.2703673e-03   1.4529987e-03  -1.2906716e-03   4.3687414e-04   1.4630774e-03  -8.7459036e-04   8.5675681e-05  -2.7166464e-04  -1.6789400e-05  -2.1528002e-04  -2.3847017e-03   4.5189264e-04   1.5187402e-04  -7.7332457e-05  -5.1425101e-04   2.9891072e-04   1.9820649e-04  -6.0976116e-04   1.5874431e-04   5.5742214e-05   1.4509894e-03   3.2197370e-04   1.7070493e-03  -6.8415323e-04   1.1124287e-03  -2.9021944e-04   2.4705206e-04  -9.9731819e-04   1.5051709e-03   3.6777736e-04
  -1.7495140e-04   5.2260776e-04   5.0036726e-04   3.8964168e-05   5.6488160e-04   6.5817666e-04   5.5926241e-04   8.1078493e-04  -6.9988833e-04   1.4786664e-03   2.1561811e-04   3.5935818e-04   6.5640971e-04  -1.2058737e-03  -4.0517075e-04  -1.1470576e-03  -2.6648743e-03  -9.6585084e-04   1.8723664e-03   1.8844900e-03   1.2745875e-03   1.5816703e-03  -1.2391353e-03  -1.4332175e-03   9.2426443e-04  -9.9639199e-04  -2.7783273e-05  -1.5964951e-04   1.5784110e-04  -2.4497631e-04   2.3599072e-04  -1.2596529e-03   9.1199187e-04   1.0984392e-04  -4.7491971e-04   1.2721321e-04   3.2704993e-04  -6.4671930e-04  -2.2570907e-04   5.6157418e-04  -2.1148031e-05   3.5300021e-04   5.0479348e-04  -6.3676020e-04   2.7220834e-03  -3.2711012e-04   1.6974749e-04   1.9396755e-06   1.3764823e-03   4.1048051e-04
  -1.2448101e-04   5.4659002e-04   2.1275021e-04   4.9024813e-05   4.7949262e-04   8.0102647e-04   6.6796207e-04   1.0856271e-03   7.7291293e-04   1.4703784e-03   2.5586769e-04   1.4497949e-04   6.5522757e-04  -1.2040796e-03  -3.7052654e-04  -1.2349719e-03  -2.5647536e-03  -6.1928108e-04   2.6668093e-04   1.6501782e-03   1.2607048e-03   1.5303674e-03  -7.5273495e-04   8.5138500e-04  -9.6477172e-04  -1.0037437e-03   8.3677318e-05  -4.6829305e-06   5.2129806e-05  -2.1607829e-04  -2.0449033e-03  -8.5025706e-05   1.3028200e-03  -5.9427683e-05  -4.9632962e-04   7.9003104e-04   2.8455630e-04  -5.5004325e-04  -1.0859374e-04  -1.0302951e-04   3.7949416e-04   2.2520628e-04   2.3568703e-03  -6.3365512e-04   1.1262015e-03  -6.4947095e-04   1.4793721e-05   1.6191385e-03   1.3090790e-03   3.7852919e-04
  -1.1472806e-04   5.3754263e-04   6.5109390e-04   4.2367668e-05   3.8349759e-04   8.6869067e-04   5.8681628e-04   2.0751355e-03   9.1324409e-04   1.3982708e-03   1.4464157e-04   2.5181242e-04   6.0867472e-04  -1.1527926e-03  -2.1136136e-04  -1.1537472e-03  -2.6466649e-03  -8.6052052e-04   5.9832481e-04   1.8041296e-03   1.2571423e-03   1.6698445e-03  -7.7914499e-04   1.3292262e-03   2.2710052e-05  -8.5057586e-04  -1.3093279e-05  -1.2099600e-04  -4.0063442e-04  -2.2737541e-04  -1.5185676e-04   5.9823738e-04   1.4422534e-03   1.8051855e-04  -4.8084551e-04   9.5182098e-04   6.3303049e-04  -5.3754472e-04   3.3127918e-04   4.3792228e-05  -3.7151497e-04   2.0668788e-04   1.8763741e-03  -6.9842266e-04   1.0753252e-03  -4.5876953e-04   2.5888745e-05  -1.2703830e-03   1.3304567e-03   3.3047717e-04
  -1.0638329e-04   5.2395614e-04   2.6677680e-04   1.2664797e-04   1.3415104e-04   8.2920311e-04   5.8293436e-04   1.5855961e-03   1.8511096e-04   1.4499819e-03   1.8356860e-04   3.1792061e-04   6.5972697e-04  -1.1730574e-03  -2.7785081e-04  -1.2432549e-03  -2.5543114e-03  -9.5785002e-04   8.7091867e-05   2.0115543e-03   1.2772292e-03   1.6104318e-03  -8.7417231e-04   7.0257962e-04   3.3307963e-04  -9.0085086e-04   6.4806321e-05   4.2220062e-04   3.2655679e-04  -2.0072638e-04   8.4463391e-04  -4.9553777e-04  -1.7344792e-05   2.0029314e-05  -4.6853116e-04   8.1201212e-04  -3.6502526e-05  -5.7674863e-04   6.2604573e-05  -3.6998514e-05  -5.5603212e-04   3.7749123e-04   9.0275798e-06  -6.9183012e-04   1.0791363e-03  -8.1754912e-04   3.1682895e-05   3.9259798e-04   1.2081754e-03   3.0361506e-04
   4.8047834e-05   5.9248117e-04   4.3220582e-04   9.6898599e-05   2.5537252e-04   7.8765507e-04   6.1557628e-04   1.5440725e-03   1.3617359e-03   1.3930171e-03   1.3394802e-05   3.9225581e-04   6.9369026e-04  -1.1186867e-03  -3.1381217e-04  -1.3142499e-03  -2.6509955e-03  -1.1622616e-03   8.5726369e-04   2.0035682e-03   1.2980400e-03   1.6011649e-03  -1.2138599e-03   5.5799045e-04   9.7906741e-04  -8.7695464e-04   6.3197236e-05   1.3485386e-04   1.7790252e-04  -1.9772898e-04  -1.0780252e-03   2.8511474e-04   4.0051667e-04   2.9678160e-04  -4.6778299e-04   3.1550461e-04   3.7135414e-04  -5.3522515e-04   1.7697344e-04  -1.4187116e-04  -2.4015046e-04   4.5583749e-04   9.0741494e-04  -7.6416886e-04   1.5639777e-03  -2.2925240e-05   1.0415005e-04   5.6220789e-04   1.2588340e-03   1.7574269e-04
  -1.6016973e-04   5.2698154e-04   1.3811386e-04   1.2436061e-04   2.0221452e-04   8.9451793e-04   3.9512981e-04   1.8017252e-03  -1.4051097e-04   1.3753308e-03   2.6517273e-06   3.5198289e-04   7.1730569e-04  -1.1215516e-03  -7.6945456e-05  -1.4634011e-03  -2.5717416e-03  -8.1190845e-04   2.6011548e-03   1.3810981e-03   1.2936440e-03   1.6413926e-03  -7.4980658e-04   2.3361687e-04   7.8061310e-04  -1.0219315e-03  -2.5355525e-06  -3.5841607e-05   9.7361876e-04  -1.9600189e-04  -4.3209907e-04  -2.7812133e-05   1.1091391e-03  -1.9011680e-04  -3.9530467e-04   6.0530443e-04   2.5338534e-04  -5.6648121e-04   7.6664772e-05   1.7913058e-04   1.0900199e-03   5.2277674e-04   1.2511297e-03  -7.3523470e-04   1.5356179e-03  -7.2341482e-04   1.8643780e-06   1.1951617e-03   1.2534611e-03   2.5017481e-04
  -2.4530598e-05   5.0418579e-04   5.3980708e-04   1.2026675e-04   4.3570940e-04   9.4709039e-04   5.9076911e-04   1.7525338e-03   5.6981039e-04   1.3739699e-03  -4.0705268e-05   3.2212399e-04   7.2541507e-04  -1.1742739e-03  -8.6049738e-05  -1.1398607e-03  -2.5755037e-03  -1.1113904e-03  -2.2526633e-04   1.2769378e-03   1.2694272e-03   1.6293264e-03  -9.6098229e-04  -7.7645591e-04  -3.7021088e-04  -9.0368697e-04  -1.5889558e-05  -7.3259085e-05  -7.1390823e-05  -2.0246045e-04   1.4609698e-03  -3.1258643e-04   3.4315561e-04  -8.4271567e-05  -5.1763427e-04   1.1514482e-03   8.5929838e-05  -5.6325708e-04   7.9051388e-05  -5.7858284e-05  -2.5842339e-04   3.9933992e-04   2.1522383e-03  -7.7277934e-04   8.8049687e-04  -5.1146123e-04  -3.1658885e-05   4.8388934e-04   1.0650986e-03   9.6999036e-05
  -1.4799355e-04   6.2156015e-04   5.6057953e-04   1.5459034e-04  -1.2306303e-04   8.8301307e-04   5.1800651e-04   1.4185475e-03  -1.5632006e-03   1.3680947e-03  -2.6597560e-05   3.5384190e-04   6.6854665e-04  -1.1914856e-03  -2.6400018e-04  -1.3584748e-03  -2.7180477e-03  -1.1717933e-03  -4.6295780e-04   1.6150238e-03   1.2979574e-03   1.6897462e-03  -1.1369810e-03   2.9199442e-04   1.6065534e-04  -9.3561650e-04  -1.4349450e-04  -5.3236923e-05  -6.5470638e-05  -1.9594694e-04   2.2371050e-03   1.8848490e-04   5.5506115e-04   2.7842345e-05  -4.9882528e-04   9.4151509e-04   2.7933545e-04  -5.2750786e-04  -1.7880846e-05   2.4339228e-04   9.9438045e-04   2.5524379e-04   1.7335706e-03  -7.2749163e-04   8.1342808e-04  -3.1161110e-04  -1.2185008e-04   9.9082063e-05   1.1778310e-03   1.6635259e-04
  -1.1944647e-04   5.4290512e-04   3.3348749e-04   2.0229553e-04   6.6444563e-04   1.0294121e-03   3.8900430e-04   2.0712134e-03   2.1820981e-04   1.2588489e-03  -6.0849237e-05   2.0762716e-04   7.0106413e-04  -1.1684184e-03  -3.5217736e-04  -1.4705308e-03  -2.6812877e-03  -1.0429637e-03  -3.2995699e-04   1.7500008e-03   1.3127928e-03   1.5796641e-03  -1.1909326e-03   1.1670991e-03   6.3010113e-04  -8.9434808e-04  -3.0695644e-04   2.7848911e-04   8.8668650e-04  -1.8376260e-04   1.2763470e-03  -4.6692567e-04   5.8166828e-05  -4.2394138e-05  -3.8231094e-04   1.2364572e-04   4.0563411e-04  -4.9563713e-04   3.3711822e-04   2.1764713e-04   5.2727846e-04   3.8253283e-04   1.0444574e-03  -6.8032846e-04   9.0300402e-04  -4.0745884e-04  -1.4461110e-04   5.5321719e-04   1.2501002e-03   2.3805333e-04
  -3.8750924e-05   6.0543290e-04   2.2230727e-04   1.6527748e-04   3.4855038e-04   1.0674759e-03   7.5752870e-04   1.6459774e-03   1.0249745e-04   1.2715991e-03  -2.1923769e-04   3.6232409e-04   7.4328179e-04  -1.1969609e-03  -3.5362950e-04  -1.5443274e-03  -2.6808542e-03  -9.4855356e-04  -8.3889824e-04   2.0702609e-03   1.2701775e-03   1.5810454e-03  -1.1734625e-03   2.3529396e-04   4.9164769e-04  -9.6913707e-04  -3.6871666e-04   1.2689907e-04  -2.8249873e-05  -1.7182165e-04  -1.1082126e-03  -1.0426542e-03   1.4939985e-03   2.1732973e-04  -4.2128272e-04   1.0449629e-03   2.0999699e-04  -4.9672968e-04   3.2797479e-04   2.2579757e-04   1.8846036e-05   3.0703403e-04   1.0461087e-03  -6.9318252e-04   9.7486377e-04  -3.1501855e-05  -1.4340304e-04   1.1126795e-03   1.1892932e-03   2.9524788e-04
  -1.7323796e-04   5.9873436e-04   4.4022963e-04   2.2718981e-04   5.2998442e-04   9.7648823e-04   5.0267932e-04   2.5005096e-03   6.1918719e-04   1.2575864e-03  -1.0354242e-04   2.7321291e-04   7.7427278e-04  -1.2098757e-03  -1.8503323e-04  -1.6832919e-03  -2.4959277e-03  -1.4370165e-03   1.4011748e-03   1.6466046e-03   1.2829666e-03   1.5910617e-03  -1.2646232e-03   9.6083537e-04   1.8830511e-03  -9.2468032e-04  -3.0674684e-04   1.2384821e-05   8.1405003e-04  -1.6097844e-04   1.2884820e-03  -4.6613437e-04   9.6671685e-04   2.3171685e-04  -4.5526095e-04   8.8875380e-04   3.6101992e-04  -4.7262467e-04  -1.0571955e-04   1.9385110e-04   7.9361018e-04   4.0728363e-04   2.1813810e-04  -8.2247879e-04   1.7207215e-03  -6.2683009e-04  -2.0808703e-04  -1.1312652e-03   9.8667643e-04   6.6887624e-05
   6.3423424e-05   6.1786512e-04   2.4807782e-04   2.3592316e-04   2.5412612e-04   1.0423725e-03   6.1151740e-04   2.4911296e-03   3.0148163e-05   1.1806451e-03  -2.6199958e-04   3.4139858e-04   7.5973890e-04  -1.2113721e-03  -2.5790901e-04  -1.4509776e-03  -2.6960769e-03  -1.3200823e-03  -6.9946802e-04   2.0999596e-03   1.2817312e-03   1.5868223e-03  -1.3685668e-03   3.1420065e-04   1.6517018e-03  -1.0451111e-03  -3.4621387e-04   2.5453765e-04   8.9457631e-04  -1.8963283e-04  -1.4113730e-03   9.2780931e-05   1.3526781e-04   2.7995071e-04  -4.6347352e-04   6.6437863e-04   2.4502398e-04  -5.6249462e-04  -1.9624022e-04  -2.3945609e-05  -4.0539820e-04   2.3244483e-04  -2.2849720e-04  -6.9086143e-04   1.9494175e-03  -3.3013822e-04  -1.7731506e-04   3.5959156e-04   1.2646372e-03   1.8127558e-04
   8.1773560e-06   6.4058998e-04   2.2130409e-04   2.1776276e-04   4.7896526e-04   1.1718173e-03   5.7080563e-04   1.5912738e-03  -1.1011348e-03   1.2658362e-03  -2.7228540e-04   3.5791509e-04   7.9299539e-04  -1.2333939e-03  -1.0867498e-04  -1.5950872e-03  -2.6059663e-03  -9.3393656e-04  -1.3684215e-03   2.0142510e-03   1.2661754e-03   1.7327133e-03  -1.1659035e-03  -8.1460970e-04   5.1489036e-04  -9.0442656e-04  -1.9972715e-04   9.9358236e-05   3.2294315e-04  -1.9213042e-04  -5.2726682e-04  -4.5508626e-04   4.9120159e-04  -7.0086542e-05  -4.7049159e-04   9.9987327e-04   2.8306033e-04  -5.7629461e-04   9.6459393e-05  -3.0304795e-05   1.3198042e-03   2.5839321e-04   1.8405075e-03  -7.8135292e-04   1.0302201e-03  -1.0314462e-03  -1.4279243e-04   2.4055536e-03   1.2168514e-03   1.0554098e-04
  -2.5734081e-04   6.5187144e-04   3.6521314e-04   2.4887070e-04   5.8284076e-04   1.2284162e-03   6.3402497e-04   2.2887199e-03   8.9301151e-04   1.2215903e-03  -2.0913954e-04   2.9575205e-04   5.4713117e-04  -1.2471605e-03  -6.3545484e-04  -1.9229356e-03  -2.9526129e-03  -1.4784788e-03   5.9012091e-04   1.8215016e-03   1.2452344e-03   1.8630825e-03  -1.3770506e-03  -7.7133020e-04  -5.6898117e-04  -1.0448893e-03  -6.2793965e-04   1.2960187e-04   4.3450415e-04  -1.4426712e-04   2.6109556e-03  -4.5962556e-04   4.9074087e-04   9.9693076e-05  -4.1149894e-04   3.7344736e-05   6.6223938e-04  -4.3984255e-04   3.8795269e-04  -5.8350408e-05   1.1317719e-03   3.4170496e-04   1.3665393e-03  -7.6152355e-04   4.5628185e-04  -1.7688614e-04  -1.6887608e-04   1.0804320e-03   1.3601060e-03   1.1656657e-04
  -2.2721020e-04   6.5628230e-04   6.0562475e-04   2.6544824e-04   1.6751097e-04   1.1947843e-03   4.0951549e-04   1.8715013e-03   9.2574180e-04   1.1505224e-03  -2.0757408e-04   2.5111495e-04   6.5543299e-04  -1.2276069e-03  -5.9405458e-04  -2.0745769e-03  -2.9209121e-03  -1.4599300e-03   1.1664038e-03   1.5617978e-03   1.2226519e-03   1.9042690e-03  -1.3928140e-03  -2.5986106e-04   2.7230219e-04  -1.1118217e-03  -5.4187002e-04   3.6272133e-05   1.5814703e-04  -1.3254791e-04  -1.3951708e-03  -8.7332830e-04   5.5325782e-04   1.3906864e-04  -4.0412732e-04   9.7475620e-04   1.5298347e-04  -4.9022964e-04   2.9356900e-04   4.3462301e-04  -1.1210003e-03   1.8518162e-04   5.4134452e-04  -6.5032067e-04   1.9039601e-03  -4.0473643e-04  -1.4594504e-04   6.9070421e-04   1.2523184e-03   2.3411085e-04
  -7.9780242e-05   6.7769660e-04   2.9438164e-04   2.5418875e-04  -2.0551571e-04   1.0912797e-03   5.5465940e-04   1.5716517e-03   1.1369511e-04   1.1635389e-03  -2.5362390e-04   4.0421719e-04   6.4675038e-04  -1.2581045e-03  -6.2055391e-04  -1.7447473e-03  -2.8804806e-03  -1.3331529e-03   3.0647009e-04   1.0941960e-03   1.2514681e-03   1.6375898e-03  -1.4442879e-03   2.3133655e-04   2.2681833e-03  -1.1867370e-03  -4.8666765e-04  -8.9609857e-05   9.8285871e-04  -1.4197742e-04   1.5711384e-03  -4.1127950e-04   5.4603152e-04  -5.5529381e-05  -3.9598867e-04   7.7076448e-04   3.5713374e-04  -4.2518933e-04   2.0428761e-04   2.5582500e-04   1.1114214e-03   3.5093355e-04  -4.8188394e-04  -6.6250045e-04   1.4506371e-03  -7.1872061e-04  -1.7637901e-04  -6.5907137e-04   1.2331144e-03   8.4841340e-05
  -2.7138705e-04   6.2681874e-04   4.0581072e-04   2.3688922e-04   1.6506702e-04   1.1120338e-03   4.4577339e-04   1.3428028e-03   8.1913278e-04   1.1113061e-03  -3.1618355e-04   2.4245419e-04   6.9222390e-04  -1.2345272e-03  -4.7698774e-04  -1.9054189e-03  -2.7821462e-03  -1.2892789e-03  -2.9745756e-04   1.3900828e-03   1.2610038e-03   1.7428179e-03  -1.0110688e-03   9.4577197e-05   9.7708963e-04  -9.5959159e-04  -5.7754811e-04   6.5069756e-04   9.2824039e-06  -1.1828980e-04  -2.4566106e-03   9.4967999e-04   1.2229240e-04   1.0933072e-04  -3.8336107e-04  -3.5222252e-05  -2.9376672e-05  -3.7262839e-04   1.0191779e-04   4.2925059e-04   7.4120448e-04   2.5514033e-04   6.2725751e-04  -7.7533763e-04   9.9449698e-04  -4.2462372e-04  -2.0243638e-04  -2.1070775e-03   1.2041905e-03   1.9658000e-04
  -1.1114768e-04   6.7112659e-04   2.5553835e-04   2.9880836e-04   3.2886938e-04   1.2734599e-03   6.8550411e-04   1.7255386e-03   1.1041937e-03   1.1757904e-03  -3.5529817e-04   4.7862029e-04   7.4728008e-04  -1.2124189e-03  -5.4763659e-04  -1.7371192e-03  -2.8013145e-03  -1.3587301e-03   4.4319351e-04   1.3885598e-03   1.2877316e-03   1.5752027e-03  -1.2775407e-03   7.4130553e-04   1.2134841e-03  -1.0552652e-03  -7.6979719e-04   1.8094819e-04   5.1917380e-04  -1.0513789e-04   2.8929315e-04  -1.4054881e-04  -4.5480818e-04   2.4068433e-04  -3.5477692e-04   3.1026290e-04   4.1545445e-05  -3.7131502e-04   1.0028980e-04  -4.5609340e-05   1.1520230e-03   2.6160528e-04   8.4503531e-04  -7.1655860e-04   1.1932111e-03  -2.1177767e-04  -3.0073748e-04  -2.4428737e-04   1.2316585e-03   1.9397777e-04
  -1.5600896e-04   6.4764800e-04   3.2173295e-04   3.1864422e-04   1.3121625e-04   1.2891064e-03   5.5443140e-04   1.2623873e-03  -5.2288629e-04   1.2024248e-03  -4.6083605e-04   3.7758861e-04   7.6429016e-04  -1.1930392e-03  -6.3121913e-04  -1.7695990e-03  -2.8230154e-03  -1.5935343e-03   1.7320777e-04   1.3303771e-03   1.3243499e-03   1.9409531e-03  -1.2119941e-03   7.3090615e-04   3.6884873e-04  -1.1355974e-03  -8.4506092e-04  -5.1570776e-05   9.3322940e-04  -9.7023956e-05   1.4046971e-03  -8.0736418e-04   9.4802474e-04   2.9578476e-04  -3.2335546e-04   4.9634732e-04   5.7948939e-05  -3.5472066e-04   8.2722079e-05   1.9281750e-04   5.4071657e-04   2.9365285e-04   2.9370637e-04  -6.9208257e-04   1.4615791e-03  -1.6141239e-04  -2.2952582e-04  -9.7228395e-04   1.3030276e-03   2.5083168e-04
  -2.7991881e-04   7.0306432e-04   2.4839779e-04   3.1616510e-04   2.7698599e-04   1.3592469e-03   7.9971889e-04   1.5870170e-03   2.6764258e-04   1.0878530e-03  -4.6940456e-04   3.7677650e-04   7.3274673e-04  -1.2216491e-03  -1.0094265e-03  -1.7968934e-03  -2.9384866e-03  -1.4678843e-03  -4.7359033e-04   1.2349469e-03   1.3105858e-03   1.8336731e-03  -1.4084826e-03   1.6726019e-04   1.0354188e-03  -1.0737366e-03  -8.0458890e-04   3.0579139e-04   6.2071456e-04  -1.1171901e-04   5.3655713e-05  -7.0499501e-04   5.6857045e-04   1.5038835e-04  -3.5449097e-04   1.5825746e-03   3.0832885e-05  -3.5964226e-04   2.1416109e-04   2.8183998e-04  -7.3898671e-04   1.8941655e-04   1.5701455e-03  -6.4896524e-04   1.4722511e-03  -1.8676705e-04  -3.3106052e-04   4.2403981e-04   1.1627855e-03   1.8475775e-04
  -1.2633776e-04   6.1851915e-04   1.9338004e-04   3.2029883e-04   3.3866445e-04   1.3068639e-03   7.8794226e-04   1.6360519e-03   1.0498746e-04   1.1351540e-03  -4.0231767e-04   4.1322433e-04   7.0220913e-04  -1.2212088e-03  -5.3493935e-04  -1.8895250e-03  -2.7211050e-03  -1.7962708e-03  -4.6847868e-04   2.1107108e-03   1.3272153e-03   1.7680151e-03  -1.2685566e-03  -3.3576576e-05   7.0521486e-04  -1.0465244e-03  -7.9642149e-04  -8.6775426e-06   7.7374757e-04  -1.0522519e-04   9.7849127e-04   6.1163557e-04  -3.8140171e-04   2.2334092e-04  -3.3105846e-04   1.2844672e-03   2.5154802e-04  -3.3956210e-04  -3.9749189e-05   8.6033651e-05   1.1212750e-03   1.9915600e-04   2.2685542e-03  -7.5589406e-04   9.3075563e-04  -3.4376647e-04  -2.9353212e-04   1.6390933e-03   1.2549807e-03   2.5054620e-04
  -1.7085958e-04   6.7095167e-04   6.5837801e-04   3.9867131e-04   3.3730344e-04   1.4138845e-03   7.1350031e-04   1.8817531e-03   5.4146821e-04   1.1451913e-03  -4.3555518e-04   3.8699000e-04   7.5005688e-04  -1.2209761e-03  -5.6759949e-04  -1.9381945e-03  -2.9163465e-03  -1.8791527e-03  -5.0775340e-04   1.9459923e-03   1.3642430e-03   1.7806835e-03  -7.3672365e-04  -6.1916374e-04   1.2892818e-03  -1.1148782e-03  -8.5669762e-04   8.2581842e-05   7.9459976e-04  -1.0344695e-04  -1.8964590e-03  -3.3880584e-04   8.7395363e-04   1.6376931e-04  -3.6344698e-04   7.8465964e-04   1.9746118e-04  -2.7800299e-04   1.3979683e-04   2.0622928e-04  -3.6707989e-04  -4.4467106e-05   7.9664006e-04  -5.2138168e-04   8.2802679e-04  -5.4629013e-04  -2.5085383e-04  -8.8924781e-04   1.0113607e-03   1.1456833e-04
  -3.4520583e-04   7.0618751e-04   4.8914761e-04   3.5029417e-04   2.8544958e-04   1.2953077e-03   6.5930211e-04   1.7109815e-03  -2.2350247e-05   1.0988343e-03  -4.6152249e-04   2.6226437e-04   8.0374867e-04  -1.2098760e-03  -8.7891426e-04  -1.8978766e-03  -2.7346674e-03  -1.6641992e-03   2.2347987e-04   1.8122083e-03   1.3112288e-03   1.8691542e-03  -1.1847058e-03   3.6330111e-04   1.2502617e-03  -9.3637890e-04  -7.2293135e-04   4.4157373e-04   7.4423273e-04  -1.2155957e-04  -1.3758501e-04   3.1151870e-04   7.2525302e-04   1.1585496e-04  -3.2141345e-04   7.3992857e-04   1.5221504e-04  -3.1522629e-04   1.1753850e-04   2.7971476e-04  -9.1705588e-05   3.2212539e-04   9.5509033e-04  -5.9970981e-04   8.5779699e-04  -5.7266734e-04  -2.8053462e-04  -1.2966157e-03   1.1703785e-03   2.1110705e-04
  -1.1824809e-04   6.5100752e-04   2.0774078e-04   2.9512355e-04   5.6287512e-04   1.2781505e-03   4.9381272e-04   1.5843527e-03   2.8725289e-04   1.1602996e-03  -4.7920828e-04   2.9955956e-04   8.4961217e-04  -1.1916084e-03  -8.2414155e-04  -2.0142419e-03  -2.5102026e-03  -1.4361014e-03   2.6236096e-04   1.5838448e-03   1.3308608e-03   1.6261475e-03  -8.8406412e-04   8.6065719e-04   4.0092575e-05  -9.4248023e-04  -7.3700683e-04  -7.2894050e-05   2.9961823e-04  -1.2669459e-04   7.4698956e-04   3.5140262e-04   8.0189289e-04   2.1199259e-04  -4.1523713e-04   4.9103785e-04   7.4962806e-04  -3.9243887e-04  -1.2401886e-04   2.5122994e-04  -9.4667799e-04   1.4444906e-04   3.0409527e-04  -6.6699064e-04   9.9863426e-04  -4.8669314e-04  -2.0550823e-04   5.6375994e-04   1.2167115e-03   2.3617360e-04
  -1.2587033e-04   6.1707571e-04   3.2828742e-04   3.4510237e-04   2.6179923e-04   1.5152630e-03   8.1215653e-04   1.9381560e-03  -3.7867852e-05   1.1833311e-03  -4.5866446e-04   5.2397925e-04   7.1909331e-04  -1.2836182e-03  -1.0191419e-03  -2.2201787e-03  -2.9183507e-03  -1.5854641e-03   6.2721496e-04   1.5348218e-03   1.2995062e-03   1.8395637e-03  -1.5453676e-03   2.2350901e-03   5.5988337e-04  -1.0628784e-03  -9.6697808e-04   9.2349801e-05   4.2503071e-04  -9.8027675e-05   6.7140732e-04  -1.7967678e-04   1.2461203e-03   1.9739947e-04  -3.0742396e-04  -1.9015961e-04   1.2442109e-04  -2.6581800e-04  -1.0610592e-05   4.0487610e-04   1.0232376e-03   1.9910876e-04   1.2131311e-03  -4.8316122e-04   1.1952800e-03  -5.4435275e-04  -5.5475717e-05  -1.5412408e-03   1.4395139e-03   3.9607778e-04
  -1.3653058e-04   5.4401392e-04   6.8314653e-04   2.4937573e-04   3.6713548e-04   1.1870207e-03   6.4640085e-04   2.5541622e-03   1.3416032e-04   1.1101263e-03  -4.6944880e-04   1.8438679e-04   1.0444658e-03  -1.1320306e-03  -2.4448743e-04  -1.6088698e-03  -1.8685120e-03  -8.4433949e-04   1.1405181e-03   1.4602513e-03   1.1763390e-03   1.5968753e-03  -1.1823686e-03   1.0298865e-03   4.7552661e-04  -8.8648318e-04  -4.5725523e-04  -1.2589531e-04   3.6632060e-04  -1.5662843e-04   2.3396192e-04  -4.8953190e-04   8.6102617e-04   2.4088695e-04  -3.9052515e-04   1.2583713e-03   6.8166078e-04  -3.5497136e-04   4.0679864e-04   1.6091508e-04  -3.1875973e-04   2.5369582e-04   1.6493779e-03  -7.5036584e-04   1.5367748e-03  -6.1926461e-04  -2.1130401e-04   2.2970136e-05   1.1741157e-03   1.5001549e-04
   3.3664910e-05   6.3923362e-04   3.1908043e-04   2.6572822e-04   4.0455326e-04   1.3581356e-03   7.6285179e-04   1.8632888e-03  -1.0950806e-03   1.0373603e-03  -5.0569838e-04   3.7517014e-04   8.3510281e-04  -1.1298372e-03  -7.8785652e-04  -1.4608735e-03  -2.3003654e-03  -1.4815275e-03   9.3165966e-04   1.6113189e-03   1.2290472e-03   1.6602752e-03  -1.1384063e-03   2.0177932e-03   9.7116514e-04  -9.5983216e-04  -5.1758107e-04   8.1329817e-05   5.7517341e-04  -1.4311864e-04   6.9316063e-04  -1.4271461e-04  -6.7167559e-05  -1.7497852e-05  -2.8061518e-04   8.7484880e-04   5.1387760e-04  -3.5761989e-04   3.0180588e-04  -3.6202895e-05  -1.3961354e-03   4.3400383e-04   1.3329636e-03  -7.7273330e-04   2.3002135e-04  -1.7068032e-04  -1.7691929e-04   1.8141611e-03   1.2285062e-03   1.0203881e-04
  -2.0613337e-04   6.3566334e-04   2.5948536e-04   2.2311535e-04   4.5546095e-04   1.3172540e-03   9.3321421e-04   1.9342116e-03  -1.3212074e-04   1.0766485e-03  -4.4629976e-04   2.4736935e-04   8.9728029e-04  -1.1577846e-03  -5.9254875e-04  -1.6946762e-03  -2.3602140e-03  -1.3739687e-03   3.0676275e-04   1.4701051e-03   1.2541572e-03   1.7524214e-03  -9.1169565e-04  -4.7442649e-05   8.1243133e-04  -9.0861291e-04  -6.3103507e-04   1.0521326e-04   4.2555103e-04  -1.4581236e-04   5.9860712e-04   7.3773443e-04   9.8684500e-04   1.2845352e-04  -4.3948629e-04   1.5621406e-03   2.2740816e-04  -3.5415636e-04   2.6626154e-04   9.5220676e-05   4.6270466e-04   4.0140440e-04   1.6043896e-03  -6.7162345e-04   1.0529854e-03  -3.6932688e-04  -1.2641077e-04  -6.8538886e-04   1.3629339e-03   1.3977155e-04
  -1.5127675e-04   5.8641570e-04   5.6066411e-04   3.2743360e-04   4.6320297e-04   1.3101797e-03   7.8612508e-04   1.8611262e-03   2.6722925e-04   1.0807104e-03  -5.2996835e-04   3.4749878e-04   8.5542019e-04  -1.1789090e-03  -5.1300181e-04  -1.5747016e-03  -2.3681365e-03  -1.1947202e-03  -7.2276907e-04   1.7180762e-03   1.2735436e-03   1.7961122e-03  -8.1979978e-04  -7.5455429e-04   2.8077527e-03  -1.1281637e-03  -5.8630476e-04   1.9516313e-04   4.7515624e-04  -1.5702848e-04   4.9948279e-04  -4.1870517e-04   1.1290825e-03   5.2193212e-05  -4.3548393e-04   7.4451085e-04   2.5173955e-04  -3.8794018e-04   3.9603710e-05   1.8163364e-04  -7.7345065e-04   3.2869889e-04   2.0534687e-03  -6.5942470e-04   9.9596591e-04  -7.7578146e-04  -1.1744386e-04   3.9617892e-04   1.0766350e-03   9.8063261e-05
  -5.0490722e-05   6.4132799e-04   4.9519842e-04   2.7676602e-04   1.3611405e-04   1.2930157e-03   1.0111359e-03   1.8910256e-03  -9.2223944e-04   1.0651252e-03  -4.7966768e-04   4.8636610e-04   7.9978548e-04  -1.1834466e-03  -7.6071493e-04  -1.8500432e-03  -2.2000247e-03  -1.6224909e-03   3.9398964e-04   1.7804473e-03   1.2106148e-03   1.6871729e-03  -1.4067930e-03   3.5323331e-04   1.8313070e-03  -1.1453576e-03  -7.0842321e-04  -8.3991181e-06   4.4183072e-04  -1.4903022e-04   3.4573177e-04   8.7493536e-05   1.4897976e-03   2.1197059e-04  -3.0437676e-04   2.3236578e-04   3.6199641e-04  -3.7075693e-04  -7.8165627e-05   4.6312070e-04   4.0068131e-04   3.9941954e-04   1.9488239e-03  -7.2229514e-04   1.2829383e-03  -7.7349530e-04  -9.1388145e-05   1.9084987e-04   1.1353943e-03   1.2119421e-04
  -2.2719309e-04   5.2488025e-04   3.7773841e-04   2.9262603e-04   5.4056296e-04   1.5186754e-03   6.0370535e-04   2.2268756e-03   9.8143343e-04   1.0826477e-03  -4.6500374e-04   2.9833594e-04   9.1959327e-04  -1.1458347e-03  -6.1951310e-04  -1.7308706e-03  -2.2192628e-03  -1.3602076e-03   1.3052505e-04   1.2658139e-03   1.2136132e-03   1.6886420e-03  -1.2667577e-03   5.2808795e-05   1.0711006e-03  -1.0738305e-03  -6.7226769e-04   1.5208982e-04   4.0151872e-04  -1.5305552e-04  -1.1685170e-03  -7.3345960e-04   4.6528486e-04   2.7207218e-04  -3.5696625e-04   9.6537522e-04   2.5686889e-04  -4.0821524e-04   3.0166178e-04   6.6652967e-05   2.5034475e-04   3.1559105e-04   3.1915042e-05  -6.9052156e-04   6.8287476e-04  -8.2275836e-04  -1.0040548e-04   1.5831621e-03   1.2032187e-03   1.4811956e-04
  -1.4519390e-04   6.1990996e-04   9.4126379e-05   3.3427344e-04   3.2700639e-04   1.2018891e-03   9.8553346e-04   1.4913722e-03   5.4429827e-04   1.1182744e-03  -4.1127886e-04   4.0049132e-04   9.1737870e-04  -1.1436020e-03  -6.9432042e-04  -1.4894708e-03  -2.1880474e-03  -1.1925278e-03   1.7281608e-03   1.5615112e-03   1.2219197e-03   1.7395383e-03  -1.0755087e-03   1.6610074e-03  -3.8963681e-04  -1.0380214e-03  -4.3746637e-04  -1.5067607e-04   4.3128798e-04  -1.6818821e-04  -9.7364158e-05   7.4221264e-04   4.6320987e-05   7.9352008e-05  -4.1514609e-04   1.5978013e-04   1.4014308e-04  -4.2989640e-04   1.6892997e-04  -3.9511295e-05  -7.4358477e-04   2.9203590e-04   7.0928416e-04  -7.3021121e-04   1.6716712e-03  -5.1899237e-04  -1.0489467e-04   5.0782535e-05   1.3100308e-03   7.1097405e-05
  -3.3833086e-04   6.5498869e-04   3.9544419e-04   3.1702549e-04   5.4933416e-04   1.3873457e-03   7.0986449e-04   2.0034872e-03  -5.3223316e-04   1.0888968e-03  -4.5546767e-04   1.5488957e-04   8.4757793e-04  -1.1799628e-03  -6.0513854e-04  -1.5589930e-03  -2.2549457e-03  -1.4769890e-03   7.4140953e-05   2.2327648e-03   1.2756553e-03   1.5485490e-03  -1.0618840e-03  -1.0677052e-03   1.3328104e-03  -1.1150053e-03  -5.0779869e-04   7.0429589e-05   3.3135194e-04  -1.7454484e-04  -9.1041438e-05   2.3811974e-04   1.9803047e-04   1.6748319e-04  -4.2830710e-04   8.2012219e-04   1.7832007e-04  -4.2360640e-04   1.5392169e-04  -1.1497812e-04  -6.4003177e-04   1.8638243e-04   1.4157847e-03  -7.4319012e-04   9.8910998e-04  -3.9919442e-04  -1.9839931e-04  -5.9642078e-04   1.2466443e-03   1.2488890e-04
  -8.5039210e-06   6.5675681e-04   5.3846149e-04   2.9619862e-04   5.7258853e-04   1.4765000e-03   9.2366891e-04   2.1211079e-03  -2.4575798e-04   1.0823994e-03  -4.8020549e-04   1.9093628e-04   7.9765951e-04  -1.1366833e-03  -7.5723173e-04  -1.6620848e-03  -2.2549997e-03  -1.3892853e-03   7.2770333e-04   1.4529440e-03   1.2574578e-03   1.8352179e-03  -9.9817722e-04  -4.5388876e-04  -1.7628958e-03  -1.0710722e-03  -5.9226691e-04   3.2439540e-04   8.9414773e-04  -1.6411915e-04   4.6050633e-04   2.4336309e-04   2.3713841e-05   1.1274884e-04  -3.2141063e-04   1.0442943e-03   5.7260890e-04  -3.5539165e-04   1.2188202e-04  -4.3481112e-05  -7.9363672e-05   2.9810963e-04   1.3331304e-03  -7.2952837e-04   1.0120588e-03  -2.8874030e-04  -1.5760622e-04  -6.1556953e-04   1.0943519e-03  -4.5112643e-05
  -2.2513801e-04   6.4958667e-04   2.4662318e-04   3.0000499e-04   3.6878415e-04   1.2017185e-03   7.3265948e-04   1.2251519e-03   1.5105745e-03   1.0609535e-03  -4.5338119e-04   4.6509504e-04   8.3734043e-04  -1.1767963e-03  -7.4383349e-04  -1.4857770e-03  -2.3098842e-03  -1.2496037e-03   1.7569258e-03   1.3401259e-03   1.2386471e-03   1.6625819e-03  -1.4711547e-03  -4.0456574e-04   1.2830935e-03  -1.0380348e-03  -5.8608223e-04   2.7000264e-04  -1.6783773e-04  -1.6431602e-04   3.6583202e-05  -4.0616724e-04   3.1401831e-04  -2.1809398e-04  -3.7044435e-04   1.5689592e-03   6.7484536e-04  -3.9070548e-04   2.7957992e-04  -1.4842415e-04  -9.0453244e-04   2.5321537e-04   5.6035595e-05  -6.6987547e-04   1.6023633e-03  -6.6247466e-04  -1.7837636e-04  -1.8877265e-04   1.1974280e-03   9.3710820e-05
  -2.4806047e-04   6.4157427e-04   6.1279879e-04   3.2095273e-04   3.4267287e-04   1.3586823e-03   9.6407905e-04   1.3372658e-03   7.4709131e-04   1.0574979e-03  -5.2657007e-04   3.1251769e-04   7.8615593e-04  -1.1306929e-03  -9.6900068e-04  -2.0527288e-03  -2.2825871e-03  -1.3782674e-03   5.5691885e-04   1.2633174e-03   1.2116120e-03   1.6591960e-03  -7.4288313e-04   1.2679752e-03   4.8164569e-04  -9.9777197e-04  -6.9169444e-04   3.5621694e-04   8.7370531e-04  -1.4568516e-04   1.2954115e-03  -3.3272259e-04   2.8519088e-04   1.0090441e-04  -3.9788976e-04   1.0533796e-03   1.8689944e-04  -3.6128378e-04   4.5534962e-05   3.6281798e-04   4.9173826e-04   2.2458640e-04   7.2066026e-04  -5.8888609e-04   1.6696453e-03  -6.2113599e-04  -1.8247426e-04  -8.6682418e-04   1.2146132e-03   2.3022249e-04
  -2.1900187e-04   6.4130843e-04   4.1216446e-04   3.0919569e-04   7.1422238e-04   1.5088364e-03   7.2672643e-04   2.0153676e-03   7.5824652e-04   9.9145120e-04  -4.4613014e-04   3.8923166e-04   7.5281283e-04  -1.2033349e-03  -7.6651631e-04  -1.7700597e-03  -2.3160528e-03  -1.6815937e-03   2.6941870e-04   1.5565337e-03   1.2236527e-03   1.7938019e-03  -3.6650326e-04   3.6518672e-04   6.6093361e-04  -1.0551667e-03  -6.9240388e-04   3.9225820e-04   6.9569715e-04  -1.3248260e-04  -1.5603483e-03   1.0519741e-03   1.2310074e-03   4.4879213e-05  -3.3135619e-04   1.0296891e-03   2.7447706e-04  -3.0242078e-04   7.5958204e-05  -2.4158633e-04   2.6182813e-04   3.1103948e-04   9.2914281e-04  -6.6780741e-04   2.5621860e-04  -4.7803242e-04  -9.6909709e-05  -1.3252927e-04   1.3427506e-03   2.3426475e-04
  -1.9382614e-04   6.1262044e-04   3.3581746e-04   2.6279685e-04   4.7935994e-04   1.3746616e-03   9.5472933e-04   1.4091030e-03   5.2545330e-04   9.9664682e-04  -4.9728196e-04   3.3029306e-04   7.5708528e-04  -1.1710764e-03  -5.7725899e-04  -2.0060770e-03  -2.4058539e-03  -1.4149549e-03  -2.4362285e-05   1.5965699e-03   1.2230426e-03   1.8611614e-03  -9.7468536e-04   1.7782630e-03   8.1841840e-04  -9.8066730e-04  -7.4575527e-04   2.9509509e-05   5.4654939e-04  -1.4008046e-04  -1.5575615e-03  -3.5499710e-05   6.8589812e-04   9.2843322e-05  -2.7946543e-04   6.5106532e-04   2.2018270e-04  -3.6592566e-04   2.5852126e-04   1.8332848e-04   9.8857272e-04   2.6205511e-04   1.6740590e-03  -7.1330200e-04   1.1632367e-03  -6.8412733e-04  -7.5760763e-05  -8.1144029e-04   1.2955222e-03   1.9378049e-04
  -1.6523575e-04   6.7384640e-04   5.6189694e-04   3.0039460e-04   3.8252751e-04   1.3728681e-03   7.2481809e-04   2.1549482e-03   2.5119731e-05   9.8068628e-04  -5.0751376e-04   4.4350515e-04   7.9287693e-04  -1.1621970e-03  -6.7497185e-04  -2.0222457e-03  -2.4332302e-03  -1.6972889e-03  -8.3356467e-04   1.5790333e-03   1.2077356e-03   1.8487318e-03  -1.4145704e-03  -1.3954680e-03  -1.3687182e-03  -1.0567497e-03  -8.0622901e-04   1.5641480e-04   8.2388305e-04  -1.0719500e-04  -1.9931486e-03  -5.7197869e-04   6.8293972e-04   2.2653991e-04  -3.1382157e-04   8.5111591e-04   1.9626236e-04  -3.0601452e-04  -5.0673490e-05   3.9330480e-04   2.2085691e-04   2.6298934e-04   9.4428862e-04  -6.8042165e-04   6.1031303e-04  -9.7786670e-04  -1.3249260e-04  -1.0193593e-03   1.2794503e-03   6.7500849e-05
  -2.6181529e-04   6.7214610e-04   2.7984972e-04   3.2846903e-04   4.2868519e-04   1.3430493e-03   7.3785649e-04   1.5515534e-03  -5.0159088e-06   9.8222052e-04  -5.4617884e-04   2.2548783e-04   8.4174459e-04  -1.1490878e-03  -5.5749522e-04  -1.8258062e-03  -2.4032542e-03  -1.2667114e-03  -1.4170927e-03   1.6791453e-03   1.2108959e-03   1.8725125e-03  -1.1078910e-03   2.0370542e-03  -2.4316424e-04  -8.8414451e-04  -6.8657473e-04   3.0222125e-04   4.0170926e-04  -1.3426763e-04   1.9702446e-03   1.1950490e-04   7.2608981e-04   2.9029333e-04  -3.0392339e-04  -1.3257400e-04   4.6412757e-04  -3.3408805e-04   2.9402215e-04   1.1108923e-04  -5.3828367e-04   9.5588577e-05   2.9973386e-04  -6.4408960e-04   1.9176628e-03  -5.3373445e-04  -1.7769763e-04  -6.3499255e-04   1.0909488e-03   2.1361938e-04
  -2.5612998e-04   6.0391997e-04   5.4575485e-04   2.8770528e-04   4.2093362e-04   1.2302524e-03   7.7336782e-04   1.9990923e-03  -2.0263703e-04   9.8741299e-04  -5.9273158e-04   3.2290141e-04   8.2112837e-04  -1.2011637e-03  -8.8711438e-04  -1.8777288e-03  -2.4139020e-03  -1.5005186e-03  -5.5463199e-04   1.5850662e-03   1.2065502e-03   1.6208538e-03  -1.2471508e-03  -7.5896131e-04   1.2565627e-03  -1.0771286e-03  -7.4723182e-04   2.6337017e-04   1.0079319e-03  -1.2462061e-04  -2.8712652e-04  -4.3152817e-04   3.8291226e-04   3.8418433e-04  -3.4464276e-04   8.6055737e-04   3.3419664e-04  -3.3797912e-04   1.4768229e-04   2.2546202e-04  -2.0551580e-04   2.5418610e-04   6.0193497e-04  -6.1701157e-04  -1.8516729e-04  -5.9075898e-04  -9.6361829e-05   7.2681531e-04   1.2871667e-03   1.4758197e-04
  -1.0296241e-04   6.5742841e-04   4.0607344e-04   2.9340430e-04   3.8969386e-04   1.4711728e-03   8.2956982e-04   2.1595340e-03   5.0033283e-05   9.3189959e-04  -5.7457451e-04   3.4165982e-04   8.1679388e-04  -1.1869735e-03  -6.6767220e-04  -1.7149033e-03  -2.3165250e-03  -1.6340697e-03  -1.4219466e-03   1.4556196e-03   1.1775168e-03   1.7125956e-03  -1.1378729e-03   5.8566104e-04   7.1085163e-04  -9.8774163e-04  -7.7771972e-04  -9.3923729e-05   7.3324190e-05  -1.3066104e-04   1.1886080e-03   3.3432161e-04  -3.0559616e-04   5.8364414e-05  -2.8474673e-04   3.6865647e-04   3.5055817e-04  -3.6363042e-04   3.1136061e-04   6.4169127e-04  -6.8916701e-04   1.9193297e-04   1.6196914e-03  -5.8192707e-04   1.1553622e-03  -2.3539984e-04  -1.8670352e-04  -6.9022685e-04   1.4578361e-03   1.9086468e-04
  -2.4588086e-04   6.2460062e-04   5.3246407e-04   3.2651034e-04   6.9594069e-04   1.3092667e-03   8.9147640e-04   2.0100751e-03   5.2931259e-04   1.0094718e-03  -5.8171584e-04   4.9977325e-04   8.4152189e-04  -1.2061179e-03  -4.5696241e-04  -2.1877633e-03  -2.3861199e-03  -1.6535830e-03   3.8751616e-05   1.3796304e-03   1.1756317e-03   1.7104564e-03  -7.8943308e-04   3.5126851e-04  -7.6622417e-04  -9.4740267e-04  -7.4861088e-04  -1.5815163e-04   1.4258470e-04  -1.1813358e-04   2.0963389e-03  -2.4813358e-04   4.3692551e-05   2.1494624e-04  -3.2824554e-04   2.4549873e-04   1.1620818e-04  -2.9713663e-04   1.7657541e-04  -1.8791539e-04  -7.8311475e-04   2.9366952e-04   1.8066079e-03  -6.8085920e-04   3.9037413e-04  -2.9030477e-04  -1.3239701e-04  -6.3726638e-04   1.2284566e-03   2.5342969e-04
  -2.0137358e-04   6.6050905e-04   3.9260910e-04   2.8821413e-04   4.2674341e-04   1.4033590e-03   6.9622224e-04   2.1971886e-03  -7.1520328e-05   9.3399116e-04  -6.1691232e-04   2.7955652e-04   8.3223940e-04  -1.1404625e-03  -7.7052269e-04  -1.5760796e-03  -2.3325889e-03  -1.6601832e-03   7.3391834e-04   1.3426472e-03   1.1467623e-03   1.5591368e-03  -1.2297522e-03  -5.9627084e-04   2.4687401e-03  -1.0196387e-03  -6.8747834e-04  -4.6042924e-06   4.4364954e-04  -1.3128293e-04   5.8511837e-04   8.9207686e-05   6.0490076e-04   4.7525318e-05  -3.5280653e-04   9.9877571e-04   3.7226055e-04  -3.2496374e-04   1.4538963e-04   2.1849952e-04   5.6362327e-04   2.4491412e-04   3.3326246e-04  -7.4308121e-04   1.3262278e-03  -8.1207510e-04  -9.4463918e-05   9.4566226e-04   1.4408088e-03   2.7505925e-04
   9.6452250e-06   6.2276615e-04   2.1599286e-04   2.9191040e-04   6.6362880e-04   1.3135630e-03   6.5046956e-04   2.7225160e-03   1.0781466e-05   9.4927516e-04  -5.7301077e-04   4.0264288e-04   8.0132490e-04  -1.1720610e-03  -1.0119155e-03  -1.8726573e-03  -2.3549676e-03  -1.4758741e-03  -8.5456256e-04   1.1978437e-03   1.1353685e-03   1.7028453e-03  -1.1020220e-03   6.3935609e-04   9.0370275e-04  -1.1537207e-03  -7.9000264e-04   1.9382508e-04   5.7854818e-04  -1.4202004e-04  -7.8803091e-04  -6.1008357e-04  -8.6741675e-05  -3.5379562e-06  -2.5586170e-04   1.9152496e-04   3.4366796e-05  -3.8179121e-04   1.5385696e-04   7.0847309e-05  -1.8491883e-04   2.6294042e-04   1.3786724e-03  -7.4128940e-04   1.3317366e-03  -5.9397117e-04  -4.2629781e-05  -8.7645276e-05   1.3680246e-03   2.7192125e-04
  -1.4467319e-04   6.4600591e-04   5.2706666e-05   3.3314360e-04   2.1144295e-04   1.2204791e-03   5.9602893e-04   2.0197066e-03   1.2644543e-03   9.7391120e-04  -4.2183558e-04   2.3543055e-04   8.5884763e-04  -1.1895415e-03  -7.7207584e-04  -1.9908086e-03  -2.2812758e-03  -1.0880282e-03   3.3664209e-04   1.4329245e-03   1.1443875e-03   1.7229195e-03  -1.0925236e-03   8.9419150e-04   5.0857430e-04  -8.4755447e-04  -4.5064033e-04  -2.7198415e-05   7.4106059e-04  -1.7942183e-04   1.2781565e-05  -6.1053922e-04   7.0639356e-04  -4.2938627e-06  -4.2939556e-04   7.3149975e-04   2.2662173e-04  -3.2961872e-04   2.0545622e-04   2.3449154e-04   3.6921795e-04   4.0227125e-04   1.1728763e-03  -6.3187303e-04   2.3540191e-03  -5.9215119e-04  -4.6941295e-04  -1.1369090e-03   9.8064775e-04   2.8613041e-04
   2.5090027e-05   7.9420710e-04   5.7262566e-04   4.8399935e-04   6.6117849e-04   1.7142356e-03   9.6119050e-04   1.2935435e-03   6.8226794e-04   8.5846614e-04  -6.7516929e-04   3.7583988e-04   1.0156553e-03  -1.0823696e-03  -9.0626202e-04  -1.2658177e-03  -2.0184524e-03  -1.2469717e-03  -4.5401813e-04   1.9661237e-03   1.0186201e-03   1.5964491e-03  -9.1892295e-04   5.5097271e-04   2.6649062e-04  -5.2003673e-04  -2.4928080e-04   2.9679245e-04   4.5824694e-04  -2.0417609e-04   2.1609319e-03  -1.4354810e-04   3.9675753e-04  -2.2725051e-05  -2.5014998e-04   6.1395072e-04  -6.2187746e-07  -3.5372024e-04   1.2580259e-05   5.2883363e-05   5.6064449e-04   1.7837247e-04   4.9246155e-04  -6.2326534e-04   1.5682415e-03  -5.8675552e-04   1.8396368e-04  -5.1362306e-04   1.3192502e-03   3.2396606e-04
  -3.0448384e-04   5.3453248e-04   3.4083935e-04   2.5422894e-04   5.2110734e-04   1.2952423e-03   6.4907409e-04   1.9407375e-03   7.4071129e-04   8.8974467e-04  -6.5700687e-04   2.9524136e-04   1.1289993e-03  -1.1444679e-03  -8.1420050e-04  -9.0328447e-04  -1.9593635e-03  -1.1759130e-03  -9.0418081e-04   1.8910988e-03   1.1826751e-03   1.7668335e-03  -1.0990648e-03   1.1248663e-03   1.5841384e-03  -9.7447570e-04  -8.1965118e-04   4.0951079e-05   2.7709157e-04  -1.4678854e-04  -2.8910476e-04  -6.4629322e-04  -5.8199588e-04  -2.8065062e-05  -3.0265455e-04   1.3102715e-04   1.7568649e-04  -3.2706113e-04   5.0771709e-05   2.3473568e-04  -9.5862604e-04   2.7499246e-04   2.5685525e-03  -7.8124623e-04   1.3271290e-03  -4.5072660e-04  -3.4741886e-05   9.0418725e-05   1.4556388e-03   3.6921448e-04
  -1.5158615e-04   5.6459481e-04   2.5342984e-04   2.2956831e-04   5.7090732e-04   1.2875341e-03   7.5923570e-04   2.0676653e-03   9.5853073e-05   8.7686582e-04  -5.7160389e-04   1.6883515e-04   1.0871562e-03  -1.0800572e-03  -6.7063409e-04  -1.0109434e-03  -1.8997347e-03  -1.1254714e-03   7.0304691e-04   1.5853562e-03   1.1387198e-03   1.6954620e-03  -1.3346953e-03   1.3974861e-03   2.7693608e-03  -9.6202502e-04  -6.2119641e-04  -6.4848216e-05   9.7662072e-05  -1.5176706e-04  -1.8845159e-03  -8.7551423e-04   8.6330826e-04  -3.4176610e-05  -2.9411734e-04  -1.7050492e-04   3.1491087e-04  -3.5041926e-04  -8.5246669e-05   2.4327992e-04  -7.9160609e-04   2.8992534e-04   4.9916940e-04  -6.1487732e-04   2.0958059e-03  -5.3008663e-04  -5.8728445e-05  -1.5350494e-03   1.1564139e-03   2.4760637e-04
  -3.9596445e-04   6.0373975e-04   4.0983735e-04   2.5695082e-04   5.5330596e-04   1.2689190e-03   7.9498615e-04   1.7224659e-03  -1.0761243e-03   8.9323032e-04  -5.6231598e-04   2.9370887e-04   9.9838176e-04  -1.1518159e-03  -2.9612493e-04  -1.1545452e-03  -2.1757162e-03  -1.3749283e-03  -6.3442683e-05   1.4314885e-03   1.1876030e-03   1.8401952e-03  -6.5141893e-04   6.5006356e-04  -7.7087985e-04  -9.2660583e-04  -6.0947525e-04   2.8171698e-05   4.8607038e-04  -1.6098426e-04   1.5220857e-03  -9.1652514e-04   4.9540855e-04   1.9882659e-04  -2.7733197e-04   8.7326951e-04   1.5261373e-04  -3.8887782e-04   1.7645025e-04  -5.8824990e-05  -7.6016452e-04   1.8947686e-04   1.4764308e-03  -6.6759594e-04   1.5632196e-03  -8.3219225e-04  -8.8091125e-05   2.1328054e-04   1.4068865e-03   1.1030500e-04
  -1.6561223e-04   6.2055705e-04   3.5954203e-04   3.0074015e-04   5.4378627e-04   1.4064464e-03   7.0510077e-04   1.3709574e-03   1.7749949e-04   9.0365269e-04  -6.3089014e-04   3.5067392e-04   1.0531435e-03  -1.1058268e-03  -9.4534521e-04  -1.2238706e-03  -2.1612523e-03  -1.3412071e-03   5.0113653e-04   2.0002373e-03   1.1893432e-03   1.7810980e-03  -7.7771279e-04  -5.0071365e-04  -6.0232228e-04  -9.8889205e-04  -6.4885220e-04  -4.2513919e-05   7.2640156e-05  -1.5939499e-04   2.3320298e-04  -2.5851792e-04   8.5938640e-04   1.5701554e-04  -2.8885368e-04   4.4196404e-05   2.1718614e-04  -4.3088931e-04  -1.6764381e-04  -7.5432778e-05  -1.9414305e-04   2.2376596e-04   2.8815705e-04  -7.7997521e-04   6.4175430e-04  -2.3016128e-04  -3.6186371e-05   4.5166526e-04   1.3149366e-03   1.6224262e-04
  -1.7813072e-04   6.1145291e-04   4.8146216e-04   2.5160360e-04   2.9994542e-04   1.4961585e-03   1.0291334e-03   1.7118398e-03  -6.4606476e-04   9.7467250e-04  -6.4746587e-04   3.5659823e-04   1.0118154e-03  -1.1100514e-03  -9.3710824e-04  -1.1354862e-03  -2.1649064e-03  -1.0596365e-03   9.1434171e-04   1.2131620e-03   1.1830643e-03   1.5893296e-03  -1.1164185e-03   1.3663358e-03   9.6140342e-04  -9.4951200e-04  -6.1383029e-04   4.9530401e-05   8.1990578e-04  -1.6713093e-04  -9.2595554e-04  -1.0869752e-03   8.1362505e-04   1.8377644e-04  -3.3084181e-04   4.4264927e-04   4.0141400e-04  -3.4045745e-04   3.3585580e-05   1.4955235e-04  -1.2549698e-04   2.4548918e-04   2.1689711e-03  -6.8602659e-04  -8.2870611e-05  -8.8916178e-04  -5.8155241e-05   8.0916163e-04   1.2993247e-03   2.2743587e-04
  -2.1795710e-04   5.8045785e-04   3.2521549e-04   2.2121469e-04   5.6652818e-04   1.2432385e-03   7.5810793e-04   1.1672314e-03   4.6328158e-04   9.0032519e-04  -5.9129740e-04   3.2303479e-04   1.0453383e-03  -1.1123982e-03  -3.6722454e-04  -1.1141924e-03  -2.1433500e-03  -1.1245687e-03  -4.6195524e-05   1.4550537e-03   1.1791606e-03   1.7121261e-03  -9.1668946e-04   1.8472768e-03   1.2221163e-03  -8.6630089e-04  -4.0116051e-04   3.8448234e-05  -1.7986690e-04  -1.8057383e-04  -2.1416524e-03   5.4273230e-04   5.1477480e-05  -1.1591379e-04  -4.4549984e-04  -1.5901806e-04   1.6618271e-04  -3.9721589e-04   8.7524975e-05  -2.2100913e-04  -1.4282168e-03   1.8343012e-04   3.8963198e-04  -6.0872594e-04   2.0632579e-03  -8.6967339e-04  -5.1857169e-05  -9.2686352e-04   1.2607608e-03   2.5191726e-04
  -5.7090820e-05   6.6229294e-04   4.7054648e-04   2.4543499e-04   1.3954271e-04   1.2281131e-03   7.4195350e-04   2.3111515e-03   6.2996423e-04   9.6543343e-04  -4.3326733e-04   3.2109025e-04   8.8734610e-04  -1.0504266e-03  -7.4561813e-04  -1.7214732e-03  -2.0669429e-03  -1.0025894e-03  -1.4235355e-03   2.0329824e-03   1.1414824e-03   1.6703330e-03  -5.4614892e-04   8.1017066e-04   1.8129887e-03  -8.2213205e-04  -1.8907063e-04  -2.1278481e-04   2.4401501e-04  -1.9067661e-04  -8.1914291e-04  -6.2101154e-04   7.1654498e-04   3.3338300e-05  -3.6628306e-04   5.4552418e-04  -8.4856059e-05  -4.2630816e-04  -1.7273225e-05   5.2794401e-04  -8.2479353e-04   2.4429549e-04   7.2776456e-04  -6.6832820e-04   8.4245694e-04  -6.3747278e-04   3.8366709e-04   3.0463280e-03   1.6461803e-03   2.8656449e-04
   5.8021800e-05   5.7892833e-04   5.7697302e-04   7.6887896e-05   3.6604202e-04   1.1281229e-03   7.9500588e-04   1.4229128e-03   3.8723598e-04   1.1453800e-03   1.4956886e-05   1.6231174e-04   7.5488555e-04  -1.0620694e-03  -5.5979419e-04  -1.1014984e-03  -1.9451863e-03  -7.5419823e-04   8.7607850e-04   1.7683627e-03   1.1973969e-03   1.7874124e-03  -1.2312862e-03   4.9868244e-04   8.2183332e-04  -7.1414944e-04   7.2161325e-05  -1.5503331e-04  -7.3803116e-05  -2.0619774e-04   2.9013315e-03  -9.9522156e-05   8.4423419e-04  -6.1160458e-06  -3.8451818e-04   4.5910201e-04   2.7460093e-04  -5.4529222e-04   7.2805051e-05   2.0354470e-04  -1.5308431e-04   2.7417779e-04   1.2641702e-03  -6.7684607e-04   6.1875826e-04  -7.4159156e-04   5.2825699e-04   6.8091380e-04   1.7856761e-03   4.7024549e-04
  -1.7255715e-04   5.4033182e-04   5.7571259e-04  -4.6801920e-06   1.9515264e-04   9.5281616e-04   9.1065431e-04   1.5727255e-03   4.1571917e-04   1.0934477e-03  -3.0363100e-05   1.8713994e-04   8.8248623e-04  -9.4833109e-04  -6.1626342e-04  -1.2474307e-03  -1.7248982e-03  -3.7139139e-04   1.4819758e-03   1.5639775e-03   1.2009682e-03   1.5522521e-03  -1.1143207e-03   2.4953352e-03  -3.0706121e-04  -8.2153978e-04   2.4235036e-04  -1.3583606e-04   7.8379409e-05  -2.2630609e-04  -1.5795707e-03  -6.1402534e-04  -3.8506230e-04   2.7316182e-05  -3.6781156e-04   1.6784502e-04   6.1223027e-04  -5.3049065e-04   1.3193858e-04   3.7722668e-04   2.4848301e-05   3.8907112e-04   1.5276764e-04  -8.0627890e-04   1.6306164e-03  -5.8356713e-04   4.8458358e-04   2.1389057e-03   1.6386376e-03   3.5209625e-04
  -7.5125019e-05   5.5825105e-04   4.3474729e-04  -1.0307493e-05   1.3115429e-04   1.0005326e-03   1.0430635e-03   2.2700434e-03   3.9842434e-04   1.0554804e-03  -1.9408498e-04   1.7655226e-04   8.4530225e-04  -9.5004443e-04  -3.5322786e-04  -7.5458788e-04  -1.8819320e-03  -7.9574320e-04   8.8973093e-04   1.7501012e-03   1.2024838e-03   1.6745089e-03  -7.0805271e-04  -3.8652800e-04   1.5670717e-03  -6.9891452e-04   1.3872873e-04  -2.9933674e-04   6.1346299e-04  -2.1340567e-04   1.5743264e-03  -4.4451392e-04   7.7620853e-04  -9.5799405e-05  -4.0277274e-04   3.0432371e-04   3.5800636e-04  -5.6063884e-04   1.2649360e-04  -1.4501756e-04   3.1598253e-04   2.4681934e-04   1.8750302e-03  -7.6024747e-04   9.5681811e-04  -3.7805983e-04   4.7084360e-04  -1.0061020e-05   1.4721057e-03   4.2193392e-04
  -8.4070838e-05   5.6794082e-04   4.7821846e-04   3.4499673e-05   5.6601461e-04   8.6985144e-04   7.9991785e-04   1.8787457e-03   8.4778038e-04   1.0814160e-03  -6.4749904e-05   1.9304782e-04   8.5284130e-04  -9.8205137e-04  -4.7378588e-04  -1.1865833e-03  -1.9115246e-03  -8.7085110e-04   7.8896061e-04   1.5497527e-03   1.2025367e-03   1.5105364e-03  -9.3468325e-04   1.3079919e-03   8.6660462e-04  -7.4921735e-04   1.2208198e-04   3.9151942e-05  -6.1783363e-04  -2.2405204e-04   5.0422206e-04  -7.9335610e-04   4.5978886e-04   2.7280330e-04  -4.0140800e-04   1.2439790e-03   2.4745511e-04  -5.6910876e-04   1.0383385e-04  -2.1475775e-05  -7.9248956e-04   4.4187813e-04   1.4261649e-03  -7.4762490e-04   3.0952060e-04  -8.9579560e-05   4.1876623e-04   1.3864631e-03   1.5997698e-03   3.2135044e-04
  -2.1983305e-04   5.9624627e-04   4.0179136e-04   5.3051110e-05   4.1014605e-04   1.0624754e-03   5.5761437e-04   2.2768066e-03   4.6442237e-04   1.0282743e-03  -2.0141702e-04   2.7391018e-04   8.3360361e-04  -9.9041720e-04  -3.1533805e-04  -9.3205081e-04  -1.9981267e-03  -9.5062092e-04   7.8302395e-04   1.8698868e-03   1.1961597e-03   1.6477430e-03  -9.2473382e-04   5.9997855e-04   5.7625724e-04  -7.0734683e-04   2.0755420e-05  -2.6952575e-05  -3.4897099e-04  -2.1498530e-04   3.9196610e-03  -5.3624803e-04   4.3285536e-04   3.5627418e-05  -3.2294044e-04   8.6725154e-04  -1.4033540e-04  -4.6811075e-04   1.6134593e-04   2.6928665e-04   1.2926654e-03   3.1379436e-04   1.8522931e-03  -6.3806801e-04   1.0238882e-03  -3.5439519e-04   2.9896770e-04   3.6426554e-03   1.6387079e-03   3.9751525e-04
  -3.4220045e-04   5.7240244e-04   3.1056412e-04   1.0077065e-04   4.9530104e-04   9.5346791e-04   9.5245469e-04   1.9296893e-03   1.0713611e-03   9.6571224e-04  -4.0670487e-04   2.9269225e-04   7.8875705e-04  -1.0075647e-03  -6.1728561e-04  -9.7257865e-04  -2.1497100e-03  -9.0989616e-04  -1.3551487e-03   1.3437103e-03   1.2248703e-03   1.6915847e-03  -7.0476712e-04  -5.8043376e-04   6.0931541e-04  -9.0607174e-04  -3.2598907e-04   1.0231252e-05  -3.3295882e-04  -1.7919295e-04   3.6106506e-04  -1.0737262e-04   1.9666206e-04   1.8484953e-04  -4.6858095e-04  -1.7324384e-04   1.1799955e-04  -4.3976822e-04  -1.0104885e-04   4.4263102e-04  -3.8446923e-04   4.0829286e-04   2.8411204e-03  -5.8763940e-04   7.2643720e-04  -4.8988516e-04   2.8425819e-04  -3.2235935e-04   1.3936872e-03   2.3138200e-04
  -5.5228262e-05   6.0417468e-04   9.4763745e-05   1.3451060e-04   1.4984139e-04   1.4837793e-03   7.5954670e-04   2.9669919e-03   1.0510916e-03   9.9844183e-04  -4.7504733e-04   2.7106915e-04   8.2254724e-04  -1.0570077e-03  -2.9783981e-04  -1.3528336e-03  -2.1845591e-03  -1.0981582e-03  -3.0018634e-04   1.6093252e-03   1.2196357e-03   1.6490776e-03  -8.3397009e-04   8.1775972e-04  -4.1632928e-04  -9.1057352e-04  -5.5655511e-04  -9.8275348e-05   5.4909836e-04  -1.3434322e-04   5.2365795e-05   5.4107932e-04   5.5208075e-04   2.8013973e-04  -3.6228372e-04   2.7836877e-04   4.5695071e-04  -3.5367996e-04   7.6254284e-05   2.6335986e-04   8.0104562e-04   1.6890395e-04   1.8401855e-03  -6.0246402e-04   8.4359135e-04  -6.2298262e-04   1.7968552e-04   1.0306851e-05   1.4032392e-03   3.5494173e-04
  -4.0302952e-04   6.2598905e-04   3.2211782e-04   2.1793242e-04   2.3468820e-04   1.3812124e-03   9.2029141e-04   2.3855646e-03   8.4196989e-05   9.8468666e-04  -4.5984011e-04   3.5598065e-04   8.4828853e-04  -1.1009877e-03  -8.0616574e-04  -1.2697126e-03  -2.3280405e-03  -1.1042554e-03   1.9177313e-04   1.2597006e-03   1.2180422e-03   1.7153572e-03  -8.2318252e-04   1.1463739e-04  -1.2214881e-03  -1.0521044e-03  -5.2548083e-04   3.7239568e-04   4.7013757e-04  -1.5019679e-04  -5.7384942e-04  -4.1025938e-04   9.8170992e-04   1.7811495e-04  -3.3142965e-04   9.8935468e-04   2.3159152e-04  -4.5151211e-04   2.0867459e-05   3.0384088e-04   4.0838984e-04   1.3108703e-04   1.3662754e-03  -6.1923952e-04   1.9565995e-03  -4.7802887e-04   1.6576986e-04   1.6192884e-04   1.2803898e-03   3.6704392e-04
  -2.9876773e-04   6.5677083e-04   2.6695293e-04   2.0967171e-04   8.1608479e-05   1.2250565e-03   8.1325142e-04   1.4854424e-03   8.8676246e-04   9.7344362e-04  -4.0362217e-04   3.6190939e-04   9.3775388e-04  -1.0712885e-03  -4.4182854e-04  -1.3503230e-03  -2.1875277e-03  -1.2787740e-03  -4.2819124e-04   1.1100164e-03   1.1929203e-03   1.7725542e-03  -4.9571862e-04  -1.5739425e-03   1.1939427e-03  -9.0189936e-04  -5.6078809e-04  -6.5126384e-05   9.8750279e-06  -1.6068043e-04  -1.2520406e-03   4.1635902e-04   1.6582631e-04   1.3638000e-04  -3.2146156e-04   2.5421288e-04  -1.7403359e-04  -3.9199175e-04   5.9537848e-05   1.1250117e-05  -1.8314582e-04   1.6672014e-04   4.6549676e-04  -5.7971559e-04   1.3141788e-03  -8.2646502e-04   4.9852115e-05  -1.1144879e-03   1.2667596e-03   3.4717578e-04
  -2.0562168e-04   6.6566898e-04   4.5209273e-04   2.0574806e-04   3.6541204e-04   1.3146866e-03   9.4335218e-04   1.9987582e-03   8.0071919e-04   8.9237036e-04  -5.5067462e-04   2.0086802e-04   9.5989049e-04  -1.0965804e-03  -7.4558036e-04  -1.3045567e-03  -2.2443044e-03  -1.2627074e-03   1.4918188e-04   1.8510870e-03   1.1285837e-03   1.7661907e-03  -1.2928145e-03   5.0709560e-04   4.3164513e-07  -7.7782467e-04  -4.6710423e-04   4.4793898e-05   6.6612440e-04  -1.7775183e-04  -4.1898431e-05   3.2717510e-04   1.9305076e-03  -5.1849096e-05  -2.7611546e-04   7.7819644e-04   7.0205104e-05  -3.8434158e-04   3.2591878e-04   2.9131490e-05  -1.5560980e-04   2.6973212e-04   3.1112246e-03  -6.1537954e-04   1.3486545e-03  -6.2352541e-04   6.8830901e-05  -2.9251681e-04   1.4119145e-03   2.5444443e-04
  -9.9587771e-05   6.8759854e-04   2.7234812e-04   2.3955437e-04   3.2235018e-04   1.2914339e-03   6.7752739e-04   1.7452715e-03  -3.9241638e-04   9.4731507e-04  -4.6877668e-04   1.7827918e-04   9.0469251e-04  -1.1203948e-03  -8.5582025e-04  -1.4465265e-03  -2.3490004e-03  -1.4472564e-03   1.0410891e-03   1.9376620e-03   1.1311105e-03   1.8670002e-03  -1.0060365e-03   2.2975612e-03  -9.2670642e-04  -8.5898960e-04  -5.9569086e-04  -3.4038431e-04  -1.0123719e-04  -1.3961233e-04   1.4362981e-03   1.8924686e-04   1.1017637e-03  -9.3079994e-05  -3.5548443e-04   4.1035569e-04   2.8641964e-04  -3.6829244e-04  -2.0575979e-05   3.1762724e-04  -5.4882909e-04   1.8657825e-04   2.5377778e-04  -6.1113294e-04   1.2739765e-03  -4.8475989e-04   1.1290301e-04  -3.8640029e-04   1.3549707e-03   1.5010315e-04
  -2.0420188e-04   6.2535115e-04   3.9069593e-04   2.1478510e-04   2.1051738e-04   1.2560622e-03   6.5266620e-04   1.6109532e-03   9.6316762e-05   9.4694266e-04  -5.2304432e-04   1.1192744e-04   8.5818791e-04  -1.1412211e-03  -5.6221167e-04  -1.4985977e-03  -2.3521115e-03  -1.5471604e-03   1.1867549e-03   1.3563227e-03   1.1436617e-03   1.6293908e-03  -1.6346910e-03  -7.1538081e-05   4.7656853e-04  -9.6750871e-04  -5.3708756e-04   1.0995488e-04   6.0770963e-04  -1.5412478e-04   1.8604798e-03  -5.9864088e-04   1.1383959e-03   3.6236877e-04  -3.7713742e-04   1.4523973e-04   1.8461296e-04  -4.0669160e-04   1.1335146e-04   2.7363794e-04   1.4352977e-04   1.7162341e-04   3.6264217e-04  -6.5465906e-04   5.2815530e-04  -3.7084299e-04   1.5862870e-04   7.5282552e-04   1.5053768e-03   1.9048892e-04
  -1.9591271e-04   5.7519891e-04   5.3419545e-04   2.3117424e-04   8.3259941e-04   1.2104609e-03   7.4506132e-04   2.4705846e-03   4.1189510e-04   9.2509645e-04  -5.6895398e-04   1.9599871e-04   8.4020174e-04  -1.0455911e-03  -1.0761017e-03  -1.5470185e-03  -2.2345197e-03  -8.4197184e-04   6.1717222e-04   1.7461706e-03   1.1271210e-03   1.4884763e-03  -1.2882963e-03   1.8283079e-03   2.5341997e-03  -1.1063593e-03  -6.0855591e-04   2.0603927e-04  -6.5481239e-05  -1.5801357e-04  -1.4191415e-03   4.0721853e-04  -6.6556138e-05   2.3027591e-04  -2.6536200e-04   4.0131409e-04   1.9335584e-04  -4.0619521e-04   2.3476015e-04  -2.2038238e-04  -1.0870787e-03   1.9028629e-04   2.4199751e-03  -6.5760955e-04   5.8177969e-04  -1.8774846e-04   1.2793747e-04   6.3532777e-04   1.4808570e-03   2.1786535e-04
  -3.8316552e-04   6.2120031e-04   1.8452130e-04   2.0348100e-04   1.7242938e-04   1.4330503e-03   7.0093718e-04   2.2616356e-03   1.1398760e-04   9.2554605e-04  -5.0630455e-04   3.3103791e-04   8.7795866e-04  -1.0906508e-03  -7.5070362e-04  -1.2280316e-03  -2.1261731e-03  -1.1434577e-03   1.3031290e-03   1.4693376e-03   1.1143482e-03   1.7089702e-03  -1.6224217e-03   2.8884127e-03   9.3552604e-04  -9.3769829e-04  -5.4830161e-04   1.0121539e-04   3.2503123e-04  -1.7296989e-04  -1.3815974e-05   1.2611516e-04   1.4232376e-03   1.8655110e-04  -3.5009539e-04   9.0291386e-04   2.7865238e-04  -3.9123202e-04   3.9881845e-05   2.6499020e-04  -3.9555627e-04   2.3774152e-04   1.9289332e-04  -6.0407375e-04   1.4855552e-03  -4.9718702e-04   1.2711111e-04  -1.2272543e-03   1.3519332e-03   1.7419145e-04
  -2.7228455e-04   6.3575915e-04   4.4791619e-04   2.0558346e-04   1.7365451e-04   1.2151161e-03   7.0972490e-04   2.1793598e-03   9.5401937e-04   9.4768882e-04  -5.9503620e-04   2.4804109e-04   9.1118488e-04  -1.0894655e-03  -5.4108578e-04  -1.4871826e-03  -2.1597554e-03  -1.1791820e-03   6.4062426e-04   2.0704442e-03   1.1292145e-03   1.5792763e-03  -1.0165422e-03   1.4243464e-03   1.8944885e-04  -8.9500222e-04  -5.7054253e-04  -6.3672928e-06   5.5946223e-04  -1.7925436e-04   2.4488836e-04   1.5323167e-04   1.0677140e-03   5.1373223e-05  -3.8817478e-04   6.7565573e-04   1.6314245e-04  -4.4563322e-04  -1.3406487e-04   2.9669848e-04  -9.4593613e-04   3.2186991e-04   9.8684232e-04  -7.3693437e-04   1.9575278e-03  -6.2239764e-04   1.4363929e-04   1.8492869e-04   1.4402707e-03   2.6233619e-04
  -2.5131635e-04   6.5394019e-04   5.2356941e-04   2.7165411e-04   5.9808628e-04   1.2941170e-03   9.7774190e-04   1.9497823e-03   1.7576618e-03   9.8648423e-04  -5.0493237e-04   2.4830128e-04   9.3380705e-04  -1.0229446e-03  -7.5348711e-04  -1.5807922e-03  -2.1547342e-03  -1.1586103e-03  -2.8902979e-04   2.1842187e-03   1.1787110e-03   1.4808123e-03  -1.1367413e-03  -8.3473942e-04   3.1084547e-04  -9.7699033e-04  -5.8730179e-04   1.0971790e-04  -2.1737414e-04  -1.7010266e-04  -2.2301078e-03  -5.5360288e-04   9.9691725e-04   1.8791379e-05  -3.0561650e-04   1.0772529e-03  -1.5294920e-04  -3.8974080e-04  -1.0555454e-04  -3.0607061e-04  -8.3729322e-04   3.2794545e-04   1.6071965e-03  -8.6326263e-04   2.5512467e-04  -6.1736029e-04   1.2362696e-04   1.6201900e-03   1.3907005e-03   2.3929667e-04
  -4.4722209e-04   6.2087952e-04   4.1726278e-04   2.1093356e-04   2.9036414e-04   1.1406804e-03   7.8987947e-04   1.8977463e-03   1.4400790e-03   9.4006106e-04  -6.1694079e-04   2.6748190e-04   8.9100876e-04  -1.0787569e-03  -7.4415491e-04  -1.6443805e-03  -2.2706322e-03  -1.2245236e-03  -8.5337274e-04   1.7879083e-03   1.1478633e-03   1.6152046e-03  -1.0724610e-03   1.5143026e-03   2.7774385e-04  -1.0453509e-03  -7.0182135e-04  -2.7465072e-04   1.0817671e-04  -1.7324464e-04  -2.1261796e-03   2.8014707e-04   9.4904250e-04   5.5768964e-05  -2.8844542e-04   2.9211194e-04   1.3527412e-04  -4.1809317e-04   1.8097939e-05   1.0745929e-04  -2.3740071e-05   2.9929591e-04   3.1862298e-03  -8.8684208e-04   9.7245758e-04  -3.3265378e-04   1.2219913e-04   1.9945996e-04   1.2907451e-03   2.1372008e-04
  -1.8111542e-04   5.8475125e-04   2.4846214e-04   2.7391734e-04   6.7584467e-04   1.2542019e-03   6.4661773e-04   1.1031476e-03   3.4389709e-04   9.6795603e-04  -5.4856238e-04   3.8241240e-05   7.9039083e-04  -1.1035178e-03  -1.0712438e-03  -1.9113921e-03  -2.3514798e-03  -1.2106075e-03  -4.1351095e-04   1.8724914e-03   1.1545365e-03   1.7660125e-03  -8.8013883e-04   1.7595477e-05   1.5354588e-03  -1.0052716e-03  -7.2582177e-04  -1.0960599e-04   9.5603114e-05  -1.4997466e-04  -3.5132002e-04  -3.0466374e-05   6.8353489e-04   5.1541640e-05  -2.9289766e-04   7.0297281e-04   1.6843631e-05  -3.9000186e-04   8.2783110e-05  -7.1727387e-05   7.2083762e-04   3.7116278e-04   1.8264207e-03  -7.1520975e-04   8.3162304e-04  -1.1414934e-03   2.9423643e-05   1.1323820e-03   1.5127509e-03   1.6603242e-04
  -2.9662828e-04   6.1990909e-04   1.4835138e-04   2.8632817e-04   7.6060467e-05   1.2674420e-03   8.4506674e-04   8.3798671e-04   1.0868508e-03   9.4359275e-04  -6.7056791e-04  -9.0211761e-05   7.8316132e-04  -1.1431561e-03  -7.2638784e-04  -1.7683170e-03  -2.3945044e-03  -1.2639895e-03   6.8152724e-05   1.3469444e-03   1.1586871e-03   1.6892357e-03  -1.3239369e-03   1.8671316e-03   5.6642329e-04  -1.0064911e-03  -9.1354433e-04  -9.0918133e-05   3.0643737e-04  -1.3658250e-04   8.4356533e-04  -2.6581814e-05   9.3682633e-05   1.7843524e-04  -2.5635975e-04   5.1072991e-04   2.3743281e-05  -3.4631969e-04   1.3430728e-04  -6.2502753e-05  -1.0945327e-03   2.3773692e-04   1.6382964e-03  -7.8078691e-04   7.9731474e-04  -4.3568140e-04  -5.6489414e-05  -8.8361010e-04   1.2830225e-03   2.0882623e-04
  -2.0391983e-04   6.4448413e-04   3.1625188e-04   3.0894525e-04   3.9282287e-04   1.4508715e-03   9.6898124e-04   2.0192247e-03   1.3654996e-03   8.6743833e-04  -6.3737261e-04   1.9294342e-04   8.0803240e-04  -1.1271928e-03  -9.3286909e-04  -2.0298213e-03  -2.4836319e-03  -1.6008865e-03   2.5634660e-04   1.8812546e-03   1.1602604e-03   1.7466925e-03  -1.4743999e-03   4.9445621e-04  -1.0689632e-03  -1.0957256e-03  -9.6000882e-04  -1.6292372e-05   2.2959501e-04  -1.0712468e-04  -1.8513524e-03  -5.7057920e-04   1.2200508e-03   2.0769016e-04  -2.3284458e-04   7.5613981e-04   1.7734068e-04  -2.8106078e-04  -2.7476178e-04   1.0778199e-04  -7.2348642e-04   3.3942956e-04   8.4874325e-04  -7.3289155e-04   7.1521132e-04  -9.7818935e-05   3.7590649e-05   3.7214789e-03   1.3376697e-03   2.4417002e-04
  -3.0546621e-04   6.7900942e-04   1.7742212e-04   2.8302759e-04   2.4460364e-04   1.2429316e-03   1.0389066e-03   1.8253342e-03   4.3685915e-04   8.5997430e-04  -6.7162002e-04   2.2432793e-04   9.2743203e-04  -1.0873883e-03  -1.1917251e-03  -1.5249187e-03  -2.3479746e-03  -1.2396876e-03   1.1120860e-03   1.4017838e-03   1.1416735e-03   1.6534973e-03  -1.4093544e-03   2.6410384e-04  -1.1286846e-04  -8.5145020e-04  -8.9577847e-04   1.2406631e-04   1.5888204e-03  -1.2790215e-04  -7.6707749e-04   2.8857929e-04   4.3336904e-04   3.1855030e-04  -2.4158957e-04   2.4349238e-06   2.7798075e-04  -3.4937134e-04   7.2589108e-05  -1.6453089e-04   4.1855652e-05   2.5773741e-04   1.5772214e-03  -7.2241755e-04   9.3637221e-04  -6.4616447e-04   4.0921404e-06   1.2949277e-03   1.2782237e-03   2.0712521e-04
  -2.2291775e-04   6.5922417e-04   3.6615005e-04   2.5693889e-04   5.6719600e-04   1.4792240e-03   8.9402631e-04   1.9083159e-03  -3.6191230e-04   8.6476427e-04  -6.0628628e-04   2.7886924e-04   8.3297759e-04  -1.1137302e-03  -9.0236787e-04  -1.5520398e-03  -2.2583664e-03  -1.4953628e-03  -1.0801876e-03   1.8952311e-03   1.1223421e-03   1.7017717e-03  -3.6403202e-04  -5.8293290e-04   2.2788038e-03  -9.0426439e-04  -7.7640743e-04  -2.1457767e-05   6.6504127e-04  -1.4310096e-04  -1.5180669e-04   6.5174542e-04   8.4545632e-04   1.3773989e-05  -2.8830610e-04   6.6300877e-04   1.1371219e-04  -3.6850880e-04   2.3290298e-05   2.4633034e-04  -2.1732805e-04   1.2998679e-04   1.6910124e-03  -8.1784191e-04   1.2956120e-03  -4.2470521e-04   5.2442268e-05   1.4991428e-03   1.3153179e-03   2.0087782e-04
  -2.6229679e-04   5.8558851e-04   4.1326653e-04   2.5751645e-04   2.8443802e-04   1.4688441e-03   8.8166690e-04   1.2551170e-03  -1.7202712e-04   8.0972712e-04  -6.0663826e-04   5.8614364e-04   7.7232090e-04  -1.1116713e-03  -1.2510311e-03  -1.6704459e-03  -2.3663656e-03  -1.4387417e-03   2.3416056e-04   1.3133903e-03   1.1404929e-03   1.6057774e-03  -8.0232037e-04   6.1229046e-04   1.1141346e-03  -1.0496944e-03  -7.7106268e-04  -7.2432907e-05   9.1214944e-04  -1.3963028e-04  -1.8467557e-03  -7.1788003e-04   6.2488497e-04  -1.8828365e-05  -3.2420809e-04   9.0017484e-04   1.2922463e-04  -3.4652243e-04  -6.1287734e-05  -4.1833107e-04   5.1825686e-05   1.4107485e-04   1.0225564e-03  -8.5254258e-04   6.0483644e-04  -8.0160843e-04   8.0534781e-05   6.2341697e-04   1.1730229e-03   9.9430719e-05
  -3.9684703e-04   6.1483867e-04   3.2154715e-04   2.6065929e-04   4.2127955e-04   1.4112344e-03   6.8597472e-04   1.3177800e-03   4.7600784e-04   8.6891290e-04  -6.2183390e-04   2.4139983e-04   8.3242968e-04  -1.1173688e-03  -8.9141156e-04  -1.4481700e-03  -2.3689514e-03  -1.1995545e-03  -1.0475360e-03   1.6873529e-03   1.1033195e-03   1.5861270e-03  -9.4822719e-04   1.8509973e-03   9.5835706e-04  -1.0902835e-03  -7.9726509e-04   6.6618952e-05   2.9281969e-04  -1.4533222e-04  -1.6828163e-03  -8.5538620e-04   6.6580978e-04   3.3507531e-04  -2.1504896e-04   2.6452413e-04   6.3618651e-04  -3.5771905e-04   9.4972020e-05   1.0668969e-04  -7.6937000e-04   2.5240052e-04   1.3244817e-03  -8.1667211e-04   1.1476107e-03  -7.4338139e-04   9.3459261e-05   3.3124455e-03   1.4132854e-03   1.2494183e-04
  -2.8280795e-04   5.7089166e-04   2.2989906e-04   2.4751396e-04   3.6666388e-04   1.3629791e-03   6.9093943e-04   2.4997750e-03  -1.2685281e-03   8.8078383e-04  -4.5967958e-04   3.0441556e-04   7.7136687e-04  -1.1304531e-03  -2.8967866e-04  -2.0937538e-03  -2.2635837e-03  -1.1895976e-03   4.0862549e-05   1.5332818e-03   1.1148431e-03   1.6380544e-03  -1.1361545e-03   3.3034305e-03  -1.2938408e-04  -1.0441046e-03  -6.5610203e-04  -7.6686501e-06   5.3682440e-04  -1.5893104e-04  -1.0745988e-03  -1.4652661e-04   2.6136416e-04   8.8937995e-05  -2.2935621e-04   4.0878015e-04   5.8847724e-04  -3.9464585e-04   2.0239074e-04   4.0692691e-04   9.2422799e-04   4.3718415e-04   1.7741901e-03  -7.3090103e-04   1.9452229e-04  -7.0343725e-04   1.2794753e-04   1.0943821e-03   1.3489181e-03   2.5049568e-04
  -2.7613417e-04   6.2775781e-04   4.8041652e-04   2.5733470e-04   2.6907775e-05   1.2229047e-03   9.7998406e-04   2.3579381e-03   7.2695565e-04   8.7429449e-04  -6.5834983e-04   3.6807000e-04   8.0707890e-04  -1.1145454e-03  -5.5062561e-04  -2.1217079e-03  -2.3395279e-03  -1.3077292e-03   2.5972092e-04   1.9031120e-03   1.1400201e-03   1.6027039e-03  -1.1471634e-03   1.2949635e-03   5.1307090e-04  -9.7575638e-04  -7.5617118e-04  -2.3081561e-04   1.0490367e-03  -1.7888064e-04   1.0757316e-03  -7.1348698e-04   7.1178883e-04   3.5687990e-04  -2.2076919e-04   1.2125793e-03  -1.0601088e-04  -3.7577320e-04  -1.6861199e-04  -1.2643047e-04  -1.3384775e-03   2.9340122e-04   2.9532674e-03  -7.7418546e-04   1.7873443e-03  -6.0663681e-04   8.3291539e-05   2.7520657e-03   1.3254294e-03   1.4511586e-04
  -2.3821311e-04   5.7142309e-04   3.0686037e-04   2.0363501e-04   2.5093218e-04   1.2681276e-03   7.3745981e-04   1.0723070e-03   1.5218131e-03   8.5798837e-04  -6.0637749e-04   2.6730425e-04   7.8320969e-04  -1.1002761e-03  -8.9774735e-04  -1.9597255e-03  -2.3406667e-03  -1.5112568e-03   1.0419799e-04   1.7651848e-03   1.1171659e-03   1.6827988e-03  -8.9025748e-04  -7.9292903e-04   5.3835922e-04  -9.8764652e-04  -6.9393631e-04  -5.6743749e-05   5.9314549e-04  -1.8764185e-04  -1.8279448e-03   4.8430459e-04   8.7504322e-04  -1.1690269e-04  -3.9108293e-04   9.9530292e-04   3.6319561e-04  -4.0663360e-04   4.8284906e-05   1.4841318e-04   1.2090574e-03   5.0883810e-04   5.4134813e-04  -6.4489426e-04   3.6110968e-04  -9.4171724e-04   2.1528234e-05   4.9922295e-04   1.3668585e-03   4.8947040e-05
  -4.8849260e-04   5.9525832e-04   3.6171285e-04   1.7898408e-04   7.2730804e-04   1.4260944e-03   1.0467428e-03   1.9406307e-03  -1.1138433e-04   8.4043265e-04  -6.5301475e-04   2.1474672e-04   7.3864259e-04  -1.1648540e-03  -5.9554720e-04  -2.0175751e-03  -2.3482521e-03  -1.2034612e-03  -7.0826068e-06   1.6683281e-03   1.1423897e-03   1.7517449e-03  -1.2573299e-03  -3.4984789e-04   1.5845399e-03  -1.0696208e-03  -7.4521493e-04   3.9273387e-04   9.5406482e-05  -1.7213832e-04   2.4908674e-03  -4.2614425e-04   1.2483802e-03   4.0241063e-04  -2.9304580e-04   3.1550197e-04   1.8130691e-04  -4.7217892e-04  -4.5676352e-05   3.3493908e-04  -4.9880298e-04   3.3083750e-04   2.0173253e-03  -7.3124317e-04   8.3826255e-04  -7.6601555e-04  -1.2045112e-05   1.2002278e-03   1.1351997e-03   1.0695706e-04
  -2.9995883e-04   5.4793560e-04   3.3847216e-04   1.9693913e-04   6.2369817e-04   1.2802890e-03   7.5674185e-04   1.2548327e-03   1.3807106e-04   8.7603508e-04  -5.8415643e-04   3.8232468e-04   7.1429485e-04  -1.1188214e-03  -6.9632067e-04  -1.7591508e-03  -2.4018092e-03  -1.5449392e-03  -6.2337145e-04   1.5174202e-03   1.1668876e-03   1.7794680e-03  -7.9680880e-04   1.3378859e-03   1.9747399e-04  -1.0312762e-03  -8.0746104e-04   2.2265817e-04   1.5154018e-04  -1.4060036e-04  -9.2784961e-05  -4.1854655e-04   2.0089418e-04   2.8653411e-04  -2.6216861e-04   3.1113173e-05   1.8797842e-04  -3.5264157e-04  -2.3832517e-04   1.8428919e-04   2.3295998e-04   3.3809201e-04   9.9585275e-04  -7.5467466e-04   9.8129932e-04  -6.6924875e-04   3.0374849e-05   8.3634863e-04   1.2419928e-03   1.6718183e-04
  -2.9019112e-04   6.0918531e-04   1.4956937e-04   2.1014108e-04   2.5121417e-04   1.3305155e-03   7.8448147e-04   1.6636299e-03   1.1223699e-03   8.3143194e-04  -6.8068702e-04   2.2500903e-04   7.3191006e-04  -1.1344085e-03  -8.7096181e-04  -1.8699422e-03  -2.3921991e-03  -1.5499534e-03   8.2182133e-04   1.4707422e-03   1.1400579e-03   1.7926940e-03  -1.0486128e-03   1.9075096e-04  -1.3989412e-05  -9.4910205e-04  -7.9930975e-04  -2.6895493e-06   1.1485273e-03  -1.4658833e-04  -2.1927820e-04   2.8436477e-04   1.5215632e-04   2.2807207e-04  -3.0896557e-04   2.4077864e-04   8.3509040e-05  -3.6099533e-04  -9.5205462e-05  -2.4323656e-04   3.6536559e-04   1.3953303e-04   1.8349448e-03  -6.9570920e-04   2.1138156e-03  -8.4158155e-04   1.6308752e-05   6.6945667e-04   1.1508805e-03   1.3851245e-04
  -2.7889223e-04   5.9215422e-04   2.4682799e-04   1.7918002e-04   5.7557499e-04   1.3905858e-03   6.7975483e-04   1.6871104e-03   4.3417595e-04   8.0093037e-04  -6.2612753e-04   3.2539811e-04   7.5391965e-04  -1.0835590e-03  -9.0140244e-04  -1.7999669e-03  -2.5083479e-03  -1.7192902e-03  -1.6325631e-04   1.7751843e-03   1.1228431e-03   1.5209131e-03  -1.1963099e-03   4.2778015e-04   7.2525680e-04  -8.2717650e-04  -8.0272078e-04  -2.5731755e-05  -1.1411891e-04  -1.5297903e-04   1.0736639e-03  -5.0155993e-04   5.0591421e-04   8.7651359e-05  -2.9402453e-04   3.6325728e-04   5.6021533e-04  -3.6585802e-04  -1.1649208e-04  -3.7731159e-05   6.4186932e-04   9.3490242e-05   2.5307891e-04  -6.5723242e-04   2.0051207e-03  -5.0920591e-04   1.5359259e-05   1.6276845e-03   1.3818496e-03   1.4660023e-04
  -3.5272978e-04   5.7489827e-04   2.0284188e-04   1.3352817e-04   2.4504113e-04   1.2131226e-03   5.8077258e-04   1.8706778e-03   6.2694418e-04   8.0795528e-04  -6.3902675e-04   2.1626611e-04   6.1493512e-04  -1.1617735e-03  -8.7479228e-04  -1.9384269e-03  -2.4508787e-03  -1.1846749e-03   4.8566610e-04   9.6266018e-04   1.1105021e-03   1.4874145e-03  -7.9017878e-04   3.2473472e-03  -5.1967980e-04  -9.3178888e-04  -7.0914224e-04   4.5171412e-04   4.0222172e-04  -1.3742519e-04   8.6083537e-04   8.3935796e-05   7.0562924e-04   5.6160567e-04  -2.8065880e-04   3.6410907e-05   1.0481138e-04  -3.5033864e-04   5.2059720e-05   1.8654938e-04  -2.3905284e-04   2.3698094e-04   1.3077674e-03  -5.6911533e-04   1.5390746e-03  -5.8937847e-04   1.5202572e-04   1.2008788e-03   1.3717418e-03   2.9987207e-04
  -3.8379885e-04   5.8380287e-04   8.8933630e-05   1.4869562e-04   3.8987029e-04   1.2344023e-03   8.0048013e-04   2.2208919e-03   5.9925402e-05   8.9868472e-04  -5.1419513e-04   2.4447541e-04   4.9388671e-04  -1.1717764e-03  -9.2314917e-04  -1.9903504e-03  -2.6677547e-03  -1.6752064e-03   4.4062742e-04   1.9771403e-03   1.1046368e-03   1.6521724e-03  -1.5467723e-03   1.1271978e-03  -1.2745206e-04  -9.7245019e-04  -7.3635462e-04   1.8911097e-04   3.0977491e-04  -1.2125100e-04   1.0310868e-03   4.3004137e-04   9.7820838e-04   5.0283235e-04  -2.6466910e-04   1.7765447e-04   4.1948215e-04  -4.1780295e-04  -2.7566912e-04  -7.8519297e-05  -5.4989161e-04   1.5612926e-04   1.6356063e-03  -6.5644452e-04   2.4381573e-03  -6.2820636e-04   1.6983744e-04  -3.0388311e-04   1.3952779e-03   4.4321403e-04
  -2.8397844e-04   6.3438329e-04   2.9465036e-05   1.3759540e-04   3.2290435e-04   1.3060604e-03   9.8062609e-04   2.2540668e-03  -5.4039585e-04   8.2092220e-04  -5.1455863e-04   3.1070545e-04   5.3700054e-04  -1.1015262e-03  -4.6653312e-04  -2.2966331e-03  -2.7060516e-03  -1.6699586e-03  -8.3219245e-05   1.8830465e-03   1.1224292e-03   1.5927717e-03  -1.6188616e-03   1.0398884e-03   4.7549031e-05  -1.1217989e-03  -8.1013492e-04   1.8706969e-04   1.4458873e-04  -1.2207316e-04   3.1522530e-04  -2.3270567e-04   1.1458169e-04   1.5034160e-04  -3.6486593e-04   1.1636590e-04   3.2761635e-04  -3.5760849e-04   2.6179021e-05   3.2556625e-05  -4.5929655e-06   2.7442322e-04   2.6279106e-03  -6.9957535e-04   1.1420768e-03  -6.0177600e-04   1.6603919e-04   3.3492918e-04   1.4168170e-03   3.0423477e-04
  -2.3578774e-04   5.9983938e-04   6.7708592e-05   1.2763645e-04   3.8656269e-04   1.2583173e-03   8.7493571e-04   2.0620665e-03   4.5688101e-04   8.0149103e-04  -4.3453055e-04   2.1071300e-04   5.5384642e-04  -1.1399122e-03  -1.1278336e-03  -1.7822633e-03  -2.6174930e-03  -1.4489078e-03   1.9080991e-04   1.7238262e-03   1.0913606e-03   1.6620146e-03  -5.1761116e-04  -4.3762993e-04   2.5752836e-03  -9.2356629e-04  -7.2535215e-04  -7.8167483e-05   1.1760613e-04  -1.2908362e-04   1.1975573e-03   5.5393955e-04   9.4491185e-04   2.5819024e-04  -2.6421595e-04   9.6567289e-04   4.8150345e-05  -2.9782642e-04  -1.3002219e-04   1.9760070e-04  -5.5595511e-04   3.3423380e-04   4.6493977e-04  -6.3010550e-04   1.5673806e-03  -7.1590155e-04   2.1905306e-04   2.6895470e-04   1.4160286e-03   3.2200423e-04
  -1.0338065e-04   5.6609092e-04   2.7622678e-04   6.7791356e-05   2.7442441e-04   1.3491121e-03   6.3250435e-04   1.5152928e-03  -3.8247084e-04   8.9203124e-04  -3.5604471e-04   2.1558332e-04   5.6200626e-04  -1.1265661e-03  -1.2759112e-03  -1.9072780e-03  -2.5411369e-03  -1.3628814e-03   2.5252640e-04   1.4838256e-03   1.0823117e-03   1.4880341e-03  -1.0877447e-03  -1.0410952e-04   6.3533007e-05  -8.9395529e-04  -5.8035157e-04  -5.7302830e-05   5.7104975e-04  -1.3453564e-04   5.1395653e-04  -1.0861224e-03   5.0353882e-04   2.2491146e-04  -3.2255068e-04  -7.8930650e-05   1.3838391e-04  -4.1023109e-04   1.2182978e-04   1.8377829e-04   9.0176225e-05   3.4206657e-04   7.8364118e-04  -6.0623011e-04   1.3378977e-03  -5.0783885e-04   2.4818096e-04   6.2653515e-04   1.5925360e-03   2.7780066e-04
  -1.9119601e-04   5.4594508e-04   3.6198064e-04   1.1036560e-05   2.5063613e-04   9.4546925e-04   7.7275938e-04   1.6495732e-03   1.0544780e-03   9.3849155e-04  -3.7766650e-04  -2.6786091e-05   7.7559700e-04  -1.0789444e-03  -2.0744206e-04  -1.1664670e-03  -1.8311912e-03  -1.2150978e-03   1.5654102e-04   1.6569318e-03   1.0409162e-03   1.4587537e-03  -8.2690833e-04   1.3131915e-03   1.4935639e-03  -5.6615222e-04  -3.9070353e-04  -4.2911866e-04   2.8740678e-05  -2.1198843e-04   7.1747886e-04   5.1023648e-04   3.3014599e-04   2.0298926e-04  -3.8852557e-04  -1.8100503e-04   1.2965696e-05  -4.6865165e-04  -1.4707890e-04   8.3570631e-05   6.3128711e-04   1.5102347e-04   1.4733832e-03  -7.0749730e-04   2.6294275e-04  -7.4762118e-04   9.4844698e-05   1.2462873e-03   1.1729292e-03   2.2535892e-04
  -1.6474591e-04   4.1939371e-04   4.0460308e-04  -7.0250651e-05   5.2770675e-04   1.1745270e-03   7.5262185e-04   1.7082271e-03   3.0242663e-04   9.0023014e-04  -3.7962050e-04   2.1744287e-04   1.0886685e-03  -9.2234719e-04  -5.1489880e-04  -9.9099602e-04  -1.2488180e-03  -1.1059142e-03   8.3610695e-04   1.8180182e-03   1.0157435e-03   1.5443420e-03  -1.0488612e-04  -5.7224522e-04  -1.6125704e-03  -6.7783007e-04  -1.9617457e-05   5.6301760e-05  -3.8186912e-04  -2.8236237e-04   7.0600836e-05  -8.8951236e-04  -1.3617495e-04  -4.1005758e-04  -4.1824672e-04   7.6166209e-04   1.7496284e-04  -4.7373844e-04   1.3059571e-04   4.3207780e-04   2.9908773e-04   2.2581453e-04   1.5155190e-03  -6.0296879e-04   8.2335115e-04  -1.8054082e-04   5.8532093e-04   2.4867014e-03   1.7012928e-03   7.0754916e-04
   3.1352541e-04   3.1864143e-04   1.0099610e-03  -2.3900537e-04   4.9702486e-04   7.0216763e-04   5.5176980e-04   8.5123780e-04  -5.4038348e-05   1.0343824e-03   2.7742161e-04   4.7764417e-05   6.0105353e-04  -8.5863576e-04  -1.9520710e-04  -1.1308636e-03  -1.1306731e-03  -5.9955392e-04  -7.7208440e-04   2.6618242e-03   9.3009148e-04   1.2993048e-03  -1.5855893e-04   1.1504705e-03  -2.9223750e-04  -2.6233771e-04   5.8832089e-04  -1.3482105e-04  -4.1390082e-04  -2.9465690e-04   2.4442754e-03  -6.5262691e-04   1.0699382e-03  -3.0047531e-04  -3.7830134e-04   4.9034844e-04   5.9092243e-04  -6.9735985e-04   3.3617507e-05   1.6656425e-04   3.3283146e-04   3.7684495e-04   1.5261456e-03  -4.9580628e-04   4.7117675e-04  -3.5998292e-04   1.1297076e-03   1.8144386e-03   2.2504933e-03   1.1687612e-03
   4.6126399e-04   2.0132722e-04   7.2679395e-04  -3.8991487e-04   3.4133089e-04   3.1474861e-04   5.6146749e-04   6.8728684e-04   7.2718097e-04   1.2809037e-03   7.9545984e-04   8.3897488e-05   4.5324044e-04  -7.7235891e-04  -1.6077855e-04  -1.5987374e-04  -1.7163201e-03  -1.1305024e-04   1.9347491e-03   2.4893959e-03   9.2728261e-04   1.1146478e-03  -1.3864027e-04   2.2025772e-03  -7.0358266e-04  -3.7988825e-04   5.5740814e-04  -2.3561891e-04  -4.3334399e-04  -2.5486443e-04   1.6162536e-03  -1.6360210e-03   1.0656641e-03  -1.5653518e-04  -4.1348700e-04   3.4967157e-05  -1.2747053e-04  -7.8860665e-04   3.6475449e-04   2.6108380e-04  -2.6612758e-04   4.2214978e-04  -2.4717135e-04  -4.6021701e-04   3.8130427e-04  -5.0710654e-04   1.4709888e-03   4.5467815e-03   2.6034033e-03   1.1765679e-03
   5.5383478e-04   1.2695225e-04   1.1870640e-03  -4.2996925e-04   3.4996614e-04   3.5102086e-04   5.7384907e-04   8.5243996e-04   1.0133220e-03   1.6530881e-03   1.1165863e-03   4.0244297e-04   2.7015098e-04  -8.5138023e-04  -2.4021683e-06  -6.3882442e-04  -2.2743072e-03  -3.5546097e-04   4.2393178e-04   1.8077065e-03   1.0329497e-03   1.1389769e-03  -6.7212153e-04  -1.8510285e-03   2.3699545e-03  -5.2739040e-04   5.4706115e-04  -1.3756815e-04  -4.4493299e-04  -1.4598692e-04  -2.3332861e-05  -8.0038887e-04   2.6973165e-04  -5.3413271e-05  -3.5272856e-04   2.0877650e-04   4.5313046e-04  -7.4894098e-04  -2.7048261e-05   1.4743238e-04  -1.1156186e-04   6.9141341e-04   3.7838757e-04  -4.9164193e-04   9.7835448e-04  -4.2048120e-04   1.5929518e-03   6.3636540e-03   2.8016530e-03   1.1510117e-03
   5.8817962e-04   1.7879288e-04   1.1984028e-03  -4.2955118e-04   2.0503947e-04   4.8323703e-04   7.6029787e-04   1.0131703e-03   8.8709575e-04   1.6424875e-03   1.1961872e-03   3.0061291e-04   3.3347923e-04  -7.6504768e-04  -1.1457655e-04  -8.1036094e-04  -2.3984264e-03  -3.3600471e-04   1.5821976e-03   2.5533480e-03   9.5287175e-04   1.1164076e-03  -4.5782179e-04  -2.8561821e-04   1.0506770e-03  -4.8945472e-04   4.2322144e-04  -4.8384999e-04  -5.7999516e-04  -1.3219120e-04  -1.9193592e-04  -8.3294191e-04   6.5627927e-04  -1.2748461e-04  -2.6414753e-04   1.1131177e-03   6.1459135e-04  -7.0371089e-04   3.2887669e-04   8.5205113e-04   2.5110771e-03   6.4861367e-04   7.5324671e-05  -4.1372245e-04  -2.4820311e-04  -8.0182021e-05   1.4274024e-03   5.4688011e-03   2.5611054e-03   1.3459433e-03
   6.8662362e-04   1.6873739e-04   1.0614863e-03  -4.7934262e-04   2.7897149e-05   4.5146851e-04   8.4604911e-04   6.7081762e-04   6.8309309e-04   1.4646347e-03   1.1655834e-03   3.8761139e-04   4.8044455e-04  -7.7166659e-04  -2.2781336e-05  -8.5622497e-04  -2.0226662e-03  -2.7658050e-05  -8.0454373e-04   2.2728741e-03   1.0196691e-03   9.9844730e-04  -5.3708826e-04   1.2968767e-03   2.2699642e-04  -3.0573586e-04   4.2636399e-04  -1.2007129e-05  -3.1792079e-04  -1.4343420e-04   1.7838728e-03  -5.2714301e-04   7.0623058e-04  -4.8524173e-05  -3.2164165e-04   8.6435856e-04   6.2876404e-04  -7.2418019e-04   2.5946484e-04   2.9615941e-04   2.9835658e-04   2.9543054e-04   8.4748567e-04  -4.3789935e-04   7.7149720e-04  -2.9432506e-04   1.1324857e-03   1.2395699e-03   2.6415030e-03   1.3339338e-03
   4.3445939e-04   1.5722097e-04   1.1740230e-03  -4.5732901e-04   3.4103129e-04   3.2940533e-04   1.1686181e-03   5.4122083e-04   2.8737966e-04   1.4277630e-03   1.2113568e-03   2.1270532e-04   5.1315007e-04  -8.4451900e-04   6.1509163e-05  -8.7369711e-04  -2.2796735e-03  -1.5372569e-04   1.7453165e-03   2.3448539e-03   1.0377322e-03   9.9514751e-04  -5.7500682e-04   1.6514185e-03   1.4181703e-03  -4.4907816e-04   4.3960140e-04  -2.6063414e-04  -1.1162655e-04  -1.7631390e-04   9.2299731e-04   4.9854250e-04   1.0897021e-03  -1.2972212e-04  -4.2691801e-04   1.3980436e-03   3.6767725e-04  -6.9589290e-04   3.7944297e-05   5.0153374e-04   9.5452688e-04   6.6516548e-04  -9.7258715e-05  -4.5941866e-04   1.3768475e-03  -5.8905978e-04   1.1689056e-03   1.2064868e-03   2.5381714e-03   1.0821352e-03
   5.2245753e-04   1.3076793e-04   7.7809842e-04  -4.8610487e-04  -2.2165650e-06   2.1334003e-04   5.4828369e-04   5.1577820e-04   7.4955961e-04   1.3996161e-03   1.0257326e-03   3.1830042e-04   4.8794580e-04  -8.1954530e-04   2.2148561e-05  -8.7487540e-04  -2.2279790e-03  -3.1499108e-04   1.1511863e-03   1.7576162e-03   1.0475497e-03   1.0720049e-03  -1.0472700e-03   1.4407306e-04  -1.3266705e-05  -3.8624089e-04   3.7355960e-04   8.8600773e-06  -4.3813669e-04  -2.0822474e-04  -1.5698257e-03   2.1220626e-06   3.3113072e-04   2.1065251e-04  -4.4258140e-04   1.1253327e-03   5.2194350e-04  -6.7092018e-04   2.4795867e-04   2.0481250e-04   2.3136786e-03   4.3033791e-04   6.3776027e-04  -3.9276324e-04  -3.2115026e-04  -2.0009995e-04   1.1002950e-03   3.3808139e-03   2.4961273e-03   1.2107769e-03
   4.3292154e-04   1.2777305e-04   7.4704114e-04  -5.0010876e-04   4.9981545e-04   2.4769519e-04   7.3112239e-04   7.8020676e-04  -4.5283377e-04   1.3460633e-03   1.1021513e-03   2.0576373e-04   5.1231805e-04  -8.4259646e-04   1.3178674e-04  -5.9810648e-04  -2.3459657e-03  -2.7838271e-04   1.9811213e-03   2.1143772e-03   1.0456294e-03   1.1374603e-03  -9.1467809e-04   5.5900723e-04  -4.3296030e-05  -4.1349043e-04   4.6329823e-04  -1.1044349e-04  -3.6585252e-04  -2.1749467e-04  -7.8699685e-04  -1.0543856e-03   6.6460343e-04  -6.4617059e-05  -3.9694898e-04   8.9665747e-04   8.0992311e-04  -8.0492272e-04   1.8759086e-04   1.7298250e-04  -7.5882650e-05   4.9287133e-04   4.3005106e-04  -3.4407311e-04   9.3732687e-04  -2.5280172e-04   1.0485734e-03   3.1699594e-03   2.5500199e-03   1.2597542e-03
   4.2848074e-04   1.6577811e-04   9.7898394e-04  -4.7631256e-04  -9.1170601e-05   4.3305146e-04   6.0708763e-04   6.9799373e-04   2.9658890e-04   1.3390643e-03   9.9208497e-04   2.1876795e-04   3.7684728e-04  -9.5057476e-04   5.0148410e-05  -9.2617585e-04  -2.6640138e-03  -4.9234071e-04   1.1521945e-03   1.5078211e-03   1.0483388e-03   1.1002511e-03  -5.6315068e-04   1.9547725e-03  -6.8663590e-04  -4.0175772e-04   3.4242863e-04  -5.8003695e-04  -4.4208235e-04  -1.5207785e-04   2.9134364e-03   3.6259516e-05   1.9519783e-03  -1.2630901e-04  -4.1566984e-04   5.6640501e-04   4.3699300e-04  -6.6563050e-04   2.4625633e-04   5.2101328e-04  -1.4444250e-03   4.7907836e-04   1.4331617e-03  -2.6726446e-04  -1.1323913e-04  -7.8873512e-05   1.1406532e-03   1.5465200e-03   2.6914706e-03   1.2021450e-03
   2.8419576e-04   2.0946701e-04   1.0010677e-03  -3.9107719e-04   2.8800414e-04   4.9611524e-04   6.1607256e-04   6.4413558e-04   8.4003195e-04   1.3623692e-03   1.1479482e-03   2.7943513e-04   2.5726281e-04  -9.9175947e-04   8.0831142e-06  -5.6169351e-04  -2.7320408e-03  -6.6229515e-04   3.5418800e-04   2.2590412e-03   1.0466509e-03   1.1419434e-03  -4.1787673e-04  -9.1330626e-04   1.5999032e-04  -6.7866832e-04   3.1489931e-04  -4.9186638e-04  -3.6011779e-04  -1.9075237e-04   9.4235677e-04  -4.8609199e-06   8.2064980e-06   3.2663910e-04  -3.9939609e-04   1.1090619e-03   4.6792233e-04  -7.4355066e-04   1.2283024e-05   3.0414121e-06   8.9177152e-04   6.3399615e-04   8.0614683e-04  -4.6942101e-04   1.3394974e-03  -3.0617349e-04   1.1755762e-03   2.9779619e-03   2.5396983e-03   1.0888040e-03
   5.3758686e-04   1.9902841e-04   8.9303713e-04  -4.4461666e-04   3.9160272e-04   1.8154552e-04   7.9253869e-04   1.0158893e-03   3.7994477e-04   1.4456973e-03   1.2035839e-03   1.0563827e-04   1.2068433e-04  -9.9973369e-04  -8.0814447e-05  -4.9599522e-04  -2.7150679e-03  -3.8399367e-04  -2.3440983e-04   2.2407216e-03   1.0488345e-03   1.1640819e-03  -9.6019346e-04   6.1315653e-04   5.4379820e-04  -6.1136443e-04   2.5762836e-04   1.5638992e-05  -2.4281550e-04  -2.0431160e-04  -3.3339651e-04   5.1589333e-04   8.5502537e-04   1.0908699e-04  -4.1782981e-04   1.2565248e-04   9.2872989e-04  -7.6324347e-04   2.3706563e-04   3.4827084e-05   1.4095756e-03   4.2525024e-04   1.1292991e-03  -3.7119671e-04   8.8540540e-04  -3.4433091e-04   1.0770090e-03   1.8903386e-03   2.6475869e-03   1.0052343e-03
   2.3805062e-04   2.0321763e-04   8.8853406e-04  -4.3695932e-04   2.9735247e-04   4.4904734e-04   6.1351067e-04   1.1629518e-03   8.3768833e-04   1.4237941e-03   1.1676955e-03  -1.3281281e-05   2.1520013e-04  -1.0195568e-03  -5.2304659e-04  -6.7805074e-04  -2.6225764e-03  -4.9816084e-04   1.3360278e-03   1.8803974e-03   1.0823846e-03   1.1311457e-03  -8.5658737e-04   6.7765068e-04  -2.1606339e-03  -4.9310079e-04   2.4154004e-04  -3.0377222e-04  -6.0987379e-04  -2.2234017e-04  -1.0636653e-04   2.5981999e-04   7.8105018e-04  -3.5151716e-05  -4.4847114e-04   1.3197835e-03   1.6544395e-04  -7.1751850e-04   1.2705469e-04  -1.2161592e-04   2.0429467e-04   5.3151511e-04   4.8968883e-04  -4.6697856e-04   6.0218049e-04  -5.2457408e-04   9.8257570e-04   2.2450280e-03   2.3809043e-03   1.0742131e-03
   3.1086899e-04   2.1955029e-04   9.2906336e-04  -4.7853871e-04   2.5610937e-04   4.2794860e-04   4.8573554e-04   1.0496564e-03   2.3110111e-03   1.3848405e-03   1.0247737e-03   3.2087250e-04   3.9970112e-04  -9.3724841e-04  -1.3809366e-04  -5.5570411e-04  -2.2787659e-03  -6.0080423e-04   1.7980298e-03   1.7105221e-03   1.0495824e-03   1.0834448e-03  -2.3461094e-04   2.1552255e-03   2.1229270e-04  -5.2168849e-04   3.1678460e-04  -2.1724458e-04  -4.3004449e-04  -2.3454808e-04  -1.6748570e-03  -7.8622613e-04   3.2591185e-04  -2.4449888e-05  -4.8222294e-04   3.7911750e-04   2.8478124e-04  -7.1736908e-04   1.6247686e-05   5.7166413e-04   4.9405702e-04   4.6825843e-04   1.0176729e-03  -4.9123174e-04   7.2733843e-04  -4.1412943e-04   8.6179335e-04   2.4540534e-03   2.5258085e-03   1.2313755e-03
   4.8872409e-04   2.2451533e-04   6.8782410e-04  -4.2601791e-04  -7.2563256e-05   4.4318728e-04   8.5527101e-04   6.8031618e-04  -4.0731241e-04   1.4612139e-03   1.1553940e-03   1.0868424e-04   5.3360249e-04  -9.1556046e-04  -2.1090297e-04  -3.1775466e-04  -2.0483886e-03  -6.1806157e-04   2.9925057e-03   1.5764623e-03   1.0917231e-03   1.0828329e-03  -4.2243661e-05   5.1716162e-04  -7.5425563e-04  -3.4865981e-04   4.0412831e-04  -4.2269102e-04  -8.1993730e-06  -2.3300367e-04   3.6417344e-04  -3.5179176e-04   4.2994096e-04   2.0603478e-04  -4.8011099e-04   5.4263440e-04   8.0317358e-04  -7.9133193e-04   6.1883162e-05   5.3719676e-04  -2.0852884e-04   4.1842595e-04   6.5039884e-04  -4.4730390e-04   7.0507580e-04  -4.1859105e-04   9.2477741e-04  -3.2290618e-04   2.5662545e-03   1.0198281e-03
   3.7309332e-04   1.6507166e-04   9.2991523e-04  -4.7173776e-04  -2.8790790e-05   4.2851374e-04   5.9895002e-04   4.2786123e-04   1.0285331e-03   1.4874132e-03   1.1344281e-03   2.9573450e-04   7.4008113e-04  -7.9821050e-04  -1.4365464e-04  -4.1264814e-04  -1.8601923e-03  -1.9092044e-04   1.2062296e-03   2.2322240e-03   1.1258909e-03   1.0439790e-03  -2.5564453e-04  -8.2880707e-04  -2.1640265e-03  -3.3366284e-04   4.2910507e-04   1.0490243e-04  -2.6524099e-04  -2.4776661e-04   5.0493598e-04  -2.2850251e-04   8.7550812e-04   4.2497497e-05  -5.1406363e-04   3.0665324e-04   4.0486830e-04  -7.6179119e-04   3.3213539e-04   3.5127564e-04   7.0633175e-04   2.5476620e-04   1.0528556e-03  -4.3776041e-04  -3.1576850e-04  -3.7309732e-05   8.9532515e-04   3.1977671e-03   2.4372020e-03   1.2276695e-03
   6.5696257e-04   2.1968072e-04   1.0675855e-03  -4.5956971e-04   4.5859165e-04   4.9596885e-04   9.0512185e-04   3.2717246e-04  -3.5128873e-04   1.5193553e-03   1.2073539e-03   3.5495879e-04   4.9016916e-04  -9.4891572e-04  -6.3660482e-05  -6.1107922e-04  -2.5406245e-03  -4.8524895e-04   8.3400926e-04   2.4542080e-03   1.1997004e-03   1.1250118e-03  -5.7028759e-05   6.2191240e-05  -1.1083173e-03  -4.3340103e-04   4.1053508e-04  -9.5174437e-05  -1.1982279e-03  -1.6305092e-04   6.8943034e-04   8.3221821e-05   9.8959496e-04   4.0336821e-05  -4.1911344e-04   1.0217325e-03   5.3212262e-04  -6.7866332e-04   8.7144392e-05   4.0694341e-04  -4.0876784e-04   6.3162186e-04   7.3821476e-04  -2.2950824e-04   9.7885227e-04   2.1777704e-04   1.2864460e-03   1.9408889e-04   2.7615835e-03   1.4920157e-03
   6.7173358e-04   1.8598831e-04   1.0207336e-03  -4.1850054e-04   3.1894763e-04   3.8055980e-04   8.9678669e-04   3.4313870e-04   4.7452902e-04   1.5875781e-03   1.2673739e-03   4.3008878e-04   8.1556058e-04  -8.4145286e-04   7.5747223e-05  -6.6705071e-04  -1.9020052e-03  -2.2790061e-04   2.1961243e-03   2.4757364e-03   1.2176941e-03   1.0849409e-03  -1.4144372e-05   1.0266717e-03  -9.6912132e-05  -3.9877481e-04   4.5928359e-04  -2.5389856e-04  -3.1500429e-04  -1.0552158e-04   9.9392748e-04   5.1183021e-04   6.2172406e-04   8.7950983e-05  -2.7547326e-04   1.3173101e-03   1.3698614e-03  -7.1297708e-04   1.2629999e-04   3.7789781e-04   1.0045697e-03   7.9258269e-04   2.5593955e-04  -2.5547828e-04   3.9627231e-04   3.1297133e-04   1.6176655e-03   3.0987379e-03   2.7556063e-03   1.5820587e-03
   7.3779625e-04   1.6931687e-04   1.3448910e-03  -4.3662597e-04   1.2588495e-04   2.5850284e-04   9.1305806e-04   1.1292405e-03   2.9236497e-03   1.6167599e-03   1.4364447e-03   4.5477465e-04   8.2596124e-04  -7.9362158e-04  -1.2441466e-05  -3.6896628e-05  -1.8687433e-03   4.0970618e-04   5.8190862e-04   2.3401161e-03   1.1701516e-03   1.1111764e-03  -1.8712401e-04  -1.9093426e-03  -8.7811211e-05  -4.2375899e-04   4.0973266e-04  -2.4416466e-04  -1.7531781e-04  -1.8346962e-04   7.9637405e-04   6.2767090e-04   7.4275007e-04   5.8016256e-05  -4.5896907e-04   7.3289411e-05   4.7472902e-04  -7.4792653e-04   1.4628578e-04   6.9353834e-04   1.1721910e-03   3.1103546e-04   9.0450374e-04  -3.6015379e-04   4.1286502e-04  -1.3193450e-04   1.4393306e-03   2.5569135e-03   2.8566727e-03   1.4246220e-03
   6.5618608e-04   2.0152883e-04   1.2445821e-03  -4.3192078e-04   2.5059495e-04   2.3271305e-04   7.2407123e-04   9.3040767e-04   1.3328571e-03   1.7659158e-03   1.3572426e-03   3.6226050e-04   4.9639028e-04  -9.5588272e-04   4.2675744e-04  -4.7326542e-04  -2.5114864e-03  -2.4822395e-04   3.9125825e-04   1.7043104e-03   1.3099540e-03   1.2293184e-03   1.4319347e-04   3.7942925e-03   2.6989666e-05  -6.8156869e-04   3.0565215e-04  -1.1629802e-05  -3.0318269e-04  -1.4866350e-04  -4.0564639e-04  -6.1423436e-04   7.8360888e-04   2.2105462e-04  -3.3791346e-04   1.5073687e-04   7.6913112e-04  -6.6115661e-04   3.1184565e-04   5.2106631e-04  -5.1990128e-04   8.2737982e-04   9.2329421e-05  -1.6784477e-04   3.1237595e-04  -1.2052844e-04   1.5601262e-03   6.4252486e-04   2.9861408e-03   1.4183387e-03
   5.2948768e-04   2.2866587e-04   1.0796633e-03  -4.1716831e-04   5.1675561e-05   4.6863564e-04   7.8856148e-04   3.0053666e-04  -2.5931899e-05   1.8151887e-03   1.3555622e-03   4.7891631e-04   5.2291597e-04  -9.4110286e-04  -2.0240624e-04  -6.5237720e-04  -2.5005888e-03  -2.7664466e-04   1.1602215e-03   2.3505546e-03   1.3180590e-03   1.2121806e-03  -5.5777741e-04   1.6150086e-03   1.2021228e-03  -6.2727457e-04   2.9249844e-04  -5.0266116e-04  -9.4906223e-05  -1.2833941e-04  -1.3833871e-04  -8.0571935e-04   1.3581507e-03   2.8209534e-04  -4.3398171e-04   1.4933799e-03   1.1403528e-03  -6.2712951e-04   1.2557935e-04   5.6793238e-04  -5.1344978e-04   8.4118184e-04   8.0105994e-04  -2.3272922e-04   9.2196329e-05   3.0161079e-04   1.5838448e-03   3.5844252e-03   2.8313047e-03   1.3951508e-03
   6.7749229e-04   2.0732824e-04   1.3270738e-03  -3.4030480e-04   3.5433137e-04   2.9864296e-04   9.1659778e-04   7.1315578e-04  -2.7307266e-04   1.7690979e-03   1.5178928e-03   4.1966391e-04   5.4921274e-04  -9.8780985e-04  -1.1404111e-04  -4.4056313e-04  -2.5028596e-03  -2.5192805e-04   1.1738369e-03   2.1421041e-03   1.2262730e-03   1.1675955e-03   3.3147215e-05   1.2240488e-03   1.1017242e-03  -5.0028280e-04   3.5962922e-04  -3.4412392e-04  -1.6272662e-04  -1.1269284e-04   1.9188548e-03  -2.2960955e-04   2.0940065e-04   3.3062787e-04  -3.1604120e-04   5.1193091e-04   8.0454926e-04  -6.7877688e-04  -1.1616475e-04   3.5475026e-04   4.5531811e-04   6.8018906e-04   3.1738557e-04  -3.1577749e-04   5.6101731e-04  -3.6346324e-04   1.6395232e-03   2.9156050e-03   2.9192143e-03   1.4769337e-03
   8.1855309e-04   2.3493818e-04   1.1592894e-03  -3.7290849e-04   1.1462761e-04   3.2840780e-04   7.1487325e-04   7.6018856e-04   1.7427154e-04   1.6822988e-03   1.4595289e-03   3.3377562e-04   3.8266217e-04  -9.5470436e-04   7.1693103e-05  -4.6105718e-04  -2.6478940e-03  -3.1544623e-04   1.1783375e-03   2.7570720e-03   1.1402804e-03   1.0489066e-03  -4.1277148e-04   9.4457984e-04  -8.2050211e-04  -6.5373164e-04   3.9301807e-04  -1.2656899e-04  -1.9264483e-04  -1.2689501e-04   7.1307976e-04   4.1037158e-05   5.8697764e-04   6.6874585e-05  -3.2543263e-04   9.7907730e-04   5.4969295e-04  -6.7685772e-04   3.9018286e-04   5.9907761e-04   1.3084906e-03   7.5000105e-04  -1.2989160e-04  -3.0739015e-04   7.0536957e-04  -3.9242438e-04   1.7139036e-03   3.4330762e-03   3.0239569e-03   1.3188352e-03
   5.3284015e-04   2.3904374e-04   1.0349015e-03  -4.0063428e-04  -7.9212223e-05   3.8852196e-04   9.3098887e-04   6.2025455e-04   7.6850073e-04   1.6204562e-03   1.4695495e-03   4.2897573e-04   3.8991950e-04  -9.0706639e-04  -3.7445498e-04  -5.8863458e-04  -2.4790224e-03  -4.3247201e-04   2.0004336e-03   2.3152379e-03   1.2033659e-03   1.1174219e-03  -6.4893282e-04   7.1329472e-04  -1.2621364e-04  -6.7518442e-04   2.3699865e-04   2.2480229e-04  -6.3163426e-04  -1.3071166e-04  -1.7316602e-03  -4.6447499e-04   6.8208721e-04   2.9437363e-04  -3.4706309e-04   2.9901037e-04   1.1610398e-03  -6.6629314e-04   3.5547180e-04   3.6664240e-04   2.4374430e-03   8.9345913e-04   7.6178188e-04  -3.4176407e-04   7.6020084e-04  -2.2183747e-05   1.6963654e-03   1.8008826e-03   3.0011279e-03   1.5127152e-03
   8.0665137e-04   2.2262933e-04   1.0065630e-03  -4.0670176e-04   3.7703782e-04   3.4358271e-04   8.3052827e-04   9.6657663e-04   9.3421066e-04   1.5945294e-03   1.4452473e-03   2.6031144e-04   4.3607235e-04  -8.9489907e-04   1.6289271e-04  -8.6774155e-05  -2.5648940e-03  -1.9187703e-04   1.3966196e-03   1.4290322e-03   1.1820783e-03   1.2474298e-03  -2.9770567e-04   5.2213221e-04  -1.3209219e-03  -6.3114933e-04   4.0438396e-04  -6.5831191e-05  -4.3685423e-04  -1.2425514e-04   1.5844713e-04  -2.8311549e-04   8.3711714e-04   2.2885410e-04  -4.5716451e-04   4.9904425e-04   6.1895547e-04  -6.5692398e-04   2.0891348e-04   5.6130241e-04  -5.2261847e-04   6.8071380e-04   4.4674403e-04  -2.9557548e-04   9.5413806e-04  -3.6895808e-04   1.5322360e-03   3.8608457e-03   2.6745757e-03   1.3252426e-03
   6.9147750e-04   2.7891446e-04   1.3103721e-03  -3.6957057e-04   1.1175316e-04   3.7426021e-04   6.6562276e-04   8.3576445e-04   9.0738083e-04   1.6810060e-03   1.4393164e-03   4.4073720e-04   2.9016100e-04  -9.3290076e-04  -3.1694672e-05  -7.1388495e-04  -2.6699400e-03  -6.6353910e-04   2.4904413e-03   1.9282943e-03   1.2155381e-03   1.2425757e-03  -5.3460791e-04  -1.4767279e-03  -3.1718670e-04  -6.6220557e-04   3.5528836e-04  -1.1729688e-04  -8.6879496e-05  -1.2354045e-04   2.5471172e-03   4.9590686e-04   1.1121655e-03   2.2711692e-04  -3.4425614e-04   5.2184938e-04   8.9457550e-04  -6.9338409e-04   3.3373601e-04   1.0512916e-03   1.3783928e-03   6.3201884e-04  -2.0451691e-04  -2.8348478e-04   9.7415107e-04  -1.1292653e-04   1.6475408e-03   1.9151986e-03   2.8501453e-03   1.3770934e-03
   7.2658487e-04   2.8110284e-04   1.0559225e-03  -3.7380488e-04   2.8239031e-04   3.1979795e-04   9.8345010e-04   4.5277795e-04   2.1496961e-04   1.6781477e-03   1.5286000e-03   3.3691130e-04   1.9200385e-04  -9.8996458e-04  -2.1836699e-04  -8.6386176e-04  -2.9138997e-03  -5.1534665e-04   3.2763872e-03   2.0945084e-03   1.2576593e-03   1.1991186e-03  -7.7564991e-04   3.3185841e-03   6.0868607e-04  -6.0933479e-04   3.0016791e-04  -1.4545600e-04  -2.3287344e-04  -1.1651530e-04  -1.9585088e-04  -7.8329199e-04   2.3984615e-04   9.0864269e-05  -4.3661645e-04   2.2629857e-04   9.2964893e-04  -7.5548113e-04   2.5452278e-04   4.0106365e-04  -2.5376343e-04   6.1367441e-04   4.0225897e-04  -2.6361048e-04   1.8017190e-03  -2.9629324e-05   1.6016463e-03   3.8717231e-03   2.8570783e-03   1.3111987e-03
   6.4134481e-04   2.7665083e-04   9.6687273e-04  -4.2356557e-04   2.1850393e-04   3.3982890e-04   6.7062431e-04   8.5489784e-04   3.4484037e-04   1.6004442e-03   1.5594121e-03   4.1758319e-04   2.0394845e-04  -9.4656268e-04  -1.9266425e-05  -4.9906987e-04  -2.7505176e-03  -3.2093280e-04   1.0697086e-03   2.2464423e-03   1.1717147e-03   1.1961616e-03  -1.0814175e-03   4.6414504e-04  -3.1642750e-05  -6.9996435e-04   2.9399822e-04  -1.1846328e-04  -3.2278418e-04  -1.3813244e-04   1.0356545e-03  -3.8431294e-04   1.3418439e-03   1.1570199e-04  -2.8132697e-04   5.6841609e-04   8.3615212e-04  -6.9064199e-04   3.8579726e-04   1.9554688e-04   8.8221271e-04   8.0907252e-04   5.7407998e-04  -4.0500786e-04   1.3150647e-03   2.4582347e-04   1.6420525e-03   3.7596349e-03   2.8400850e-03   1.2911969e-03
   8.5811637e-04   2.9737098e-04   9.5611758e-04  -3.7629061e-04   4.8680490e-04   4.5525370e-04   9.8353985e-04   1.0106500e-03   4.0591884e-04   1.6549140e-03   1.5846676e-03   3.4290293e-04   1.8996444e-04  -9.4441260e-04  -3.3493931e-04  -4.9673568e-04  -2.7026506e-03  -2.8312620e-04   1.2799153e-03   1.8571566e-03   1.1842712e-03   1.1716074e-03  -9.0917412e-05   1.8837907e-03   5.6024978e-04  -6.1009219e-04   3.7431612e-04  -2.1874926e-04  -2.1175774e-05  -1.4265426e-04   4.2859538e-04  -1.2471369e-03  -4.9406084e-05  -1.5440676e-04  -3.8559132e-04   6.2126672e-04   1.1277256e-03  -7.3109515e-04   1.6444053e-04   2.7578807e-04   3.4632001e-04   8.3457283e-04   3.4843225e-04  -3.7977513e-04   1.0165989e-04  -1.4027352e-04   1.5132061e-03   2.2172837e-03   2.7667158e-03   1.2403156e-03
   5.3772097e-04   2.6244909e-04   1.0043099e-03  -4.2787023e-04   2.8145223e-04   3.6441727e-04   8.4912486e-04   7.0022285e-04   1.1545182e-03   1.5743662e-03   1.4476428e-03   3.6298530e-04   2.0648442e-04  -9.4121095e-04   1.3711741e-05  -4.4746482e-04  -2.7768170e-03  -1.5342834e-04   1.0955292e-06   1.5707110e-03   1.1729868e-03   1.0484699e-03  -6.7554676e-04   3.2050881e-04   2.1608677e-05  -6.0120976e-04   3.1048324e-04  -4.4220159e-04  -2.4591613e-04  -1.4898842e-04  -1.9418865e-05  -4.9081520e-04   1.1075763e-03  -4.7732283e-06  -4.1285282e-04   1.3671468e-03   5.3677749e-04  -7.4518728e-04  -1.5506723e-05  -2.9280605e-05  -3.4977184e-04   5.8642431e-04   8.1738766e-04  -3.8942407e-04   6.4959202e-04   3.6048936e-05   1.4025881e-03   2.6827569e-03   2.9576351e-03   1.2015000e-03
   4.2223200e-04   2.9598561e-04   1.0660692e-03  -3.7855373e-04   3.2378259e-04   3.6349404e-04   8.2665379e-04   1.1007313e-03   4.5620828e-04   1.5659546e-03   1.3631881e-03   3.2273735e-04   1.9059352e-04  -1.0151570e-03   1.8868188e-04  -4.6813974e-04  -2.8947864e-03  -3.3628786e-04   7.5992476e-04   2.1063213e-03   1.1843424e-03   1.1140370e-03  -3.2220740e-04   2.1690796e-03  -5.2494090e-04  -5.0178694e-04   2.8622197e-04  -7.4373987e-05  -7.2638661e-04  -1.6174185e-04  -3.2560583e-04  -3.3194764e-04   8.0811029e-04   1.3030728e-04  -3.3887703e-04   6.3049525e-04   8.6357287e-04  -7.4401696e-04   2.8715449e-04   4.9629487e-04   9.7367290e-04   8.5014530e-04  -7.2515797e-04  -3.7544899e-04  -1.5685968e-04  -4.3128137e-04   1.2172284e-03   1.6007292e-03   2.7356779e-03   1.2018126e-03
   5.6409289e-04   3.3928445e-04   9.1563916e-04  -3.5140198e-04   4.2611588e-04   3.2516217e-04   7.2120526e-04   1.0353506e-03   1.2266287e-03   1.5744377e-03   1.3963187e-03   4.3900989e-04   2.7522093e-04  -1.0136991e-03   9.5454336e-05  -5.2687182e-04  -2.9701847e-03  -3.2392846e-04  -1.3495314e-04   1.5732136e-03   1.2145462e-03   1.1045816e-03  -1.1785914e-03  -2.6548875e-04  -7.6262106e-04  -5.2642217e-04   3.4526907e-04  -1.9692555e-04  -5.4979156e-04  -1.5353976e-04   9.2519674e-04   2.4433522e-05   4.8561528e-04   4.0335063e-04  -4.4422128e-04   9.6560654e-04   1.2031384e-03  -7.5087399e-04   3.7098204e-04   2.0316790e-04   6.5402407e-04   7.9603423e-04   1.0884177e-03  -3.7732921e-04   1.2548335e-03  -2.3521930e-04   1.2359448e-03   6.2478133e-03   2.8948265e-03   1.1754109e-03
   5.9975981e-04   3.2437046e-04   6.5752445e-04  -3.7212489e-04   1.6793798e-04   2.8955148e-04   8.0001197e-04   9.3747396e-04   8.8077108e-04   1.5094233e-03   1.4006884e-03   3.5992023e-04   2.6447396e-04  -9.5175725e-04   1.4537026e-04  -4.4426776e-04  -2.9643690e-03  -2.0583854e-04   6.0987601e-04   1.5724803e-03   1.2161027e-03   1.0270533e-03  -8.5700990e-04   1.4439576e-03  -1.6197893e-04  -4.3206653e-04   3.3406573e-04  -2.2811005e-04  -3.3043150e-04  -1.5507560e-04  -4.7063368e-04   9.2271999e-05   8.9303916e-04   5.0122893e-05  -3.5717187e-04   4.8768162e-04   8.1231690e-04  -7.4027089e-04   2.0018817e-04   4.4909495e-04   6.3227006e-04   6.3392741e-04   3.5548129e-04  -4.0281683e-04   6.7291135e-04  -1.5041717e-04   1.2695909e-03   3.0929048e-03   2.5921040e-03   1.1010024e-03
   4.6974552e-04   2.9413740e-04   1.3591759e-03  -3.6326508e-04   3.6905744e-04   2.6313498e-04   8.9583063e-04   2.9624830e-04  -2.4660596e-05   1.5808464e-03   1.2346008e-03   4.2509369e-04   9.3842813e-05  -1.0398935e-03  -6.3441973e-04  -5.7996874e-04  -3.2244613e-03  -4.3146743e-04   1.2181199e-03   1.3131179e-03   1.2020229e-03   1.1139148e-03  -1.1069771e-03  -6.6957052e-04   1.0667292e-04  -7.1146520e-04   3.4050597e-04   1.9793316e-04   1.0144926e-04  -1.3536624e-04  -1.5104759e-03  -3.0326215e-05  -8.1845428e-05   1.8342215e-04  -3.8411317e-04   1.1520043e-03   7.0058537e-04  -7.2921719e-04   1.8655242e-05   7.2264444e-04   2.1220031e-03   7.0794905e-04  -1.5836698e-04  -5.2135158e-04   3.7122989e-04   2.5844196e-04   1.3820138e-03   2.4169595e-03   2.8034511e-03   1.2709090e-03
   4.5761076e-04   3.0152098e-04   1.3343279e-03  -3.2089886e-04   5.8667327e-04   2.8116748e-04   6.9467234e-04   9.9851331e-04   2.8413086e-04   1.6311511e-03   1.3837963e-03   5.1325973e-04  -3.1715386e-05  -1.0194778e-03  -5.2954291e-04  -8.1414107e-04  -3.1987447e-03  -7.1948691e-04   1.4454841e-03   1.6728063e-03   1.2582927e-03   1.1424106e-03  -9.6552511e-04   1.2025502e-04  -3.7068272e-05  -7.2748482e-04   2.8767562e-04  -2.2679418e-05  -1.3312011e-04  -1.3047816e-04   2.7733655e-03   2.0888167e-04   1.9032827e-03   1.7309720e-04  -3.8560608e-04   8.8066584e-04   6.8644882e-04  -7.2196138e-04   6.9725676e-05   6.4724375e-04   9.7655022e-04   6.4287748e-04   9.0846122e-04  -3.6585703e-04   6.4421346e-04  -1.6978965e-04   1.1485254e-03   1.7847372e-03   2.8206019e-03   1.1869058e-03
