  -2.8062798e-04  -1.2961638e-04  -1.0614974e-04   1.9526817e-05   6.5816384e-05  -1.0707648e-04  -1.1494318e-04  -1.0865585e-04   1.4915192e-04  -5.7252805e-06  -5.8188409e-05   1.1878709e-04  -6.2332035e-04   3.1930787e-05  -5.6196324e-04  -6.0158002e-04  -5.2977365e-04  -7.3628081e-04  -6.8253302e-04   2.4531830e-05   3.6025685e-04   1.1966023e-04   3.0241834e-04   6.4544770e-04   8.8037679e-04  -6.1823637e-05  -2.3327864e-04  -4.0232164e-05   6.1645213e-04   5.2883992e-05   2.6535499e-04  -2.6531381e-04   3.7216704e-04   4.8432354e-04   6.2565843e-05   8.6650180e-05  -1.5996517e-04   1.7680236e-04   2.7063694e-05   9.6284923e-05   4.9660361e-04  -7.6115444e-05   3.0907037e-04   2.2494842e-05  -2.3011872e-04  -3.8089475e-04  -1.6685321e-04   2.0589888e-04  -8.4412466e-05  -2.3798838e-04
  -2.7073556e-04  -1.3177146e-04  -3.3178256e-04   1.1228878e-04   1.0248203e-05  -2.9097009e-04  -1.3365129e-04  -1.5530455e-05  -1.0450754e-03   6.5012624e-05   2.1917278e-05  -7.8993420e-05  -6.8086316e-04   2.5493457e-05  -2.7845110e-04  -6.4452173e-04  -5.6814856e-04  -2.8912330e-04   9.7779128e-05  -2.0143767e-04   3.8767947e-04   3.2475541e-04  -8.1843151e-05   4.0966741e-05  -1.1003996e-04   9.0421134e-05  -1.3960051e-04   2.2179510e-04   3.5172986e-04   3.4546711e-06  -1.9774893e-03  -6.1243359e-04   3.7630516e-04   3.0160829e-04   2.0803274e-05  -2.1401007e-04   1.0659892e-05   2.0240832e-05  -9.1088987e-05   6.2086119e-04  -9.2201430e-04   1.3607492e-04   6.6976564e-04  -9.7296601e-05   2.6829005e-04  -3.1335777e-04  -1.7486655e-04  -1.5703104e-04  -1.1520486e-04  -4.1853517e-04
  -2.5548201e-04  -6.9908696e-05  -2.3740671e-04   5.4471067e-05  -2.6482393e-04  -2.4482282e-04  -2.8052586e-04  -1.2132991e-04   2.5030386e-04   8.2558894e-05  -7.8269804e-06  -2.1371944e-04  -6.4393622e-04  -1.0997845e-04  -4.8931531e-04  -1.2880781e-04  -3.7221893e-04  -6.5391895e-04  -2.5204092e-04   4.6285564e-05   3.8412208e-04   2.5849199e-04  -1.6533816e-04  -1.1669882e-03  -4.4645730e-04  -1.4061594e-05  -1.5151537e-04   1.5584346e-04  -4.8898754e-04   1.2585929e-05  -2.8342556e-03   8.9077128e-04   5.4712662e-05   8.7050859e-05   1.1657111e-06  -1.9780115e-05   1.3925708e-04   8.1717088e-05  -1.6918077e-04  -7.0131566e-05  -4.4573512e-04  -2.9258021e-05   5.3201814e-04  -9.6580086e-05   3.5250705e-04  -5.3773477e-04  -2.1256880e-04  -9.7020046e-04  -2.7312766e-04  -2.9447841e-04
  -2.7987009e-04  -1.3751275e-04  -2.6091107e-04   2.0749860e-05  -2.1188198e-04  -5.8849822e-05  -1.8048252e-04  -1.3318591e-04  -3.5565736e-04  -2.6883897e-06  -5.6484839e-07   6.8958892e-05  -5.7019020e-04  -5.4236985e-05  -3.5298252e-04  -5.6469516e-04  -3.4274167e-04  -4.3045721e-04  -5.8400875e-04   2.7202777e-04   3.6783706e-04   2.6128153e-04   4.6642526e-05   1.2299073e-03   9.5330062e-04  -1.2633485e-04  -1.4335729e-04   8.6674787e-05  -1.2188494e-04  -6.0686120e-06  -1.8691268e-03   4.2956203e-04   7.8847253e-04   1.4213323e-04   4.1535113e-05   3.7495134e-04   3.4222485e-05   2.7854425e-05  -4.7792204e-05  -1.8950315e-04   9.4662502e-04  -3.0176137e-05   3.0281968e-04  -5.7445246e-05   1.5589969e-05  -8.0434969e-05  -2.2104687e-04  -5.3211657e-04  -1.5700150e-04  -3.5608903e-04
  -2.4218811e-04  -1.1734643e-04  -2.8922889e-04  -3.8266648e-05  -4.8113524e-04  -7.9989586e-05  -8.4525411e-05  -5.2544790e-05   5.6812790e-04  -7.1167519e-06  -6.1849569e-05   2.0063057e-05  -5.7371752e-04  -4.4306988e-05   2.4565947e-04  -2.2444408e-04  -5.9426256e-04  -3.8274270e-04  -4.0208976e-04  -1.5051854e-04   3.6440539e-04   3.6278376e-04   2.8676662e-04   1.6177972e-04  -7.3904963e-04  -1.1067565e-04  -2.6356461e-04   2.6636376e-04  -6.8516558e-04  -1.4307957e-06  -4.4443077e-04  -6.8299985e-04   1.3858081e-04   4.4180502e-05  -2.9293737e-05   2.6677770e-04  -9.1923255e-05   4.9332688e-05   1.5339607e-04   5.4099986e-05  -8.4693870e-04  -2.7566422e-05  -5.7313946e-04   7.3537820e-05  -3.4410562e-04   2.6073674e-04  -2.3121206e-04  -7.4763014e-04  -4.5565653e-04  -4.2028775e-04
  -2.2863063e-04  -1.4038580e-04  -2.9976736e-04   5.5870587e-05   2.6272039e-05  -1.5120958e-05  -2.0616087e-04  -2.3084464e-04   1.7011067e-04   5.3648218e-05  -6.5782348e-05   3.8965158e-05  -5.7029125e-04  -6.9952352e-05  -5.5302149e-05  -3.6371234e-04  -3.8833061e-04  -5.7241537e-05  -8.2620821e-04  -3.1180290e-04   3.5954337e-04   2.5097065e-04  -1.9056159e-04   2.7092561e-04   2.9840393e-04   1.2886259e-04  -2.5435298e-04   2.7495640e-04   2.3084141e-04   2.1037042e-05  -1.5925778e-03   8.5937424e-04  -4.8836577e-04   1.2915878e-04   9.4202733e-05  -1.7145347e-04  -9.3980496e-05   7.6249205e-05  -1.2921766e-04  -5.9368045e-05   1.5786587e-04  -1.1392890e-04  -4.7412916e-04  -1.8965859e-05   4.7590228e-04  -5.4365513e-04  -2.7997344e-04   3.6489454e-04  -4.0266159e-04  -3.3043130e-04
  -2.6539620e-04  -1.1505096e-04  -3.4105137e-04   5.0758917e-05  -1.6250076e-05  -2.3158298e-04  -2.2108160e-04  -8.5635271e-05   1.6989502e-03   4.7342626e-05   6.7250016e-06   7.9844023e-05  -6.3545816e-04  -1.9161322e-05  -3.4960205e-04  -2.1941477e-04  -3.0711267e-04  -2.3873328e-04  -6.3721137e-04  -1.3137622e-04   3.6318286e-04   1.9124757e-04   3.8279593e-04   1.3580734e-03   1.4446235e-03  -1.9077311e-04  -2.5805764e-04   1.6285025e-04   2.1763536e-04   1.6828801e-05  -3.4565981e-03   5.5802165e-04   4.8181537e-04   2.1492194e-04   6.3681400e-05   1.6952891e-04  -1.1916600e-04  -3.4083288e-07  -1.2101352e-04   2.0012775e-04   4.9202747e-05   8.7774693e-05   7.6205365e-04   5.5211272e-05  -2.7297277e-04  -5.3927070e-04  -2.5810080e-04  -1.7484284e-03  -2.7500148e-04  -3.6417096e-04
  -3.6238108e-04  -1.2499549e-04  -2.5096961e-04   2.3498749e-05   2.8308936e-05  -1.0930745e-04  -8.3254658e-05   2.6937315e-04   3.5784693e-04   5.8130052e-05   1.5207121e-05  -9.1243555e-07  -5.8009184e-04  -1.5681351e-05   1.9226858e-04  -5.7234796e-04  -3.4891113e-04  -6.6764100e-04   3.7651038e-04  -2.8604714e-05   3.7181246e-04   3.4554244e-04  -7.9294550e-04   1.6572746e-03   2.9671898e-03   1.7754024e-05  -2.3871494e-04   4.9098750e-04   2.4629154e-04   8.8344386e-06  -1.3717987e-03   4.6031608e-04  -1.7109922e-04   9.3688977e-05   2.8879422e-05   1.1278316e-04   1.4729647e-04   2.6084323e-05   7.9084912e-06  -9.3044713e-05  -8.5173568e-05   4.8660229e-05   2.7173449e-04   2.7111155e-05   1.3257659e-04  -4.6488506e-04  -2.0100422e-04  -2.1040963e-03  -2.6854718e-04  -3.5757557e-04
  -1.3697396e-04  -8.5261585e-05  -1.3858655e-04  -1.3395276e-05  -1.5653615e-04  -8.9451067e-05  -1.1371571e-05   9.6344455e-05  -3.1528770e-04   6.0156588e-05  -4.3132910e-05   2.3649422e-04  -6.2738347e-04  -5.7117180e-05  -3.6280678e-04   1.8624374e-05  -3.5369734e-04  -5.8700022e-04  -3.1397628e-04  -2.2138987e-04   3.8747114e-04   1.9829991e-04   1.6454248e-04  -3.3085136e-04  -8.7152905e-04  -1.0036535e-04  -1.5565423e-04   1.7169637e-04   7.4143580e-04   2.2828979e-05   3.9037780e-03  -5.6304783e-04  -1.1942717e-04   2.4679600e-04   6.3813830e-05   2.8614025e-04   2.2724416e-04   5.1045041e-05   3.9112143e-05  -3.2880917e-04  -8.0369523e-04  -2.8768695e-06   3.9478118e-04   6.1315375e-05   5.3298345e-04  -7.1719493e-04  -1.9521413e-04   4.1739349e-04  -3.5198004e-04  -5.3790072e-04
  -8.9749687e-05  -7.9446989e-05  -2.6351327e-04   9.2637820e-05  -3.4705037e-04  -5.7297486e-05  -1.2596766e-04   5.4346235e-04   1.0410781e-03   1.5672670e-04   1.4012020e-05   3.5312263e-05  -6.8442011e-04  -1.3522932e-05   4.8971524e-05  -1.0333904e-04  -5.8819592e-04  -3.5568041e-04   4.5000509e-04  -3.1235715e-04   4.1250850e-04   2.7141967e-04   1.3397499e-04   6.3548534e-04  -4.6125380e-04   1.0825510e-05  -1.2569998e-04   4.1948995e-05   9.0879817e-05  -2.1822602e-06  -1.6490597e-03   3.3992656e-05   5.6899985e-04  -5.6506280e-05   3.3369310e-05   2.4072967e-04   5.6043256e-05  -8.7479593e-06   2.3060279e-04  -1.1791154e-04  -4.2807969e-06  -1.6108128e-05   5.6427954e-05  -3.3886427e-05   4.9685442e-04  -3.7690651e-04  -2.0118042e-04  -7.5511757e-04  -2.3448690e-04  -3.6213340e-04
  -2.7529083e-04  -1.1334869e-04  -1.1395202e-04   7.7492208e-05   2.6658761e-05  -1.5672304e-04  -2.1283093e-04  -7.6742965e-04  -2.5649552e-04   1.2968341e-04   1.2210863e-04   2.0079402e-05  -5.7174830e-04  -4.0361978e-05  -1.9432399e-04  -1.9395894e-04  -3.6229653e-04  -2.7045648e-04  -4.1902906e-04   6.5111133e-05   3.9490886e-04   3.4092966e-04  -2.6630372e-04  -7.2895904e-04   8.5010298e-04  -2.0583131e-04  -2.2716123e-04   2.2572216e-04   9.8277943e-04  -7.4121131e-06  -7.2540069e-04  -1.0736114e-03   3.2971831e-04   3.3195243e-05   3.1958702e-05   1.3731366e-04  -1.0974223e-04   3.3985962e-05  -2.5283549e-05   3.5937881e-04   2.4847878e-04  -9.8064731e-05   5.1115549e-05  -4.6714995e-05  -1.8483741e-04  -3.9891963e-04  -2.8031413e-04   4.2657400e-04  -3.1407151e-04  -4.0902462e-04
  -2.4181097e-04  -1.2335401e-04  -3.4814081e-04  -5.1639472e-06  -1.9180929e-05  -8.9442929e-06  -3.1852185e-05  -4.4138497e-04  -5.1845491e-05   1.0987665e-04   2.6296968e-05   6.2318592e-05  -5.7520019e-04  -1.0042540e-04  -2.1768903e-04  -5.5278797e-04  -4.8152264e-04  -5.2322901e-04   1.4777746e-04  -2.3309174e-06   3.8852193e-04   3.5637687e-04  -1.9721394e-04   5.4905133e-04  -1.4822381e-04   1.1388800e-04  -2.4239311e-04   4.9244636e-04   5.8442820e-04   6.1324904e-06  -1.1489169e-03   2.2201263e-04  -5.8913429e-04   1.0709724e-04   1.4026146e-04  -4.7900896e-05  -4.2092459e-05  -1.6633992e-05   5.8186277e-05  -1.1270647e-04   2.6958538e-04   2.3117238e-05   3.3954231e-04   6.8350913e-05   5.9147435e-04  -1.1298392e-04  -2.1513601e-04  -8.1935621e-05   7.7671430e-05  -4.1763749e-04
  -3.2466193e-04  -7.1203758e-05  -2.7788733e-04   6.0146535e-06  -2.6719392e-05   5.7222987e-05  -1.1693483e-05   1.1481062e-04   1.1454450e-03   1.1892762e-04  -2.1824560e-05   4.8032936e-05  -6.1935955e-04  -7.7106284e-05  -1.8984826e-04  -4.1502714e-04  -4.3573379e-04  -3.4047067e-04  -4.7931253e-04  -3.0520890e-04   4.3112354e-04   3.2757953e-04  -5.4729340e-04  -1.0922261e-03   1.5146855e-03  -2.2609897e-04  -1.7634718e-04   1.6052547e-04  -2.6910044e-05  -4.3915938e-06  -7.6147105e-04   9.5342861e-05  -4.3040069e-04   3.8433357e-04  -2.4056868e-05  -2.2398480e-04  -8.3936357e-06  -6.4049914e-06   5.5035998e-05  -3.8596173e-04  -1.9850621e-04   9.4006064e-05   4.9624831e-04   6.5215478e-05  -1.1268601e-04  -9.7564119e-04  -2.2441361e-04  -2.2505934e-04  -1.5438652e-04  -4.3757600e-04
  -2.3772373e-04  -5.7247053e-05  -8.6952336e-05  -7.4307980e-05   8.1329788e-05   1.7051949e-04  -7.6597440e-05   8.8833556e-05   7.7216653e-04   1.8070274e-04   8.5332618e-07   1.0699814e-04  -6.2666787e-04  -1.0727558e-04  -1.7094771e-04   8.7548695e-05  -4.9970904e-04   3.2466422e-05  -5.3037453e-04  -1.5006809e-05   4.0648703e-04   3.2723305e-04  -5.1310880e-04  -1.7783736e-03   1.1399332e-03  -1.4517542e-04  -1.1328085e-04   2.5466983e-05  -8.5157692e-05   2.1697779e-05  -1.2630275e-03   1.3165311e-03   3.0199481e-05   1.7273030e-04   4.1277199e-05  -1.0199799e-04  -1.4701125e-04   8.2038539e-05   2.7428247e-05  -2.1274590e-04  -2.5027414e-04   6.6417590e-05   6.9894688e-04  -7.2308067e-05  -6.7135529e-04  -4.8810948e-04  -1.6917294e-04  -3.6201737e-04  -1.0301690e-04  -3.8249977e-04
  -2.6669179e-04  -5.7868510e-05  -1.4018638e-04   6.1374238e-05  -1.6129922e-04   1.9294181e-05   2.0150283e-05  -2.7049007e-04  -5.0714315e-04   2.0544995e-04   1.1322398e-04   9.9807759e-05  -6.5710471e-04  -9.3330782e-05  -1.2937257e-04  -1.5753256e-04  -6.1829737e-04  -3.8614296e-04   2.4405129e-04   1.3143456e-04   4.5195461e-04   4.5435978e-04   1.9292493e-04  -7.0787716e-04   7.8735087e-04  -1.1088740e-04  -2.9336225e-04   3.9887065e-05  -2.1470478e-04  -2.5789757e-06  -4.9271109e-04   6.2242942e-04  -1.3568658e-04   1.9574101e-04   4.2242136e-05  -7.6702920e-05  -3.7900460e-04   6.9554706e-05   4.4778961e-05  -1.7559617e-04   5.8236695e-04   5.9960861e-05   6.5279441e-05   1.1585787e-04   8.0967526e-05  -7.4270269e-04  -1.9489437e-04  -1.1056442e-03  -1.1910201e-04  -3.9562763e-04
  -2.4377742e-04  -4.5675479e-05  -1.5144527e-04   5.4265369e-05   1.2116442e-04  -1.0648590e-04  -1.3496012e-04  -2.1739888e-04   3.5951828e-04   2.0887675e-04   5.6068027e-05   1.0120508e-04  -6.2271487e-04  -1.0645796e-04  -2.4373292e-04  -4.0105105e-04  -5.4670399e-04  -3.4806243e-04   1.0754648e-03   4.3691421e-04   4.4559254e-04   2.9365075e-04   3.5070124e-04   1.9132697e-04  -1.5191692e-03  -1.7847307e-04  -1.3319889e-04   3.6204795e-04   1.0993516e-04  -6.2855074e-06  -9.8253414e-04  -1.0938031e-04  -5.6675031e-05   2.8241225e-04  -3.7746422e-06   1.5227002e-04  -2.4745820e-04   3.9948722e-05  -8.0558682e-05  -8.5881366e-06  -1.0723682e-03   4.7367623e-05   4.2936517e-04   1.9610494e-05  -3.6707069e-04  -3.0364093e-04  -1.8994212e-04  -1.0457414e-03  -1.1142670e-04  -4.6620207e-04
  -2.3323858e-04  -9.6247502e-05  -7.4990443e-05   3.6340040e-05  -8.6746710e-05  -3.7706715e-05   4.1563628e-05  -1.5660228e-04   5.2185904e-04   2.2049031e-04   6.7205932e-05   1.1755227e-04  -6.2140805e-04  -1.4606855e-04   6.1743318e-05   1.7493431e-04  -4.8779111e-04  -4.9771997e-04  -4.3139295e-04   3.0290315e-05   4.8623016e-04   4.4104099e-04  -5.7234383e-06   2.4573988e-04  -4.3405365e-04  -3.5084471e-05  -1.9252482e-04   3.9131567e-04   1.0686632e-03  -5.3990902e-06  -2.7611314e-03  -4.6554217e-04   8.3490282e-05   2.8041555e-04   6.0835049e-05   7.5807702e-04  -2.2153556e-04  -2.1358708e-05   7.7206263e-05  -2.5532665e-04   8.2825316e-04   2.2411195e-04   7.3457550e-04  -7.4921212e-05  -2.1207060e-04  -2.5445907e-04  -1.8104713e-04  -1.8215878e-04  -2.0807193e-04  -4.4556745e-04
  -9.1366062e-05  -3.8376234e-05  -2.1159337e-04   1.2654124e-05   3.5998303e-06   1.6970196e-04  -1.9382472e-04  -2.1637965e-04   4.0019912e-04   2.6313137e-04   8.3418076e-05  -8.2286853e-05  -6.6319492e-04  -1.5448740e-04   1.6366584e-04  -2.6864960e-04  -5.2646018e-04  -1.0210710e-03  -1.8361199e-04  -6.8211601e-05   5.0387467e-04   3.9307374e-04  -5.6048529e-04   1.0434526e-03   2.1233613e-04  -2.8100776e-04  -1.4851012e-04   1.4213749e-04   4.2632577e-04  -2.9535754e-06  -1.8795369e-03  -2.3676408e-04   8.5717591e-04   1.3241006e-04   8.8606583e-05  -1.3402817e-04  -8.2216589e-05  -7.3035271e-06  -5.7832258e-05   3.2724151e-05  -1.8223005e-04   4.6908608e-06   1.2600546e-04   9.3025948e-05  -2.9580237e-04  -5.0305150e-04  -1.7703191e-04  -1.2552348e-03  -6.3337829e-05  -4.8973953e-04
  -1.9714459e-04  -6.6732922e-05  -1.2412542e-04   4.5618606e-05   1.3881788e-04   5.5840079e-05  -1.1490244e-04  -1.8151838e-04  -9.9593381e-05   2.6800821e-04   8.5011212e-05   1.9926552e-04  -6.7703275e-04  -1.6541699e-04   1.0109140e-04  -3.1160397e-04  -6.1595242e-04  -5.2187528e-04   6.1511179e-04   5.1716762e-04   4.8679186e-04   4.0169474e-04  -1.0852896e-04   2.6088480e-03   1.4926655e-03   4.2170641e-06  -2.1616685e-04   2.2940958e-04   1.4874960e-04  -6.2837003e-06  -9.2534308e-04  -5.0107861e-04  -5.4702524e-04   7.8443743e-05   5.9816983e-05   2.7924636e-04  -1.5947546e-05   5.3847754e-05   4.8990736e-05   2.0385343e-04   3.0885727e-04   1.3989574e-04   2.4818291e-04   2.6101001e-05   3.8994473e-05   9.1842900e-05  -2.2456476e-04  -7.3542942e-05  -2.7674271e-04  -3.9797407e-04
  -1.3459244e-04  -5.1148752e-05  -7.5734220e-05   4.2305419e-05  -2.0229895e-04   1.5087902e-04   8.1702325e-05  -1.0054117e-05   4.1502208e-04   2.4943118e-04   6.4859923e-05   1.5883520e-04  -5.9583894e-04  -1.0561698e-04  -2.3391651e-04  -4.0408206e-04  -4.5096132e-04  -5.8863679e-04   2.5667826e-04  -3.1912117e-04   4.8063140e-04   4.2610764e-04  -5.0732336e-04   1.3250380e-03  -1.6856150e-04  -2.4451988e-04  -9.0193877e-05  -8.6191023e-05   5.6359277e-04  -1.8611268e-05  -2.8346069e-03   5.9555407e-04   1.1591202e-04   2.0164247e-04   7.2573771e-06  -9.9965255e-05  -1.8980287e-04   2.5619052e-05   5.1942658e-05  -2.3043592e-04  -2.7214081e-04   5.6703590e-05  -2.7898692e-05   3.1370637e-05   5.2773999e-04  -4.0476356e-04  -2.7263578e-04   1.7798615e-04  -1.6484196e-04  -2.9894582e-04
  -1.3591886e-04  -7.3514471e-05  -2.0720644e-04   7.2318549e-06   1.3932100e-04   1.4267153e-05   1.7449608e-04   1.1430333e-04  -4.1947732e-04   2.0059633e-04   1.0025544e-04  -2.0560085e-05  -5.8255141e-04  -1.6793566e-04  -1.7093052e-04  -3.3026218e-04  -4.3368345e-04  -5.1249663e-04  -9.8441588e-04   2.1069276e-04   4.7980517e-04   3.6056369e-04  -1.4529021e-04   1.3254905e-03  -9.8965364e-04  -2.7566546e-04  -2.4088044e-04   1.7488477e-04  -4.2461167e-04  -1.5171152e-06   6.0472317e-04   7.3866639e-04   6.2509475e-04   7.1453098e-05   7.4155680e-05   5.2997697e-04  -2.1492474e-04   5.1124814e-05   1.0819091e-04   7.9431149e-05   1.0446591e-04   3.6789079e-05  -3.0642870e-05   1.9244762e-05  -4.5367755e-04  -3.9490196e-04  -2.0655496e-04   8.8989720e-05  -2.5428704e-04  -4.6414594e-04
  -2.7602862e-04  -4.3343840e-05  -2.0366546e-04  -8.5565489e-06   2.8331749e-05   2.6548436e-04   7.7046680e-06  -8.9246147e-05   2.9942271e-04   2.1772373e-04   8.1234160e-05  -5.4362707e-05  -6.0253131e-04  -1.1700871e-04  -8.2178408e-04  -8.9471207e-05  -5.2897388e-04  -6.6595699e-04   1.0938408e-03   3.7895597e-04   4.7174556e-04   4.4776330e-04   1.2800393e-04  -1.0165243e-03   5.6536088e-04  -3.0588932e-04  -2.8778505e-04   1.4370360e-04   7.2913611e-04   7.9610072e-06  -1.9380646e-03   2.2923047e-04   4.6947939e-04  -1.3664919e-04   8.2249840e-05  -6.3239585e-04   3.3216091e-04   1.2887000e-04  -5.7663059e-05  -2.7817654e-04  -4.2136104e-05  -3.2142143e-05  -6.4009114e-04  -2.5290865e-05   6.9770329e-05  -3.7365907e-04  -2.2232377e-04  -1.5751787e-03  -2.3581513e-04  -3.5551193e-04
  -9.7774340e-05  -5.8387999e-05  -3.6842303e-05   4.2985226e-05   4.6114498e-04   6.7958768e-05   1.3165516e-04  -2.7372665e-04   2.0867985e-04   2.5862004e-04   1.5206663e-04   7.3666956e-06  -5.7149230e-04  -1.5251334e-04  -1.3271051e-04  -3.4624129e-04  -6.3335407e-04  -5.3140050e-04   2.0794585e-04   8.0349433e-05   4.8483204e-04   4.2199943e-04  -2.9306932e-04   5.0969992e-04   1.1382623e-03  -6.0212340e-05  -2.0235799e-04   2.2481151e-04   3.6854926e-04  -9.3994659e-06  -7.0544035e-04  -4.6775016e-04   2.3913823e-04   5.8836464e-05   6.3479791e-05  -1.2487093e-04   6.4933825e-05   6.7879002e-05   1.7582614e-04  -4.7063320e-05  -3.9598549e-04   1.4550948e-04  -5.0031027e-04   2.3174996e-05  -4.9069122e-04  -4.3915634e-04  -2.6720160e-04  -6.9269357e-04  -3.1428449e-04  -3.6829108e-04
  -6.5466695e-05  -3.2569980e-05  -1.6549802e-04   5.2681778e-05   8.3596415e-06   9.3167706e-05  -5.2889245e-05   1.7047797e-04   2.2403599e-04   2.1913642e-04   9.4856689e-05   9.1839225e-05  -5.0671544e-04  -1.3614997e-04  -6.8937649e-04  -2.3457936e-04  -5.7603297e-04  -5.4007216e-04  -5.8090425e-04  -8.3258295e-05   4.7651597e-04   4.2910743e-04   6.9956768e-05   1.6386578e-04   3.1866567e-04  -2.6436546e-04  -1.4746272e-04   2.0040412e-04   8.0142316e-04   8.1382797e-07   2.8422778e-03  -9.6795120e-05  -1.4174097e-04   4.0488580e-04   2.3931254e-05   5.3326687e-04  -7.7295408e-05   1.3251697e-05   2.5873620e-04  -2.1635917e-05   3.1028563e-04  -9.7801494e-06   1.9305320e-04   1.0721228e-04   9.4783245e-05  -5.0289306e-04  -2.2962029e-04  -9.6742768e-04  -1.7280124e-04  -3.8045531e-04
  -2.6394922e-04  -4.6776568e-05  -2.4244689e-05   6.0048009e-05  -6.9037102e-05   2.0294952e-04   3.9559767e-05  -5.8278686e-04  -6.8925292e-04   2.6224635e-04   1.9133891e-04   1.0687488e-04  -5.4258975e-04  -1.0966188e-04  -9.0196176e-05  -1.4269992e-04  -4.9742602e-04  -4.7089986e-04  -3.8267183e-04  -5.0248270e-04   4.8221889e-04   3.9396339e-04  -6.5172248e-06   8.8660012e-04   1.7095062e-04  -5.5196852e-04  -1.8682338e-04   2.3777646e-04   5.7672692e-06  -2.0213591e-05  -1.2310962e-03   2.8264409e-04   6.5081340e-04   7.2314717e-05   9.2761045e-05   2.4342511e-04  -5.3704491e-05   4.4027951e-05   1.7236958e-04   2.1138978e-04   5.5048655e-05   1.0820419e-04   4.6588283e-04   1.0509476e-05   1.6437256e-04  -5.1828695e-04  -2.2557228e-04  -1.0820666e-03  -1.8729836e-04  -3.4173561e-04
  -1.7830965e-04   2.5949486e-05  -9.3928589e-05   3.1685406e-05  -7.7566056e-06   2.7321614e-04   1.6027479e-05  -2.2706804e-04  -8.6056511e-04   2.1640955e-04   1.1589920e-04   2.0249048e-04  -5.1391037e-04  -1.4324566e-04  -1.8327771e-04  -2.5081998e-04  -6.4075430e-04  -2.4115047e-04  -5.5311708e-04   2.4341140e-04   4.5967102e-04   3.5571921e-04   2.2193993e-04   8.2796894e-04   3.9599073e-04  -2.3007876e-04  -1.0650517e-04   2.7643782e-05   5.4227788e-04  -1.1749479e-05   4.6547901e-04  -4.9784143e-05   5.6642888e-04   3.0119583e-04   1.1142792e-04   2.4097823e-04  -1.9867154e-04   1.0873026e-04   1.5786114e-05  -7.5545671e-05   1.1472959e-04  -4.9813938e-05  -8.6827371e-05   8.4565814e-05  -7.1267906e-04  -2.8483325e-04  -2.2184227e-04  -7.2600832e-04  -3.9188581e-04  -3.8420918e-04
  -1.9921387e-04   2.1321703e-05  -1.1386083e-04   1.3058189e-04   6.7573899e-05   5.3491254e-05  -8.9042813e-05   2.7198303e-05   1.0021014e-05   2.3602300e-04   1.2407439e-04   1.9472343e-04  -5.4002716e-04  -1.0828968e-04  -2.5109362e-04  -2.2071610e-04  -3.9928313e-04  -3.7783146e-04  -4.2878644e-04  -1.7571321e-05   4.5190394e-04   3.4611026e-04  -2.8465796e-04   1.6616421e-03   4.5722112e-04  -2.3614567e-04  -2.7148612e-04   2.3781999e-04   2.2222454e-04  -1.3600542e-05  -2.4233183e-03   1.6741811e-05  -1.3173437e-04   2.2786338e-04   3.7833575e-05   3.9444520e-04  -1.7994375e-04   7.6574484e-05  -4.9339629e-05  -4.2243089e-05  -5.5980630e-04  -2.3862649e-05  -1.6683241e-05   1.1944924e-04   6.2040752e-05  -1.6960394e-04  -3.3411387e-04   2.2849134e-04  -3.5393113e-04  -3.8182395e-04
  -1.3786998e-04  -2.6356996e-05  -5.1277502e-06   8.4306783e-05  -1.9708222e-04   8.9656169e-05   2.7771575e-06  -9.4753552e-05  -3.1784034e-04   1.8903130e-04   1.2437761e-04   2.7893338e-04  -4.8721416e-04  -7.9085898e-05  -5.7888072e-04   2.9552658e-04  -3.4869162e-04  -4.9890368e-04  -2.3334823e-04  -7.3331539e-05   4.3370968e-04   4.7188374e-04  -1.4280246e-04   9.3606250e-05   8.7231386e-04   8.3421774e-06  -2.5792932e-04   1.2785553e-04   3.9617866e-04   1.4837440e-06   6.9447921e-04   4.0723849e-04   6.3207879e-04   3.1297476e-04  -3.1115651e-06   2.2628528e-05  -1.9462188e-05   9.5715419e-05  -8.6798500e-05   7.5930457e-06   3.9176774e-04  -1.0121899e-04   7.1154686e-04   6.2809733e-05   3.8891082e-04  -7.4472086e-04  -3.5658438e-04  -5.8239908e-04  -2.4430305e-04  -4.0023541e-04
  -1.0623396e-04  -7.6667120e-06  -1.1121341e-04   7.3232550e-05   1.0184526e-04   2.1147493e-06  -1.5251162e-04   5.6170742e-04  -2.2040919e-04   1.5848041e-04   9.7553951e-05   1.7801167e-04  -4.6176455e-04  -3.2262069e-05  -1.6892800e-04  -4.5185984e-04  -6.0583913e-04  -4.2354906e-04  -2.1939262e-04   1.3285779e-04   4.4363318e-04   3.0858882e-04   9.8507320e-05  -1.6214593e-03  -7.4844385e-05  -2.0905526e-04  -1.8225551e-04   1.9008467e-04   1.1255831e-04   5.7328748e-06  -1.2682348e-04   2.9743207e-04  -1.1825161e-04   1.7174467e-04   8.2262173e-05   2.3633636e-04  -2.6844646e-04   9.1266847e-05   1.9109868e-04   6.7824374e-05  -1.0424654e-03   9.9783785e-05  -4.4114774e-04   7.0472655e-05  -1.9508140e-04  -4.0828160e-04  -3.0923111e-04   1.1424975e-04  -1.9766226e-04  -4.3073451e-04
  -2.0895363e-04   5.5476908e-06  -1.0864832e-04   6.2024759e-05  -1.2318535e-04   1.6291063e-04  -4.9488946e-05  -2.7152678e-04  -6.7918154e-04   1.7958609e-04   8.0095087e-05  -9.1356102e-05  -5.4036034e-04  -3.8207847e-05  -4.4308495e-04  -3.8820485e-04  -4.4740239e-04  -3.5953929e-04  -6.8203505e-04   3.8594146e-05   4.4773161e-04   2.9632475e-04   1.9879270e-04  -4.5209960e-04  -1.4295515e-03  -3.3601135e-04  -1.1541959e-04   9.6641110e-05   5.4952885e-05  -1.0491669e-05  -1.1418897e-03  -4.7837113e-04   4.5273840e-04  -9.9805118e-05   4.7788082e-05  -4.5442843e-04   1.7151183e-04   8.1591519e-05   2.0544679e-04  -1.2584936e-04   1.2709234e-04   7.7723751e-05  -3.9571858e-04   6.2507897e-05   9.1923017e-04  -4.1965730e-04  -2.7443972e-04  -1.3966771e-03  -1.5011577e-04  -3.9474727e-04
  -1.3396943e-04   2.9045674e-05  -1.2067724e-04   1.0077499e-04  -1.7119644e-04  -8.4510881e-05  -2.1115879e-05  -1.8577189e-04   7.1966444e-04   2.0042986e-04   1.4034746e-04   9.3959978e-05  -5.1263202e-04  -9.1332462e-05   1.4331611e-04  -4.3467985e-04  -3.1552973e-04  -4.1701138e-04  -5.0302246e-04  -2.7128328e-05   4.0414397e-04   2.9653561e-04  -1.7941777e-04  -1.1499387e-03  -1.0606933e-03  -2.5592335e-05  -8.3179788e-05   1.0082263e-04  -1.2038137e-04  -1.4108899e-05  -1.2300294e-03   4.5362697e-04   7.0521620e-04   2.8579397e-04   6.0100756e-05   2.7424618e-04   1.9105020e-04   1.0365591e-04   6.7964167e-05  -4.1357090e-04  -5.6491631e-06  -6.0548162e-05   3.6447123e-04   2.3174596e-07   1.7334928e-04  -1.0957825e-03  -3.0360685e-04  -6.1854359e-04  -3.5417842e-04  -4.1873803e-04
  -1.0847638e-04   2.1441721e-05  -2.6008755e-04   1.2815485e-04   1.5431787e-04   3.9996448e-05  -1.5113171e-04  -1.9100697e-05  -3.4900682e-04   1.9229850e-04   5.7873745e-05   6.7732239e-05  -4.8679370e-04  -4.6824309e-05   1.3872067e-04  -3.0819321e-04  -5.4072845e-04  -6.1154977e-04  -1.0259232e-04   2.7862558e-04   4.4125417e-04   3.8686543e-04   4.8751844e-04  -1.0614211e-03  -1.7925389e-05   2.5852114e-05  -1.1684919e-04   1.9020161e-05   2.2109735e-04  -1.7505456e-05   1.0280858e-03   7.5066532e-04   4.7817093e-04   2.7172407e-04   6.3451902e-05   1.4572456e-05   3.5579917e-06   3.6594945e-05   9.9604556e-05   1.6752952e-04   4.3496406e-05   4.0993225e-05   6.7400462e-05  -1.7190321e-05  -7.2396587e-04  -2.2377646e-04  -3.3156094e-04  -7.9521397e-04  -1.2813824e-04  -3.4615214e-04
  -1.6840822e-04  -4.2542270e-06  -1.9718997e-05   9.4716932e-05   4.8847996e-05   1.3705743e-05  -1.0620300e-04  -3.2297388e-07   9.1254647e-04   1.6511769e-04   8.2555038e-05   9.3053110e-05  -4.6916178e-04  -1.1469433e-05  -2.3525712e-04  -9.5622781e-06  -3.6799035e-04  -1.9089811e-04  -5.3401408e-04  -5.5508990e-05   4.0989343e-04   3.9485743e-04  -3.4545545e-04   1.9681838e-04  -1.8250290e-04   5.3402695e-05  -1.3588049e-04   3.5134848e-04   4.9501186e-04  -6.7931942e-06  -3.2340963e-03   3.1872856e-04   9.1181713e-04   9.8395234e-05   3.4269822e-06   5.7763356e-04   3.3715467e-05   1.0727897e-04   2.7886701e-05  -5.8375575e-05  -4.9920403e-04   1.8901857e-05  -4.5631928e-04   4.2376087e-05  -3.1070784e-05  -9.0191781e-04  -4.2208898e-04   1.8223960e-04  -4.8102389e-04  -4.2144847e-04
  -1.5397293e-04  -4.4744133e-06  -4.8447619e-05   9.0898378e-05  -1.8110118e-04  -2.8203236e-05   7.7702112e-05   7.4267598e-05  -4.7111866e-04   1.6159336e-04   9.2170449e-05   7.0237351e-05  -3.9704092e-04   2.9965609e-06   1.6288979e-04   5.1162584e-07  -3.2142297e-04  -5.1250204e-04   1.0112021e-03   4.1638190e-04   4.1615835e-04   2.7062357e-04   2.3198275e-04  -1.4339040e-04   1.0263053e-03  -1.3134406e-04  -2.5119793e-04   1.7459021e-04  -1.4761377e-04   5.7378329e-06  -7.3764654e-04   5.5961538e-04   3.8882287e-04  -2.2062866e-04   5.4487336e-05   2.4295633e-04   6.3927138e-05   7.2352821e-05   1.2525660e-04  -7.7684505e-05   7.8274542e-04  -1.7247707e-04   1.3761539e-03   1.3398942e-04   3.4147622e-06  -5.0978432e-04  -3.6678102e-04  -8.8233483e-04  -4.6648519e-04  -3.1166480e-04
   1.1994131e-05  -1.2345493e-05  -1.9884155e-04   1.2583224e-04   4.5005094e-05  -1.4275073e-05   1.2573416e-05  -3.2899578e-04   6.2652375e-04   2.2054384e-04   1.5601583e-04  -4.8343190e-05  -4.5127847e-04  -6.2476552e-06  -1.7374655e-04   4.4589455e-05  -5.1192939e-04  -4.7243934e-04   2.7131458e-04   2.4460771e-04   4.1924047e-04   4.8306870e-04  -1.9057504e-04   6.0296850e-04   3.7130652e-04   9.9545090e-05  -2.4121867e-04   2.9372057e-04   3.3156841e-05   7.4917739e-06   6.2839547e-04   1.2077393e-03   5.2482897e-04   1.3175857e-04   1.2313869e-04   4.0706327e-05   1.2466100e-04   6.5927663e-05   1.1961726e-05   2.8764576e-04  -6.2604202e-04  -1.0905369e-04   1.4158969e-03  -1.9261666e-04  -7.4213184e-04  -5.0403201e-04  -3.8185038e-04  -9.5301517e-04  -3.2277280e-04  -3.4702450e-04
  -1.0321282e-04  -1.7952912e-05   4.5961187e-06   1.2919157e-04  -9.3117429e-05   5.6029171e-06   6.2073850e-05   6.4529589e-04   4.4323513e-04   2.1299862e-04   1.6917441e-04  -1.3428711e-05  -4.5067139e-04  -1.1901177e-05  -1.0429071e-04  -4.7974114e-05  -4.1022280e-04  -4.9883500e-04  -5.6412688e-04  -4.1593546e-05   3.9362683e-04   3.0855136e-04  -2.6102876e-04   2.0768845e-03  -3.4490737e-04  -1.1813279e-04  -1.7804156e-04   4.8699742e-04   2.4513694e-05  -1.6285130e-05  -3.0927272e-03  -3.7445169e-04   3.6854635e-04   3.7604125e-04   7.9024132e-05  -4.4803839e-04   2.0961040e-04   1.1796415e-04   2.8835665e-04  -1.6329190e-04   4.4463153e-04  -4.0041439e-05   1.8184737e-04   7.8838159e-05  -1.9022716e-04  -5.3055875e-04  -4.2828717e-04  -3.6874664e-04  -5.8924465e-04  -3.8166641e-04
  -1.3761436e-04  -2.1696769e-05   7.6143282e-05   1.1181537e-04   3.8315968e-05  -1.3243468e-04   1.0833801e-04   1.3038061e-04  -1.9563558e-04   1.8141641e-04   1.3433983e-04   2.8851406e-05  -4.1665958e-04  -4.4710658e-05  -1.4139892e-04   5.0487179e-05  -3.1375486e-04  -5.1185401e-04  -3.6717646e-04   1.9400902e-04   3.3738575e-04   2.9521468e-04  -5.7273416e-04  -7.2443153e-04  -4.4738775e-04  -1.0748683e-04  -7.6769305e-05   2.1897793e-04   9.5477886e-04   9.8244855e-06   8.3040679e-05  -6.3973153e-04   3.3568821e-04   2.0262628e-04   3.9823193e-05   5.6806861e-05   8.7133274e-05   2.6711425e-05   1.4097316e-04   1.1030887e-04   2.0470774e-04  -9.2419228e-05   6.7673496e-04   3.0477717e-05  -4.8762150e-04  -4.1337582e-04  -3.9233000e-04   9.0966110e-05  -3.8937852e-04  -3.4908560e-04
  -2.9908982e-04  -5.5708282e-05   4.7070948e-06   7.1487841e-05   2.2242463e-04   2.9954899e-05  -5.0599710e-06  -3.7369301e-04   1.8287721e-03   1.4018136e-04   7.7020988e-05   3.2128071e-05  -3.4866590e-04   6.5326685e-06   2.9099156e-05  -2.9607088e-05  -3.9325454e-04  -4.7508109e-04   5.8600307e-04   3.9621061e-04   2.5267998e-04   3.4217292e-04   1.1406416e-04   4.1177106e-04  -9.9970051e-04  -1.3204708e-04  -1.4652534e-04   2.1472551e-04   1.3543466e-04   9.1951852e-06  -6.4457988e-04  -2.3150312e-04  -1.7610218e-04   6.7201792e-05   5.7459001e-05   2.3244813e-05   1.3868188e-04   3.4960358e-05  -1.5463708e-04  -1.1102253e-04  -5.4094830e-04   9.3197377e-05   8.3265826e-04   5.3272347e-06   1.3095186e-04  -3.0650827e-04  -2.8093276e-04  -8.3392981e-04  -4.4944204e-04  -4.2532396e-04
  -3.8389411e-05  -3.8519662e-05  -1.0971296e-04   1.1606010e-04  -5.1304731e-05   6.2392864e-05   6.7135879e-05  -4.4325039e-05   1.6781823e-04   2.2169795e-04   9.5771888e-05   1.7277000e-04  -4.1777806e-04   5.1546805e-05  -2.7893001e-04  -9.2945331e-05  -3.2393524e-04  -2.3195446e-04   5.1349908e-04   1.0467797e-04   2.2659583e-04   2.4939145e-04  -3.7351821e-04   2.1871806e-03  -2.6023181e-04  -1.2275306e-04  -1.3838519e-04   1.7002472e-04   2.2882337e-04   6.4168580e-07   1.3957991e-03   4.0898073e-04  -3.4339868e-05   2.6585200e-04   1.4236986e-04   5.0379848e-04  -8.8734305e-05   9.2705188e-05   1.3549336e-04  -1.9520619e-04  -1.1537404e-03   4.3134351e-05   2.0619025e-04   1.1004130e-04   5.9833783e-05  -1.4649647e-05  -2.8360897e-04  -8.9838606e-04  -4.9288035e-04  -3.4440221e-04
  -1.1566732e-04  -5.0945466e-05  -1.1644879e-04   1.2127371e-04  -1.4201518e-04   1.4191127e-04   1.0765652e-04  -3.1527015e-04  -9.8603196e-04   2.0302112e-04   1.9837068e-04   6.1488281e-05  -3.8873032e-04  -1.1021478e-05  -1.5455532e-04  -2.1065798e-04  -1.8831735e-04  -1.1211931e-04  -4.5594116e-04  -5.4059536e-05   2.1754488e-04   1.2517643e-04  -2.4774615e-04  -5.3767249e-04   2.6922494e-03   1.5225845e-05  -1.7955175e-04   2.3675134e-04   9.0128065e-05   2.4004299e-05   1.7954580e-03   7.6543493e-04   4.6864362e-04   1.2524967e-04   5.4799864e-05   3.2845196e-06  -8.0826503e-05   3.7138409e-05   1.2476603e-05   9.6685799e-05   1.5205631e-04   1.3391537e-04   2.9985173e-05   2.2061940e-05  -7.7338301e-04  -6.8189536e-04  -2.9356955e-04  -2.5750916e-03  -4.9082242e-04  -4.2869951e-04
  -2.1263170e-04  -1.3570136e-05  -1.3848113e-04   8.0271115e-05   3.5423735e-05   1.8365987e-05   5.6249777e-05  -3.3159001e-04  -3.1820504e-04   2.2308137e-04   1.2729790e-04   1.8066954e-04  -4.3008808e-04  -3.9264055e-06  -2.3583315e-04   5.5176144e-05  -3.0680062e-04  -3.8194933e-04   1.1123414e-04  -3.1394226e-05   2.2480673e-04   2.6385553e-04  -5.2906613e-05   2.9904730e-04   4.7232813e-04  -2.4095913e-04  -9.9436947e-05   1.6311383e-04   5.9161335e-04   1.2213574e-05   2.4937037e-03   2.4725538e-04  -2.6943453e-04   9.3819130e-05   1.0474007e-04  -2.4622257e-04   1.6538847e-04   8.0308193e-05   3.7972160e-05   2.1235496e-04  -3.9772603e-05  -5.4836175e-05   1.6092233e-04  -9.5460455e-05   4.2779392e-04  -2.0793275e-04  -3.1494891e-04  -7.2652998e-04  -5.1376020e-04  -5.7986454e-04
  -1.2318109e-04  -3.3076809e-05  -1.8576808e-04   5.2421972e-05  -4.6423134e-05   1.7345099e-04   5.9597831e-05  -8.9478497e-05   8.9522720e-05   2.2504455e-04   1.5999730e-04  -5.1542931e-05  -4.0434924e-04   2.8760600e-05   9.5438838e-05  -1.8299891e-04  -1.5660428e-04  -3.4203648e-04   1.0903734e-03   1.1689317e-04   2.2857101e-04   1.3429298e-04   2.2036405e-04  -9.4589783e-04   7.1978342e-04  -1.9326525e-04  -1.7428269e-04  -2.9915760e-04  -5.1457714e-04   2.6071892e-05  -7.4084359e-04   2.6770623e-04   3.2390087e-04   3.2277859e-04   1.5960179e-05   7.9495570e-04   8.4912863e-05   9.4599789e-05  -1.0415055e-04  -4.0277602e-05  -2.1424836e-04   3.2300035e-05   4.6153448e-04  -1.4670064e-04  -1.0212003e-03   4.3392633e-04  -3.1585235e-04  -5.6747848e-04  -5.1583967e-04  -3.8864595e-04
  -2.4336134e-04  -2.3624389e-05  -2.7287671e-05   1.6863133e-04   1.1123717e-04  -9.4331648e-05   1.0707341e-04   7.3401266e-06  -4.6104004e-04   2.5679806e-04   2.2060165e-04   8.0906131e-05  -3.7169820e-04   3.6750527e-05  -4.9710053e-04  -1.9117026e-06  -2.8333304e-04  -2.2225437e-04   5.5491266e-05   1.2199017e-04   2.4615135e-04   1.2640310e-04   4.4671029e-05   2.0791072e-04  -5.7718018e-04  -8.5675902e-06  -1.6004723e-04   4.1197287e-05  -2.9977364e-06   1.1511301e-05  -4.7084669e-04  -1.7464286e-04  -2.3658764e-04  -5.0840739e-05   1.0455816e-04  -7.7279656e-05  -9.7699005e-05   1.0719763e-04   1.1552764e-04   1.9473283e-04   3.8593706e-05  -9.4912837e-05  -2.6453685e-04   1.4317379e-04  -9.2717371e-04  -1.1906913e-04  -2.5648836e-04  -1.1708908e-03  -3.1566015e-04  -2.6410058e-04
  -2.6185537e-04  -1.6387516e-05  -1.5796916e-04   1.2107747e-04  -1.1678282e-04  -9.4696530e-05  -5.6587469e-05   2.3227347e-04   1.0197791e-04   2.1551212e-04   1.9947524e-04   1.8923043e-05  -3.4407480e-04  -2.8162599e-06  -2.3533613e-04  -4.3723907e-05  -3.8629558e-04  -3.0526493e-04  -1.2925462e-03   6.9788261e-04   2.5145084e-04   1.9237111e-04  -1.3476951e-04  -2.9454171e-04  -1.1702320e-03  -7.9771249e-05  -8.8017223e-05  -2.4203648e-05  -2.1022499e-04  -2.2695935e-05  -7.8282406e-05   5.1972362e-05  -1.6398910e-04   2.3497007e-04   2.9946414e-05  -1.9293801e-04   3.7743597e-05   1.8586796e-05  -5.7866640e-07   5.0087361e-05  -7.2703755e-04   1.3848437e-05   5.3896091e-04  -4.4726556e-05   3.8742757e-04   3.4990508e-04  -1.9783356e-04  -5.3406967e-04  -4.7563965e-04  -3.7083132e-04
   3.3990989e-05  -2.6071444e-05  -1.2511275e-04   8.0784499e-05  -3.0842468e-05  -3.3192660e-05  -8.5765336e-05  -4.3529573e-05   6.6413305e-04   2.2661735e-04   2.3622302e-04   9.9798759e-05  -4.5415762e-04  -1.9597774e-06   5.3995278e-05   2.4184682e-04  -2.2674534e-04  -3.2881551e-05   6.6510175e-04   8.5680629e-05   2.6282421e-04   1.6236339e-04  -4.7644609e-04   1.6518100e-04  -5.0884287e-04  -5.1582130e-05  -2.5774199e-05  -4.0327600e-06  -8.0883918e-05  -2.4888439e-05  -5.5325549e-04   1.0373015e-03  -3.1604915e-04  -2.4229371e-04  -4.3000258e-05  -9.3532231e-05   1.1712915e-04   9.8812779e-05   2.5382024e-04  -9.5876050e-05   3.4665017e-04  -5.1086110e-05  -3.8690155e-04  -1.2558652e-04  -1.5977558e-04  -2.5954880e-04  -1.9436057e-04  -2.2486941e-04  -3.8672835e-04  -4.4410175e-04
  -1.5078561e-04  -2.8952470e-06  -6.0183873e-05   6.2532832e-05   1.5734402e-05   1.3908745e-04  -1.5375599e-05   2.3767496e-04  -8.1585551e-04   2.0145142e-04   1.7638759e-04   5.6285160e-05  -4.1021733e-04   1.6689171e-05   1.6907883e-04   5.1487772e-05  -2.0609875e-04  -1.9430919e-04   1.5589467e-05   2.7487578e-04   2.1582427e-04   1.3719194e-04  -1.2108773e-04   4.2917203e-05  -1.9804619e-03  -5.8502919e-05   3.6210615e-05  -9.5553114e-05  -1.3343855e-04  -1.5535148e-05   7.5019902e-04  -3.1983349e-04  -1.1914225e-04   3.4873819e-04   2.4861602e-05  -3.0786751e-04   3.5679105e-04   1.2941936e-04  -8.2326507e-05  -9.5478521e-05   8.5222221e-04   5.0279021e-05   1.3863840e-04  -1.0641873e-04   5.9276813e-04  -5.0953019e-04  -2.0365884e-04   8.5754693e-04  -3.3062143e-04  -4.6786290e-04
  -1.1799402e-04   6.4377482e-06  -9.3873241e-06   1.1400899e-04  -6.8823989e-05  -9.1766095e-05   1.1559331e-04   1.7011193e-04  -6.7985855e-04   2.3786978e-04   2.0251072e-04   1.1756740e-04  -3.6731406e-04  -2.2396862e-06   9.8813718e-05  -1.0882622e-05  -1.9534939e-04   4.4354747e-05  -8.5717416e-05   2.4884962e-04   2.3223853e-04   2.3424353e-05   1.7836304e-04   7.2300097e-04  -3.0533597e-04   1.0235716e-04  -1.5114801e-04  -1.0993447e-06   4.4997333e-04  -4.3060787e-05  -7.0584218e-05   3.5935227e-05  -9.4872928e-05  -5.4114746e-05  -3.6923805e-06   4.5653741e-04  -7.7875877e-05   7.1557930e-05  -7.6455806e-05  -3.8141353e-04   5.7371752e-04   1.0269169e-04   5.3659320e-04  -7.4034549e-05   5.6656427e-04  -1.3615060e-04  -2.3294709e-04  -3.7829141e-05  -3.0302850e-04  -3.7752127e-04
  -4.7279656e-05   9.7122456e-06   7.1493567e-05   7.7736608e-05  -1.2683026e-04  -1.0797727e-04  -4.4866509e-05  -2.2221182e-04   4.5465314e-04   2.2470436e-04   2.7357327e-04   5.6066445e-05  -3.9446488e-04   7.2812079e-05  -3.1998835e-04  -1.2710174e-04  -1.6967073e-04  -3.3704867e-04   5.4616987e-05  -1.4178226e-04   2.3663889e-04   2.8486169e-04   1.1612219e-04  -4.4682334e-04   8.6311775e-04  -1.9336789e-04  -1.1294386e-04   1.1738551e-04   3.6671551e-04  -2.9590621e-05   3.4396027e-03  -3.0638924e-04   4.7478792e-05   9.1447619e-05  -2.7241147e-05   9.1096835e-04   3.4453100e-05   6.5063105e-05   2.8801321e-06  -1.2314096e-04   4.6317271e-04  -5.9817568e-05   6.5748364e-04   9.2443797e-06  -1.0843718e-04  -1.0832930e-04  -2.7792354e-04  -7.7364128e-04  -5.5533176e-04  -4.1415717e-04
  -2.8074728e-05   9.7468619e-06   8.8787550e-05   8.3209714e-05  -1.2794657e-05  -1.7710852e-04  -1.5033060e-04  -2.8913101e-04   1.8265797e-05   1.9262731e-04   1.3928449e-04   1.5776548e-05  -3.4595348e-04   2.7991136e-05   5.1675097e-04  -2.8073546e-04  -3.3994336e-04  -8.4177591e-05   4.2923100e-04   1.8754565e-05   2.5246845e-04   1.4510678e-04  -8.0975733e-05   7.7019522e-06   1.6980959e-03  -2.5783827e-05  -6.6457338e-05   3.9050734e-04  -2.6877568e-04  -1.6041320e-05   5.9755787e-04   1.4655586e-04  -2.8881777e-04   1.0500439e-04  -7.3189934e-05  -1.1694114e-04   2.9047544e-05   6.0762282e-05   1.4219059e-04   1.9027860e-04  -2.8816247e-04  -8.4999165e-06   3.9159329e-04  -1.0433527e-04  -1.3556042e-04  -4.5992655e-04  -2.4102803e-04  -9.0058061e-04  -4.1254880e-04  -3.9017960e-04
  -2.0282987e-06   2.4818322e-05   4.4561082e-05   2.1000629e-05   1.1344134e-04  -2.2684839e-05   3.1568845e-05  -8.5477448e-05   4.3279305e-04   2.1983181e-04   2.4071780e-04   9.3202339e-05  -3.2446827e-04   2.1454780e-05  -5.2795187e-04  -3.0912133e-04  -7.5602176e-05  -1.3195942e-04   3.3396177e-04  -1.4111595e-04   2.5436000e-04   1.7757861e-04  -1.9969813e-04   2.6810220e-03  -7.7984273e-04  -5.8545051e-05   3.8695387e-05  -3.1828855e-05   7.1856608e-05  -3.0427813e-05   1.2414246e-03   5.1331701e-04   7.9203275e-04   1.6400523e-05   5.8709786e-05   4.5039377e-04   2.7227512e-04   3.2015610e-05  -3.4042881e-05  -9.8997072e-05  -4.7376074e-04   1.1161394e-05  -6.7602683e-05  -3.2482170e-05   6.7048699e-05  -1.3686962e-04  -1.9138835e-04  -6.1325525e-04  -2.2930016e-04  -4.5408015e-04
   8.5032640e-05   7.3173974e-06   4.6780056e-05   1.3283397e-04  -1.8882471e-04   3.5434867e-05  -6.9388821e-05  -1.0332784e-04  -3.6976874e-04   2.7294445e-04   2.9686451e-04   1.2191295e-04  -3.8491550e-04   4.9356171e-05   4.6793403e-04   2.4932489e-04  -3.3684063e-04  -2.1305315e-04  -2.1468769e-04  -2.5533754e-04   3.0112109e-04   2.3647430e-04  -2.0002163e-04  -4.0952751e-04   8.9174765e-04  -4.5233246e-05   6.3284802e-05   4.4428348e-04   1.9901017e-04  -5.2402673e-05   1.0670733e-03   1.4655554e-04  -3.0655653e-04   3.0803523e-04  -7.9700818e-05   1.0590623e-04   3.0890242e-05   5.6616791e-05   2.0749283e-04  -1.7833960e-04   1.0039832e-04   1.0508233e-04   4.5291552e-05   4.0343584e-05   5.6737277e-04  -3.4634542e-04  -2.1272416e-04   4.0327111e-04  -2.5609889e-04  -3.4936043e-04
   7.3936804e-05   4.9151298e-05   7.2947696e-05   7.6836375e-05   2.7968235e-05  -3.2739696e-05  -1.4241517e-04   1.8181762e-04   6.1230399e-05   2.9651297e-04   2.6930089e-04   1.7141522e-04  -3.2367164e-04  -1.9470855e-05  -3.6894277e-04  -1.3892362e-05  -1.8221728e-04  -3.1646891e-04  -6.6410715e-04   3.3499161e-04   2.7111301e-04   2.0710885e-04  -5.5074517e-04  -2.3886232e-05   6.0371927e-04  -1.7196921e-04  -9.8867764e-05   4.4490760e-05  -7.8263292e-05  -4.5273064e-05  -1.1822054e-03  -2.0640157e-04   3.8187049e-04  -9.3600240e-05   3.0745141e-05   7.0275841e-05  -1.0889221e-04   2.7754855e-05  -2.9196839e-05   1.5519487e-04   4.2901639e-04   1.2793073e-04   1.4632308e-03  -6.7805064e-05   2.9438210e-05  -8.8336304e-07  -1.6901399e-04  -4.2465748e-04  -4.1020985e-04  -4.9886334e-04
   1.0490422e-04   1.7179464e-05   1.8199618e-04   4.5744004e-05  -1.3252857e-04  -9.9674704e-05   7.7451172e-05  -2.7366434e-04   6.5607973e-04   3.0616153e-04   3.7069523e-04   1.7918205e-04  -3.1579938e-04   5.4381060e-05   4.5676101e-05   4.2300810e-05  -1.5010902e-04   9.3857881e-05  -3.6227275e-04   2.9033647e-04   2.5845968e-04   2.3460751e-04  -5.5576500e-04   5.7671547e-05   3.9656658e-04  -1.5814611e-04  -1.4222794e-06   7.2819508e-05   6.8147975e-04  -4.9491402e-05  -3.5478681e-04  -6.2980551e-05  -1.6844568e-04  -2.6565584e-05  -2.8800088e-05   8.9951284e-04   7.9222082e-05   5.9070589e-05   4.3808112e-05  -1.7255665e-04  -3.8742123e-04   1.2937246e-04   5.6889624e-04  -4.0590352e-05   3.4095073e-04  -6.4381619e-04  -1.4798027e-04  -7.5142998e-05  -3.7836400e-04  -5.2690855e-04
   8.3757237e-05   4.3094653e-05   1.0606531e-04   4.7459256e-05  -1.3050655e-04   6.3981890e-05   3.2739225e-04   5.2553334e-04   1.0868425e-03   3.0230402e-04   1.9168561e-04   1.0407696e-04  -2.8235122e-04   3.2902774e-06  -1.0559115e-04   6.1747800e-05  -1.5916678e-04   8.3616615e-06  -2.7119825e-04  -9.2429538e-05   2.6638980e-04   1.2526334e-04  -1.4410797e-04   1.0379106e-03  -4.4357123e-05  -1.3315410e-04  -4.0952767e-05   6.9273083e-05   2.1177379e-04  -6.2224040e-05  -4.4039727e-04  -5.9053509e-05   1.9776876e-04  -6.0103343e-05   4.3054548e-05  -6.0558843e-05   1.8142496e-04   1.0291443e-05   1.7747092e-04  -3.1701141e-04  -1.5759467e-03   8.6776803e-05  -4.4926471e-04  -1.1722027e-05  -2.8823933e-04   1.4669068e-04  -1.3029452e-04  -3.0375033e-04  -3.1896943e-04  -4.3990838e-04
   8.1730570e-05   1.2975395e-05   8.8956578e-05  -1.6995857e-05  -9.7610289e-05   1.6999022e-05   1.2224496e-04   6.9335132e-05  -1.8302507e-04   3.1381546e-04   2.6558150e-04   1.8604964e-04  -2.7170367e-04  -3.2005370e-05  -4.4445353e-04   2.8133093e-04  -2.1272872e-04   2.1439094e-04   1.3383923e-04  -1.6451348e-04   2.7360197e-04   2.2588779e-04  -4.3499219e-04  -1.8006641e-03   6.4875366e-04  -1.2940042e-04  -2.3427529e-05   2.9577539e-04  -5.6352637e-06  -5.9307316e-05  -3.9928046e-04  -2.1501133e-04  -1.6121253e-04   2.7346234e-05   4.5234672e-05  -5.5407781e-05  -2.6507698e-05  -7.0183696e-06   1.6110858e-04   2.3912985e-04   1.1884762e-03  -9.5531504e-06   3.0041105e-04  -9.9450779e-05  -2.1940439e-04  -4.9817911e-04  -8.8096036e-05  -6.9103175e-04  -2.2526644e-04  -4.9078447e-04
   1.0632968e-04   7.9441859e-05   2.4074102e-04   6.8373352e-05   8.2367624e-05   6.4206790e-05   3.8271384e-05   2.6746944e-04   4.6987702e-06   3.3386244e-04   4.1066259e-04   2.3284327e-04  -2.5518509e-04   2.1365759e-05  -1.5902349e-05   1.7287523e-06  -1.2127044e-04  -2.1360145e-04   1.8594653e-04   4.2411796e-04   2.4213747e-04   1.4183192e-04   4.7759333e-04  -4.1969560e-04   1.8167781e-03  -1.3395083e-04  -5.1863943e-05   3.3170858e-04  -6.3838503e-05  -4.8412996e-05  -8.7904837e-04  -1.2281147e-03  -3.3948457e-04   9.8507599e-06   1.7113730e-06   2.1331816e-04  -1.5315434e-04  -2.1657796e-05  -1.3701159e-04   1.7278497e-05  -6.4286013e-04  -5.2638035e-05  -5.5611250e-04  -1.9260167e-04  -1.2080682e-05  -2.7120052e-04  -9.7929405e-05  -1.5446825e-04  -4.1426913e-04  -4.3670408e-04
   5.3857886e-05   7.8901539e-05   7.7580713e-05   5.3426531e-05   7.3139738e-05   9.5320509e-05   1.7628868e-04   5.4286595e-04   1.8471580e-03   3.2170577e-04   3.3653734e-04   1.6830047e-04  -3.2458300e-04  -3.9578670e-05  -8.8692934e-05   9.2493348e-05  -2.0931708e-04  -4.7862099e-04   8.2126578e-05  -6.0556545e-06   2.6394209e-04   1.2748204e-04  -5.5670406e-04   1.0719452e-03   8.9082622e-04  -1.5887001e-04   1.5599688e-05   9.2184811e-05   2.5002650e-04  -4.2866599e-05   1.0953693e-03  -5.5413024e-05   1.5657939e-04  -9.3164446e-05  -6.4019732e-05   2.2844643e-04  -2.2016787e-04   4.5227909e-05   5.1492450e-05  -3.7611404e-04   4.2800710e-04  -3.3942506e-05   5.8794697e-04  -3.1809057e-05  -3.7988904e-04  -3.0689503e-04  -6.4558481e-05  -4.6300460e-04  -4.2780893e-04  -5.0806656e-04
   6.9156099e-06   1.1248830e-04   9.0651098e-05   6.6731336e-05  -5.1933512e-05   2.7008750e-04   2.1039667e-05  -3.3043714e-05   9.6864923e-04   3.4683783e-04   3.0068555e-04   1.4249134e-04  -2.6995395e-04  -5.4262637e-06  -2.2052885e-04   1.2871264e-04  -1.1443880e-04   5.3485794e-05  -4.6789192e-04   1.6685111e-04   2.6955409e-04   2.1286825e-04   4.5631849e-04   3.4350142e-04   4.8091056e-04  -2.1435377e-04  -2.4004330e-05   3.1578875e-04   7.0580526e-04  -6.1872706e-05   3.8398881e-04  -1.0969547e-05  -8.1593147e-04  -1.7266799e-04   2.1430569e-05  -9.1867085e-05  -1.5946658e-04   1.0099579e-06   1.7517054e-04   2.9308147e-05  -6.3007441e-04  -5.4398421e-05   4.4658579e-04  -4.7273184e-05   4.9316086e-04  -5.8848580e-04  -5.9596001e-05   3.7907725e-04  -2.3967655e-04  -4.9865257e-04
   1.8171765e-04   5.3504362e-05   3.4893645e-04   1.3722526e-04   2.5673100e-04   5.7298508e-05   2.9390576e-05  -2.9373812e-04   1.0941878e-03   3.6692046e-04   3.8005374e-04   1.5891915e-04  -3.9526442e-04  -1.1650048e-05   1.6217666e-04  -3.4610226e-04  -1.8319134e-04   2.5128046e-04   5.3593641e-05   1.9630643e-04   2.9407276e-04   2.4723908e-04   5.4832594e-04   1.0655170e-03  -8.4559270e-04  -1.2624126e-04   7.3345014e-05   7.7437588e-05  -2.5760417e-04  -6.2555155e-05   7.8058551e-04   2.1206666e-04  -5.3827808e-04   1.1291821e-04   3.6240148e-05   6.3594594e-04   3.5662037e-05   5.4633474e-05   3.0399426e-05  -4.0471504e-04  -4.9720460e-04  -3.9492511e-06   8.2910946e-04  -1.0273549e-04  -3.2525950e-05  -5.4210651e-04  -7.1092625e-05  -5.4620515e-04  -3.2034359e-04  -3.6764989e-04
   1.8029197e-04   1.0288224e-04  -6.4841220e-06   9.0297159e-05   1.5453306e-04   2.1311349e-05  -1.1012422e-04   3.3652229e-04   2.5062109e-04   3.7210286e-04   3.9050987e-04   1.8846728e-04  -3.3673263e-04  -1.4678413e-07   5.3702341e-05   1.5395816e-04  -1.3079264e-04   1.9662759e-04  -6.6519796e-04   1.7122751e-04   2.8167089e-04   1.7900080e-04  -1.9357563e-04  -8.3504681e-04   1.5287028e-03   5.7155091e-07   4.8197700e-05   3.1500604e-04   2.2718913e-04  -4.8271329e-05  -6.4254308e-04   4.7923072e-04  -1.0642540e-04  -8.8239613e-05   2.0771757e-05  -4.4278329e-04  -1.0091369e-04  -6.3014686e-06   2.3527527e-05  -2.6110394e-05   1.6314068e-04  -1.4774634e-05  -9.4353491e-06   1.0043637e-05   1.3155695e-05  -5.3395110e-04  -9.6505129e-05  -3.5689279e-04  -2.3156955e-04  -4.1658318e-04
   1.3846325e-04   1.2692861e-04   2.1692706e-04   7.2075243e-05  -5.2392141e-05   1.0498249e-04   3.4928985e-04  -1.6657119e-04   7.7216252e-04   3.4215322e-04   3.5639459e-04   1.8796953e-04  -2.9124133e-04   3.4811241e-05  -1.7681483e-06   2.2094602e-04  -1.4249169e-05  -1.2643042e-04  -1.2217315e-04   3.8083128e-04   2.6550141e-04   1.9765127e-04   4.9958712e-06  -4.7601075e-04   4.2253544e-04  -7.7648801e-05   4.1731897e-07   2.0521619e-04  -1.1654021e-04  -3.3000193e-05   2.4102860e-04  -3.1681554e-04  -6.4372689e-05   4.3816082e-05  -2.8451634e-05  -2.3779472e-05   1.6374643e-04   1.2316451e-04   2.5416832e-04  -2.0806967e-04   3.6809288e-04   7.3639669e-05  -3.5013157e-04  -1.1817002e-04  -8.7951419e-05  -3.9838669e-06  -1.4443605e-04  -1.2893244e-03  -3.1439427e-04  -5.1409827e-04
   1.2696457e-04   8.2077117e-05  -6.8566726e-05   5.5120145e-05  -5.1059731e-05   3.0704201e-04   1.5675218e-04  -1.9308216e-05   1.0622842e-03   3.2922250e-04   3.0620635e-04   1.0975827e-04  -2.6048921e-04  -1.5015234e-05  -3.2979855e-04   1.0511693e-04  -9.2166818e-05   8.0975813e-05  -3.7452782e-04   9.1562426e-05   2.2146960e-04   2.3214308e-04  -1.0616359e-04   9.1288873e-04   1.6372620e-04  -2.1786352e-04   4.5202702e-05   5.2253472e-06   4.1377818e-05  -1.8925430e-05  -1.5557776e-03   9.7472992e-05   1.7377695e-04  -8.5670123e-05   3.4624522e-05   1.7130109e-04   1.0769860e-04   8.0811560e-06   1.1984374e-04  -4.2233027e-05  -7.0084498e-04   2.7997601e-05   4.3587844e-04  -3.5812653e-05  -3.3418034e-04  -2.2403733e-04  -1.9238760e-04  -1.4507155e-03  -3.6510933e-04  -3.1840891e-04
   4.8271595e-06   9.9235323e-05   2.4396715e-04   1.5662251e-04   3.4138473e-05  -8.4531195e-05   8.6059546e-05  -1.8277547e-04   4.1896669e-04   3.4772899e-04   3.9599708e-04  -6.8636446e-06  -2.3390044e-04   4.1584852e-05  -3.1955491e-04   1.8839874e-04  -7.6836572e-05  -6.4259504e-05  -6.8508438e-04   2.8403051e-04   2.6091910e-04   1.7829168e-04   1.0417865e-04   1.1607303e-03  -1.2728309e-03   4.3856285e-06  -3.2129607e-05   1.8325551e-04  -1.5209814e-05  -4.3308246e-05  -4.9150310e-04  -1.0965882e-04  -1.4269054e-04  -1.0792594e-06   1.6807367e-06   3.9328134e-04  -7.3679927e-05   9.5279080e-05  -1.2371811e-04   2.8215325e-04   5.1757734e-04  -2.3094501e-05  -6.0337584e-04   1.1624987e-04  -5.1571941e-04  -3.7247714e-04  -2.1674059e-04  -9.7650260e-04  -3.8772635e-04  -2.6725890e-04
   1.1025577e-04   9.7430500e-05   1.9564030e-05   1.1951160e-04   5.1596624e-05   8.6272885e-05   1.7285479e-04   6.9920199e-05   3.4685156e-04   2.8931905e-04   2.9934486e-04  -2.3388355e-05  -1.8784656e-04   4.4472759e-05  -1.6722179e-04  -1.7625716e-04  -1.1280693e-04  -1.1528028e-04   1.1159781e-03   2.0926837e-04   2.4628261e-04   2.5917072e-04   2.8463791e-04   1.0199646e-03   5.2413528e-05  -1.8392027e-04   5.7835281e-05   3.8119825e-04   2.3363998e-04  -4.9060956e-05  -2.5146778e-03   1.2599485e-04  -1.5910098e-05  -1.8662072e-04   1.0049403e-05   4.4203346e-04   1.0358517e-04   4.7623209e-05   1.6676384e-04   1.6189818e-04  -5.3717254e-04  -2.9817651e-05   3.7513871e-04  -4.1621501e-05   9.6746779e-05  -5.8679539e-04  -2.2815514e-04  -1.6285642e-03  -2.3043973e-04  -2.9481883e-04
   1.9423006e-04   1.0463821e-04   1.9773915e-04   5.7250159e-05   1.8178875e-04   1.3910308e-04  -7.7896118e-05   4.2912431e-04   3.2579154e-04   2.8175875e-04   2.5219109e-04   1.2019674e-04  -1.5639261e-04   1.5871656e-05  -5.4730510e-04   1.9817885e-04   8.4408035e-05   1.5571143e-04   4.4391939e-04  -2.2464135e-05   2.1900523e-04   2.6504515e-04  -2.5933594e-04  -5.9044303e-04  -5.5444828e-04  -6.2289015e-05  -7.5003285e-05   6.8495211e-07   1.5525916e-04  -4.5355035e-05   3.2766678e-03   6.2552764e-04   4.6119909e-04   1.0279835e-04   6.9644862e-05   4.3686645e-04  -1.9624767e-04   3.5078159e-05  -8.5089465e-05  -1.2881722e-04  -1.0031628e-03  -1.3948255e-04   9.3306771e-05  -3.3441333e-06  -1.3275208e-03  -2.1692354e-04  -2.0710834e-04  -1.0783522e-03  -3.5878271e-04  -3.3374300e-04
   1.5209187e-04   7.9232472e-05  -8.3242514e-05   3.0662733e-05  -2.3396980e-04   3.8960585e-04   8.0906262e-05  -3.2182207e-04   1.2650022e-03   2.7186779e-04   2.8166783e-04   6.6957102e-05  -1.7945401e-04   2.4951818e-05  -2.3052342e-05   6.3092273e-05   1.0119379e-04  -2.1593476e-04  -4.3895299e-04  -2.1991546e-05   2.2075551e-04   9.4863419e-05  -2.8156021e-04  -1.1067177e-04  -8.2861981e-04  -9.9133445e-05   7.7641298e-06   1.4173739e-04   1.4897542e-04  -3.2042484e-05   2.9742178e-03   2.9232074e-04  -1.3730647e-04   1.8484380e-04   5.7185491e-05   1.3410517e-04   1.6120942e-04   4.4162614e-05   3.7370646e-05   4.1052095e-05   1.4315988e-04  -9.8734563e-05   4.9537729e-04  -4.8823229e-05  -5.7431124e-04  -9.2884258e-04  -1.9970046e-04  -3.0519563e-04  -3.3163413e-04  -4.5207265e-04
   1.2130282e-04   9.8039665e-05   2.2036479e-04   1.4158270e-04   1.5298249e-04  -4.5844977e-06   7.8287419e-05   2.4772386e-04   2.7568568e-04   2.9143569e-04   3.0788998e-04   4.9419697e-05  -2.3209257e-04   4.8254715e-05   6.8193534e-05   2.8963597e-04  -3.7963440e-05  -5.8279882e-05   3.4392474e-04   4.2893752e-04   2.3868808e-04   1.7029940e-04   2.9395515e-04   6.2912854e-04  -2.1715325e-04  -1.6561072e-04   8.3155639e-05   7.4314201e-05   3.2214646e-04  -5.0175775e-05  -1.4366165e-03  -4.0928667e-04   3.7487173e-06   2.2593715e-04  -1.8952805e-05   2.4059856e-04   3.1685882e-04  -1.0000872e-07  -1.9507026e-05   1.7243244e-04   7.3913991e-04   1.1022440e-04  -5.2729050e-05   4.5876168e-05   2.4209059e-04   2.0213594e-04  -1.9729811e-04   4.6510281e-04  -3.6189373e-04  -4.1466046e-04
   1.4948797e-04   1.0536631e-04  -4.1593106e-05   1.0238300e-04   9.1131791e-05  -3.0621650e-06  -5.6787030e-07   1.8599239e-05  -4.3939316e-04   2.7301253e-04   2.4368006e-04   2.6469302e-04  -1.9642383e-04   4.8332757e-05   2.7905451e-04  -8.3807965e-05   1.2893537e-04   1.9307480e-04  -5.6342297e-04   3.6842233e-04   2.1109593e-04   1.0082574e-04  -5.9207301e-05  -2.0428059e-04   7.1214061e-05  -9.4245079e-05  -1.9445697e-05   5.5812507e-05  -3.0589064e-05  -5.3920128e-05  -5.3875119e-04  -4.5069942e-04   2.0605970e-05  -3.6943275e-05  -2.3961244e-05   2.2805293e-04   8.4156578e-05   5.1262305e-05   1.2252242e-05   2.8078142e-04   1.1170442e-04   4.6462483e-05  -2.3744893e-04   4.9621158e-06   1.1956109e-04  -2.5315990e-04  -2.5041029e-04  -4.8533778e-04  -2.9773495e-04  -3.8963405e-04
   2.3887835e-04   8.6121312e-05   1.9683175e-04   7.4811767e-05   2.1610534e-04   1.4542216e-04   1.3025453e-04   2.9520813e-04   1.1873282e-03   2.3573417e-04   1.6118212e-04   5.4469783e-05  -1.2265253e-04   4.5924244e-05   5.6380365e-04   3.8682696e-04   7.1885161e-06  -1.2686854e-04  -1.3695104e-03   1.8998502e-04   2.2854780e-04   1.2303873e-04  -7.4767682e-05   3.6085135e-04  -1.3858143e-03  -1.1856944e-04   2.4657322e-05   1.9157308e-04  -2.2779591e-04  -3.6103826e-05   4.6814641e-04   2.9803766e-06  -5.1814925e-05   8.3756764e-05   1.0384818e-04   2.6681682e-04  -1.1410905e-04   4.8914531e-05   1.0123712e-04   1.1185345e-04  -3.8986514e-06  -3.2718955e-05   4.8508958e-04  -3.1459494e-05   9.5546030e-04  -2.0924014e-04  -2.5587433e-04  -4.6527392e-04  -4.5130553e-04  -3.1883735e-04
   8.5165993e-05   7.4855532e-05  -1.6540924e-05   3.5715206e-05  -4.8257585e-05   1.1042268e-04   9.5555741e-05  -6.9046742e-05   5.0381862e-04   2.7271581e-04   1.7169592e-04   2.8813936e-05  -1.8488294e-04   3.8659280e-05  -1.8685815e-04   1.9926330e-04   1.7839120e-05  -1.4351108e-04   6.5960170e-04   6.4246342e-05   2.1881127e-04   8.3049323e-05  -2.9247181e-04  -5.9178161e-05  -4.2864287e-04   4.8006226e-05   2.4676388e-05  -3.4772788e-04   1.7413878e-04  -2.5521256e-05   2.5891318e-04   8.0115342e-04   9.5852022e-04   6.1452018e-05   4.6707923e-05   5.1251723e-04   3.5955547e-04   1.8505703e-05   5.6718782e-05  -4.1997700e-05   2.3772338e-04  -1.7705655e-05   3.4360739e-04  -1.7919138e-04  -3.3444224e-04  -3.4690420e-05  -2.4904922e-04   4.7394358e-05  -2.1001651e-04  -3.8376419e-04
   6.5449771e-05   1.3007822e-04   2.5620349e-04   1.5473690e-04   3.1498901e-05   8.1459497e-05   7.5372023e-05   5.9825776e-05   1.6315867e-03   2.4101356e-04   2.7785441e-04   2.7639876e-04  -2.6766362e-04   1.4162435e-05   4.5574567e-04   2.9157394e-05  -8.1492675e-05   3.4740195e-04   1.8245274e-04  -3.7605136e-05   2.5726226e-04   1.4206581e-04  -2.6168313e-04   9.4107166e-04  -3.3753316e-04  -8.1279453e-05   3.1497217e-05  -9.0286921e-05   4.7619929e-04  -3.9792820e-05  -2.0890802e-04   4.9735024e-04  -2.7786777e-04   8.0100244e-06  -1.9848061e-05  -6.8054214e-05   1.2075846e-04   3.3099408e-05   1.0480511e-05  -1.7343927e-04   9.1036590e-04  -3.9444320e-05  -8.7374699e-04   4.6118883e-05   1.1140265e-04  -3.5401105e-04  -2.1405084e-04  -2.1359636e-03  -5.4695149e-04  -4.3335560e-04
   2.3285352e-04   1.0974947e-04   6.0442835e-05   1.2592133e-04   1.2068689e-04  -4.9301583e-05   1.0302239e-04   3.1034238e-04   7.8798264e-05   2.6812920e-04   2.2785203e-04   1.4947605e-04  -2.1901526e-04  -1.8265458e-05   6.4060255e-04   4.2123068e-04   1.2140013e-05   8.8417299e-05   1.4404521e-03   2.8846008e-04   2.4704597e-04   2.3551934e-04  -1.0249174e-04  -1.3409291e-03  -2.4616357e-04  -2.0984530e-04   5.9170598e-05  -2.7924564e-04   1.3625214e-04  -4.7143210e-05   1.6635795e-03   6.9670769e-04   7.1802689e-04  -5.9011305e-05  -1.3810913e-05  -1.5948751e-04  -1.5270108e-06   2.5289204e-05   1.5454352e-04  -7.9382786e-05   1.6509055e-04  -1.4296462e-04   3.7226646e-04  -3.7561837e-05  -1.3174223e-04  -4.3140393e-04  -2.5574488e-04   5.3984026e-04  -4.7040021e-04  -3.9197822e-04
   9.7219061e-05   1.1372205e-04   1.2022649e-04   8.4537969e-05   1.4348402e-04   1.8398772e-04   2.2798653e-04  -1.6327776e-04   2.7355415e-04   2.8616935e-04   2.2766013e-04   5.7630794e-05  -2.3806276e-04   5.2550335e-05  -7.1527917e-05  -4.8169706e-05  -1.2566049e-04  -9.0186455e-05  -7.5536256e-04   3.4952853e-04   2.5376244e-04   1.9488165e-04  -1.3961349e-04   1.4264065e-04   1.5304614e-03  -1.1489607e-04   4.6644313e-06   1.7053966e-04  -4.3134623e-05  -4.2716718e-05   3.3081644e-03   1.3870072e-03  -2.9359100e-05   2.2042885e-04   1.5997455e-05   3.6378864e-05  -2.7257239e-04   1.1649642e-04   2.6498758e-04  -3.5951187e-05  -5.1474222e-04  -1.5002125e-04   1.2142356e-03  -4.6898105e-05  -3.0389379e-04  -5.0466874e-04  -2.3954660e-04   1.5679277e-03  -3.1723120e-04  -4.0378189e-04
   3.6442932e-05   1.1624067e-04   2.2612749e-04   5.7541496e-05  -1.3397995e-05   2.5162756e-04   2.9284292e-05  -4.3268816e-04   2.0090933e-04   2.7859394e-04   2.2364286e-04   6.3954343e-05  -2.1641962e-04   2.3247818e-05  -1.7061083e-04  -3.3499609e-04  -1.9399629e-05  -8.3454564e-05  -3.6594173e-04   8.4115141e-05   2.5988181e-04   1.5599329e-04   3.6346674e-04   3.0672838e-04   1.4083614e-03  -7.0747679e-05   9.8839286e-05   3.1032870e-04   2.7647775e-04  -5.2877702e-05   1.5132920e-03  -5.7508273e-04   3.5361221e-04   6.0034204e-06   1.1864186e-05   1.5338606e-04   3.6385707e-05  -2.1346057e-05   1.4960248e-04   1.6201899e-05   5.6167174e-04   7.7881077e-06   1.9782460e-04  -6.8294343e-05   2.0610890e-04  -6.5341206e-05  -1.9524679e-04  -6.6953507e-04  -3.6169431e-04  -3.3407815e-04
   8.1286489e-05   9.0273104e-05   1.8448921e-04   1.0722791e-04   2.1744589e-05   1.7386857e-04   2.9316204e-04   5.7815405e-04   1.3458388e-04   3.0981450e-04   3.7998770e-04   2.4959832e-04  -2.1064556e-04   5.9442864e-05  -3.7811865e-04   1.1342282e-04  -8.4734987e-05   9.1212329e-05  -3.3416852e-04   5.0139206e-04   2.6975403e-04   1.5716937e-04   3.3814344e-05   1.1436831e-03   9.2275179e-04   4.8081747e-05   7.7157260e-05  -1.9505483e-04   6.9812918e-04  -5.5827280e-05   3.4563146e-03   6.6933979e-05   5.3874060e-04  -4.8464372e-05  -2.8148417e-05  -2.3799825e-04   2.7725648e-04   1.7166218e-05   1.4768563e-04  -2.1086587e-04  -6.5815279e-05  -9.1669470e-05   3.3675362e-05   2.5842946e-05   2.3590168e-04  -1.3437522e-04  -1.9930750e-04   3.7321149e-04  -2.7578196e-04  -4.9403909e-04
   2.7143047e-04   1.1730913e-04   1.8354229e-04   1.5020077e-04   2.7942195e-04   1.2468293e-04   1.6333909e-04   3.5764920e-04  -5.7945057e-04   3.1856835e-04   2.9826758e-04   1.1319457e-04  -2.6437608e-04   8.1075210e-05  -1.1337991e-04  -1.6721062e-04  -2.2346478e-04   1.9549804e-04  -6.9941569e-04   4.1036552e-04   2.7643857e-04   2.3821056e-04   2.0478851e-06   2.2825641e-03  -8.9687429e-04   1.6137827e-05   5.3665568e-05   6.9470036e-05   2.3161405e-04  -5.4645712e-05   1.0659903e-03   5.7588745e-04  -1.2568620e-04   3.8254299e-04  -2.0529818e-05  -2.8944673e-04  -2.3283023e-07   2.6342464e-05  -9.6224867e-05  -2.6477966e-04   4.7038306e-04  -7.1289491e-05   4.5825500e-04  -1.0269282e-04  -3.9908820e-04   3.1084561e-04  -2.5759183e-04  -1.1876387e-03  -2.7175006e-04  -5.0200458e-04
   3.4596375e-04   1.4104776e-04   1.0662591e-04   1.0871360e-04   2.1916731e-04   2.7724542e-04   2.0113910e-04   1.1907113e-04  -5.6299566e-05   3.1701644e-04   2.8303481e-04   2.3335984e-04  -2.7202553e-04  -5.8979931e-06   1.7242663e-05   5.1770359e-05  -1.7663599e-04   1.2713415e-04   5.2702765e-04   1.5388460e-04   2.8840822e-04   2.5708706e-04   5.3353567e-04  -1.5908093e-03  -2.2719176e-04  -1.8248121e-04  -4.6087360e-05  -1.9969579e-04  -1.1030368e-04  -6.7918729e-05  -5.1586982e-04  -9.7704038e-04   6.1331701e-04  -2.9359961e-05  -2.2602268e-05   1.9200698e-04  -4.3363052e-05   1.0475111e-04   1.7713984e-04   7.8551646e-05   4.6803750e-04  -4.4946013e-05  -1.6363228e-04  -7.1956124e-06   2.6016010e-05  -4.5456702e-04  -1.9024666e-04  -3.4981704e-04  -3.7808521e-04  -4.4721438e-04
   2.8532039e-04   1.0536567e-04   2.7249372e-04   7.5169482e-05  -1.1057764e-04   3.7498228e-04   2.3465704e-04   1.2562289e-04  -8.3694082e-05   2.8113314e-04   2.9746268e-04   4.3181367e-06  -2.1096006e-04   8.7803972e-05  -4.0326137e-04   3.1229918e-04  -2.5915867e-04  -5.2954281e-05   1.1250131e-03   3.5569016e-04   2.9226442e-04   2.9565929e-04   5.6860961e-05   1.3858805e-03   2.1940807e-03  -5.1690469e-05  -1.2433474e-05   1.4867996e-04   2.6328396e-04  -6.8266643e-05   7.0154856e-05   6.5107679e-04  -9.7421922e-05   6.6164423e-05  -5.0542913e-06   1.7557260e-04   1.2500389e-04  -8.6661057e-06   1.3301702e-04  -1.5250778e-04   4.1520951e-04  -3.2265976e-05   5.5620354e-04   4.7765952e-05   7.1233109e-04  -5.0071615e-04  -1.9392038e-04  -7.6841132e-04  -3.3186210e-04  -2.8904030e-04
   3.0953373e-04   1.5809899e-04   8.7342662e-05   1.6724093e-04   4.9847069e-05   1.6632749e-04   1.1485802e-04  -2.6608139e-04  -4.8253746e-04   3.2663246e-04   3.1595837e-04   7.4571763e-05  -2.6298821e-04   3.4639961e-05   6.2364925e-05   1.3299336e-04  -2.9537611e-04  -4.0410952e-05   9.7414135e-04   1.9200078e-04   2.9580278e-04   3.2744100e-04   4.3563143e-04  -9.9384075e-04  -3.6778231e-04  -1.0277600e-04   8.0350757e-05   3.7829424e-05   1.9943076e-05  -7.7032077e-05  -4.5918141e-04  -8.5106571e-05   9.5311603e-05  -3.6881788e-04   7.8322610e-06  -2.9799427e-04   4.6634501e-05  -1.6563998e-05   1.8321969e-04   1.5213968e-05  -4.4135944e-04  -1.1342404e-04  -2.1033059e-04   9.9156474e-05  -4.9726036e-04  -2.9720366e-04  -2.2364363e-04  -1.0846872e-04  -2.6443749e-04  -4.3750808e-04
   1.3321897e-04   9.1053982e-05   8.1591425e-05   1.1733086e-04   2.3897662e-06   5.1195362e-05   4.9768219e-05   3.9092094e-05   1.6907940e-04   2.8377224e-04   3.1246780e-04   7.3374023e-05  -2.2066062e-04  -1.7916975e-05  -1.1967508e-04   6.7423798e-06  -9.6385367e-05   1.6659882e-04  -5.6981749e-04   3.6827627e-05   2.7861257e-04   2.2228062e-04   5.6701342e-06  -1.4969010e-03   8.4978610e-04  -7.9212623e-05  -3.4862995e-05   8.6302469e-05   6.3213741e-04  -7.8825869e-05  -2.0838319e-03  -4.4435168e-05   3.9529268e-04  -1.3504904e-05   8.2248902e-05  -1.7102294e-04   1.6935724e-04   1.5398664e-05   6.6216242e-05  -1.0506318e-04   2.6003164e-04  -1.0917659e-04  -4.1689732e-04  -2.7552858e-04   4.4058787e-04  -3.8286461e-04  -2.0957449e-04   2.8697413e-04  -3.0071315e-04  -2.7281931e-04
   1.9743593e-04   1.3995856e-04   1.6398088e-04   9.7694516e-05  -2.3284319e-04   2.7666939e-04   1.2717479e-04  -2.1472079e-04   7.2657684e-04   2.7543821e-04   2.2177944e-04   4.2853289e-06  -2.6375375e-04   4.6482110e-05  -5.7135709e-05  -8.6584827e-05  -8.2446917e-05  -1.6113347e-04   5.4823415e-04   1.6389118e-04   2.8428526e-04   2.3307840e-04  -6.5683853e-05  -6.3255429e-04  -3.4788856e-04  -2.5186291e-05   7.8678582e-05   1.3981073e-04   7.3796482e-04  -7.1171518e-05   1.5796120e-04   4.4425495e-04   2.1689307e-04   1.7473772e-04  -1.0742694e-04  -3.3110721e-04  -1.9135974e-04   1.1002921e-05   2.8162979e-04  -3.2912049e-04  -1.0009165e-04  -1.4181616e-04   4.8038672e-04   1.4290778e-05  -8.7560147e-05  -5.1681502e-05  -2.2228931e-04  -8.2426559e-04  -5.3035672e-04  -3.5600620e-04
   2.0632415e-05   1.1845991e-04   2.1525945e-04   1.0269177e-04  -6.3113999e-05   2.5217130e-04   2.8471922e-04   4.8234678e-04   1.2362329e-05   2.6952618e-04   2.0540859e-04   3.2970969e-05  -2.4491051e-04   2.6367801e-05  -5.8483169e-04   9.9760700e-06  -2.0439218e-04   4.0319626e-04   2.5115107e-04   2.3581722e-05   2.5552436e-04   3.9978945e-04  -9.9190220e-05  -4.4741220e-04  -1.0097767e-04  -1.6379879e-04   3.4363369e-05   4.3670120e-04   3.4814083e-04  -6.2967971e-05   6.6918117e-04   2.8278050e-04   2.6714226e-04  -3.1830851e-04  -4.4100590e-05  -2.3297209e-04  -2.6883086e-04  -7.6364595e-06   1.1660685e-04  -1.4056634e-04  -2.3987923e-04  -8.3280785e-05  -1.4765594e-04   5.0923871e-05  -5.8531118e-06  -2.8905770e-04  -2.3849704e-04  -7.4885960e-04  -1.7656661e-04  -4.3482753e-04
   2.4313701e-04   1.1792910e-04   3.1357410e-04   1.5798824e-04  -7.6411219e-05   1.6375956e-04   1.6781980e-04  -1.0923336e-05   5.7017559e-04   2.2154307e-04   2.5433363e-04  -2.5640682e-05  -2.7847994e-04   1.0733159e-04   8.0128823e-04   1.0689464e-04  -3.7908903e-05  -2.9100283e-04   3.9134905e-04  -2.4511502e-04   2.7082177e-04   3.3757900e-04   9.9587669e-05   1.0313450e-03  -4.4238768e-04  -1.4305937e-04  -3.0649760e-05   5.6475394e-05  -2.9672502e-04  -7.3256590e-05   1.6277608e-04  -2.4281368e-04   3.0453142e-04   1.9642986e-04   6.4644223e-06  -2.6034442e-04   7.3099968e-06   1.5542822e-05   2.6032547e-04   1.7461940e-04  -7.4622879e-04  -1.3972438e-04   1.0195925e-03   4.2004140e-05   1.2876973e-03  -8.0036599e-04  -1.9038231e-04  -7.3176017e-04  -3.1026543e-04  -3.3606312e-04
   2.6327843e-04   1.0243194e-04   2.9296038e-04   1.3418989e-04   1.4238915e-04   2.3767296e-05   3.1219053e-05   4.1995500e-04  -5.0468592e-04   2.0277940e-04   2.6626725e-04   1.1965410e-06  -2.1667275e-04   2.6977606e-05  -3.6445021e-04  -1.9238118e-04  -1.8208184e-04   6.9179485e-05  -3.5329946e-04  -8.3464627e-05   2.6075676e-04   2.0395490e-04  -4.8485925e-04   1.4042115e-04   1.9180258e-03   1.6293479e-05   2.0161235e-05  -1.4129834e-04  -5.5404573e-05  -8.4579107e-05   1.1904830e-03  -2.1691363e-04  -1.1847757e-04  -6.0519087e-05   2.6160731e-05  -1.2133154e-05  -1.5520155e-04   6.6382119e-05   1.7480383e-05  -2.0503480e-04  -1.7108774e-03  -1.3359135e-04   1.0685199e-04  -2.2452552e-05  -7.6374759e-05  -2.9207789e-04  -2.1008107e-04  -1.9334044e-03  -2.9182804e-04  -2.9320718e-04
   1.2040142e-04   8.5191889e-05  -3.1256703e-05   1.2806786e-04   1.5301006e-04   7.5483767e-05   2.1606909e-04  -2.4861316e-04   3.6366106e-05   2.0338719e-04   1.8967908e-04  -9.2420480e-05  -1.7432508e-04   6.4014814e-05   1.9192665e-04  -4.0002380e-04   1.2489653e-06   6.9393842e-05  -3.6193570e-04   1.8652406e-04   2.2955613e-04   1.7293546e-04   2.7185419e-04   4.3764932e-05   1.3646185e-03   2.2034023e-04   1.9136280e-05   5.3781212e-05   1.7123706e-04  -7.5613854e-05   3.5605652e-05   4.3483521e-04  -2.2415584e-04  -3.1171454e-05   1.2167421e-05  -1.8117094e-04  -1.2109915e-04   6.7353598e-05   1.6931191e-04   3.4552519e-05  -4.2763041e-04  -1.7278317e-04  -2.6769500e-04  -1.8018251e-06   1.1844925e-03  -4.2026126e-04  -2.6036566e-04  -1.5681110e-04  -3.1403609e-04  -3.5634081e-04
   1.8528597e-04   8.3002597e-05   1.4690029e-04   5.1523104e-05   2.7687472e-04   2.1274027e-04   1.0651115e-04   1.5439394e-04  -4.3797080e-04   1.9119456e-04   1.1647995e-04  -1.2995132e-04  -1.5753656e-04   1.1121312e-04   1.6669792e-04  -4.7257850e-05  -8.8041179e-06  -1.2144380e-05   9.4399082e-05   1.7110792e-04   2.3463654e-04   1.8018030e-04  -3.3430340e-05  -1.4411773e-03   4.5174439e-04  -3.6548992e-04   1.8923884e-05   3.8765187e-04   4.6223813e-05  -6.2629049e-05   2.5653167e-04   4.3996511e-04   3.1939257e-05   2.5998661e-05  -7.7205441e-05  -1.9495742e-04  -8.3420222e-05   3.6854519e-05  -1.2434620e-04  -2.6958680e-04  -1.2901903e-03  -1.4909644e-04  -2.3362129e-04  -1.4291742e-04   4.1006354e-04  -7.2151408e-05  -2.5149318e-04  -7.8932592e-04  -3.2268351e-04  -3.5311314e-04
   3.1176972e-04   9.2230046e-05   1.6399543e-04   1.5600731e-04   8.7962711e-05   1.3301741e-04   1.6759976e-04  -3.1232400e-04  -6.5881337e-05   2.2564165e-04   2.1787410e-04   2.1317239e-05  -2.2406237e-04   5.8256388e-05   1.2291018e-04   4.6513072e-04  -1.6975446e-04   6.6546461e-05   4.4705154e-04   2.5556984e-04   2.1855504e-04   2.2327631e-04   1.0051808e-04   1.9908897e-03   3.9315352e-04  -9.4335293e-05   1.5980586e-05   6.8055495e-05   2.5227290e-04  -5.8841786e-05  -3.4134716e-04   5.2785603e-05  -4.0726314e-04  -9.1956659e-05  -2.3684854e-05   2.2280503e-04  -1.7852450e-04   7.0470691e-05  -1.2949771e-04  -2.2210866e-04  -8.0618117e-04  -1.7284829e-04  -1.3045325e-04   1.3178939e-05   4.8692588e-04  -2.0338381e-04  -2.8068226e-04   2.7628857e-04  -4.2745017e-04  -3.9324013e-04
   2.9098373e-04   6.7539266e-05   2.5925486e-04   1.1508587e-04   2.1408926e-04   6.5169799e-05   9.1443741e-05   1.7043424e-04   1.6025969e-04   2.0020701e-04   1.9311110e-04   9.8441960e-05  -1.2744668e-04  -1.1046909e-05  -2.1719857e-04   1.7802257e-04  -4.5090026e-05  -4.2316437e-04   3.8605579e-04   2.9926631e-04   2.2012006e-04   1.2177099e-04  -1.9766332e-04  -2.7962307e-05   7.3925965e-04  -5.3849471e-05  -7.9549915e-05   2.7929404e-04   3.9465387e-05  -6.1325132e-05  -2.5802092e-03   4.9196056e-04   8.0755568e-04  -2.4699419e-05  -1.4607001e-05  -1.7830980e-04   1.8402956e-04  -4.0325565e-07  -4.9647551e-05   4.1279345e-04   4.5205627e-04  -9.4876093e-05  -3.8801652e-05   1.3192310e-05   1.2179558e-03  -1.7447097e-04  -2.9213884e-04  -9.4649213e-04  -4.0077325e-04  -3.9720416e-04
   1.9774982e-04   8.7694738e-05   1.9793487e-04   9.1358466e-05   5.0842398e-05   1.8612710e-04   5.6230783e-05  -2.9432302e-04  -4.5332423e-04   2.0852462e-04   1.3768172e-04  -6.4005675e-05  -1.2014531e-04   6.5582557e-05   4.9832877e-05   2.5709145e-04  -2.6702824e-05  -1.7639088e-05  -9.7673299e-05   3.0198918e-05   2.1163997e-04   2.6644638e-04  -1.0106601e-05   1.7884097e-04  -5.1635189e-04  -1.6851805e-04   1.3441997e-05   1.1279443e-04  -6.7067303e-05  -5.8797403e-05  -1.5331681e-03   3.4408012e-04   1.7860704e-04   3.3030610e-05  -3.0800238e-05  -9.7956563e-06   2.2830476e-05   1.0764190e-04   1.9738788e-04  -3.3847315e-04   6.3402246e-04  -1.0296851e-04   8.9704478e-04   3.0099058e-05  -4.8940693e-04  -1.7085893e-04  -2.7458783e-04   1.1898067e-03  -3.3024527e-04  -3.3846614e-04
   2.1559492e-04   3.8772137e-05   1.5253645e-04   4.6215690e-05  -9.8018236e-06   3.8606182e-04   1.6319900e-04   2.1064584e-04  -4.9690151e-04   1.8161512e-04   9.1551941e-05   5.6743957e-05  -1.1307008e-04   3.1221773e-06   7.2896852e-05   3.2922206e-04  -1.5508342e-05   1.1550872e-04  -3.1662991e-04   6.5521256e-04   2.1072927e-04   1.3036998e-04   3.0144429e-04   9.3757542e-04  -5.5615394e-04  -7.3428346e-05  -2.1062440e-05  -2.3351044e-05   3.3901040e-05  -5.9140508e-05   1.8122998e-03  -3.3663426e-04   8.7112683e-04  -8.2970291e-05   5.9234626e-06   3.2954250e-04  -5.3820935e-05   4.2542292e-06  -1.8439296e-05  -2.2918603e-04   1.7900096e-04  -2.0349692e-04   9.7871212e-05   5.2798267e-05   2.1998683e-04  -1.7601000e-04  -2.9750165e-04   1.6144141e-04  -3.9467466e-04  -3.1668087e-04
   1.5508461e-04   4.7401216e-05   3.2227050e-04   1.4371252e-04   4.1731299e-05   4.9374412e-05   2.3255170e-04  -8.4273226e-05  -7.8036147e-04   1.4316679e-04   1.3604766e-04  -3.3506374e-05  -1.8005798e-04   5.5313871e-05  -3.6813275e-04   2.6887140e-04  -6.6823618e-06   5.7889738e-05  -1.6198774e-04  -1.9479634e-05   2.0769599e-04   2.0326508e-04  -2.8247954e-04   1.1548826e-03  -7.2390871e-04   4.3011558e-05   1.0256710e-05  -8.4499501e-05  -2.4995365e-04  -4.5045286e-05  -2.0069843e-03  -3.9987115e-04  -8.5500407e-04   1.5647271e-04  -8.4603507e-06   2.0530968e-05  -3.1958520e-04   1.0672502e-04  -9.3994488e-05  -2.9653709e-04  -8.7863242e-04  -2.3633837e-04   8.8293158e-04  -1.5974144e-04   1.3937283e-04  -1.8131886e-04  -2.5741712e-04  -5.2082614e-04  -4.0988749e-04  -4.0578013e-04
   1.6652065e-04   3.6378427e-05   1.2514842e-04   1.0081506e-04   5.6616394e-05   2.5701514e-04   1.3605744e-04   6.2196123e-05   2.5403831e-04   1.5361977e-04   1.0408970e-04  -1.5073128e-04  -1.6919123e-04   6.4714564e-05  -2.5157421e-04  -2.6788883e-04  -1.8220400e-05  -3.2430275e-05  -8.7573915e-04   1.9973626e-04   2.1658372e-04   2.7354530e-04  -6.5529469e-04  -1.4895208e-03  -1.0463817e-03  -1.1268604e-04   9.3218834e-05  -6.2305349e-05   8.3791150e-04  -6.3641368e-05  -3.0686893e-03   7.3465152e-04   5.7372253e-04  -3.3122970e-04  -7.4434007e-05   2.1932990e-04   3.4720203e-04   8.9056426e-05   1.5396276e-05  -2.6820562e-04  -4.7662674e-04  -6.9474605e-05   5.1235504e-05   9.8462733e-05  -6.6051655e-04  -1.5068300e-04  -2.2844911e-04  -1.6517042e-04  -2.9482055e-04  -2.0417670e-04
   2.1654271e-04   5.0862094e-05   2.2512778e-04   6.3864638e-05   2.8775827e-05   1.3713700e-04   2.2381783e-04  -4.3064984e-04   6.0713867e-04   1.8520970e-04   1.7877808e-04   2.8019276e-05  -1.8436930e-04  -1.8619339e-05   5.0609844e-04  -1.2360173e-04  -2.1831160e-04   6.6703433e-05   4.5233313e-04   4.4743301e-04   2.0719034e-04   1.8421824e-04  -4.6738904e-04   1.3986073e-03   1.2391718e-03  -1.9920197e-04   1.3892634e-05   1.4650970e-04   5.4281310e-04  -4.3729542e-05  -2.2234171e-04   9.2558103e-06   9.6128433e-04  -1.0145583e-04   4.0211511e-05   4.6665693e-04   1.1594969e-04  -2.5070433e-06   3.6934012e-05   1.0262193e-04  -7.6339085e-04  -9.9231278e-05  -6.4515963e-04   7.1792725e-05  -1.3843713e-03  -1.8049698e-04  -2.7227370e-04   5.0537870e-05  -3.3447350e-04  -2.7239212e-04
   4.9168935e-05   7.8831661e-05   1.0988356e-04   1.3113777e-04   1.0730371e-04   1.0621135e-04   1.4372698e-04   3.3671589e-04  -4.0105665e-06   2.2841388e-04   1.1302718e-04  -1.0412386e-05  -1.6823906e-04   3.8270406e-05   2.7368488e-04  -6.6409331e-05  -3.7717866e-05  -5.9244881e-05   7.6831999e-04   1.4418953e-04   2.1278879e-04   1.4558161e-04  -6.0188776e-04   1.1975258e-03  -4.9482936e-05  -9.6517528e-05  -2.4534223e-05  -1.7279942e-04  -2.6728638e-04  -5.6947938e-05  -8.8174472e-04   6.0978741e-04  -1.1095050e-04   1.8081983e-04   2.6192232e-05  -1.4746153e-04   1.8369114e-04   1.4637399e-05   2.4891860e-04   4.9313399e-05   2.5144915e-04  -1.3559044e-05   6.2012376e-04   4.6489873e-05   1.9124021e-04  -3.2031332e-04  -3.0591426e-04   3.7047335e-05  -3.3891143e-04  -2.3510140e-04
   1.2060368e-04   5.8593669e-05   1.5775044e-04   1.6574965e-04   3.7494563e-05   5.9219776e-05   2.2054407e-04  -1.0134043e-04  -2.3545622e-04   1.6833242e-04   7.3865449e-05  -2.1620095e-05  -1.6115753e-04   5.9973361e-05   4.2689036e-04   1.3635657e-04  -8.9777808e-05  -3.2052430e-04   5.6151761e-04   4.1361901e-04   2.2036866e-04   2.5011008e-04  -5.3894531e-04  -2.0401804e-03   2.2169186e-03  -7.6939607e-05  -3.0843577e-05   4.6288980e-05   2.6663163e-04  -2.1803191e-05  -1.9155443e-03  -8.5529848e-04   9.1372203e-05   1.4128629e-04  -2.4979530e-05  -1.7492619e-05   6.8443405e-06   5.5221455e-05   2.7661782e-04   1.5760801e-04   1.6914647e-04  -2.6261923e-04  -6.2125456e-04   3.5577519e-05   3.1109175e-04  -2.3580041e-04  -2.8837373e-04   4.1645681e-04  -4.6713513e-04  -3.0705213e-04
   9.0411755e-05   5.4729204e-05   3.3426934e-04   9.5001051e-05  -1.8551973e-04   1.7014820e-04   9.0633337e-05   2.0528777e-04  -1.2021920e-05   1.9093139e-04   1.4178222e-04   7.8656871e-05  -9.7721575e-05   3.6974601e-05   5.0157681e-04   5.8743779e-05  -1.0025346e-04  -1.1529285e-04  -9.7675633e-04   1.0840606e-04   2.0223107e-04   2.4771705e-04   3.2931308e-05  -8.4424217e-04  -9.0149062e-04  -4.2006523e-05   3.5717905e-05   1.9579337e-04   2.5833983e-04  -5.0438815e-05  -3.9177532e-03  -4.6613288e-05   1.1712746e-04   4.3204316e-05   3.9030987e-05  -5.0241710e-05   3.7600370e-05   6.9480506e-05   2.9860412e-05  -2.5442246e-04  -5.0632260e-04   8.1033759e-05   7.1175722e-04   5.4639731e-05  -6.9265091e-04  -2.2167836e-04  -3.2513647e-04  -1.2624370e-03  -3.8887933e-04  -1.4722407e-04
   1.1334232e-04   1.0114447e-04   5.2455680e-06   1.3434721e-04   1.6605189e-04   1.7805796e-04   6.6411914e-05   6.0242886e-04   7.6045626e-04   1.8991432e-04   1.1429669e-04   3.5160927e-05  -8.3338935e-05   9.1842681e-05  -1.4162535e-04  -2.6670226e-04  -1.2351340e-04   4.3588164e-04   6.8209041e-04   3.0624235e-04   1.8769460e-04   1.7397101e-04   3.3444320e-04   6.2347978e-04  -6.6588749e-04  -3.6552388e-05   9.2728051e-06   2.8665134e-04  -2.2348433e-04  -3.6525675e-05   1.1773581e-03   3.9836427e-04  -1.0222775e-03   3.7178619e-05  -6.2482861e-05   9.2023343e-05  -5.7444940e-05   1.5508818e-05   7.2447561e-05  -1.7225876e-04   4.9922328e-05  -3.4088182e-04  -3.1963969e-04  -4.3823191e-05  -1.6485940e-04   1.9917758e-04  -2.5121533e-04   5.5567676e-04  -3.6912231e-04  -3.3126079e-04
   1.5368739e-04   6.7113018e-05   1.4659321e-04   2.0153071e-04   7.2200855e-05   8.5201005e-05   1.3300925e-04  -3.3618519e-04  -2.3905408e-04   2.1058691e-04   1.5665201e-04  -9.2447790e-06  -1.2283592e-04   8.2804836e-05   1.0875996e-04  -1.3824541e-04  -1.1794329e-04   2.1219712e-04   2.9400640e-04   3.4269216e-04   2.1720606e-04   1.9951328e-04   3.6495079e-05  -6.7978364e-04  -4.1728551e-04  -4.5987603e-05   2.1459258e-05   3.5852776e-05   3.7622458e-04  -4.8034828e-05  -2.4325917e-03   1.3051278e-04   5.9946242e-04   2.0758336e-04  -7.5594937e-05  -3.4476852e-04   2.6712639e-04   6.7787871e-05  -2.6693984e-05  -1.1944832e-05  -1.1501405e-03  -2.8518215e-04   6.1393069e-04   3.6513447e-05  -6.3121971e-04  -9.8601151e-05  -3.6155965e-04  -2.7489971e-04  -3.7585327e-04  -3.0345123e-04
   1.9123874e-04   6.1821112e-05   1.1828173e-04   1.5212354e-04   1.8102718e-04   3.0770974e-05   3.4213615e-05  -2.6507765e-05   1.6192565e-05   2.1457144e-04   7.7925215e-05   6.0425104e-05  -1.6805853e-04   5.8626254e-05  -3.4414443e-05   1.5544461e-04  -2.3358836e-04  -2.5458021e-05  -3.5870876e-04   1.9883842e-04   2.2853397e-04   1.1455156e-04   2.7485602e-04   2.9943211e-04  -8.2182727e-04  -1.6465833e-04  -6.9917573e-06  -1.9751975e-04   2.4298051e-05  -4.9681126e-05  -1.1295890e-03  -5.0216331e-04   3.8113145e-04   2.5257081e-04  -4.2836655e-05   1.3831090e-04  -2.5982336e-05   6.1723117e-06  -4.5656325e-05  -1.2790400e-04   2.1583861e-04  -2.0276074e-04  -5.8791734e-04   2.0362930e-05  -8.6186665e-05  -3.7607722e-04  -2.7210667e-04  -7.9892535e-04  -2.6006385e-04  -2.2679579e-04
   5.7975627e-05   4.8290211e-05   1.8419699e-04   1.1709012e-04  -1.8857887e-05  -8.1079606e-06   1.1199687e-04  -1.7568473e-05   4.7815924e-05   1.5177668e-04   1.4523318e-04  -1.3430958e-04  -9.5704709e-05   9.4533563e-05   4.7375110e-05   3.2503676e-04   2.6671987e-05  -1.5214033e-04  -2.7054618e-04   2.7822476e-04   2.1437119e-04   6.5672772e-05   5.8354999e-05   3.4624347e-04  -9.8022597e-04  -1.1357733e-05  -1.7766017e-05   1.6608350e-04  -2.1572744e-04  -6.1374783e-05  -3.7849374e-04   2.1156828e-05   1.1009783e-03   4.3166761e-05  -2.0078549e-05  -4.8215315e-04  -3.0678802e-04  -8.8141041e-06  -9.0759320e-05   8.1633370e-05  -1.7895710e-04  -2.2486222e-04  -1.4436395e-04  -1.7855353e-05  -9.2102186e-04   1.4260363e-04  -3.1924224e-04  -1.3531755e-03  -2.5145028e-04  -2.4612836e-04
   2.1656881e-04   3.3941506e-05   1.0573159e-04   8.5014464e-05   1.2495162e-04   1.5985132e-04   2.7574485e-04   1.8005222e-04  -7.9631864e-04   1.7504320e-04   1.4540894e-04  -1.6680636e-04  -1.5793320e-04   7.7563476e-05   2.0703099e-04  -9.9244106e-05   2.2002874e-05  -4.3636523e-04  -1.0782045e-03   2.6986495e-04   2.1852220e-04   1.8614861e-04   6.1484636e-04  -1.6366977e-03  -7.6401404e-05  -1.7822775e-04   8.6484113e-05  -2.9887605e-04   8.0013495e-05  -5.1989209e-05  -6.3074287e-04   2.3243474e-05   3.5197844e-04  -8.8243025e-05  -6.4515385e-05  -4.2690564e-04   2.1380009e-04  -3.7743856e-05   1.5974189e-04   1.7227045e-05   2.4116968e-04  -1.0359840e-04  -4.4397777e-04  -9.4434974e-05  -3.4216259e-04  -2.2650139e-04  -2.3858307e-04  -5.0831976e-04  -1.1272368e-04  -3.2578464e-04
   1.0240272e-04   5.9149519e-05   2.0014888e-04   6.5732886e-05   2.2847178e-04   1.7090293e-04   2.5790263e-04   4.4364290e-04   6.1155198e-04   1.9422734e-04   1.7262279e-04   9.6727825e-05  -1.1936061e-04   9.1258509e-05  -1.8525717e-04   3.3013106e-04  -7.5436699e-05  -3.7907358e-04  -8.1450515e-04   1.7240904e-04   2.2665666e-04   2.2575371e-04  -5.3557917e-04  -7.8034052e-04   5.7493430e-04  -4.4282577e-05   3.2955832e-05  -3.0448018e-05   5.9860409e-04  -4.9002108e-05  -1.5427156e-03   7.0093462e-04   7.5618119e-04  -2.5453613e-04  -6.8750625e-05  -5.3701892e-06   2.9863550e-05  -1.2659130e-05   1.0703479e-04  -2.3632057e-04   4.1752990e-04  -1.8999165e-04  -1.2206615e-04  -2.5505844e-05   1.8639069e-04   1.8035863e-04  -2.4638997e-04  -8.9409231e-04  -1.8780642e-04  -1.7930724e-04
   1.2384748e-04   5.5995642e-05   1.6384227e-04   1.9232708e-04  -1.5666627e-04   3.5250173e-06   8.8918903e-05   2.4937178e-04  -5.2508258e-04   2.3084375e-04   1.7019342e-04  -1.0213597e-05  -1.7149039e-04   4.8557893e-05   4.0883498e-04   1.3696845e-04  -1.1683018e-04   3.0073908e-05   3.1775071e-05  -2.5863451e-04   2.3023869e-04   1.7295311e-04   1.3972498e-05  -1.4990065e-03   4.7103714e-04  -2.6990319e-05  -1.3390483e-04   5.3461979e-04   4.2896718e-05  -4.9116603e-05  -8.6318742e-04   4.0742269e-04  -8.5551706e-05   4.5748417e-05  -9.5266529e-05  -2.7120934e-04  -1.9330779e-04   6.9808462e-05   3.3494671e-05  -1.8584548e-04  -8.5788162e-04  -1.8811258e-04   1.2754347e-03   4.3765674e-05   1.2824523e-04  -1.8868721e-04  -2.5191309e-04  -7.2172738e-04  -3.1679089e-04  -2.9000771e-04
   1.1797176e-04   5.2513726e-05   9.2668975e-05   1.4322952e-04   1.2508817e-05   1.2057566e-04   1.3789222e-04   3.9993148e-04  -1.6609880e-03   1.8798679e-04   1.7699882e-04  -3.2920365e-05  -1.9922433e-04   5.9380720e-05  -7.4679505e-05   2.7248714e-04  -9.3971285e-05  -8.3298990e-05   8.7834924e-04   2.3009398e-04   2.3333536e-04   2.2297143e-04  -2.1143929e-05  -7.5240998e-04   1.3209969e-03  -1.8175606e-04   6.5563647e-05   1.1092202e-04  -5.9006798e-05  -5.2518280e-05   1.6844088e-03  -7.6039330e-05   2.9656737e-06  -1.1090289e-04   1.7542947e-05  -7.1840128e-05   6.3254542e-05  -2.9926489e-06   6.1131439e-05  -1.5819087e-05  -6.0399086e-04  -5.2517153e-05   6.9281913e-04   2.1329746e-05  -5.0490926e-04  -8.1142192e-05  -2.1938435e-04  -1.0849590e-03  -2.4350650e-04  -2.5828558e-04
   1.2742204e-04   3.8636033e-05   9.3683120e-05   9.9375269e-05  -9.5616466e-05   1.7168661e-04   2.7787898e-04  -4.2499386e-04   4.1956204e-04   2.2042599e-04   1.7663035e-04   8.5626758e-05  -1.3954041e-04   5.5573837e-05   1.9070927e-04   6.6075718e-06  -1.0707996e-04   1.9103225e-05   9.6012495e-04   2.9360660e-04   2.2537688e-04   2.1609961e-04   2.0786536e-04  -2.7708517e-04  -1.8874913e-03  -1.1767406e-04   1.3963406e-05   2.0026168e-04   2.3464342e-04  -4.5259909e-05  -2.3575744e-03  -3.2480599e-04   9.0729292e-05  -9.0698573e-05  -8.2965926e-05   1.9677660e-04  -2.4995570e-05  -7.4355567e-06   5.3483491e-06   9.9165685e-05   2.9922029e-04   4.8463167e-05   7.4410345e-04  -3.3638160e-05   5.9802883e-04  -4.6065336e-04  -1.9505173e-04   1.2574071e-03  -3.0453590e-04  -2.9006851e-04
   1.3776554e-04   6.9650545e-05   5.1821429e-05   5.8480102e-05  -1.8496026e-04   2.8123587e-04   2.9183878e-04  -1.0198594e-06   4.8435217e-05   1.9830349e-04   1.9908059e-04  -1.3642579e-04  -1.2891588e-04   2.7055354e-05  -1.2323901e-04   1.1383189e-04  -1.8502737e-05  -7.5071497e-05  -5.5950816e-04  -2.7779632e-05   2.4073094e-04   1.3910116e-04  -4.5015733e-04   1.8142762e-04  -6.3129008e-04  -1.3072647e-05   4.2842774e-05   1.4441442e-05  -2.1312375e-05  -6.5518594e-05   2.9595691e-04  -3.8261621e-04  -1.6355829e-04  -1.1592169e-05  -3.6758142e-05  -1.6346654e-04  -1.1493245e-04  -5.6018780e-05   1.4126459e-04  -1.6221582e-04   2.5036189e-04  -2.0567434e-04  -2.5925564e-04  -1.1035183e-04  -9.3556509e-06  -5.2123255e-04  -1.8003739e-04  -8.6369790e-04  -3.1040254e-04  -2.2987860e-04
   3.0701887e-04   6.2298015e-05   2.6627060e-04   1.7757954e-04   2.0228005e-04   1.4068828e-04   3.3688638e-04  -5.7940697e-04   2.1797407e-05   2.1524880e-04   1.9971588e-04   4.6388948e-05  -1.4049550e-04   5.4069562e-05   3.3403281e-04   1.2079384e-04   7.0597815e-07   1.8945734e-04   4.6043191e-04   3.0127147e-04   2.5591068e-04   2.6898584e-04  -3.4929736e-04   9.3103503e-04  -2.3757938e-04   7.4080213e-05   9.1233371e-05  -5.6317404e-06   4.4708824e-04  -5.7669760e-05   1.2848451e-03   2.9721958e-04  -6.5042957e-05  -7.0600814e-05  -1.3714291e-04  -1.2138644e-04   2.0637443e-04   2.9507095e-05  -7.3124684e-05  -2.9048513e-04   8.0826093e-04  -1.4315925e-04  -2.2473632e-04  -8.5718108e-05   6.9893245e-04  -4.2677997e-04  -1.7144355e-04  -1.9310936e-04  -1.7108643e-04  -1.9544468e-04
   3.5046836e-04   6.4565320e-05   2.4172505e-04   1.5840775e-04   1.2224838e-04   1.3937757e-04   2.6434319e-04   1.8941423e-04   7.7420293e-04   2.4175576e-04   2.0950772e-04   7.3764029e-05  -1.7579639e-04   2.8936840e-05  -3.4980703e-04   1.8378218e-05  -5.5562166e-05   9.9890829e-05  -6.6902267e-04   3.1161475e-05   2.7900390e-04   2.1848864e-04  -2.2584424e-04   1.6384003e-03   8.7532203e-04  -4.4796307e-06  -3.6223362e-05  -3.9680506e-04   2.0836404e-04  -7.5817108e-05  -1.1491727e-03  -2.4487622e-06   1.6601074e-04  -2.2648182e-04   5.8741934e-06   3.6502912e-04   7.6920651e-06  -5.4956112e-05  -2.3487435e-05   1.0517637e-04   1.1846966e-03   4.2757623e-05  -4.3341715e-04  -5.2749539e-05  -3.3650894e-04  -6.1813866e-05  -1.8089318e-04   1.2353294e-03  -3.1259091e-04  -2.7374103e-04
   2.3588596e-04   7.7715507e-05   2.8654659e-04   1.3509762e-04   6.2818021e-05   2.1016426e-04   2.4187261e-04   8.9404784e-05   3.3191146e-04   2.0364254e-04   1.8963414e-04   4.4821776e-05  -2.6300972e-04   6.6564695e-05  -2.7707673e-04   1.2828760e-04  -8.5313543e-05   6.2382176e-05  -1.8764337e-04   2.1283375e-04   2.8325533e-04   2.7852759e-04  -5.8754825e-04   1.6374310e-03   3.8934591e-05   5.5001488e-05  -4.1369251e-05  -7.0161914e-05  -1.5987614e-04  -8.1033504e-05   1.5040076e-03   6.2495476e-04   7.8569062e-04   1.4312914e-05  -4.2609037e-05  -1.9110260e-04  -1.9664771e-04   2.2891581e-05  -1.8389779e-05   5.6542391e-05   2.8868025e-04  -9.7271433e-05   5.3255010e-04  -5.6054418e-05   3.3554650e-04  -5.3127675e-04  -1.3677638e-04  -3.1867050e-04  -2.5521664e-04  -3.1957583e-04
   2.4468836e-04   1.1097454e-04   6.5040047e-05   7.0949143e-05   1.8102852e-04   3.6839242e-04   2.2555697e-04   2.8317951e-04  -1.5377062e-05   2.2681484e-04   2.3589467e-04  -3.5328245e-05  -2.2383695e-04   4.5943612e-05  -1.6187468e-04   8.4261890e-05  -1.6592639e-04   2.5038072e-04   1.2167890e-03   3.0301738e-04   3.1564455e-04   3.0986322e-04  -1.3563017e-04   2.9219087e-04  -1.5914631e-03  -3.7494512e-05   5.9360143e-05  -2.8891644e-05   4.1010504e-04  -7.1106151e-05  -7.8927539e-04   6.8165376e-05   1.3077231e-05  -1.1156293e-04  -1.0143708e-04   1.4858721e-05  -1.5915658e-04  -5.0447132e-05  -6.0393089e-05   8.7749075e-05  -1.8485960e-04  -1.5578300e-04   6.1911577e-04  -5.6342218e-05   2.5448937e-04  -4.1363836e-04  -8.8811124e-05   6.3652592e-04  -2.2912300e-04  -3.0495771e-04
   2.2769751e-04   6.3443331e-05   3.0481424e-05   1.5612120e-04   3.3353979e-04   3.7855512e-04   1.6654791e-04  -6.8643934e-04  -2.6464626e-05   2.5766311e-04   2.8345233e-04   3.0105321e-05  -2.5935925e-04   5.0757957e-05   4.0887398e-04   2.6155318e-04  -2.5864382e-04  -1.8537750e-05   5.0159486e-04   1.3709468e-04   3.0097162e-04   2.8942150e-04  -1.8305356e-04  -4.1968652e-04  -2.2264985e-04  -1.7783596e-04   6.1762417e-05  -7.1588904e-05   9.9035162e-05  -7.0877839e-05   9.7815273e-04  -5.5248797e-04   6.1888527e-04  -2.0437954e-04  -3.3581287e-05  -3.5387115e-05  -7.2484014e-05   1.9242600e-05   1.2661960e-04  -5.5927798e-05   2.5384263e-05   6.6498294e-05  -2.9313032e-04  -9.2340691e-05  -3.3033430e-04   7.7980309e-05  -9.0186521e-05   6.3139794e-04  -1.3270571e-04  -3.6711505e-04
   1.6802952e-04   7.0122282e-05   1.6465462e-04   1.4831478e-04  -1.8110817e-04   2.6935365e-04   2.5810685e-04  -3.6267720e-05  -3.0164118e-05   2.5374931e-04   2.0917923e-04   1.2166554e-04  -2.3820421e-04  -2.9687237e-05   1.7169875e-04   9.0990943e-05  -2.6623416e-04   1.5710163e-04  -2.4990967e-04  -1.2242033e-04   3.0404702e-04   2.9702470e-04  -2.0090962e-04   1.2022905e-04   1.2604959e-03  -1.0594210e-04   2.7568533e-06  -2.1948405e-04  -7.7138579e-04  -7.8179139e-05   6.3849316e-04  -1.1642636e-03   3.8149799e-04  -9.2794398e-05  -7.6456156e-05  -3.1807477e-04   1.8134128e-04   4.9793078e-07   1.1278148e-04  -9.0054913e-05  -8.6163083e-04  -2.4887595e-05  -2.0935053e-04  -1.1438015e-04   7.4513099e-04  -1.6904855e-04  -7.8063713e-05  -2.5588548e-04  -1.6632193e-04  -3.4188663e-04
   2.1561881e-04   9.3690811e-05   2.5093483e-04   1.3663556e-04   2.0128000e-04   2.9473513e-04   3.1472585e-04   3.8757240e-05  -1.7368692e-04   2.3439070e-04   2.3829023e-04   4.7845620e-05  -2.1793428e-04   2.2038743e-05  -6.1098958e-06   1.7201588e-04  -2.7419199e-05   2.3112682e-04   7.4091775e-04   2.4110891e-04   2.9074049e-04   3.2902259e-04   1.6058839e-04  -1.3969928e-03  -1.4102753e-03  -5.1920444e-05  -7.9040037e-05  -1.1943683e-04   4.0997504e-05  -8.6445631e-05  -8.9552009e-04  -2.2168386e-05  -5.4181699e-04   2.1889302e-05  -1.1899547e-04   4.8841565e-04  -2.1605518e-04  -5.0802966e-05  -2.9745079e-05  -4.7237801e-04  -5.1254837e-04   8.4587817e-05  -4.2884366e-04  -2.0944684e-05   8.6605709e-05  -6.5767854e-05  -7.2667906e-05  -6.4788823e-04  -2.3856596e-04  -3.1380836e-04
   2.5589517e-04   8.5856431e-05   2.4121541e-04   6.8001726e-05   2.3004708e-04   5.0581992e-04   4.5032278e-04   3.6447146e-04   3.3917004e-04   2.2745988e-04   2.3875294e-04   1.0646676e-05  -2.3608161e-04  -1.7003407e-05  -4.1141000e-05  -1.2126120e-04  -1.8706876e-04   1.4013631e-04  -8.8633620e-05   4.4351319e-04   2.8347570e-04   2.4373502e-04  -2.1642244e-04  -1.0839627e-03   1.5405595e-03  -2.8576906e-04  -1.5881262e-05  -5.3036964e-04  -4.5351448e-04  -8.8431945e-05  -2.6674467e-04   9.5793599e-04   3.6002841e-04   1.3653461e-05  -8.2731194e-06  -1.8504908e-04  -3.8032822e-04  -3.9534174e-05  -5.0112900e-05  -3.2887424e-04  -4.3171147e-04  -4.5787252e-05  -4.0908792e-04  -7.3342242e-05   6.2623632e-04  -4.4378225e-04  -1.2876160e-04   1.6755064e-04  -1.5886893e-04  -3.3834201e-04
   2.4072909e-04   7.5586991e-05   2.3092065e-04   1.4426907e-04   1.4359200e-04   2.9220924e-04   4.2784674e-04   2.5838931e-04   5.2546675e-04   2.7469630e-04   1.1407452e-04   3.9069277e-05  -2.7088518e-04  -3.1025844e-05  -1.4911598e-04   4.2890952e-04  -3.9078452e-04  -4.8469527e-05   5.8070809e-04   2.3402752e-04   2.9585272e-04   3.1973806e-04  -3.8761864e-04  -2.0560133e-04   1.4550805e-03  -1.2911115e-04   5.4197128e-05   4.9025384e-05   5.3160312e-04  -7.1477596e-05   1.5221094e-04   4.5315898e-04   5.1051372e-04  -2.3290372e-04  -1.0522422e-05  -4.2645657e-04  -3.3546905e-05  -1.7361093e-05   2.0954054e-05   4.3167511e-04  -1.8417336e-04  -4.4915552e-05   6.3488202e-04  -1.3465809e-05   7.1486495e-05   3.6504416e-04  -1.4471513e-04   6.6385837e-04  -1.3049698e-04  -3.6875470e-04
   3.0003357e-04   1.2074060e-04   2.2943484e-04   1.6084051e-04   6.1968225e-05   2.7239841e-04   3.8844996e-04   4.9101404e-04  -2.3277497e-04   1.9791072e-04   1.5032628e-04  -1.2302968e-04  -2.1516110e-04  -2.0140473e-05   1.2034501e-04   2.4559576e-04  -2.3591649e-05  -2.5544633e-04   5.6594645e-04  -8.9165616e-05   2.6468240e-04   2.5557738e-04   5.8607071e-05  -1.4987102e-04  -2.6260663e-04  -1.7697227e-04  -3.4026736e-05  -1.6945746e-04  -1.1654332e-05  -7.4633681e-05   3.3264209e-03  -2.0841080e-04   5.2744577e-05  -8.6326072e-05  -6.1545434e-05  -1.4832102e-04  -2.2737325e-04  -2.5752948e-05   5.4649510e-05   3.5642341e-05   3.2342842e-04  -8.8981717e-05   7.0683076e-05   1.7341747e-05  -5.4177543e-04  -1.3621105e-04  -1.4637713e-04   1.2385848e-04  -1.2142462e-04  -2.1998523e-04
   1.6387858e-04   7.4802585e-05   1.8135141e-04   1.1558471e-04   2.8638929e-04   2.4621162e-04   2.2986934e-04   4.7335774e-04   1.0631271e-04   2.3414404e-04   1.4749057e-04  -7.9743026e-05  -2.4791545e-04  -1.3254476e-05   3.7432351e-04   1.3835674e-04  -6.1905295e-05   2.5103579e-04   8.4843353e-04   2.6402110e-04   2.5483957e-04   2.8017815e-04  -2.4479168e-04  -5.2664900e-04  -1.0328102e-03  -2.5689900e-05  -4.8995371e-06   5.3464606e-05  -4.9388167e-05  -8.9571629e-05   1.8167708e-03  -1.0339532e-04   3.4443062e-04  -1.8548565e-04  -5.6725516e-05  -4.7185749e-04   1.6804221e-04  -1.5404647e-05   3.4979691e-06  -1.0935901e-04  -9.9266425e-04  -1.1797241e-04   4.4640058e-04  -1.0790062e-04   1.1774344e-04  -5.5758754e-04  -1.3936365e-04  -9.0626627e-04  -9.5479016e-05  -1.9767243e-04
   2.6401220e-04   5.5947810e-05   8.4368119e-05   6.1420840e-05   2.3032546e-05   5.1948952e-04   1.4875607e-04   5.5690872e-04  -3.1542178e-04   2.1618162e-04   8.1318780e-05   4.8704693e-05  -1.4896935e-04   2.8882296e-05   3.0535017e-04   8.1354147e-04  -7.7846184e-05  -8.8088971e-05   6.4658636e-04   2.1595736e-04   2.3623534e-04   1.0600446e-04   2.0832958e-04   7.9058547e-04  -9.2350051e-04  -7.0408038e-05  -1.0098695e-04  -4.0920562e-04   6.3579489e-04  -4.6388395e-05   4.9005460e-04  -8.9638261e-04  -1.8933602e-04   7.9486395e-05   1.0369939e-05   3.1013993e-04  -1.5740012e-04   1.1009194e-05   4.4277513e-05  -1.3355754e-05   3.0343165e-04  -7.2951021e-05  -2.9321111e-04  -2.0545092e-05  -6.3276332e-04  -1.7704782e-05  -1.0800338e-04  -7.2929548e-04  -1.3836740e-05  -2.8635177e-04
   2.1774338e-04   4.3273601e-05   1.4695199e-04   1.1091582e-04   2.5179243e-04   3.8549973e-04   4.0057121e-04  -1.8519041e-04   3.5756666e-04   2.0933086e-04   1.4385053e-04  -7.0164708e-05  -1.3456320e-04  -6.1654908e-05   7.8146091e-05  -2.0309679e-04  -1.5047107e-04   2.0465869e-04  -6.2288568e-06   2.9939998e-04   2.2680554e-04   2.6247514e-04  -3.9728294e-04  -1.1412916e-03  -7.4581942e-04   6.1277674e-06   3.9041588e-05  -7.4913391e-05  -4.4061926e-05  -6.1655461e-05   3.5793998e-04  -1.7797742e-04   6.9426483e-04   2.7946258e-04  -1.0626970e-04  -1.8992853e-04  -2.2844251e-04   1.0410619e-05   7.9630605e-05  -2.5050127e-04   5.4468997e-05   5.9553007e-05   2.9224489e-04  -5.1686588e-05  -2.3625011e-05  -7.8506382e-05  -1.4976863e-04  -5.2166270e-04  -1.8063722e-04  -2.6502705e-04
   1.8471436e-04   7.0275128e-05   3.3836320e-04   1.2463178e-04  -7.6821481e-05   2.6943683e-04   3.1066293e-04   2.0274855e-04   7.8137091e-05   1.7066096e-04   9.5359697e-05   2.8788891e-05  -2.3974867e-04  -3.9227642e-05   4.6714925e-04   7.8572892e-05  -2.0448645e-04   1.9370913e-04   5.3014053e-04   2.6223395e-04   2.0068216e-04   1.6212788e-04  -1.7786774e-04   1.4026220e-03  -2.7411315e-04   4.9635128e-05  -5.2316580e-05  -2.5084204e-04  -2.0702914e-04  -6.7653185e-05  -8.7131927e-04  -3.8920052e-04   2.5895768e-04   1.9937928e-05   1.6519683e-05   1.4871413e-04   2.0451828e-04   9.1443117e-06  -9.2357499e-05  -1.6936437e-04   2.9489092e-04   3.1667802e-05   3.7788635e-04  -7.6426404e-05  -2.2075528e-04  -1.8606911e-04  -1.7184261e-04  -7.3013088e-04  -7.3708354e-05  -2.7313337e-04
   2.2985564e-04   6.3308398e-05   1.0403718e-04   1.2346311e-04   5.6770372e-05   3.8040947e-04   4.8965303e-04   1.5503135e-04  -4.2562719e-04   1.4135794e-04   6.3958556e-05   4.6724319e-05  -1.1487643e-04  -1.9807465e-05   1.0046923e-05   2.4424482e-04   1.0816736e-05   6.7039409e-06   2.4099925e-03   5.7884296e-05   2.1056965e-04   2.6215697e-04  -2.5210020e-04  -1.4381426e-03   5.0169416e-05  -1.0051246e-04   9.0119302e-06   1.4317754e-05  -9.9816265e-05  -5.5406694e-05  -8.1318390e-04   1.1669166e-03   7.9072430e-04  -4.2869036e-05  -3.6848091e-05  -3.7778856e-04   1.6356185e-05   4.3351254e-05   2.1227378e-04  -2.6695145e-04  -1.6404748e-04   1.7953200e-04   2.3627069e-04  -5.3577598e-05  -5.7042369e-05  -1.6710327e-04  -1.6426005e-04   9.7232056e-05  -1.3175973e-04  -2.1367994e-04
   1.9497114e-04   8.2815190e-05   2.7590260e-04   6.2203544e-05  -9.1313932e-06   2.2185929e-04   5.0674604e-05   7.1558607e-05  -7.7130506e-04   1.9294585e-04  -3.8770901e-05  -1.1657389e-04  -1.6840166e-04   3.0783660e-05   3.5150279e-04   1.6559441e-04  -1.3926651e-04  -3.5062334e-05   9.8024495e-04   2.6951768e-04   1.9447299e-04   1.8252537e-04  -2.7521417e-04  -1.1300698e-03  -2.7607926e-04  -2.8596591e-04  -3.7894526e-05   1.6238644e-04  -2.0801242e-04  -6.3985841e-05   9.2554936e-04  -3.9851989e-04  -4.5838376e-04   2.0575000e-04  -4.3632488e-05   2.7627340e-05   6.8720401e-05  -4.2780462e-06  -4.6295568e-06   1.9570826e-04  -7.7642984e-04  -1.1073353e-04   8.5347280e-04   2.0867137e-05   2.0249928e-03   2.7698188e-04  -1.5162630e-04   2.1813268e-05  -2.0259718e-04  -1.5197549e-04
   3.9796348e-04   8.2773309e-05   3.0591135e-04   7.3146890e-05  -1.9133162e-04   3.0400662e-04   3.6301787e-04   4.5228784e-04  -2.5077435e-04   1.2700593e-04   1.0123076e-04   8.5367181e-05  -1.7786684e-04   1.8946119e-05   7.3715644e-05  -1.3788768e-04  -1.5945501e-04   1.6364908e-04   6.5685651e-04  -8.3025297e-05   1.8969075e-04   1.3151768e-04  -4.3035683e-04   6.9179182e-04   1.0387808e-04   2.0616267e-04  -4.1864103e-05  -1.9464165e-04  -3.4927929e-04  -5.3428575e-05   1.7816037e-03  -1.9233169e-04   5.1296298e-05  -1.1958396e-04  -1.5436071e-04  -6.1641086e-04   3.1566145e-05   1.6620825e-05  -2.5352102e-04   8.9105539e-05   2.3630723e-04   1.1051023e-05   2.9620959e-04   1.2067598e-04   1.1675009e-04  -3.1348635e-04  -1.1430189e-04  -4.1942266e-04  -1.7374064e-04  -2.3437061e-04
   4.3977704e-04   5.3695749e-05   1.8942650e-04   1.1368638e-04  -2.4921104e-04   2.8912735e-04   2.0737157e-04  -2.7872004e-05  -3.8799638e-04   1.4556832e-04   2.0118559e-05  -6.1531964e-06  -1.5943657e-04   2.3792232e-05   2.9307936e-04   2.5018366e-04  -1.8266850e-04  -1.4503064e-04   1.4911046e-03   9.4673262e-05   1.9757354e-04   1.4684364e-04  -4.4036523e-04   2.8674601e-04  -8.6878950e-04  -4.4696739e-05   3.4072782e-05  -1.3342101e-04   7.3887801e-05  -6.1081613e-05  -1.7670745e-03  -6.8048260e-04   5.5391859e-04   2.8637148e-06  -5.1226725e-05   9.0272901e-05  -2.1764559e-04  -2.5147572e-06  -1.0068075e-04  -1.8303019e-04  -7.7892235e-04   1.0577698e-04   3.7584503e-04  -1.5539201e-05   6.3590618e-04   4.4175683e-04  -1.7135385e-04   2.0570733e-04  -1.4551976e-04  -2.0656765e-04
   3.1181448e-04   1.1407243e-04   1.4768711e-04   8.1121878e-05   5.7205343e-05   3.9062818e-04   1.6983721e-06   8.4678200e-04  -8.5056730e-04   1.3796819e-04   8.5531174e-06  -8.8644418e-05  -1.9744645e-04   7.4744753e-06   1.6074184e-04  -6.0803904e-05  -1.8486961e-04   7.4447991e-05   1.1269944e-03   1.9032962e-04   1.7836549e-04   2.0810122e-04  -7.5066515e-04   4.8496341e-04  -6.2706438e-04  -2.5187086e-04   7.7314333e-05   6.5271961e-05   9.8462595e-05  -6.4175336e-05  -1.8145518e-03   4.5294163e-04   9.9524477e-06   1.0293468e-04  -5.9060021e-05  -3.3957322e-04  -1.5499110e-04   6.3778920e-05   6.1984887e-05  -1.7623945e-04  -6.8211753e-04  -8.3678369e-06  -3.7926971e-04  -3.7179278e-05   2.2073592e-04   1.0056706e-04  -1.4952512e-04   1.3436989e-03  -2.1850363e-04  -8.7169079e-05
   2.1393673e-04   7.4690397e-05   1.5425585e-04   1.0843528e-04   1.1662214e-05   2.1342999e-04   2.8774855e-04   5.1279105e-05   2.1452601e-04   1.0446338e-04  -9.7480997e-06  -3.4630698e-06  -1.6464882e-04   2.0291047e-05  -3.5844176e-04   5.5273242e-05  -1.7470022e-04   1.2256738e-04  -1.4744414e-03   1.9809385e-04   1.6794336e-04   1.7514674e-04  -1.0284354e-04  -8.1031927e-04  -2.8208524e-04  -2.0767360e-04  -2.3772156e-05  -2.0533441e-04   8.0420308e-05  -5.5410721e-05   3.9938465e-03   8.9255132e-04   1.3384601e-04  -1.6727827e-04  -5.5567802e-05   3.9318133e-05  -5.0408303e-06  -4.5739700e-05   1.7132204e-04   1.7881264e-04  -6.8800949e-04   4.5476445e-05   7.2394911e-04   1.3709924e-04   3.5845293e-04   2.4028108e-04  -6.7587163e-05  -8.4600569e-04  -2.0764497e-04  -2.6290733e-04
   3.1615890e-04   9.5956522e-05   2.9873120e-04   1.6107476e-04  -6.3525717e-06   6.4432359e-05   2.3122279e-04   4.9446494e-04  -6.6093088e-04   1.3860886e-04   4.4090983e-05   5.7533656e-05  -2.4994253e-04   5.6854598e-05   5.4511591e-05  -8.9929927e-05  -6.5705535e-05  -3.1165453e-04  -3.2430785e-04   1.9836935e-04   2.0230671e-04   2.8670178e-04  -3.1102981e-04   8.5433776e-04   5.2838679e-04  -4.6849073e-06  -2.4224507e-06  -3.6463953e-04  -2.8581612e-04  -6.1725033e-05  -1.5303155e-03  -4.2428265e-04  -1.1996434e-04  -4.5355038e-05  -6.4435560e-05   2.9346667e-04  -3.0360476e-04  -1.8795758e-05   6.8004833e-06  -3.7086310e-04  -1.7481791e-04   6.6796485e-05  -7.6549122e-04  -6.9722635e-05  -5.5953569e-06  -1.8242675e-04  -1.4324268e-04  -1.9023061e-04  -1.4702749e-05  -2.0399947e-04
   2.1167184e-04   5.3042208e-05   3.3349849e-04   1.5411753e-04   4.3099312e-06   9.5959535e-05   1.7640313e-04  -4.3382432e-04  -4.1234808e-04   1.1377196e-04  -8.1076296e-06  -3.9963263e-05  -1.8976604e-04   2.8638506e-05   6.9501650e-05   9.4006878e-05  -7.0648821e-05   1.2407312e-05  -5.0466537e-04  -4.0226735e-04   1.6965723e-04   1.8645072e-04  -4.6316607e-04  -2.8339805e-04  -1.1979094e-03  -2.4226113e-04  -7.8897494e-05  -2.3409360e-04  -8.6340158e-05  -6.9375448e-05   5.6406693e-04   6.6615804e-04  -1.4174306e-04  -8.0649981e-05  -9.9792465e-05  -1.3855349e-04   3.5186999e-06  -8.3831699e-05   1.2643510e-05  -2.0567115e-04  -1.0156647e-04  -5.4309181e-05  -2.2540927e-04  -3.1732754e-05   5.6233752e-04  -9.6507662e-05  -1.6193913e-04  -9.7923807e-04  -2.7838748e-04  -1.3226598e-04
   2.0372400e-04   9.7022130e-05   9.2331640e-05   8.4867781e-05  -1.4518091e-04   2.8953218e-04   1.3621188e-04  -9.2167167e-05  -4.4598334e-04   8.1539649e-05  -1.5773041e-05  -1.2740913e-04  -1.7530051e-04   3.6604000e-05   4.3297530e-04   1.8698370e-04  -1.5919909e-04   2.1659548e-04  -2.1262600e-05   2.7849182e-04   1.7232887e-04   1.2977282e-04  -2.7440727e-04   2.3859013e-03   8.2147663e-04  -1.4938379e-04   5.8997452e-05  -6.1246392e-05  -2.0842786e-05  -7.2104209e-05   3.4889526e-05  -5.1860197e-04  -2.3606175e-04  -8.0973245e-05  -6.6436303e-05  -1.7050652e-04  -1.6098851e-04  -6.3658765e-05   2.5037263e-04  -1.5000308e-04  -4.0048582e-04  -2.1331767e-05  -5.5653311e-04  -1.0639348e-04  -1.4948818e-05   1.9260086e-04  -1.0989765e-04  -7.4860459e-04  -3.5494467e-04  -2.1949013e-04
   2.7907986e-04   5.5884047e-05   2.1843062e-04   5.9251022e-05   2.9806880e-04   3.4940982e-04   5.4931280e-04   7.0214912e-04   5.4972270e-04   1.1309250e-04  -3.7182141e-05  -6.0353384e-05  -1.2057184e-04  -1.0844788e-05   3.0985510e-04   1.7511591e-04  -1.7345077e-04   6.9170266e-05   3.0874152e-04   3.2651547e-04   1.5236773e-04   1.6080357e-04  -6.1816674e-05   2.9128558e-05  -1.3255280e-04  -1.0731386e-04   2.2070346e-05  -2.3564936e-04  -5.3531729e-04  -5.2994168e-05   2.7158877e-03  -6.9867290e-04   3.3643405e-04  -1.4068677e-04  -2.0282713e-04  -1.6283721e-04  -1.3855279e-05  -4.8885086e-05   2.5794134e-04  -1.4970843e-04  -1.0309361e-03   1.1897528e-04  -1.8603788e-04   4.5814984e-05  -1.0202263e-04   2.3763176e-04  -1.2061166e-04   7.6318299e-04  -2.2419983e-04  -1.1775080e-04
   2.7592789e-04   8.1440849e-05   2.0629486e-04   1.6672642e-04   6.4466076e-05   1.4634350e-04   1.5809634e-04  -1.9845781e-04   1.0874730e-05   9.3166906e-05  -4.4691424e-05  -6.2816463e-05  -2.5252940e-04   1.6158863e-05  -1.7537508e-04   2.0541016e-05  -1.0367551e-04  -4.0778912e-05   1.1871068e-03   5.4227654e-04   1.5261312e-04   1.7920446e-04  -5.0796318e-04   3.7331929e-04  -2.4274652e-04  -5.8514408e-05   5.5535576e-05   1.9209972e-04  -5.2055573e-05  -8.6931614e-05   2.1970049e-03   9.4907323e-04   3.8568486e-04   5.6996825e-05  -5.9323018e-05  -7.0615701e-04   4.1076608e-05  -6.0310034e-05   4.4233228e-05  -9.2928829e-05  -2.9027674e-04   7.5848286e-05  -1.2694353e-04  -5.5353074e-05  -2.1271308e-06   1.9199058e-05  -1.9425036e-04   4.5600955e-04  -3.5001192e-04  -8.8787805e-05
   1.4361276e-04   8.6951273e-05   2.3125840e-04   1.0506294e-04  -9.1718954e-05   4.6009973e-06   2.3905395e-05  -2.8997465e-04  -5.0410948e-04   1.1816534e-04  -5.9606162e-05  -3.6795260e-05  -2.0455586e-04   1.8422021e-05   2.6763466e-04  -1.3310504e-04   3.0261046e-05  -2.4582981e-05   1.0430490e-04   2.3980382e-04   1.4550565e-04   9.5595860e-05  -2.2799538e-04  -5.0001714e-04   5.5725628e-04   5.6826499e-05  -3.9810373e-05  -2.0645093e-04  -3.7317289e-04  -7.2775423e-05  -1.7876753e-03   1.4851634e-04  -1.2409479e-04  -2.3255197e-04  -8.3884815e-06  -1.9664109e-04  -5.2514057e-05  -3.6257374e-05  -2.1914282e-04  -9.6525673e-06   1.7869123e-04   8.0723679e-05   1.6496606e-03  -9.5070944e-05   9.9997805e-04   2.2539659e-04  -1.5433617e-04  -7.9906970e-04  -1.9116286e-04  -2.1461482e-04
   1.0646628e-04   4.3878703e-05   3.3960783e-05   9.2681141e-05  -7.6772551e-05   6.0801180e-05   9.4675896e-05   3.9128441e-05   2.4967798e-04   8.9340778e-05  -1.0865558e-04  -2.3647163e-04  -2.3943726e-04   4.0218591e-05  -1.1461455e-04   2.0719558e-04  -1.4643579e-04  -2.3966339e-04   2.0502332e-04  -6.3332700e-06   1.5503458e-04   1.7064913e-04   3.2170650e-04   2.1101034e-03  -9.2541112e-04  -6.8845737e-05   8.7661201e-06  -6.1487008e-05   2.9265097e-05  -6.6414977e-05  -1.7064567e-05   3.0640321e-04   3.0880183e-04  -1.5757061e-04  -6.2521933e-05  -2.1854107e-04   1.2716207e-04  -5.5965524e-05  -7.7514756e-05  -1.8115566e-04   6.4937012e-05   6.9656766e-05   4.6616766e-04  -1.1096754e-04   3.7939733e-04   9.5219635e-05  -1.6110046e-04  -7.5759849e-04  -6.6357687e-05  -1.5756676e-04
   2.0545178e-04   6.9569825e-05   1.5264121e-04   7.4500022e-05   3.4365603e-06   1.4238023e-04   2.8911381e-04  -2.6689292e-04   2.5434149e-04   1.1140100e-04  -1.3624178e-06  -7.9973077e-05  -2.0788601e-04   6.7059671e-05   2.1425178e-04   9.6691583e-05  -2.0143730e-04   1.4941240e-04  -8.4847867e-05  -4.4065164e-05   1.3269071e-04   1.5182600e-04  -4.7922862e-04  -4.4973148e-04   1.0057238e-03   3.2419503e-05  -2.0002533e-05  -2.7466775e-04  -5.4081075e-04  -8.9310270e-05  -9.4499113e-04  -3.0341779e-04   4.7711388e-04  -1.3812269e-04  -1.5148448e-04   2.3463070e-04  -1.5121330e-05  -5.3122490e-05  -1.6056035e-04  -8.8036839e-05  -3.0372702e-04   8.7608976e-05  -2.4071817e-04   1.3322502e-04  -4.3363889e-05  -1.5210654e-04  -1.0260706e-04   1.2444967e-03  -8.6555578e-05  -1.2622432e-04
   1.5238489e-04   2.9789186e-05   2.6462736e-04   1.2032801e-04  -3.0809294e-06   2.2446150e-06   1.2728033e-04  -1.6764478e-05  -5.3657702e-04   1.1064378e-04  -3.3967808e-06  -1.4487532e-04  -2.6887306e-04   1.4463960e-05   2.7205302e-05  -2.4593936e-04  -8.4123531e-05  -6.7353335e-06  -1.3292507e-04  -8.7442437e-05   1.5909651e-04   1.4644468e-04  -1.7647867e-04  -6.0122903e-04  -5.1107357e-04  -8.0591599e-05  -2.1444366e-05  -2.8136591e-04   4.1606225e-04  -9.4699106e-05   2.7873696e-04   2.5499970e-04   8.6863023e-05   3.0583842e-04  -1.6708781e-04  -2.7751923e-04  -2.6559041e-04  -3.6587640e-05  -2.9671588e-05   9.6236636e-06   5.6616199e-04   2.0615273e-05   3.4042294e-04   2.0924701e-05   3.7573962e-04  -2.5746267e-04  -1.2929473e-04  -1.3123861e-03  -7.3316565e-05  -2.1447928e-04
   1.3150211e-04   3.3208456e-05   1.0277463e-04   1.2589888e-04   2.8661595e-04  -4.6083096e-05   3.3424789e-05   6.0118397e-04   4.3307303e-04   6.8714558e-05  -4.8991529e-05  -1.7608127e-05  -2.3537890e-04  -2.3048655e-05   1.3268333e-04   1.6881742e-04  -3.2305036e-04  -2.6000923e-04  -6.1922503e-04   9.4726674e-05   1.5821523e-04   2.0060848e-04   5.8765025e-05  -1.3124124e-04  -9.7931724e-04  -1.3545787e-04  -7.2034964e-06   8.0601341e-05   3.1181562e-04  -8.4783009e-05  -1.2419503e-03  -5.4407143e-04   1.3538992e-05  -9.2956718e-05  -2.1651121e-04  -7.6289341e-04  -3.6898360e-05  -1.0303898e-04   5.9316193e-05   1.3416407e-04   3.7269131e-04   4.1771700e-06   4.3052511e-04  -9.9379344e-05  -7.6643442e-04   1.6712848e-04  -1.5134607e-04  -4.4996457e-04  -1.4388269e-04  -1.6938367e-04
   6.3549742e-05  -9.9053204e-06   1.4300342e-04   6.9049878e-05  -9.3589057e-05   9.7602142e-06   5.9608450e-05   7.0047699e-04   4.2716175e-04   5.7445970e-05  -9.0625159e-05  -1.5643207e-04  -2.4834738e-04   1.4424274e-05   1.8767206e-04  -2.2421416e-04  -1.8969993e-04  -1.0144629e-04  -6.9930765e-04  -2.4721004e-07   1.5825281e-04   1.8048273e-04  -6.7359250e-04  -1.6140348e-03  -9.7149151e-04   3.7802329e-05   3.4142122e-05  -1.3070688e-05   2.9458731e-04  -8.5695654e-05  -1.1968803e-04  -5.3256581e-04   1.5661052e-04  -8.1123522e-05  -1.1221189e-04   2.2861788e-04  -3.6010411e-04  -7.1911913e-05  -1.9414302e-04  -2.1255498e-04   1.0786778e-03   5.1765026e-05   5.5780873e-04   6.4980677e-06  -2.6799375e-04  -1.0524751e-04  -1.7235505e-04  -1.0982598e-03  -6.5578701e-05  -1.0721332e-04
   1.7889019e-04   1.3568994e-05  -4.9192502e-05   4.0368999e-05   3.6422836e-05   2.2184207e-04   2.9379426e-06  -4.5217178e-04  -5.0220295e-04   4.3094406e-05  -8.8922272e-05  -8.1384627e-05  -2.0893305e-04  -2.8833723e-05  -1.2821057e-04   7.2261919e-06  -4.8987727e-05  -6.8426038e-05   3.2970848e-04  -1.2844679e-04   1.1991752e-04   1.2969117e-04  -1.0553992e-04  -7.5471529e-05  -8.1039470e-04   1.2476642e-04  -4.0462182e-05  -1.9405586e-04   1.5160847e-05  -9.0841961e-05   2.3189337e-04   9.7013323e-04   1.5273172e-04  -1.6576555e-04  -1.3901007e-04   1.2981353e-04  -1.3767999e-04  -9.0991365e-05   2.1490300e-06  -1.0755401e-05   8.2428005e-06  -1.5058527e-04   6.0426319e-05  -1.6057798e-04  -6.9079688e-05   3.7263861e-04  -1.4829509e-04   1.9668056e-04  -1.2220086e-04  -1.8271127e-04
   1.4460422e-04   6.4034366e-06   7.1846916e-05   1.6221774e-04   9.6259413e-05  -9.9315854e-05  -7.4055992e-05  -6.9121270e-05   1.1186552e-03   8.4497937e-05  -1.3563421e-05  -1.7240940e-04  -3.3270096e-04  -3.1107325e-06  -1.1939985e-04  -3.3582430e-04  -2.9101054e-04  -3.7468516e-04   1.9351435e-04   9.3470560e-05   1.4389268e-04   1.2857854e-04  -8.4748481e-06   8.7089994e-04  -8.5389870e-04   1.6371187e-04  -8.1272578e-05  -5.4571300e-04  -1.4515921e-04  -1.0896815e-04   1.1327388e-03  -2.1188003e-04  -7.2107604e-04  -7.4027404e-05  -1.1525714e-04  -5.1386683e-04   3.5591838e-05  -3.1575404e-05   8.8438872e-05  -2.0010587e-04   1.9687202e-04   3.9096889e-05  -2.6214140e-04  -9.8481170e-05  -5.3499785e-04  -3.8570724e-04  -1.0598711e-04   7.6917175e-04  -1.3897927e-04  -1.2899804e-04
   1.7911792e-04   2.2120666e-05   2.1830674e-04   7.1333081e-05  -2.0755194e-04   2.1689593e-05   8.7851105e-05  -1.4716150e-04  -2.3167301e-04   4.0991828e-05  -5.6752797e-05  -1.2368406e-04  -2.7692615e-04  -3.2802531e-05   2.9283174e-05   1.3332443e-04  -7.1415707e-05   2.2734770e-04  -1.6204673e-03  -3.5118361e-04   1.4859835e-04   9.3746035e-05  -9.2196150e-04   8.4828032e-04  -9.2702481e-04   2.3507275e-05   7.4078882e-05  -1.5628162e-04  -8.3747182e-05  -9.9839614e-05   6.4652349e-04  -1.2569914e-05   5.3151732e-04   4.0422801e-05  -2.5764886e-05   5.4010034e-05  -2.4501109e-04  -8.5013606e-05  -7.0411370e-05  -3.0120445e-04  -8.1629492e-04  -4.7459900e-05  -1.8592065e-05  -2.3635532e-04  -2.0240278e-04  -2.2030076e-04  -1.5990045e-04   5.5820751e-04  -1.7709417e-04  -1.5110406e-04
   2.7724853e-04  -5.7666170e-05   8.5370972e-05   5.0059953e-05  -6.7526758e-05  -7.4099000e-05   6.7149893e-05  -4.0990806e-05  -3.7129316e-04   5.4260148e-05  -4.5042420e-05  -2.9718422e-04  -2.4904884e-04  -2.8798449e-05  -4.3498538e-04   1.0172024e-06  -2.2021277e-04   3.4305110e-04   3.6262787e-05   5.9824702e-05   1.2470887e-04   1.2491319e-04  -1.3967278e-05  -1.3819704e-03   1.4409783e-03  -2.5394789e-04  -1.6618463e-06  -1.8650078e-04  -9.5916657e-05  -9.7362128e-05  -7.4274163e-04  -2.5529243e-04   6.5897611e-06   2.3620475e-04  -1.6025364e-04  -3.3518320e-04  -1.9189442e-04  -6.8477893e-05  -9.8089993e-05  -2.0229723e-04  -5.4673170e-04   2.2150263e-05  -1.0382269e-05  -1.4168209e-05  -1.0475951e-03  -3.4951681e-04  -1.5252632e-04  -1.0985887e-03  -2.7984096e-04  -1.8955283e-04
   1.9916332e-04  -1.1121801e-05  -6.6255932e-05  -1.3766668e-06  -4.5912243e-06   1.5259770e-04   2.8971778e-04  -1.6659336e-05   7.0598448e-04   4.8871731e-05  -9.6842065e-05  -2.8634359e-04  -2.3580827e-04  -2.7741476e-07  -1.2577079e-04  -2.2103639e-04  -2.5853052e-04  -6.7247878e-05  -3.4562523e-05   1.2915056e-04   1.2104592e-04   2.2446249e-04  -5.3322228e-04   6.8525644e-04   1.1518350e-03  -4.7033842e-05   5.7482198e-06   1.7723154e-05   8.9337256e-05  -8.7675180e-05   3.5570336e-03  -6.9302751e-04  -8.4397070e-05  -1.0269534e-04  -1.9279761e-04  -7.6663937e-06  -1.0415423e-04  -3.2316180e-05  -3.5746500e-05  -1.6299155e-04  -1.5613551e-03   4.3055155e-05   8.1595214e-04  -9.8851538e-05   2.0168457e-04   8.4460284e-05  -1.0051222e-04   1.4834213e-05  -1.9859894e-04  -2.2214130e-04
   1.9854345e-04  -9.5083571e-08   8.6531596e-05   9.7776370e-05  -1.8451597e-04   3.7850357e-06  -1.8502957e-05  -1.0754650e-04  -1.3381776e-03   7.5608914e-05  -4.5139710e-05  -1.6568683e-04  -3.0098081e-04  -3.1468533e-06  -3.9058625e-05  -7.4243457e-05  -8.7120716e-05   7.3484240e-05  -1.4351815e-03   1.7518648e-04   1.3747436e-04   1.9715000e-04   1.7332182e-04  -1.2738812e-03   2.1571522e-03   1.5745423e-04   7.8085964e-07   4.2251319e-05  -3.7728011e-04  -1.1803173e-04  -1.9780537e-03  -3.8279857e-05   6.8552961e-04   7.4673451e-05  -9.9921148e-05  -3.2819039e-04  -1.8841993e-04  -1.1600382e-04  -5.6675632e-05  -2.1070022e-04   7.9609215e-04  -1.1368580e-05   4.1330542e-04  -1.1273287e-04   2.8742562e-04  -3.2136176e-04  -8.9783462e-05   5.7198916e-04  -1.3483052e-04  -2.2656145e-04
   1.6494667e-04  -3.6552625e-05  -9.1057569e-05   6.1362087e-05  -2.7518958e-05  -1.4776575e-04   1.3283434e-04   8.0162514e-05  -2.1023194e-04   8.0668739e-05  -3.2884549e-05  -1.5001213e-04  -2.7636546e-04  -3.7857848e-05  -3.4942277e-04   2.0155706e-04  -1.2779133e-04   2.8082663e-05  -1.7761785e-04  -4.1819445e-04   1.3623656e-04   1.3208839e-04  -2.4725258e-04   7.8049698e-04   3.0402464e-04  -3.4199526e-05   4.3364565e-05  -1.9526188e-04  -9.1213886e-05  -1.0523078e-04  -4.9112743e-05  -1.9551374e-04   5.1433406e-05  -3.0302280e-04  -7.6970573e-05  -7.9069487e-06   1.8500342e-04  -2.2249269e-05  -4.7259735e-05   5.1612937e-04  -2.4955698e-05   9.0915019e-06   4.7800175e-04   1.0389578e-05   6.2413997e-04   2.0570691e-04  -1.1750396e-04  -8.5391468e-05  -5.4058277e-05  -2.3970327e-04
   1.2935422e-04  -4.3508611e-05   6.7345945e-06   3.1818767e-05   1.2713455e-04  -4.9817409e-05   1.7097341e-04   7.7874254e-05  -4.8140663e-04   3.1479613e-05  -5.8130892e-05  -7.6093762e-05  -2.7314422e-04  -3.3091277e-05   1.1012265e-04   3.7354446e-04  -3.5877535e-04  -8.7435015e-05   1.5822845e-04  -3.0347708e-04   1.3372062e-04   1.9495861e-04  -2.2720968e-04  -4.3472735e-04  -1.5147535e-04  -1.1720270e-04   5.6658114e-06  -1.1241680e-04  -1.4367272e-04  -1.2078919e-04  -5.0351146e-04  -6.4278441e-04  -5.7353789e-04  -6.0658713e-05  -1.5809058e-04   9.3524941e-05  -1.3359035e-04  -1.0477666e-04  -1.6793098e-04  -4.2826604e-04   4.2769178e-05   1.6009282e-05  -1.0185422e-04  -7.8776109e-05  -9.1721660e-05  -2.2378202e-04  -6.7642657e-05  -1.7861652e-04  -1.3626032e-04  -2.7312408e-04
   1.4188864e-04  -4.7126545e-05   1.9659878e-05  -1.2420378e-05  -1.3422059e-05   8.5855107e-05   6.7785331e-05   1.5539456e-04  -9.5859828e-04   1.6020445e-05  -1.1445686e-04  -1.3034372e-05  -3.0514877e-04  -8.4316365e-05   6.4684014e-07   1.7615089e-04  -1.2749825e-04  -1.0970451e-04  -3.4075798e-04  -1.8412048e-04   1.2907607e-04   1.1202412e-04   2.2509551e-04  -3.0320845e-04  -5.7773635e-04  -8.4496671e-05   5.3414566e-05   1.3931259e-04   6.2573788e-05  -1.1166724e-04  -1.3650142e-03  -1.7078168e-04  -1.2158119e-04   5.5053544e-05  -1.3452278e-04  -5.3235784e-05  -3.4044043e-04  -1.1751492e-04  -1.2690295e-04  -1.3822092e-04  -2.6262320e-05   4.6384204e-05  -4.2377514e-04   1.0613676e-05  -1.1484117e-04  -2.3936085e-05  -7.1220791e-05  -1.8158503e-04   2.7213948e-05  -2.4287938e-04
   2.0507665e-05  -7.9895442e-05   6.2980245e-05   1.1698841e-04  -7.6212535e-05   9.3273178e-05  -6.8557711e-05  -1.4802840e-04  -5.9364270e-04   5.7603465e-05   1.3575132e-05  -9.8510718e-06  -2.9793530e-04  -3.0000037e-05  -2.8848203e-04   1.4123654e-04  -2.8161678e-04   1.2459112e-05   8.3791575e-04  -8.3891442e-05   1.2567517e-04   2.2531215e-04  -5.1581598e-04   5.4366142e-04   4.3930724e-04  -1.8042559e-04  -1.1048533e-05  -3.2311995e-04   2.7146086e-04  -1.1754429e-04  -1.4093927e-03   1.7360729e-04  -2.8950523e-04  -3.0334797e-04  -1.8343900e-04  -3.1625602e-04  -2.5799146e-04  -1.2330142e-04   1.2605301e-04  -1.8104992e-04   5.6187058e-04  -2.5844754e-04  -4.3073419e-04  -7.8951547e-05  -2.3286122e-04  -1.2291734e-04  -3.5600486e-05  -1.6006244e-03  -2.4477867e-04  -2.4573450e-04
   1.6361973e-04  -6.6680826e-05  -1.9166184e-05   5.9961927e-05   2.3360482e-05   7.3768344e-05  -1.0759783e-04  -8.7313983e-04   2.8247769e-05  -5.4617385e-06  -1.2073549e-05  -1.3333716e-04  -2.9687941e-04  -1.0105457e-04  -1.2754431e-04   1.7788585e-06  -2.4654993e-04   1.0901581e-04   2.1421796e-04   7.4781601e-05   1.3495071e-04   1.9978870e-04  -6.2078150e-04  -4.1388869e-04  -5.0783332e-04  -1.7639945e-04   1.6518673e-07   1.5349762e-04  -3.3030141e-04  -1.2148881e-04  -2.7512382e-03  -4.2364185e-04  -1.9156876e-04  -3.7408827e-05  -1.7400336e-04   2.8221027e-04  -2.4444313e-04  -1.5456871e-04  -1.1452909e-04  -1.7846028e-04  -1.8127021e-04  -5.8664431e-05  -5.9252743e-05   5.1454585e-06   3.4636803e-04  -2.1500737e-04  -1.2394485e-04  -5.0591317e-04  -6.6890600e-05  -2.6985692e-04
   9.0875386e-05  -6.2531180e-05   1.3584485e-04   5.5090954e-06  -7.0294089e-05  -6.5488086e-05  -2.3140750e-05   2.0775235e-04   5.2159128e-04   7.2294388e-05  -6.2636034e-05  -5.3794643e-05  -2.4529832e-04  -5.6601970e-05   2.9365291e-04  -9.5254480e-05  -2.1634964e-05   3.0561285e-05  -4.7008140e-04  -3.4895426e-04   1.0793764e-04   1.8714000e-04  -2.9040320e-04   1.3333462e-04  -8.3323417e-04  -1.7715164e-04   4.3214222e-05  -3.7637670e-05   1.6913083e-04  -1.1197630e-04  -1.6263932e-03  -9.4073162e-05  -1.0138840e-04  -9.3215509e-05  -1.0733755e-04   6.9138841e-05   1.5197843e-04  -1.5190052e-04  -1.2431198e-04  -8.5568841e-05   3.7388300e-04  -9.5757634e-05  -8.3139358e-04  -7.2542374e-05  -6.6339865e-04  -2.3451114e-04  -1.0633010e-04   7.2822999e-04  -1.2005299e-05  -2.2575243e-04
