  -9.8946446e-04  -1.5451628e-03  -9.8011189e-04  -1.9702928e-03  -1.1681936e-03  -1.1632200e-03  -1.2091430e-03  -6.2268524e-04  -1.3078379e-03   9.2984631e-04   1.9074963e-04   7.3542539e-04  -9.0883236e-04  -5.7189149e-04   1.0176372e-03  -4.5473108e-04   1.1639434e-03   1.1512212e-03  -8.8718534e-04  -1.3214609e-03  -9.2155888e-04  -1.4589857e-03  -3.7447995e-04   1.5656704e-04  -2.0001635e-04  -5.2578235e-04   1.3463285e-03  -1.9841560e-03  -1.7716045e-03  -9.9274213e-04  -1.6284494e-03  -3.0719447e-03  -1.0319061e-03  -2.1180063e-03  -2.2169051e-03  -6.7202677e-04  -5.6647731e-04  -2.2707453e-03  -6.4924074e-04  -1.5455912e-03  -5.0431339e-04   1.8077863e-04  -1.6115676e-03  -1.4492845e-03  -6.0926261e-04  -1.1141708e-03  -1.9570849e-04  -4.2050841e-04  -4.1528692e-04  -1.9548077e-03
  -1.2615779e-03  -2.0193495e-03  -1.5896544e-03  -2.5820606e-03  -1.3463727e-03  -1.4014300e-03  -1.4340149e-03  -5.6339754e-04  -1.4363835e-03   6.2676828e-04   9.4585106e-05   5.1374658e-04  -7.4751204e-04  -2.2423080e-04   7.0126081e-04  -2.7642386e-06   1.7338045e-03   1.7960642e-03  -1.7512327e-03  -1.2281593e-03  -1.1037576e-03  -1.7606263e-03  -1.2975559e-04  -3.7083559e-04  -1.3714739e-03  -2.6538875e-04   1.4525193e-03  -1.9094902e-03  -2.3305812e-03  -1.2919686e-03  -3.5494284e-03  -2.9018933e-03  -1.4898903e-03  -2.6224188e-03  -2.2684534e-03  -5.2855071e-04  -1.1204749e-03  -2.2331553e-03  -5.4423587e-04  -1.6875077e-03  -3.9148011e-04   1.6854248e-04  -1.8318905e-03  -1.1508700e-03  -1.9224957e-04  -1.0627549e-03  -6.7877430e-05  -1.2421027e-03  -2.1113975e-04  -1.5667547e-03
  -6.9195288e-04  -1.4067885e-03  -6.8732857e-04  -1.8420584e-03  -1.0812894e-03  -1.0993008e-03  -1.1190291e-03  -9.9920086e-04  -1.9703293e-03   1.3713065e-03   5.2839820e-04   1.2590579e-03  -7.7175902e-04  -4.3410732e-04   5.8914843e-04  -5.4959755e-04   8.0999295e-04   1.2784960e-03  -8.6005998e-04  -5.8536249e-04  -5.0452235e-04  -9.1552950e-04  -1.4349490e-03   1.6709857e-03  -1.9575693e-03  -7.5667427e-04   1.2725082e-03  -1.4289959e-03  -1.4599530e-03  -7.4261014e-04  -1.4074935e-03  -3.2129658e-03  -8.0981827e-04  -1.7429667e-03  -1.8575602e-03  -8.5198850e-04  -2.5915599e-04  -1.6409575e-03  -1.7864806e-05  -9.8919321e-04  -3.4396566e-04   5.2008126e-04  -2.3770458e-03  -1.0834851e-03   3.3337477e-04  -6.2635023e-04   5.3207000e-04   1.9644893e-04   2.0837288e-04  -1.2766176e-03
  -5.1403476e-04  -1.0021927e-03  -6.9996575e-04  -1.4431656e-03  -6.1698613e-04  -8.1367610e-04  -9.6075103e-04  -5.6268036e-04  -1.5944977e-03   1.4029737e-03   4.9076352e-04   1.2966597e-03  -1.0297884e-03  -8.5956394e-04   3.6304203e-04  -4.0932008e-04  -3.1464186e-04   9.8543288e-04  -5.4517924e-04  -4.6408383e-04  -4.1734305e-04  -7.4797182e-04  -1.5243362e-03   1.3823077e-03  -4.6020249e-04  -1.2941905e-03   1.3115508e-03  -1.5272982e-03  -1.7353547e-03  -7.3783443e-04   3.0006000e-04  -2.2374641e-03  -9.2658738e-04  -1.7432143e-03  -1.8224108e-03  -7.0263521e-04  -4.6451061e-04  -1.6963772e-03  -2.6323373e-04  -1.3168622e-03  -1.2906261e-03   6.2511192e-04  -2.4713844e-03  -1.0596036e-03  -1.3180918e-04  -2.5492569e-04   4.3456894e-04  -4.9459148e-04   1.8182528e-04  -1.3686520e-03
  -6.5505120e-04  -1.2075990e-03  -9.7577751e-04  -1.6383663e-03  -9.0891018e-04  -1.1770028e-03  -9.5519924e-04  -7.3222752e-04  -1.4390599e-03   1.1148864e-03   5.2889931e-04   9.9866057e-04  -1.0387807e-03  -8.8200369e-04   2.3964084e-04  -3.1297666e-04  -4.1711392e-04   1.0242623e-03  -3.3437807e-04  -4.3305007e-04  -5.9870066e-04  -7.9892407e-04  -1.3466048e-04   7.8505167e-04  -2.4710139e-03  -7.3253369e-04   1.3916087e-03  -1.9200621e-03  -1.5109176e-03  -9.0645644e-04   5.8206520e-04  -2.5027613e-03  -6.1129587e-04  -1.9699950e-03  -1.9821746e-03  -7.7821861e-04  -1.7677598e-04  -1.9629858e-03  -6.3025934e-04  -1.4645059e-03  -1.4746040e-03   4.3674672e-04  -2.2493226e-03  -1.0102080e-03  -5.4655311e-04  -4.7145033e-04   4.8615714e-04   2.7930995e-05   3.2490809e-04  -1.0763523e-03
  -4.6189254e-04  -7.9287583e-04  -4.7655214e-04  -1.2257230e-03  -9.1086718e-04  -8.5847743e-04  -5.8475777e-04  -1.4594896e-03  -1.0944216e-03   1.6860886e-03   6.8542827e-04   1.6111765e-03  -9.9568313e-04  -1.0455503e-03  -4.1987555e-04  -4.4136198e-04  -8.5240940e-04   1.1470311e-03  -4.8344792e-04  -1.2452927e-05   1.8713197e-04   8.5710963e-06  -1.6152941e-03   3.7467555e-04  -9.8607643e-04  -9.9489512e-04   1.1411922e-03  -1.2075437e-03  -1.0095341e-03  -4.4040385e-04  -8.1682572e-04  -1.5541096e-03   5.2502786e-04  -1.4594434e-03  -1.5014536e-03  -3.9955642e-04  -1.8409442e-05  -1.0470799e-03   3.3984086e-04  -5.5912865e-04  -6.1047910e-04   6.5652031e-04  -1.7937717e-03  -5.3555932e-04  -1.5303001e-05  -1.8744309e-04   6.6102238e-04  -4.5293052e-04   5.1936117e-04  -8.8906090e-04
  -6.7183037e-06  -5.3874147e-04  -2.1041062e-04  -8.9390681e-04  -5.4347276e-04  -8.5631135e-04  -4.9060426e-04  -7.0069300e-04  -1.1765248e-03   1.8045714e-03   8.1677927e-04   1.8619571e-03  -8.9237827e-04  -9.6150971e-04  -1.8294359e-04  -4.0813605e-04  -1.0134577e-03   2.7431117e-04  -8.6531462e-04  -1.8732020e-04   3.1845647e-04   1.6529407e-04  -9.4013807e-04   2.2912447e-03  -3.0522776e-04  -9.0593047e-04   1.0948151e-03  -9.9348591e-04  -9.7652309e-04  -4.9078016e-04  -6.4636290e-04  -1.2160516e-03   4.0306235e-04  -1.2492678e-03  -1.3750696e-03  -4.2432337e-04  -1.4988956e-04  -1.0267054e-03  -3.2885488e-05  -9.9795044e-04   3.9350215e-04   7.1848131e-04  -2.2265769e-03  -5.9218355e-04   6.4795557e-04  -4.0090314e-04   5.4666132e-04  -8.3056145e-04   3.6984307e-04  -1.1243509e-03
  -1.9044182e-04  -6.6007947e-04  -3.6729756e-04  -1.0718871e-03  -3.0600815e-04  -7.3549710e-04  -5.6280621e-04  -8.3388278e-04  -4.2302687e-05   1.5772843e-03   7.3822186e-04   1.6147768e-03  -1.0357894e-03  -9.3664922e-04   1.1302726e-04  -2.4169266e-04  -1.0286981e-03   6.3553656e-04  -4.2792052e-04  -5.3821638e-04   1.1745912e-04  -7.4610034e-05  -1.6598419e-03   8.4527582e-04  -2.2581534e-03  -1.3591625e-03   1.0451594e-03  -1.3990919e-03  -9.9018030e-04  -6.5500912e-04   1.6689450e-04  -1.2298536e-03   6.9810671e-04  -1.4487981e-03  -1.4333682e-03  -2.8839288e-04  -2.4710517e-04  -1.3149425e-03  -1.7734055e-04  -1.0018521e-03   1.9950878e-03   7.6960126e-04  -1.9617113e-03  -7.6949282e-04   3.3058444e-04  -1.8127306e-04   3.5617827e-04  -1.0243832e-03   2.3974910e-04  -1.4043869e-03
  -6.0128880e-04  -1.0426199e-03  -8.2258828e-04  -1.3395111e-03  -7.2973734e-04  -9.2292792e-04  -7.1304996e-04  -7.4323331e-04  -2.0764730e-04   1.5252022e-03   5.4727413e-04   1.6954739e-03  -1.3035621e-03  -1.1110191e-03  -2.3118846e-04  -4.2575388e-04  -1.4884507e-03   1.9313055e-04   1.7260380e-04   1.8306581e-04   3.6247112e-04   3.2383332e-04  -1.7437858e-03   1.8660505e-03  -4.3946126e-04  -1.4617027e-03   9.8831183e-04  -8.1062614e-04  -3.7559596e-04  -3.8172718e-04  -1.0315375e-03  -9.5313555e-04   9.0144487e-04  -9.3938428e-04  -1.1840196e-03  -7.1503466e-04   3.1109503e-04  -7.0926722e-04   2.5304363e-04  -4.7128813e-04   1.3262596e-03   1.1026075e-03  -2.0495709e-03  -3.8902735e-04   5.1215797e-04   4.8712649e-05   9.4079663e-04   3.5416895e-05   7.8817509e-04  -7.8781624e-04
   3.8212162e-04  -1.5043978e-04   2.7352680e-05  -4.2508307e-04   6.8465233e-05  -4.7505900e-04  -3.0579735e-04  -5.7467562e-04  -8.6345087e-04   2.1558595e-03   8.7338313e-04   2.3266771e-03  -1.1285817e-03  -1.0824160e-03   1.4943728e-05  -1.4922698e-04  -1.5352885e-03   2.8834576e-04  -6.5856613e-04   4.8031053e-04   7.1292539e-04   7.9764379e-04  -1.9364922e-03   3.2871857e-03  -8.0755370e-04  -1.3227513e-03   1.0684610e-03  -1.0210391e-03  -7.1267702e-04  -1.8262483e-04  -1.6250373e-03  -2.2573066e-03   7.4592547e-04  -7.1117555e-04  -9.1057771e-04   4.9843296e-04   1.2889797e-04  -5.5478397e-04   6.1523472e-04  -2.7777560e-04   8.8360009e-04   1.3312004e-03  -2.2369244e-03  -1.5981949e-04  -6.2621839e-05   1.7738852e-04   9.1784517e-04  -5.9818756e-04   7.1396638e-04  -8.4151496e-04
   3.5680865e-04  -2.1442033e-04   9.6131313e-05  -5.2858941e-04  -4.5374146e-04  -5.8677187e-04  -4.2072026e-04  -4.6313275e-04  -1.6699664e-04   1.8462518e-03   9.0801215e-04   2.1838327e-03  -1.1564182e-03  -9.6938567e-04  -2.5542532e-04  -1.5252596e-04  -1.4577414e-03   5.3593080e-04   5.5657636e-04  -1.5695667e-04   5.9004483e-04   5.5492570e-04  -2.2291043e-03   2.4408542e-03  -1.1314705e-03  -1.4412147e-03   1.1140774e-03  -7.4623764e-04  -1.2856852e-03  -3.5153242e-04  -2.1580700e-03  -1.1550064e-03   8.8701566e-04  -7.1365794e-04  -1.0823512e-03  -2.5427440e-04   1.1422673e-04  -8.5902627e-04   1.5886378e-04  -5.9557956e-04   9.8114680e-05   1.0114595e-03  -2.1087020e-03  -3.6247581e-04   4.9495633e-04  -2.9288058e-04   5.1131938e-04  -1.0552345e-03   3.9143270e-04  -1.2153280e-03
   3.7451740e-05  -6.4604287e-04  -3.1673431e-04  -9.8095543e-04  -1.8160713e-04  -6.5285107e-04  -6.7136151e-04  -4.8149051e-04  -1.6568695e-03   1.3464720e-03   5.1753630e-04   1.6950602e-03  -1.1248576e-03  -9.0478401e-04   1.5641974e-04  -2.7980068e-04  -1.2179133e-03   2.9637080e-04  -1.6321159e-03   1.8114872e-04   2.7645638e-04   2.4276257e-04  -1.4470303e-03   1.6229737e-03  -6.0133374e-04  -1.1568636e-03   1.0489377e-03  -8.4555167e-04  -1.2214979e-03  -6.6018698e-04  -2.3726642e-03  -8.0007722e-04   6.9452100e-05  -1.2038415e-03  -1.3520783e-03  -6.4103358e-04  -4.5388466e-04  -1.2759643e-03  -2.9410946e-04  -9.0092025e-04   4.6944534e-04   7.3211850e-04  -1.7452346e-03  -7.3644100e-04   1.9697558e-04  -1.1349216e-03   3.4225241e-06  -4.3700429e-04   8.1519320e-05  -1.2619717e-03
  -2.4882605e-04  -7.9140224e-04  -2.4335760e-04  -9.9719269e-04  -2.7644724e-04  -5.9095147e-04  -3.8209980e-04  -6.3985807e-04  -4.7729490e-04   1.5655867e-03   4.7121450e-04   1.8920933e-03  -1.1144140e-03  -9.5160923e-04  -6.8176036e-05  -4.0964628e-04  -1.1672106e-03   3.6692963e-04   4.3645188e-05   1.6511390e-04   6.3743012e-04   3.4691530e-04  -1.8775795e-03   1.9717137e-03  -2.3171548e-03  -8.7665475e-04   1.0527240e-03  -6.3994329e-04  -1.3423400e-03  -2.6891453e-04   1.2572997e-03  -1.3536202e-03   1.6478219e-04  -1.2282412e-03  -1.0420266e-03  -2.5597349e-04   1.4413125e-04  -6.1091664e-04   2.4057075e-04  -2.6756327e-04  -8.1519719e-04   8.1767276e-04  -1.0359897e-03  -2.1291265e-04  -2.0577620e-04  -4.9783150e-04   3.2911031e-04  -4.8667323e-04   2.8344852e-04  -7.7271939e-04
   3.8471242e-04  -4.1054931e-04  -8.2764709e-05  -6.3415308e-04   1.5597820e-05  -5.4952886e-04  -1.6797887e-04  -9.6552889e-04  -8.9394744e-04   1.6234573e-03   5.2687875e-04   1.9780050e-03  -1.0055831e-03  -8.8212284e-04   1.6642563e-04   1.4829778e-04  -1.0498591e-03   3.5155358e-04   3.7388783e-04  -2.1339963e-04   7.2077423e-04   5.6163612e-04  -1.2709837e-03   2.7793502e-03  -1.8057141e-04  -7.8164047e-04   1.0497441e-03  -8.7873318e-04  -8.8302844e-04  -2.2954725e-04  -2.3701512e-03  -1.6109429e-03   3.1348888e-04  -7.9584919e-04  -9.7937614e-04  -1.5890511e-05  -5.9141275e-05  -6.5330410e-04   2.4951057e-04  -4.3157366e-04   1.6125404e-04   6.9966255e-04  -9.5215085e-04  -2.4285779e-04   1.3786592e-04  -2.6229490e-04   7.7547818e-05   1.0949562e-04   1.5186866e-04  -1.0407916e-03
  -1.1801178e-04  -5.9312815e-04  -2.5669084e-04  -8.4112975e-04  -1.1048051e-04  -8.4129343e-04  -4.3885745e-04  -2.9946028e-04  -5.5870967e-04   1.1994845e-03   2.8092731e-04   1.5289561e-03  -1.1511581e-03  -9.4503886e-04   2.3691804e-04   4.6447170e-05  -1.2624922e-03   4.0589567e-04   1.6115092e-03  -4.0958135e-04   4.5380087e-04   3.1204219e-04  -1.2899435e-03   2.2723177e-03  -2.5461652e-04  -8.8453485e-04   9.0059236e-04  -7.7676907e-04  -1.1127995e-03  -4.3487796e-04  -5.7556146e-05  -3.6515752e-04   6.6228407e-05  -1.2319165e-03  -1.1669438e-03  -4.6446748e-04   1.0672728e-04  -9.6531073e-04  -2.7455804e-05  -4.3026169e-04  -1.2321398e-03   3.2398928e-04  -1.7346147e-03  -5.0415547e-04   7.7176453e-05  -6.5461796e-04  -3.2091342e-04  -1.0657558e-03  -2.8643358e-04  -1.2753172e-03
  -3.8638915e-04  -9.4512175e-04  -6.4598757e-04  -1.1900745e-03  -4.0393919e-04  -6.4385380e-04  -4.9791828e-04  -1.1307962e-03  -9.7908976e-04   7.6130492e-04  -4.6282519e-05   1.2075028e-03  -1.2419772e-03  -1.1508428e-03  -3.0035153e-06  -5.6578865e-04  -1.4012353e-03   4.6911675e-05  -4.1637375e-04  -5.7819154e-04   1.4621632e-04  -2.9932604e-05  -1.6481434e-03  -5.3178133e-05  -1.0300154e-03  -1.2636795e-03   8.2918414e-04  -1.1171479e-03  -4.6648210e-04  -6.2758889e-04  -1.6000486e-03  -1.1670177e-03  -8.5716667e-05  -1.5909189e-03  -1.2456411e-03  -3.3648885e-04   2.8030183e-05  -9.0501562e-04   1.6236019e-04  -4.9389654e-04  -4.9432827e-05   4.4193730e-04  -2.0795749e-03  -4.3168481e-04   5.4564091e-05  -6.4617966e-04  -1.9534187e-04  -8.8169845e-04  -1.6648848e-04  -1.0947293e-03
  -1.1249118e-04  -5.9926830e-04   7.4144009e-07  -7.3519436e-04  -7.0726848e-04  -7.7827403e-04  -2.3612045e-04  -2.9164887e-04  -1.4398841e-03   1.3211278e-03   9.5240968e-05   1.6855152e-03  -1.1714993e-03  -1.1524345e-03   1.6202632e-04  -6.6878449e-04  -1.6066401e-03  -2.6440228e-04  -6.4677699e-04   4.9630173e-05   6.3201878e-04   4.2633360e-04  -2.0853214e-03   2.6503855e-03  -1.0637781e-03  -8.8702975e-04   8.2385284e-04  -9.3506312e-04  -5.1535224e-04  -1.6751194e-04  -1.5499193e-03  -1.5664684e-03   9.9351001e-04  -9.0386096e-04  -1.0438729e-03   1.1281698e-04  -1.0235020e-04  -4.7152452e-04   4.1744957e-04  -9.2431372e-05   5.6480226e-04   2.7618810e-04  -1.4087828e-03  -1.5688386e-04  -5.7203230e-04  -1.3320538e-03  -2.6780457e-04  -1.3031049e-03  -1.2588166e-04  -1.0143258e-03
  -9.3520546e-05  -6.1911525e-04  -3.1649700e-04  -7.6305051e-04   1.6176191e-05  -9.0651558e-04  -3.5374548e-04   9.0167436e-05  -7.5446290e-04   1.1096861e-03  -1.1492338e-04   1.4992720e-03  -1.3129788e-03  -1.1680657e-03  -3.5836233e-04  -5.9490907e-04  -1.5635000e-03   1.5400759e-04  -9.4641335e-05  -4.1101413e-04   4.9957767e-04   4.1933195e-04  -1.0028281e-03   2.4590404e-03   7.2666412e-06  -9.2993892e-04   7.8998995e-04  -1.0427827e-03  -1.2717139e-03  -2.2762574e-04  -2.2632044e-03  -8.1559771e-04  -2.9399504e-05  -1.1658303e-03  -1.0893086e-03  -2.5527403e-04  -4.3061475e-05  -7.5751095e-04   3.3201990e-04  -3.1886491e-04   1.1553292e-04   9.3985807e-05  -2.1508257e-03  -5.4634549e-04  -1.0930500e-03  -8.1278291e-04  -5.5588939e-04  -2.6420449e-04  -3.4167894e-04  -1.2702614e-03
  -4.0747426e-04  -9.7731478e-04  -8.2849403e-04  -1.1043588e-03  -6.6548830e-04  -9.6988608e-04  -7.6451688e-04  -7.0916541e-04  -1.3658856e-03   5.8201846e-04  -4.0441510e-04   1.1788600e-03  -1.3638735e-03  -1.2437394e-03  -5.3951208e-04  -7.9614058e-04  -1.6285861e-03  -2.8933102e-04  -1.1115902e-03  -2.1456042e-04   2.4632877e-04   7.1322211e-05  -1.5558996e-03   5.6884636e-04  -8.2060107e-04  -9.6761330e-04   6.8496470e-04  -1.4084905e-03  -1.0630989e-03  -4.3637111e-04   1.2058594e-03  -9.7110058e-04  -6.6008337e-04  -1.4874438e-03  -1.2538162e-03  -7.2903320e-04  -3.1866212e-04  -1.0859198e-03   3.2761968e-06  -5.6060677e-04   3.8520101e-04  -2.0075975e-04  -2.0018893e-03  -6.6961849e-04  -5.4355589e-04  -1.2323213e-03  -9.4972289e-04  -2.1237419e-03  -6.6603592e-04  -1.6081345e-03
  -9.6533069e-04  -1.3727663e-03  -1.2920598e-03  -1.5415191e-03  -6.8322587e-04  -9.9286635e-04  -8.4167806e-04  -7.8841473e-04  -1.5428932e-03   8.6713000e-05  -8.3758525e-04   5.4564205e-04  -1.4662348e-03  -1.3753724e-03  -3.4844881e-04  -6.4941176e-04  -1.7101998e-03  -3.1317101e-04  -4.5721681e-04  -9.7489823e-04   1.8018577e-04  -5.4538861e-05  -1.5643307e-03  -1.0103516e-03  -1.5954854e-03  -9.4028696e-04   6.6731771e-04  -1.4831218e-03  -1.3462342e-03  -3.6020484e-04  -1.8289866e-03  -1.8136182e-03   2.3176731e-04  -1.7053224e-03  -1.2290344e-03  -1.1116316e-03  -1.7774959e-04  -6.8581395e-04   4.5578086e-04  -6.7483209e-04  -5.1075080e-04  -1.8608602e-04  -1.3575670e-03  -4.5769796e-04  -1.3583348e-03  -1.3819904e-03  -6.2601507e-04  -1.1237261e-03  -4.9735251e-04  -1.1485815e-03
   2.1731750e-05  -7.1736798e-04  -2.2022426e-04  -7.8723626e-04  -2.6971052e-04  -6.3473743e-04  -4.7285971e-04  -1.2299926e-03  -7.2393776e-04   9.8792347e-04  -5.5396848e-04   1.2326782e-03  -1.3815962e-03  -1.3153501e-03  -5.1740753e-06  -6.2703318e-04  -1.6984753e-03   8.4977626e-05  -9.3148148e-04  -8.6096459e-04   6.5002072e-04   4.0503012e-04  -1.7582282e-03   3.0181096e-03  -2.2383439e-03  -9.6408493e-04   8.6391350e-04  -9.8869577e-04  -1.2966057e-03  -7.0408598e-05  -2.4329349e-03  -7.9358218e-04  -4.9080620e-05  -1.5027273e-03  -1.0758506e-03  -1.0147850e-03   1.0359382e-04  -6.2583305e-04   2.4002606e-04  -1.9542394e-04  -9.8119002e-05  -9.6933509e-05  -2.1960931e-03  -3.2014155e-04  -1.2076875e-03  -5.2401487e-04  -6.4027292e-04   1.6546115e-05  -4.7566975e-04  -1.2840307e-03
  -3.2956601e-04  -8.6260430e-04  -4.8134039e-04  -9.8308141e-04  -1.8815210e-04  -8.4456743e-04  -5.7775754e-04  -9.5909502e-04  -1.5133184e-03   7.2072534e-04  -7.0111378e-04   1.3613307e-03  -1.3436823e-03  -1.2571224e-03  -7.7138533e-04  -6.5495196e-04  -1.5419933e-03  -2.0575995e-04  -1.9127346e-03  -3.9510382e-04   4.9720798e-04   3.5359239e-04  -1.4629209e-03   1.7787876e-03  -1.1815687e-03  -8.1320532e-04   8.2883571e-04  -7.4961002e-04  -1.2962748e-03  -2.1214117e-04   4.0429720e-04  -3.5874316e-04   3.6223774e-04  -1.4135620e-03  -1.2673367e-03  -4.1038211e-04  -1.5926769e-04  -8.1856980e-04   1.7094654e-04  -7.3793641e-04  -3.1610543e-04  -2.5334791e-04  -2.5408450e-03  -4.9343298e-04  -8.4607350e-04  -1.2705197e-03  -9.0335729e-04  -1.7269183e-03  -8.6020806e-04  -1.6266042e-03
  -5.5824651e-04  -1.1833326e-03  -9.5572392e-04  -1.3060452e-03  -9.6438639e-04  -9.6519076e-04  -8.1507524e-04  -1.1498701e-03   4.6730682e-05   3.5962483e-04  -9.1323786e-04   9.1015972e-04  -1.4486334e-03  -1.3849050e-03  -1.1731593e-04  -8.2472555e-04  -1.5221833e-03   1.9990536e-04  -3.8458125e-04  -8.3925447e-04   2.6857248e-04   4.4557260e-06  -1.5756852e-03  -2.9845080e-05  -1.8297211e-04  -1.0149278e-03   7.6347194e-04  -1.2272870e-03  -1.7478033e-03  -4.4442757e-04   7.1112550e-04  -1.8586125e-03  -3.7236098e-04  -1.3589332e-03  -1.4314514e-03  -6.8792171e-04  -5.8262696e-04  -1.2271929e-03  -9.5718933e-05  -8.7971200e-04  -9.6946117e-04  -6.3306815e-04  -2.7949079e-03  -7.4589596e-04  -9.9290384e-04  -1.6441767e-03  -1.1970408e-03  -1.0091552e-03  -1.0243455e-03  -1.8499084e-03
  -1.0594677e-03  -1.5850968e-03  -1.3920590e-03  -1.6987481e-03  -1.2467989e-03  -1.2510967e-03  -1.1422791e-03  -1.5790940e-03  -1.1897143e-03  -1.9213978e-04  -1.1163476e-03   4.4233701e-04  -1.5517042e-03  -1.4473029e-03  -2.8484972e-04  -1.0446012e-03  -1.4252394e-03  -4.5992777e-04  -1.6091835e-03  -1.0580679e-03  -4.2525873e-05  -4.0516336e-04  -1.8073914e-03   8.2124176e-04  -1.8554152e-03  -1.1172688e-03   6.1105954e-04  -1.7388748e-03  -1.4463102e-03  -6.9765456e-04  -8.3290122e-04  -1.7213396e-03  -6.2995183e-05  -1.8818426e-03  -1.5113836e-03  -1.1492816e-03  -4.2774060e-04  -1.0787005e-03   1.1550020e-04  -1.0464272e-03  -6.1778369e-04  -5.9597584e-04  -2.4014222e-03  -7.0555258e-04  -1.2348926e-03  -1.6832715e-03  -1.0086136e-03  -8.1996387e-04  -8.9308445e-04  -1.4797761e-03
  -4.9308821e-04  -1.1580511e-03  -5.7675946e-04  -1.1353476e-03  -6.2859576e-04  -1.0189149e-03  -1.0083576e-03  -1.0060581e-03  -6.8654749e-04   7.4205158e-04  -1.0132523e-03   1.1037994e-03  -1.3397177e-03  -1.2354343e-03  -3.0364539e-04  -1.1555777e-03  -1.2366344e-03   1.7342268e-04   3.2642097e-04  -8.3382061e-04   5.4405961e-04   1.2669706e-04  -1.2866162e-03   8.2281203e-04  -1.9369160e-03  -7.4844039e-04   8.3326153e-04  -1.3141111e-03  -1.2874253e-03  -2.2193795e-04  -4.0595704e-03  -1.5653827e-03  -4.2434945e-04  -1.4697845e-03  -1.3768085e-03  -1.2102266e-03  -7.9813930e-05  -9.2492998e-04   1.7820008e-04  -5.5746757e-04  -8.9743017e-04  -6.6110608e-04  -2.6168602e-03  -5.3411745e-04   2.5322530e-04  -1.3965674e-03  -9.8655559e-04  -9.4361429e-04  -1.0172561e-03  -1.4395574e-03
  -4.0382176e-04  -1.0462018e-03  -7.9416356e-04  -1.2206308e-03  -5.7692191e-04  -1.1232562e-03  -8.4251328e-04  -5.0968840e-04  -1.0209922e-03   5.4574310e-04  -8.6957635e-04   8.3319517e-04  -1.2229610e-03  -1.2243830e-03   4.2069424e-04  -8.9510018e-04  -1.2068722e-03   1.5980555e-04  -9.3953707e-04  -5.1317434e-04   3.5158987e-04  -2.1970963e-04  -1.0937981e-03   6.4381264e-04  -4.6177060e-04  -5.3051737e-04   7.7405694e-04  -1.2027401e-03  -1.4131254e-03  -3.8508320e-04  -2.7833281e-03  -1.2048724e-03   1.5844428e-04  -1.8363824e-03  -1.4191346e-03  -5.4282794e-04  -2.6950575e-04  -1.1644745e-03  -2.7187899e-04  -8.7993318e-04  -8.3196239e-04  -8.4091851e-04  -2.4892772e-03  -8.1087818e-04  -1.3002749e-03  -1.6429721e-03  -1.1034514e-03  -1.9323421e-03  -1.1083847e-03  -1.7644417e-03
  -1.1003041e-03  -1.4698523e-03  -1.0749744e-03  -1.6072562e-03  -7.2283519e-04  -1.1999841e-03  -1.0701010e-03  -1.4657618e-03  -6.6432520e-04   1.3160893e-04  -1.1463037e-03   7.2509766e-04  -1.2328534e-03  -1.2134518e-03  -2.8851049e-04  -7.4814522e-04  -1.1685796e-03  -1.9464671e-04  -1.2797051e-03  -7.5661490e-04   3.9239785e-05  -5.6142703e-04  -1.5518108e-03  -2.4045080e-04  -1.5238255e-03  -7.9872453e-04   5.9316220e-04  -1.4347266e-03  -1.6390025e-03  -6.3983904e-04  -1.7968974e-03  -1.5706649e-03  -9.2278293e-04  -2.2538828e-03  -1.7200515e-03  -9.0517913e-04  -5.0855061e-04  -1.5343883e-03  -5.0855597e-04  -1.0706526e-03  -1.2335231e-03  -1.0133852e-03  -2.4299901e-03  -1.1215260e-03  -1.4483852e-03  -2.1576309e-03  -1.3959011e-03  -2.9830851e-03  -1.3304478e-03  -1.9947728e-03
  -1.4517769e-03  -1.8273627e-03  -1.6702204e-03  -1.9583071e-03  -8.0250448e-04  -1.3606552e-03  -1.1751400e-03  -1.8143258e-03  -1.9564091e-03  -2.8125703e-04  -1.3265690e-03   4.8485883e-05  -1.3404340e-03  -1.2975247e-03  -7.0842553e-04  -9.1887335e-04  -1.3475156e-03  -2.9816828e-04  -1.5905830e-03  -1.1695307e-03  -3.3640504e-04  -8.9708931e-04  -1.2438617e-03  -5.8952457e-04  -1.5454220e-03  -6.7012524e-04   5.8505940e-04  -2.0795690e-03  -2.2174956e-03  -9.2493836e-04  -4.5842750e-04  -2.5230444e-03  -1.2930806e-03  -2.2325122e-03  -1.9947554e-03  -1.4814525e-03  -6.9273356e-04  -1.9717852e-03  -7.6780102e-04  -1.3958899e-03  -1.2891518e-03  -1.3321590e-03  -3.2836380e-03  -1.4803888e-03  -1.5364188e-03  -1.7910460e-03  -1.4988192e-03  -2.0892557e-03  -1.3869433e-03  -2.1442869e-03
  -1.2365874e-03  -1.6505593e-03  -1.2978967e-03  -1.6474723e-03  -8.5232290e-04  -1.3078132e-03  -1.0488884e-03  -1.2939778e-03  -1.0394249e-03   4.6150619e-04  -1.2956242e-03   6.2043703e-04  -1.3746041e-03  -1.4233999e-03  -3.3614048e-04  -7.5454882e-04  -1.5255389e-03  -3.0736838e-04  -1.5076264e-03  -8.1074313e-04   1.8590181e-04  -4.3787429e-04  -1.2002769e-03   1.7845485e-03  -9.9534832e-04  -7.0176128e-04   4.6822315e-04  -1.5263187e-03  -2.0363485e-03  -4.7908307e-04  -2.0683615e-03  -2.6124427e-03  -5.2251882e-04  -1.9347204e-03  -1.6261765e-03  -1.0747571e-03  -5.1793293e-04  -1.1666315e-03   9.2799171e-05  -7.9913775e-04  -9.0002903e-04  -1.0358389e-03  -2.3436570e-03  -9.0606447e-04  -9.9365425e-04  -1.7942443e-03  -1.1420820e-03  -2.0569318e-03  -1.2153073e-03  -1.6820070e-03
  -9.1816531e-04  -1.2265608e-03  -1.0943292e-03  -1.4007391e-03  -7.1157137e-04  -1.1203537e-03  -1.2777322e-03  -1.0447629e-03  -1.4324322e-03   5.7386421e-04  -1.0489404e-03   7.6415547e-04  -1.2133638e-03  -1.3590220e-03  -3.6630157e-04  -1.4472713e-03  -1.4217197e-03  -4.6928012e-04   9.4752446e-05  -8.5193320e-04   3.1361423e-04  -1.4987701e-04  -1.2141161e-03   1.0074151e-03  -1.4477978e-03  -5.2654708e-04   4.8537148e-04  -1.4787839e-03  -1.2828587e-03  -4.8792624e-04  -1.7638984e-03  -1.3369092e-03  -6.2425551e-04  -1.9187799e-03  -1.6100659e-03  -1.3361282e-03  -1.0477406e-03  -1.2942817e-03  -7.3404488e-05  -1.2098049e-03  -1.6368128e-03  -1.2291896e-03  -2.5372053e-03  -1.0229283e-03  -1.2355748e-03  -1.4859693e-03  -1.0700289e-03  -8.0907613e-04  -1.2634592e-03  -1.7709860e-03
  -1.0445468e-03  -1.4010133e-03  -1.4598030e-03  -1.6496009e-03  -9.6734264e-04  -1.0359680e-03  -1.2288763e-03  -1.6396133e-03  -8.2826050e-04   8.3132640e-05  -1.2193799e-03   5.1075406e-04  -1.1791417e-03  -1.3201139e-03  -4.4395123e-04  -1.0929873e-03  -1.6412669e-03  -4.6423543e-04  -1.1031072e-03  -7.1599486e-04   9.8554956e-05  -4.4716883e-04  -9.6368144e-04  -1.2882230e-05   5.1403113e-06  -6.4250111e-04   5.1316310e-04  -1.6284998e-03  -1.7308624e-03  -7.0646178e-04  -2.3990723e-03  -1.1436531e-03  -8.4822398e-04  -2.0659852e-03  -1.7995402e-03  -1.5731268e-03  -7.3161838e-04  -1.5683436e-03  -5.6199706e-04  -1.4611963e-03  -1.6108004e-03  -1.2898428e-03  -2.2798111e-03  -1.1396776e-03  -5.8974681e-04  -1.6766805e-03  -1.3226565e-03  -2.3362245e-03  -1.4289742e-03  -1.9477254e-03
  -1.4068816e-03  -1.6900786e-03  -1.6209725e-03  -1.8970459e-03  -1.0410615e-03  -1.0390931e-03  -1.4240002e-03  -1.6070839e-03  -1.8079976e-03  -2.4645441e-04  -1.2746123e-03   1.2495763e-04  -1.3568400e-03  -1.3564519e-03  -1.5291033e-04  -1.1372189e-03  -1.5285327e-03  -2.5666520e-04  -1.9779997e-03  -9.6080173e-04  -1.6202139e-04  -6.7430886e-04  -1.3987756e-03  -1.5343681e-03  -1.2165559e-03  -7.0409861e-04   3.9559710e-04  -2.1368435e-03  -2.2299686e-03  -9.5341104e-04  -8.0701400e-04  -2.9105635e-03  -3.7164972e-04  -2.3058970e-03  -1.9929933e-03  -2.0330700e-03  -1.2905273e-03  -1.9047867e-03  -8.5861061e-04  -1.4510320e-03  -1.2460718e-03  -1.5302652e-03  -3.3585085e-03  -1.4002521e-03  -1.5285263e-03  -1.9925383e-03  -1.4829254e-03  -2.1329171e-03  -1.5049839e-03  -2.0867144e-03
  -1.4248990e-03  -1.6269617e-03  -1.3184500e-03  -1.6037707e-03  -1.3093353e-03  -1.3267128e-03  -1.1407435e-03  -1.1288214e-03  -1.6446944e-03   5.4614228e-04  -1.3254301e-03   8.0797938e-04  -1.2670009e-03  -1.4086379e-03  -3.7479601e-04  -1.1457922e-03  -1.6716054e-03  -4.0524217e-04  -7.9070940e-04  -1.0672529e-03   3.7220540e-04  -1.8850043e-04  -8.9356053e-04   1.4697158e-03  -6.7979447e-04  -6.5952376e-04   4.7230558e-04  -1.3863916e-03  -1.9331995e-03  -5.0722493e-04  -2.0257432e-04  -5.0792639e-04  -9.2608703e-04  -1.9652075e-03  -1.5432723e-03  -1.1041857e-03  -7.3781394e-04  -1.0750730e-03  -1.0993445e-04  -1.1242242e-03  -6.9101818e-04  -1.0264126e-03  -2.5936707e-03  -7.5263268e-04  -1.6590459e-03  -1.6482599e-03  -7.9435646e-04  -1.2509346e-03  -9.4835274e-04  -1.4335992e-03
  -8.9562917e-04  -1.0226634e-03  -5.1311211e-04  -1.1633971e-03  -5.7973107e-04  -1.0807925e-03  -8.9227333e-04  -3.4770698e-04  -1.4165089e-03   8.9035067e-04  -8.7100471e-04   1.1180883e-03  -1.0466803e-03  -1.1930942e-03  -8.9953930e-05  -9.7316061e-04  -1.4928789e-03  -4.7550646e-05  -9.0857019e-04  -7.8914856e-04   5.6321465e-04   1.3656896e-05  -1.2919642e-03   6.7854783e-04   1.3855350e-04  -3.8594267e-04   6.0405885e-04  -1.2055446e-03  -1.5589119e-03  -4.5225830e-04  -4.1994685e-03  -1.8304946e-03  -5.8307307e-04  -1.9357910e-03  -1.4376980e-03  -1.5445361e-03  -3.8911044e-04  -1.0924930e-03  -3.1772940e-04  -7.8148977e-04  -2.2447319e-03  -9.8110444e-04  -2.1660028e-03  -7.4564171e-04  -1.3548646e-03  -1.3194430e-03  -7.6908903e-04  -1.7776288e-03  -1.0030010e-03  -1.2470619e-03
  -7.6002057e-04  -1.0821802e-03  -8.8634028e-04  -1.3224825e-03  -6.8510708e-04  -1.0695496e-03  -1.2542983e-03  -1.2818819e-03  -1.4575514e-03   5.3621514e-04  -8.7296806e-04   8.4566168e-04  -1.0220892e-03  -1.1509469e-03  -6.0642557e-04  -1.0226272e-03  -1.4586486e-03   7.8960409e-05  -1.3294902e-03  -6.1162515e-04   3.6469888e-04  -9.5993484e-05  -7.7741122e-04  -8.0998044e-04  -1.8048800e-05  -5.0286786e-04   5.9073122e-04  -1.5150803e-03  -1.6874484e-03  -6.0911709e-04  -2.7459343e-03  -8.3841290e-04  -2.8519228e-04  -1.8600285e-03  -1.5599518e-03  -1.4030264e-03  -9.7782374e-04  -1.3041260e-03  -3.5344696e-04  -9.2921889e-04  -1.2776179e-03  -1.0699669e-03  -1.5903262e-03  -9.4968244e-04  -7.6762133e-04  -1.7399038e-03  -8.9647237e-04  -1.0399853e-03  -9.6117228e-04  -1.5556873e-03
  -1.1107583e-03  -1.3349281e-03  -1.2942000e-03  -1.5613767e-03  -5.3981243e-04  -9.9118578e-04  -1.4355796e-03  -9.1039483e-04  -5.3312629e-04   1.9551325e-04  -1.0380959e-03   6.3321640e-04  -1.1409926e-03  -1.2361034e-03  -1.9656660e-04  -9.1298600e-04  -1.3841839e-03  -4.5824918e-04  -1.4271923e-04  -5.2914611e-04   8.5825799e-05  -2.9690992e-04  -1.2723968e-03  -1.6929042e-03  -1.9075435e-03  -4.9792929e-04   3.0830249e-04  -1.7643077e-03  -1.9488838e-03  -7.9990999e-04  -8.1575400e-04  -2.1634656e-03  -4.3199598e-04  -2.0417017e-03  -1.7056278e-03  -1.2669291e-03  -1.0514078e-03  -1.5592943e-03  -6.0780108e-04  -1.3288059e-03  -9.5980125e-04  -1.3090703e-03  -2.2151612e-03  -1.1231682e-03  -1.5883353e-03  -1.6407702e-03  -1.1026519e-03  -7.8742654e-04  -1.3125059e-03  -1.7331259e-03
  -1.4821644e-03  -1.6590456e-03  -1.8562498e-03  -1.8998630e-03  -1.4192862e-03  -1.3422203e-03  -1.3036596e-03  -1.4114972e-03  -1.8487340e-03  -2.2299890e-04  -1.2668479e-03   3.6230250e-04  -1.1956699e-03  -1.2553191e-03  -4.0089365e-04  -1.5000390e-03  -1.2297725e-03  -3.9051221e-05  -1.0425034e-03  -1.2175288e-03   6.7780966e-05  -3.7563063e-04  -1.0411455e-03  -7.6383841e-04  -1.9039359e-03  -3.1599065e-04   4.2638721e-04  -1.3153352e-03  -1.7420717e-03  -7.1939698e-04  -1.4442246e-03  -2.3119736e-03  -7.5291324e-04  -1.8360378e-03  -1.5171949e-03  -1.1170149e-03  -9.1354141e-04  -1.0881058e-03  -7.9765297e-05  -8.7386870e-04  -1.8841180e-03  -1.0318150e-03  -1.1774031e-03  -6.9171767e-04  -7.8300288e-04  -1.3653572e-03  -5.6732906e-04  -5.9740251e-04  -8.3954417e-04  -1.1450381e-03
  -6.6292542e-04  -8.2244049e-04  -5.0996890e-04  -1.0147991e-03  -9.0946798e-04  -8.5589429e-04  -8.3741493e-04  -1.2329929e-03   2.9659235e-05   9.5520192e-04  -7.9824019e-04   1.1277880e-03  -7.1985263e-04  -9.5670484e-04  -3.9561596e-04  -7.0012000e-04  -9.8261004e-04  -1.2473710e-05  -3.1450661e-04   5.8059395e-06   6.0978287e-04   1.0277112e-04  -2.1908333e-04  -8.6557928e-05  -4.4549957e-05   8.5496627e-05   6.9097191e-04  -1.3945742e-03  -1.5916406e-03  -4.2363719e-04  -2.0501162e-03  -1.5149204e-03  -6.6916124e-05  -1.0786195e-03  -1.2508995e-03  -7.9858833e-04  -6.6241482e-04  -9.1746985e-04  -3.5840721e-04  -7.1271689e-04  -1.6539566e-03  -6.9023768e-04  -1.6276411e-03  -5.7193154e-04  -2.0999371e-04  -1.0767377e-03  -4.0107427e-04  -8.4809551e-04  -6.4377917e-04  -9.3646377e-04
  -6.6386536e-04  -7.4845058e-04  -5.7526125e-04  -1.0476110e-03  -8.6769275e-04  -7.7865791e-04  -7.9586887e-04  -1.6244813e-03  -1.2930770e-03   8.2994055e-04  -6.0338684e-04   1.2777075e-03  -6.8743591e-04  -8.1987208e-04   2.4875978e-04  -8.1686233e-04  -6.7348103e-04  -2.3817987e-04   3.6155386e-04  -4.7069142e-04   4.8393846e-04   9.1358506e-06  -4.5225164e-04  -3.2976631e-04  -1.2737201e-03  -2.0231357e-04   5.8444910e-04  -8.5968320e-04  -2.2085418e-03  -5.3708110e-04  -7.1848190e-04  -7.9528778e-04   2.1370356e-04  -1.5924253e-03  -1.3332578e-03  -1.1291255e-03  -1.0107479e-03  -1.1009856e-03  -8.8962057e-05  -9.1084966e-04  -1.5746433e-03  -6.7202066e-04  -1.0695608e-03  -7.3613675e-04  -1.3914744e-03  -1.0950619e-03  -4.2098633e-04  -4.4467393e-04  -8.1148639e-04  -1.1197837e-03
  -9.8938274e-04  -1.0053804e-03  -9.9628558e-04  -1.2447550e-03  -9.9805323e-04  -1.1342013e-03  -9.4997411e-04  -1.1310697e-03   1.4220642e-04   5.6390581e-04  -7.0057862e-04   9.2046423e-04  -7.6490926e-04  -8.4263756e-04   1.7328958e-04  -9.4651146e-04  -9.2757837e-04   1.3120563e-04   2.4366916e-04  -4.3461384e-04   1.7549586e-04  -3.0408319e-04  -8.1044080e-04   1.3406384e-03  -9.5377641e-04   3.0370677e-05   6.5341685e-04  -1.3229758e-03  -1.7999758e-03  -7.3190255e-04   2.8166248e-04  -1.2223971e-03  -1.9855509e-04  -1.6244515e-03  -1.4211728e-03  -1.4807718e-03  -9.2207419e-04  -1.2812992e-03  -7.0137385e-04  -9.5363357e-04  -1.2995520e-03  -8.5333071e-04  -1.9617514e-03  -9.8455988e-04  -7.2631607e-04  -1.5791863e-03  -6.9902901e-04  -1.5975580e-03  -8.2094484e-04  -1.3068927e-03
  -1.2602268e-03  -1.3360613e-03  -1.4363937e-03  -1.6253737e-03  -9.5254282e-04  -9.9623087e-04  -1.1093287e-03  -1.2231545e-03  -1.5953031e-03   1.3923716e-04  -8.5706939e-04   7.2784157e-04  -8.6967071e-04  -9.2862680e-04  -2.3403014e-04  -3.3096710e-04  -1.0094052e-03   1.9108641e-04  -1.9358214e-03  -6.1473064e-04  -9.5308358e-05  -6.1995321e-04  -1.2335329e-03  -1.1390058e-04  -1.2189698e-03  -2.8705006e-04   4.7496482e-04  -1.3867671e-03  -1.9104002e-03  -9.1416662e-04  -3.8139168e-03  -2.0919000e-03  -8.8872435e-04  -1.7037934e-03  -1.7510399e-03  -1.2233363e-03  -1.3359905e-03  -1.5899477e-03  -7.4137049e-04  -1.2180812e-03  -1.3509579e-03  -9.9507999e-04  -1.5241997e-03  -9.7148569e-04  -8.2968932e-04  -1.2107535e-03  -6.3705264e-04  -1.1971658e-03  -8.3504646e-04  -1.2296792e-03
  -7.0883537e-04  -9.2624605e-04  -8.1315584e-04  -1.1308739e-03  -7.6852221e-04  -8.6895021e-04  -9.7150763e-04  -8.8339887e-04   2.5465075e-05   8.2073716e-04  -6.4881600e-04   1.0690980e-03  -7.4846228e-04  -9.1142324e-04   7.9354082e-05  -4.9146335e-04  -1.0144123e-03  -1.7241359e-04   2.6944594e-04  -3.1478467e-04   4.5835777e-04  -3.9117815e-05   1.2918536e-04   2.5662390e-04  -3.5555509e-04   8.9191584e-05   6.5562845e-04  -6.4577907e-04  -1.6461362e-03  -4.3383433e-04  -1.8430287e-04  -1.1612591e-03  -5.4336968e-04  -1.5690441e-03  -1.1400665e-03  -1.5145327e-03  -6.3020922e-04  -7.8499859e-04   3.7154739e-05  -5.3173280e-04  -1.4888168e-03  -6.7474926e-04  -1.7452465e-03  -4.3670079e-04  -5.7486823e-04  -7.3131226e-04  -2.9296643e-04  -2.5867901e-04  -4.8314885e-04  -7.5504999e-04
  -5.2631664e-04  -5.5826665e-04  -4.3965317e-04  -8.5265463e-04  -7.9799822e-04  -7.4427656e-04  -7.9983298e-04  -9.8211970e-04  -3.1224883e-04   9.9617697e-04  -5.1577418e-04   1.2735829e-03  -5.7308999e-04  -7.7351712e-04  -3.6626935e-04  -3.8303260e-04  -9.7716076e-04   1.9446749e-04  -5.2149879e-04  -1.4793141e-04   4.6395315e-04  -1.6329543e-05  -6.4941723e-04   4.0309824e-04   5.3487899e-04   3.4926779e-04   6.4930157e-04  -1.0621347e-03  -9.3112851e-04  -3.9817041e-04  -1.3380571e-03  -1.6062290e-03   5.8238249e-04  -1.0704430e-03  -1.0909413e-03  -9.7207795e-04  -7.4055488e-04  -8.8179705e-04  -1.5903944e-04  -7.2291098e-04  -1.5735177e-05  -4.9029919e-04  -1.6914023e-03  -5.9265591e-04  -7.1796658e-04  -7.5970613e-04  -2.7357315e-04   4.0406064e-04  -4.2246972e-04  -8.3517761e-04
  -7.0198579e-04  -7.7799248e-04  -7.8029506e-04  -1.0411424e-03  -6.8404007e-04  -8.0986519e-04  -1.0088655e-03  -6.8185810e-04  -2.1106722e-03   7.1190472e-04  -5.2330957e-04   1.1426113e-03  -6.6721695e-04  -7.2329125e-04   1.4441261e-04  -5.8744452e-04  -7.9709745e-04   1.2824714e-05  -1.4004402e-03   2.1406158e-04   2.6738737e-04  -2.1293633e-04  -6.6123612e-04   3.5013253e-04  -1.2855810e-03  -8.0158345e-05   5.2121736e-04  -1.2246855e-03  -1.2976314e-03  -5.8032962e-04  -2.8101692e-03  -8.1632601e-04   6.4537697e-04  -1.4527045e-03  -1.1201035e-03  -7.0265640e-04  -8.6129253e-04  -1.0917421e-03  -4.0656267e-04  -7.9202256e-04  -8.5339876e-04  -5.7874597e-04  -1.6523980e-03  -7.7151862e-04  -7.3927850e-04  -1.0460179e-03  -4.4510103e-04  -1.4238013e-03  -6.0313917e-04  -1.0722337e-03
  -9.5218077e-04  -1.0071282e-03  -1.1034886e-03  -1.3227282e-03  -3.9230988e-04  -1.0792022e-03  -1.2404186e-03  -8.6327107e-04  -2.3702241e-03   3.0328656e-04  -8.3123770e-04   9.4106875e-04  -7.8223035e-04  -8.1876840e-04   1.3309036e-04  -7.8892318e-04  -1.0114281e-03  -3.4537099e-04  -4.4319747e-04  -3.1524731e-04  -3.2464148e-05  -4.6949193e-04  -4.7413597e-04  -3.7329461e-04  -1.5212204e-03  -1.8274462e-04   4.4442908e-04  -1.2306568e-03  -2.0415119e-03  -7.6156447e-04   2.4705238e-03  -1.4916304e-03  -5.4425700e-04  -1.7046341e-03  -1.3073118e-03  -1.3391508e-03  -1.1162146e-03  -1.0807659e-03  -5.0241413e-04  -1.2176110e-03  -8.4904185e-04  -6.8534689e-04  -1.3803083e-03  -6.0658564e-04  -1.5152452e-04  -8.4739493e-04  -1.8191611e-04  -9.2193380e-04  -4.9890135e-04  -7.7255117e-04
  -5.3976959e-04  -4.6811008e-04  -3.9301239e-04  -6.8472518e-04  -3.4666443e-04  -5.1250291e-04  -7.8786828e-04  -9.2235929e-04  -6.8028166e-04   1.2017303e-03  -4.2807282e-04   1.0499272e-03  -5.0418713e-04  -7.6976896e-04  -5.1696989e-04  -6.7010573e-05  -8.8891742e-04   3.2922002e-05   3.7224664e-04  -2.4455885e-04   7.5038045e-04   3.9572222e-04  -9.4067340e-04   2.6600182e-04  -1.0478100e-03   3.8258507e-04   7.2510983e-04  -5.1243155e-04  -1.4366116e-03  -1.2185831e-04   6.3462550e-04   1.1486482e-04   2.0880338e-04  -8.9262077e-04  -7.3354755e-04  -1.0277005e-03   1.1950886e-04  -3.9245063e-04   3.3745554e-04  -6.1289081e-04  -1.6507600e-04  -2.8170538e-04  -1.1587669e-03  -1.9497049e-04  -4.4912283e-04  -1.0068719e-04   1.2241902e-04   1.7133549e-04  -1.1486406e-04  -3.7765392e-04
  -2.2889535e-04  -1.0470681e-04  -4.8193306e-05  -4.2676111e-04  -5.5617053e-04  -4.9542997e-04  -5.4122065e-04  -1.4540568e-04  -7.2623737e-04   1.2458289e-03  -1.6808993e-04   1.4859425e-03  -3.8593280e-04  -6.4330414e-04   8.2561339e-05  -4.3564763e-05  -8.2161475e-04   7.8941244e-05   5.2215264e-04   5.3640478e-04   7.3746493e-04   3.0276075e-04  -5.4745364e-04   1.1353730e-03  -5.0839951e-04   2.9473557e-04   7.2494714e-04  -5.9179019e-04  -1.0370740e-03  -1.2847352e-04   1.4124538e-03  -3.6417361e-04   4.5300936e-04  -6.2164868e-04  -6.5008010e-04  -1.0819334e-03  -6.6130808e-05  -4.1716779e-04  -2.4077910e-05  -3.2839863e-04  -6.8451936e-04  -2.6094005e-04  -1.2205798e-03  -4.1739131e-05  -3.3633356e-04  -3.3030979e-04   4.5979687e-05  -4.4590325e-04  -2.2754236e-04  -3.4481235e-04
  -1.8808448e-04  -2.3012428e-04  -5.0546089e-04  -6.7013252e-04  -5.0712185e-04  -6.4086361e-04  -5.8653171e-04  -6.6061242e-04   9.0238857e-05   8.9457637e-04  -1.7201950e-04   1.0644231e-03  -4.6400723e-04  -6.5224280e-04  -1.2123588e-04  -7.2974747e-04  -7.2322815e-04   2.2323904e-04   2.1512136e-03  -2.1737383e-04   5.4574589e-04   1.5156709e-05   5.8079946e-05  -2.6211843e-03   3.9088141e-04   4.0690941e-04   7.1031577e-04  -7.9994218e-04  -5.1879807e-04  -2.6454174e-04  -1.0780074e-03  -1.5797092e-03   2.0589909e-05  -1.0466159e-03  -7.4787490e-04  -1.2210956e-03  -6.0189958e-04  -6.1357080e-04   1.4487770e-04  -4.2470777e-04  -3.9701816e-04  -4.3036477e-04  -1.3561632e-03  -2.7157000e-04  -7.5129990e-04  -5.0111266e-04  -1.0157756e-04  -3.7035323e-04  -2.5003229e-04  -5.8317912e-04
  -7.4154959e-04  -6.0583733e-04  -7.3001126e-04  -9.8648504e-04  -4.9688009e-04  -4.6978856e-04  -7.8542897e-04  -8.0382370e-04  -1.1374813e-03   5.1635114e-04  -3.5587687e-04   9.0738473e-04  -4.5644608e-04  -6.8082515e-04  -3.6376809e-05  -7.1198802e-04  -8.8008685e-04  -7.7526158e-05   5.4855889e-05   1.9318151e-05   2.4221437e-04  -2.4071937e-04   2.9886662e-04   1.1365999e-04  -5.2497431e-04   2.5351258e-04   7.3685712e-04  -6.7907939e-04  -9.4934675e-04  -4.9038185e-04  -1.3399513e-03  -1.8151617e-03   6.7774567e-04  -9.9663809e-04  -9.0365839e-04  -1.0555137e-03  -5.6637096e-04  -8.6945860e-04  -1.6735596e-04  -9.1060664e-04  -7.6954899e-04  -7.6288829e-04  -1.4640249e-03  -5.4678827e-04  -3.6463593e-04  -7.8613701e-04  -2.9524445e-04  -1.4651651e-03  -5.8231520e-04  -8.1439421e-04
  -1.1759796e-03  -9.6773211e-04  -1.1210719e-03  -1.2876953e-03  -8.1172283e-04  -8.1416679e-04  -9.3929283e-04  -5.9234531e-04  -1.5393555e-03   6.8220269e-04  -4.5037240e-04   1.1213472e-03  -4.6488878e-04  -6.6458905e-04   3.7866578e-04  -5.2052084e-04  -7.3169777e-04  -6.1048340e-05   7.7898020e-04  -1.7166871e-05   5.9901836e-04   6.9074929e-05   5.1731034e-04   1.1846620e-03  -6.4842717e-04   4.4960473e-04   6.6662522e-04  -3.9142286e-04  -6.6903071e-04  -1.2543157e-04  -1.3105453e-03  -5.2832934e-04   5.5539113e-04  -7.7987625e-04  -6.6607271e-04  -1.0934848e-03  -1.4836263e-04  -1.7593945e-04   5.5062800e-04  -1.2505424e-04   6.3661726e-05  -4.1920863e-04  -4.9353432e-05   2.0555573e-05  -9.1511419e-04  -3.1693300e-04   3.7063728e-04  -2.9230802e-04   1.7274368e-04  -1.1116698e-04
   1.7286296e-04   1.1500451e-05  -1.7092339e-06  -4.2762209e-04   1.5764969e-04  -3.4001522e-04  -5.1127252e-04  -3.7283346e-04  -4.1219147e-04   1.1131811e-03  -5.4914937e-05   1.2012025e-03  -6.6222630e-05  -3.8876821e-04  -9.1841037e-05  -6.3999824e-04  -3.4680261e-04   2.5777420e-04   6.4421544e-04   1.1009018e-04   8.9044252e-04   3.7806729e-04  -2.4312720e-04   9.1812537e-05  -3.8939033e-04   8.5303653e-04   8.3115109e-04  -3.8970954e-04  -6.1101740e-04   6.2122694e-05  -5.4701045e-04  -1.2342234e-03   6.3082052e-04  -5.4106989e-04  -3.4513566e-04  -3.4948438e-04  -2.2945595e-04  -1.8544469e-04   2.1758756e-04   5.7361304e-04   3.6923750e-04  -3.4312863e-04  -7.3111686e-04  -2.5249085e-05  -3.3594045e-04   3.0563679e-04   3.3255538e-04  -2.4974692e-04   6.6734763e-05  -1.9880419e-05
  -2.0281815e-04  -6.1716528e-05  -1.2158410e-04  -4.8114004e-04  -1.4064700e-04  -4.0016507e-04  -4.3817793e-04   2.9748102e-04   3.0666411e-05   8.8244386e-04  -6.4492204e-05   1.1970798e-03  -6.8498863e-05  -3.6367070e-04   1.9674379e-04  -3.0948655e-04  -2.4148244e-04   3.4445280e-04  -3.7057805e-04   1.8738612e-04   7.3168392e-04   7.2166076e-05   1.7922722e-04   8.4685104e-04   3.1097338e-04   7.6147169e-04   8.9180359e-04  -8.2491565e-04  -1.3802544e-03  -6.7625821e-05   3.7687635e-03  -4.9656595e-04   2.4835506e-04  -5.1555759e-04  -4.2167789e-04  -5.7140866e-04  -1.1602307e-04  -3.0966513e-04   2.1345602e-04  -2.0316601e-04   8.0032063e-05  -2.9262609e-04  -8.2449475e-04  -8.8133173e-05  -1.5538088e-04   2.4730506e-04   1.6536894e-04   4.8921932e-04   4.7236740e-06  -2.7945169e-04
  -5.8281870e-04  -3.7238223e-04  -6.2689622e-04  -7.6994114e-04  -6.2380405e-04  -5.5882201e-04  -8.0294535e-04  -9.5753238e-04   8.3682220e-04   5.2587502e-04  -2.4795716e-04   1.0116225e-03  -1.5530652e-04  -3.4225217e-04   1.6115958e-04  -4.4524309e-04  -2.3854560e-04   1.9949955e-04   1.8323536e-04   4.7593671e-04   4.2860050e-04  -1.4085206e-04  -1.8247475e-04   8.0214284e-04   2.8769873e-04   6.1913725e-04   7.5046963e-04  -7.4819330e-04  -3.5729510e-04  -3.0810459e-04  -2.2717906e-04  -1.4746985e-03  -1.3236821e-04  -8.9632074e-04  -5.9919764e-04  -1.0902352e-03  -4.4497394e-04  -6.5124390e-04  -2.9563209e-05  -3.8772804e-04  -1.1659699e-03  -7.1015983e-04  -1.7181371e-03  -2.6168863e-04   7.6675460e-05  -3.7459191e-04  -1.3825441e-04  -2.0197951e-03  -3.5675595e-04  -5.2703632e-04
  -8.1475946e-04  -7.7515957e-04  -1.1305112e-03  -1.1011048e-03  -7.0982985e-04  -5.4384320e-04  -8.2059385e-04  -8.5101195e-04  -1.8936924e-03   1.2841068e-04  -6.2065478e-04   5.4633187e-04  -3.8901684e-04  -4.8172552e-04  -3.1023918e-04  -6.8541226e-04  -6.3277519e-04   6.9517753e-04   1.3679630e-03  -5.0317345e-04   1.4756019e-04  -3.8475913e-04  -1.3446467e-04  -3.0748558e-04   1.2982765e-04   4.9738761e-04   6.7657552e-04  -7.2834379e-04  -1.0691460e-03  -4.9176713e-04  -3.3862574e-03  -9.1210031e-04   1.2296591e-04  -1.0154190e-03  -6.5592834e-04  -3.3207578e-04  -5.7086226e-04  -4.7481738e-04  -8.4472440e-06  -8.7669441e-06   2.2547449e-04  -4.1472481e-04  -9.9755940e-04   2.7872689e-05   2.3536025e-04  -2.1449006e-04   1.7199578e-04   8.5128448e-04  -5.5793424e-07  -3.1129387e-04
  -1.4603473e-04  -1.1845748e-04  -3.6556856e-04  -4.3381142e-04  -2.2209558e-04  -4.0729492e-04  -5.4106966e-04  -9.7064866e-04  -1.2968380e-03   1.0258830e-03  -2.0204321e-04   1.1158342e-03  -1.7764635e-04  -5.0123670e-04   6.0128391e-04  -6.8971957e-04  -6.7927461e-04   3.4609513e-04  -1.0048175e-03   5.5838970e-04   8.8984176e-04   4.3244250e-04   1.9503223e-04  -4.0751341e-04   1.1579967e-04   6.6570530e-04   7.1244000e-04  -2.9860801e-04  -8.1917137e-04   1.0301606e-04  -1.4824911e-03  -4.1285710e-04   6.1894004e-04  -4.3132392e-04  -2.5918082e-04  -1.5105888e-04   3.2108673e-04  -1.2166164e-06   2.8378447e-04   3.3361801e-05   1.0309302e-04  -2.2166161e-04  -1.6270229e-04   3.0724154e-04  -1.4066264e-04  -3.6095262e-05   3.3253650e-04   1.3094364e-03   8.8541005e-05  -2.1911217e-06
   8.8067129e-05   9.2112685e-05   1.7098358e-04  -2.4446831e-04  -3.6093080e-04  -3.6892295e-04  -5.6295237e-04  -5.8973103e-04   6.7805144e-04   9.4628549e-04  -1.2588770e-04   1.0673831e-03  -1.1412960e-04  -4.1214959e-04   3.3703100e-04  -1.8107591e-04  -6.6322280e-04   4.2949378e-04  -1.7713637e-03   7.0835056e-05   8.4149424e-04   3.4364010e-04   4.2326836e-04   2.6856544e-05   1.5476919e-04   5.7200517e-04   7.2530663e-04  -5.1638979e-04  -8.0120104e-04   6.6245411e-05  -1.1910542e-03  -4.2620179e-04   2.6020795e-04  -3.8281429e-04  -3.8580422e-04   2.7943624e-04   2.1537406e-04  -1.2701035e-04   4.9315993e-04   1.0659924e-04  -6.1196019e-04  -3.6202304e-04  -6.1375252e-04   1.4630168e-04  -8.1597414e-04   5.2829389e-05   1.7867764e-04   4.0931534e-04  -3.5370533e-05  -6.5137327e-05
  -3.8238973e-04  -2.1498775e-04  -2.2347314e-04  -5.4322544e-04   2.9236899e-05  -4.8315540e-04  -5.9274817e-04  -1.0681717e-03  -2.2680410e-04   5.8936386e-04  -1.9688095e-04   7.4178888e-04  -1.1881943e-04  -5.4429867e-04   2.4551689e-05  -2.9431185e-04  -5.0300162e-04   1.5447784e-04  -2.6894483e-04   3.0950550e-04   5.8859459e-04   1.5533721e-04  -4.8546033e-04  -1.3796382e-03  -8.0309593e-04   7.9011539e-04   6.8129943e-04  -6.5647945e-04  -1.2392411e-03  -7.5354190e-05   6.2178785e-04  -5.1736087e-04   1.4526461e-04  -6.6751149e-04  -3.9557857e-04  -5.2000664e-04  -3.6580642e-04  -4.3832534e-04   3.7945789e-05  -3.8653502e-04  -1.1496668e-03  -6.3961250e-04  -1.7475711e-04  -1.3033858e-04  -2.7403454e-04  -3.9954341e-04  -8.9827307e-05  -7.5936332e-06  -3.4081968e-04  -4.4433802e-04
  -8.1749138e-04  -5.8264186e-04  -6.3448108e-04  -9.5881365e-04  -3.3569918e-04  -5.3304830e-04  -9.4275584e-04  -1.2486000e-03  -2.6643238e-04   1.3583229e-04  -5.6359632e-04   2.8794698e-04  -3.3446075e-04  -5.8027031e-04   4.4368318e-04  -8.0966443e-04  -5.5908191e-04   2.1182801e-04  -6.3621177e-04  -7.3346237e-05   1.9304841e-04  -1.6259053e-04  -3.9867690e-04  -4.9607141e-04  -3.5014311e-03   6.0618692e-04   5.2509888e-04  -8.4686116e-04  -1.2677540e-03  -3.2652309e-04  -3.1923971e-03   1.9178742e-04  -3.3532802e-04  -1.0372226e-03  -6.0994382e-04  -6.3085009e-04  -6.4910954e-04  -4.2065803e-04   1.1027548e-04  -3.2915358e-04   1.4047032e-04  -6.9699762e-04  -1.5803298e-03   8.1442020e-05  -4.2769866e-04  -2.8915299e-04   6.6997694e-05   1.3483569e-03   7.1573020e-05  -1.5492727e-04
  -2.2775642e-04  -1.2772747e-04  -8.7231085e-05  -3.6718042e-04  -1.5787128e-04  -4.4656874e-04  -3.7386912e-04  -6.8524299e-04  -2.3012499e-04   9.2283543e-04  -2.2582614e-04   1.1125060e-03  -9.0766232e-05  -5.4765074e-04   3.3040528e-04  -3.3819029e-04  -4.0311893e-04   2.0486880e-04   1.1555500e-04   8.0780016e-04   9.5477520e-04   4.7793629e-04   1.0632824e-04   4.6582054e-04   1.8723756e-04   9.2207186e-04   6.7225081e-04  -3.0411300e-04  -3.5376273e-04   3.8567386e-04   4.0689559e-04   6.8195775e-05   5.2529719e-04  -1.3741972e-04   5.1119878e-05   3.5733773e-04   2.8549164e-04   2.7339123e-04   7.8680646e-04   4.6485491e-04   5.5758451e-04  -4.8872217e-04  -4.3970274e-04   3.6769008e-04  -3.6946245e-04  -3.6044457e-05   4.0376507e-04   1.3001715e-03   2.2379927e-04   2.1583487e-04
  -3.0318362e-05   1.5333593e-04   1.2762802e-04  -1.0598004e-04  -2.1558767e-04  -9.4224029e-05  -5.0493988e-04  -3.5000619e-04   4.6396014e-04   9.6844987e-04  -1.0357366e-05   1.1454569e-03   1.3941691e-05  -4.1361043e-04   2.3442958e-04  -5.0038961e-04  -3.0575195e-04   2.4965935e-04  -1.6273771e-03   7.2376191e-04   8.8409131e-04   4.2126860e-04   8.2145078e-04   6.6021306e-04   4.6035646e-05   8.6344266e-04   6.6886813e-04  -3.5931086e-04  -6.9661887e-04   3.5145713e-04  -4.5844965e-04  -3.2796309e-04  -6.2839235e-06   1.4118242e-06   6.8093184e-05   6.5464620e-04   2.5382391e-04   2.0403192e-04   6.3950283e-04   2.7347135e-04   1.0204469e-03  -3.4288462e-04  -1.4736962e-04   2.9076808e-04   4.6248510e-04   1.5787700e-04   3.7083318e-04   1.2323625e-03  -8.8811168e-05   1.1332698e-04
   1.6274719e-06  -4.6604375e-05  -2.9629233e-04  -3.4779863e-04  -3.7565865e-04  -4.0912029e-04  -6.5489643e-04  -8.3888537e-04  -8.7622355e-04   6.7498750e-04  -1.8216083e-04   9.4700814e-04  -1.5102768e-04  -4.3277742e-04   2.5933940e-04  -9.5859758e-04  -5.0542451e-04   5.3095509e-04  -2.1549106e-04   2.4513627e-04   5.9613405e-04   2.0469603e-04   1.0747105e-04  -4.2322397e-04   3.5218091e-04   9.2471216e-04   6.7155401e-04  -6.3322586e-05  -1.3566825e-03   1.6882675e-04  -1.3489163e-03  -2.6527859e-04  -4.3603490e-04  -3.9432317e-04  -6.4728265e-05  -9.4661467e-05  -1.7248886e-04  -1.2673314e-04   3.1234507e-04   2.1302476e-04   5.6441705e-04  -8.2290696e-04  -4.2119474e-04  -5.1502535e-05  -2.7096376e-04  -2.0210333e-04   1.3582889e-04   1.2683085e-03  -2.6119387e-04  -3.0946781e-04
  -5.9279811e-04  -4.1936751e-04  -7.0157176e-04  -7.1101298e-04  -4.8370947e-04  -4.2187635e-04  -5.7187799e-04  -3.8940998e-04  -1.0472483e-03   2.3334254e-04  -4.0892101e-04   6.0260127e-04  -1.6663250e-04  -5.1315071e-04   1.7261840e-04  -4.5200688e-04  -3.3376392e-04   2.8019125e-04   7.6451327e-04   1.0964285e-04   1.9971810e-04  -2.6765963e-04   3.2855052e-04  -1.1374464e-03  -7.8843627e-04   6.7001744e-04   5.0522888e-04  -7.3045981e-04  -7.0005393e-04  -7.9586978e-05   2.5710749e-04  -3.2860503e-04  -2.5093171e-04  -5.8176916e-04  -4.5586150e-04   2.2385137e-04  -3.6819937e-04  -4.5115864e-04   7.3163250e-07   4.3714863e-05  -6.5793813e-04  -8.7128073e-04  -4.2367127e-04  -3.0199275e-04  -4.8166880e-04  -7.1826435e-05  -1.4951611e-04   7.3395763e-04  -5.3625717e-04  -6.4779021e-04
  -9.6423918e-04  -8.2177483e-04  -9.0830290e-04  -9.7281864e-04  -3.3199156e-04  -4.4065929e-04  -7.5967814e-04  -8.4282813e-04  -1.3530732e-04   4.5883961e-04  -5.7930796e-04   4.6345877e-04  -2.4934579e-04  -5.1294925e-04   2.3983579e-04  -5.2472705e-04  -2.4430748e-04   4.2143065e-04  -6.2518047e-06   2.3718012e-04   4.7495466e-04   1.1742485e-04   6.5825094e-04   7.9578412e-04   6.6105771e-04   7.5490691e-04   7.3884113e-04  -3.1695294e-04  -8.7145093e-04   1.9944018e-04   7.7802321e-04   3.2170804e-04   6.4664689e-04  -6.2112929e-04  -1.8037956e-04   3.9155644e-04  -1.8834831e-04   6.9301313e-05   5.6604890e-04   5.6619203e-04  -4.0971374e-04  -5.5925921e-04  -6.6658453e-04   8.7228451e-05  -8.9562658e-05   1.3443817e-04   3.8595442e-04   1.3892642e-03  -4.8689995e-05   4.0371764e-05
  -9.3603003e-06   4.6679343e-05   2.6547047e-04  -1.3811648e-04   1.4284441e-04  -3.4114742e-04  -2.3346135e-04  -5.3581264e-04  -1.3075840e-04   9.3804108e-04  -1.1021185e-04   9.6377562e-04  -9.0990361e-05  -4.2983567e-04   7.5342820e-04  -1.5558723e-04  -1.9922553e-04   2.0291533e-04   7.3230726e-04   5.7157374e-04   6.8490533e-04   2.1928025e-04   5.8144354e-04   1.7241342e-03  -5.9279363e-04   8.5208518e-04   7.4166205e-04  -3.1273792e-04   2.7818055e-04   3.6481427e-04  -1.3019370e-03   2.0609540e-04   6.6967658e-04  -1.1978327e-04  -2.1824782e-05  -3.4674801e-04   2.5833240e-05   1.4414349e-04   4.9799081e-04   5.1551068e-04   5.4470327e-04  -6.5665715e-04  -1.0291997e-03   7.7373988e-05   1.5169983e-04  -4.0991532e-04   3.7776961e-04   4.7145598e-04  -9.8881275e-05  -5.7927256e-05
   7.5322947e-05  -3.9028550e-05  -9.4004608e-05  -2.7181394e-04  -6.7925901e-04  -3.7534707e-04  -3.9282400e-04  -1.1378892e-03  -9.7963540e-04   6.9069752e-04  -1.2757487e-04   7.7349786e-04  -8.2747130e-05  -3.7460553e-04   4.2197292e-04  -3.2880224e-04  -2.5843462e-04   9.2320879e-05   1.0748804e-03   1.2278702e-04   4.6583780e-04   1.9942051e-04   8.2748313e-04  -4.2130443e-04  -1.2595231e-03   6.4052420e-04   6.6129881e-04  -3.9707927e-04  -7.9628167e-04   1.8789276e-04   1.4765906e-03  -6.7580811e-04  -5.0274056e-04  -5.4942473e-04  -1.4548907e-04  -3.3168070e-04  -1.6897835e-04  -1.5104804e-04  -7.2065532e-06   3.2629792e-04  -5.3494895e-04  -7.2541175e-04  -1.2512117e-03   2.1091910e-05   6.0400835e-05   2.5747388e-04   1.6901099e-04   6.9634791e-04  -2.5024966e-04  -3.7220743e-04
  -3.2042188e-04  -4.1513680e-04  -4.6085910e-04  -6.2218128e-04  -4.6174027e-04  -5.4645451e-04  -7.4351730e-04  -7.7541958e-04  -1.0437896e-03   2.9616448e-04  -3.4980715e-04   4.3254992e-04  -1.3048756e-04  -4.5439263e-04   4.1145922e-04  -7.9104665e-04  -3.7764802e-04   1.9358183e-04   6.2493904e-04  -3.8512811e-04   1.9345754e-04  -2.7372851e-04  -7.8468576e-05   4.6538702e-05   2.9288194e-04   8.5749291e-04   6.2893331e-04  -6.6938816e-04  -1.3289726e-03  -7.6872719e-05   7.7276933e-04  -1.2080509e-03  -1.1482788e-03  -8.4919529e-04  -3.4043586e-04  -3.7952408e-04  -3.8958251e-04  -4.8406585e-04   7.1633447e-05   3.3414815e-04   7.9851779e-05  -8.7121030e-04  -8.8454771e-04  -3.8564403e-04  -5.3989829e-04  -3.7470367e-04  -1.4202476e-04   1.2389205e-04  -5.4413662e-04  -8.0527324e-04
  -8.9181139e-04  -6.9965492e-04  -1.1730311e-03  -1.0251962e-03  -6.2483369e-04  -6.0907868e-04  -7.2063337e-04  -1.0085530e-03  -5.7926710e-04  -1.9379376e-04  -6.9139636e-04   7.8002224e-05  -2.5149432e-04  -6.0682622e-04   7.3505979e-04  -5.7399861e-04  -2.2719883e-04   1.4554053e-04  -1.0350019e-03   6.6383640e-05   5.2525593e-05  -2.6425975e-04   3.2393556e-04  -1.2814854e-03  -1.0571054e-03   6.7227887e-04   5.5814983e-04  -4.5419956e-04  -6.4238376e-04  -3.3036627e-05   5.1518314e-04  -6.1906379e-04   2.9260264e-04  -4.5861973e-04  -3.6693746e-04  -1.5265294e-04  -5.1969462e-05  -1.3963816e-05   6.3847902e-04   4.4131279e-04  -1.8468730e-03  -9.5065119e-04  -1.4379319e-03  -3.3058933e-07   2.1916455e-04  -5.1012557e-05   1.8489909e-04   1.8083121e-03  -3.1902458e-04  -1.4383758e-04
  -1.7011167e-04  -1.3527528e-05  -1.5620208e-04  -2.6490833e-04  -3.5714224e-04  -4.8917806e-04  -5.0446956e-04  -8.4528752e-04  -1.0262334e-04   6.5132696e-04  -2.3147259e-04   6.6213263e-04  -5.2191885e-05  -4.7229123e-04   1.2675762e-04  -7.4848149e-04  -3.2278406e-04   4.7081138e-04   8.0708193e-04   3.2480629e-04   5.0187961e-04   2.1594793e-04   6.2369928e-04  -2.3622802e-05  -1.6219424e-04   8.5811544e-04   5.7233899e-04  -3.7741879e-04  -6.4911408e-04   2.5477653e-04  -1.1504734e-03  -8.3676405e-04   7.2958399e-05  -4.3805613e-04  -1.3515276e-04  -1.4267852e-04   6.6806722e-05   1.4706679e-04   7.1766879e-04   3.1361388e-04  -5.5763416e-04  -7.3024537e-04  -3.4070149e-04   1.5629172e-04  -2.3983998e-04  -1.0109202e-04   3.4825879e-04   3.4226148e-04  -3.5382513e-04  -8.5062020e-05
  -3.4268954e-04  -5.7333255e-05  -2.1803028e-04  -3.6204542e-04  -3.0672807e-05  -6.1759737e-04  -4.7305346e-04  -4.0787639e-04  -3.1724194e-04   4.2360660e-04  -2.1816873e-04   4.2868583e-04   5.7725123e-05  -4.9859995e-04   5.4331007e-04  -2.9921756e-04  -2.0605561e-04   4.5041739e-05   1.2680031e-03  -1.6837879e-04   3.4429051e-04  -3.6246714e-05   6.6131569e-04   5.9353182e-04  -1.7013173e-03   8.9621934e-04   6.0115184e-04  -8.4826967e-04  -7.5686938e-04   1.3285853e-04   1.4436353e-03   3.8542174e-04  -4.3152543e-04  -4.7153057e-04  -2.3593003e-04  -2.0970931e-04  -9.2927730e-05  -1.6719608e-04   3.0644107e-04   1.8275248e-05  -1.4001589e-03  -9.5363369e-04  -8.8909105e-04  -8.2909930e-05  -2.0412404e-05  -2.3313628e-04   2.0350027e-04  -5.3669344e-05  -3.1249260e-04  -2.8132071e-04
  -5.0472468e-04  -3.3727847e-04  -3.8378182e-04  -6.5706519e-04  -4.6353778e-04  -4.9550663e-04  -6.0193363e-04  -9.9363409e-05  -7.0884463e-04   8.7287051e-05  -3.4154856e-04   2.2674716e-04  -8.6781780e-05  -4.8633080e-04  -5.9472437e-05  -6.9737982e-04  -3.7285607e-04   2.7987079e-04   1.8969985e-03  -5.8649608e-04   6.6735651e-05  -1.3160141e-04   9.8073629e-05   6.9066242e-05   4.3728310e-06   7.1178190e-04   5.5801717e-04  -5.9153693e-04  -1.2898302e-03  -1.2851824e-04  -2.4871584e-03  -1.4040192e-03  -9.0970885e-04  -7.8715914e-04  -4.7593346e-04  -7.2918786e-04  -4.9648102e-04  -5.2957557e-04  -1.6773884e-05   2.7721637e-05  -4.7764942e-04  -9.9745160e-04  -9.3257870e-04  -4.0256497e-04  -7.2622130e-04  -6.3547725e-04  -2.7605378e-05   5.0809316e-04  -5.1837898e-04  -6.4557348e-04
  -9.1958937e-04  -7.0031494e-04  -9.9157845e-04  -1.0505032e-03  -6.9405534e-04  -8.3538028e-04  -8.9205854e-04  -7.2288665e-04  -1.3196360e-03  -3.3716910e-04  -5.4486783e-04  -2.3950533e-04  -2.4053016e-04  -5.6907092e-04   3.2130373e-04  -8.3835411e-04  -5.3443492e-04   1.4013145e-04  -9.3706691e-04  -1.0043607e-03  -2.3409678e-04  -5.1967712e-04   3.7262420e-04  -9.9368987e-04  -1.0000715e-03   4.0056335e-04   4.2083586e-04  -9.8447583e-04  -1.6276656e-03  -3.6704078e-04  -2.1196208e-04  -7.8988675e-04  -2.4615580e-04  -9.7636122e-04  -6.1032706e-04  -5.1407609e-04  -6.3475122e-04  -3.5893690e-04   2.2478517e-04   4.8386675e-05   8.5293730e-05  -9.3005173e-04  -1.2916857e-03  -2.5596598e-04  -1.3033564e-04  -3.8268571e-04   3.1037119e-04   1.6576067e-03  -3.2712307e-04  -2.0014260e-04
  -2.9193430e-04  -6.9401460e-05  -2.8856474e-04  -3.8516847e-04   2.3342884e-04  -3.6974903e-04  -5.9899653e-04  -8.6065452e-04  -7.7729148e-04   6.2457944e-04  -1.8164555e-04   4.1974435e-04  -1.1718869e-05  -4.9523421e-04   1.8328908e-04  -6.5551087e-04  -3.6353784e-04  -4.8544687e-05   2.7934226e-04  -1.6024633e-04   5.1201659e-04   1.3359330e-04   5.3233269e-04   7.7908213e-04   7.2614645e-04   6.7626045e-04   4.6499009e-04  -1.0336075e-04  -6.5343478e-04   2.7812252e-04  -3.2634146e-03  -8.1453699e-04   7.6106830e-05  -5.7737436e-04  -1.8118708e-04  -4.7180857e-04   1.3250958e-04   8.1259685e-05   7.6912646e-04   2.6104850e-04   4.7312086e-04  -7.5413461e-04  -1.0531206e-03   1.3387964e-04  -7.1193033e-04   2.0647206e-04   5.7773164e-04   7.1787328e-04  -1.3462568e-04   6.3685693e-05
  -5.8985985e-05   1.2163923e-04  -1.3389775e-04  -2.3540812e-04  -5.2643317e-04  -2.9738591e-04  -3.6617130e-04   6.3262436e-05  -8.8577057e-05   6.3042884e-04  -5.4029038e-06   6.1722513e-04   1.3323192e-04  -4.2323524e-04   1.7622559e-04  -4.7932466e-04  -2.6416930e-04   9.5252115e-05  -2.8135701e-05  -1.6438874e-04   4.6239173e-04   1.7227816e-04   9.9751470e-04  -2.0955966e-04   1.0560280e-04   9.4752567e-04   5.2984216e-04  -3.4291969e-04  -8.6218660e-04   1.6376845e-04   1.2107232e-03  -5.3823291e-04   5.4901547e-04  -5.4264558e-04  -1.3351065e-04  -5.3666817e-04   9.8768087e-06  -9.8911849e-05   2.8129647e-04   4.1650105e-04  -1.0176031e-03  -6.7172822e-04  -9.9056645e-04   5.3596472e-05  -1.4952573e-03  -5.0479901e-04   4.4764110e-04  -2.4782825e-04  -1.7406089e-04  -8.7097160e-06
  -4.7025294e-04  -1.5612181e-04  -4.0485908e-04  -5.6414469e-04  -3.7730573e-04  -4.6164647e-04  -4.5697828e-04  -1.0094354e-03   1.3780579e-03   2.1335257e-04  -1.7560179e-04   3.9723661e-04   4.2920408e-05  -4.4751403e-04  -4.2106793e-05  -6.8575016e-04  -2.4849433e-04   3.3611542e-04  -1.7876166e-04   1.3239785e-04   2.2297128e-04  -7.6370270e-05   6.7973218e-04   1.6866755e-04  -7.3008070e-04   8.8793837e-04   5.7880214e-04  -6.7270023e-04  -1.1959216e-03  -4.3992975e-05   5.4480252e-04  -1.1999752e-04  -1.4068992e-04  -5.8151374e-04  -3.4280308e-04  -5.9386453e-04  -4.6429384e-04  -3.7818795e-04   1.7296145e-04   1.0071407e-04  -2.2311405e-04  -8.4687042e-04  -1.4832579e-03  -1.3682459e-04  -1.1028196e-03  -4.9263466e-04   2.6492725e-04  -1.8469377e-04  -2.9793874e-04  -3.6045664e-04
  -8.9055032e-04  -5.3896388e-04  -7.7523920e-04  -9.5441117e-04  -4.3374885e-04  -7.2557753e-04  -9.5283007e-04  -1.1573504e-03  -1.3598464e-03  -2.1798580e-04  -3.9793632e-04  -1.3661830e-04  -8.3640305e-05  -4.8783940e-04   1.1350500e-04  -6.5959850e-04  -1.4520314e-04   4.3188271e-04   1.0484329e-03  -3.4499436e-04  -1.0464736e-04  -4.9480086e-04   1.5073924e-04  -1.3448773e-03  -7.8643870e-04   5.9534435e-04   6.2832935e-04  -7.3791388e-04  -1.4365874e-03  -3.4816950e-04   1.0131187e-03  -2.1880267e-04   3.8215573e-04  -9.8134694e-04  -6.4419111e-04  -8.4015384e-04  -6.9896341e-04  -7.6672959e-04  -4.0169639e-04  -5.5613316e-04  -1.0902032e-03  -1.2385454e-03  -6.9012714e-04  -3.5624494e-04  -2.8224906e-04  -1.5408068e-03  -9.1601287e-05  -1.3304506e-04  -7.3805579e-04  -7.0157257e-04
  -1.2135636e-03  -1.0278383e-03  -1.4796461e-03  -1.3366765e-03  -7.2053226e-04  -7.7769434e-04  -9.3266432e-04  -1.4176945e-03  -2.1838516e-04  -5.8301059e-05  -4.7132609e-04  -6.3653722e-05  -1.7653210e-05  -3.9421715e-04  -3.7360795e-05  -6.4204022e-04  -8.7931992e-05   3.5088035e-04   6.2829966e-04   1.8430607e-04   1.6266825e-04  -2.4844226e-04   1.0117681e-03  -6.6133995e-05   8.2503312e-04   9.5298269e-04   5.0311984e-04  -4.5209873e-04  -1.1156312e-03  -1.0448720e-04  -4.5546948e-04  -2.2348383e-04   2.1498953e-04  -7.6602324e-04  -3.7509596e-04  -4.3602812e-04  -2.9320538e-04  -2.1039037e-04   2.5716703e-04   2.6182909e-04  -9.9370642e-05  -7.5611268e-04   5.0725345e-04   2.1511079e-05  -3.9031188e-04  -4.0689710e-04   5.0317735e-04   1.4034796e-03  -1.8743247e-04   5.4655306e-05
  -3.3147930e-04  -7.8548685e-05   3.5187335e-05  -4.3576342e-04  -4.0869709e-04  -3.4343763e-04  -5.7037431e-04  -7.0849674e-05  -7.1452826e-04   4.1784617e-04  -2.2156001e-04   4.7051520e-04   1.7217694e-04  -3.3971822e-04   7.1757520e-04  -4.6356834e-04  -1.5093236e-04   4.1982488e-04   1.0521758e-03  -2.3257270e-04   4.0013227e-04   5.7749305e-05   2.8338676e-04  -4.8021576e-04  -4.0278578e-04   7.9110469e-04   6.8186043e-04  -7.1213325e-04  -8.5669028e-04   2.9078643e-05  -1.0120401e-03  -5.8483361e-04   4.9958663e-04  -5.1001878e-04  -3.0122741e-04  -2.2544345e-05  -3.8242729e-06  -1.9439205e-04  -6.7775160e-05  -8.3354844e-06   7.5672375e-05  -5.1371881e-04  -5.1945681e-04   2.6982882e-05   2.4960187e-04  -3.1662220e-04   4.8655609e-04   4.5640382e-04  -2.1183537e-04  -1.4388260e-04
  -3.9207336e-04  -2.0065405e-04  -6.0141331e-04  -5.6960079e-04  -4.6203207e-04  -4.4487207e-04  -5.1168929e-04  -1.2553907e-03  -5.8995537e-04   2.5993263e-04  -2.0100857e-04   4.9385097e-04   1.3751432e-04  -3.3084696e-04   4.4445778e-04  -3.0608123e-04  -7.0920985e-05   2.9620048e-04  -1.8084290e-03  -7.0912370e-06   1.8034474e-04  -2.2379072e-04   8.6470699e-04   4.7818609e-04   3.8716549e-04   9.3621248e-04   6.2271970e-04  -6.6009554e-04  -1.4012062e-03  -1.8263941e-04  -9.7384496e-04   2.6759520e-04   6.2439336e-05  -4.4638978e-04  -4.7056857e-04  -3.9989609e-04  -2.3912660e-04  -3.9329799e-04   2.3347078e-04   7.6759912e-05   5.3857703e-04  -6.0905708e-04  -6.1309652e-04  -8.6240158e-05  -4.1139984e-04  -4.9831200e-04   3.3032137e-04  -9.2080294e-04  -4.0522643e-04  -3.7705747e-04
  -8.9227333e-04  -5.7456311e-04  -8.4754196e-04  -9.3266723e-04  -6.7885965e-04  -5.4509530e-04  -8.5453759e-04  -9.8402984e-04  -1.7978052e-04  -9.7419026e-05  -3.1422800e-04   3.3771593e-04  -1.7640912e-06  -3.7724394e-04   2.8265661e-04  -5.6045863e-04  -3.0395991e-04   6.5336458e-04   5.2100618e-04  -6.3437474e-04  -1.1749588e-04  -5.2326237e-04   1.0506080e-03  -1.2214442e-03   5.8408943e-04   5.3660211e-04   5.2468380e-04  -1.0026315e-03  -1.4512416e-03  -4.3747548e-04  -8.4142305e-04  -6.6391600e-04  -4.6138896e-04  -9.8702998e-04  -6.1404856e-04  -5.7452603e-04  -6.8883138e-04  -7.7545334e-04  -5.2034389e-04  -1.6601291e-04   1.0243097e-04  -8.6200814e-04  -1.1150247e-03  -4.6026547e-04  -3.6457076e-04  -5.0528301e-04   1.0438501e-04  -3.9195298e-04  -8.2897628e-04  -6.4305554e-04
  -1.1095329e-03  -9.0596935e-04  -1.3444523e-03  -1.2656086e-03  -4.7720777e-04  -7.5426896e-04  -1.1262998e-03  -1.6711403e-03  -2.0189872e-03  -5.2018702e-04  -7.7211251e-04  -2.5673307e-04  -1.2721684e-04  -4.6696208e-04   2.5116434e-04  -8.5086032e-04  -3.7742569e-04   6.6814660e-05  -6.7945308e-04  -9.3386625e-04  -3.9403400e-04  -6.0631236e-04   2.9651259e-05  -1.2827787e-03  -2.8289147e-04   3.4914698e-04   3.4152457e-04  -8.6246943e-04  -9.7862270e-04  -5.8360957e-04   1.3820813e-03  -1.7927474e-03  -5.4961327e-04  -1.0430808e-03  -6.7090959e-04  -9.6425414e-04  -9.8254264e-04  -5.1497051e-04  -6.9418847e-06  -2.9684717e-04  -5.9212610e-04  -6.0745509e-04  -2.0523260e-03  -2.3550310e-04  -1.3885925e-04  -9.8821113e-04   4.2431834e-04   5.4988168e-06  -3.3309672e-04  -3.1535749e-04
  -6.8059331e-04  -3.7367846e-04  -5.1928323e-04  -5.7505909e-04  -9.5261974e-05  -4.3404847e-04  -6.6409580e-04   4.3650420e-05  -1.0416035e-03   3.8747949e-04  -3.0502997e-04   4.7024098e-04  -4.1077023e-05  -4.4506596e-04   5.5600121e-04  -2.8052958e-04  -2.3665522e-04   6.4916821e-05  -1.9652662e-03  -1.9756916e-04   1.0821110e-04  -8.9027249e-05   5.7326721e-05  -3.8134742e-05   6.1082543e-04   4.6607861e-04   5.5990100e-04  -6.9931720e-04  -1.1126974e-03  -1.9090420e-04  -1.9169352e-03  -6.8350276e-04  -4.7501290e-04  -4.9994263e-04  -4.6647631e-04  -8.0633746e-04  -2.6754121e-04  -3.9682951e-04   7.7181416e-05  -1.1346042e-04  -4.1765970e-04  -6.3612789e-04  -8.3170080e-04   2.9325920e-05   8.1874512e-04  -3.2186849e-04   4.7538331e-04   1.5844828e-04  -3.0265420e-04  -2.7826123e-04
  -4.6588454e-04  -3.4618453e-04  -6.0393231e-04  -6.1784312e-04  -4.4103852e-04  -2.9413312e-04  -5.7775446e-04  -1.2688588e-03  -7.4242847e-04   1.2433686e-04  -2.7691259e-04   3.2896610e-04  -3.8787231e-05  -3.5250720e-04   9.8905839e-05  -7.2760711e-04  -2.9844471e-04   2.3679130e-04   7.5597968e-04  -1.3960185e-04   1.0193565e-05  -2.3853862e-04   1.5266937e-04   2.2823871e-03  -3.0549031e-04   2.9257499e-04   5.4251490e-04  -1.0018018e-03  -6.2162173e-04  -2.9753419e-04  -1.2782589e-03   3.3082863e-04  -8.9037238e-04  -6.1318732e-04  -4.9140025e-04  -5.7618836e-05  -3.6479140e-04  -5.6847133e-04  -3.6662503e-04  -3.4307229e-04   6.8260721e-05  -7.4122747e-04  -8.9535351e-05  -3.2575990e-04  -8.8174222e-04  -3.3517383e-04   2.3939039e-04  -2.2663645e-04  -5.0771353e-04  -4.9597520e-04
  -8.8058261e-04  -6.8932882e-04  -1.0061465e-03  -9.7727659e-04  -7.8809523e-04  -5.9041317e-04  -8.8655506e-04  -7.9825212e-04  -4.1739622e-04  -2.5660169e-04  -3.8006468e-04  -1.3467553e-04  -3.9323997e-05  -4.2005867e-04   7.4552096e-05  -5.9767172e-04  -2.1880724e-04   1.2385866e-04   2.4155595e-03  -1.4297203e-04  -2.8522359e-04  -6.1930390e-04   8.8959472e-04  -2.1936630e-03  -3.0088500e-04   3.4529588e-04   4.8684241e-04  -1.0759633e-03  -1.0610963e-03  -5.2453059e-04  -1.1081289e-03  -6.2616455e-04  -1.2853895e-03  -9.0418634e-04  -7.4333133e-04  -7.9213787e-04  -6.4697175e-04  -9.0508716e-04  -5.8211904e-04  -9.2438271e-04  -2.7069089e-04  -8.4263715e-04  -1.3587269e-03  -5.4111978e-04  -6.0112018e-04  -7.6062011e-04  -1.5878768e-05  -5.7940582e-05  -7.5043150e-04  -7.8044395e-04
  -1.3265464e-03  -1.0435813e-03  -1.5667954e-03  -1.3633510e-03  -1.0813273e-03  -8.2345866e-04  -8.1000698e-04  -1.0756545e-03   1.2723627e-05  -7.4088509e-04  -7.7641447e-04  -4.7372992e-04  -1.9330894e-04  -6.0436205e-04  -1.1387371e-04  -6.2430289e-04  -3.7219259e-04  -1.3930460e-04  -1.4639905e-03  -5.5062887e-04  -5.8682234e-04  -7.1422989e-04   3.8548533e-05  -1.3563617e-03  -7.4268167e-04   3.0801207e-04   2.0577508e-04  -1.2248436e-03  -2.0184596e-03  -7.4288173e-04   5.0218438e-04  -1.1726738e-03  -1.1018050e-03  -1.2849506e-03  -8.7189488e-04  -1.7899643e-03  -1.1385866e-03  -1.0386622e-03  -7.1053643e-04  -6.0414505e-04  -4.3475948e-04  -1.0848105e-03  -1.1810616e-03  -4.1113675e-04  -7.0543872e-04  -1.0417199e-03   2.3378685e-04   1.9592191e-04  -5.5481092e-04  -4.8583688e-04
  -8.3422987e-04  -4.4725349e-04  -3.7391856e-04  -7.0376421e-04  -6.3358888e-04  -7.5066043e-04  -7.3349482e-04  -3.5415229e-04  -7.9193735e-04   1.2011844e-04  -3.6398781e-04   3.4280118e-04  -1.7406227e-04  -5.2765192e-04   1.4171028e-04  -5.9481786e-04  -3.5268112e-04   2.7409595e-04   5.2453345e-04  -7.0018915e-04   1.3176556e-04  -1.2624863e-04   5.8525644e-04  -1.4827132e-03  -2.6444742e-04   4.4346837e-04   3.9977703e-04  -4.7906139e-04  -7.3841680e-04  -1.1758825e-04   1.2888788e-04   1.2167385e-04   3.3738627e-04  -5.5092684e-04  -2.8723472e-04  -3.7134078e-04  -7.0683181e-04  -2.9807884e-04   1.3885216e-04  -1.8867894e-04  -2.5952654e-04  -5.6417612e-04   1.9703178e-04  -1.3052132e-04  -7.1486505e-04  -3.8816882e-04   6.2959851e-04   4.5971232e-04  -3.0032464e-04  -1.7920592e-04
  -1.4652610e-04  -2.2998011e-04  -4.1067609e-04  -3.2363596e-04  -4.1657742e-04  -4.2440768e-04  -8.0069533e-04   1.4692036e-04  -6.0370925e-04   4.7665933e-04  -1.6969866e-04   4.5853207e-04  -8.8588065e-05  -4.2146657e-04   9.1882903e-05  -3.3451442e-04  -6.3047640e-04   3.1805827e-04  -2.7190120e-04   6.1515236e-04   1.1119433e-04  -4.8092883e-05   5.5838010e-04  -9.2245074e-04   6.6842069e-04  -9.0610547e-06   5.7772582e-04  -6.9396629e-04  -7.9731882e-04  -2.0253375e-04  -1.6864779e-03  -1.0517031e-03  -5.4916966e-04  -3.3828343e-04  -3.2296183e-04   3.5988956e-04  -2.0763776e-04  -4.2117373e-04  -1.9403532e-04  -3.1982269e-04  -3.6079020e-04  -2.3555553e-04  -1.5618141e-03  -2.2540902e-04   2.6606763e-04  -5.8490067e-04   4.9099029e-04  -1.8807115e-04  -3.4018487e-04  -3.2963420e-04
  -7.5971562e-04  -4.4571067e-04  -7.1359513e-04  -5.9993385e-04  -3.9907542e-04  -5.0822395e-04  -6.7524618e-04  -6.0024433e-04  -2.5279887e-05   1.6269184e-04  -2.4965117e-04   2.2890112e-04  -1.6771888e-04  -5.1748747e-04   4.7319790e-04  -3.3525753e-04  -3.6857871e-04   3.4961989e-04   7.1704952e-04  -5.3409836e-04  -3.3285210e-04  -3.4599981e-04   1.5452466e-05   3.6068674e-04  -1.0972652e-03   6.4966240e-05   2.3828963e-04  -7.2022469e-04  -7.5636717e-04  -3.6508212e-04  -1.8056618e-03  -1.8336523e-03  -2.1542881e-04  -7.0435414e-04  -4.6659791e-04  -6.0628203e-04  -5.9657008e-04  -6.4033578e-04  -3.8142441e-04  -4.7829404e-04  -2.0189733e-04  -4.0929933e-04  -4.9427792e-04  -3.1460877e-04  -3.7225691e-04  -7.0618175e-04   2.4556150e-04  -6.8076898e-04  -6.3203555e-04  -6.0646737e-04
  -1.1274886e-03  -8.5944316e-04  -9.3672884e-04  -1.0569288e-03  -3.0325679e-04  -5.1064318e-04  -8.4159401e-04  -7.6373992e-04  -8.4900513e-04  -3.3881981e-04  -4.7304036e-04   2.5852950e-04  -4.0602346e-05  -5.4501387e-04   4.8282585e-04  -4.1891637e-04  -1.5486791e-04   6.7643014e-05   4.5788978e-04  -5.7417183e-04  -7.8331749e-04  -1.0108156e-03   5.9989019e-04  -8.7206205e-04  -1.4557578e-03   4.2670417e-05   1.7166646e-04  -1.1126138e-03  -8.1659865e-04  -5.8495440e-04  -6.4075430e-04  -1.2470235e-03  -8.3860644e-04  -1.1823424e-03  -7.8240596e-04  -5.6563673e-04  -1.1635848e-03  -1.0336527e-03  -8.3967950e-04  -6.9268001e-04  -8.5149746e-04  -8.0629083e-04  -2.3155035e-03  -7.3626294e-04  -1.4399869e-03  -9.7136653e-04  -1.2631643e-04  -3.1851188e-04  -9.0128364e-04  -9.6747885e-04
  -1.5597556e-03  -1.3082802e-03  -1.5661558e-03  -1.5508983e-03  -1.0627458e-03  -7.0121331e-04  -9.7190111e-04  -1.0321722e-03   1.0347200e-04  -5.7102932e-04  -7.8572845e-04  -3.6599312e-04  -1.7016471e-04  -5.6420331e-04  -3.3792148e-05  -4.5719076e-04   7.0212045e-06   1.6592928e-04  -1.6566754e-04  -6.5732561e-04  -5.8861490e-04  -8.6187362e-04   3.7151636e-04  -7.6798321e-04   1.1248291e-04   2.4014553e-04   1.4314833e-04  -8.7259139e-04  -8.6068589e-04  -4.1246283e-04  -2.9011455e-03  -1.8041412e-03  -1.8879179e-03  -6.0189789e-04  -5.5195851e-04  -9.7498903e-04  -6.0347404e-04  -5.2645983e-04  -2.4590688e-04   7.6227894e-05  -6.1580807e-04  -5.9264433e-04  -1.6412730e-04  -3.0001582e-04   2.5330434e-04  -2.0471400e-04   4.3263202e-04  -7.1776751e-04  -3.0188402e-04  -3.4854611e-04
  -4.1535127e-04  -3.7531380e-04  -3.8714282e-04  -5.3712318e-04  -4.6209185e-04  -4.1727343e-04  -4.6701630e-04  -9.6733018e-04   4.7018271e-04   2.3969385e-04  -3.6234129e-04   3.0371716e-04  -7.3629872e-06  -5.1562925e-04   2.9063300e-05  -8.4985117e-04  -6.0678187e-05   3.1498386e-04  -8.2214345e-04  -4.7318023e-04  -2.4270035e-04  -5.4648571e-04  -3.2722895e-05  -1.1115564e-03   6.7552004e-04   2.4129247e-04   3.2958100e-04  -4.8431990e-04  -1.2121905e-03  -2.2720202e-04   8.7488262e-04   2.0738100e-04  -3.8080083e-04  -7.5799407e-04  -3.3974528e-04  -5.7596399e-04  -2.4191257e-04  -3.6202979e-04   1.2160552e-04  -2.5292489e-04  -2.6656360e-05  -2.7053733e-04  -1.5256343e-03  -2.5437132e-04  -4.4257256e-05  -6.6860528e-05   4.8882270e-04   7.3737366e-04  -2.4147080e-04  -2.0803780e-04
  -6.3650619e-04  -3.5375674e-04  -4.9683399e-04  -5.8636430e-04  -4.7357421e-04  -4.4326458e-04  -7.2297966e-04  -6.2999857e-04   7.1992457e-04   6.0144030e-05  -2.3371287e-04   3.6679712e-04  -9.1609190e-06  -3.8551594e-04   4.7360532e-04  -1.4027096e-04  -2.8592680e-05   5.0095766e-04   3.3887682e-04   1.4939184e-04  -3.8026701e-04  -6.8489945e-04   1.9115189e-04  -5.3382834e-04   1.1435275e-04   3.9395218e-04   3.4086712e-04  -6.3705357e-04  -9.3540561e-04  -3.9525703e-04   3.4569993e-03  -1.5047377e-04  -1.1907994e-03  -7.3803944e-04  -4.7130109e-04  -5.0160417e-04  -4.0994622e-04  -6.5618189e-04  -3.1786039e-04  -2.4398531e-04   1.0587891e-03  -3.8475302e-04  -8.8984624e-04  -3.2383707e-04  -5.0845533e-04  -3.2856740e-04   3.5815925e-04   1.9441659e-04  -3.5189325e-04  -5.1263592e-04
  -8.4515475e-04  -6.8004284e-04  -7.3831447e-04  -8.4377732e-04  -8.8117446e-04  -6.0852338e-04  -8.5451198e-04  -8.8232168e-04   1.0340086e-04  -1.8173843e-04  -3.8660876e-04   1.0901039e-04  -1.4033839e-04  -4.6986394e-04   4.8347494e-05  -4.3892804e-05  -2.5101181e-04  -1.1414126e-04  -2.8463954e-04  -5.9989979e-04  -6.6835247e-04  -8.0541353e-04   2.6700625e-04  -3.0781547e-04  -1.6457254e-05  -1.0971373e-04   2.6234362e-04  -7.6885131e-04  -1.3611732e-03  -6.3618727e-04  -2.0776780e-03  -3.4195869e-04  -1.1407841e-03  -1.0774443e-03  -7.3710928e-04  -9.7683631e-04  -7.6228101e-04  -9.6186041e-04  -8.5060933e-04  -1.0322346e-03  -3.3024829e-04  -5.1830307e-04  -1.5129803e-03  -7.4122974e-04  -6.6258525e-04  -7.0967188e-04   1.0906720e-04   1.2980262e-04  -6.2576705e-04  -8.7656535e-04
  -1.0820979e-03  -1.1073250e-03  -1.1026477e-03  -1.2345315e-03  -1.0617264e-03  -7.4094516e-04  -7.9804088e-04  -1.3618959e-03  -1.1062942e-03  -5.0553487e-04  -6.3090562e-04  -1.6832069e-04  -3.7408646e-04  -5.4712855e-04  -2.5790534e-04  -5.6717941e-04  -3.5631980e-04   2.2142626e-04  -1.0656278e-03  -7.9233560e-04  -9.9433330e-04  -1.2034946e-03  -6.2495726e-04  -5.0102576e-04  -4.0024245e-04  -3.3687850e-04   2.8950136e-04  -1.0811562e-03  -1.4024223e-03  -8.6565997e-04  -6.2967662e-04  -8.2825538e-04  -1.2473385e-03  -1.4559110e-03  -8.6510746e-04  -6.4213667e-04  -8.8489678e-04  -9.7428437e-04  -5.5627170e-04  -6.6337438e-04  -1.3123145e-03  -3.6224988e-04  -5.1749928e-04  -4.7559143e-04  -1.7254104e-04  -3.9569818e-04   2.8692296e-04   5.0151092e-04  -3.5262838e-04  -6.3319487e-04
  -7.8632252e-04  -5.0912157e-04  -5.6216557e-04  -6.2957557e-04  -4.3022408e-04  -3.5698479e-04  -6.9929083e-04  -6.7898398e-04   4.8514482e-04   2.2933923e-04  -3.6987537e-04   2.6024267e-04  -1.9480484e-04  -5.2567915e-04   1.3444219e-04  -4.3300199e-04   1.4051110e-05   9.5587980e-05  -6.6623313e-04  -2.2483175e-04  -4.3354958e-04  -6.8669539e-04   6.3752691e-04   1.6587189e-03   3.1147813e-04   2.6698379e-05   3.7721489e-04  -5.6039391e-04  -1.4057808e-03  -3.5652777e-04   2.2902070e-04  -1.0365151e-03  -2.4223945e-04  -8.8612462e-04  -5.1812961e-04  -6.6726637e-04  -4.8696506e-04  -5.3432002e-04  -2.6549379e-04  -2.7998915e-04   1.6232360e-04  -2.2048900e-04  -1.6746063e-03  -3.6935168e-04   2.2396303e-04  -6.9359853e-04   3.9127254e-04  -4.7054773e-04  -2.7096071e-04  -2.9351108e-04
  -7.0885802e-04  -3.7159902e-04  -4.5696695e-04  -6.2210025e-04  -7.1893883e-04  -6.3423254e-04  -7.1207888e-04  -8.3714497e-04  -9.8830578e-04   1.3844717e-04  -2.5093718e-04   3.7693747e-04  -1.5174662e-04  -4.8334248e-04  -7.4750045e-05  -7.9076871e-04  -1.8115403e-04   6.6278844e-05   4.5266130e-04  -4.3414545e-04  -4.3607320e-04  -6.7718327e-04   1.1134423e-04  -9.2539133e-04  -1.3441111e-04  -3.4180473e-04  -4.7928063e-04  -5.6499522e-04  -2.7220318e-04  -2.0486905e-04  -1.5640372e-03  -1.0664344e-03  -1.1106605e-04  -5.8401044e-04  -1.3092770e-04  -5.9108174e-04  -6.5288303e-04  -7.0746487e-06  -5.7543814e-04  -4.8442831e-04   1.9118535e-04  -2.0575693e-05  -4.3510122e-04  -5.5651454e-04  -9.6881326e-04  -6.7661033e-04  -1.4227815e-04  -2.3255705e-04  -5.0927466e-04  -6.4666203e-04
  -8.2455727e-04   5.6682245e-05  -7.0180243e-04  -5.2788493e-04  -1.0288240e-03  -4.2642752e-04  -1.0502946e-03  -3.9647747e-04   5.8662076e-04   4.4047227e-04  -1.7773838e-05   1.2430240e-04  -2.3615520e-04  -8.7664381e-04  -1.3043520e-04  -8.9802983e-04  -5.0358352e-04  -2.9107259e-04  -1.4124948e-03  -7.9312891e-04  -9.3635282e-04  -1.1543278e-03   5.0025759e-04   1.4291258e-04  -1.3035957e-03  -3.1788854e-04  -7.8852667e-04  -7.3165324e-04  -1.0724110e-03  -4.6870438e-04  -3.3938489e-03  -5.4480758e-04  -4.6523788e-04  -1.0122459e-03  -3.5248449e-04  -8.4762822e-04  -9.5299777e-04  -6.1840337e-04  -1.1431397e-03  -8.9483097e-04  -1.5874357e-03  -6.1994285e-04  -2.0685964e-03  -6.4853742e-04  -8.4650703e-04  -1.3281279e-03  -3.6480042e-04  -1.0025849e-03  -8.2201225e-04  -8.4810617e-04
  -1.1668863e-03  -7.2414940e-04  -1.4935017e-03  -9.8178815e-04  -7.5279287e-04  -5.8600260e-04  -9.5801160e-04  -1.0837733e-03  -1.8701446e-04  -2.8314686e-04  -4.8689364e-04  -3.9142059e-04  -4.1832001e-04  -9.0334029e-04  -2.6828103e-04  -1.0092322e-03  -3.9024468e-04  -7.9167621e-05  -2.2149782e-03  -8.4574980e-04  -1.1385614e-03  -1.3973436e-03   9.4640549e-05  -2.4254876e-04  -8.3505129e-04  -6.9164630e-04  -9.2477084e-04  -7.7251543e-04  -9.5730636e-04  -7.7423576e-04  -1.4548226e-03  -2.0567277e-03  -2.0497288e-03  -1.7170713e-03  -7.2461495e-04  -1.4226042e-03  -8.1888668e-04  -1.0570285e-03  -1.3884126e-03  -1.3259524e-03  -2.0518684e-05  -8.6487574e-04  -4.4952446e-04  -8.5898652e-04  -3.4472912e-05  -1.4909348e-03  -2.5206892e-04  -3.4708297e-04  -7.1500102e-04  -9.3737699e-04
  -7.3538977e-04  -4.7055128e-04  -7.7891588e-04  -4.0754711e-04  -9.1274374e-04  -5.9283333e-04  -5.8753323e-04  -5.8641843e-04  -1.0170286e-04   4.1985296e-04  -2.7169666e-04   7.6237295e-05  -3.5938047e-04  -8.6986681e-04  -2.4615403e-04  -9.6944568e-04  -7.2714058e-04  -5.5717753e-04   3.0319265e-04  -7.0024404e-04  -5.2572961e-04  -7.7669759e-04  -3.1758013e-06  -3.4554148e-04  -2.1275620e-03  -6.4275309e-04  -8.9139468e-04  -2.8591714e-04  -4.5196287e-04  -2.1160058e-04   1.1669006e-03  -5.8901118e-04  -6.2825211e-04  -4.5128612e-04  -7.1269016e-05  -2.8611103e-04  -1.4565492e-04  -6.4002184e-06  -4.5830355e-04  -2.0884168e-04   3.0335446e-04  -1.6098582e-04  -4.8352705e-04  -2.2875486e-04  -4.7226463e-04  -8.1109494e-04   2.5561263e-04   4.1277756e-04  -1.7102403e-04  -3.6254126e-04
  -4.3944325e-04   6.6426219e-05  -1.5296847e-04   4.9437658e-05  -8.3109300e-04  -4.1567598e-04  -4.2981023e-04  -6.4684142e-04   4.6473992e-04   6.1762950e-04   4.4124183e-05   2.8536355e-04  -1.5307225e-04  -7.3488784e-04  -1.0004269e-04  -9.9831866e-04  -4.4117536e-04  -2.8322192e-04   9.9893054e-04  -1.1903622e-04  -2.8968413e-04  -5.9445138e-04   6.4901268e-04  -1.6187254e-03  -8.6611387e-04  -3.8639430e-04  -6.2577886e-04  -3.3063858e-04  -9.6218468e-04  -1.2495939e-04   3.9871022e-04  -4.0858021e-04  -1.0866548e-03  -5.2587071e-04  -1.3922436e-04  -5.8494543e-04  -8.5569010e-04  -6.8821682e-05  -4.3964994e-04  -3.0091830e-04   2.8479091e-04  -3.2577783e-04  -3.3274238e-04  -1.9270385e-04  -5.7163631e-04  -2.3694178e-04   2.7127194e-04  -5.6351372e-04  -3.9675660e-04  -3.5445104e-04
  -6.1378063e-04  -3.1234438e-05  -3.3291127e-04  -2.1047170e-04  -7.5333612e-04  -2.5381113e-04  -5.5832474e-04  -4.7919372e-04   1.7439430e-03   9.0872723e-05   1.7133238e-05  -2.4482204e-05  -1.3846489e-04  -6.8917795e-04   4.3526379e-04  -9.4697386e-04  -1.2202127e-04  -3.3766063e-04   5.6145276e-04   1.5495718e-05  -5.5522000e-04  -7.5586478e-04   3.6605218e-04  -4.2405058e-04   4.2355157e-04  -6.0546433e-04  -5.9035874e-04  -4.6580893e-04  -3.7130970e-04  -3.4275706e-04   2.1386377e-03  -4.3983111e-04   1.3535250e-04  -5.3530047e-04  -3.4679571e-04  -4.7679807e-04  -6.0689519e-04  -4.6018674e-04  -8.5335149e-04  -5.9792172e-04  -2.6746790e-04  -4.9928221e-04  -5.2256411e-04  -5.7054614e-04  -1.0531122e-03  -9.3652762e-04   3.9585968e-05   1.5630925e-05  -5.5508624e-04  -6.2461413e-04
  -9.3661284e-04  -4.8939156e-04  -7.2782178e-04  -6.3937559e-04  -8.3141366e-04  -4.4159047e-04  -6.4714160e-04  -9.1359951e-04  -5.0292036e-04  -4.1658132e-04  -4.0291646e-04  -4.3579622e-04  -1.9105707e-04  -5.9170462e-04  -3.0418904e-04  -7.8231166e-04  -1.5326275e-04  -5.5138757e-05   1.5541833e-04  -6.0096837e-04  -8.6990779e-04  -1.1532366e-03   6.2010135e-04  -1.6782909e-03  -6.6245993e-04  -4.5286605e-04  -6.8767689e-04  -5.9188332e-04  -6.0643576e-04  -6.5710954e-04   6.9250044e-04  -1.2029253e-03  -9.2842535e-04  -8.8154519e-04  -6.6652679e-04  -8.5512002e-04  -6.3631259e-04  -9.8671135e-04  -1.3541522e-03  -9.9396298e-04  -1.2798874e-03  -7.3089247e-04  -1.0469964e-03  -7.5416779e-04  -8.2587858e-04  -1.2850441e-03  -2.9646925e-04  -1.0328299e-03  -9.2730246e-04  -1.0407306e-03
  -1.4397219e-03  -1.0290475e-03  -1.2833156e-03  -1.1425676e-03  -9.2703803e-04  -9.5517782e-04  -9.4782299e-04  -1.0907860e-03   2.8534353e-04  -8.7772560e-04  -6.1839155e-04  -6.4727664e-04  -3.2558056e-04  -6.2380813e-04   4.1147872e-04  -8.7230734e-04  -1.3299829e-04   1.0995149e-04   2.0779278e-04  -6.9267530e-04  -8.3850138e-04  -1.2531428e-03  -1.8430103e-04  -8.8227633e-04   5.9841311e-04  -5.7647290e-04  -4.0740974e-04  -1.0004794e-03  -1.1534418e-03  -6.1336224e-04  -1.6354859e-03  -9.6244976e-04  -1.1036631e-03  -7.6526887e-04  -5.6821725e-04  -2.4930818e-04  -5.8903528e-04  -3.8600562e-04  -8.1841397e-04  -5.5756047e-04  -2.7816850e-04  -2.8690958e-04  -5.0419715e-04  -3.8797120e-04  -6.3894055e-04  -9.0985908e-04   2.3463841e-04  -6.6295627e-04  -4.2077297e-04  -5.2547734e-04
  -2.5287070e-04  -1.7629062e-04  -4.1804585e-04  -1.5742927e-04  -5.0159631e-04  -6.0144556e-04  -4.4139152e-04  -9.4581378e-04   8.9707255e-04   2.8615282e-04  -2.1113845e-04   3.8340755e-04  -1.4630225e-04  -5.2651559e-04   3.3955279e-04  -7.8065263e-04  -3.3533688e-05  -3.8327492e-04  -3.8041975e-04  -4.9763196e-04  -3.4947513e-04  -5.3296075e-04   3.3383249e-04  -7.7839667e-04   5.3539453e-04  -1.6547556e-04  -5.1984843e-04  -3.7707575e-04  -5.4380967e-04  -2.8544603e-04  -2.6307506e-03  -6.3015352e-04  -9.5353078e-04  -1.6464319e-04  -2.7089883e-04  -7.2128378e-04  -6.2170986e-04  -2.1064898e-04  -4.5547099e-04  -3.5953085e-04  -2.4708861e-05  -1.9325357e-04  -7.9143525e-04  -7.6822944e-05   5.3051882e-04  -3.7075134e-04   3.9941759e-04   4.9300282e-04  -2.8342823e-04  -3.9977339e-04
  -3.8463992e-04  -1.7237877e-04  -1.4491647e-04  -1.7289878e-04  -4.1831841e-04  -4.2586328e-04  -4.9919059e-04  -4.7102603e-04   5.1458954e-04   1.3174328e-04  -1.3913796e-04   3.0577410e-04  -1.2630921e-05  -4.8692894e-04  -2.5989593e-04  -6.4069626e-04  -1.3583417e-04  -1.6892095e-04  -4.0371608e-04  -4.2467314e-04  -4.4684592e-04  -5.5236742e-04   2.0225019e-04   2.3207956e-04  -7.0425012e-04  -1.7513311e-04  -3.5799487e-04  -6.8011071e-04  -8.5544284e-04  -3.4181576e-04  -1.3663636e-03  -6.0931168e-04  -1.2564223e-03  -2.9348279e-04  -3.7134060e-04  -8.7001722e-04  -7.3452736e-04  -3.3576720e-04  -6.6054938e-04  -7.2748319e-04  -1.0376584e-04  -2.3347176e-04  -5.1992002e-04  -2.7979439e-04  -4.0826804e-04  -1.0061145e-03   1.1271763e-04   2.9718821e-04  -4.2282153e-04  -4.4126864e-04
  -6.0299336e-04  -5.2101264e-04  -6.2367629e-04  -4.5176363e-04  -4.4918840e-04  -1.8446786e-04  -4.8173967e-04  -1.4918695e-04  -1.6673806e-04  -2.2749063e-04  -2.3266004e-04  -1.8948124e-04  -3.2054686e-05  -5.3209648e-04  -2.4202559e-04  -8.9085975e-04  -9.9280856e-05  -2.1480948e-04  -1.0073774e-04  -2.8235969e-04  -6.6780200e-04  -8.3939225e-04  -2.3895105e-04  -1.5983834e-03   6.0925056e-04  -1.5305329e-04  -5.2808743e-04  -4.5097520e-04  -6.4020068e-04  -4.8563656e-04  -2.1402540e-03   2.5339681e-04  -2.9663727e-04  -6.6985621e-04  -4.9482362e-04  -6.7098183e-04  -7.1669905e-04  -5.1648618e-04  -6.2456343e-04  -7.8938884e-04   3.0100968e-04  -5.9594453e-04  -7.9597562e-04  -5.9115491e-04  -2.8925306e-05  -5.1431643e-04  -2.0060310e-04  -9.5249392e-04  -7.6208462e-04  -6.8792352e-04
  -1.1206780e-03  -8.3034270e-04  -9.8898239e-04  -8.7064627e-04  -7.0389337e-04  -5.4084870e-04  -8.8630879e-04  -1.2011557e-03  -1.4690650e-03  -6.8174372e-04  -5.1218073e-04  -4.0668971e-04  -2.1546944e-04  -6.2205148e-04  -3.6497109e-04  -4.1101302e-04  -1.5538090e-04  -7.3383941e-05   8.5389981e-04  -6.4074231e-04  -9.3057734e-04  -1.0064868e-03   4.7732672e-05  -1.5135346e-03  -2.9177887e-03  -3.5382455e-04  -5.7970505e-04  -5.9573702e-04  -9.2082936e-04  -6.3038716e-04  -1.2694178e-03  -1.1991340e-03  -1.4608391e-04  -6.6784152e-04  -5.0235336e-04  -6.0263381e-04  -6.6873746e-04  -2.6779884e-04  -5.8236893e-04  -5.4001348e-04   4.9615523e-05  -5.6345743e-04   2.2124719e-04  -1.7527104e-04  -4.9073569e-04  -5.0780235e-04   1.5090789e-04  -1.1052471e-04  -3.6034116e-04  -4.1054370e-04
  -6.1047392e-04  -1.6760340e-04  -1.7018733e-04  -1.1757998e-04  -9.9000470e-05  -1.4971325e-04  -3.5029449e-04  -7.2167540e-04  -1.4405049e-04   1.7116922e-04  -5.0382499e-05   1.1976037e-04  -8.6742970e-05  -4.4547839e-04  -2.7316838e-04  -4.6743924e-04   4.2833111e-05  -1.5156476e-04  -1.0328089e-03  -3.6215037e-04  -2.1076732e-04  -4.8946816e-04   7.6600240e-04  -1.5750510e-03   8.0135040e-05  -3.0928240e-05  -4.3547433e-04  -4.0389702e-04  -4.7707907e-04  -9.6311029e-05  -4.9141643e-04  -2.7920312e-04   2.8780836e-04  -2.7992757e-04  -1.1174603e-04   8.6272412e-05  -5.3862081e-04   1.8214884e-04  -3.3453485e-04  -1.0644874e-04   8.8450295e-04  -4.3302632e-04  -1.6107649e-04   1.9146301e-04  -1.8476754e-04   5.6985082e-06   3.1631836e-04   1.0223845e-03  -1.5917109e-04   1.3852419e-04
  -1.8695767e-04   4.9805974e-05  -3.1342541e-04   9.7475049e-06  -7.4310921e-04  -2.1108479e-04  -3.5976540e-04  -6.7842094e-04  -8.6263049e-04   9.2100083e-05   4.4637891e-05   1.1929170e-06   7.1289236e-05  -4.0115995e-04  -6.5011834e-04  -4.2247624e-04   4.7107307e-05  -1.7329745e-04  -7.7195768e-04  -4.6559720e-04  -2.6706565e-04  -3.5997279e-04  -1.4868235e-04  -4.2063853e-04   1.8942282e-04  -2.0482512e-04  -1.1899141e-03  -2.0932293e-05   3.6243102e-04   4.3925393e-05  -1.0773217e-03   3.5387545e-04   2.3239796e-04  -3.1351624e-04   1.8407431e-04  -6.5151753e-04  -2.9941616e-04   4.6283763e-04  -3.2704236e-04  -2.9296425e-04   9.7768781e-05  -2.8507059e-04  -4.2200534e-04  -1.6510174e-05  -3.1730774e-04   3.7274822e-05   7.2826391e-05   2.7885346e-04  -3.2513752e-04  -3.2591957e-04
  -5.6093367e-04  -5.0329989e-05  -5.0348166e-04  -6.4720320e-05  -6.3002948e-04  -1.8719910e-04  -2.1624408e-04  -1.6166238e-04   1.3972415e-03  -2.7566773e-04  -4.1748368e-05  -2.0985457e-04  -7.0481215e-06  -5.3767354e-04  -5.2539411e-04  -7.4271485e-04  -1.1700923e-04  -8.3996053e-04   9.4487180e-04  -2.9576168e-04  -3.4480548e-04  -5.4641149e-04  -1.2146904e-04  -3.4808891e-04  -1.7781847e-04  -3.2239241e-04  -8.7062182e-04  -6.4576957e-06   6.1974817e-05  -1.5362632e-04  -2.5407888e-04   2.3803691e-04   8.4597443e-05  -3.5006000e-04  -6.5774439e-05  -7.1557914e-04  -5.0761114e-04  -9.1360809e-05  -5.6996266e-04  -1.6758312e-04   1.5477321e-04  -6.5273774e-04  -6.0417870e-04  -3.4287118e-04  -2.2109591e-04  -5.9380551e-04  -1.6210257e-04   1.0850047e-04  -7.1458961e-04  -6.1727618e-04
  -9.4561500e-04  -4.7492801e-04  -8.5198140e-04  -4.2687650e-04  -6.5656606e-04  -3.1387096e-04  -3.3370536e-04  -5.6928262e-04   2.2807684e-04  -5.1364885e-04  -2.7723212e-04  -2.3059297e-04  -1.7896281e-04  -5.8558868e-04  -7.2984182e-04  -1.0850312e-03  -1.8081893e-04  -7.7260955e-04   6.2957988e-04  -6.3834299e-04  -6.6226494e-04  -7.1548234e-04   4.9022033e-06   3.2660452e-04  -9.3425205e-04  -6.2890438e-04  -1.0147149e-03  -6.2547158e-04  -5.4881227e-04  -3.7786245e-04  -3.4796054e-04  -1.1630799e-03  -9.2284445e-04  -4.8512980e-04  -3.2807485e-04  -6.3936523e-04  -7.3211157e-04  -4.7762992e-04  -9.2658272e-04  -6.6619634e-04  -4.6654890e-04  -7.1098492e-04  -9.3234278e-04  -6.6654483e-04  -5.7577784e-04  -9.5133012e-04  -1.0277678e-04  -1.4132807e-04  -6.1974535e-04  -4.9891969e-04
  -7.0497784e-04  -1.8682798e-04  -3.3482790e-04  -1.6564893e-05  -5.3626142e-04  -2.2379433e-04  -1.1275298e-04  -6.3217583e-04   6.6769926e-04   4.3938078e-05  -5.3119049e-05  -5.4755092e-05  -1.0928151e-04  -5.6438672e-04  -2.1243326e-05  -8.3802373e-04  -2.1261227e-04  -5.3714210e-04   1.4235151e-04   7.3379546e-05  -5.8064856e-05  -1.6304100e-04   1.2467930e-04   1.6544740e-04  -1.3820691e-03  -3.2155355e-04  -7.6427730e-04  -1.1209530e-04   9.1753370e-04   4.9089784e-05  -2.1859651e-05  -5.9827277e-04   7.5744273e-04   7.3598814e-05   9.7806682e-05  -5.9936132e-04  -3.6953841e-04   4.1626598e-04  -8.6727741e-05  -5.8794576e-05  -8.7695895e-05  -2.5062141e-04  -4.3618208e-04   1.6967172e-04  -4.7011735e-04  -1.9481462e-04   3.3778648e-04   4.5932009e-04  -1.4685058e-04   8.1265338e-05
  -4.0098431e-04   2.4260377e-04  -5.6377699e-05   3.0828352e-04  -9.0130547e-05   1.2892521e-04  -1.8041040e-04  -1.8880665e-04   1.3456796e-03   2.9572484e-04   2.2839663e-04   3.4333108e-04   8.2409380e-05  -3.0480101e-04   3.6852236e-06  -2.7468303e-04   7.8555538e-05  -3.3140538e-04   5.3081894e-04  -7.7505856e-06   1.9357552e-05   2.7519220e-05   7.8072114e-04  -5.6358363e-04   2.0011296e-04  -2.5544284e-04  -6.4899970e-04   1.3713469e-04   3.4849381e-04   1.0906863e-04  -7.9831644e-04  -9.6053223e-04  -7.8146259e-04   2.4356597e-04   1.7198645e-04   2.8836925e-04  -3.2647268e-04   2.8829818e-04  -2.6419494e-04   4.2339475e-06   7.7157188e-04  -2.4062351e-04   2.4878225e-04   9.8065917e-05  -5.7010079e-04  -3.8373118e-04   2.2382510e-04  -3.0253603e-04  -2.4543016e-04  -9.5086732e-05
  -3.6331898e-04   5.8658683e-05  -3.0733383e-04   5.0322133e-06  -3.8487674e-04   1.0189146e-04   8.4534106e-05  -4.5553103e-04   8.0864847e-04  -3.2035303e-05   1.0509814e-04   2.2533022e-04   9.3090130e-05  -2.7730694e-04  -2.6708579e-04  -3.4373745e-04   2.8524526e-05  -2.0700780e-04   1.4170954e-03   1.9550968e-04  -2.9095035e-04  -3.2397764e-04  -1.3524303e-04   2.0635766e-03   6.7109788e-05  -2.4363588e-04  -6.5281737e-04  -2.4060960e-04   3.8106657e-05  -8.2489234e-05  -1.1813514e-03  -8.2724355e-04  -1.8962556e-04  -1.8367304e-05  -1.9446392e-05  -4.8622422e-04  -9.3917304e-04  -4.5186502e-05  -7.2683441e-04  -4.6112965e-04  -5.2627525e-04  -3.1887461e-04  -6.4285949e-04  -1.7811819e-04  -2.7919677e-04  -5.4802909e-04   3.7416219e-05   1.9297656e-04  -6.0862687e-04  -4.2728800e-04
  -5.0120539e-04  -2.7741538e-04  -5.5397907e-04  -4.0740258e-04  -3.6669587e-04  -3.3397731e-04  -5.0796400e-04  -4.6777503e-05   9.5252786e-04  -4.5856429e-04  -1.2896236e-04  -1.5651976e-04  -6.7862304e-05  -3.8535873e-04  -3.6175907e-04  -6.3003018e-04  -2.6789379e-05  -5.9281068e-04   7.7100209e-04  -2.0461770e-04  -6.0696935e-04  -6.8803446e-04   5.2798510e-04  -6.4360991e-04  -2.3205913e-04  -4.5838646e-04  -7.7955058e-04  -4.2604527e-04   2.2855174e-04  -3.1196477e-04   6.8604888e-05   6.3700085e-05   1.0547089e-04  -3.7203121e-04  -3.2384190e-04  -8.5240381e-04  -7.5877301e-04  -3.9848496e-04  -1.0522286e-03  -3.9069093e-04   1.2197951e-04  -6.7167653e-04   4.5187259e-04  -5.7300564e-04   3.2901171e-05  -6.9094746e-04  -2.6744360e-04  -1.2384033e-03  -9.0310076e-04  -7.7863660e-04
  -1.0533388e-03  -7.0092565e-04  -1.1595866e-03  -8.0465683e-04  -6.8657729e-04  -4.2184035e-04  -8.4782013e-04  -4.6781418e-04  -2.6281807e-04  -8.0009369e-04  -3.4448958e-04  -5.1043479e-04  -2.4851004e-04  -4.7146404e-04  -2.7180256e-04  -1.0400442e-03  -2.4829435e-04  -3.2734894e-04   1.7909914e-04  -4.7678419e-04  -5.5246032e-04  -6.3664274e-04  -1.4397559e-04  -7.3042553e-04   2.8364980e-04  -5.6904519e-04  -9.0696022e-04  -2.1749774e-04  -4.5870416e-04  -2.0208505e-04   1.6686909e-03   5.4540254e-05  -2.7584343e-04  -2.9964143e-04  -6.7798072e-05  -5.2189606e-04  -5.0532346e-04   2.1234772e-04  -3.2516060e-04  -2.0002630e-04   2.7671203e-04  -2.6537926e-04  -1.3790544e-04  -1.1245609e-04  -4.4260398e-04  -3.0897159e-04   1.7246114e-04   2.8289415e-04  -2.1686120e-04  -2.5871460e-04
  -3.3770094e-04   1.2831579e-04  -1.2643306e-04   1.4189331e-04  -2.8543369e-04  -8.0851814e-06  -1.8467131e-04  -3.1685652e-04   8.5521623e-04   1.6570807e-04   1.6249921e-04   2.5808398e-04  -4.6847813e-06  -4.4159999e-04  -2.0792928e-04  -7.1518315e-04  -1.6157655e-04  -4.6292823e-04   1.5147792e-05  -4.3809143e-04  -1.4633467e-04  -8.3312269e-05   7.0047053e-04  -2.8956271e-04  -1.0914851e-03  -5.1227043e-04  -7.6628011e-04   3.0417353e-04   9.0860081e-04   7.7628836e-05   5.3354143e-04   5.5731786e-04   4.2963168e-04  -1.0924386e-04   1.1273649e-04  -4.5730601e-05  -6.2421255e-04   2.3951923e-04  -3.7896322e-04   4.8891103e-05  -2.1789802e-04  -1.5679540e-04  -3.9313218e-04   3.4939683e-05   1.0356495e-04   2.4871298e-04   2.5580771e-04   9.5732074e-04  -1.7210712e-04  -2.2087587e-04
  -5.6524786e-05   1.3880221e-04  -2.1245374e-04   2.3354185e-05  -4.5173024e-04   1.2844711e-05   1.0957814e-05  -3.2848513e-04   9.0316520e-04   1.0787409e-04   2.4224777e-04   1.8805335e-04   1.4321910e-05  -3.9932373e-04  -6.3389546e-04  -1.0240370e-03  -9.5350770e-05  -5.8495055e-04  -4.6198609e-05   6.2426778e-05  -2.5942526e-04  -3.0332472e-04  -1.9607978e-04   1.3262330e-03   4.1439620e-04  -4.7685843e-04  -6.4055040e-04  -1.1957969e-05   6.5048510e-04  -3.0646017e-05  -6.2646909e-04   3.3798633e-04  -3.0136606e-04   6.6502966e-05   2.5261344e-05  -7.2763869e-05  -1.5408150e-04   4.1354422e-05  -2.5472534e-04  -2.6663608e-04   2.5171057e-05  -3.1289863e-04   6.9177727e-04  -1.1959040e-04  -5.7659892e-04  -6.0375128e-04  -7.0372145e-05  -6.5997225e-04  -4.7083522e-04  -4.0968289e-04
  -4.3335059e-04  -2.1783011e-04  -3.5186121e-04  -3.4872480e-04  -4.4946853e-04  -2.8475505e-04  -4.1496573e-04  -1.5191994e-04  -3.1076898e-04  -3.1732296e-04  -1.7400146e-04  -1.6102236e-04   3.5136214e-05  -4.5287117e-04  -6.8820140e-04  -5.2989146e-04  -5.7412667e-06  -3.0289881e-04   5.0280901e-04  -2.2867299e-04  -5.3385232e-04  -6.5968046e-04   6.9244183e-04  -3.8540955e-05   5.5828749e-04  -2.8233716e-04  -7.8089419e-04  -4.7959984e-04   1.8098182e-04  -2.4381180e-04   2.7800305e-04  -5.0114066e-04  -1.4410815e-03  -1.4883192e-04  -3.4440088e-04  -4.7377250e-04  -6.6511531e-04  -2.6648593e-04  -5.6974299e-04  -6.2952144e-04  -4.7771722e-05  -6.6348031e-04  -2.1352329e-04  -3.9467879e-04  -6.7640404e-04  -6.4827304e-04  -3.9794715e-04  -1.4762635e-03  -7.6266250e-04  -7.1832474e-04
  -9.9305739e-04  -6.0343725e-04  -1.0239523e-03  -7.8910921e-04  -5.0228456e-04  -5.2874582e-04  -5.1411008e-04  -9.0132368e-04  -1.0285461e-03  -8.0151344e-04  -2.9666585e-04  -5.3414650e-04  -2.0790836e-04  -4.7794147e-04  -3.4736370e-04  -1.2864474e-03  -8.9072710e-05  -4.8747624e-04  -4.9947220e-04  -9.2249777e-04  -8.3148072e-04  -8.3435921e-04   3.7530885e-04   5.7146180e-04  -2.2314731e-03  -4.1318851e-04  -7.4530562e-04  -1.2191778e-04  -3.3475272e-04  -3.9370748e-04   2.2338221e-03  -8.2394178e-04  -9.8379096e-04  -3.5103603e-04  -2.1622707e-04  -3.6027687e-04  -6.0319249e-04   6.7202309e-05  -4.0639279e-04  -1.5969705e-04  -1.6769019e-04  -5.8274984e-04  -6.7689450e-04  -1.2593080e-04  -1.1327267e-04  -2.7025840e-04   1.8555678e-05   3.1395743e-04  -3.8780074e-04  -2.4741676e-04
  -1.5747971e-04   1.7017429e-04  -3.3153170e-05   7.2073315e-05  -5.0526642e-04  -1.9061743e-04   1.3094308e-05  -4.1178527e-04   6.2577875e-04   2.3225849e-04   1.0109651e-04   1.9819730e-04  -1.5633197e-05  -4.0709315e-04  -1.6882092e-04  -7.7275379e-04  -2.0547348e-04  -6.6059618e-04   8.3463092e-04  -1.7577276e-04   6.7705550e-05   1.2883887e-05   6.2143628e-04  -8.6099237e-05  -4.9686652e-05  -3.2190856e-04  -5.7844893e-04   1.7990664e-04   9.0054778e-04   2.2424971e-04  -4.9779791e-04   4.1401066e-04  -6.2233950e-05   3.5190498e-04   1.5694303e-04   2.1218140e-05   5.3511456e-05   3.9892679e-04  -8.0921964e-05   3.7825271e-04   4.3895263e-05  -1.8185111e-04  -1.0616170e-03   2.6886296e-04  -7.5905700e-04  -2.3174478e-05   3.1506465e-04   1.7957328e-04  -9.1467133e-05   1.0695987e-04
   2.5947075e-04   3.9275017e-04  -4.8833255e-05   3.4992263e-04  -4.6465633e-04   1.7539274e-04   1.0168958e-04   3.4936212e-04   1.1626877e-04   2.9179218e-04   1.8463725e-04   3.1429963e-04   8.9186440e-05  -4.2186043e-04  -7.9124869e-04  -2.3405648e-04  -1.0993863e-04  -2.9223401e-04   6.9667230e-04   1.7402545e-04   5.4193515e-05   5.2643587e-05   3.8867912e-04   1.7394706e-04  -1.8461165e-03  -4.8342661e-04  -7.4687041e-04   1.6926130e-04   3.6520281e-04   1.7133773e-04   7.4588234e-04   9.1262831e-04  -4.3220649e-04   1.4957617e-04   1.9842420e-04   4.3788986e-04  -5.5009150e-05   3.7017491e-04  -3.4138109e-05   1.5544264e-04   1.1898568e-04  -2.6276987e-04  -4.0293904e-05   1.8124646e-04  -2.5434815e-04  -5.5922219e-04   1.5905396e-04  -1.8029238e-04  -1.9125031e-04  -2.0051812e-04
  -1.0905487e-04   1.9292960e-04  -1.3478743e-04   3.0054227e-05  -3.6340475e-04  -1.1418023e-04  -1.5899666e-04   1.7506324e-04   2.5519077e-04  -1.7637502e-05   9.8799326e-05   9.4070143e-05   2.6176253e-05  -4.3998714e-04  -1.0046022e-04  -4.5430896e-04  -2.6371027e-04  -3.0301535e-04   3.8535346e-04  -1.0648976e-04  -1.3471418e-04  -1.8333555e-04  -3.6252572e-05  -2.7428736e-04   1.4006870e-04  -5.3786358e-04  -5.9969438e-04   5.1595276e-04   2.5024897e-04  -1.7905977e-05   2.0249947e-03  -7.2499696e-04  -3.1882923e-04   4.5797267e-04  -9.6797608e-05  -4.0173487e-04  -6.3644133e-05   8.4272906e-06  -2.0835716e-04   2.3126928e-05  -8.8460185e-04  -4.4251780e-04   7.5222903e-05  -1.6941561e-04  -1.7465833e-04  -2.7108321e-04  -4.6993653e-05   5.9876111e-05  -4.2777095e-04  -3.7058623e-04
  -5.8515026e-04  -2.5732882e-04  -4.3179208e-04  -3.1919737e-04  -2.5210122e-04  -1.8076404e-04  -4.3202139e-04  -4.6130130e-04   5.9028564e-04  -4.3487534e-04  -1.8620420e-04  -2.4523467e-04  -7.3172501e-05  -4.7445120e-04  -4.3013270e-04  -7.3126232e-04  -2.6608078e-04  -2.0918818e-04   4.3307315e-04  -3.5775683e-04  -4.2010131e-04  -4.9405068e-04   3.3623123e-04  -1.5623368e-03  -1.2164034e-03  -5.5694819e-04  -6.6720031e-04   2.0401421e-04  -7.5604563e-05  -2.6966736e-04  -5.0671399e-03  -6.3935138e-04  -3.4065344e-04  -1.7071734e-04  -3.5868853e-04  -5.8874971e-04  -6.9111737e-04  -3.9606457e-04  -6.2330073e-04  -7.6771586e-04  -6.1045145e-04  -8.4797182e-04  -7.5427140e-04  -5.2493403e-04  -7.7583297e-04  -4.7527213e-04  -4.1256187e-04  -5.9849506e-05  -7.3040579e-04  -6.8535784e-04
  -5.5004610e-04  -3.8044754e-04  -5.4283871e-04  -2.4258060e-04  -1.4900936e-04   4.0247283e-05  -2.4225167e-04  -7.3858304e-05   1.5969280e-03   6.8339839e-05  -5.1084047e-05  -2.7218364e-05  -4.6778026e-05  -3.8934423e-04  -4.7503971e-04  -6.7944190e-04  -1.1631181e-04  -3.7497238e-04  -3.3836486e-04  -4.8636287e-04   1.2461298e-04  -1.3575579e-05  -6.6031542e-05   1.2171555e-03  -8.5692751e-05  -3.3213376e-04  -5.7406502e-04   2.9200185e-04  -2.6381073e-05   9.2845788e-05  -1.0992659e-03   3.5286002e-04   1.0724333e-03   4.0725301e-04   1.0089284e-04   2.8165214e-04  -1.8184512e-05   4.4404448e-04  -7.3147166e-05   3.8528745e-04   1.3723620e-03  -1.6989771e-04  -2.0216635e-04   1.5168606e-04  -4.5272129e-04  -2.6347136e-04   3.1510319e-04   5.2058231e-04   7.0148315e-05   1.0626603e-04
  -5.8370366e-05   3.7658049e-04   2.0188936e-04   4.0943929e-04  -7.5392377e-06   5.3412808e-05   1.7285354e-04  -5.9833826e-04  -4.7570292e-04   3.2723308e-04   2.1223561e-04   4.6941676e-04   1.3111440e-04  -2.6018816e-04  -2.7178301e-05  -3.2272385e-04  -1.3449953e-04  -3.1324624e-04  -1.1959367e-03   6.8409025e-04   3.7459130e-04   2.3695646e-04   4.5540719e-04  -9.1223669e-04   8.2134374e-04  -3.9690782e-04  -4.8108373e-04   5.4847123e-04   7.2582031e-04   2.2003127e-04  -2.3424542e-03   4.7994772e-04  -4.2727523e-05   3.5422243e-04   1.9457516e-04   5.0526910e-04  -6.9580456e-05   3.6271181e-04  -6.7220615e-05   6.4602302e-04   9.5345435e-04   1.8089813e-05  -4.8441489e-04   2.9103915e-04   1.0775134e-04  -2.2413961e-04   3.0377254e-04   5.7912036e-04  -3.9218412e-05   2.7761815e-05
   2.8624566e-04   2.9174110e-04   3.8429178e-05   2.9855443e-04   2.0664204e-04  -5.9385362e-05   1.4155633e-04   2.0200748e-04   3.7445687e-04   1.5003192e-04   2.0385828e-04   3.3994424e-04   1.5269882e-04  -3.2715627e-04  -6.5270906e-05  -4.9054023e-04  -2.6504500e-05  -1.5693766e-04  -6.5731414e-04   3.9634306e-05   1.5469721e-04  -9.1501761e-06   3.5137474e-04  -5.4871122e-04   2.1319806e-03  -4.4563611e-04  -5.2751636e-04   3.1223003e-04   4.0110137e-04   4.5428307e-05  -3.1970997e-04  -6.4651523e-04  -8.8399414e-05   2.5991941e-04  -2.8080582e-05   1.6356439e-04  -3.7081918e-04   1.2435160e-04  -4.1729765e-04   4.2585416e-05   7.6151249e-05  -2.5322853e-04   3.1294255e-04   1.1838452e-04  -2.3275563e-04   3.8396061e-05   2.5516219e-05  -3.8358910e-04  -2.6365489e-04  -2.5831314e-04
  -1.2623350e-04  -2.7891398e-05  -1.3947408e-04   1.8342143e-05  -4.2941511e-04  -1.1919953e-04  -2.4878094e-04   2.1733349e-05   2.3977442e-04  -1.9806488e-04  -5.0874827e-05  -1.2205442e-04  -6.7304709e-06  -3.4184507e-04  -5.6346267e-04  -5.0106761e-04  -3.2801242e-04  -4.5380666e-04   1.9922623e-04  -5.8758946e-04  -1.1766281e-04  -1.5500029e-04  -3.2802418e-04   6.7932624e-04  -1.2168072e-03  -4.8524217e-04  -6.0493057e-04  -3.4600124e-04   2.8931850e-04  -1.7418564e-04   7.7317160e-04   1.8375246e-04  -5.9074676e-04   9.5917523e-05  -1.8451153e-04  -1.0327461e-05  -5.3106539e-04  -2.3100324e-04  -6.9998752e-04  -7.1326504e-05  -7.4628188e-05  -4.5610411e-04  -4.6262937e-04  -3.6704334e-04  -1.5797204e-04  -2.8856061e-04  -2.9685564e-04  -4.4101939e-04  -5.3797103e-04  -6.2201620e-04
  -6.6238956e-04  -3.5691148e-04  -6.3005410e-04  -3.9707861e-04  -3.7957658e-04  -1.1673510e-04  -1.2252179e-04  -8.6286728e-04   1.4610378e-04  -4.7523098e-04  -2.2745406e-04  -3.3743173e-04  -9.0074980e-05  -4.4801107e-04  -5.6850683e-04  -1.8644777e-04  -4.1422289e-04  -6.9317984e-04   1.6378250e-03  -5.6333120e-06   1.8378107e-05  -1.3624071e-04  -3.1269481e-04  -5.1785522e-04  -1.0192647e-03  -4.5084686e-04  -6.1053340e-04  -9.2631701e-05   1.0059300e-04   1.3326819e-05  -2.6919946e-04   4.3090658e-05   3.4134375e-04   1.1476239e-04   2.5008456e-05   3.7352403e-04  -2.9140618e-04   3.4110196e-04  -2.3608428e-04   2.2754695e-04   2.1548597e-04  -2.4305881e-04  -1.9295032e-05   1.1830754e-04  -5.4725236e-04  -6.7325450e-06   2.0145733e-04  -2.5708141e-04  -1.2569923e-04   1.2504649e-05
   3.6158276e-04   3.9705800e-04   4.8329707e-04   5.7066523e-04   1.0073097e-04   1.6867972e-04   2.7757793e-04   9.7601116e-04  -7.9584960e-04   2.9912553e-04   1.6123815e-04   3.4159728e-04   8.0991949e-06  -2.8723394e-04  -9.1949420e-05  -1.7361344e-04  -1.0086457e-04  -2.1354934e-04  -6.2436038e-06   3.2205656e-04   3.1366124e-04   2.4416964e-04   2.6717997e-04   1.6494944e-03  -2.0563209e-03  -4.0825063e-04  -4.0309192e-04   2.6507169e-04  -1.6203609e-04   2.0388022e-04  -1.7775858e-03   2.6008307e-05   5.2131485e-04   3.6255171e-04   2.4956863e-04   3.2414810e-04  -2.4476867e-05   4.2233084e-04   1.5322956e-04   4.6618178e-04   6.3575961e-04   5.2289356e-06  -7.9696445e-04   3.0562608e-04   3.0038026e-04  -1.5034297e-04   3.1350905e-04  -8.4624633e-05  -2.6118369e-05   8.1700728e-06
   1.6414245e-04   2.9347360e-04   3.3922133e-04   4.3510113e-04   2.4340246e-04   7.2929338e-06  -2.0355788e-05   1.2159392e-05   2.9356315e-04   1.2498185e-04   2.0573250e-04   4.5177101e-05   1.1978219e-04  -2.3928296e-04  -1.5870566e-04  -1.0021953e-04  -1.7952488e-04  -2.5731506e-04   1.1845392e-03   9.6115393e-05   1.6074932e-04  -3.6214583e-06  -8.1172748e-04  -1.2085318e-03  -1.7428367e-03  -4.6982747e-04  -5.4680771e-04   6.8642135e-04   2.7251392e-04   7.1579379e-05   5.1978459e-05   1.2073347e-03  -4.1872667e-04   4.6547444e-04  -2.1726189e-06   3.6675675e-04  -1.9714296e-04   1.8587615e-04  -3.4356138e-04   4.7847856e-04   4.1690710e-04  -3.2569832e-04  -2.2382713e-04   5.0302962e-05  -3.0868320e-04  -1.5953701e-05   4.4977751e-05   4.0283549e-04  -3.4117891e-04  -8.1376034e-05
  -5.8910719e-05   2.4182955e-06  -2.4506373e-06   1.4619081e-04   8.2395694e-05   3.6778336e-05  -2.1883380e-04  -3.0983018e-04   4.6393889e-04  -1.6957683e-04   6.8618858e-05  -1.7098301e-04  -2.2706552e-05  -3.3246327e-04  -2.0640742e-04  -3.8137968e-04  -2.0828952e-04  -3.8424865e-04  -6.8338617e-04   3.7283721e-04  -1.2943904e-04  -2.3222731e-04  -5.3933397e-04   1.5494268e-04  -3.3717757e-04  -5.4732751e-04  -6.0077105e-04   1.9693881e-04   3.6587211e-04  -1.2556992e-04   2.7295095e-03   1.4498029e-04  -4.0944865e-06   3.2508429e-05  -1.5433662e-04   2.4439240e-04  -4.2617531e-04  -1.9896835e-04  -5.1628432e-04  -1.1250009e-04   9.5528236e-04  -4.1293469e-04  -1.0189914e-05  -2.2154360e-04  -9.4344377e-06  -4.0617728e-04  -1.7659336e-04  -4.4702098e-04  -4.1285178e-04  -5.6722172e-04
  -3.3959124e-04  -3.4992932e-04  -2.9214728e-04  -2.3207255e-04  -4.2784936e-04  -2.0243629e-04  -1.5130079e-04   3.5279433e-04  -2.2202685e-05  -5.0317170e-04  -2.6453016e-04  -5.3745799e-04  -2.2383161e-04  -4.5230510e-04  -7.7695923e-04  -4.1336619e-04  -3.5631383e-04  -4.8646296e-04  -6.6775268e-05  -1.7907628e-04  -3.3725245e-04  -3.8859126e-04  -4.4385219e-04   1.8651798e-04  -2.6293371e-03  -6.1353354e-04  -6.5683061e-04   2.7198676e-06   5.7020702e-04  -1.9343136e-04   7.4248534e-04  -3.1538621e-05   4.4469209e-04   1.5798061e-04  -3.9037182e-06   1.9001099e-04  -1.2407236e-04   2.1018380e-04  -5.7228458e-06   8.6897264e-05  -2.3059417e-04  -4.3773805e-05  -2.8318111e-04   1.2348764e-04  -3.6201716e-04  -3.4979585e-04   3.2278639e-04   3.8927086e-04   4.7725178e-05   1.6585456e-05
   4.3428355e-04   4.1403293e-04   6.8577356e-04   6.8672444e-04  -7.5489443e-05   2.2741321e-04   2.0765982e-04   1.1817677e-04   1.2936718e-03   5.2453252e-04   2.6686938e-04   4.0859840e-04   1.5134372e-04  -1.5404999e-04   8.2814331e-05  -3.2353873e-04  -6.0132421e-05  -2.2635840e-04  -8.6120027e-04   9.7215472e-04   4.1973809e-04   4.0824493e-04   9.2880160e-05   1.1519821e-03   1.0243814e-03  -1.2830255e-04  -4.6917182e-04   8.8009780e-04   8.9372782e-04   3.3766506e-04  -4.4164862e-04   1.2109384e-03   5.3605216e-04   3.6208567e-04   3.6022085e-04  -5.2072696e-06   1.9637340e-04   6.5837707e-04   1.6018201e-04   6.6143757e-04   1.5256240e-03   2.0941274e-05   8.8267209e-04   4.8199447e-04   3.6452449e-04   6.3769828e-04   5.3395121e-04   1.0409162e-03   3.4601247e-04   3.0122785e-04
   6.0010061e-04   5.5462349e-04   8.3469116e-04   7.9615082e-04   1.3223402e-04   3.8590538e-04   4.9373554e-04   4.3023101e-04   1.1586164e-04   3.9730701e-04   5.0259085e-04   3.3256790e-04   3.0341430e-04  -7.9972691e-05   2.2726234e-04  -3.3795316e-04  -1.9809413e-05  -1.5366875e-04  -3.7476621e-04   3.1562903e-04   3.0931871e-04   2.3355288e-04   2.3307819e-04  -1.5552682e-04   6.5240479e-04  -2.0755043e-04  -2.4454267e-04   5.7286798e-04   1.1045218e-03   2.9078589e-04  -9.4251748e-04   9.7657042e-04   3.1856561e-04   7.0499984e-04   3.5884528e-04  -2.1945950e-04   1.7958078e-04   5.2905863e-04  -1.0509975e-04   4.7697398e-04   5.6821422e-04   2.3467794e-05   6.6273625e-04   2.5695024e-04  -7.1012430e-05   8.9199319e-05   3.2581791e-04   8.2446064e-04   1.0633693e-04   1.5721467e-04
   2.7418180e-04   3.1732942e-04   5.2593462e-04   4.4868010e-04  -1.5359145e-04   2.1490028e-04   2.6321161e-04   3.5898565e-04   1.3823600e-03   4.6937956e-05   3.0231083e-04   1.2474853e-04   1.9813330e-04  -2.9066669e-06  -1.1251995e-04   2.3689109e-04  -1.1565271e-05  -1.2874950e-04   6.4806500e-04   4.7968479e-04   6.2639891e-05  -1.9390691e-05   8.2285987e-04   1.6940019e-05   2.8464611e-04  -8.5491542e-05  -3.1278699e-04   3.4814767e-04   7.0588969e-05   6.3419953e-05   2.0363075e-03   8.5151161e-04  -5.3246558e-04   3.1216897e-04   1.9282693e-04  -4.3551280e-04  -5.1829161e-04   1.5625682e-04  -3.0002688e-04   8.2470113e-05  -1.3998124e-06  -7.5736250e-05   1.9240224e-04   1.1237184e-05  -9.6827387e-07  -1.5221906e-04  -4.8877387e-06   1.0089766e-04  -1.5553225e-04  -2.1235584e-04
  -1.8599095e-04  -7.4898860e-05   1.4560305e-05  -4.6087243e-06   2.5300871e-04   6.4881395e-05   8.2589082e-05  -1.7766861e-04  -6.0270500e-04  -3.4167408e-04  -6.8308700e-06  -8.6050692e-05   1.8331272e-04  -8.3525287e-05  -6.6828038e-06   2.3364332e-04   9.7116972e-05  -4.5750803e-05   4.6230730e-04   8.3402148e-05  -3.1870737e-04  -3.7424846e-04  -1.2115606e-04   3.4675151e-04  -4.9100147e-04  -4.4816235e-04  -5.2352721e-04   4.9469571e-05   8.5693906e-04  -2.2730327e-04   1.7152955e-04   3.3539772e-04  -2.5425921e-04  -6.2730696e-06  -1.3364815e-04  -4.7762590e-04  -3.6931696e-04  -2.2979919e-04  -5.2440882e-04  -2.3799339e-04   4.3005520e-04  -3.5589529e-04   1.8801354e-04  -1.2968163e-04  -4.1695102e-04  -3.7851732e-04   9.3461334e-05  -1.6006423e-04  -6.6544599e-05  -1.6471055e-04
   2.2320196e-04   2.9550501e-04   2.5869758e-04   5.1341520e-04  -1.3211115e-04   4.6638823e-05   1.8765405e-04  -5.7386543e-04   4.3727664e-04   3.1909766e-04   1.7827391e-04   2.8846177e-04   1.3073147e-04  -1.0544422e-04  -4.7073135e-04   6.5641885e-05   2.2062293e-05  -5.1201361e-05   3.3869225e-04   5.8936153e-04   2.6930892e-04   1.7158546e-04  -2.8295035e-04   9.1064756e-04   1.7207804e-03  -2.2488181e-04  -4.3763415e-04  -6.1512590e-05   1.0754217e-03   3.2588548e-04  -3.7380375e-04   2.5573370e-04   4.3267271e-04   4.2857972e-04   4.9979187e-04   4.1640038e-04   2.6216073e-04   6.4654963e-04   1.5102887e-04   6.4030522e-04   1.5147361e-04   1.9193969e-04   9.2297548e-04   4.5279032e-04  -7.1692141e-04   6.5857079e-04   5.6276238e-04   5.6567247e-04   4.3252553e-04   3.4807666e-04
   3.4889692e-04   5.9006421e-04   1.1272150e-03   8.5268100e-04   3.2893341e-04   2.0028837e-04   6.2697643e-04   4.4820335e-04  -1.0570267e-03   4.7236111e-04   4.6758825e-04   5.9258554e-04   3.0761753e-04   1.6816934e-05  -2.8792725e-04   4.8872153e-05   1.1287038e-04  -2.0751162e-04   5.2093412e-04   1.0991197e-03   3.2931383e-04   1.7195968e-04  -2.0140632e-04   1.9459386e-03   6.5653591e-04  -3.0421183e-04  -3.6777186e-04   8.0719095e-04   5.8735505e-04   3.3843319e-04   8.6547952e-04   4.1125983e-05   2.2324125e-04   7.2872225e-04   5.7428487e-04   1.8472430e-04   2.8231757e-04   6.3365878e-04   1.5894767e-04   3.3530686e-04   5.8440503e-04   2.1421046e-04   1.2732364e-03   4.2930167e-04   4.3841687e-04   4.7714508e-04   4.0335322e-04   3.0182212e-04   2.8160587e-04   2.7196654e-04
   2.0350801e-04   4.6192450e-04   6.2876858e-04   5.9595448e-04   4.5452634e-04   2.9691588e-04   3.6894050e-04   5.4121489e-04   1.4478051e-03   1.5734852e-04   3.6120485e-04   2.4472593e-04   3.1972412e-04  -3.4060256e-05  -3.7832648e-04   2.9504884e-04   1.2841413e-04   1.9958628e-04   1.0014920e-03   2.5779451e-04   6.6601409e-05  -6.3167627e-06   1.3819700e-03   2.1566563e-04   3.7399938e-04  -3.0997067e-04  -3.6917598e-04   8.2941208e-04   9.5176796e-04   1.8683617e-04   4.6724695e-04   4.1777958e-04  -4.8447296e-04   5.5075175e-04   2.7353110e-04   3.1893618e-05   9.4310868e-05   3.5113483e-04   2.2660124e-05  -1.2269130e-05   1.8653387e-04   8.5149848e-05   4.6358057e-04   4.5233523e-04   5.0618222e-05   4.1110182e-04   1.3093060e-04  -1.3473310e-04   3.5888148e-05   3.0066252e-05
   1.8339638e-04   1.6026993e-04   1.9961668e-05   2.6038112e-04   3.7276631e-04   4.3133614e-04   2.9814575e-04   1.4940185e-04   3.1193424e-04  -3.3380289e-04   1.2893797e-04   2.5373798e-05   1.5992225e-04  -1.1785423e-04  -4.1352934e-04  -1.0017156e-04  -6.5298627e-05  -7.9854304e-05   9.4504200e-04   2.8581679e-04  -1.9272452e-04  -1.8731032e-04  -2.0192358e-05  -1.5365503e-04  -4.1484094e-05  -8.0071201e-05  -5.3685735e-04   1.2136059e-04   7.5829687e-04  -1.2526997e-05   1.1425286e-04   6.8008516e-04   7.0335332e-04   4.3738037e-04   1.2370736e-04  -5.5344790e-05  -3.8889100e-04   1.0634943e-04  -1.9998396e-04  -1.5449992e-04   1.1263014e-03  -2.7071688e-04  -7.4282027e-04   6.2230356e-05  -3.3218876e-04  -2.9815192e-04   2.1808626e-05  -1.1387559e-03   5.8206278e-05   7.4884221e-05
   4.7670602e-04   4.3230943e-04   5.3953519e-04   6.4788340e-04   2.9529372e-04   3.5266840e-04   4.5820171e-04   2.3210999e-04   1.5677833e-03   2.6390623e-04   2.9147571e-04   4.9606763e-04   2.3467370e-04  -7.6667209e-05  -6.3455082e-04  -8.8317342e-05  -1.2099249e-04   1.0157982e-04  -3.3863564e-04   1.7810665e-04   3.6407457e-04   2.0858260e-04  -2.8031316e-04   6.3991075e-04  -8.4687246e-04  -1.4434641e-04  -3.1581521e-04   4.4110187e-04   1.4722266e-03   4.7996448e-04  -1.5914320e-03   6.0214300e-04   1.0554584e-03   6.0260517e-04   6.7628926e-04   2.4385880e-04   3.3512813e-04   8.4094924e-04   3.1187179e-04   8.4727374e-04   1.2504056e-04   3.3302925e-04   3.0857525e-04   6.6024362e-04   5.9700554e-04   5.4003653e-04   4.6703333e-04  -4.0494482e-04   4.4686833e-04   5.8441696e-04
   9.2104217e-04   8.7709399e-04   1.3225659e-03   1.0081074e-03   3.1810722e-04   4.7236559e-04   7.1325409e-04   2.9324685e-04   7.2933175e-04   4.7595572e-04   4.7826162e-04   5.3224369e-04   2.9452072e-04  -5.7797381e-05  -3.9261609e-05   2.6748169e-04  -9.6489865e-05   6.1669729e-05   1.3783601e-03   6.7291578e-04   4.7147117e-04   4.9113744e-04   3.5135914e-04   7.7162712e-04  -1.3748112e-03  -6.4692314e-05  -3.8508687e-04   9.3101466e-04   6.7833526e-04   5.0905114e-04  -8.0894795e-04   6.3950877e-04   8.8629103e-04   9.3378505e-04   7.1101269e-04   8.2991034e-04   4.5540478e-04   7.4237026e-04   1.4116734e-04   6.9910404e-04   5.2101735e-04   2.3181111e-04   5.7451101e-04   5.6003878e-04   3.2247228e-04   4.8226930e-04   4.5706437e-04  -3.6496998e-04   2.7012022e-04   4.8389810e-04
   7.4351626e-04   6.9781364e-04   8.6336309e-04   7.7288441e-04   5.8109179e-04   5.7244976e-04   3.4454276e-04   3.9941960e-04   8.7566330e-04   1.9250497e-04   3.9287246e-04   3.6388138e-04   2.7567317e-04  -6.1027615e-05  -2.8028712e-04   3.5898620e-04  -2.2119375e-04  -5.7338079e-04   1.3371271e-03   3.0529613e-04   2.1522908e-04   2.6545444e-04   3.6718673e-04   1.6041171e-03  -2.1957967e-04  -5.1571260e-04  -3.7457823e-04   2.6090004e-04   1.3501699e-04   3.1028024e-04   1.7025630e-03   1.1271746e-03   7.3606981e-04   7.2540279e-04   4.9815112e-04   5.3167687e-04   2.2542990e-04   5.3059863e-04  -1.4825480e-04   1.6983820e-04   1.7018240e-03   1.6475798e-04  -4.4699587e-04   3.8522587e-04   4.8604250e-04   7.3194824e-05   2.3109846e-04   9.5880125e-04  -1.0744624e-05   5.9290145e-05
   2.6171617e-04   3.5294431e-04   2.0168860e-04   4.4319913e-04  -6.7538003e-06   1.7172364e-04   4.6284846e-04   8.3689898e-05  -6.1176275e-04  -1.6754086e-04   1.6641617e-04   9.8104392e-06   2.2031413e-04  -1.2864122e-04  -6.3269929e-04  -3.0714913e-05  -2.1874502e-04   6.9928719e-05   4.4535176e-05   2.1022614e-04  -5.1017792e-05   1.4974748e-05   4.5006594e-04   6.1749865e-04  -1.2832434e-03  -2.6298079e-04  -3.8931216e-04   4.4418927e-04   7.3913609e-05   5.5417844e-05   1.0854122e-03   1.0274830e-03  -5.2017381e-04   5.1810400e-04   2.1014834e-04  -4.2829287e-04  -5.5099186e-05   9.0214482e-05  -4.1656508e-04  -1.3990758e-04   9.0601668e-04  -1.7398631e-04   1.9045966e-04  -6.9324102e-05   7.7411690e-04   5.6713790e-04  -6.7639601e-05  -5.3386355e-04  -2.2618992e-04  -2.1051866e-04
   3.0598385e-05   4.6897385e-05   1.0938935e-04   3.1841025e-04  -3.4648873e-04   2.0984899e-04   3.7705293e-04   2.8760461e-04   1.1740590e-03   1.6263549e-04   1.4971587e-04   2.3482442e-04   1.3571700e-04  -2.0310335e-04  -3.8969857e-04   2.8389727e-04  -3.7659638e-04  -2.4297020e-04  -8.5939717e-04   3.9922172e-04   3.3993326e-04   3.8208111e-04  -1.0877099e-05  -2.9862850e-04   2.1949738e-04  -2.0516486e-04  -3.9111380e-04   3.1040460e-04   5.4298271e-04   4.5105559e-04  -1.0284978e-03   8.0720137e-04   7.4204738e-04   7.2498876e-04   6.8926730e-04   8.2791439e-04   4.8784021e-04   7.5066095e-04   3.6601460e-04   1.1960611e-03   8.0695888e-04   4.2518287e-04  -4.7877737e-04   7.1274146e-04   2.2067173e-04   8.5425720e-04   5.8822019e-04  -7.9515233e-04   3.4889547e-04   5.7870557e-04
   1.0417945e-03   9.3788101e-04   1.0226797e-03   1.0987581e-03   2.1389952e-04   4.9274589e-04   1.0142801e-03   9.5300138e-04   7.3587120e-04   4.3769940e-04   5.5532972e-04   5.3748948e-04   3.6984982e-04   8.1991740e-05   1.1825277e-05   2.8235459e-04  -8.9589608e-05   4.3713571e-06   5.3336035e-04   6.3096842e-04   6.3818833e-04   6.3076284e-04   4.5641823e-04   1.6754423e-03  -1.0439807e-04  -1.2617034e-04  -1.4087136e-04   1.0040305e-03   1.5894125e-03   5.5700913e-04   4.7308143e-04   9.8052016e-04   7.8644860e-04   9.8004437e-04   7.0376968e-04   1.1054693e-03   4.2680994e-04   7.7380816e-04   3.5083789e-04   9.6299005e-04   1.3123049e-03   4.0402819e-04   8.8897877e-04   6.8378006e-04   5.3533143e-04   5.6115008e-04   4.2888743e-04   2.3735003e-04   2.7097270e-04   4.2772340e-04
   7.4077112e-04   6.7514053e-04   7.8795600e-04   8.6944067e-04   1.0612681e-04   1.5115272e-04   7.1679073e-04   5.9408887e-04   1.1010618e-03   2.2277105e-04   4.2908764e-04   3.5260429e-04   2.9578496e-04   1.4365127e-04  -4.4480694e-04   4.9538288e-04   6.9318492e-05  -1.4772222e-04   3.4948302e-04   3.9638844e-04   2.4917189e-04   3.5175926e-04   2.1007990e-04  -7.5325821e-05  -1.9181058e-03  -1.3771157e-04  -1.2644305e-04   5.6915230e-04   7.7421853e-04   3.4555691e-04   4.6750400e-04  -4.8723168e-04   6.2168430e-04   7.2657468e-04   3.9082169e-04   8.7098667e-04  -5.0030507e-05   5.1711133e-04  -7.0630245e-05   4.5575225e-04   4.1614025e-04   2.1037685e-04  -3.8285798e-05   4.7606588e-04   9.4752735e-04   5.0682382e-04   9.7155680e-05  -1.4154512e-03   1.1262397e-04   1.2561250e-04
   2.9183310e-04   2.4604125e-04   6.3360255e-04   4.6037251e-04   2.3660468e-04   3.1305215e-04   4.4370748e-04   2.7828608e-04  -1.0584812e-03  -2.2369981e-04   1.5174574e-04  -8.5410604e-05   1.8565317e-04   1.2780502e-04   1.9469339e-04   1.7996006e-04  -3.3497054e-05   1.1642116e-05   2.9442523e-04  -4.5242437e-04  -7.6236087e-05  -1.0678043e-05  -9.0157054e-04   1.5730923e-03   2.1721024e-04  -6.2759896e-04  -2.8022996e-04   5.8130245e-04   3.1385085e-04   8.1151935e-05   8.8247383e-04   2.0189544e-03  -1.6689430e-04   1.9300883e-04   2.4985272e-04   4.6873384e-04  -5.5784109e-05   6.1983294e-05  -2.7800267e-04   5.0027127e-05   9.1109192e-05  -1.4562195e-04   9.4522128e-04  -1.4138569e-05  -2.9466883e-04   2.7241439e-04  -2.5608003e-04  -1.0161524e-03  -3.0610629e-04  -3.2091752e-04
  -3.7935279e-05  -1.7665145e-04   1.7311063e-04  -4.6800647e-05   7.1442089e-05   1.2892748e-04  -3.6084952e-05   3.0917054e-04  -2.1870770e-04  -7.3910487e-04  -1.4378654e-04  -3.7592594e-04   3.1614567e-05  -3.4192610e-05  -1.8665021e-04   1.1062590e-04  -7.2509400e-05  -4.4646367e-04  -4.2531858e-04  -1.9829857e-04  -3.7453638e-04  -2.8391613e-04   3.1876811e-04   2.3644054e-03   1.7176088e-03  -4.2744950e-04  -3.5970338e-04  -1.4103280e-04  -2.7359952e-04  -1.4644934e-04   2.9359278e-04   5.7905237e-04  -8.8126588e-05   1.6300655e-04   9.6829783e-05   3.9868581e-04   1.9699945e-04   2.9098889e-04  -1.9236498e-04   4.5107276e-04   7.9136569e-04   9.4230636e-05   5.7898455e-05   1.5196044e-04  -1.2529032e-04   3.0563804e-04   1.0107105e-04  -5.2552694e-04  -1.0350297e-04  -2.6048476e-05
