  -2.6799960e-04  -8.2863547e-04  -4.4160042e-04  -9.0882590e-04  -5.6489691e-04  -9.3062554e-04  -1.3290670e-03  -1.0329451e-03  -4.3162541e-04   1.0834603e-04  -9.4697694e-04  -4.9375772e-04  -1.2689419e-03  -1.1045947e-03  -6.4377394e-04  -1.8546227e-03  -2.7368667e-03  -5.3916546e-04  -5.4377003e-04  -1.0715252e-03  -3.7281541e-04  -2.2506520e-04  -1.6359701e-03  -1.5165628e-03  -1.0565326e-03  -1.1658362e-03   4.2826126e-04  -1.1457867e-03  -9.2537649e-04   3.8782970e-04   2.2561881e-03  -9.7880757e-04   1.2105630e-03  -7.1879692e-04  -9.2796143e-04  -6.6713418e-04   3.7108921e-04  -3.3726930e-04   6.9726922e-04  -1.1729251e-04  -7.2995358e-04  -3.4001397e-04  -1.2671115e-02   1.0460192e-04  -7.1457581e-04  -8.5875399e-05   4.3918623e-04   5.0547551e-03   5.6376131e-05   1.1092689e-04
   4.0488795e-04  -1.9269739e-04   2.1925040e-04  -2.0965628e-04   6.6301331e-04  -5.5908028e-04  -7.6816650e-04  -6.2030234e-04   6.1471091e-04   8.3965348e-04  -6.1558397e-04   5.8832113e-04  -1.0230381e-03  -1.1474664e-03  -6.5730995e-04  -1.8317521e-03  -2.5965336e-03  -3.9066630e-04  -1.7160837e-03  -1.0318677e-03   1.6077582e-04   2.8737553e-05  -6.3568150e-04   8.8741444e-04  -1.8443522e-03  -1.0026200e-03   2.6730972e-04  -1.0499971e-03  -3.7757822e-04   7.3800009e-04   5.3303642e-04  -9.0165972e-04  -7.2019589e-05  -9.8095636e-04  -7.6891942e-04  -3.2758366e-04   7.4862386e-04  -1.6341434e-04   7.5337378e-04   1.4820474e-04  -1.1020399e-03  -3.8042455e-04  -2.7054248e-03   1.4107714e-05  -3.9360755e-05   3.6326790e-04   4.6858841e-04   3.3317483e-03  -4.2561678e-05  -4.4886383e-05
   1.7610463e-04  -2.8031279e-04  -2.1354575e-04  -3.7885964e-04   1.3786042e-05  -5.9777871e-04  -9.3987450e-04  -1.9878084e-03  -4.5710409e-04   5.0652464e-04  -6.8170123e-04  -4.2184914e-05  -9.8358211e-04  -1.1168569e-03  -7.6015235e-04  -1.7023258e-03  -2.5025951e-03  -7.3245954e-04  -1.1007348e-03  -8.6717785e-04  -4.7856276e-05  -1.6133675e-04  -1.1611769e-03  -3.7435134e-04  -1.7584413e-03  -1.0674320e-03   2.0124535e-04  -1.0424947e-03  -2.4868269e-04   5.7752884e-04   2.1794174e-05  -1.3364577e-03   4.5458198e-04  -1.0966080e-03  -9.5100258e-04  -1.2539163e-03   1.3681509e-03  -4.9781863e-04   3.4869259e-04  -1.7793181e-04  -4.4495999e-04  -2.8520287e-04  -3.7509955e-03  -2.6258899e-04   1.8248413e-04  -2.0151954e-04   3.3298807e-04  -1.1775302e-03  -2.0800263e-04  -8.3810373e-05
  -3.4682360e-04  -6.4247241e-04  -5.7124160e-04  -8.3682721e-04  -5.8643275e-04  -9.5099735e-04  -1.4748573e-03  -1.4193200e-03  -2.0367862e-03   2.5445206e-05  -8.8862667e-04  -6.9512309e-05  -1.1042641e-03  -1.0585620e-03  -7.8775885e-04  -1.6950689e-03  -1.9654413e-03  -7.4361608e-04   2.4540911e-03  -1.0189010e-03  -6.4070715e-04  -5.3295871e-04  -1.2600548e-03   5.7824440e-05  -2.7949854e-03  -1.1472646e-03   2.7335176e-04  -7.0223247e-04  -6.5964408e-04   2.7303098e-04  -1.1402887e-03  -5.2005355e-04  -1.4872754e-03  -1.0462971e-03  -1.2092607e-03  -9.9688955e-04   3.4110565e-04  -9.0900651e-04  -1.6158191e-04  -1.1069234e-03  -1.3310377e-03  -4.9838884e-04  -5.7793637e-03  -5.6768500e-04  -1.7298177e-03  -5.1470130e-04   1.2068370e-05   4.1369465e-03  -5.3480425e-04  -5.0785224e-04
  -8.5320929e-04  -1.1031732e-03  -1.2672308e-03  -1.2552066e-03  -8.3127560e-04  -1.0474632e-03  -1.7534342e-03  -1.6014439e-03  -1.3417191e-03  -2.3326236e-04  -1.3424815e-03  -5.4611027e-04  -1.2531258e-03  -1.3048734e-03  -8.6742349e-04  -1.5946405e-03  -2.2403784e-03  -5.1906501e-04  -2.5277347e-03  -1.4636625e-03  -8.0331427e-04  -8.4337965e-04  -1.7936125e-03  -8.9914876e-04  -1.8931729e-03  -1.8560456e-03  -5.5526936e-04  -1.5133228e-03  -9.4882265e-04   1.8893763e-04   8.8157703e-04  -2.0297461e-03  -1.2693276e-03  -1.3811454e-03  -1.2944222e-03  -1.4071289e-03   2.8048657e-04  -5.0713663e-04   4.1417134e-04  -5.4010114e-04  -1.6008273e-03  -1.9178962e-04   2.0436307e-03  -1.9949889e-04  -1.7658408e-03   1.5005488e-05   1.6847938e-04  -8.0032367e-03  -3.0342903e-04  -2.6645348e-04
  -1.8825427e-04  -4.6686709e-04  -3.4931442e-04  -4.2401618e-04  -3.6722855e-04  -7.3143461e-04  -1.0190059e-03  -1.6827850e-03  -7.1677839e-04   6.4458634e-04  -8.5317623e-04   4.4034063e-04  -1.0942393e-03  -1.4681281e-03  -1.7662416e-03  -1.8390939e-03  -2.0336746e-03  -7.7605282e-04  -1.3582795e-03  -9.0842118e-04  -3.3087836e-04  -3.1482830e-04  -1.6102934e-03  -1.0060809e-03  -2.7774097e-03  -2.3001463e-03  -8.1940147e-04  -1.2063017e-03  -7.9269015e-04   5.5772642e-04  -1.6579642e-03  -2.2154129e-03  -1.0580790e-03  -1.1060983e-03  -1.0698279e-03  -7.2437810e-04   4.9500581e-04  -3.6478008e-04   4.9437425e-04  -3.3125925e-05   1.2089006e-04  -2.3621279e-04  -2.1625005e-03  -2.8504001e-04  -6.3374807e-04  -1.8259601e-04   1.6205562e-05  -7.1247406e-03  -2.9781595e-04  -2.3766309e-04
  -2.6665945e-04  -4.2888481e-04  -6.0280325e-04  -5.2074814e-04  -5.6312128e-04  -6.8990304e-04  -1.0561694e-03  -1.6861508e-03  -3.0987845e-05   4.2501747e-04  -9.9781516e-04   4.1257928e-05  -9.2149264e-04  -1.2006999e-03  -1.0887925e-03  -1.8274965e-03  -1.8503804e-03  -7.5506710e-04  -1.4013772e-04  -8.8084169e-04  -3.6383481e-04  -1.8416553e-04  -1.8116803e-03  -1.2273955e-03  -9.1480394e-04  -1.5384099e-03  -5.0365546e-04  -1.6385312e-03  -1.1861786e-03   3.9318236e-04  -1.4707946e-03  -8.6101075e-04  -1.3178731e-04  -1.1673908e-03  -1.2108824e-03  -1.4945994e-03  -1.0978572e-04  -5.8303896e-04  -1.5979636e-04  -4.7019799e-04  -1.5584434e-03  -2.7543621e-04  -3.6321029e-03  -4.0415002e-04  -1.0474570e-03   1.5578142e-04   6.3672232e-05   7.4652038e-03  -8.1024441e-04  -5.1107327e-04
  -8.7076280e-04  -8.0177427e-04  -8.8317029e-04  -9.3175174e-04  -5.1841198e-04  -8.1946451e-04  -1.5493359e-03  -1.3260358e-03  -9.8027766e-04  -1.9624918e-04  -1.1648095e-03  -5.0306256e-04  -9.7330764e-04  -1.2410333e-03  -1.3281617e-03  -1.8322453e-03  -1.6865009e-03  -1.0361869e-03  -4.2457759e-04  -1.3425472e-03  -7.5230491e-04  -5.5488612e-04  -1.0248658e-03  -2.3390441e-03  -2.9831349e-03  -1.7178769e-03  -7.5695163e-04  -1.3113616e-03  -1.1432099e-03   2.1354872e-04  -1.9820915e-03  -1.3205798e-03   7.1903801e-04  -1.5091832e-03  -1.3662991e-03  -9.9236798e-04  -3.8458884e-04  -8.4789039e-04  -2.9018195e-04  -1.0402679e-03  -1.9931064e-03  -3.9494652e-04  -2.1870860e-03  -6.2068965e-04  -1.0435884e-03  -7.1463815e-04  -1.7149062e-04  -1.8814022e-02  -8.4808248e-04  -9.1521925e-04
  -1.3683843e-03  -1.2172299e-03  -1.5029907e-03  -1.3543613e-03  -9.4954006e-04  -1.1670825e-03  -1.8904285e-03  -1.8917456e-03  -1.8492492e-03  -6.5377279e-04  -1.4448559e-03  -6.6639372e-04  -1.0814227e-03  -1.2268641e-03  -1.5785189e-03  -1.8616697e-03  -1.5269311e-03  -7.4884761e-04   1.0686633e-04  -1.4001688e-03  -8.2240906e-04  -5.5629207e-04  -1.1683354e-03  -6.0247461e-04  -3.5545838e-03  -1.9521319e-03  -6.8787357e-04  -1.4259939e-03  -1.3905739e-03   2.9118703e-04  -2.3479958e-03  -2.2927849e-03  -1.3865274e-03  -1.4693786e-03  -1.2371654e-03  -6.7518983e-04  -8.6283246e-05  -6.0737570e-04   9.3414092e-05  -5.6673959e-04   7.8040881e-05  -1.2350504e-04   6.9184962e-04  -4.1844754e-04   8.3123113e-04   5.3161214e-04   4.5094706e-04  -2.0818296e-03  -2.1057267e-04  -5.0979084e-04
  -2.7835797e-04  -4.8054353e-04  -3.9072343e-04  -6.4169959e-04  -2.4519404e-04  -6.5895222e-04  -1.4432417e-03  -1.2889501e-03   1.2306300e-03   3.1355495e-04  -1.0987780e-03   1.7028167e-04  -9.4852952e-04  -1.0801072e-03  -1.3658112e-03  -1.4600112e-03  -1.4051463e-03  -7.2003732e-04  -3.1460210e-04  -1.0031061e-03  -6.1313488e-04  -5.7639589e-04  -1.3201497e-03  -7.6290307e-04  -6.3361335e-03  -1.8585600e-03  -6.3579867e-04  -1.3704498e-03  -3.8432304e-04   4.4695090e-04   1.5518066e-05  -1.0655143e-03  -6.6482293e-04  -1.2871861e-03  -1.0849221e-03  -1.0593066e-03  -1.6758472e-04  -4.8157026e-04   3.7907969e-04  -4.0525867e-04   3.0177063e-04  -2.2963966e-04  -1.2403255e-03  -3.7522634e-04  -2.6000896e-04   5.0142832e-04   5.0535210e-04   1.3663238e-03   1.6888589e-05  -3.2526132e-04
  -5.2275439e-04  -5.9003494e-04  -5.3754688e-04  -7.9827080e-04  -5.8110617e-04  -7.4505439e-04  -1.2767643e-03  -6.9328526e-04  -5.7105173e-04   3.5061521e-04  -9.8698307e-04  -2.8741251e-05  -1.2218480e-03  -1.2085942e-03  -1.4690966e-03  -1.4714686e-03  -1.8884025e-03  -4.9756002e-04  -5.9981761e-04  -1.3165091e-03  -6.4773444e-04  -4.9900590e-04  -9.5186837e-04  -1.3874471e-03  -1.8844570e-03  -2.4514413e-03  -7.3844061e-04  -1.3840384e-03   7.1997893e-05   2.3950370e-04  -7.7661469e-05  -1.7319005e-03  -1.1718408e-03  -1.4394692e-03  -1.1767054e-03  -1.5333876e-03  -8.8289096e-05  -8.4084313e-04  -3.0798218e-04  -9.7278168e-04  -2.0162929e-03  -1.0736063e-04   3.7068929e-04  -5.2761025e-04  -9.5869604e-05   2.4077950e-04  -4.0257626e-05   4.0027840e-04  -5.2793528e-04  -5.6781317e-04
  -7.2275591e-04  -8.3029567e-04  -1.1135042e-03  -1.0362159e-03  -6.4563606e-04  -6.2724052e-04  -1.5285135e-03  -1.1191762e-03  -2.1145740e-03   2.2044091e-04  -1.2934549e-03   5.0085091e-05  -1.4786882e-03  -1.3632241e-03  -1.7718043e-03  -1.5900383e-03  -2.3342692e-03  -6.7600684e-04   3.7170624e-04  -2.0067457e-03  -8.2214631e-04  -4.6611452e-04  -2.6819895e-03   2.0309656e-03  -4.4050268e-03  -2.6453850e-03  -7.9377712e-04  -1.6954431e-03  -1.0334097e-03   9.1233769e-06  -7.8080257e-04  -1.0351317e-03  -4.2093813e-04  -1.6474107e-03  -1.1996658e-03  -1.2265707e-03  -1.6610308e-04  -7.8386517e-04  -3.2292254e-04  -7.3213689e-04  -1.0006874e-03  -2.0285988e-05  -6.7144930e-03  -2.5955302e-04  -1.1782318e-03  -3.2771338e-04  -1.5909364e-04   7.1379310e-03  -3.4648259e-04  -3.2387907e-04
  -2.2264844e-04  -1.3151010e-04  -2.7668590e-04  -3.6919772e-04  -4.4641513e-04  -2.5549234e-04  -9.7386696e-04  -1.0230666e-03  -1.8428817e-03   1.3167450e-03  -1.0571548e-03   7.3147524e-04  -1.5127655e-03  -1.4966506e-03  -1.9951437e-03  -1.9367033e-03  -3.1227933e-03  -1.7698531e-03  -6.7124754e-04  -1.5895276e-03   1.2769444e-04   3.1379910e-04  -2.6469640e-03  -9.3300495e-04  -2.1846376e-03  -3.2961075e-03  -1.8824582e-03  -1.5471833e-03  -7.0190523e-05   6.3018553e-04  -1.9621998e-03  -5.7834981e-04  -5.3565321e-04  -1.2896080e-03  -9.0127042e-04   8.3882296e-06   5.8066973e-04  -4.5035158e-05   2.7228452e-04  -7.9437013e-04  -1.8145357e-03   4.4491290e-04  -8.3516462e-04  -1.2722479e-04   1.9941467e-04  -1.6601809e-04  -1.5208070e-04   1.6263593e-03  -2.7791084e-05  -2.9250179e-04
  -8.7386768e-05   5.0685703e-05  -1.3497899e-05  -2.9381816e-04  -3.7008250e-04   1.9169458e-04  -7.0686953e-04  -8.8167045e-04  -9.8296185e-04   1.5500293e-03  -1.3318413e-03   7.3616504e-04  -1.9193587e-03  -1.4300449e-03  -1.6819196e-03  -1.4280467e-03  -3.3423468e-03  -1.7077306e-03   1.6529275e-04  -1.6178818e-03   3.8368500e-05   1.4664755e-04  -2.8951105e-03   1.7178579e-03  -4.6924585e-03  -3.5644933e-03  -1.6939975e-03  -1.1108229e-03   2.5816273e-04   5.4608204e-04  -1.2521027e-03  -1.5756479e-03  -1.7709246e-04  -8.4744155e-04  -7.6310750e-04  -4.4868985e-04  -2.7639951e-04  -2.9740672e-04  -2.3670658e-04  -8.8210881e-04   3.0351090e-05   3.0495090e-04  -8.9179759e-04  -2.6634571e-04  -1.1890566e-03  -2.8638318e-04  -4.6943172e-04   1.7637379e-02  -4.5763361e-04  -7.0676592e-04
  -4.7470920e-04  -3.4617004e-04  -5.7234638e-04  -6.1919959e-04  -4.8445872e-04  -1.5726865e-04  -9.8406652e-04  -7.0429908e-04  -1.4543590e-03   8.4021670e-04  -1.3579271e-03   9.2309077e-05  -1.4351923e-03  -1.5060579e-03  -2.0823777e-03  -1.4758576e-03  -2.9616086e-03  -1.8139081e-03  -8.5480028e-04  -1.8726538e-04  -4.3146426e-04  -1.5188617e-04  -2.2905571e-03  -1.0884026e-04  -3.6039706e-03  -3.1975056e-03  -1.9156663e-03  -1.6725397e-03  -1.1460333e-04   3.7864147e-04  -3.1021580e-03  -1.7729263e-03   5.5601815e-04  -1.4160000e-03  -9.3529624e-04  -8.9784636e-04  -3.6225971e-05  -4.4829852e-04  -4.0879520e-04  -1.1014644e-03  -9.7903446e-04   7.0439281e-05  -3.9522015e-03  -5.6383439e-04  -4.2460297e-04  -2.5821369e-04  -4.8603120e-04  -1.1155361e-02  -2.1399948e-04  -3.9865708e-04
  -5.9980160e-04  -2.7360901e-04  -1.3403711e-04  -4.3268435e-04  -8.7163586e-05   1.9032756e-04  -5.4005731e-04   2.7439788e-05  -2.5647576e-03   1.1333264e-03  -1.1601934e-03   6.0658628e-04  -1.1301592e-03  -1.3084078e-03  -1.8599945e-03  -1.7279645e-03  -2.4835393e-03  -1.8101059e-03  -9.4450649e-04  -1.3580620e-03   1.1009428e-04   5.1406154e-04  -2.3322492e-03   3.6207287e-04  -4.0348126e-03  -2.4844075e-03  -1.6921613e-03  -1.1274738e-03  -1.5199393e-05   7.7206094e-04   2.9452975e-04  -1.5452943e-03  -6.1723564e-05  -9.0107002e-04  -4.4375824e-04  -1.2711990e-04   8.1283349e-04   2.2607522e-04   1.6227631e-04  -4.0956974e-04  -4.5367891e-05   6.3678419e-04   6.3506211e-04   1.9193390e-04   8.6175709e-04  -1.8943715e-04   1.8976341e-04  -7.8999379e-05   1.9458160e-04  -3.2958673e-05
  -2.0184938e-05   3.2229364e-04   1.2050386e-04  -1.8651852e-04   1.4008670e-04   4.5379548e-04  -3.9108156e-04  -4.0548050e-04  -9.3964551e-04   1.3247951e-03  -7.4588082e-04   7.1238662e-04  -1.0690470e-03  -1.1414784e-03  -1.8213588e-03  -1.7408844e-03  -2.3949968e-03  -1.3662255e-03  -3.2014248e-04  -9.8761660e-04   2.1592026e-04   6.8962260e-04  -1.7169955e-03   6.5289275e-04  -2.6217222e-03  -2.4075948e-03  -1.2256628e-03  -5.9790496e-04   6.7246758e-04   7.1587268e-04  -2.4593070e-03  -8.1884174e-04   2.8782224e-04  -3.8240006e-04  -3.3746412e-04  -4.9614348e-04   1.9510569e-04   7.5788790e-05   2.7112023e-04   1.2117195e-04  -3.8470136e-04   5.2756065e-04  -5.5209156e-03   3.5012545e-05   1.9002856e-03  -3.9174908e-04   1.0553524e-04   7.8778239e-03   1.9366875e-05  -2.5032985e-04
  -1.3580229e-04   2.0079022e-04  -2.8150083e-05  -3.8872767e-04  -2.6280366e-04   3.2032760e-05  -5.4438319e-04  -2.4610059e-04  -6.6599355e-04   7.8623119e-04  -7.7839202e-04   1.4146048e-04  -9.7294629e-04  -1.0607434e-03  -1.3477823e-03  -1.1329200e-03  -2.1449642e-03  -1.2248652e-03   3.7446551e-04  -6.3876144e-04  -9.5795061e-05   2.7921287e-04  -1.5059445e-03   7.7000499e-04  -2.4054949e-03  -1.8796382e-03  -1.1809961e-03  -1.1088935e-03   4.4565063e-04   5.3795369e-04  -7.6962507e-04  -4.3618641e-04  -5.2670343e-04  -1.0010916e-03  -5.6844548e-04  -7.7397702e-04   7.9701706e-05  -1.4191924e-04  -3.1066338e-06  -8.9743314e-04  -1.5665957e-04   1.9032716e-04  -1.0897820e-03  -3.3143453e-06   4.6069533e-04   1.0039106e-04  -4.0981722e-05  -7.3397872e-03  -3.6467117e-04  -6.0612848e-04
  -6.0288329e-04  -1.6087986e-04  -7.8076799e-04  -7.5249712e-04  -6.7145203e-04  -2.0714078e-04  -1.1979921e-03  -9.3239819e-04  -1.5197124e-03   2.2028708e-04  -1.0283286e-03  -2.6236664e-04  -9.8541449e-04  -9.8475371e-04  -1.6135258e-03  -1.0364164e-03  -1.7743786e-03  -1.0315888e-03  -3.8648976e-04  -1.0042457e-03  -6.8573677e-04  -3.0913332e-04  -1.6656911e-03  -1.8037373e-03  -3.0633816e-03  -2.1300989e-03  -1.3151380e-03  -1.8183726e-03   8.5724634e-05   2.4271071e-04  -1.5094189e-03  -7.4162812e-04  -1.0846274e-03  -8.9558488e-04  -8.4128586e-04  -5.1690300e-04  -2.4098826e-04  -4.9996120e-04  -6.9661817e-04  -8.9675875e-04   7.8235142e-04  -4.1170631e-05   8.1028341e-04  -2.6574056e-04  -8.7854092e-04  -2.0469286e-04   8.7397806e-05  -8.0577396e-03  -2.4592706e-05  -2.6060280e-04
  -1.4939312e-04   1.0102788e-04  -1.7457356e-04  -2.7557701e-04  -4.4730295e-05   1.1877607e-04  -1.6351321e-04  -3.5373904e-04  -1.6735897e-03   1.1278370e-03  -8.2706311e-04   6.3224434e-04  -1.0055944e-03  -9.8633429e-04  -1.5941466e-03  -1.1585256e-03  -1.8422084e-03  -1.3747277e-03  -4.9792207e-04  -5.1955454e-04   8.6683875e-05   6.1091915e-04  -2.1948130e-03  -5.8320064e-05  -2.1470201e-03  -2.2695314e-03  -1.3547025e-03  -1.1578322e-03   1.1551590e-03   8.1742124e-04  -4.4435584e-03  -8.7743183e-04  -3.5604279e-04  -5.3176435e-04  -2.3097874e-04  -3.5461338e-04   6.6257379e-04   3.9031252e-04   3.6252537e-04   1.1706990e-04   3.3910470e-05   6.8407739e-04  -4.8833871e-03   1.6803401e-04  -1.3540983e-04   4.2610194e-05   2.2704514e-04   2.1528078e-03   1.6317418e-04   1.0381110e-04
   1.1749066e-04   4.0374004e-04   2.4366872e-04  -4.4987464e-05   3.3178861e-04   3.6795740e-04   1.3424378e-05  -1.0243932e-04   1.1682875e-04   1.3014213e-03  -6.7332474e-04   7.3581911e-04  -1.0050299e-03  -9.3777984e-04  -1.5142162e-03  -9.5858512e-04  -1.8618139e-03  -1.1243230e-03   1.7076739e-03  -8.6949411e-04   7.1134033e-05   5.4172560e-04  -2.1920484e-03  -9.2090522e-06  -2.7287623e-03  -2.3499625e-03  -1.3669761e-03  -8.1139343e-04   1.1358152e-03   8.0443243e-04   4.8229692e-04  -1.4741218e-03   8.0961436e-05  -6.4007159e-05  -3.6542668e-04   3.4924762e-04   3.3053147e-04   2.2501590e-04   7.1064962e-05  -1.3617505e-04  -2.7952238e-04   7.0966920e-04   1.4777089e-03   7.3612668e-05   4.4161896e-04   3.5843666e-05   6.8157686e-05  -1.7614136e-02  -5.2943240e-05  -1.1327784e-04
  -2.4634390e-04   1.3881591e-04  -1.4318309e-04  -2.9995001e-04   1.6940046e-04   1.8440427e-04  -1.9865215e-04  -1.1125413e-03   7.4392025e-05   9.2289870e-04  -9.2405785e-04   4.0294736e-04  -1.1274969e-03  -1.0147520e-03  -1.7309344e-03  -1.1504586e-03  -1.9231200e-03  -1.3465605e-03  -1.8353929e-03  -5.4662110e-04  -3.8063465e-04  -6.7465560e-05  -1.3620080e-03   3.1110081e-05  -3.4254701e-03  -2.6427533e-03  -1.5814588e-03  -7.9135282e-04   7.1467919e-04   6.2610715e-04  -6.4324401e-04  -4.3708592e-04  -6.1637262e-04  -7.3837274e-04  -4.2100105e-04  -5.8239838e-04   1.5581746e-04   4.4359665e-05  -1.5026265e-04  -5.7346519e-04  -5.4931652e-04   6.7409407e-04  -4.3128402e-04  -1.2515670e-04   8.2902065e-05   2.0398748e-04  -4.4631986e-05   1.8776953e-03  -9.5339405e-05  -3.8217928e-04
  -6.9559779e-04  -1.7689324e-04  -5.4925570e-04  -6.8595214e-04  -3.4458889e-04   8.9368004e-05  -4.2672674e-04  -1.4475806e-04  -4.0805168e-04   5.3489022e-04  -1.2169408e-03  -5.3377880e-05  -1.2311925e-03  -1.1269950e-03  -1.7810726e-03  -1.2456990e-03  -1.9110040e-03  -1.1122335e-03  -2.0580250e-03  -7.6945109e-04  -7.5756403e-04  -4.7184611e-04  -2.1679341e-03   1.4654464e-03  -2.0925561e-03  -2.5501768e-03  -1.5546520e-03  -1.3691259e-03   3.6368670e-04   4.3539095e-04  -9.3330053e-04  -9.8855875e-04  -3.1466837e-04  -1.0526638e-03  -4.6986871e-04  -7.1603499e-05   3.0616729e-04   1.6963085e-04  -1.8581106e-05  -2.0109795e-04  -2.5836893e-04   5.1689910e-04   2.7311149e-03   7.7833720e-05  -6.6021946e-04   5.3269960e-05   1.1960157e-04  -1.8943744e-03  -3.4635093e-05  -4.9786082e-05
   8.3498271e-06   3.1318786e-04   2.4663861e-04  -1.6107761e-04  -1.3338929e-04   2.7365494e-04  -1.5129604e-04  -2.9533159e-04  -8.6620252e-04   1.1919125e-03  -8.6555566e-04   6.7072065e-04  -1.0212453e-03  -1.0644224e-03  -1.6600291e-03  -1.5661621e-03  -1.9525349e-03  -1.1277583e-03  -1.0822103e-03  -5.4017565e-04  -1.9361966e-04   3.9431825e-04  -1.3196778e-03   8.6649146e-04  -2.4646143e-03  -2.2182986e-03  -1.3992533e-03  -1.0362904e-03   1.1759904e-03   8.7480858e-04  -2.1497803e-03  -6.1351445e-04   3.3029217e-05  -4.1173073e-04  -3.6288099e-04   3.4470487e-04   4.5911505e-04   4.0738081e-04   5.6411634e-04   3.1018327e-04   5.3808733e-04   6.9374742e-04  -1.5186377e-04   2.0808207e-04   9.0383674e-04   1.9658620e-04   1.1181673e-04   5.4740175e-03  -1.5484188e-04   8.3505765e-05
   3.8492149e-06   2.6212228e-04  -2.4744546e-05  -2.2494975e-04   8.0724049e-06   2.2210195e-04  -2.1341206e-04  -4.1545631e-04  -1.5030664e-03   8.6149556e-04  -6.8769412e-04   3.8356674e-04  -9.5765834e-04  -9.8395522e-04  -1.6966863e-03  -1.1556334e-03  -1.5281308e-03  -1.3278227e-03  -5.1416631e-04  -1.0599934e-03  -4.7796691e-04   1.5895008e-04  -2.0289908e-03   5.5555266e-04  -4.1365870e-03  -2.3034525e-03  -1.3643097e-03  -1.0575443e-03  -3.1233759e-04   8.0850709e-04  -4.8647483e-04  -3.1425396e-04   1.1528970e-03  -5.6057906e-04  -3.3073535e-04   6.5665801e-05   5.4001948e-04   2.8158919e-04   1.8074219e-04  -4.4588908e-04  -3.1296021e-04   2.6303466e-04  -1.7270895e-03  -3.5968973e-05  -6.9727062e-04   9.1883603e-06  -3.6078574e-05   4.0940726e-03  -2.8730667e-04  -2.8753065e-04
  -6.3797075e-04  -2.5044748e-04  -5.5510516e-04  -6.3214073e-04  -3.6154245e-04  -1.6647061e-04  -7.2183501e-04  -1.0155518e-04  -9.7275438e-04   4.5162375e-04  -1.1398052e-03   1.3055179e-04  -1.1782714e-03  -1.0049018e-03  -1.6751876e-03  -1.2930864e-03  -1.4422388e-03  -1.1943188e-03  -1.0249821e-03  -1.6780720e-03  -9.1997994e-04  -4.2212853e-04  -1.2529457e-03   6.1398512e-04  -3.6417134e-03  -2.2897385e-03  -1.3615926e-03  -1.1848323e-03   3.9579041e-04   5.5777712e-04  -1.6842879e-03   7.1846873e-05  -3.1375862e-04  -6.1645231e-04  -6.1309210e-04  -4.1698723e-04   3.5078436e-04  -1.6505280e-04  -4.0005389e-04  -5.7947362e-04  -8.0088437e-05   4.5667821e-05  -3.2072021e-03  -3.9737541e-04  -6.5316533e-04  -3.7514305e-04  -3.8475142e-04   2.9295681e-03  -4.6181178e-04  -5.7046616e-04
  -1.0341184e-03  -6.3637010e-04  -1.0161140e-03  -1.0208607e-03  -9.1886130e-04  -4.1560238e-04  -1.0190308e-03  -1.6082083e-03  -8.9767942e-04   2.5277364e-04  -1.2783301e-03  -1.6260495e-04  -1.1247465e-03  -9.9121209e-04  -1.6708950e-03  -1.2862341e-03  -1.5480819e-03  -9.0455048e-04  -7.0969021e-04  -3.5736780e-04  -5.8325956e-04  -2.8156926e-04  -8.0901373e-04   1.3877619e-03  -2.3000054e-03  -2.0327130e-03  -1.2033144e-03  -1.0667808e-03   7.4973685e-04   7.6477649e-04  -1.2334621e-03  -9.3801465e-04  -5.1250204e-04  -7.5619761e-04  -3.7701553e-04  -3.9862203e-05   4.3709815e-04   2.6266905e-04   4.5732292e-04   1.4957241e-04  -7.8981975e-05   3.0755263e-04  -1.2250204e-03   1.3495567e-04   5.7625491e-04   4.4512108e-04   2.2444279e-04   1.3794300e-02  -5.2819250e-06   5.4614258e-05
   4.2932643e-05   1.8790418e-04   2.7945210e-04  -1.4642745e-04  -1.3572547e-04   1.4895538e-04  -3.3133256e-04  -2.4367087e-04  -8.7929290e-04   7.4651052e-04  -8.1100373e-04   2.7952730e-04  -9.9793891e-04  -9.1100100e-04  -1.4371027e-03  -1.0522320e-03  -1.5482965e-03  -8.1716129e-04  -1.5509828e-03  -8.2857412e-04  -4.1427274e-04   2.2245270e-04  -1.5841809e-03   2.2205589e-03  -1.9843932e-03  -1.8251322e-03  -1.0754309e-03  -8.7238301e-04   3.1965142e-04   9.3589089e-04  -6.0593977e-04  -6.6584675e-04  -2.8167799e-04  -4.0072450e-04  -3.1562240e-04  -4.3140125e-04   9.4065361e-04   3.7203447e-04   5.7383475e-04  -4.2955505e-04   1.8063886e-04   3.9506092e-04   4.0124217e-04   9.4071751e-05  -1.5188659e-04   1.0644936e-04   1.9431984e-04  -1.6035406e-02  -2.5933228e-05   5.6900499e-05
  -3.4971265e-04  -1.2074104e-05  -1.9868134e-05  -3.5828075e-04  -1.0969723e-04   9.3522780e-05  -2.3090333e-04  -8.8263152e-04  -7.4461225e-04   4.1818339e-04  -8.8845368e-04  -4.6607398e-05  -9.4330928e-04  -8.8192604e-04  -1.2513354e-03  -1.0553462e-03  -1.4007138e-03  -5.9963914e-04  -1.7328080e-03  -6.5843074e-04  -7.1746064e-04  -3.6631839e-04  -5.7856215e-04  -1.6836125e-03  -2.7315288e-03  -1.8499105e-03  -9.8985108e-04  -8.4479322e-04   1.1177390e-03   7.3351315e-04  -6.7221455e-04  -9.9882146e-04   5.7575468e-04  -8.6454954e-04  -4.7671999e-04   2.1442928e-04   5.0350511e-04   2.2290622e-05  -1.0753888e-04  -2.5578760e-04  -5.8910408e-04  -5.3185950e-06  -5.0824126e-03  -2.7563237e-04  -5.3711177e-04  -4.1942057e-04  -5.6415960e-05  -8.7495847e-03  -3.3311642e-04  -3.5954476e-04
  -7.5967761e-04  -3.6686141e-04  -7.5006025e-04  -7.2567310e-04  -1.9357557e-04  -3.0711116e-04  -8.3502190e-04  -1.0409125e-03  -1.5000734e-03  -3.9130420e-05  -1.1706449e-03  -3.3776171e-04  -1.2055129e-03  -9.2347286e-04  -1.4192036e-03  -9.9776860e-04  -1.4364913e-03  -1.0697275e-03   3.2645065e-04  -1.3751860e-03  -1.0244249e-03  -5.0057645e-04  -2.1535940e-03  -2.0746160e-03  -2.7874450e-03  -1.8313073e-03  -9.2416652e-04  -1.2329551e-03  -3.9612225e-04   4.0857351e-04   5.4367888e-04  -2.6323989e-03   4.9652089e-04  -1.0355430e-03  -7.6610682e-04  -6.7384820e-04  -3.2458012e-04  -3.4337299e-04  -4.8353986e-04  -7.1673555e-04  -1.5881642e-03  -1.9463390e-04  -4.8581343e-03  -4.5451810e-04   3.1673163e-04  -3.1353228e-04  -3.7682985e-04  -8.4742913e-03  -6.2133145e-04  -7.1610039e-04
  -1.2879586e-03  -9.1832428e-04  -1.6081594e-03  -1.2131393e-03  -8.3979871e-04  -7.7275006e-04  -1.2654439e-03  -3.7204710e-04  -6.7284971e-04  -6.6827826e-04  -1.6011997e-03  -7.5325457e-04  -1.2390501e-03  -9.6579205e-04  -1.3138179e-03  -1.2796882e-03  -1.2151153e-03  -1.1355261e-03  -1.7800308e-03  -9.9360605e-04  -1.4012019e-03  -7.6926168e-04  -1.3257960e-03  -8.8778877e-05  -3.2609627e-03  -1.6901740e-03  -9.4947440e-04  -1.0013806e-03  -2.8464140e-04   2.1662730e-04   3.2364631e-05  -1.8532597e-03  -1.4006181e-04  -1.1882515e-03  -7.8626425e-04  -9.3431136e-04  -2.2241735e-04  -1.7896839e-04   4.3348360e-04  -3.0626642e-04  -1.5909942e-04   8.7295703e-05  -1.2477925e-03  -1.6621924e-04   4.7046016e-04  -3.6922278e-04  -3.2983284e-05  -8.3613200e-03  -1.4605102e-04  -2.8197240e-04
  -3.9032692e-04  -1.8392295e-04  -3.5035575e-04  -4.0967693e-04  -2.4955333e-04  -1.1462707e-04  -6.3498825e-04  -1.1591024e-03   3.4036432e-04   3.4550193e-04  -1.1345772e-03   1.8238934e-05  -9.7662595e-04  -9.0676616e-04  -1.2043803e-03  -1.2881930e-03  -1.2490371e-03  -1.1382899e-03   2.6467148e-06  -8.3804579e-04  -5.0709984e-04  -6.5352729e-06  -1.3515911e-03   7.8362797e-04  -2.9579666e-04  -1.5097284e-03  -9.5373765e-04  -9.9815754e-04   4.7588263e-05   6.6178839e-04  -4.9072580e-04  -2.3085484e-03  -5.0931401e-04  -7.2207797e-04  -6.6328462e-04  -5.9087749e-04   7.5367931e-04   4.9238446e-05   6.2645529e-04  -1.6524548e-04  -5.0928857e-04  -9.9615772e-06  -1.2916964e-03  -5.7407065e-05  -2.5568297e-04  -1.9326982e-04  -7.3404219e-05   3.5903761e-03  -2.1624472e-04  -8.8700777e-05
  -4.9073348e-04  -1.7968060e-04  -5.4889818e-04  -4.5587853e-04  -2.5371360e-04  -3.5039417e-04  -8.2590786e-04   2.0846915e-04   1.3693925e-03   7.9161466e-05  -1.1588418e-03  -3.4770186e-04  -1.0910000e-03  -9.3475415e-04  -1.4538860e-03  -1.0456967e-03  -1.2617275e-03  -9.7945344e-04   6.9432647e-04  -1.0325303e-03  -7.0073776e-04  -2.1305270e-04  -2.4876352e-03   2.0973785e-03  -2.8712940e-03  -1.7338920e-03  -1.0314909e-03  -1.1638370e-03   3.5615065e-04   5.7813793e-04  -1.2248753e-03  -8.5446809e-04  -3.5550789e-04  -5.7540886e-04  -7.8605080e-04  -8.8560750e-04   2.0716549e-04  -1.1956048e-04   2.7215877e-04  -7.1611736e-05  -4.5149773e-04  -7.3259958e-05  -6.5811211e-03  -2.8563075e-04  -9.2032237e-04  -8.5457628e-05  -2.2192363e-04   8.1844293e-03  -3.4816153e-04  -2.6723009e-04
  -9.7763049e-04  -4.8819155e-04  -8.6025323e-04  -7.9174980e-04  -5.7610049e-04  -5.3065369e-04  -1.0322202e-03  -6.4980611e-04  -1.7534168e-03  -2.0422158e-04  -1.3171248e-03  -4.9948291e-04  -1.2275316e-03  -1.0208873e-03  -1.6037095e-03  -1.2924458e-03  -1.4794252e-03  -9.5025304e-04  -6.8536220e-04  -1.2040092e-03  -1.0208677e-03  -5.7608914e-04  -1.5480565e-03   3.0327123e-04  -3.2537612e-03  -1.9153811e-03  -1.0573434e-03  -1.1841443e-03  -4.8699288e-04   3.2754798e-04   3.9055513e-04  -1.7444468e-03  -1.6567450e-04  -1.1376507e-03  -1.0062412e-03  -7.7639543e-04  -2.0007623e-04  -4.4826971e-04  -3.7714824e-04  -4.7007293e-04  -9.9203561e-04  -2.9003600e-04   1.7860135e-03  -4.9351226e-04  -1.6610403e-04  -7.3722913e-04  -5.1726872e-04  -6.8391170e-03  -7.2504865e-04  -6.8620848e-04
  -1.1206606e-03  -8.4516045e-04  -1.6044761e-03  -1.0890511e-03  -8.3960808e-04  -6.9108949e-04  -1.3139741e-03  -1.8053800e-03  -1.4451132e-03  -5.8479927e-04  -1.7234668e-03  -7.5956562e-04  -1.5088872e-03  -1.1625068e-03  -1.5785594e-03  -1.2298254e-03  -1.7235533e-03  -1.2164814e-03  -9.5100648e-04  -1.7644323e-03  -1.2904038e-03  -6.6762825e-04  -1.7825967e-03  -1.1682773e-03  -2.2323369e-03  -1.9957328e-03  -1.2013692e-03  -1.8529723e-03  -2.3223899e-04   1.4943970e-04  -2.0216489e-03  -1.2652553e-03   1.2954779e-05  -1.2203960e-03  -1.0621613e-03  -1.0449056e-03   2.6915377e-04  -2.8275995e-04  -2.8755911e-05  -5.5200461e-04  -9.1451500e-04  -1.7990136e-04  -1.0496503e-03  -3.7814953e-04   2.9610348e-04  -4.5556371e-04  -3.3830406e-04  -6.1252220e-03  -4.2219125e-04  -3.9076951e-04
  -8.1556552e-04  -1.9921488e-04  -7.8837812e-04  -4.3861507e-04  -4.6590407e-04  -3.7290755e-04  -5.3767214e-04  -7.3497044e-04  -9.9871226e-04   2.6767905e-04  -1.4429007e-03  -2.2665010e-04  -1.3593169e-03  -1.1379881e-03  -1.6421414e-03  -1.8081956e-03  -2.3852328e-03  -1.7976700e-03  -1.1736192e-03  -8.9172926e-04  -3.0237122e-04  -4.1715521e-05  -9.5433538e-04  -2.9391279e-03  -2.8161930e-03  -1.7983351e-03  -1.4830874e-03  -1.1198178e-03   5.8902137e-04   5.7466637e-04  -8.1715285e-04  -2.0932246e-03  -5.0825620e-04  -1.1954432e-03  -7.3366106e-04  -1.2663412e-03   9.6499549e-05  -2.2565080e-05   1.1738719e-04   9.2093062e-05  -4.5552466e-04  -2.3562714e-04  -4.3310933e-03  -2.2087470e-04  -5.7055725e-04  -5.1450956e-04  -3.0064909e-04  -7.7549345e-03  -5.0562690e-04  -4.1955561e-04
  -9.4525010e-04  -2.4677182e-04  -7.8654016e-04  -4.7388047e-04  -5.1284250e-04  -3.4523229e-04  -7.4853143e-04  -1.0680561e-03  -1.7494299e-03   1.5919490e-04  -1.5167233e-03  -6.1443815e-04  -1.1805432e-03  -9.1475359e-04  -1.2455139e-03  -1.1084301e-03  -1.8771752e-03  -1.3342965e-03  -2.4875491e-03  -9.2636509e-04  -4.6655905e-04  -1.7365337e-04  -9.6863712e-04   2.4168876e-04  -9.6789887e-04  -1.7189236e-03  -1.1468648e-03  -1.5593568e-03   2.4639646e-04   4.1559289e-04  -2.0705932e-03  -3.6882193e-04  -7.3674915e-04  -1.0012343e-03  -8.9192105e-04  -8.2448858e-04  -1.2928092e-04  -3.9628014e-04  -1.4516109e-04  -5.9675821e-04   4.9004055e-05  -2.7669847e-04  -5.2413396e-03  -5.4878712e-04   2.6991268e-04  -5.7875918e-04  -3.9377317e-04  -3.3118899e-03  -8.0211571e-04  -8.0497027e-04
  -1.1270830e-03  -7.2502618e-04  -1.0412927e-03  -8.9274271e-04  -8.1576442e-04  -7.4884098e-04  -1.1971795e-03  -6.6812377e-04  -1.1988172e-03  -3.3302529e-04  -1.6389102e-03  -9.6443278e-04  -1.1578492e-03  -8.3666766e-04  -1.3201908e-03  -1.2887004e-03  -1.4734467e-03  -1.2940064e-03  -3.2644760e-04  -1.5223246e-03  -8.9680817e-04  -8.0279435e-04  -7.7298674e-04  -1.1188493e-03  -5.3218089e-04  -1.3499133e-03  -8.9103769e-04  -1.5398347e-03  -8.7307120e-04   7.5990421e-05  -2.5305096e-03  -9.2899194e-04   1.2294179e-03  -1.2446415e-03  -1.1723926e-03  -1.3982179e-03  -4.0841108e-04  -8.6444186e-04  -8.5997558e-04  -1.3205294e-03  -2.3151985e-03  -4.8553373e-04  -9.9375274e-04  -8.2817150e-04  -1.3824650e-03  -1.0005571e-03  -5.6574272e-04  -1.2300648e-02  -7.7512220e-04  -1.1306760e-03
  -1.6847411e-03  -1.0784410e-03  -1.8257289e-03  -1.3606667e-03  -1.3249471e-03  -1.1990392e-03  -1.7426965e-03  -1.3755823e-03  -1.8100083e-03  -5.3304585e-04  -1.8035435e-03  -9.3726278e-04  -1.1028299e-03  -8.2451571e-04  -6.8568473e-04  -1.1544729e-03  -1.3116675e-03  -7.8451564e-04   7.9195772e-04  -9.4778498e-04  -5.3862820e-04  -4.3505363e-04  -1.3381314e-03  -7.9329888e-04  -9.3066681e-04  -7.2275964e-04  -3.6571169e-04  -1.4225234e-03  -5.1379733e-04   1.8388859e-04  -2.7552755e-03  -2.1216674e-03  -3.6244522e-04  -9.2200784e-04  -1.0141699e-03  -9.7427098e-04  -3.2873289e-04  -5.0730736e-04  -3.1437809e-04  -4.8615818e-04  -2.7045823e-04  -5.7823735e-04  -2.1918165e-03  -1.8049215e-04  -9.0780033e-04  -6.9501344e-04  -7.4575779e-05  -6.4967256e-03  -5.7793345e-04  -4.7541619e-04
  -4.4091159e-04  -1.4553416e-04  -6.2963134e-04  -4.9171416e-04  -6.3998246e-04  -8.3413126e-04  -9.4439229e-04  -4.6898730e-04  -1.3084253e-03  -4.7175305e-05  -1.0277851e-03  -3.0809807e-04  -7.2721893e-04  -6.6157500e-04  -3.9619792e-04  -9.8860357e-04  -1.1310139e-03  -4.8747199e-04  -2.8516297e-04  -8.7697938e-04  -3.0716063e-04   9.5309930e-05  -7.9599570e-04   2.7070197e-04  -1.3968701e-03  -6.1914528e-04  -3.0318415e-04  -9.9153665e-04   1.9868922e-04   2.4696777e-04  -1.6680053e-03  -1.7865966e-03  -6.5365346e-04  -8.5784681e-04  -9.1410615e-04  -1.0113225e-03  -4.4743635e-04  -5.1853387e-04  -9.1983464e-05  -2.3574162e-04  -1.3580925e-03  -2.6214457e-04  -5.5088373e-03  -1.8972826e-04  -1.2315491e-03  -5.6699099e-04  -3.3311990e-05   1.7542264e-03  -4.1102440e-04  -5.1729946e-04
  -5.5130199e-04  -2.2729150e-04  -7.2557322e-04  -6.0554111e-04  -8.9950435e-04  -6.1859476e-04  -1.1038629e-03  -6.6703692e-04  -4.2784275e-04  -1.9605941e-04  -1.0412998e-03  -6.4675824e-04  -7.9483748e-04  -5.9824251e-04  -6.3355424e-04  -6.6105375e-04  -1.0416562e-03  -4.5708238e-04  -1.3272457e-03  -4.4854940e-04  -5.9322908e-04  -3.2176945e-04  -1.0274545e-03  -3.9982970e-04  -4.4889312e-04  -8.3592837e-04  -3.4285398e-04  -1.2479807e-03  -6.3976762e-04   8.0104124e-05  -3.8402481e-03  -8.0397329e-04   2.9577875e-05  -1.0504242e-03  -1.0297294e-03  -8.0233207e-04  -4.8961770e-04  -7.8611530e-04  -1.8107846e-04  -8.4437482e-04  -4.7007523e-04  -5.4186612e-04  -8.8422168e-03  -5.5788888e-04  -4.6819044e-04  -7.3950668e-04  -1.3293265e-04   8.3025200e-03  -7.7461376e-04  -7.0240820e-04
  -9.3606499e-04  -5.7944027e-04  -1.1697634e-03  -9.4271894e-04  -8.4335869e-04  -5.9934723e-04  -1.3826719e-03  -7.8878726e-04  -4.6065482e-04  -5.9565564e-04  -1.2698598e-03  -9.6447382e-04  -7.9339033e-04  -6.3136459e-04  -6.7619287e-04  -9.4306993e-04  -1.0518304e-03  -7.3701376e-04  -1.1511476e-03  -1.2461132e-03  -1.0231608e-03  -9.0138894e-04  -1.8013130e-03  -2.1789544e-03  -1.8953974e-03  -9.5121760e-04  -3.9297098e-04  -1.2238960e-03  -1.0785407e-03  -1.8412033e-04  -3.0292536e-03  -2.1801142e-03  -1.3599523e-03  -1.0485015e-03  -1.1836613e-03  -1.7290461e-03  -4.6938931e-04  -1.0557836e-03  -7.3511229e-04  -1.3147485e-03  -6.9812412e-04  -6.7055476e-04  -8.9987257e-04  -8.6429511e-04  -1.0836462e-03  -1.1675969e-03  -4.2981852e-04  -1.3998086e-02  -9.0419612e-04  -1.0153976e-03
  -1.4852253e-03  -9.7737159e-04  -1.7371149e-03  -1.3648302e-03  -1.2148394e-03  -1.0753638e-03  -1.6737900e-03  -1.1488250e-03  -6.1146085e-05  -8.0009381e-04  -1.4865155e-03  -1.1997372e-03  -9.5297350e-04  -6.5875106e-04  -6.3129421e-04  -9.1076724e-04  -7.6185627e-04  -3.7176572e-04   6.9914048e-04  -1.1870741e-03  -6.0474721e-04  -4.3257122e-04  -1.2253391e-03  -8.3575782e-04  -1.3675023e-03  -7.5326039e-04  -4.4441409e-04  -1.1545263e-03  -5.5653672e-04   9.3600785e-05  -5.0276551e-05  -2.4236729e-03   7.2837155e-04  -1.0044910e-03  -9.6055953e-04  -6.7653699e-04   2.9096205e-04  -5.4870261e-04  -1.4227592e-04  -9.5442979e-04  -1.2948125e-03  -3.6545470e-04  -1.6632907e-03  -1.3372330e-04  -1.0436346e-03  -1.0064565e-04   2.2592142e-04   6.7146560e-03  -5.1203737e-04  -1.8611684e-04
  -2.0476553e-04   6.6652603e-05  -2.7073768e-04  -3.3760152e-04  -3.7078612e-04  -5.4116460e-04  -8.0178049e-04  -3.4130822e-04   6.8460678e-04   5.7050409e-05  -7.5971399e-04  -4.2514878e-04  -5.4870616e-04  -4.7032294e-04  -4.8710132e-04  -8.2098745e-04  -6.5174734e-04  -1.6600896e-04  -1.7236206e-03  -4.3982541e-04  -4.0588091e-04  -7.3574782e-05  -1.1227243e-03  -5.5565842e-04  -6.6669314e-04  -4.9051474e-04  -3.4099570e-04  -9.2931394e-04  -8.4793579e-04   2.6249449e-04   1.0000686e-03  -1.4055719e-03   9.9481156e-05  -7.4966339e-04  -7.3143555e-04  -5.7795184e-04   2.3454872e-04  -3.9860862e-04   5.2314175e-07  -1.1058333e-03  -1.3520551e-05  -1.6841409e-04  -1.9682264e-03  -8.7753921e-05  -1.9233015e-03   8.0571608e-06   1.7371807e-04   5.3331205e-03  -4.7277455e-04  -3.0837246e-04
  -4.9894338e-04  -6.7626876e-05  -3.8849586e-04  -4.6009736e-04  -1.7242487e-04  -4.2487952e-04  -5.8785192e-04  -1.0678478e-04   2.0161073e-04  -1.9270457e-04  -8.6293137e-04  -3.2150411e-04  -5.8532628e-04  -5.1541760e-04  -6.5720902e-04  -8.2117016e-04  -3.9939085e-04  -5.2908307e-04  -2.1250750e-04  -7.9418434e-04  -6.7477493e-04  -5.1213411e-04  -1.2183177e-03   8.5629133e-04  -1.5766522e-03  -8.0076908e-04  -4.0718474e-04  -1.0472251e-03  -1.7289951e-04   1.2006628e-04   1.9488794e-03  -3.7552480e-04  -2.3874597e-04  -9.0018602e-04  -8.4377342e-04  -1.3245249e-03   1.2943910e-04  -5.9643987e-04  -4.9619511e-04  -1.1402862e-03  -5.3378032e-04  -2.3371220e-04  -5.6982217e-03  -3.9913773e-04  -2.5695559e-04  -2.7012255e-04  -2.2743767e-05   2.1224553e-03  -6.5103482e-04  -5.8385066e-04
  -8.8942586e-04  -4.3402961e-04  -9.5915748e-04  -7.5469317e-04  -4.0610484e-04  -5.7248090e-04  -1.1379664e-03   5.6243396e-05  -1.1919107e-03  -5.9435709e-04  -9.8857947e-04  -9.1424288e-04  -6.7480269e-04  -5.1635219e-04  -6.6484459e-04  -4.1644523e-04  -4.6324881e-04  -4.1254712e-04  -5.5408709e-05  -5.5005774e-04  -1.0506569e-03  -6.8809942e-04  -1.0338736e-03  -2.2550246e-03  -1.9662536e-03  -7.3469407e-04  -4.3055383e-04  -1.3093235e-03  -2.4531642e-03  -8.7614302e-05  -3.3389661e-04  -1.9235527e-03  -1.5286590e-03  -1.1088932e-03  -9.4468001e-04  -1.0541149e-03  -4.5233069e-04  -9.3248236e-04  -8.1051420e-04  -9.5922087e-04  -1.1400649e-03  -3.9682869e-04  -4.4706641e-03  -5.9463532e-04  -6.4072810e-04  -5.9373531e-04  -3.0990184e-04   5.7655447e-03  -8.2343526e-04  -7.8557571e-04
  -1.2671552e-03  -9.2608755e-04  -1.7012875e-03  -1.1497888e-03  -1.1100353e-03  -8.8099821e-04  -1.2725623e-03  -7.2620227e-04  -1.0709179e-03  -1.0812456e-03  -1.3660769e-03  -1.2176504e-03  -8.8977936e-04  -5.5720506e-04  -8.4989821e-04  -9.5257489e-04  -4.4207738e-04  -3.9775597e-04  -3.7021644e-04  -4.9791468e-04  -9.6010469e-04  -6.0859573e-04  -1.3061636e-03  -3.1612191e-04  -1.1461140e-03  -6.7271240e-04  -5.1114173e-04  -7.3538552e-04  -5.7936483e-04  -3.3715335e-06  -1.1672787e-03  -6.8776426e-04   5.0318643e-04  -1.0030234e-03  -8.7764126e-04  -1.7854842e-04  -1.4483485e-04  -4.9819431e-04   9.9479539e-06  -6.6680956e-04  -6.2164641e-04  -2.1537236e-04  -1.5238530e-03  -1.5459994e-04  -4.9998960e-04  -1.7521943e-05   1.3824427e-04  -5.1869461e-05  -2.8171483e-04  -3.5736864e-04
  -4.9891655e-04  -1.3588299e-04  -4.2547143e-04  -3.7578560e-04  -3.2401111e-04  -3.8732743e-04  -7.5667183e-04  -1.0629055e-03   9.4239647e-04  -3.0974322e-04  -8.7093544e-04  -2.9562542e-04  -5.6751783e-04  -4.3226333e-04  -9.6240715e-04  -1.0320786e-03  -4.7202571e-04  -1.7454456e-04  -9.7709091e-04  -2.5664904e-04  -6.5736438e-04  -2.4190899e-04  -5.0629448e-04  -4.9180834e-04  -2.5779190e-03  -6.7357643e-04  -4.1421611e-04  -7.7796052e-04  -3.9714263e-04   2.7159217e-04  -2.4373550e-03  -1.4409904e-03  -8.8963663e-04  -7.6769514e-04  -6.5620092e-04  -3.1745937e-04  -2.8727498e-04  -4.0423617e-04  -4.3102747e-05  -4.6852772e-04  -6.5424800e-04  -1.4862910e-04  -1.5485816e-03  -2.1168680e-04   3.2259495e-04  -2.8814876e-04   1.5571785e-04  -7.5028492e-03  -9.9046032e-05   4.7848033e-07
  -6.8212295e-04  -1.8070811e-04  -4.7833886e-04  -4.6118727e-04  -3.3309736e-04  -3.3358129e-04  -9.4705442e-04   1.8980188e-04   8.8083796e-04  -4.1517787e-04  -8.6974597e-04  -3.3952593e-04  -4.8337778e-04  -3.1987185e-04  -4.5801193e-04  -5.2614039e-04  -4.0206985e-04  -2.3445106e-04  -1.4265811e-03  -1.3779931e-03  -8.6645974e-04  -3.9875621e-04  -9.0156583e-04  -1.0955221e-03  -9.7216346e-04  -5.5125228e-04  -3.2884962e-04  -9.6649415e-04  -8.9451211e-04   1.3484011e-04  -2.2713142e-03  -1.0327761e-03   5.3205679e-04  -8.4335136e-04  -8.0925319e-04  -9.6594804e-04  -6.2859530e-04  -5.2504137e-04  -3.9550630e-04  -7.9782296e-04  -1.2045512e-03  -3.7838315e-04   2.4580858e-03  -3.0407560e-04  -6.7513104e-04  -4.9922004e-04  -4.0229254e-05   6.0262275e-03  -3.4691772e-04  -3.7916150e-04
  -9.4362034e-04  -4.6476259e-04  -9.4527419e-04  -7.9533085e-04  -5.3328543e-04  -5.9546396e-04  -8.4184710e-04  -5.1082013e-04   8.5991087e-05  -7.6947198e-04  -1.1135705e-03  -7.1540283e-04  -7.1259640e-04  -3.5374446e-04  -3.5892098e-04  -3.8245865e-04  -3.4745733e-04  -4.0014501e-04  -3.3793043e-04  -9.4077544e-04  -1.1807393e-03  -6.6035485e-04  -5.6416792e-04  -8.9608709e-04   5.6104996e-04  -5.2386854e-04  -3.9749852e-04  -1.1107069e-03  -1.0627210e-03  -7.8961777e-05   1.3093718e-03  -1.9514990e-03  -1.1269734e-03  -8.4334338e-04  -8.4488280e-04  -1.1551486e-03  -7.4159546e-04  -8.8956009e-04  -6.1227247e-04  -1.0632592e-03  -4.3677716e-04  -5.7823595e-04  -5.1988317e-03  -5.9221487e-04  -6.7279412e-04  -2.9715477e-04  -2.1348433e-05  -4.1832947e-03  -6.1905821e-04  -3.9072122e-04
  -5.6192704e-04  -2.4849470e-04  -3.2700654e-04  -4.1052420e-04  -1.0345764e-04  -4.6555800e-04  -3.8687568e-04   1.3942691e-04  -8.4150356e-04  -1.7576288e-04  -7.6592976e-04  -3.4678230e-04  -4.5403783e-04  -3.2339100e-04  -5.5281125e-04  -5.7654380e-04  -3.0835281e-04  -3.7617731e-04  -1.5375103e-04   9.9301178e-06  -5.7480030e-04  -1.3679326e-04  -5.9353723e-04  -9.4058079e-04  -1.2075066e-03  -1.9143613e-04  -2.1392731e-04  -7.1291544e-04  -2.8092662e-05   3.7056589e-04  -2.0748506e-04  -5.4530299e-04  -4.9445039e-04  -5.1902712e-04  -3.7102378e-04  -3.8351346e-04  -1.2545263e-04  -1.0178415e-04   2.3513143e-04  -5.4863573e-04  -5.5991724e-04  -1.4408249e-04  -2.0768400e-03   5.0986132e-06   5.6774338e-04   6.8798411e-04   2.5871908e-04  -2.8719441e-03  -3.7230132e-06   1.3299585e-04
  -1.9720843e-04   1.3722737e-05  -1.4256376e-04  -2.1449536e-04  -3.8593821e-04  -9.8085417e-05  -6.7089114e-04  -1.6336628e-03   2.7283689e-04  -2.1069832e-04  -6.1868009e-04  -2.3593260e-04  -2.8825528e-04  -2.1733492e-04  -2.5295210e-04  -4.4002911e-04  -1.6012312e-04  -2.5830808e-05  -8.0228940e-04  -7.1989685e-05  -6.0306909e-04  -2.5197022e-04  -2.9079086e-04  -2.0977783e-04   2.5491096e-04  -2.2167740e-04  -2.2662149e-04  -6.3625356e-04  -4.6701831e-04   3.9404084e-04   2.0694819e-03  -5.7595066e-04   3.7198930e-04  -4.3466591e-04  -4.4641600e-04  -3.9313265e-04   6.8323279e-05  -2.1249335e-04  -2.5576970e-05  -2.0948963e-04  -1.1053752e-03  -2.5755490e-04  -6.0001323e-03  -1.6100661e-05  -4.5889089e-04  -4.6138844e-05   1.2351313e-04  -5.1678473e-04  -1.3990469e-04  -7.2509087e-05
  -5.6421006e-04  -2.3370370e-04  -4.6787175e-04  -4.7752436e-04  -1.8874875e-04  -3.6631129e-04  -7.4265047e-04   6.6613441e-04  -1.9865339e-03  -6.0183165e-04  -7.6247897e-04  -3.9365486e-04  -4.5531671e-04  -2.8747955e-04  -5.0617033e-04  -4.5453585e-04  -1.9157607e-04   1.7288528e-04  -1.7110941e-04  -9.2421070e-04  -9.7320660e-04  -4.7641897e-04  -1.9249963e-04  -4.1389598e-05  -1.4287432e-03  -3.3715481e-04  -2.4217248e-04  -7.6895097e-04  -7.2647032e-04   1.7382167e-04   8.4706687e-04  -1.2410866e-03  -3.7578656e-04  -5.1105162e-04  -6.4636837e-04  -8.1232371e-04   2.0712941e-04  -5.5458274e-04  -5.6606909e-04  -4.2801758e-04  -1.0249977e-03  -2.5759454e-04  -1.9452913e-03  -2.3905835e-04  -4.5509460e-05  -3.2942343e-04  -1.0801612e-04  -5.6169168e-03  -4.1158960e-04  -4.2638642e-04
  -8.0603769e-04  -6.2189245e-04  -9.2560513e-04  -8.4482401e-04  -4.4737977e-04  -6.2127312e-04  -8.1925432e-04  -2.3922397e-05  -2.0210564e-03  -9.9424424e-04  -1.0334917e-03  -8.7435741e-04  -5.9666217e-04  -3.3262762e-04  -5.1066309e-04  -5.5095024e-04  -1.6906446e-04  -1.7097172e-04  -9.3225314e-04  -1.4761616e-03  -1.3259354e-03  -8.0209156e-04  -8.7282009e-04  -1.9755512e-03   5.5458437e-05  -4.2321134e-04  -2.3811460e-04  -1.0193568e-03  -6.8413402e-04  -9.9522404e-05   2.2352927e-03  -6.6104560e-04  -1.0938166e-03  -1.0842810e-03  -7.6919631e-04  -9.4371673e-04  -3.2456199e-04  -8.9527835e-04  -6.1137753e-04  -1.0338099e-03  -9.0230961e-04  -4.2044610e-04  -5.3974753e-03  -4.6209607e-04  -1.2738812e-03  -4.9044337e-04  -1.4602290e-04  -1.5312494e-03  -5.8560836e-04  -2.4344643e-04
  -4.3276051e-04  -3.3742157e-04  -3.5635749e-04  -3.9736531e-04   7.7098994e-05  -4.3929490e-04  -4.1289983e-04   9.1093761e-04  -1.1283200e-03  -3.3632046e-04  -8.1250188e-04   3.1359101e-05  -4.0228810e-04  -2.8400804e-04  -3.6919818e-04  -8.3367422e-04  -3.9250538e-04  -4.6207031e-05  -1.7073784e-03  -5.0412153e-05  -5.0715607e-04  -1.8737611e-04   8.0353435e-05  -1.2409624e-03  -1.3811281e-03  -2.5861640e-04  -2.9244664e-04  -3.7449601e-04  -3.1624903e-04   4.5953889e-04  -9.4644219e-04  -6.3354638e-04  -9.8676351e-04  -1.6268156e-04  -2.9421967e-04   4.3161822e-04   2.4310006e-04   7.8813689e-05   1.4340557e-04   1.7541587e-04  -1.4822716e-04   5.6992201e-05  -4.4147065e-04   1.2176407e-04  -3.6193363e-04   4.3750773e-04   2.1372095e-04  -6.4734481e-03   1.6463891e-04   3.4122603e-04
   6.2753650e-05   4.4396565e-05  -6.8296453e-05  -9.5981559e-05   1.4834490e-04  -4.6451903e-05  -1.8796687e-04  -3.2354635e-04  -2.3391447e-04  -1.8448016e-04  -5.9452304e-04  -6.4041655e-05  -3.5770817e-04  -2.3839241e-04  -5.4636982e-04  -5.2815495e-04  -1.5289221e-04  -6.3250525e-05   6.3353946e-04   1.7746662e-04  -4.8936345e-04  -6.3173153e-05  -7.3819549e-04  -7.6790183e-04   5.6373724e-04  -2.6023888e-04  -1.8682165e-04  -4.4149565e-04  -1.1351232e-04   5.4842106e-04  -7.6065154e-04  -1.2939793e-04  -7.4742420e-05  -3.2866854e-04  -2.0807148e-04  -6.4165122e-04   1.2671581e-04   5.5644664e-06   1.8483613e-04  -3.1896395e-04  -3.8174490e-04  -3.7922411e-05  -1.8537728e-03   1.6615762e-04  -2.2013921e-04   1.8564214e-04   1.9725719e-04  -1.0807391e-02  -5.2776388e-05   1.3022429e-04
  -3.3929767e-04  -2.0431417e-04  -5.2877807e-04  -3.8899903e-04  -2.0032220e-04  -1.2232536e-04  -5.8503222e-04  -7.0598267e-04  -9.8038663e-04  -5.5082561e-04  -7.1595394e-04  -3.3830132e-04  -4.0030439e-04  -2.4262033e-04  -5.2402215e-04  -8.8965528e-05  -9.1963950e-05  -1.1800478e-04  -3.4417395e-04  -7.3229743e-04  -7.7808893e-04  -3.1072329e-04  -1.1359280e-03   3.8126041e-04  -1.5230573e-03  -7.6554512e-05  -2.3047419e-04  -4.6253946e-04  -5.2657950e-04   3.1966835e-04  -9.3350856e-04   2.6580083e-04  -8.2564441e-04  -8.7960676e-04  -4.1021476e-04  -9.6562790e-04  -2.9427791e-04  -2.5789905e-04  -8.2980499e-05  -2.5034882e-04  -7.5667124e-04  -2.3325847e-04  -9.4327086e-04  -2.5739055e-05  -3.2428821e-04  -3.5859609e-04  -1.3890091e-04  -1.2465238e-03  -1.8201041e-04  -2.1423795e-04
  -8.5436518e-04  -5.5463909e-04  -8.3308504e-04  -7.0434262e-04  -7.8385149e-04  -5.6061981e-04  -6.8588398e-04  -3.4208315e-05  -1.6202084e-03  -9.5476792e-04  -9.6823764e-04  -8.9888804e-04  -4.8626197e-04  -3.1726784e-04  -5.5539585e-04  -4.5540149e-04  -1.3968781e-04  -2.0690291e-04  -1.0457506e-03  -9.1348961e-04  -1.0949989e-03  -8.9737552e-04  -7.3930301e-04  -9.4224926e-04  -5.5914035e-04  -3.6419829e-04  -3.0599779e-04  -6.6777272e-04  -7.3005777e-04   7.6614197e-05   1.1414499e-03  -9.7640637e-05  -8.6356158e-04  -9.3699340e-04  -7.3031185e-04  -8.4424729e-04  -3.2108248e-04  -6.0352893e-04  -7.3256477e-04  -9.7886124e-04   1.2271905e-04  -3.4529573e-04  -9.4345855e-03  -3.6760420e-04  -1.1178453e-03  -5.7890965e-04  -4.4116791e-04   9.4665261e-03  -7.3464698e-04  -5.0255109e-04
  -1.2356162e-03  -9.3406538e-04  -1.5144688e-03  -1.1005186e-03  -5.0056272e-04  -8.7577035e-04  -1.1838744e-03   5.3160236e-04  -1.3680344e-03  -1.0414069e-03  -1.3089539e-03  -5.9786509e-04  -6.2551012e-04  -3.6072999e-04  -5.4600131e-04  -8.2409428e-04  -3.4056368e-04  -2.0609639e-04   4.1392946e-04  -7.7645160e-04  -6.8086694e-04  -5.0196459e-04  -6.3990580e-04  -1.1644855e-03  -1.0180589e-03  -2.9666416e-04  -3.4427331e-04  -3.1250779e-04  -5.4524309e-04   3.0766163e-04   1.4412721e-03  -1.3326054e-03  -6.9979165e-04  -6.0671702e-04  -5.0494593e-04  -7.3466112e-04   5.1173038e-04  -2.0358731e-05   3.1400510e-04  -2.3159295e-04   3.3731127e-04  -1.5459130e-04  -5.0201379e-03   1.4467510e-04  -3.1417303e-04  -2.9414144e-04   6.0656450e-05   6.6899722e-03  -3.2024254e-04   8.9550886e-05
  -3.4740393e-04  -1.0529005e-04  -3.0683028e-04  -2.1298662e-04  -1.6662369e-04  -2.9340805e-04  -3.9693623e-04  -7.9606334e-04  -7.2146265e-04  -3.6861081e-04  -7.3448976e-04  -3.1064512e-04  -4.5494636e-04  -3.6052038e-04  -6.1795220e-04  -4.2343102e-04  -3.2891060e-04  -1.5770477e-04  -1.0281688e-03  -1.1924041e-03  -4.7540045e-04  -2.3983129e-04  -1.2412640e-03   3.8538605e-05  -1.7670315e-03  -9.2566916e-05  -3.7387773e-04  -3.8149973e-04   3.6461765e-04   5.2429718e-04  -1.8492060e-04  -4.9220346e-04  -5.9762382e-04  -8.1673951e-04  -3.1262115e-04  -1.0459352e-03   2.7256715e-04   5.8386002e-05   2.6185773e-04  -4.0902582e-04  -4.6144790e-04  -1.4837885e-04   2.6328519e-03   9.1432841e-05  -5.1115575e-04  -8.9673440e-06   1.5177797e-05   5.2218774e-04  -4.2445966e-04   8.3071565e-05
  -3.1763589e-04  -2.0939570e-04  -3.3207823e-04  -3.4164853e-04   8.6825959e-05  -3.0845014e-04  -4.0798498e-04  -1.3405888e-03  -1.7209414e-03  -5.1087723e-04  -8.1429165e-04  -4.0711687e-04  -3.3059611e-04  -3.3970078e-04  -4.3953030e-04  -9.8131946e-04  -2.6731144e-04  -1.6806644e-04  -2.9874995e-04  -4.1553256e-04  -6.7424180e-04  -4.7397471e-04  -8.7660934e-05   2.8753193e-04  -1.2433891e-03  -2.0820076e-04  -4.3290079e-04  -4.3715941e-04   2.5155052e-04   3.9332328e-04   2.5393383e-04  -9.2218991e-04  -1.5021150e-04  -4.6423203e-04  -4.4716318e-04  -4.8054272e-04  -2.0925204e-04  -1.4672692e-04  -1.4487332e-04  -2.9488740e-04  -4.7880003e-05  -2.6896104e-04  -4.7192159e-03  -1.0009013e-04  -4.3915451e-04  -6.7072659e-05  -1.9654474e-04  -1.1525529e-02  -3.4932027e-04  -2.5793517e-04
  -7.3198817e-04  -4.8671578e-04  -9.3978649e-04  -6.7974289e-04  -8.0730167e-04  -6.8654295e-04  -1.1746577e-03  -4.0827133e-04  -6.2077888e-04  -9.2498190e-04  -9.5136912e-04  -8.7743439e-04  -5.4167467e-04  -4.0070357e-04  -5.7519460e-04  -5.8524078e-04  -1.1803948e-04  -2.2946933e-04  -7.6916890e-04  -1.0901586e-03  -1.0203997e-03  -7.0016715e-04  -1.7654003e-03  -7.4919424e-04  -1.6462228e-03  -2.8917272e-04  -3.6418915e-04  -8.2780432e-04   5.5771985e-04   1.5563243e-04  -1.2767966e-03  -7.3222927e-04  -1.3100584e-03  -1.0269377e-03  -7.1192370e-04  -9.7239885e-04   1.1376113e-04  -5.2325043e-04  -1.8495842e-04  -7.9935376e-04  -4.9777416e-04  -4.9683114e-04  -5.9211659e-03  -3.3352055e-04  -1.4469413e-03  -4.8951508e-04  -3.7141031e-04  -2.7104186e-02  -1.0186482e-03  -6.0564833e-04
  -1.3507468e-03  -9.2487538e-04  -1.1830839e-03  -9.8338537e-04  -5.6550029e-04  -9.3893375e-04  -1.3330883e-03  -7.2645885e-04  -2.0859446e-03  -8.0069707e-04  -1.1555083e-03  -6.5067637e-04  -5.9539656e-04  -3.8317352e-04  -5.4614793e-04  -6.2380545e-04  -1.3931205e-04  -3.2190100e-04  -7.9164274e-05  -3.9587237e-04  -5.8916706e-04  -4.9689523e-04  -5.5029965e-04  -5.6299323e-04  -3.6464457e-04  -8.4643667e-05  -3.5514016e-04  -5.6212768e-04  -6.9002883e-05   4.5743454e-04  -1.8333734e-04  -1.5511736e-03   1.7754606e-04  -6.7948445e-04  -3.8210652e-04  -6.3468015e-04   2.2185636e-04   6.0245107e-05   4.5981939e-04   3.1672488e-04  -5.6106865e-04  -3.3844871e-04  -5.8161728e-03   1.1197230e-04  -1.0316679e-03  -2.4273224e-05   2.2152676e-04   6.9236863e-05  -1.2799764e-04   2.5808372e-04
  -4.6624868e-05  -8.4423652e-07  -2.2760390e-04  -1.9096480e-04  -5.7588655e-05  -2.7154761e-04  -3.5303985e-04  -9.8823721e-04   5.2816467e-04  -3.6872714e-04  -7.0901518e-04  -2.2507667e-04  -2.6732023e-04  -2.6239161e-04  -5.6648848e-04  -4.6338397e-04   1.1806847e-05  -1.4360221e-04  -2.3283580e-04  -8.3139144e-05  -4.3546467e-04  -2.6730148e-04  -1.2154058e-03  -7.0798502e-04  -1.3785483e-03  -1.7907695e-04  -2.9063228e-04  -6.6411076e-04   1.8598950e-04   6.0197170e-04  -4.4986783e-03  -1.1569099e-03  -1.0517351e-03  -4.2492148e-04  -3.4769793e-04  -4.0871330e-04   4.6532779e-04   7.6000470e-05   3.7663584e-04   3.6347727e-04   8.4485640e-05  -2.2615351e-04  -1.6080796e-03  -7.5926633e-05  -1.1412711e-04  -5.9734717e-05   2.9871659e-04  -4.2827753e-03  -1.7852656e-04  -4.6216381e-05
  -3.5776300e-04  -2.1186659e-04  -1.1274801e-04  -2.6887839e-04  -8.4809253e-05  -1.7709176e-04  -6.6720351e-04   1.0312280e-04  -4.0795509e-04  -3.5056274e-04  -7.0221996e-04  -2.4001206e-04  -5.4081471e-04  -3.0134164e-04  -4.9607788e-04  -6.5179425e-04  -2.7158216e-04   6.6427114e-05  -1.7201031e-03  -8.8429626e-04  -7.0314773e-04  -4.6033334e-04  -6.9840153e-04  -2.0570387e-03   8.5954787e-05  -4.5282452e-04  -3.2188901e-04  -4.4377887e-04  -2.4189363e-04   3.4571157e-04  -3.2221756e-03  -4.8214782e-04  -2.6743262e-04  -8.2520518e-04  -5.4289738e-04  -1.1796848e-03  -8.9358997e-05  -2.4009704e-04  -6.8698886e-05  -4.5107800e-04  -7.1218563e-04  -3.0564482e-04  -8.3299987e-03  -3.5508414e-04  -4.5843245e-04  -3.6262925e-04   8.4664651e-05   1.3996210e-03  -5.1225460e-04  -2.3086734e-04
  -7.2864728e-04  -5.2852620e-04  -8.9247787e-04  -6.3262734e-04  -3.9819768e-04  -7.3875120e-04  -6.5930159e-04   1.0481945e-04  -6.3167379e-04  -7.1394542e-04  -9.4780407e-04  -5.6657352e-04  -5.4653507e-04  -3.9136922e-04  -6.1827310e-04  -5.7413889e-04   2.2008553e-06  -3.1266169e-05  -6.6162425e-04  -7.4124429e-04  -1.0625969e-03  -7.1895862e-04   1.6760569e-04  -1.6179088e-03   1.1826619e-04  -3.4238299e-04  -3.5515428e-04  -1.0155232e-03  -2.4908138e-04   1.1695448e-04   1.5090931e-03  -1.1457310e-03  -7.7496050e-04  -8.8591257e-04  -6.7124376e-04  -8.3610695e-04  -4.9548986e-04  -7.0504984e-04  -4.9328920e-04  -8.7864482e-04   4.9306553e-05  -6.0075457e-04  -3.1826275e-03  -5.2993384e-04  -3.8343683e-04  -6.7799777e-04  -2.3418083e-04  -7.8470592e-04  -8.7382930e-04  -5.1011157e-04
  -1.1902228e-03  -9.0959936e-04  -1.0407207e-03  -1.0309633e-03  -1.1496152e-03  -8.4651646e-04  -1.1700813e-03  -1.7037250e-03  -1.3597073e-03  -1.1693145e-03  -1.2380141e-03  -1.3151465e-03  -7.3429837e-04  -4.0528071e-04  -5.6170899e-04  -6.6271808e-04  -4.0297266e-05  -1.3661793e-04  -1.2881369e-03  -5.5470335e-04  -1.4188784e-03  -1.0369208e-03  -2.5145427e-04  -1.6322308e-03  -6.4094318e-04  -4.9505819e-04  -3.1016773e-04  -1.0264054e-03  -8.0972415e-05  -1.0245568e-04  -1.4757287e-03  -1.8229603e-03  -6.2692800e-04  -9.8308304e-04  -8.2509953e-04  -7.4364769e-04  -5.8808964e-05  -4.6292873e-04  -2.2050066e-04  -7.3285965e-04  -1.2688836e-03  -3.9212935e-04  -7.1814726e-03  -1.8616936e-04  -3.4939111e-04  -3.9067623e-04   2.2786867e-04  -1.0996348e-02  -3.7375244e-04  -1.0888863e-04
  -3.5616540e-04  -1.4113716e-04  -2.7695138e-04  -2.2603376e-04   5.3679843e-05  -1.9648472e-04  -3.5271535e-04  -4.8812776e-04   1.1377463e-03  -7.5659045e-05  -6.7851198e-04   1.3833036e-04  -4.4322328e-04  -3.3196184e-04  -5.6191353e-04  -8.1471220e-04  -1.0645935e-04  -2.9021787e-04  -1.8909329e-04  -8.4112282e-04  -4.2836249e-04  -1.1761823e-04  -1.1955446e-03  -1.0460539e-03  -3.5972644e-05  -1.7178988e-04  -3.0451966e-04  -5.7032285e-04   3.0860206e-04   4.2928231e-04  -3.0372845e-04  -2.4812450e-04  -8.8572636e-04  -6.0878735e-04  -4.4381758e-04   3.5431905e-04   3.9398388e-04  -7.5177311e-05   2.5572767e-04   7.8819990e-05   5.4925662e-05  -1.0213270e-04  -3.6974011e-03  -7.5439864e-05  -7.4374804e-04  -1.9214430e-04   4.3073294e-04  -5.3472811e-04  -3.8091119e-04  -3.7869413e-05
  -6.0478455e-05   7.3564821e-05  -1.9632776e-04  -1.9159995e-04  -7.0587403e-06  -3.5605390e-04  -5.0839054e-04   2.9628168e-04  -3.8855386e-04  -2.0846639e-04  -5.1162299e-04  -1.6539672e-04  -4.2450428e-04  -2.5800921e-04  -3.5991319e-04  -4.2059380e-04   7.3315037e-05  -2.6906634e-04  -1.4026524e-03   2.0461815e-05  -5.5898447e-04  -2.6601728e-04  -9.4011327e-04  -3.9633454e-04  -1.9652117e-03  -2.3550514e-04  -2.6539006e-04  -7.9053116e-04  -6.8768807e-04   3.3741686e-04  -1.9899390e-03  -1.8466755e-03  -1.1991111e-03  -7.9197186e-04  -4.5520774e-04  -3.6736063e-04   3.0325571e-04  -2.4159589e-04  -1.6043564e-04  -1.7399312e-04  -1.2646769e-03  -4.2457459e-06  -1.6974830e-03  -1.8993148e-04  -1.6002805e-03  -9.6788113e-05   1.5513897e-04   9.9072708e-03  -6.0210699e-05  -1.6749039e-04
  -5.9044658e-04  -2.9514547e-04  -3.3866003e-04  -3.9326682e-04  -4.7021845e-04  -4.4496133e-04  -5.6553481e-04  -7.7608653e-04  -1.4874469e-03  -4.7081584e-04  -6.7913218e-04  -5.1232887e-04  -5.0008862e-04  -3.0208504e-04  -2.3936825e-04  -2.3527270e-04  -3.0795971e-05  -5.3635199e-04  -5.3753966e-04  -2.5517831e-04  -7.9186977e-04  -8.0706185e-04  -3.4799468e-04  -3.4632126e-04  -1.9092658e-03  -2.3042469e-04  -2.7868678e-04  -8.8753225e-04  -6.7808629e-05   4.9964066e-05   4.9360166e-04  -1.1823290e-03  -9.4154431e-04  -6.2540564e-04  -7.4694789e-04  -8.2928617e-04   3.1927388e-04  -6.1046128e-04  -4.9190596e-04  -2.9897076e-04  -1.1717842e-03  -3.2626328e-04  -5.4646847e-03  -4.8236214e-04  -7.1803521e-04  -3.3436847e-04  -1.0618020e-04  -2.4357697e-03  -6.6536997e-04  -5.9370184e-04
  -1.0033881e-03  -6.3674641e-04  -1.0072078e-03  -7.7387691e-04  -7.5123599e-04  -6.0931488e-04  -7.1186421e-04  -1.3018692e-03  -1.6632710e-03  -8.8463031e-04  -1.0248955e-03  -6.5654452e-04  -5.7892886e-04  -3.5274957e-04  -5.3948612e-04  -5.1952386e-04  -1.2330062e-04   1.1194043e-04  -9.3323999e-04  -4.6521830e-04  -1.1826905e-03  -9.2980190e-04  -1.3235884e-03  -5.1097287e-04  -9.7171875e-04  -5.9708150e-04  -3.3219205e-04  -9.1499323e-04  -9.5450123e-06  -2.3758897e-04   1.3749042e-04  -8.2752632e-04  -1.2702545e-03  -1.3369489e-03  -9.3561894e-04  -7.9236279e-04  -3.4370311e-04  -8.8006153e-04  -8.2468381e-04  -1.1656599e-03  -1.0922423e-03  -4.9753429e-04  -4.0307632e-03  -4.1410615e-04   4.7735794e-04  -8.1506988e-04   1.4702065e-04   8.4086964e-03  -5.3633208e-04  -3.8255067e-04
  -4.4126131e-04  -2.4743369e-04  -2.5414370e-04  -2.7141467e-04  -5.3991546e-04  -5.5574864e-04  -6.5822271e-04  -5.8965012e-04  -6.8798912e-04  -2.2060360e-04  -7.0790935e-04  -4.5573757e-05  -4.8578720e-04  -3.8133314e-04  -6.6619407e-04  -8.2440738e-04  -2.3457505e-04  -4.5052872e-04  -2.6724103e-04  -4.7763283e-04  -4.3870942e-04  -2.0481016e-04  -7.4602815e-04   7.4391998e-04  -1.3337897e-03  -3.2892157e-04  -4.1755775e-04  -6.8315753e-04   3.6916629e-04   2.3279194e-04   1.0267316e-03  -1.7114262e-03  -4.8392316e-04  -9.4657566e-04  -5.6006992e-04  -6.2189356e-04   2.4885722e-04  -2.0022124e-04  -2.2918101e-05  -4.9381348e-04  -2.6568415e-04  -2.0989799e-04  -3.8162954e-03  -2.2376981e-04  -1.7909138e-04   3.2995769e-05   2.0217337e-04   6.4957788e-04  -2.7376434e-04  -1.7391187e-04
  -3.9407973e-05   1.1885960e-05  -7.0845999e-05  -1.1600396e-04   3.1559561e-05  -1.8593899e-04  -3.5192270e-04  -1.0483633e-03   1.5903442e-04  -2.2163740e-04  -5.2695454e-04   1.1840426e-04  -3.1902187e-04  -3.2084074e-04  -2.3340181e-04  -5.4647890e-04  -2.4822869e-04  -4.6651516e-04   8.6892606e-04  -9.3796442e-04  -4.5965228e-04  -3.5883291e-05  -6.7604196e-05   1.0052824e-03  -8.3103235e-04  -1.1411851e-04  -4.1569179e-04  -8.4314076e-04   4.8170937e-04   2.2894787e-04  -2.3355419e-03  -1.7486785e-04  -6.8462000e-04  -7.7466288e-04  -5.2356068e-04  -1.0452552e-03  -3.1939746e-04  -1.9715972e-04  -2.9797215e-04  -3.6205584e-04  -8.6842437e-04  -2.2723147e-04  -9.4660930e-04  -2.3463200e-04   4.5867860e-06  -7.6997065e-04   1.3101382e-04   6.7874161e-03  -6.8616745e-04  -3.6980250e-04
  -3.2965190e-04  -2.4179414e-04  -4.6130069e-04  -3.5079513e-04  -7.0543226e-04  -4.0967672e-04  -4.5602792e-04  -8.3144265e-04   1.6629302e-04  -4.9937319e-04  -7.0263218e-04  -3.0421859e-04  -4.9998501e-04  -3.1404654e-04  -7.1593659e-04  -6.4152101e-04  -6.6333305e-05  -4.4972601e-04  -3.1860408e-04  -4.3496714e-04  -7.6751609e-04  -4.0399338e-04  -1.4629710e-04   8.6336559e-06   4.1657305e-04  -3.3019812e-04  -4.1239196e-04  -5.7665503e-04  -8.3481107e-04   2.6040581e-05  -2.0070672e-03  -6.2986987e-04  -4.6184490e-04  -7.5930584e-04  -7.2515919e-04  -8.0638146e-04  -4.0296759e-04  -5.4076867e-04  -4.4681836e-04  -6.4214546e-04   1.7783346e-04  -2.6512457e-04   1.5239540e-03  -4.5217562e-04  -7.6137809e-04  -1.5119651e-04  -7.1555980e-05  -1.0401558e-02  -6.7800109e-04  -5.1045610e-04
  -5.9036491e-04  -5.5651873e-04  -8.3602575e-04  -6.7666773e-04  -1.2161890e-03  -5.4818339e-04  -8.3042006e-04  -5.9340813e-04   5.2269152e-05  -9.0349239e-04  -9.7798090e-04  -8.6145615e-04  -6.1032461e-04  -3.6790711e-04  -3.5686599e-04  -5.5990170e-04  -1.4694524e-04  -1.1200590e-04  -1.2140527e-03  -6.4121420e-04  -1.1760079e-03  -9.4455684e-04  -5.8788259e-04   2.9600825e-04   6.1581860e-04  -2.9989737e-04  -3.4953814e-04  -1.2222460e-03  -1.7266084e-03  -2.4024217e-04  -1.2610426e-04  -3.3348889e-04  -1.6179709e-03  -1.0044171e-03  -8.0947683e-04  -1.0395577e-03   3.6623580e-05  -5.4414419e-04  -5.7302724e-04  -5.6280888e-04  -7.8625267e-04  -2.8721232e-04   2.5367883e-03  -1.6639117e-04   2.7926964e-05  -2.4679422e-04   2.8257692e-04  -6.7125154e-03  -4.1868878e-04  -2.8609263e-04
  -3.3147974e-04  -6.0414422e-05  -2.6093415e-04  -1.0804243e-04  -7.5013042e-05  -2.1943914e-04  -4.5804124e-04  -3.1816572e-04   3.7586904e-04  -1.7017128e-04  -4.8496740e-04  -1.4472107e-04  -3.7095643e-04  -2.5396343e-04  -2.5289142e-04  -4.4504204e-04  -1.9435996e-04  -6.2872707e-05  -5.6027653e-05  -4.1358420e-05  -3.5168827e-04  -1.4822055e-05   2.4517166e-04  -1.5311193e-03  -1.2116875e-03   5.8405960e-05  -2.8458485e-04  -6.8781164e-04  -1.1312789e-03   2.9567428e-04  -9.5402167e-05   2.1835850e-04  -4.5380334e-04  -4.3978397e-04  -4.0958650e-04  -6.3722226e-04  -1.7801356e-04  -1.1435898e-04  -1.1079683e-04  -9.8719738e-06   4.5065706e-05   7.3845520e-05  -8.8384823e-04   3.1781605e-05   6.5614237e-04  -2.5697707e-04   3.6563139e-04   8.6231865e-03  -1.9277941e-05   1.6044987e-04
   1.2582910e-05   8.3207597e-05   1.6694868e-05  -3.9117887e-05  -1.5323333e-04  -1.3429692e-04  -1.8263810e-04   2.7560207e-04  -2.7245522e-04  -2.2874847e-04  -4.8519665e-04  -1.0012733e-04  -2.6739889e-04  -2.0873420e-04  -3.3909557e-04  -4.6896946e-04  -1.1003688e-04  -1.0003592e-04   9.9875280e-05  -2.2461143e-04  -5.3704460e-04  -1.8690083e-04   8.9451591e-05  -2.5057755e-03  -1.6970176e-05   1.0640797e-05  -2.6207379e-04  -8.3466619e-04  -5.1024603e-04   2.1534770e-04   4.1524397e-04  -5.2159757e-04  -8.8143675e-04  -5.2084867e-04  -4.7164844e-04  -1.2815870e-04   1.9490415e-04  -2.9206020e-04  -3.4644967e-05  -4.7394648e-04  -4.5391530e-04  -2.0701837e-04  -1.3774482e-03  -1.5826942e-04  -5.5610976e-04  -2.8382643e-05   2.4551572e-04  -2.6711826e-03  -2.5830697e-04  -1.3274990e-04
  -4.1345801e-04  -2.9412081e-04  -4.1700111e-04  -3.4429188e-04  -4.3136586e-04  -2.9288849e-04  -4.9404026e-04  -7.3854765e-04  -1.6809496e-03  -5.2044058e-04  -6.3732732e-04  -2.8796497e-04  -4.5110250e-04  -2.7795896e-04  -4.0155125e-04  -4.5604649e-04  -1.7856172e-04  -1.8416475e-05  -1.5899346e-03  -1.6757975e-04  -8.9127175e-04  -5.9009832e-04  -6.7013188e-04  -6.9571758e-04   4.7993977e-04  -2.1431390e-04  -2.5086175e-04  -9.7866904e-04  -2.4926904e-04  -5.8590313e-06   1.4722678e-04   1.0760931e-04  -1.2609190e-03  -7.6357106e-04  -5.9534138e-04  -5.9291353e-05  -2.3586089e-04  -5.7840085e-04  -4.8140538e-04  -5.5708288e-04  -8.4370485e-04  -2.0368221e-04  -7.0748245e-03  -4.6173623e-04   1.7027372e-03  -7.8184030e-04  -6.0013692e-05   1.2629469e-03  -6.0113223e-04  -6.1754853e-04
  -7.5350655e-04  -6.2160828e-04  -8.1306027e-04  -7.3581352e-04  -7.0649781e-04  -6.9462083e-04  -7.2888489e-04  -3.8307148e-04  -1.3380770e-03  -9.4880309e-04  -1.1238828e-03  -9.2097872e-04  -5.6712201e-04  -3.2725304e-04  -5.2291178e-04  -4.7948310e-04  -2.4740980e-04  -2.0368530e-04  -5.0637079e-04  -1.4917146e-03  -1.2514641e-03  -8.6475897e-04  -5.5286434e-04   7.0189330e-04  -2.3873909e-03  -4.9854122e-04  -3.7213482e-04  -3.4111220e-04  -1.0885878e-03  -2.8522947e-04  -9.2813559e-04  -2.4334264e-04  -8.4902730e-04  -1.1163962e-03  -8.0105761e-04  -9.0566615e-04  -7.5285899e-04  -7.2552817e-04  -4.7411761e-04  -9.3441276e-04  -1.4492793e-03  -2.1791515e-04   2.0100588e-04  -2.6229469e-04  -5.7612342e-04  -2.5244031e-04   2.2052586e-04   4.4991425e-03  -2.5972951e-04  -2.4833946e-04
  -1.6161104e-04  -9.1777125e-05  -6.0841830e-05  -1.0418289e-04   1.4183164e-04  -2.2647738e-04  -2.5047606e-04  -1.2357343e-03   4.2400972e-04  -1.2375574e-04  -6.2240480e-04   1.0545016e-04  -4.6424245e-04  -2.7777968e-04  -4.3922910e-04  -4.2913810e-04  -2.7756195e-04  -3.1060466e-04   1.5762671e-03   1.6717382e-05  -2.8862897e-04   1.0198523e-04  -6.8312278e-04   3.4544227e-04  -2.0698018e-04  -1.8352667e-04  -3.2125786e-04  -6.9439894e-04   2.7498437e-04   3.4157943e-04  -1.8937769e-03  -1.1899159e-03  -8.6776068e-04  -5.1178446e-04  -2.4073877e-04  -7.8724501e-05   4.1594499e-04  -4.5856628e-05   3.1823094e-04  -2.4531510e-05  -5.1125498e-05   2.2975940e-04   1.0145484e-04   1.7301955e-04   3.1399290e-04   1.6861835e-04   4.4427888e-04  -1.6402723e-02   1.8918672e-05   1.1191935e-04
  -6.8417590e-05   1.4459870e-04   1.6033335e-04   4.6884888e-05   3.2913443e-04  -1.0199822e-04  -9.0981717e-05  -4.0182349e-04  -6.3434994e-04  -1.0669998e-04  -4.2215723e-04   1.5124884e-04  -3.6035478e-04  -1.5128353e-04  -2.9503184e-04  -5.3535489e-04  -2.4793876e-04  -1.6203521e-04  -5.6602265e-05  -2.7973269e-05  -4.0814868e-04  -7.5691287e-06  -4.2373542e-04   8.0690726e-05   5.2782305e-04  -9.8111464e-05  -2.1048984e-04  -2.8380545e-04   4.7477026e-04   2.9060207e-04   3.8141140e-04   2.0839067e-04   2.4208824e-04  -4.9079600e-04  -2.3735539e-04   7.4324018e-04  -1.6402091e-04  -8.0521851e-05  -4.5978384e-05  -3.4028541e-05   5.3040253e-04   1.1578242e-04  -6.2602879e-03   1.6621485e-05   3.9186154e-04  -5.6022778e-04   2.5416436e-04   6.6206530e-03  -1.4104422e-04  -1.8448217e-04
  -3.1563523e-04  -2.6831109e-04  -2.6579178e-04  -2.5268798e-04  -3.0298086e-04  -3.8226441e-04  -1.0197698e-04  -5.8873312e-04  -3.3199609e-05  -5.5561954e-04  -6.9686660e-04  -2.7582695e-04  -3.7981221e-04  -1.3573536e-04  -3.6648408e-04  -4.5049202e-04  -3.1669631e-06   6.1631572e-06   5.0239806e-04  -1.4860276e-04  -7.5311866e-04  -3.8623021e-04  -2.1192478e-04  -6.1343698e-04   2.1085362e-03   1.6329403e-05  -2.1243231e-04  -5.7849596e-04   4.2275944e-05   4.8321759e-05   1.0278998e-03  -2.4931482e-04  -4.4855371e-04  -2.9435282e-04  -4.3324882e-04  -1.7532453e-04  -2.0203185e-04  -4.8211816e-04  -6.4591813e-04  -5.8669502e-05  -4.8110573e-04  -1.2877448e-04  -1.4644522e-03  -2.5332061e-04   7.6777762e-04  -3.5270327e-04   1.1184266e-05   1.9771498e-04  -3.7505405e-04  -4.7824319e-04
  -7.5398455e-04  -6.4806850e-04  -8.2078221e-04  -6.5934804e-04  -5.2894943e-04  -5.4196216e-04  -7.0455531e-04  -2.5456594e-04  -7.3562074e-04  -9.3081623e-04  -1.0516697e-03  -5.5488962e-04  -5.0357782e-04  -2.2797093e-04  -4.2223284e-04  -4.7493292e-04   9.5045696e-05  -3.8056134e-04   1.1743566e-04  -8.1554678e-04  -1.1454609e-03  -6.7837123e-04  -1.1102873e-03   1.8849436e-04   3.4620790e-04  -2.8708036e-04  -2.9592583e-04  -5.9518300e-04  -9.8977948e-04  -2.2534767e-04  -1.5577654e-03  -1.9732902e-04  -5.0725840e-04  -6.0717802e-04  -6.1286462e-04  -8.0893020e-04  -3.2075722e-04  -8.0165238e-04  -8.4082555e-04  -5.3172966e-04  -4.5796594e-04  -3.4497012e-04   9.3508716e-04  -6.5618154e-04   2.9882698e-04  -8.0539304e-04  -2.8937295e-04  -1.1510900e-03  -5.2334554e-04  -5.3089514e-04
  -8.5818791e-04  -5.8637385e-04  -3.6101643e-04  -4.4951201e-04  -2.2746924e-04  -5.2566320e-04  -5.0153304e-04  -3.9955720e-04  -1.5477926e-03  -4.2251946e-04  -8.4961491e-04  -4.3513850e-05  -4.6485238e-04  -2.2802278e-04  -5.5470940e-04  -4.5617821e-04  -1.6884721e-04  -9.8036449e-05  -4.7409444e-04   2.5705420e-04  -4.9891259e-04  -1.2122010e-04   1.9665892e-04   5.7161256e-04  -7.1244652e-04  -6.9097630e-05  -3.3950649e-04  -4.0812182e-04  -1.0892067e-03   1.8179436e-04   5.9890951e-04  -7.4609491e-04  -9.0768846e-04  -5.7182228e-04  -2.5030712e-04  -9.4765805e-05   2.9806572e-04  -2.2904138e-05   1.3774278e-04   1.7421166e-04   6.2565249e-04  -6.2105428e-05  -7.4664725e-04   9.2821610e-05  -7.4459508e-04  -7.2342373e-05   2.1176253e-04  -5.8354218e-03  -3.9089154e-04   1.3827786e-04
  -1.8529997e-04  -1.2704755e-04  -1.0687924e-04  -1.1986119e-04   1.3041895e-04  -4.3913382e-04  -2.0090998e-04   8.0808246e-04  -7.7501574e-04  -2.6092844e-04  -6.5061043e-04  -1.5876818e-05  -3.2625327e-04  -2.0054229e-04  -5.6106917e-04  -5.3630077e-04  -1.1221146e-04   1.6050233e-06  -1.4184345e-03   2.3533950e-04  -4.2713428e-04  -2.2522596e-05  -7.5778959e-04   4.0763948e-04  -5.4471276e-04  -5.6193254e-05  -2.4825506e-04  -3.0991112e-04   3.5457994e-04   2.1620268e-04   3.6588186e-04  -1.9305517e-03   1.0123504e-03  -2.4327033e-04  -2.4193068e-04  -6.0963474e-04   3.5559884e-04  -1.3802815e-04  -1.8642770e-05  -1.8794804e-04  -4.5268814e-04  -1.6104260e-04  -3.3757114e-03   3.6434067e-05  -6.6663028e-04  -1.9843919e-04   1.8135017e-05  -4.9974723e-03  -4.9614417e-04  -2.8259714e-05
  -4.1989761e-04  -2.5169243e-04  -5.3099753e-05  -3.0075866e-04   1.0168097e-06  -1.2783807e-04  -5.0111627e-04  -5.3483661e-04  -1.1423329e-03  -5.8038597e-04  -8.2623947e-04  -2.8862228e-04  -4.5292053e-04  -1.7847490e-04  -5.1579351e-04  -5.1461370e-04  -1.5411089e-04  -2.6455900e-05   9.6219772e-04  -3.1620302e-04  -6.9244322e-04  -2.2348849e-04  -2.1653144e-04   8.7215863e-05   3.3077606e-04  -2.0341731e-04  -3.1833534e-04  -3.1642540e-04  -6.5887987e-04   4.5542234e-05  -6.2953314e-04  -9.8040455e-04   1.1970188e-04  -3.0628365e-04  -4.1958675e-04  -1.2316325e-04  -2.6219705e-04  -3.8410805e-04  -3.5156796e-04  -3.9821517e-04   1.2746194e-04  -1.3594692e-04  -2.2207401e-03  -3.1483828e-04  -9.5035671e-04  -2.2192014e-04  -2.1300443e-04  -9.5179258e-04  -5.4968614e-04  -3.0367967e-04
  -8.2376110e-04  -5.9931766e-04  -6.8569259e-04  -6.0545129e-04  -5.9204490e-04  -6.9160713e-04  -3.9117059e-04  -6.5652037e-04  -2.4411849e-04  -9.1967429e-04  -1.0800499e-03  -5.4929912e-04  -4.8048137e-04  -2.3267676e-04  -5.6299038e-04  -1.4397310e-04  -6.1085244e-05  -2.4488039e-04  -3.0849964e-04  -1.5165348e-04  -1.0721803e-03  -6.0887903e-04  -1.1381620e-03  -1.1205458e-03  -3.6995803e-04  -3.0482045e-04  -3.7583653e-04  -1.0691325e-03  -7.8221486e-04  -1.7141136e-04   3.2434144e-04  -1.0493136e-03  -9.1568177e-04  -8.3088374e-04  -5.9306860e-04  -8.8098471e-04  -4.5064263e-04  -6.6618976e-04  -6.9577905e-04  -6.3998409e-04  -8.0489472e-04  -3.5723002e-04  -8.7721786e-03  -5.4906751e-04  -1.1441345e-05  -9.1634534e-04  -2.3775257e-04   8.4378314e-04  -6.4901158e-04  -3.6851506e-04
  -5.1406247e-04  -2.9032343e-04  -1.1831832e-04  -2.2817861e-04  -4.5890327e-05  -2.2585675e-04  -9.3838476e-05  -2.3606437e-04   2.6993902e-04  -2.7246415e-04  -7.5568538e-04  -2.9352674e-05  -4.6765679e-04  -2.8899717e-04  -3.2592562e-04  -4.4982822e-04  -1.7488646e-04  -3.0542203e-04  -1.6438881e-03   9.3801100e-05  -3.6363551e-04  -1.0794055e-04  -1.4267382e-04   1.4120148e-03  -1.0109367e-03  -3.1000374e-05  -3.3232046e-04  -4.7453376e-04   3.2682085e-04   2.7583583e-04  -1.3715490e-04  -2.3625071e-04   1.8926170e-04  -2.3175335e-04  -1.2296229e-04   4.1686307e-04   3.2376807e-05   7.9240890e-05   2.4137509e-04  -2.8700836e-04  -3.1609664e-04  -9.6163240e-05  -3.8486411e-04   1.3612302e-04  -5.0024583e-04  -1.5203196e-04   1.4975753e-04  -4.9128878e-04  -4.1408782e-04   3.9993733e-06
  -1.3312754e-04  -2.8547693e-05   1.2488474e-04  -5.8974215e-06  -2.0263428e-04  -3.0432499e-04   1.1671733e-04  -8.2216487e-04  -1.5399352e-03  -1.5063302e-04  -5.2533892e-04   1.7063136e-05  -1.8268691e-04  -1.5938534e-04  -2.8845671e-04  -2.1164741e-04  -8.8950503e-05  -2.2370870e-04  -1.7103189e-04   4.5699340e-05  -4.0906170e-04  -1.4713235e-05  -4.3046466e-04   2.5536621e-04  -2.4442025e-03  -1.2678714e-04  -2.7513152e-04  -1.5134842e-04   1.4979170e-04   2.8136553e-04   9.4811525e-04  -2.1093959e-04   1.0397674e-03  -5.5573898e-04  -1.8404920e-04  -2.3673351e-04  -3.2346780e-04  -8.0587663e-05  -7.4593147e-05  -7.0910241e-06  -8.0283970e-04   1.1839282e-04   4.2872425e-04  -2.4494937e-05  -1.1541750e-03  -3.1774215e-04   8.1789272e-05   8.0661504e-03  -4.3295042e-04  -1.0737860e-04
  -4.1092583e-04  -2.1972191e-04  -3.8597611e-04  -2.5526041e-04  -1.8897002e-06  -3.9681199e-04  -4.2122556e-04  -8.6552766e-04  -1.0354412e-03  -4.3624057e-04  -7.5386534e-04  -8.2783459e-05  -4.1236376e-04  -2.3288038e-04  -5.7074951e-04  -5.3364004e-04  -1.7402186e-04   2.0804066e-04  -1.5553640e-03  -6.8302616e-04  -7.3928601e-04  -4.5309475e-04  -1.0628331e-04  -1.2321195e-03  -6.7312107e-04  -2.9958287e-04  -3.0004705e-04  -1.0024459e-03  -8.5794374e-05   4.2685559e-05  -1.7711150e-03   9.0705900e-04   9.9121570e-04  -6.1823695e-04  -3.2992187e-04   5.2734718e-05  -1.2424079e-04  -4.3534103e-04  -5.4819096e-04  -6.1592733e-04  -5.9452362e-04  -1.9299123e-04  -8.8932654e-03  -4.1298775e-04  -4.2620226e-04  -1.8423473e-04  -1.4962557e-04  -8.8108731e-03  -5.8018882e-04  -4.7114922e-04
  -6.8612798e-04  -5.8319449e-04  -8.3115033e-04  -6.0608017e-04  -3.3420746e-04  -5.6996796e-04  -5.9984706e-04  -9.7861781e-04  -4.0458434e-04  -8.5385109e-04  -1.0343371e-03  -5.9734908e-04  -5.6646368e-04  -2.5090153e-04  -5.4198946e-04  -4.4225392e-04  -3.8037899e-05   6.5609762e-05  -1.2139290e-03  -1.5346217e-04  -1.1301920e-03  -9.1407169e-04  -5.9417260e-05  -2.7654032e-04  -2.7484784e-04  -5.1670067e-04  -2.7828966e-04  -1.1427816e-03  -7.1775401e-04  -2.3953343e-04  -5.4795551e-04  -2.0611957e-03  -1.7937115e-05  -9.6206041e-04  -6.3788745e-04  -1.1580314e-03  -5.0444604e-04  -8.1543805e-04  -7.9603150e-04  -1.1113617e-03  -1.6945017e-03  -5.9430627e-04   2.5350165e-03  -6.7465776e-04  -8.7114651e-04  -7.9708529e-04  -4.3689928e-04   1.2390095e-02  -6.0770084e-04  -8.0305862e-04
  -1.0996228e-03  -8.4913679e-04  -4.9753638e-04  -5.5611844e-04  -4.9079448e-04  -6.5414672e-04  -2.4448516e-04  -7.0910522e-04  -2.2025828e-03  -2.7719705e-04  -9.4973657e-04  -2.7626121e-04  -5.4539042e-04  -2.7346553e-04  -2.4904124e-04  -2.7229902e-04  -2.7870495e-04   3.4195655e-05   4.2053955e-04  -1.7438442e-04  -4.6436174e-04   7.4270461e-06  -1.0308680e-03   4.2459092e-04   2.5901780e-04  -3.0253126e-04  -2.5641380e-04  -7.3981896e-04  -1.4268090e-04   1.8571664e-04   1.3014954e-03  -1.4822840e-03   1.0065590e-04  -4.4102065e-04  -2.6090155e-04  -1.4702581e-05  -1.2905410e-04  -4.1237268e-05   9.0566587e-05  -1.7547430e-04   1.3991445e-04  -2.3921925e-04  -2.5834313e-03   1.2943096e-04  -1.0357805e-03  -1.4303687e-04   2.5217124e-04  -7.7120662e-03  -2.0245476e-04   2.3282893e-05
  -1.1541683e-04   3.1031424e-05   2.0701844e-04   3.2798700e-05   2.4067778e-04   9.6313313e-05  -3.9874983e-04   2.8131867e-04  -8.2446192e-04  -1.8061120e-05  -4.8469327e-04   6.8401634e-05  -3.0814114e-04  -2.2019127e-04  -5.4046238e-04  -2.1153125e-04  -1.7285743e-04   2.3678986e-05  -1.1141166e-03   3.5218973e-04  -3.1421278e-04   1.0623702e-04  -1.9520913e-04   6.1180070e-04   8.9043175e-04  -1.5564747e-04  -2.3792750e-04  -1.3985659e-04  -3.6397300e-04   3.2725921e-04  -8.6467911e-04   9.7166531e-04  -7.2685810e-04  -2.0586884e-04  -1.3299074e-04  -5.4402950e-05   4.4367681e-04   2.5766612e-05   6.0734765e-05  -1.0301472e-04  -6.7155552e-04  -4.7311274e-05  -1.4312180e-02  -5.1634875e-06  -1.0969152e-03   1.5227142e-04   1.8487568e-04  -3.4573865e-03  -4.0618080e-04  -6.6184744e-05
  -3.4493907e-05  -1.8423737e-04  -9.4995878e-05  -1.6185116e-04   6.0733029e-05  -1.1655982e-04  -4.4747445e-04  -2.7749324e-05   3.4294033e-04  -3.2378756e-04  -5.8958429e-04  -1.4756923e-04  -2.9837590e-04  -2.1989355e-04  -6.4368627e-04  -5.0954812e-04   5.8182741e-05  -2.3423773e-04  -2.0131366e-03   8.3518995e-04  -6.4031943e-04  -2.9879197e-04  -1.6320342e-03   3.9189379e-04   1.2986310e-03  -2.0125898e-04  -2.9162932e-04  -6.5058452e-04   7.7877694e-04   1.2781109e-04  -3.3368674e-04  -4.0355205e-04  -2.2657982e-04  -5.7165034e-04  -2.7839286e-04  -5.1095500e-04  -7.2133269e-05  -2.2694396e-04  -4.3856382e-04  -3.0248144e-04   5.5381574e-04  -1.5175089e-04   9.2789484e-04  -2.3979160e-04  -1.6914754e-03  -1.5329418e-04  -9.9235542e-05  -6.3931611e-03  -4.4940875e-04  -3.5490902e-04
  -8.3210849e-04  -4.8162279e-04  -6.9176056e-04  -4.4912903e-04  -5.5364688e-04  -6.0588750e-04  -5.6813838e-04   5.8731728e-04  -8.7572064e-04  -7.6986355e-04  -8.0366479e-04  -7.2988839e-04  -4.2533153e-04  -2.3171460e-04  -3.7297499e-04  -1.6416190e-04   1.0582675e-04  -2.6438251e-04  -2.0925340e-03  -3.2325558e-04  -1.0538417e-03  -6.3294609e-04   1.6552881e-04   3.0013421e-04   4.7049660e-04  -2.4329877e-04  -3.5674850e-04  -4.4075554e-04  -2.4298273e-04  -1.2722658e-04  -1.0081255e-03  -6.8869872e-04  -3.9250619e-05  -1.2388352e-03  -5.6566176e-04  -2.5343965e-04   1.6921684e-04  -5.3645996e-04  -8.4653927e-04  -6.1951170e-04  -7.1398471e-04  -5.0264486e-04   6.0767843e-04  -5.5768539e-04  -1.0239647e-03  -5.8484671e-04  -2.9913321e-04  -2.2831361e-03  -7.6112524e-04  -6.5459387e-04
  -1.1374268e-03  -9.1293291e-04  -1.1301144e-03  -8.6337427e-04  -1.0024299e-03  -7.7069702e-04  -8.0688740e-04  -5.2733195e-04  -2.4023505e-03  -1.1940890e-03  -1.0976153e-03  -1.0806691e-03  -5.9707148e-04  -2.6424910e-04  -5.4645393e-04  -3.8724780e-04   6.1105740e-05  -3.0101478e-04  -1.0952593e-03  -5.0079246e-04  -9.3120034e-04  -5.9021689e-04  -1.0215252e-03  -6.8921532e-04   1.9109546e-04  -2.5572153e-04  -3.5849740e-04  -5.5078760e-04   2.2243048e-05  -3.2223852e-05  -9.2705805e-04  -4.3168303e-04  -9.2122849e-04  -5.6968554e-04  -3.5047429e-04  -4.1288362e-04  -6.0106773e-05  -1.5202296e-04  -1.0334088e-04  -1.3426911e-04  -1.2550734e-03  -8.5432097e-05  -1.1427715e-04  -1.3972149e-04  -1.4118220e-03  -5.0504185e-04   5.6755393e-06   5.2670515e-03  -2.6856660e-04   4.1344294e-05
  -2.6423510e-04  -1.1047599e-04  -2.9818701e-05  -2.4821336e-05  -9.2265283e-05  -1.5308797e-04  -2.2616512e-04   9.7883469e-04   1.7547467e-05  -2.0207814e-04  -5.7850196e-04   6.0154136e-05  -2.8713801e-04  -2.5662335e-04  -4.4566186e-04  -4.4230642e-04  -4.7676174e-05  -2.7204587e-04  -7.1802828e-04  -6.4978324e-04  -4.9498875e-04  -1.4817067e-04  -2.0549176e-05  -2.0160286e-03  -1.1148850e-03  -1.9331079e-04  -3.7596689e-04  -4.0713724e-04  -3.7973968e-04   2.1457483e-04  -1.1342615e-03  -1.3487365e-03   1.9458109e-06  -3.3309305e-04  -2.4665642e-04   1.0326660e-04  -1.8375776e-04   7.5629265e-07   5.2546238e-05  -3.4407800e-05   9.1812812e-04   1.5274290e-05  -2.1681441e-04  -1.0467964e-04  -7.8581326e-04  -8.5774380e-05   1.7256719e-04  -4.6537295e-03  -3.0691971e-04  -8.4106789e-05
  -1.4949768e-04  -8.5671010e-05  -8.4023450e-05  -1.0879488e-04  -1.7198810e-04  -4.0409467e-04  -3.8814236e-04   6.7059975e-04  -4.2533793e-04  -3.8001654e-04  -5.2706402e-04  -2.4777459e-04  -3.5253336e-04  -2.2881340e-04  -5.8256282e-04  -1.0057350e-04   1.6952668e-05  -4.7123074e-04  -8.2449475e-04   5.4890430e-04  -6.1549037e-04  -3.1193331e-04  -1.1452228e-04   1.5741827e-03  -5.2981009e-04  -6.3694774e-06   4.9984013e-04  -7.4965261e-05  -7.5335935e-04   1.7039393e-04   1.5821457e-03   5.5242167e-04  -1.3414650e-03  -2.9441653e-04  -3.4026703e-04  -1.5727227e-04   4.5927943e-04  -5.0589262e-04  -1.2715235e-04  -1.8241114e-04  -2.8255433e-04  -2.7106621e-04  -2.3748635e-03  -2.9130568e-04  -7.1513455e-04  -2.0464849e-04   6.1585865e-04   9.4441622e-03  -1.7384351e-04  -7.7979123e-05
  -5.5796205e-04  -7.2080968e-04  -6.9173961e-04  -7.6478842e-04  -5.8824435e-04  -9.5504487e-04  -1.1395281e-03  -1.3479389e-03  -2.3677465e-04  -9.2699082e-04  -6.0156820e-04  -7.0720009e-04  -3.7407773e-04  -2.7970062e-04  -3.9083870e-06  -4.5578444e-04  -1.7124211e-04   9.9120989e-05  -1.6335568e-03  -4.6646048e-04  -7.4566010e-04  -4.9724034e-04  -7.9604960e-04  -1.1089331e-04   8.3987811e-04   4.5400553e-05   2.3362160e-04  -7.4313645e-04  -8.2722562e-04   2.9399556e-05   1.0474799e-03  -3.4331897e-04  -1.1673499e-04  -7.2106498e-04  -6.0085155e-04  -1.1071393e-03  -1.4685774e-04  -6.5862614e-04  -4.3845421e-04  -9.7620534e-05  -1.1851602e-03  -6.1207329e-04  -3.2509652e-03  -4.7309909e-04  -9.1000518e-04  -2.2474365e-04  -8.5142019e-05  -2.6680634e-03  -5.2548514e-04  -4.6113302e-04
  -1.1136462e-03  -9.4173395e-04  -1.5444380e-03  -9.8083133e-04  -9.1741537e-04  -9.0718229e-04  -1.3057110e-03  -1.9085222e-03  -1.9612680e-03  -1.3235068e-03  -8.9862233e-04  -1.0300510e-03  -4.5723180e-04  -2.4793539e-04  -3.3281904e-04  -4.1331875e-04  -1.6482901e-04  -2.3030797e-04   8.2393619e-04  -9.4198500e-04  -4.2727662e-04  -1.6924748e-04  -9.4437157e-04  -1.3797043e-03   1.4973384e-03   3.6540758e-04   2.1549172e-04  -1.9798511e-04  -6.0126185e-04   1.5719404e-04  -1.2853703e-03  -1.2796181e-03  -1.7690861e-04  -4.2958625e-04  -3.1276309e-04  -3.1170066e-04   3.2330398e-04  -2.4474508e-04   4.6915800e-05   2.7836001e-04   7.6181692e-05  -4.0241104e-04  -1.7948383e-03   6.3490945e-05   5.1088829e-04   3.6831887e-04   3.3744352e-04   4.1354997e-03  -1.6239255e-04   7.4886202e-06
  -1.3526028e-04  -7.9284800e-05  -6.3703708e-05  -2.8338100e-05  -3.8582852e-04  -7.0206966e-04  -2.3925150e-04   2.5257398e-04  -1.7099670e-04  -6.1008794e-04  -3.6845577e-04  -3.4814814e-04  -5.7651443e-05  -1.4334341e-04  -2.5441471e-04  -6.0775847e-04  -4.6873265e-05  -8.1969083e-05   3.2317097e-04   6.3365541e-04  -1.8369182e-04   1.5481007e-04  -5.8521273e-05  -2.0428763e-03  -1.4082923e-04   3.6847225e-04   3.0310132e-04  -5.0734403e-04  -5.6565605e-04   3.3659005e-04   4.2630131e-03   7.0997114e-05  -3.7233491e-04  -3.9639880e-04  -3.0293904e-04  -8.1459084e-04   3.2075658e-04  -3.4398585e-05  -9.7435213e-06   5.4676784e-04  -8.3894219e-04  -4.3836475e-04  -3.9819102e-03   1.1706870e-04  -1.3701076e-04   2.6192438e-04   4.1171294e-04  -1.1614842e-02  -3.0037819e-04   1.4797182e-04
  -1.4843997e-04  -1.6178958e-04  -4.6934959e-04  -2.0938941e-04  -3.3796506e-04  -4.4775635e-04  -5.5681216e-04  -1.0841419e-03  -1.4529640e-03  -8.8829687e-04  -3.4913214e-04  -3.7824243e-04  -1.7316038e-04  -1.0012811e-04   2.0879407e-04  -5.3816324e-04  -1.0221590e-04  -5.4072796e-05  -3.1444647e-03  -1.4527676e-04  -4.5252466e-04  -4.3986522e-05   4.1452952e-04  -1.8077353e-03   3.8634626e-05   4.1521600e-04   3.2016690e-04  -4.4516704e-04  -1.1047384e-03   1.4075791e-04   1.3195003e-03  -4.9802504e-04  -2.6311824e-04  -4.3467502e-04  -4.0774126e-04  -1.1312041e-04  -4.1273976e-05  -3.6680661e-04  -3.6396089e-04  -3.8467132e-04  -6.4466224e-04  -3.6805580e-04  -4.1621882e-03  -2.2965777e-04  -1.7460348e-03   8.6571687e-05   1.7622759e-04  -2.7177355e-03  -2.5267218e-04   8.9196794e-05
  -6.6267391e-04  -5.1840779e-04  -7.2122476e-04  -4.9417064e-04  -7.1360840e-04  -5.9887167e-04  -8.8682229e-04  -9.3582203e-04  -2.8334561e-04  -1.2485544e-03  -6.9693389e-04  -7.3125726e-04  -3.5712516e-04  -1.3148453e-04  -7.4059171e-05  -5.9164275e-04   9.7117381e-06   1.0367869e-04  -1.5519478e-03  -9.7909430e-04  -7.8239274e-04  -3.0836297e-04  -2.1217862e-04  -4.2127026e-04   6.2694779e-04   3.8258545e-04   2.2242522e-04  -4.3435011e-04  -9.5220975e-04  -1.4070106e-04   9.6960612e-05  -6.1400520e-04   2.5643071e-04  -7.5944560e-04  -5.2884116e-04  -9.7187440e-04  -1.8800230e-04  -6.5532065e-04  -4.1351849e-04  -7.2767813e-04  -9.0669742e-04  -6.0415594e-04   4.2598633e-04  -3.3992334e-04  -9.6653885e-04  -4.8431047e-04  -9.7494794e-06   1.7156150e-03  -3.9187077e-04  -4.8679707e-04
  -1.1292502e-03  -1.0348797e-03  -1.2095647e-03  -9.0153981e-04  -7.6648273e-04  -1.0419813e-03  -4.7930275e-04  -1.7814078e-04  -1.6906640e-03  -1.6919591e-03  -9.6026942e-04  -1.2536702e-03  -3.8428610e-04  -1.6256062e-04  -2.9095565e-05  -5.9670035e-04  -7.4758333e-05  -3.6069247e-04   8.3867263e-04  -1.5544779e-04  -6.2645762e-04  -4.5981322e-04   6.7583343e-04   4.6717719e-04   2.4755682e-05   6.0645072e-04   2.3041238e-04  -4.7349543e-04  -3.1448549e-04  -3.7844558e-05   5.3990330e-04  -7.8920770e-04   7.5482036e-04  -4.7840743e-04  -4.4071340e-04  -8.3536019e-05  -1.6738108e-04  -2.7434819e-04   1.4295087e-04  -7.0077789e-05  -4.1683522e-04  -3.5237518e-04   3.7333730e-03  -4.0472598e-05   3.9264010e-04  -9.3273426e-05   3.9587583e-04  -2.5089374e-03  -1.0217340e-05   3.1134009e-04
  -3.6333560e-05  -9.3035524e-05  -8.9446869e-05   4.8252816e-05  -4.3312219e-05  -2.4415279e-04  -1.0497419e-05  -6.8116578e-04  -2.4963202e-04  -6.2104384e-04  -3.2630688e-04  -2.6851791e-04  -1.3863418e-04  -6.8021436e-05  -8.5547770e-05  -8.5925846e-04  -1.2664443e-04  -8.1888084e-06   2.2522213e-03  -7.4964946e-06  -1.0365112e-04   2.1404220e-04  -1.5322679e-04   2.1672892e-04  -2.5595156e-03   5.8842945e-04   2.0666025e-04  -4.2650310e-04  -5.7311304e-04   3.0114301e-04  -1.6931377e-03   1.1494434e-03  -6.1122229e-04  -5.4324401e-04  -9.8486540e-05  -4.2027683e-04   3.3588175e-04   9.5883101e-05   2.1573329e-04   3.0178414e-04  -6.1214913e-04  -1.6297954e-04   3.3707693e-04   2.3726217e-04  -3.4404290e-04   6.1703677e-04   5.0393119e-04  -8.7418230e-03   8.9017289e-05   4.3463957e-04
  -3.7231781e-05  -4.2217474e-05   8.8308923e-05   1.8154242e-05   3.5174011e-04  -2.0626158e-04  -2.4893702e-04  -4.3058093e-04  -5.7619443e-04  -7.7251665e-04  -3.3979621e-04  -3.3418043e-04   1.1099366e-04  -5.2415038e-05   1.2253921e-05  -4.2186287e-04   1.4289733e-05   1.8494891e-04  -2.9894084e-04   1.7414360e-04  -2.2378628e-04   2.2188200e-04   9.8735117e-04   5.1510660e-04   1.8278966e-03   6.0406816e-04   1.8106280e-04  -3.2755072e-04  -3.3866224e-04   1.6102246e-04  -3.6958551e-03  -1.7418269e-03  -2.7997667e-05  -3.6131917e-04  -2.4388208e-04  -8.4517157e-04   1.4516973e-04  -1.5424729e-04  -1.5884539e-04  -2.7076432e-05   2.4702228e-04  -8.2932078e-05  -3.4917851e-03   2.4130044e-05  -1.4040429e-03  -1.8684928e-05   3.6531055e-04  -4.7113639e-03   9.0411551e-05  -4.3044936e-05
  -4.0801303e-04  -4.4453109e-04  -6.0720323e-04  -3.3079449e-04  -7.7897013e-04  -5.7045766e-04  -3.4281792e-04  -1.0081038e-03  -1.2157691e-03  -1.0872133e-03  -5.3990638e-04  -4.3336352e-04  -1.0827243e-04  -6.9310889e-05   3.7042369e-04  -3.1502909e-04   5.6552355e-05   2.0128692e-04  -2.2798853e-03  -1.6815832e-04  -6.2981679e-04  -1.9830714e-04  -9.1332936e-04  -2.9886494e-04   2.0367098e-03   3.7504418e-04   1.9512349e-04  -6.2248216e-04  -4.7212956e-04  -1.0057027e-04   8.5882749e-04  -6.8573072e-04  -3.3468322e-04  -6.8804238e-04  -4.5191517e-04  -3.5393247e-04  -1.1923130e-05  -4.7142358e-04  -5.1698048e-04  -5.6080823e-04  -2.2932411e-04  -4.3012406e-04  -1.9825704e-03  -1.9400545e-04   3.4952976e-05   2.8010990e-07   8.3658277e-05  -1.6456101e-02  -4.9213768e-04  -2.5797103e-04
  -8.6017931e-04  -8.7224861e-04  -1.0002536e-03  -7.1679044e-04  -7.8304828e-04  -9.1149670e-04  -6.5370888e-04  -1.5080003e-04  -1.2332307e-03  -1.4993512e-03  -9.2651101e-04  -9.8097965e-04  -2.0169174e-04  -7.2831805e-05  -6.7249021e-05  -3.5677620e-04   1.2970348e-04  -8.0533056e-05  -3.4905493e-04  -6.7880668e-04  -9.8535488e-04  -6.0869579e-04   2.7185745e-04  -2.0694342e-03  -1.3147158e-03   1.8434752e-04   9.4133371e-05  -6.6152093e-04  -2.3586533e-04  -3.2734056e-04  -1.8499573e-03  -1.2827144e-03   6.5167079e-04  -6.6900632e-04  -5.5583980e-04  -9.9105982e-04  -2.3715988e-04  -3.1020318e-04  -2.6205927e-04  -2.3715233e-04   4.2568074e-04  -2.0228719e-04   2.3501208e-03   3.7604284e-05   2.5221563e-04   2.6715521e-04   2.8686348e-04  -2.1790261e-03   5.5947607e-05   1.7416687e-04
  -1.7381550e-04  -3.0930588e-04  -1.5146867e-04  -5.7315028e-05   1.8110593e-04  -3.3989944e-04  -1.0556058e-04  -5.1448710e-04  -6.7360804e-04  -6.7950255e-04  -4.6750833e-04  -6.8738453e-05  -1.1068009e-04  -7.4711272e-05   3.6784048e-05  -7.0753612e-04  -1.3481476e-04  -5.6898909e-05   6.9942931e-04   2.3133162e-04  -1.4682603e-04   1.7754377e-04   7.6790823e-04   4.1571123e-04   1.4962311e-03   3.1192234e-04   1.7480044e-04  -5.9209345e-04  -5.9749233e-04   1.6354228e-04   1.5844275e-03  -1.1063600e-03   1.0817259e-03  -3.9177499e-04  -2.2221067e-04  -1.3660690e-04   8.5396590e-05   1.5813965e-05   1.9887512e-04   4.6882738e-04   6.0345477e-04  -1.7329933e-04  -2.3276194e-03   2.2476455e-04  -4.3801352e-04  -3.7054382e-05   4.1254441e-04  -7.0547727e-03   9.6608441e-05   1.7780453e-04
   1.1886325e-05  -1.4789996e-04  -6.2980769e-05   2.0178972e-05   1.6680657e-05  -3.4174952e-04  -2.3037153e-04  -2.9032782e-04   1.4446055e-03  -6.7751505e-04  -3.6188020e-04  -1.3090284e-04  -1.4991414e-04  -6.4512329e-05  -1.3184235e-04  -4.6395694e-04  -4.3451386e-05   1.4417265e-04  -1.1775837e-03  -2.3557247e-04  -2.5057368e-04   1.1694578e-04  -1.0942321e-04  -7.9973286e-04  -2.4747089e-04   1.9685323e-04   1.4234180e-04  -2.4064857e-04  -8.5075031e-04   1.3247189e-04   3.2912128e-04  -8.9305351e-05   6.8784022e-04  -3.4974227e-04  -2.1877080e-04  -9.6256495e-04   4.1891236e-04  -1.1718171e-04  -1.8203867e-04  -4.2657251e-05   5.0089014e-04  -2.5449955e-04  -9.2209913e-03   1.4858391e-05  -1.2834444e-04  -8.0462130e-05   2.9835125e-04  -3.6311703e-05  -2.1329847e-04   3.5786761e-05
  -2.4590018e-04  -4.5868818e-04  -6.1893224e-04  -2.4076262e-04  -4.8390726e-04  -7.6022826e-04  -2.0197518e-04  -1.3117038e-03  -1.1605697e-03  -9.3321066e-04  -5.3888065e-04  -2.1970322e-04  -1.7634904e-04  -8.0986378e-05   1.1962876e-04  -2.1857754e-04  -5.4070282e-05  -6.2589661e-06  -7.9008623e-04  -2.1934016e-04  -5.8891519e-04   4.7021626e-06  -4.9561349e-04   4.3260842e-04   6.2684738e-04   2.1947817e-04   1.2512323e-04  -3.3977587e-04   2.7679602e-04  -3.9752944e-05   1.7309540e-03  -1.2816648e-03  -7.2382134e-04  -9.1607420e-04  -3.7800844e-04  -1.2999984e-03  -8.9166999e-05  -4.0468192e-04  -5.6525832e-04  -4.7761248e-04  -7.0166570e-04  -4.5190027e-04   9.4715593e-04  -3.0303240e-04  -2.5229130e-04  -3.6862012e-04   3.4446661e-05   5.7439040e-03  -2.7933726e-04  -2.2246283e-04
  -8.1757200e-04  -7.4043724e-04  -1.0252495e-03  -5.6425174e-04  -5.7270192e-04  -6.5035350e-04  -3.8927465e-04  -3.4175714e-04   8.8070921e-04  -1.1002972e-03  -7.2789029e-04  -6.1403017e-04  -2.1538176e-04  -4.9703223e-05   2.7956685e-05  -6.4590428e-04  -1.7716206e-05   1.4455416e-04  -7.2853157e-04   5.3722161e-04  -2.9297810e-04  -9.1317190e-05  -4.6187724e-05   8.3308865e-04   4.1985538e-04   2.1330573e-04   1.5031437e-04  -2.5352952e-04   7.1733783e-04   1.3568590e-04  -1.3029526e-03  -1.3012746e-04  -5.7430740e-04  -3.5119031e-04  -1.6141780e-04  -1.4444534e-04   1.5065575e-04   7.0235241e-05   1.6804902e-04   5.5982528e-04  -2.6531290e-04  -5.9266007e-05  -8.8191031e-05   2.2816917e-04   7.6178066e-04   4.8335112e-04   4.5259602e-04   5.9657437e-03   1.3515761e-04   2.7395319e-04
   3.7098554e-04   5.1255549e-05   4.6939135e-04   2.0062223e-04   3.3379809e-05  -2.7707627e-04   2.4749627e-04  -2.2831991e-04   9.6939970e-04  -4.4036866e-04  -1.6548576e-04   1.8628736e-05   8.5425250e-05   2.7808059e-05  -1.3699409e-04  -5.2370090e-04   1.5564371e-04  -2.7053473e-05   1.8516408e-03   2.6757794e-04  -3.9106973e-05   2.0056494e-04   6.5449090e-04   8.5797062e-04   1.1753126e-03   5.7442469e-04   1.5029400e-04  -9.7084871e-05   4.4165360e-04   3.5470686e-04  -8.2771538e-04  -5.3348404e-04   4.0246831e-04   6.4587337e-05   6.7256842e-05  -1.1733149e-03   1.6991102e-05   2.6579568e-04   3.2705197e-04   8.7954878e-04   4.2991727e-04   3.7648624e-05  -9.5572965e-03   4.2801673e-04  -1.9395931e-04   2.1064821e-04   4.6496224e-04   1.9107107e-02  -1.6266645e-04   4.0027837e-04
   2.0402543e-04  -2.9165569e-05   5.7334735e-05   1.0119556e-04   5.4319058e-05  -2.5100855e-04  -7.8780533e-05   9.7061144e-05   9.2056982e-04  -5.6165300e-04  -1.7058392e-04  -2.9968895e-04   1.3575585e-04   4.7736215e-05   1.1737441e-04  -2.5034189e-04   4.7016259e-05   1.7861508e-04   6.0879649e-04   1.5141840e-04  -2.9847593e-04   2.3558887e-05  -2.4371658e-04  -5.8637635e-04  -2.0200871e-04   3.7159029e-04   2.1922910e-04  -2.6935662e-04  -4.6442237e-04   1.9940971e-04   1.6326441e-03  -1.2834168e-03   1.8592400e-06   3.0027655e-05  -1.1434223e-04  -2.3083511e-04  -7.6326342e-06   5.6855301e-06  -9.3262941e-05  -2.6670197e-04  -1.4421863e-03  -1.8227410e-04   3.4374523e-03  -2.4450012e-06   8.4957188e-05   3.2702307e-04   2.3802700e-04  -7.3452140e-03  -4.2336571e-05  -1.3379990e-04
  -2.4652597e-04  -3.4065818e-04  -2.4009113e-04  -2.1793746e-04  -2.0514043e-04  -2.9633217e-04  -1.7594993e-04  -2.8256630e-04  -1.3607787e-03  -9.2268398e-04  -4.2497690e-04  -6.3916197e-04   1.5357937e-05   4.2743464e-05  -1.9146492e-04  -4.9346039e-04   7.6965989e-05  -7.4187163e-05  -1.5702039e-03   6.2565412e-04  -6.2763866e-04  -1.4791852e-04   3.4425280e-04  -1.2439260e-03  -1.9564116e-04   2.1823854e-04   1.7961895e-04  -4.9339898e-04   2.2637782e-04  -4.7328882e-05   1.5639502e-03   3.7499738e-04   6.4655920e-05  -4.5707013e-04  -2.7434502e-04   3.1401787e-04   1.6878550e-04  -3.5052138e-04  -4.4455400e-04  -4.0486848e-04  -2.7949814e-04  -4.1430193e-04  -1.0315799e-02  -2.7337548e-04   3.0926807e-04   1.0707117e-04  -4.0161231e-05   2.8333813e-04  -4.6373025e-04  -2.7879566e-04
  -7.0707459e-04  -7.7056425e-04  -5.5305508e-04  -5.0576456e-04  -4.7421150e-04  -5.7395420e-04  -1.0174400e-04   1.2517342e-04  -9.1608329e-04  -7.0303254e-04  -5.6701840e-04  -4.9890537e-04  -1.6460452e-05   2.2343145e-05   9.9382771e-05  -3.0632949e-04   5.0603016e-05  -2.0284440e-05   4.4161011e-04   8.8334426e-05  -1.5706073e-04   1.7790639e-04   6.3051796e-04  -6.8283122e-04  -4.5545716e-04   4.6784981e-04   1.1161797e-04  -8.2885279e-05   4.9055595e-04   2.8665093e-04   2.0151087e-03  -4.8454458e-04   7.6820189e-04  -2.9637606e-04   1.1985507e-04   9.3048031e-05   4.8593656e-04   3.6849658e-04   5.3991773e-04   5.0495455e-05   9.1551570e-05   2.5816744e-05  -6.7943898e-03   4.4395318e-04   7.3649210e-04   1.1379527e-03   6.1671215e-04  -2.0220771e-03   5.5680212e-05   4.9058691e-04
   3.8605559e-04   2.8940858e-04   8.3327136e-04   4.5887788e-04   6.5196294e-04   1.1115779e-04   2.6946006e-04   3.3860997e-04   2.3236603e-04  -1.9505506e-04   9.7631064e-06   9.1983602e-05   2.4392715e-04   9.0308553e-05   6.1281396e-05  -4.9632275e-04   1.9728980e-04   2.2704512e-04   5.4363051e-04   5.4919353e-04   1.2636800e-04   3.3882758e-04   5.2809395e-04  -1.1586581e-03   1.1462289e-03   4.9443275e-04   1.7998657e-04  -1.0818252e-05  -4.5750421e-04   5.2785379e-04   1.3952744e-03  -3.7651311e-04   1.0405519e-03   5.3442380e-04   3.2702554e-04   3.6449442e-04   7.6172745e-04   4.4240738e-04   4.6190456e-04   3.6963541e-04   7.9563929e-04   1.8554482e-04   1.9136230e-03   4.1037178e-04  -6.2889000e-04   1.2294111e-03   5.6374335e-04   8.6921884e-04  -4.8551930e-05   3.8304413e-04
   4.1036878e-04   1.4855660e-04  -1.5067106e-05   2.7614232e-04   5.2492571e-04   5.2644631e-05  -2.0813044e-05  -4.6712963e-04   1.9892436e-03  -4.1156283e-04  -2.3075104e-06  -1.9904473e-04   2.3686237e-04   1.4747493e-04   1.1046680e-04  -2.1584261e-04   2.6968928e-04   2.2750619e-04   9.8949019e-04   1.0934034e-03  -1.6682698e-04   3.1183587e-04   9.6563518e-04  -9.8192540e-04   4.0247146e-04   5.9286057e-04   1.9249080e-04   1.0209184e-05  -4.5592929e-04   3.3201385e-04   7.5878709e-04   2.5106687e-04   3.2392726e-04  -1.3499724e-04   2.1484298e-04  -1.5785052e-04   4.6760874e-04   1.7204552e-04   2.8775740e-04  -1.7149389e-06   6.1260938e-04   8.2942948e-05  -7.5500910e-03   2.0889532e-04   2.3138674e-04   1.4231523e-04   3.0980859e-04   4.7539901e-03   6.3147934e-05  -1.3180624e-05
  -1.6710351e-04  -2.0224799e-04  -9.7756274e-05  -9.8688388e-06  -5.5429002e-04  -1.6278090e-04  -6.8828769e-05  -6.3174078e-04  -8.2394632e-04  -8.2671805e-04  -2.8829605e-04  -3.5662731e-04   1.6106256e-04   1.5764311e-04  -2.4823403e-05  -2.5474929e-04   3.2111609e-04   1.1673648e-04  -2.0749352e-03   8.5059309e-04  -5.5363821e-04  -1.5619340e-04   3.4919629e-04  -2.1092845e-03   1.3020647e-03   3.7231529e-04   7.2139112e-05  -5.8235364e-05  -5.9190392e-04   5.7359903e-05   2.4614912e-03   3.4827471e-04  -1.8494453e-04  -5.1656865e-05   5.0105309e-06   2.4220644e-04   6.1801943e-04  -1.4205473e-04  -3.4986107e-04  -6.9651578e-05  -4.3696718e-04  -2.8402288e-04   2.7278794e-03  -8.3639272e-05   7.8295323e-04   2.6678835e-04  -1.4511516e-05  -1.0850180e-02  -1.1680749e-04  -1.4096878e-04
  -6.4653630e-04  -6.2249135e-04  -6.6336634e-04  -4.1095645e-04  -4.4157298e-04  -6.5550965e-04  -3.8964525e-04   7.9255173e-05   1.6549525e-04  -1.2063173e-03  -6.0612947e-04  -9.8654511e-04   2.8588478e-05   1.1168140e-04  -1.0701270e-04   7.7490433e-05   2.7875751e-04   2.9093513e-04   1.1174553e-03  -8.2941842e-05  -4.8058064e-04  -1.1072694e-04   5.1426946e-04  -7.3532836e-04   2.5004896e-04   4.2818510e-04   3.5989542e-05  -2.5777766e-04  -5.8750702e-05   1.1556613e-04   2.4018963e-03   6.7782379e-04   1.4236955e-04  -2.1595208e-04   2.4909645e-05  -6.5698485e-05   3.2592140e-04   2.6382625e-04   5.3800340e-04   2.2954926e-05   8.6802104e-04  -5.3280219e-05   1.3081485e-03   2.0336441e-04  -1.0123530e-03   3.6707573e-04   3.5176499e-04   7.9582911e-03   3.1861655e-06   3.5547456e-04
   2.0034923e-04   8.8938265e-05   5.3782715e-04   3.7129858e-04   4.2983485e-04   1.5254533e-04   5.1267201e-04   2.2807521e-04  -6.7933317e-04  -3.3023543e-04   6.4617525e-05   2.4808181e-05   1.2599156e-04   1.3055824e-04  -1.4723466e-04  -1.9101588e-04   1.9097389e-04   9.7791570e-05  -1.1887862e-03   1.1725374e-03  -3.9468570e-05   2.3135150e-04   3.9753420e-04  -1.2964914e-04   1.8472737e-03   4.3590786e-04   2.1407654e-06   3.3590975e-04   4.5895902e-04   4.1301790e-04   1.1167690e-05  -2.8252872e-04  -3.9031959e-04   2.1666423e-05   3.4316970e-04  -2.3372100e-04   4.2864942e-04   4.2373344e-04   5.5976136e-04   2.7721087e-04   3.1088901e-05   1.8451674e-04  -3.3149405e-03   2.8856800e-04   3.8792487e-04   7.8018493e-04   3.9748396e-04   9.5730573e-03  -1.1383489e-05   3.2978973e-04
   2.7804289e-04   9.0654939e-05   5.2645348e-04   3.2691311e-04   8.2459715e-05  -8.6506938e-05   2.5822475e-04  -3.5153324e-04   8.8243617e-04  -5.0915993e-04  -2.9708162e-05  -2.6719517e-04   2.8099876e-04   9.7033830e-05   2.9008728e-04  -2.4960295e-04   2.8306665e-04   1.2251623e-04   2.1461612e-03   3.4616631e-04  -2.2235018e-04   2.4898460e-05   4.9842137e-04  -1.6499655e-03  -1.4380428e-03   3.9599385e-04  -9.2673426e-06   2.3939670e-04   9.8347908e-04   3.4477079e-04   3.3891908e-04  -1.6141658e-04  -1.1199863e-04   7.2097246e-05   2.2788138e-04   2.9148589e-04   4.3371499e-05   2.8698819e-04   3.0213728e-04   3.7441173e-04  -6.3226715e-04   1.9273944e-05   1.1563669e-03   1.0363886e-04   1.1842082e-03   7.8113808e-04   2.4350855e-04  -5.1408149e-03  -3.4131011e-05   4.4634719e-05
  -2.6271134e-04  -1.6622375e-04  -1.4299883e-04   2.0999616e-05  -6.8978814e-05  -5.2960777e-06   1.0871672e-04  -4.8925978e-04   1.3341580e-03  -8.2712102e-04  -2.2996562e-04  -5.1661802e-04   9.6924574e-05   7.4410003e-05   9.2729479e-06  -4.3737268e-04   3.4345337e-04  -5.3764181e-04  -4.2145970e-04  -1.1926777e-04  -5.5406749e-04  -1.8707302e-04  -1.2141403e-04  -8.3675649e-04   2.3843393e-04   3.2731221e-04  -1.4514461e-05  -3.7816368e-04   5.8376091e-04   1.0679925e-04  -1.4574369e-03  -5.1238490e-05  -6.7990500e-06  -5.0579052e-05   7.4515183e-06  -7.1633991e-04  -8.6800246e-05  -1.5065250e-05  -1.3811197e-06  -5.2792715e-05  -1.4920523e-05  -2.9822963e-04   1.4670661e-03  -1.6541456e-04  -8.0356136e-04  -1.0256785e-04  -1.5486297e-05   1.8346153e-03  -3.9763720e-04  -4.2949308e-04
  -6.8336457e-04  -6.1227719e-04  -5.3327152e-04  -3.3170648e-04  -5.2931439e-04  -5.7094602e-04  -2.8768630e-04   3.6652796e-06  -4.4640861e-04  -1.1656932e-03  -4.8826670e-04  -7.3823595e-04  -9.9362282e-05   1.6985566e-06  -1.4464644e-04  -3.9975307e-04   1.5249162e-04   2.1716626e-04   1.1356360e-03  -8.7303517e-04  -3.4255988e-04  -9.4413663e-05  -3.6702826e-04  -4.5769443e-04   3.3645771e-04   4.6721104e-04   4.2098647e-05   1.5091577e-04   3.1828470e-04   2.3327777e-04  -2.2128625e-03  -1.8803406e-04   8.8673238e-05  -2.3675682e-05   1.0010357e-04  -2.4427511e-04   3.8760222e-04   3.4817585e-04   7.0688053e-04   5.3543726e-04  -1.2698112e-04  -1.9404755e-04   1.7623830e-03   3.2483001e-04  -1.3129631e-04   1.5294888e-04   4.2846965e-04   2.0503276e-03   3.0564508e-05   1.2002890e-04
   2.7079837e-04   1.9513618e-04   5.0620240e-04   4.4555654e-04   1.2699803e-04   1.0198935e-05   4.6562188e-04  -5.6044846e-05   1.0826676e-03  -3.6664086e-04   9.2498711e-05  -5.0773655e-05   1.8556917e-04   1.5180944e-04   1.0568646e-04  -3.8830191e-04   1.0973078e-04   1.2037736e-04   1.7449661e-03   6.8368920e-04   2.5598287e-05   2.4103957e-04   3.3071433e-04   2.4860009e-04  -3.5584357e-04   5.6109065e-04   5.6332556e-05   1.5635211e-04  -9.3365823e-05   4.4625750e-04  -4.1847746e-04   1.3807627e-03   8.3889876e-04   2.6255994e-04   3.2059956e-04  -7.7912968e-04   7.7227753e-04   4.8015371e-04   6.1699486e-04   5.9102656e-04   9.9689572e-04   9.5155730e-05  -1.0658907e-02   1.5173113e-04  -1.3313920e-03   5.9501268e-04   5.3580565e-04   3.0167240e-03   2.6981805e-05   1.8153121e-04
   3.1012952e-04   9.4719369e-05   1.9472303e-04   3.0988370e-04   2.9461776e-04  -6.9266105e-05   3.9302371e-04  -3.9557859e-04   2.0059089e-04  -4.9270125e-04   2.1494197e-05  -1.7162485e-04   1.4560384e-04   7.8031844e-05  -7.1120565e-05  -2.7414080e-04   2.1447160e-04   8.3401421e-05  -1.0104249e-03   9.5371011e-05  -2.0224017e-04   2.4200560e-04  -2.5921405e-04   5.5269717e-04   7.4087072e-04   3.7432212e-04   2.6896860e-05  -3.2632495e-05   7.5819058e-04   2.5388965e-04   1.4953652e-03   2.8457391e-04   1.0560289e-04  -1.8786143e-04   5.6813067e-05  -5.5889762e-04   1.0104401e-04   1.2756280e-04   4.3731311e-04   7.9003564e-04   2.4606078e-04   3.9546430e-05   2.4743278e-03   1.3827239e-04  -5.3553778e-04  -2.8465208e-04   2.9867588e-04  -6.6343937e-03   1.3928587e-04  -1.7866631e-04
  -1.9180574e-04  -2.5558146e-04  -3.9385202e-05  -3.3351189e-05  -6.6350018e-05  -4.9540864e-05  -7.6212040e-05  -6.9961988e-04   5.7573104e-04  -8.4296055e-04  -3.9321047e-04  -3.8623335e-04   1.0095574e-05   4.7688809e-05  -1.1981335e-04  -1.3586474e-04   2.3245062e-04   9.7025215e-05   1.5389384e-04   2.2360164e-04  -5.5935147e-04  -2.7108485e-05   7.5536518e-04   1.1204102e-04   1.7160019e-03   1.7786141e-04  -7.3577066e-05  -3.0262236e-04   2.5896746e-04  -2.4523912e-05  -1.8866635e-03   6.0822285e-04  -4.4444812e-04  -1.0422760e-04  -1.3398468e-04  -4.4800341e-04   7.4144664e-06  -1.8517514e-04  -3.5448736e-04  -3.0088559e-04  -6.5260829e-04  -3.6591571e-04  -3.4024362e-03  -3.0537398e-04  -1.4639148e-03   3.7032740e-05   4.1698922e-06  -4.2554489e-03  -3.8407888e-04  -4.5164375e-04
  -6.9873035e-04  -6.6960673e-04  -6.6328392e-04  -3.7867192e-04  -4.5809618e-04  -5.1422638e-04  -1.6727136e-04  -3.2304545e-04  -2.4944151e-04  -1.2185522e-03  -6.7737378e-04  -9.3307538e-04  -2.5781314e-04  -5.8404472e-05  -3.7128042e-04  -3.2139433e-04   1.6094175e-04   6.6114939e-05  -1.6220835e-03  -9.2734561e-05  -8.8437647e-04  -5.6701730e-04   7.6554623e-04   4.6037484e-04  -7.4156933e-04   8.1076556e-05  -7.3187293e-05  -3.4219385e-04  -2.2795389e-04  -1.9050314e-04  -4.2010803e-04  -8.5470785e-04  -7.4766617e-04  -3.8886265e-04  -1.4285524e-04  -3.3242919e-04   5.1712155e-05  -2.5484758e-05   2.3902259e-04   2.9434083e-04   9.3414801e-06  -2.3242795e-04  -2.5830918e-03   6.8377769e-05  -1.4698281e-03  -6.3015606e-05   3.8999238e-04   5.9930542e-03  -1.3922108e-04   2.8967241e-05
   1.0122464e-04   3.3714783e-05   3.6544559e-04   3.8070721e-04   3.9244368e-04  -5.7767149e-05   2.5816963e-04   7.0084207e-05   2.9779013e-04  -2.6088901e-04   4.0346928e-05   4.8460573e-05   1.3095519e-04   1.5993444e-05  -1.8145835e-04  -4.4848287e-04   1.8303948e-04  -1.8777032e-04  -1.9004251e-03  -6.1983149e-04   1.1452741e-04   4.0909206e-04   8.0945040e-04  -1.2499926e-04   2.0805441e-03   4.3818989e-04  -3.7389946e-05   2.3356226e-04   2.9046347e-04   3.5659029e-04  -1.1422001e-04  -2.5967770e-04   9.3110773e-04   4.0111041e-05   2.3117251e-04  -1.5898809e-03   4.8474106e-04   3.9281190e-04   7.1624690e-04   2.5060447e-04  -8.5592485e-04  -2.9870516e-05  -2.7458814e-03   3.4361478e-04   2.5896626e-04   2.2715189e-04   5.9769832e-04   4.4374065e-03  -1.3230827e-05   2.8872298e-04
   2.7424216e-04   1.5645479e-04   4.1279790e-04   3.9407998e-04  -2.3914847e-05  -1.0481250e-04   5.0496712e-04  -3.4861171e-04  -6.2824611e-04  -3.5358884e-04   1.5907619e-05  -3.7846479e-05   1.9057881e-04   1.0595455e-04   2.1531829e-04  -3.4352628e-04   3.1633559e-04   6.7743538e-05  -1.0054967e-03   4.4286990e-04  -8.3159393e-05   2.1238293e-05   7.3740940e-04  -1.5373838e-03  -5.8852637e-04   3.7229111e-04  -8.0798949e-05  -4.6070836e-05   4.3915064e-04   2.7698983e-04   3.0865835e-03   9.9052885e-04   8.2529994e-04  -8.1196849e-05   1.6154278e-04  -4.6015249e-04   3.4576407e-04   1.7868665e-04   2.0900340e-04   2.1022871e-04   1.1397754e-05  -6.2597144e-05  -4.2448905e-03   6.7539957e-05  -4.4606632e-04   4.2838321e-04   3.2471848e-04  -2.0158989e-03  -2.7695866e-04   1.0333435e-04
  -1.5504206e-04  -1.9612985e-04  -3.5071454e-04   4.3996421e-05   2.3498462e-04  -1.5332145e-04   8.5622778e-05   1.1927801e-04  -5.0883542e-04  -7.3728111e-04  -2.0299932e-04  -4.6550174e-04   1.5902313e-04   1.3203436e-04  -3.4187153e-05  -3.0728927e-04   3.8721453e-04  -5.3344411e-05   1.9643764e-04   4.9136825e-06  -3.8469952e-04  -2.4480149e-04   5.5815827e-04  -1.8120972e-03   2.9527801e-04   2.4335652e-04  -6.2163184e-05  -1.4866167e-04   7.4087532e-04   2.3864879e-06   2.9305689e-04   6.7822874e-04  -9.7260962e-04  -3.7958028e-04  -1.3585671e-04  -9.0998126e-04   4.5299974e-05  -1.3929939e-04  -1.5980049e-04   6.3396234e-05  -1.7183418e-03  -3.3015353e-04   1.1003949e-03  -3.4110947e-04  -1.6418393e-03   4.9430260e-04   1.4337154e-05  -4.8276186e-03  -5.7309185e-04  -2.6198369e-04
  -6.3452730e-04  -6.0782296e-04  -7.3581655e-04  -3.8613949e-04  -5.4604514e-04  -6.7484030e-04  -2.2642112e-04  -4.8977550e-04  -2.2747500e-04  -1.1346973e-03  -6.4104330e-04  -9.3524309e-04  -2.3728462e-05   7.5670956e-05  -2.8561508e-06  -4.0962890e-04   3.8648833e-04  -1.6674129e-04  -1.4963456e-03   1.8377013e-04  -8.1247225e-04  -5.2012864e-04   2.3578361e-04  -9.7397302e-04   9.0780064e-05   1.8401316e-04  -1.1669130e-04  -2.2130059e-04  -9.9898018e-05  -2.6935569e-04   8.7578211e-04  -4.0085352e-04   7.0639151e-05  -5.8121176e-04  -4.3118841e-04  -8.2574546e-04  -1.8004011e-04  -4.5755302e-04  -4.2403812e-04  -5.9772463e-04  -8.0025551e-04  -5.3640374e-04  -3.3376864e-03  -2.6396979e-04  -1.8306854e-04  -6.5618759e-04   1.1440102e-04  -7.7589857e-03   1.7965267e-05  -9.3068666e-05
   1.5613790e-04  -1.7432300e-04   1.1980372e-06   1.0666198e-04   2.7698532e-04  -1.3912619e-04  -8.5306143e-05  -3.3822452e-04  -1.7452948e-03  -5.7626638e-04  -1.5299897e-04  -4.4866724e-04   1.0504319e-04  -1.5540373e-06   6.1590385e-06  -4.8910698e-04   2.4024486e-04  -3.6604845e-04   2.3083086e-03   4.2835111e-04  -3.0685798e-05   6.8486821e-05   3.9814238e-04   8.6042209e-04  -1.6488080e-04   4.1664034e-04  -1.2676099e-04   1.6442723e-04   3.3915843e-04   1.9434802e-04  -2.5579298e-03  -7.1303005e-04  -4.5278508e-04  -2.4332033e-04   4.8713628e-05  -1.6040810e-04  -1.7091760e-04   1.9499051e-04   2.1789310e-04   1.8441194e-04  -7.7137776e-04  -2.9733378e-04  -1.3589312e-03   1.5502740e-04  -8.4621250e-05   1.6823942e-04   3.6403263e-04   1.5271190e-03  -1.9437936e-04   6.8263027e-05
  -1.1331285e-04   3.1086180e-05   2.4317700e-04   2.6890208e-04   8.1698745e-05  -1.8681794e-04   4.0754935e-04  -4.5758425e-04   9.4191273e-05  -4.4416840e-04  -1.8891762e-04  -1.3289365e-04   2.2745147e-05   3.1421197e-05   7.4788310e-05  -4.8969098e-04   3.6720397e-05  -2.4040915e-04   1.7214499e-03   6.5281510e-04  -5.1832463e-05   1.6876290e-04  -1.9001569e-05   3.6423749e-05   1.2571861e-03   4.0080005e-04  -8.9637499e-05  -6.1754683e-05  -1.4748407e-04   1.4838968e-04   4.1870927e-03   5.5952824e-04  -3.0838096e-04  -5.6572014e-04   4.3620486e-05  -3.6905377e-04  -9.9781420e-05   6.7546794e-06   1.2626928e-04   5.8092125e-04  -1.0792795e-03  -4.4569452e-04  -9.3475200e-04  -4.4462209e-05  -7.3908806e-05  -1.7865795e-04   2.4159632e-04   2.3552906e-03  -4.7854666e-04  -1.2663208e-04
  -1.9102692e-04  -2.3291781e-04  -2.4050345e-04   4.2364780e-05  -1.9688721e-04  -1.3721381e-04  -4.1692063e-05   1.3743574e-04  -5.1564764e-04  -7.2684477e-04  -2.0827622e-04  -5.1277515e-04   1.0737679e-04   3.8510098e-05   1.9111247e-04  -5.5262056e-04   5.8314115e-05   4.2538959e-05  -6.6085462e-04  -3.4346277e-04  -3.5606662e-04  -1.2290145e-05  -1.1632945e-04  -1.0075448e-03   7.8075973e-04   3.9226367e-04  -3.7558144e-05  -2.8479929e-04   3.4722939e-04  -8.8932517e-05  -1.8117233e-03  -6.3177495e-04  -9.0906351e-06  -3.8287923e-04  -1.8288370e-04  -4.3159147e-04   6.5643171e-06  -1.8841898e-04  -3.3660239e-04  -2.3303293e-04  -1.6930090e-03  -5.1781244e-04  -2.8281729e-03  -2.7535215e-04  -1.0063959e-03  -9.0446243e-05  -9.6905596e-06  -3.9969101e-03  -3.8217372e-04  -4.6031404e-04
  -5.7674525e-04  -5.7467632e-04  -6.6056254e-04  -3.2942113e-04  -1.6137320e-04  -3.7267446e-04  -1.2416298e-04  -5.0401967e-04  -6.0505222e-04  -1.0958016e-03  -4.7892393e-04  -8.9798745e-04  -1.9028677e-05   6.1655272e-05  -1.3142476e-05  -5.0562725e-04   1.5834362e-04  -4.3810144e-04  -6.0354191e-04  -2.6282010e-04  -3.3893978e-04  -1.4773583e-04   1.5865792e-04  -2.1411390e-03   2.6454101e-04   4.4058377e-04  -1.3368965e-05  -2.8045473e-04  -2.6086956e-04  -5.9347742e-05  -6.9810980e-04  -3.4467314e-04   2.2947340e-04  -2.6927510e-05  -8.9065405e-05  -1.1582428e-05  -4.0075101e-04   8.5744163e-05   2.9321501e-04  -4.0547739e-04  -2.9122349e-04  -2.0164499e-04  -1.3119610e-03   6.6554661e-05  -2.9678071e-05   1.5559379e-04   2.5895401e-04  -2.1440526e-02  -2.8859798e-04   1.0438708e-04
   4.0250900e-04   1.2667087e-04   5.1314576e-04   4.3214200e-04   4.4304284e-04  -5.8864342e-05   6.8216061e-04   3.6467117e-04  -3.7376711e-04  -1.9546149e-04   4.1453008e-05   7.8201469e-05   1.4743063e-04   1.2478379e-04   5.9707349e-05  -6.8553805e-04   1.6344401e-04  -8.2900144e-05  -7.8891008e-04   2.8173608e-04   9.1176233e-05   1.0125672e-04   1.3547209e-04   7.6988788e-04   7.2903105e-04   4.3530689e-04  -5.0367042e-05   2.9262847e-05   6.6056731e-04   1.9019423e-04   6.5549739e-06   9.5244142e-04  -7.6378399e-04   1.4249751e-04   1.0261087e-04  -3.0542313e-04   6.3932806e-05   2.5989846e-04   4.9083168e-04   2.6817652e-04  -2.8052236e-04   4.2293501e-05  -1.5214945e-03   1.8373028e-04   6.8797811e-04   1.4985820e-04   4.0041172e-04   2.4269938e-03   1.0982796e-04   2.7413003e-04
   2.4657807e-04   1.3180342e-04   5.2870490e-04   3.0345490e-04   2.9535251e-04   1.2704701e-04   6.2148413e-04  -2.2136133e-04   5.3629836e-05  -3.6184522e-04   4.6674413e-05  -9.0685477e-05   2.0424933e-04   2.2679429e-04   5.3978209e-05  -3.8134523e-05   3.8478657e-04  -8.0485152e-06  -3.9306816e-04   1.1880097e-03  -8.9391659e-05   3.0402580e-04   6.5759500e-04   1.6281777e-03   6.3144829e-04   5.0200545e-04   1.8282397e-05  -3.2514552e-05   3.5955399e-04   9.8233089e-05   5.3061888e-04   4.0491592e-04  -1.1741455e-03  -1.9985618e-04   9.0865660e-06   4.7920685e-04   3.4656317e-04  -1.5032292e-05   2.4895475e-04   2.5291691e-04  -5.0021030e-05  -1.1725015e-04  -1.4996715e-03   5.7676127e-05  -1.9965772e-04   1.1712989e-06   1.4850231e-04  -6.5854454e-04  -2.1381973e-04  -2.2665075e-04
  -2.6019505e-04  -2.5659389e-04   4.7100973e-05   2.2455106e-05   1.5510264e-05  -2.2355306e-04   9.8192140e-05  -3.9945822e-04  -3.2315825e-04  -7.1290322e-04  -2.0243700e-04  -5.8254169e-04   1.3245596e-04   1.4035773e-04   2.0581110e-04  -2.6463222e-04   3.4868790e-04  -2.0186845e-04   1.5372327e-03   2.5137141e-04  -4.1260224e-04  -2.0609387e-04   3.9029235e-04  -1.4215473e-03   5.1885669e-04   4.0643392e-04  -7.4442876e-05  -4.9143611e-04  -2.2585974e-04  -1.1567051e-04  -8.6229795e-04   9.5905583e-05  -5.2697567e-04  -4.4534565e-04  -1.3828534e-04  -7.8227016e-04  -4.2529320e-04  -2.7454991e-04  -1.8197640e-04  -1.1025125e-04  -1.0189941e-03  -2.3576077e-04  -1.2686037e-03  -1.9473686e-04  -1.0626222e-03  -4.3699608e-04  -3.0660613e-05   2.9893923e-03  -6.1516865e-04  -4.1543911e-04
  -5.8410404e-04  -5.8964413e-04  -2.6306693e-04  -1.2280796e-04  -1.7973880e-04  -1.8817230e-04   2.9484162e-04   3.0458838e-04  -6.3997216e-04  -4.2679231e-04  -1.7105015e-04  -2.1739345e-04   1.9289517e-04   1.2693372e-04   9.1995833e-05  -3.9301344e-04   1.3026063e-04   1.3280202e-04   1.1778270e-03   2.2638520e-05   1.2369631e-04   3.2162649e-04   2.7960417e-04  -9.3275623e-04   1.2454902e-03   6.1946199e-04  -7.2506213e-05   2.1744460e-04   4.1338621e-04   2.1317854e-04   2.5821980e-03   6.5814843e-04   1.5526746e-05  -3.9883394e-05   2.8980599e-04   3.8229735e-04   1.1689299e-04   4.4877394e-04   6.1450247e-04   4.9748330e-04  -1.1065449e-04   9.9712823e-05   2.1189298e-03   3.5696290e-04  -1.2118508e-03   5.7688425e-04   5.2785315e-04  -8.4145479e-03   8.8269131e-05   4.4069494e-04
   7.1920839e-04   4.3437615e-04   6.6881726e-04   6.5099954e-04   6.7322317e-04   3.8897776e-04   4.5456411e-04   5.3464266e-04   2.8841427e-04   1.5341973e-05   3.3882097e-04   2.9401752e-04   3.3864050e-04   1.7160799e-04   1.6461239e-04   1.1767823e-04   2.0434865e-04   1.4326989e-04   3.3624868e-03   9.0871169e-04   2.9676096e-04   4.1645646e-04   1.1149745e-03   1.0624561e-03   1.8315400e-03   6.7276816e-04   4.5132769e-05   4.0463536e-04   1.8811120e-04   3.9455350e-04   1.1653430e-03   2.9133708e-04  -4.7236774e-04   3.0393069e-04   3.6771531e-04  -1.7544402e-04   3.4115769e-04   5.4388604e-04   6.5291749e-04   2.8894859e-04  -3.5382921e-04   2.1210803e-04  -9.9352924e-03   4.8414344e-04   1.2671277e-03   6.2238501e-04   4.9986859e-04  -5.3219395e-03  -8.4226285e-06   4.0451865e-04
   5.0159858e-04   3.3678647e-04   8.7365613e-04   5.2924431e-04   3.1750998e-04   7.0205115e-04   1.0779811e-03   1.3554460e-04   2.5046928e-04  -2.1776861e-04   2.5273519e-04   4.2118769e-05   2.1845690e-04   2.2845501e-04   1.2895405e-04   2.7237340e-05   2.4083559e-04   5.3376248e-06  -2.8596306e-04   7.4037560e-04  -4.3565436e-07   3.3815866e-04  -6.7613502e-05   3.1158014e-04  -2.9143700e-04   5.2099850e-04   4.4399752e-05   2.7673025e-04   7.2773587e-04   2.1543659e-04   2.5228914e-03   1.6921309e-03   1.1345956e-03   3.5389524e-04   2.7392688e-04   1.0230642e-04   1.5202146e-04   2.3732294e-04   1.1344170e-04  -2.8534324e-04   7.8598986e-04   2.5703461e-05   3.3651323e-03   4.6676032e-05   4.3033833e-05   6.6608096e-05   2.7086079e-04   1.4588021e-02  -8.1789776e-06  -1.7256313e-04
   1.4544677e-04  -2.1307667e-05  -1.1731436e-04   2.4485015e-04  -2.0763351e-04   3.9869501e-05   2.5523858e-04   5.9059646e-04  -9.3150692e-04  -5.0102518e-04   4.7567275e-05  -1.6873851e-04   1.3851558e-04   2.3425784e-04   2.1944525e-04  -1.3502268e-04   2.8872536e-04   1.4063760e-04   3.5982745e-04  -7.4530835e-06  -3.8865814e-04  -2.4718811e-05   7.2952178e-05   1.0973024e-03   6.5392145e-04   4.7499940e-04   2.1968335e-05  -3.8236634e-05  -2.3944360e-04  -3.0684634e-05   1.8425209e-04   7.2436250e-04   4.1205625e-05  -1.1398662e-05   4.8825877e-05   3.9646242e-05  -3.5440238e-04  -1.1146093e-04  -1.6788382e-04  -4.9902772e-04   2.0995016e-04   5.0534709e-05  -6.7927227e-05  -1.8956406e-04  -8.0173422e-04  -2.7117520e-04  -1.6646984e-05   6.4944522e-03  -6.6384010e-04  -3.2347275e-04
  -3.3210908e-05  -3.0214692e-04  -2.2519882e-06   1.5607997e-04   1.3556969e-04  -1.6038051e-05   4.2018050e-04   4.8899214e-04   6.7826948e-04  -1.0820146e-04   1.2835496e-04  -3.5682533e-05   1.3350160e-04   1.7869590e-04   5.1964405e-05   2.4764379e-04   9.9429904e-05   3.8244500e-04   1.1330281e-03   5.7755166e-04   1.1258587e-04   3.0933399e-04   4.2229940e-04   1.7418453e-03  -1.1923267e-04   4.0167492e-04  -2.9533156e-05   3.0749742e-04  -1.5589480e-04   3.0664797e-04   2.5436265e-04   1.3310496e-03   1.0173987e-03   4.0403025e-05   5.3798978e-04   6.0069916e-04   3.4141954e-04   4.9089291e-04   6.5566134e-04   6.4240280e-04   1.4345649e-04   2.0910882e-04  -3.0781233e-04   5.6455587e-04  -2.4758073e-04   9.4370847e-04   5.3171214e-04   2.2459470e-03  -4.6026365e-05   2.9700517e-04
   7.1135134e-04   5.1074591e-04   9.5938222e-04   7.5242837e-04   2.2106748e-05   4.1765242e-04   1.0776873e-03   8.1378577e-04   1.3970209e-03   1.5011682e-04   4.7933517e-04   4.7193837e-04   3.5475750e-04   2.1667904e-04   3.2051519e-04   1.1190678e-05   1.8114973e-04   1.5206700e-04   3.3203938e-05   8.0368575e-04   1.7741173e-04   2.3845372e-04   6.0939457e-04   1.1076353e-03   1.2144815e-04   3.8449798e-04   4.0298787e-06   6.5157289e-04   7.6189794e-04   4.5875154e-04  -9.7201776e-04   1.4794347e-03  -2.0471019e-04   2.2606870e-04   5.1930256e-04  -3.0834318e-04   6.1692961e-04   6.5610401e-04   6.0211873e-04   7.8405789e-04   6.9485739e-04   3.9460903e-04   3.8765380e-03   4.4276335e-04   1.4796404e-03   3.0031966e-04   4.7373076e-04  -7.6753171e-03  -1.1557389e-04   2.6489538e-04
   5.2070542e-04   4.1839547e-04   9.4327243e-04   6.4931647e-04   5.2324409e-04   5.0928188e-04   9.7156328e-04   1.3211514e-04   5.7119696e-04  -4.1556716e-05   3.6375283e-04   2.5127185e-04   3.0744990e-04   2.5501288e-04   4.7103313e-05   2.7874143e-05   2.7863937e-04   6.4268465e-06  -1.1802015e-04   7.8617618e-04  -1.3489735e-04   2.4748425e-04   3.7289283e-04   6.9200952e-04   1.6507416e-03   4.1852982e-04   4.5106251e-05   2.4735695e-04   1.3041369e-03   3.2463306e-04   8.7669300e-04  -4.0158851e-04   4.8148219e-04   2.6601373e-04   4.1964350e-04   3.7790902e-04   5.1145226e-04   3.7168548e-04   3.9230182e-04   3.9959388e-04   2.0400215e-04   1.9178688e-04  -1.6154225e-03   8.4151572e-05   2.1627107e-04   5.2981963e-04   2.4890498e-04  -5.5865040e-03  -3.3105179e-04   1.1842142e-04
   2.3839765e-04   1.2183961e-04   2.5430066e-04   2.7591732e-04   3.9488912e-04   1.2098085e-04   4.6817388e-04  -2.3696794e-04  -1.7870308e-04  -3.7067296e-04   1.5557329e-04  -1.0860011e-04   1.6779946e-04   2.5010531e-04   9.4430201e-05  -2.5307806e-04   2.2878792e-04   2.4846991e-04  -1.3443499e-03   1.3878115e-04  -4.8372499e-04  -2.2747600e-04   9.4964186e-04   6.5054552e-04  -5.4799236e-04   3.3916708e-04   8.3430692e-05  -1.9001417e-04  -1.1503926e-04   6.7415778e-05   6.1608856e-03   3.1310279e-04  -5.9046724e-04  -1.0407979e-04   1.8985759e-04  -2.7412176e-04  -4.4659217e-05  -4.7269208e-05  -2.9696606e-04  -2.2706263e-06  -3.1417780e-04   2.0221277e-04   2.4949631e-03   1.3101172e-04  -6.5489986e-04   9.3990366e-07   3.2921461e-04   1.3183815e-02  -3.8125069e-04   2.1479021e-04
   5.2874722e-04   4.1244904e-04   9.2404376e-04   6.9463119e-04   5.4844806e-04   5.9508905e-04   6.8154518e-04   6.4162258e-04   1.7913795e-03   1.7548433e-04   4.0306852e-04   4.9575244e-04   3.7384511e-04   3.0481760e-04   2.1195915e-04   6.8555026e-05   2.1959936e-04   1.3438486e-04   2.9508784e-04   1.1845571e-03   2.1072950e-04   4.0594605e-04   9.8010139e-05   5.3438829e-04   2.0212589e-03   6.0978829e-04   1.1850648e-04   8.8554423e-04   1.9382536e-03   5.4088968e-04   4.0055458e-03  -5.1046640e-04   7.0816185e-04   4.1509271e-04   6.2235462e-04   1.5946951e-03   1.0153110e-03   7.0822000e-04   7.9694786e-04   3.3680114e-04   2.9993954e-04   5.4914964e-04  -2.3670919e-04   3.9056735e-04  -7.3972697e-05   2.9081013e-04   4.5770180e-04   1.6583276e-03   3.4497814e-05   2.6263087e-04
   9.3482446e-04   6.6355895e-04   9.2639466e-04   8.7498414e-04   5.9630646e-04   8.6994295e-04   1.1075865e-03   6.4808980e-04   5.4473541e-04   1.5385919e-04   5.9588382e-04   5.4594624e-04   3.8807592e-04   3.5961255e-04   2.9502439e-04   1.5548384e-04   1.4146902e-04   1.7014552e-04   2.0202300e-05   1.1310104e-03   9.2058093e-05   2.6337788e-04   1.1174086e-03   3.6847455e-04   2.2902077e-03   5.6466577e-04   1.9546972e-04   3.8035793e-04   2.0424719e-03   4.8914563e-04   7.3793420e-04   1.7323595e-04   4.1922031e-04   2.5711689e-04   6.0980179e-04   6.6413422e-04   6.1632303e-04   5.9740135e-04   5.5585720e-04   2.3858733e-05   9.2853897e-04   2.3371640e-04   2.9268060e-03   2.9790381e-04   4.1467379e-04   6.2598567e-04   3.8461440e-04  -7.5168456e-03  -3.1746173e-04   4.2626201e-05
