   1.2585727e-04   1.3762251e-04   2.1868685e-04   2.6522129e-04   7.9741541e-05   1.8273879e-04   2.6369482e-04   3.9393872e-05   3.2408343e-04   1.1612343e-05   3.0774824e-04   2.0257712e-04   1.4706641e-04   1.3145832e-04   3.8457096e-05   5.6898094e-05  -5.6275319e-05   3.5344554e-05   5.7968363e-04   2.4198709e-04  -8.5286818e-05   4.9559906e-04   2.5215777e-04   4.7410344e-05  -9.9907935e-05   1.1899431e-04   1.5352959e-04  -1.5830915e-04  -4.5811437e-04   1.1064320e-05   1.5996615e-04  -5.1164687e-05   3.6947386e-04   1.9382448e-04   1.1266416e-04   2.8517944e-04  -2.2187034e-05   8.2773076e-06  -3.8112383e-05  -4.8111249e-03   3.7077290e-04   9.4274976e-05  -7.5945762e-05   2.1536285e-02  -3.6959867e-05   9.5605181e-05   1.3066626e-04   1.7303144e-04   4.0350837e-04   2.3585778e-04
   1.4013857e-04   1.3590013e-04   2.2190881e-04   2.6229557e-04   8.1007958e-05   1.3315617e-04   2.5671365e-04   2.0773860e-04   2.7535899e-04  -9.1816990e-05   2.4326167e-04   1.1204872e-04   2.9948045e-04  -7.5063967e-05   3.8216801e-04  -8.4335156e-08  -4.6625613e-05  -3.6362031e-05  -6.8459478e-05   2.7686817e-04  -8.6777050e-05   4.7696827e-04   2.0206867e-04   8.2804736e-06   4.2080358e-04   2.2897270e-04  -2.1222900e-04   1.5325120e-04   6.8504660e-04   5.6802150e-05   5.3887477e-05   3.8315644e-05   3.7982390e-04   9.0663889e-05   8.6745516e-05  -2.4878673e-04  -1.9059543e-04   1.2120308e-04   2.3436488e-04  -2.3255262e-03   3.0685554e-04   1.1939205e-04  -1.1354433e-04  -8.7287724e-03  -2.7175396e-04   2.8504335e-04   1.9934305e-04   2.0148157e-04   1.7672846e-04   2.4699612e-04
   1.4384212e-04   1.3612995e-04   2.2248182e-04   2.6519623e-04   8.7566608e-05   9.8152821e-05   1.0292491e-04   1.9068435e-04   2.5026014e-04   8.4524945e-05   3.0085616e-04   2.5452909e-04   2.7558641e-04  -1.3556326e-04   9.9018900e-05  -4.8835623e-06  -4.1782288e-05  -1.2268648e-04   2.5961272e-04   2.4618534e-04  -9.0148096e-05   4.7737770e-04   1.7400699e-04   2.7160506e-05   2.3476865e-04   2.0392664e-04  -3.3487647e-04   6.5532578e-05   3.0224532e-04   5.6404839e-05  -2.2124992e-05   2.9202038e-04   6.2763615e-04   3.9782267e-04   3.7832904e-04  -2.5422519e-04   6.0780090e-04   1.3119380e-04   2.4398918e-05  -7.3181838e-03   1.5805020e-04   1.1331597e-04   1.8794644e-04   3.6223555e-05   1.1057394e-03  -5.6763395e-04   9.3757946e-05   2.9932466e-04   2.0794923e-04   2.2077053e-04
   1.2730174e-04   1.3654729e-04   2.1855079e-04   2.5713406e-04   6.8209985e-05   1.1364828e-04   2.7168143e-04   2.0254288e-04   3.7736242e-04  -1.8049841e-05   2.5999304e-04   1.7242489e-04   2.1715203e-04   2.5362056e-06   7.2856544e-04   1.3985811e-04  -5.4856799e-05  -4.9284867e-05   7.7970835e-05   2.4694722e-04  -1.0058164e-04   4.5343026e-04   2.5680586e-04   3.9322902e-05   1.3129575e-04   2.5995405e-04   7.0323382e-05   2.0790334e-05  -2.0892997e-04   6.0182341e-05   6.0753751e-05   3.0202654e-04   4.8519784e-04   9.6648866e-05   2.3092217e-04   2.5776707e-04  -2.4656224e-04   1.6244261e-04  -5.1767889e-05   1.7760755e-02   2.1283382e-04   6.7488756e-05  -4.7940754e-05  -4.2255591e-03   8.1608305e-05   5.4753182e-04   9.3504983e-05   1.8663163e-04   2.3089825e-04   9.7450022e-05
   1.4050625e-04   1.3703752e-04   2.2209501e-04   2.5491125e-04   8.0384969e-05   1.3949284e-04   2.1739451e-04   2.0284546e-04   1.2953914e-04  -9.2617694e-05   2.1997234e-04   9.2932874e-05   1.4718120e-04   8.2144970e-07  -6.4603380e-05   1.7586931e-04  -5.5338012e-05   9.7769618e-05   2.1875805e-04   2.3038204e-04  -8.7040957e-05   4.6614630e-04   1.0887347e-04   1.0386217e-05  -2.5325341e-04   2.2186659e-04  -1.2686018e-04   2.4783063e-05  -3.5863207e-04   5.9572241e-05   4.6726516e-05   3.3475106e-04   4.3510686e-04   1.3281756e-04   1.5347179e-04   1.2156998e-04  -2.0293685e-04   1.4842485e-04   7.7962570e-05  -2.1657867e-03   1.4659129e-04   1.3552095e-04   2.8884466e-04   8.0510217e-04  -3.3636161e-03  -2.1175314e-03   1.8194695e-04   2.7826850e-04   5.4074771e-04   1.1531051e-04
   1.3559178e-04   1.4016495e-04   2.2120713e-04   2.4468702e-04   7.7383382e-05   2.1377610e-04   2.0686450e-04   1.6409335e-04   4.8697786e-04   8.6634842e-05   2.9403367e-04   2.2924737e-04   2.8944260e-04   9.9357494e-06   1.3652562e-04  -8.5831460e-05  -7.8486228e-05   2.7660008e-05   4.2641585e-04   2.2554967e-04  -8.4260158e-05   4.7622542e-04   1.3435449e-04   6.9866760e-06   1.0141072e-04   1.1607497e-04   1.9051452e-04   1.2037162e-05  -1.0580868e-03   4.3932963e-05  -7.5662967e-05  -1.7944344e-04   3.5920151e-04   2.2488672e-04   8.1474478e-05   1.1808068e-04  -1.1960734e-04   9.2103488e-05  -2.2061238e-05   1.6921628e-03   2.8835633e-04   8.0572521e-05   1.7582873e-04  -6.2244450e-05  -3.1170722e-03  -5.1287725e-04   1.2119453e-04   3.5194505e-05   3.8519356e-04  -7.7609649e-05
   1.1041490e-04   1.2784028e-04   2.1197571e-04   2.4175672e-04   6.3381296e-05   1.6585526e-04   3.9971777e-04   1.5685534e-04   4.6810915e-04  -1.5512660e-05   2.3779516e-04   8.8047054e-05  -1.2510510e-05   3.7720773e-05   1.5019889e-04   3.4461459e-04  -4.7605354e-05  -7.5673299e-05  -1.8865676e-04   2.1424114e-04  -8.9266934e-05   4.9183058e-04   8.7231929e-05  -3.0316274e-05  -1.7949043e-05   3.9813072e-05  -7.6190721e-05   1.7178031e-04  -4.6204243e-04   1.1265298e-05   2.9568208e-04   1.9169576e-04   4.3371509e-04   2.5508244e-04   1.5757700e-04  -4.5602489e-04  -4.4179539e-04   1.0662241e-04   1.8541212e-05  -7.0150621e-04   3.7284274e-04   6.4445856e-05  -7.6488344e-05  -1.8783771e-03   4.8346439e-04  -1.4600235e-03   1.2792005e-04   3.8078928e-05   2.6520947e-04   1.7266342e-04
   1.0849882e-04   1.0877333e-04   2.0415246e-04   2.2626207e-04   7.2764080e-05   1.4845525e-04   1.6997229e-04   3.1727148e-04   3.5559558e-04  -9.7925513e-05   1.9786025e-04  -2.9075889e-05   2.2200606e-04  -2.4614812e-04   4.8555368e-05  -1.3445024e-04  -8.3842489e-05   1.0078869e-04   3.6937688e-04   2.2271725e-04  -9.5167466e-05   4.9259467e-04   1.5019685e-04   1.9904678e-06   2.9241541e-04  -2.0700893e-06   4.5673631e-04  -2.1180329e-04   3.4393376e-04   7.6714186e-06   8.8562498e-05   2.1179604e-04   5.8029103e-04   2.8567700e-04   3.2614938e-05  -4.1123171e-04  -1.6473241e-04   8.5571388e-05   5.9314881e-04   1.5981032e-03   1.9510741e-04   9.2761482e-05   2.7389827e-04  -9.4730966e-03   8.1738573e-04  -2.3969316e-03   1.0115685e-04   1.9395063e-04   3.7646733e-04  -2.1916233e-06
   1.2214883e-04   1.0441992e-04   2.1292406e-04   2.5047161e-04   8.2893916e-05   1.2743905e-04   6.2098443e-05   3.3692626e-04   3.7206919e-04   1.0383373e-04   2.9135341e-04   1.2881946e-04  -7.6900360e-06   2.7310560e-05   8.2356091e-05   3.6224752e-04  -6.8075642e-05  -5.5121560e-05   9.0354017e-04   2.0925581e-04  -8.3777806e-05   5.0544570e-04   2.3662929e-04  -3.8642116e-05   3.5228859e-05  -4.4651766e-05  -8.0618687e-05   2.2526582e-04   6.0202880e-04   6.7071387e-06  -5.1219606e-05  -1.4047160e-04   4.2802619e-04   1.1031292e-03   1.4749372e-04   4.1584691e-04   4.9296080e-04   1.3471775e-04   7.5980213e-05   4.4393591e-03   2.0660338e-04   5.0128798e-05   3.5612466e-04  -5.7745632e-03   1.6290785e-03  -1.2990172e-03   1.5568896e-04  -2.4633922e-05   2.8681563e-04   1.4673374e-05
   8.1534592e-05   9.5384057e-05   1.9561884e-04   2.3605084e-04   5.0794759e-05   1.1098498e-04   1.6134039e-04  -5.9643771e-05   3.6821014e-04   3.5220812e-05   2.7535504e-04   5.9656704e-05   2.9873574e-04  -3.7850285e-05  -3.0523140e-04   1.9431738e-04  -8.2215513e-05  -1.5264162e-04   1.7002059e-04   2.3816727e-04  -9.5577947e-05   4.8537742e-04   1.6026918e-04   2.7325559e-05   8.7166365e-05   6.9640691e-06  -2.1629783e-04   7.4573822e-05   3.4742345e-04   2.6459697e-05  -4.0983650e-05  -2.2406144e-04   2.5736331e-04   1.9024173e-04  -1.1006877e-04   2.0214287e-04   2.4230336e-04   1.2338984e-04   5.0278693e-05   2.9153309e-03   3.9769024e-05   9.3554343e-05  -2.3392194e-04  -4.0084869e-03  -5.9437723e-04  -1.4416843e-03   5.1043706e-05  -1.2613076e-04   3.1276385e-04   8.1852799e-05
   9.9719437e-05   9.1796726e-05   1.9468801e-04   2.2515205e-04   6.4294851e-05   8.8928558e-05   7.0108676e-05   1.0607638e-04   3.5376762e-04  -9.1560949e-05   2.0783051e-04  -2.2348131e-05   1.2550257e-04  -8.2799334e-06   4.1997431e-05   5.5699522e-05  -7.5480595e-05   1.1547841e-04   3.3109696e-04   2.2359521e-04  -1.0434261e-04   4.2913994e-04   1.3440711e-04  -1.5716389e-05   1.4236811e-04   8.2269267e-05  -2.2828103e-04   7.9803278e-05  -7.9889178e-05   4.6594898e-05   3.6184862e-04   2.5958258e-05   3.2886161e-04  -2.6563706e-04   1.6442459e-04  -2.4936910e-04   1.4847310e-04   1.3863372e-04  -1.4969669e-04  -2.3302690e-03   1.6917662e-04   7.4804477e-05   8.8715657e-05  -5.2633490e-03   2.2192358e-03  -1.8505177e-03   5.1802235e-05   1.9614113e-04   5.1039906e-04  -6.3971289e-05
   1.0988007e-04   8.1759325e-05   1.9928346e-04   2.3912149e-04   6.4459105e-05   8.7780914e-05   1.2756861e-04  -1.8051260e-05   2.4863961e-04   7.9492675e-05   2.7151316e-04   9.9582874e-05   3.1198707e-04   3.6146866e-05   1.1247760e-04  -3.6135560e-04  -3.7732054e-05  -3.0262943e-05   1.1091185e-04   2.1456376e-04  -9.3687413e-05   4.4885807e-04   1.9199977e-04   3.7625205e-06   4.6578822e-05   1.0764138e-04   5.8918505e-04  -3.9849879e-04   9.4092375e-04   4.0993047e-05  -9.9655597e-05   1.7040735e-04   4.4935828e-04  -3.4267610e-04   1.7042487e-04   1.1231382e-04  -4.2923872e-04   1.4469404e-04   1.3862769e-05   2.3094693e-03  -2.2758313e-05   1.0248873e-04   5.2936466e-06  -4.2605754e-03  -1.4359968e-03  -3.6251274e-04   1.2366932e-04   4.6857829e-05   3.3655975e-04   2.3145133e-04
   7.4793999e-05   7.8674901e-05   1.7623747e-04   2.1559800e-04   4.6591791e-05   9.9210134e-05   1.9960660e-04  -1.8804834e-05   3.5422627e-04  -6.3198177e-06   2.2020511e-04   4.3048294e-05   1.4768122e-04  -7.8259312e-05   5.9304532e-04   6.3728403e-05  -2.7598204e-05  -1.1337530e-04   2.8931801e-04   2.3406236e-04  -1.0254185e-04   4.0770971e-04   1.7528387e-04  -1.9098003e-05   3.0243676e-04   1.8547829e-04  -1.4724275e-04  -1.6223078e-04  -7.3779956e-05   3.9027782e-05   7.7831071e-05   5.7655404e-04   3.1424433e-04  -2.3466279e-04   1.1668887e-04   1.9159784e-04  -1.1780158e-04   1.5719986e-04  -3.6908253e-04   5.2270424e-03   7.7121484e-05   5.7660171e-05  -1.9381634e-05  -5.0777309e-03  -8.8651484e-04   1.8688195e-03   5.3780022e-05   9.0379042e-05   3.4851249e-04  -1.3865055e-04
   8.0306265e-05   7.1888731e-05   1.7908245e-04   2.1590735e-04   4.9247072e-05   1.2377059e-04   2.4996798e-05   1.4174942e-04   2.1963715e-04  -8.0296108e-05   1.9329856e-04  -3.3794677e-05   2.3857363e-04  -1.3400032e-04   5.6898821e-04   2.7307056e-04  -9.4586554e-05  -2.4194586e-04   2.1473906e-04   2.2648156e-04  -1.0402611e-04   4.3712923e-04   1.8073416e-04   9.9132485e-06  -4.8949063e-05   1.0845395e-04  -1.3667105e-04   2.0986171e-04   1.3035373e-03   2.5427071e-05   1.6547021e-04  -3.5013419e-04   4.1719474e-04   1.4356802e-04  -7.3770927e-05   2.3463034e-04   4.5453329e-04   2.2004406e-04   3.3640285e-04   2.8195533e-03   1.6564775e-04   1.2452991e-04   2.7842409e-04   5.7308213e-03  -6.5367593e-04   9.3877630e-04   1.2787498e-04   1.7696066e-04   4.8751666e-04  -3.0479978e-05
   1.0334266e-04   7.6032105e-05   1.9732471e-04   2.2303924e-04   5.7503588e-05   8.0233825e-05   2.3275649e-04   1.1841123e-04   2.9563942e-04   6.5502296e-05   2.5219371e-04   8.0284037e-05   1.5901501e-04   1.2478553e-04   5.3447363e-04   1.9232092e-04  -7.5114767e-05   1.3754191e-04   4.9621734e-04   2.0145556e-04  -8.2730534e-05   4.6970719e-04   1.1686148e-04   4.4392996e-06  -2.0260565e-04   1.0938499e-04  -2.4545426e-04  -1.9950737e-04   1.2492562e-03   2.5437103e-05   3.3623939e-05   1.6793743e-04   3.7683229e-04  -9.0179812e-05   1.3615871e-04  -6.9864538e-05   3.4621774e-04   1.0431885e-04   7.0841738e-04  -8.9349906e-04   1.9376456e-04   4.7207530e-05   1.1369409e-04   3.1248953e-03  -1.2342950e-03  -3.1096526e-04   1.4460318e-04   2.9781446e-05   4.1646647e-04   4.1946222e-04
   8.8302782e-05   7.2291587e-05   1.8847611e-04   2.4791132e-04   4.1890860e-05   1.1859149e-04   1.8399459e-04   1.9350393e-04   2.3866109e-04  -1.1145378e-05   2.4674379e-04  -2.2829541e-05   1.4807294e-04   1.9688308e-04   2.1517486e-04  -2.1298687e-05   4.9104110e-05  -3.2049193e-04   3.3234939e-04   1.6774370e-04  -1.4568021e-04   2.6877035e-04  -9.2218861e-06   4.1515512e-05   1.5859638e-04   4.6361669e-04   3.5669576e-04   2.9768542e-04   2.1973561e-04   4.0050298e-05  -4.2558222e-05   2.5137994e-04   2.9450122e-04  -2.4637792e-04   1.0051722e-04  -1.6869492e-06   2.6637281e-04   6.4498723e-05   2.2822339e-04   1.6617032e-02   3.4679100e-04   1.5606418e-04   4.8832779e-05  -3.5527810e-03  -5.7544658e-04   1.0096054e-03   6.2622668e-05   1.0862503e-04   3.1530086e-04   1.5258035e-04
   1.9317298e-04  -8.5431930e-05   1.1320956e-04   1.7954109e-04   3.1630956e-05   1.2484894e-04   2.4646238e-04  -5.0373601e-05   3.1770187e-04  -1.0944883e-04   1.1005742e-04  -2.5354777e-04   7.9999889e-05   7.8381308e-05   5.5136257e-05   5.2646128e-04   2.6514843e-05  -1.3036838e-04   1.6384484e-04   1.0717365e-04  -1.3168780e-04   1.9060647e-04  -1.9946474e-05   2.4940666e-05   2.4378735e-04   4.1889973e-04  -4.9117461e-05   7.3744079e-05   1.1222969e-03   3.4582488e-05   1.1134204e-04  -1.0508728e-04   1.1688229e-04   3.6386871e-05   1.0964365e-04   5.2838668e-04   1.2685393e-04   1.0929119e-04   3.3906868e-05   3.7778106e-03   9.1017791e-05   9.8027180e-05   1.2059121e-05  -3.9562704e-03   1.6446559e-03   1.8495693e-03   1.4511352e-04   6.0678154e-05   8.5394327e-05   6.0412065e-05
   9.5444033e-05  -1.8872051e-05   9.8797056e-05   1.5555497e-04   1.7211836e-05   7.2088478e-05   3.1794157e-04  -8.4958585e-05   3.5658327e-04   6.9149159e-05   1.8498678e-04  -7.2510571e-05   8.8283305e-05   2.5755877e-04   1.0455101e-04   1.0115193e-04  -2.1903155e-05  -1.5086627e-04   4.8218606e-04   1.4468773e-04  -1.1449793e-04   1.9113089e-04  -4.2561333e-05  -4.0159754e-05  -8.2148508e-05   3.4436813e-04   3.5808116e-04   4.1129565e-04   4.0971825e-04   9.5646838e-06   1.2009407e-05   7.5710472e-04  -2.3513021e-05   1.9059989e-04   1.7977125e-04   3.6756767e-04  -6.7393172e-05   7.0320690e-05   3.5393925e-04   9.1765448e-03   1.0630842e-04   1.3264769e-04  -1.5491070e-04  -1.6615861e-03   1.9521416e-03  -1.5452931e-03   1.3828758e-04   3.1571471e-05   1.3183028e-04  -4.3505650e-05
   5.9828300e-05  -8.3335399e-06   8.3708030e-05   1.5525654e-04   1.5515770e-05   7.6521268e-05   1.9053121e-04   2.1510509e-04   1.9439853e-04  -2.7055699e-05   1.5119869e-04  -1.2563786e-04   1.3342759e-04   3.3135369e-05   1.8216702e-04   1.5928836e-04  -1.7404082e-05  -4.2544769e-05   3.8888017e-04   1.4851910e-04  -1.3388335e-04   1.9558238e-04   5.1404884e-05  -3.3888948e-05   2.1453619e-05   2.1060032e-04   1.0873324e-04   4.4065328e-05   1.2884246e-03   2.8318138e-05   3.0807935e-04  -2.4787716e-05   1.3464321e-04  -1.3453321e-04   6.4502259e-05   2.2672178e-04   7.5586082e-05   1.9734769e-05  -1.1897166e-04  -3.8497804e-03  -1.1703469e-04   4.8188598e-05   1.4219676e-04   2.3419370e-03  -6.2721071e-04   6.1078131e-04   1.4957822e-04   3.0673621e-04   3.7994274e-04  -2.3410306e-05
   7.8041638e-05  -2.1625632e-05   1.0203108e-04   1.4757934e-04   2.7258235e-05   8.1898463e-05   1.7791038e-04   4.8802129e-05   1.9736841e-04   6.2543979e-05   1.6784198e-04  -1.0803949e-04   9.3952498e-05   1.3938351e-04  -3.4944896e-04   9.9057761e-05   4.8499705e-06  -1.0969180e-04   3.7929139e-04   9.8446857e-05  -7.7838129e-05   2.1098345e-04  -1.1600905e-04   3.9237439e-05   3.5312856e-04   4.5435354e-05  -2.7758407e-04   3.3129886e-04   1.6847133e-03   1.3335078e-05   2.0932173e-04   1.1441997e-04   1.0247326e-04  -3.1208451e-04   6.3839667e-05   4.1578081e-05   1.9955111e-04  -1.8056062e-04   2.4286960e-04   6.1585624e-03   2.7687775e-04   1.3612404e-04   1.6711951e-04   5.0267525e-04   1.5146376e-03  -1.1955654e-03   1.5611583e-04   1.5416241e-04   1.1447674e-04   1.1467071e-04
   3.4075775e-04  -2.6121730e-04  -6.1523453e-05   5.6724213e-05  -1.0401101e-05   1.2820157e-04   3.2021411e-04   1.5262590e-04   5.1350147e-04   1.8878575e-04   1.1377499e-04  -2.3898135e-04   2.5593687e-04   1.7811416e-04  -2.1051576e-04  -6.3579751e-06   1.3874713e-04  -2.5285746e-04  -2.3167644e-05  -7.6780387e-05  -8.4271458e-05  -3.1330789e-04  -6.3760534e-05   5.4719541e-05  -4.9361999e-05   3.4547158e-04   2.4887506e-05   1.1273484e-04   2.7064147e-04   4.8742091e-05   1.6205120e-04   6.0946634e-04  -1.3081571e-04  -7.1133813e-04  -5.5876466e-05   4.0157270e-04  -7.9975645e-05  -1.9625203e-04   2.3327526e-04  -6.8350467e-03   5.8080717e-05   1.4677738e-04   1.5605026e-05   7.4756560e-03  -3.3193137e-04  -1.7970493e-03   1.5234678e-04   3.2685307e-04   1.4241137e-04   1.3131992e-04
   2.4120070e-04  -2.0407548e-04  -7.2449722e-05   4.3437933e-05  -1.8837496e-05   1.6949036e-04  -7.3706484e-05   8.3815961e-05   4.0662487e-04   1.0654768e-04   9.5877949e-05  -1.8710378e-04   1.9976402e-04   1.4040571e-04   3.3842458e-05   3.5354518e-04   6.8260219e-05  -1.1849734e-04   1.3843007e-04  -4.8992006e-05  -1.3777312e-04  -3.6623346e-04  -2.0146161e-05   4.4454391e-05   3.1099585e-04   3.3924860e-04  -3.0746800e-05   4.3135459e-04  -6.5070961e-04  -5.6216409e-06   1.5834944e-04   1.7841514e-04  -3.9491535e-04  -8.1753626e-04  -2.9885146e-04   2.0510919e-04  -5.3831673e-04  -2.3199171e-04   6.1848341e-04  -3.9474186e-03   2.2655663e-04   9.3432223e-05  -2.0976803e-04   4.5422101e-03  -4.5530852e-03  -1.7089350e-03   4.0544121e-05   2.4326160e-04   1.5180476e-04   1.3670820e-04
   1.1161574e-04  -1.2717261e-04  -3.5053483e-05   8.3520163e-06  -8.2919651e-06   7.1807634e-05   4.7875979e-05   1.9076595e-04   3.4151209e-04   1.7721423e-04   1.6273934e-04  -8.3084728e-05   1.5818482e-04   2.6862966e-04  -5.5167294e-04   3.7764237e-04   2.2605016e-05   1.9395859e-05   2.1411775e-04  -3.4171248e-05  -9.5226154e-05  -3.4897978e-04   2.4652949e-05  -2.6454391e-05   2.9964885e-04   2.8127769e-04   6.8693492e-04   2.8849195e-04   8.7381987e-04   9.8744831e-06   7.6519405e-05   3.9192251e-04  -3.5285117e-04  -5.2740815e-04   8.4387044e-05  -1.1070305e-04   4.5671573e-04  -1.6240255e-04   1.3429177e-04   6.0381754e-03  -4.9811930e-05   8.2919425e-05   4.4488719e-05   8.3580222e-03  -1.3604482e-03  -1.8385721e-03   8.0930586e-05   2.0208489e-04   4.6300399e-04   2.5405528e-04
   7.7510682e-05  -1.0607775e-04  -4.3990425e-05   2.2546312e-06  -2.3025728e-05   2.5590227e-05   9.7661068e-05   1.2593351e-04   3.9991469e-04   1.6400669e-04   1.6243433e-04  -8.4124440e-05   1.0440042e-04   2.4648031e-04  -1.8398857e-04  -1.5101889e-04   7.6910997e-05  -1.6854652e-04   7.6189448e-05  -3.6895779e-06  -9.7029617e-05  -3.6206809e-04  -2.2553448e-05  -1.4174740e-05  -7.7089877e-05   2.5107421e-04   5.6693327e-05  -1.6950510e-04  -2.9150987e-04   1.3104202e-05   3.7491065e-04   1.8943932e-04   2.6718189e-05  -6.2008324e-04  -2.2640785e-04  -1.9278866e-04  -9.1090490e-04  -1.5458277e-04   9.5137497e-05  -3.4096309e-03   9.7732576e-05   1.3171182e-05   1.5302021e-04   7.8543201e-03   4.2334194e-03   4.6562287e-04  -1.0037904e-04   1.5411344e-04   1.9829824e-04  -2.0241965e-05
   7.4015879e-05  -9.6019117e-05  -4.8630605e-05   6.3181787e-06  -1.6611117e-05   1.1490838e-04   1.0508014e-04   4.2380461e-06   3.1113846e-04   7.7229575e-05   1.2747665e-04  -1.4659691e-04   9.0347632e-05   9.5749558e-05  -4.5870580e-05   3.2571284e-04   1.7094673e-05  -1.5007894e-04   3.7308651e-04   3.1300749e-06  -1.1187486e-04  -3.6492996e-04  -1.9658446e-05  -4.9201033e-05   2.8279665e-05   2.4598622e-04   3.8274223e-04   4.6314090e-04   4.0956560e-04   2.0113384e-05   7.1700670e-05   3.6723615e-04  -1.0086450e-05  -5.2627962e-04   1.2942155e-04  -6.7462475e-05  -4.4368493e-04  -1.4395457e-04  -3.3227846e-04  -5.1453542e-03   2.2441012e-05   1.1780495e-05   2.9839139e-06  -1.6868315e-04   4.2840187e-03   2.6276656e-03  -1.0102044e-04   1.3338432e-04   1.8868086e-04   2.3793976e-04
   6.5763801e-05  -8.3517203e-05  -4.7452126e-05   1.8638315e-05   1.0106085e-06   2.4973368e-05   1.2635799e-04  -3.7998885e-05   3.2032497e-04   1.0088822e-04   1.4023390e-04  -1.0105505e-04   6.8691545e-05   5.1131086e-05  -1.1542670e-04   2.6012259e-04   3.6474707e-05  -1.8872578e-04   5.7505633e-05   1.9262145e-05  -1.0645326e-04  -3.7478076e-04   2.3712861e-05  -3.9726325e-05   6.3040166e-06   2.2081552e-04   1.2567276e-04  -3.8214479e-05   1.7298250e-04  -1.8687797e-05   4.1578128e-04   3.4395658e-04   2.0405872e-05  -5.6940815e-05  -6.8146648e-05   1.4711576e-04   7.2579843e-04  -2.2339731e-04   2.8756526e-04   4.4230134e-03   1.5981274e-04   9.2353686e-05   2.4847052e-04   8.2024364e-03  -5.0705386e-04  -3.1251023e-03   1.1349166e-04   2.6356874e-04   2.0175657e-06   1.3712366e-04
   4.3973629e-05  -7.1287141e-05  -4.7237652e-05   4.2786138e-05   1.7935425e-07   8.4834544e-05   9.1526155e-05   1.5489459e-04   2.8309497e-04   1.7313323e-04   1.9259000e-04  -7.1203212e-05  -2.1307447e-04  -1.3813024e-05   5.0661514e-05   1.0279566e-04   1.9683637e-05  -3.4664045e-05   2.9391827e-04  -9.6854992e-06  -1.1985144e-04  -3.1525205e-04  -6.6642665e-06  -1.3780163e-05   4.6871151e-05   1.0714375e-04   7.5051130e-04  -1.0403102e-04   2.6128619e-04   1.0907417e-05  -2.8466991e-06   4.9862218e-05  -8.9034918e-05  -5.0380011e-05  -1.5703651e-04   6.6679284e-05   4.4876267e-04  -1.8513871e-04   2.6927580e-04  -6.0999679e-05   2.4875329e-04   1.0545333e-04   1.1687232e-04   7.6040281e-03   3.0495487e-03  -1.4931245e-03  -1.6911010e-05   1.8848870e-04   3.1703225e-04   2.8573020e-04
   2.8594661e-05  -7.1689123e-05  -4.3975731e-05   5.5408578e-05  -1.3693314e-06   1.2066997e-04   8.3204191e-05  -6.6612924e-06   2.7820130e-04   1.0744060e-04   1.3706255e-04  -1.2297460e-04   8.2808416e-05   2.8364580e-05   1.6563162e-04   1.0989068e-04   1.1037701e-05   1.2716248e-05   2.3749286e-04   1.8297502e-05  -1.2579768e-04  -3.2197844e-04  -7.8841958e-06  -7.2797804e-05  -1.1893658e-04   9.8037839e-05   4.3969115e-04  -9.2641043e-05  -4.3365912e-04  -2.0188814e-05   1.4285174e-04   1.9595325e-04  -3.8496283e-04  -1.7730550e-04  -1.6516760e-05   3.9977068e-04   1.9362022e-04  -1.7146088e-04   2.5656176e-04  -7.4242791e-03  -2.3200327e-04   5.6106237e-05  -4.9227456e-05   6.6604442e-04  -1.9891087e-03  -3.8092488e-03   1.2157981e-05  -3.5723104e-05   2.6851354e-04  -7.4742718e-05
   4.3758970e-05  -6.0706880e-05  -2.6194783e-05   4.6316283e-05   1.5229646e-05   9.5262309e-05   1.6709349e-04  -6.9067333e-05   3.1079803e-04  -1.3034664e-05   8.0603495e-05  -1.7863176e-04   9.6773392e-06   8.4733227e-05  -4.2485414e-04  -2.1056019e-06  -1.0295009e-05  -2.2892918e-05   1.4929149e-04   2.1715727e-05  -1.1035576e-04  -3.2141723e-04  -7.7420191e-05  -5.7899164e-05   3.5677644e-04   9.2043199e-05   3.7092992e-04   1.2810637e-04   7.7167252e-04  -1.0217051e-05   2.0286912e-04  -2.3070819e-04  -1.7340723e-04  -6.1454324e-05  -1.7036445e-04  -9.3434013e-05   3.2713448e-04  -2.2307184e-04   1.6580356e-04  -1.0843064e-03   1.8166268e-04   3.6492242e-05   1.1470113e-05  -2.4116386e-03  -3.1592832e-03  -1.9219323e-03   1.1780942e-04   2.2545180e-04   3.8263213e-05   2.3560779e-04
   4.7308378e-05  -5.5866523e-05  -2.0959154e-05   5.4295335e-05   1.4568773e-05   9.3315648e-05   1.5822009e-04   1.7931843e-04   3.7145006e-04   1.5206076e-04   1.7757829e-04  -3.2680080e-05   7.8620047e-05   1.9455481e-04  -1.9383924e-04   2.0784812e-04   6.7909232e-06  -5.1347164e-05  -2.3525881e-05   4.4341206e-05  -9.5541873e-05  -2.9500347e-04   9.9033765e-05  -5.2107571e-05  -2.1004826e-05   9.2883805e-05   7.7682766e-05   6.3338855e-05   8.7910361e-05  -8.2530923e-06   2.5287570e-04   2.3995250e-04  -6.3961146e-05  -5.7391758e-04  -1.1164296e-04  -8.5621745e-05  -4.1702305e-04  -3.0493306e-04   4.0856242e-04  -1.9691749e-03  -7.3419113e-05   1.0718047e-04   7.2368188e-05   1.3758074e-03  -3.0499767e-03   2.7381864e-03   1.0417792e-04   1.1423796e-04  -2.5368610e-04   1.6769746e-04
   1.6953647e-05  -4.8951759e-05  -3.1796157e-05   5.6064826e-05  -8.0250743e-07   3.8110189e-05   2.2249327e-04   3.4590767e-04   2.7754981e-04   5.3161300e-05   1.3985748e-04  -8.9228699e-05   1.3274841e-05   8.5617590e-05  -2.4336090e-04   7.0036520e-05  -5.4906440e-07  -3.5066867e-05   2.7526691e-04   9.7988250e-06  -1.0120132e-04  -2.9632219e-04   5.2130843e-05  -5.9855403e-05   7.8458230e-05   1.7709847e-04  -1.6186095e-04  -2.7862214e-04   3.7851513e-04  -2.4821079e-06  -1.1855853e-05  -1.9056878e-04   4.6107762e-05   1.6358744e-04   4.2688465e-05   6.9488910e-06   7.1652379e-04  -2.7171796e-04   6.0896412e-04  -1.3684953e-03   9.6694108e-05   2.1006175e-05   1.7171036e-04   7.5309742e-03   3.4076942e-03  -1.4034418e-03  -3.8696002e-05   1.8825935e-04  -3.4667315e-05  -6.3695015e-06
   3.7035366e-05   1.1867622e-05  -4.2223219e-06   6.6764202e-05   2.0693276e-05   9.2997390e-05   1.5552076e-05  -2.0088311e-05   1.1135977e-04  -1.1163637e-04   1.0672725e-04  -7.2462390e-05   4.0358271e-05   1.2737242e-04   1.5812537e-04  -3.4321792e-04   1.3702576e-05   9.3163952e-05   1.2880471e-04   1.7897633e-05  -9.8158263e-05  -3.0003232e-04   3.0812273e-06  -5.6166016e-05  -6.2255676e-05   1.3444644e-04   4.4547152e-04   9.8034849e-05  -3.3503634e-04   4.7888614e-05  -1.3518218e-04   1.1555903e-04  -1.0973303e-04  -2.4852323e-04   1.2824450e-04   1.2381820e-04   6.7638658e-04  -1.5863750e-04   2.6712159e-04  -2.1660032e-03   3.3033080e-04  -8.7467934e-06   2.0748044e-04   1.3210009e-03  -1.2778416e-03   3.8992291e-04  -5.0951335e-06   1.2268376e-04  -1.1454566e-04   1.0297717e-04
   6.7894609e-05   3.3816748e-05   1.3519738e-05   7.3245530e-05   3.0409396e-05   6.0088129e-05  -1.8142512e-06   2.3689592e-04   2.9275651e-04   7.3664254e-05   2.0036721e-04   1.1532096e-04   6.2040395e-05   1.0214605e-04  -1.7262749e-04   2.7275880e-04   6.5750992e-06  -4.2717613e-05   1.3785198e-05   7.1608352e-05  -7.9208541e-05  -2.6707718e-04   9.7930395e-05  -6.0446695e-05   4.5402518e-05  -2.6377260e-05   2.4950589e-04   1.4636375e-06   7.5927842e-04  -4.9259656e-06  -7.1719682e-05  -4.3930876e-04  -1.7874193e-04  -3.8711143e-05   1.0135525e-04  -1.4221213e-04   5.0456217e-04  -2.2729526e-04   7.0897448e-05  -4.7079804e-03   1.5908413e-04   1.1005051e-04   1.4841609e-04   4.0687174e-03  -2.6142681e-03   6.1049848e-04  -6.1709019e-05   5.2236432e-05   2.1073951e-05   5.4958895e-05
   4.1091633e-05   3.0889307e-05   1.6962522e-06   7.3816285e-05   2.1192576e-05   3.6569534e-05   2.4659722e-04   2.4043053e-05   3.5618810e-04  -4.7878184e-06   1.6321387e-04   5.0794300e-05  -6.3473533e-05   2.2516513e-04  -6.6583270e-05  -4.5600679e-04   4.9153459e-06   7.8717982e-05   4.7875691e-04   5.1442978e-05  -9.5136871e-05  -2.5254712e-04   6.3439729e-05  -8.1549246e-05  -5.5680626e-05  -8.0842030e-05  -1.6134687e-05  -1.4059071e-04   1.0819964e-03  -1.8886662e-05   1.7771739e-04   1.9937289e-04  -5.7400393e-07   1.3336206e-04   1.5638529e-05  -2.2119962e-06   2.2399781e-04  -2.6151052e-04  -1.0639676e-04   9.7652897e-03   2.5804972e-04   5.2868028e-05   1.7037007e-04   5.2012089e-03  -1.3042410e-03   7.1206247e-04   2.6634511e-05   7.9776022e-05  -2.1213011e-05   1.1140617e-04
   2.9079099e-05   2.5548854e-05   2.5462678e-06   7.2182105e-05   3.1645410e-05   6.5848508e-05  -1.9494208e-05   1.0406881e-04   7.0563721e-05  -9.4589661e-05   1.1060786e-04  -3.5179546e-05   1.1433184e-05   1.2125869e-04  -1.0195847e-04  -9.6265021e-06  -1.5093578e-05   3.4012963e-05  -1.3342714e-04   5.8859256e-05  -1.0417585e-04  -2.7551141e-04   1.0971993e-04  -4.9952007e-05   5.7196794e-05  -8.9360619e-05  -1.0609325e-04   1.7171130e-04  -1.3335422e-04   7.1974150e-06   3.9083381e-05   1.8989669e-04  -3.8104336e-04   9.7611723e-05   3.4965171e-05  -1.2840751e-05  -2.4558612e-04  -2.0452515e-04   5.8884098e-04   5.0748186e-03   4.0574334e-05   2.2362809e-05  -3.6395686e-06   1.1102734e-02   2.5248674e-03  -1.6500573e-03  -7.5646531e-05   9.9030651e-05   9.8914330e-05   9.6486328e-05
   5.6846500e-05   2.3519366e-05   2.0848755e-05   7.8860423e-05   4.5731682e-05   1.1656710e-04   2.1657250e-04   3.3187628e-04   1.7564895e-04   5.0675473e-05   1.4829774e-04   7.9332611e-05  -6.1028928e-05   4.7488746e-05  -9.1965579e-05   1.2049391e-04   1.7800738e-05   4.7948259e-05  -3.7179881e-05   4.5971225e-05  -9.4256866e-05  -2.3367930e-04   1.3360384e-05  -3.1894611e-05   1.0528433e-04  -8.1373713e-05  -5.1104773e-05  -2.1544662e-04  -9.0487732e-04   1.1666126e-05   1.6002316e-04  -1.3813750e-04   4.2613733e-06  -2.6353821e-04   1.5135118e-05  -1.3236662e-04  -2.5925496e-05  -2.0856604e-04   3.2559288e-04  -3.6678324e-03   4.6669936e-04   7.4441465e-05   1.9512558e-05  -1.2718592e-03   4.4897984e-04   2.4743695e-03   1.5338660e-04   9.1066468e-05   1.9827134e-04  -5.5357126e-05
   3.8055870e-05   2.3523047e-05   7.4720483e-06   7.2691691e-05   3.8703769e-05   1.2079249e-04   1.0194891e-04   2.2884573e-04   1.4210401e-04   1.3569370e-06   1.3773114e-04   2.6274169e-05  -1.3222820e-04  -4.8574781e-05  -2.3675103e-04   1.5845675e-04  -2.8035358e-06  -5.2964162e-05  -1.6931488e-04   3.7043723e-05  -1.0492083e-04  -2.7825171e-04  -1.4311361e-05  -5.7200403e-05  -9.3664574e-05  -7.8623649e-05  -1.1751919e-04   2.6866249e-04   1.8268010e-04  -1.5688045e-05   7.4542535e-05  -2.4710796e-04  -1.8986707e-04  -5.2772375e-04  -6.1422077e-05   1.5105077e-04   3.1045204e-04  -2.2627659e-04   2.7217218e-04   8.2383985e-03   2.3371977e-04   4.8152149e-05  -1.1838626e-04  -2.7521967e-03   1.5210935e-03  -2.3252830e-04  -1.2940733e-05   1.1151960e-04   4.6675123e-04  -1.0201129e-04
   2.8973673e-05   2.3868562e-05  -1.4408063e-07   7.3249459e-05   3.6994847e-05   8.5487962e-05   3.1863025e-04   1.8476175e-06   2.2472888e-04  -9.1647373e-05   9.1301903e-05  -4.7943548e-05  -1.0491021e-04   9.7825861e-05  -2.0568827e-04   2.5873553e-05  -4.6970024e-05   4.2075470e-05  -1.0322660e-04   5.2960011e-05  -1.0930032e-04  -2.6004564e-04   4.1683251e-07  -3.0338815e-05  -1.0551146e-04  -7.5277560e-05   2.4815241e-04   1.9281232e-04   6.1688974e-05  -6.0455009e-06  -1.5625666e-04   1.7835970e-04  -2.3202742e-04  -4.6518483e-04  -7.8093901e-05  -4.8837392e-04   8.0273941e-04  -1.8524042e-04   3.5325557e-04   3.2788808e-03   3.2012298e-04   1.0289512e-04  -8.9334491e-05  -3.2354724e-03   3.3779673e-03   7.5136218e-04   3.9853796e-05   9.2752300e-05   4.0046245e-05   2.6549579e-04
   5.2054471e-05   1.8435943e-05   1.8184262e-05   7.9826423e-05   5.1997034e-05   1.0539778e-04   1.5363962e-04   2.3399005e-04   3.0681989e-04   6.2885461e-05   1.5208290e-04   7.6646495e-05   5.1967421e-05   7.4674717e-05   2.2361631e-04   1.6282438e-05  -3.5438889e-06  -1.7514401e-04   6.3797430e-04   5.1369352e-05  -9.9793077e-05  -2.8293827e-04   7.0492359e-05  -7.2615949e-05  -1.6713042e-04  -8.5960317e-05   1.9570511e-04  -1.8821795e-04  -1.0130800e-03   3.2703570e-05   2.8113094e-05   1.2293317e-04  -1.4686708e-05   3.7006280e-04   4.3175150e-05  -2.7849406e-04   3.0473474e-04  -1.4686954e-04  -3.6547292e-04  -1.6579414e-03   1.6474778e-04   1.2029607e-04   2.1771673e-04  -2.3913900e-03   2.8044842e-03   8.2927942e-04   1.4236972e-04  -1.7241182e-05  -2.5835383e-05  -3.1921074e-05
   4.5893299e-05   2.1313846e-05   9.9226081e-06   7.6592820e-05   4.8503152e-05   6.0751801e-05   2.9722136e-05   5.9326783e-05   1.7977609e-04   5.6095396e-06   1.5012726e-04   3.5697849e-05   9.0750204e-05   1.5033652e-04  -5.4249456e-05  -7.3556817e-05   1.9432077e-06  -1.6137447e-04  -1.1441709e-05   5.5218214e-05  -1.0648712e-04  -2.4603805e-04   4.7491718e-05  -1.3096792e-05   1.6347596e-05  -6.0850180e-05   2.2847571e-04  -1.6254878e-04  -8.9089524e-05   2.2181495e-05  -1.3642624e-04   8.3053485e-05  -2.9329269e-04   2.7281058e-04   6.7915702e-05  -1.8526278e-04   5.5213500e-04  -1.2562003e-04   5.4007198e-04  -7.0263972e-03   1.7323894e-04   4.2513479e-05  -1.3946311e-04  -4.1109999e-03  -5.5680401e-03  -7.6730980e-04  -1.7666513e-05   1.5006466e-04   2.3283050e-04   6.4229855e-05
   3.6650184e-05   2.0639882e-05   3.2663893e-06   6.5751941e-05   4.4287775e-05   1.1746857e-04   1.1556690e-04   8.6748980e-05   1.6336280e-04  -8.6586311e-05   9.1275200e-05  -5.0282972e-05  -2.9226099e-05   1.8523249e-04  -3.7250982e-04   1.8505989e-04  -1.4270798e-05  -8.2699982e-05   2.9673162e-04   1.3718585e-05  -1.1149265e-04  -2.6991992e-04   5.5853921e-05  -6.2371844e-05   2.4286279e-04  -5.8563957e-05  -3.4362790e-06  -6.7479697e-05  -3.1349828e-04   1.7587747e-05  -1.0158274e-04  -1.7884665e-04  -1.7794567e-04  -1.9110450e-04   3.4704561e-05   2.0256421e-05   2.8015219e-04  -9.0194037e-05   3.6192659e-04   9.7140279e-03   2.2231755e-04   3.0066079e-05   1.8028297e-05   2.1041133e-03  -1.7719035e-03  -1.7728880e-03   6.7918838e-05   5.2803625e-05   7.3897012e-05  -2.1092057e-04
   5.0475777e-05   1.9321395e-05   2.0445337e-05   7.8417870e-05   5.1428386e-05   9.7785189e-05   7.4468968e-05   7.6664604e-05   2.5294727e-04   7.1207905e-05   1.4568315e-04   7.1338720e-05   8.9614099e-05   9.6231350e-05  -1.8969402e-04  -1.2040707e-04  -3.5683755e-05   6.1225299e-05   2.2702651e-04   6.5510474e-05  -1.0386587e-04  -2.5491166e-04   1.3500894e-04  -2.8645816e-06  -5.6613499e-05  -5.3798026e-06  -2.0105334e-04   7.5196895e-06   3.2937041e-04   1.4265001e-06  -5.5128312e-05  -1.8223614e-04  -1.4626175e-05  -3.3350126e-04  -7.4029713e-06   8.1076047e-05  -2.5512069e-04  -1.2160838e-04   2.4119965e-04  -5.7613952e-03   4.5902871e-05   6.8825393e-05   1.5812329e-04   9.4508464e-03   5.0561088e-03  -9.5989043e-04   9.0270412e-05   1.0412325e-04  -1.0795753e-04   1.6582702e-04
   4.2659307e-05   1.6931186e-05   2.8762311e-06   6.9250978e-05   4.1461368e-05   1.8100732e-04   4.2484495e-05   2.4319753e-04   1.9569592e-04   2.2494460e-06   1.2426231e-04   1.7580456e-05   4.7397334e-06  -1.3220843e-04  -1.3036813e-04  -4.8509523e-06  -2.1194252e-05   1.1877215e-04  -2.9779365e-05   3.7448983e-05  -1.1510796e-04  -2.5443040e-04   4.9819027e-05  -3.1402393e-05   5.7184079e-05   4.0096987e-07   4.0539264e-04   2.4259341e-04  -4.8557032e-04   4.3110267e-06  -1.2850085e-05  -4.9372291e-05  -2.5459068e-04   2.9850225e-05   3.3748286e-06  -1.5596955e-04   2.7676669e-04  -6.3487561e-05   3.0996135e-04   4.2183185e-03   1.0890165e-04   4.6831065e-05   3.2930647e-04  -1.6821173e-03  -2.3810685e-04   1.4685539e-03   2.9296030e-05  -4.4767694e-05   1.7838489e-04   4.5385175e-05
   3.8388065e-05   1.5118922e-05   3.2569855e-07   4.6531797e-05   3.0699499e-05   8.0623679e-05   5.1849434e-05   2.2157636e-05   1.2952591e-04  -8.6952503e-05   6.4745160e-05  -6.4152046e-05   4.6055098e-05   1.0714684e-04  -1.4656804e-04  -1.1329033e-04  -1.7127277e-05   8.1806966e-06   1.3548455e-05   1.0786015e-05  -1.2148985e-04  -2.7521185e-04   2.7771201e-05  -5.2476335e-05  -2.4412267e-04   5.9878355e-05   1.7069750e-04   2.1719265e-05   6.3552614e-04  -1.0825318e-05   2.9611020e-04  -3.5689748e-04  -1.3685293e-04   2.6220616e-04  -3.0274728e-05  -5.6546563e-05  -9.2377144e-05  -4.1161697e-05   1.1609907e-04   6.4479182e-03  -1.0903074e-04   3.4437162e-05   2.0942451e-04  -2.0480417e-03   2.1515770e-03  -3.1385932e-04   9.6329015e-05   1.0600699e-04   4.7731854e-05   7.9888132e-06
   6.5723485e-05   2.0001733e-05   1.1332802e-05   6.1506136e-05   4.6033860e-05   7.9699486e-05   2.5497261e-04  -6.2043699e-05   1.6912117e-04   7.3634837e-05   1.3386199e-04   7.0993112e-05   2.2775423e-05   1.1321095e-04   3.5314908e-04  -4.2003776e-05  -1.1529536e-05   5.4173419e-05   5.3079752e-04   2.9559309e-05  -1.0997222e-04  -2.9715954e-04   2.4776908e-05  -7.2982519e-05  -2.9435908e-04   9.6448814e-05   2.9072692e-04   1.7001596e-04   8.6334447e-04   3.2707669e-06   1.4004369e-04   3.9905097e-04  -2.7065167e-05   2.5203713e-04  -1.9871991e-04  -3.3111626e-04   3.9004002e-04  -8.6525084e-05   3.1909070e-04  -5.6883981e-03  -2.6095477e-05   2.7239221e-05   4.0218088e-06  -8.6179292e-03  -5.6824641e-04   5.1548285e-04   1.3502686e-04   1.7327401e-04  -7.0479022e-05  -1.5971817e-04
   4.8057267e-05   1.7641896e-05  -7.3555231e-07   5.8601741e-05   3.0740983e-05   6.1226019e-05  -8.1671642e-05   6.7946123e-05   1.6153883e-04   7.7232817e-06   9.5851079e-05   2.5067497e-05  -1.9644306e-06   2.1412948e-04  -1.4175744e-04   1.4796953e-04   5.5923920e-07  -2.6338941e-05   1.9137874e-04   1.0279334e-05  -1.2024269e-04  -2.6016770e-04   7.6093656e-06  -4.0539621e-06  -3.9330025e-05   5.7223988e-05   4.9965770e-04  -8.3206272e-05   9.6802221e-04   6.3108113e-05  -1.7866389e-04   5.1852108e-05   2.2747878e-05  -5.0003087e-04   7.6168486e-05   3.7386714e-04  -6.8116773e-05   4.5880747e-06   7.4852120e-05  -3.6474955e-03  -2.2531180e-05   4.9238308e-05  -1.3178278e-04   1.1563155e-02   7.6123797e-05   6.3744513e-04   1.1699763e-04   2.7146976e-05   1.4787969e-07  -2.8277584e-04
   4.7883270e-05   1.6199992e-05  -6.9196545e-08   3.7892853e-05   3.8696966e-05   8.6562810e-05  -6.8094355e-06   4.8165402e-05   1.1949869e-04  -7.7712284e-05   4.3355139e-05  -5.0210550e-05   4.9145379e-05   1.3614025e-04  -4.9839604e-05   1.5667180e-04  -2.5158804e-05  -4.1121224e-05  -3.3653475e-04   2.3155790e-05  -1.3194422e-04  -2.8483325e-04   1.3515864e-04  -3.1305644e-05  -1.3702175e-04   5.4643657e-05   5.0642248e-05   3.9505798e-04  -2.9088903e-04  -7.6393608e-06  -1.6166225e-04  -1.4064868e-06  -3.2884258e-04  -8.1117825e-05  -1.0339632e-04  -4.8275251e-05   1.2443321e-04  -2.7892547e-05   6.2263745e-04   2.5905755e-03   1.4570000e-04   1.0987961e-05   1.6124031e-04  -4.0551224e-03   2.2629157e-03  -1.2395256e-03   1.1200711e-04   8.5596126e-05   7.3855233e-05  -1.8199013e-05
   7.9481149e-05   1.8614430e-05   1.4690980e-05   4.8860693e-05   4.4072007e-05   9.4103212e-05  -7.5018594e-05   8.3500207e-05   1.6370459e-04   7.2459938e-05   1.1545295e-04   8.2810177e-05  -1.0358395e-04  -1.1002285e-04   4.0956063e-04   1.3319663e-04  -2.7367525e-05   1.7667990e-04  -2.8954944e-04   3.0125360e-05  -1.1750139e-04  -2.9499622e-04   4.9497676e-06  -3.3144850e-05   2.3300738e-04   4.3883520e-05   4.0859224e-05  -5.6628091e-05   5.5724697e-05   2.6960839e-05   1.8519242e-05  -2.7544965e-04  -1.8185491e-04   1.5839242e-04  -1.1960253e-04   1.5737947e-04   4.5876825e-04  -8.0504549e-05   1.6806590e-04   8.8144783e-03   4.0356987e-05   8.0224308e-05   1.4868160e-04   3.8843532e-04   1.5892776e-03   1.6297185e-03   6.3538246e-05   4.4612847e-05   2.1461643e-04  -8.3860268e-06
   5.9840928e-05   1.9628587e-05   5.9502025e-07   3.8124897e-05   3.2958338e-05   9.9794430e-05   2.9766086e-05  -2.9835292e-05   2.7181135e-04   1.9846275e-05   9.4252922e-05   1.7342147e-05  -1.4335818e-04  -3.1844309e-05  -5.8085733e-04  -3.3891178e-05   9.1691909e-06   1.4421883e-05   7.5422060e-05   5.9948325e-06  -1.1885820e-04  -2.8742346e-04   2.8236107e-05  -1.6331422e-05  -6.8465648e-05   3.0930474e-05  -2.6167839e-04   3.7382153e-04  -1.2752364e-03   3.0445874e-05   1.0880509e-04   3.9703568e-04  -1.4630293e-04   1.7175550e-04   1.7325013e-04  -5.2092999e-04  -3.4840067e-04  -1.1562136e-04  -4.7999201e-05  -6.3049681e-03   1.5425101e-04  -2.2960583e-05  -2.0256452e-05   1.1659409e-02   2.4477453e-03  -2.4078428e-03   8.0244201e-05   2.5978567e-05  -9.8839128e-06  -8.6365808e-06
   4.8177768e-05   2.0713002e-05  -3.3505264e-06   3.8540431e-05   2.7042295e-05   4.9460061e-05   2.7641778e-05  -9.6755823e-05  -2.4885825e-05  -7.3715019e-05   3.3992037e-05  -5.8064030e-05  -1.3525334e-05   6.1724793e-05  -2.1430216e-04   2.7675452e-04   6.6857624e-06  -9.2247785e-05   1.4864822e-04   2.3159151e-05  -1.2828686e-04  -2.6106587e-04   1.3790668e-04  -2.3427268e-05  -7.9415142e-05   1.4099252e-05  -4.6071905e-04   1.2915471e-04   1.9815318e-04  -2.4212288e-05  -1.0496569e-04  -4.9458307e-05  -4.0835389e-06   1.1775606e-04  -9.4988500e-05   2.5798919e-04   2.3872808e-04  -1.3838572e-04  -2.6984839e-04   6.5666516e-03   1.4955994e-04   7.0418573e-05   9.8051147e-05   1.3288468e-03   1.8381471e-03   1.7900331e-03  -4.7249036e-05   1.0630223e-04  -9.9785539e-05  -5.0183935e-05
   6.6605484e-05   2.0267922e-05   9.0472313e-06   4.2846736e-05   3.7027283e-05   5.6079854e-05   6.6148052e-05   2.6026855e-05   7.2997034e-05   6.4621046e-05   9.6280870e-05   6.2480533e-05  -6.5708235e-05   2.7285673e-04   3.1312625e-04  -1.0999176e-04   1.6814136e-05   1.2268305e-04   8.9633118e-05   3.7540274e-05  -1.1595066e-04  -2.8094361e-04   4.3602071e-05   1.4160189e-05   1.0495391e-04   2.4210765e-05  -3.3713000e-05   1.4023442e-04  -3.0005150e-04   1.6106274e-05  -2.1801369e-04   1.4612504e-04  -8.0058024e-05   2.0406336e-04   5.5700486e-05  -8.1480370e-04   1.0822563e-05  -1.5074966e-04  -5.0663173e-05   5.1396987e-03   5.7710306e-05   1.9033660e-05   1.5703627e-04   2.3162318e-03   3.8861558e-03  -9.2127454e-04   4.1340758e-05   9.7208911e-05   2.4443989e-05   1.7484410e-04
   5.5970635e-05   1.9525605e-05  -1.1174903e-05   2.6695139e-05   2.3882003e-05   4.1883661e-05  -1.6078865e-04  -8.9686713e-05   1.9631973e-04   1.3087544e-05   1.1346999e-04   2.1126196e-05  -1.6400680e-05   1.0341860e-04   4.7330355e-04   1.5663754e-04   2.5842694e-05   8.7421933e-05  -1.0530915e-04   8.6801238e-06  -1.2553310e-04  -2.9616806e-04   7.4269235e-05  -3.8436800e-05   2.0842406e-04   2.8079452e-05  -1.1890673e-04   3.4560615e-04  -7.2964054e-04   6.3291623e-06  -3.9162798e-05   1.1327634e-04  -4.7194069e-05  -2.4968866e-04  -3.1627307e-05   3.2147151e-04  -3.3962200e-04  -1.1219307e-04   3.6450647e-04  -4.8350976e-03  -6.2557963e-05  -2.8143522e-05   1.3645866e-04   1.7784385e-02  -2.0714104e-03  -2.5024128e-03  -6.9714384e-05   1.6653023e-04   1.0886948e-04  -3.5797093e-05
   5.5472887e-05   1.6812497e-05  -1.5912823e-05   2.6403664e-05   1.3581845e-05   5.0033716e-05  -4.7207828e-05   1.5755817e-05   1.3250369e-04  -6.9186244e-05   4.2517644e-05  -5.2813812e-05  -2.7662927e-05   2.0507014e-05   1.1592645e-05  -1.7228570e-04  -2.9608829e-05   9.5354417e-06   2.5028799e-04   5.9292624e-06  -1.3608794e-04  -2.9205927e-04   1.9302848e-05  -3.3124819e-05   2.1644820e-04   7.6830278e-05  -4.4378899e-05  -4.4879554e-05   1.0245616e-04   3.2205895e-05   1.0773011e-04  -1.7384782e-04  -3.7132288e-04   1.5761120e-04  -1.0851635e-04   4.4847628e-05   3.2075954e-04  -4.4199453e-05   3.9756414e-04   6.7885541e-03   2.3141522e-05   4.3594277e-06   2.1170817e-04   8.5034892e-03   3.0403766e-03   2.8473639e-04   6.5708387e-05   9.2429786e-05   2.7649467e-05   2.2357510e-04
   7.4818025e-05   1.4305418e-05  -3.0201204e-06   4.0503168e-05   2.7237505e-05   4.3560569e-05   5.1680558e-06   1.5035798e-04   2.1901680e-04   6.0194874e-05   9.4432158e-05   4.8412854e-05   3.9350220e-05  -1.1368392e-04  -2.9828576e-05  -1.6025344e-05  -1.4069509e-05   2.4440082e-05   2.9230176e-04   3.5284269e-05  -1.2998954e-04  -3.0736331e-04   1.1474319e-04  -2.2081507e-05   1.6338385e-06   1.1726958e-04  -3.8979677e-04  -1.4146313e-04   1.4557393e-04   2.0942580e-05   1.1585142e-04  -2.4155810e-05  -2.7709117e-04  -3.0089255e-05  -6.6896522e-05  -9.6118070e-05  -2.0079354e-04  -5.6470115e-05   3.4396817e-05  -2.1149402e-03   4.5522687e-05   1.2584082e-05   3.3746834e-04  -2.1968533e-03  -1.2222941e-03  -1.4725381e-03   1.0156653e-04   2.5581234e-04  -2.0334021e-05  -1.0797593e-04
   5.9151505e-05   1.3649921e-05  -1.9915820e-05   3.1793708e-05   1.4979376e-05   3.4934204e-05  -1.0354410e-04  -1.4831743e-05   2.6850711e-04  -4.1983590e-06   7.1931878e-05   6.2801832e-06  -2.5215320e-04   1.3312275e-04   2.1790111e-05  -3.6696078e-05   2.1262206e-06   4.2837091e-05  -8.5220171e-07  -2.7486931e-06  -1.3738878e-04  -2.9779380e-04  -9.3655617e-05   3.1925771e-05  -4.2434472e-06   1.4304966e-04   4.3773834e-04  -5.6213968e-05  -2.9957094e-04   5.0483945e-06   3.5242064e-04   3.4910074e-06  -2.6902292e-04   2.6290366e-04   2.4497554e-05  -2.5101058e-04  -1.8246906e-04  -1.2984562e-04   7.5350938e-05   6.4777904e-03   9.0495596e-05  -1.6489412e-05  -6.0604241e-05   2.4864082e-03  -2.4181628e-03  -2.2027795e-03   4.8510985e-05   2.6722153e-04  -1.9056973e-04   1.3845253e-06
   4.7660636e-05   1.1217909e-05  -2.7633510e-05   2.0811425e-05   1.6415041e-05   3.0531311e-05   3.4408662e-05   2.0394292e-04   1.6264126e-05  -9.8670585e-05   1.8574299e-05  -8.3567815e-05  -3.3563942e-05   1.2967542e-04  -1.0737112e-04  -3.3654922e-04  -3.8663202e-05  -6.7073939e-05   4.4415967e-04   1.0877781e-05  -1.4906016e-04  -3.2660883e-04   8.8085486e-05  -2.3018427e-05   2.0797941e-06   1.2104816e-04   6.7496570e-05   2.6840245e-04  -3.6887734e-04   2.8435794e-05  -4.5603589e-05   2.8002559e-04  -3.3692876e-04   1.8601083e-04  -1.9352265e-04   1.7184091e-05   7.7408639e-04  -7.4687232e-05   1.1815752e-05  -3.4298841e-03  -3.1405820e-05  -7.9364421e-05  -2.1861149e-04   7.5087706e-03  -4.3370416e-03   2.1197621e-03   3.8681833e-06   6.6742708e-05   3.0235551e-05   6.6666020e-05
   5.4366035e-05   1.1795023e-05  -1.5185738e-05   2.0286572e-05   1.6289394e-05   5.5723158e-05   1.0622697e-04   6.3196865e-05   1.2112381e-04  -1.0678226e-06   4.0145736e-05  -1.0335932e-06  -1.2716498e-05   5.3256161e-05   2.9428801e-04  -3.7232126e-05   1.3809984e-05  -5.7054542e-05   1.6366878e-04   2.2845119e-05  -1.3490739e-04  -3.1172810e-04   9.0704116e-06  -1.3876221e-05   5.6443572e-05   1.2897998e-04   9.5653078e-05  -6.2825929e-05   3.4969131e-04   4.1026296e-06   9.2683724e-05   2.8456585e-04  -2.1251863e-04  -3.7110956e-05   7.1867413e-05   2.3514704e-05  -3.7148985e-04  -8.7387460e-05   2.3536544e-04   2.3365710e-03   1.2239249e-05   2.4659323e-05   1.1141899e-05  -4.4915461e-04  -2.7366893e-03  -2.0544538e-03   7.2338444e-05   1.0414072e-04   5.6273042e-05  -1.3678853e-04
   6.1618077e-05   1.2395394e-05  -2.4522556e-05   3.2245844e-05   2.2631719e-05   4.7113674e-05  -7.8826735e-05   1.1702454e-05   2.2508008e-05   8.1546523e-06   8.9168316e-05   4.2475162e-06  -9.5383220e-05   3.2237556e-05   5.6230652e-05  -8.1485385e-05   2.9196159e-05  -1.8155128e-04   1.9064119e-04   3.0582116e-05  -1.4067320e-04  -3.3981938e-04   5.5068040e-06  -4.9459231e-05   1.0756714e-05   1.3487479e-04  -5.1702093e-05   9.6907810e-05   2.3320307e-04   2.4956320e-05  -1.2266453e-04  -7.5887867e-05  -6.7680630e-05   1.8639473e-04  -7.1425748e-05   3.3781555e-04   4.9822498e-05  -5.7034766e-05   3.2489747e-04   2.8653734e-03  -4.7303952e-06  -3.3296183e-05   7.3849784e-05  -3.6560693e-03   3.1951745e-03   1.7434995e-03   7.0440459e-05   1.0026085e-04  -4.1013624e-05   1.1370156e-04
   4.6985726e-05   9.0998346e-06  -3.3069449e-05   2.2271966e-05   1.3888884e-05   2.9938137e-05   1.3406186e-04   5.8909200e-06   1.5439739e-04  -7.4464602e-05   5.1340703e-05  -7.5833566e-05  -1.6687725e-04  -1.5817199e-05   2.8139987e-04  -2.0664647e-04  -9.9312665e-06   4.2450625e-05  -2.4337569e-04   2.2609043e-05  -1.5420209e-04  -3.3079815e-04   1.7599377e-05  -1.0333228e-05   2.0133815e-05   1.6263046e-04   3.2751172e-04  -9.0226611e-05  -2.9586974e-04   3.1417840e-05  -4.0426705e-05   1.1582046e-05  -2.1275839e-04   1.0702692e-04   1.0850417e-04  -1.9331749e-04   3.7055573e-04  -1.0284163e-04   4.5706550e-04  -5.1315888e-03  -1.0845917e-04  -5.0109273e-05   5.0282702e-05  -4.2854319e-04   2.2546512e-03   5.4677483e-03   1.3353062e-04   2.3350888e-04  -1.6436908e-04  -1.0168863e-04
   4.5782919e-05   8.4603589e-06  -2.9901199e-05   2.2668029e-05   1.1501329e-05   2.2626369e-05   7.0787944e-05   9.5804626e-06   1.3866306e-04  -1.3274317e-04  -1.1572052e-05  -1.2433183e-04   1.4915867e-04  -1.0013856e-04  -1.0544226e-05   1.4637040e-04  -8.0944674e-06   1.3448195e-04   2.1904145e-05   1.2015847e-05  -1.4345189e-04  -3.3152135e-04  -2.9283534e-05  -6.8578927e-05   1.0135330e-04   1.2074001e-04  -1.1121251e-04   6.3510590e-05  -1.1868485e-03   3.0920579e-05   1.3020814e-04  -2.3777053e-05  -1.4522309e-04  -1.9226642e-04   6.4930282e-05   1.0526464e-04   2.3266043e-04  -8.0421749e-05  -2.0723695e-04   8.1413612e-03  -5.4326856e-06   4.5884139e-05   3.3057947e-04   5.6596715e-03   2.4721387e-04  -3.5877326e-03  -3.0222236e-05   2.0820982e-04   1.1305704e-04   3.5835299e-04
   5.8444075e-05   1.2545537e-05  -1.4690866e-05   2.6309566e-05   2.7099530e-05   3.0252722e-05   1.2574668e-04   1.7065159e-04   1.4753497e-04   2.7530807e-05   8.6563843e-05   2.0350370e-05  -1.0770366e-04   9.8412253e-05  -1.0797822e-04   1.2229108e-06   1.6268023e-05   1.3095931e-05   3.0853695e-04   1.8767307e-07  -1.3689983e-04  -2.8743004e-04   1.9164358e-05  -2.7442464e-05  -3.0228522e-04   1.2384073e-04   2.5957471e-04   9.4837276e-05  -4.9950054e-04   3.0839950e-05   1.0606061e-04   2.9875324e-04  -1.2929304e-04  -3.1775996e-04  -1.8276533e-04  -2.6289343e-05  -2.7127512e-04  -8.8608795e-06  -1.9727169e-04   4.9781105e-03   3.8328286e-05  -1.3649913e-05   2.9431010e-04  -2.0886967e-03   1.1808760e-03  -2.4368173e-04   8.7937515e-05   2.4613863e-04   1.7478109e-04   6.1242819e-05
   5.4526627e-05   1.4175597e-05  -2.5352972e-05   2.9544190e-05   1.0226302e-05   5.7410645e-05  -4.2041676e-05   1.2371337e-04   2.1074076e-04  -4.6339956e-05   4.2693206e-05  -3.5159159e-05   8.8245775e-05  -1.3762618e-04   2.7615740e-04  -1.6436426e-04  -1.1212488e-05   8.8661673e-06  -3.9282296e-04   1.8729555e-05  -1.3967721e-04  -2.9630173e-04  -4.9806087e-05  -3.1571071e-05   1.0870384e-04   7.5127326e-05  -2.2137193e-04   3.2325953e-04   1.2867223e-04   1.0706848e-05   5.8729114e-05  -2.6145988e-04  -3.9026613e-04   2.9462474e-04  -1.7835278e-04  -3.8680059e-04   3.3871250e-04  -6.1999890e-05  -9.9768971e-05  -5.2769701e-03  -2.7825488e-04   2.1958278e-05   2.7671806e-05  -2.7719927e-03   4.0229596e-03  -2.7743527e-03   1.4045172e-05   1.3427268e-04   1.5459744e-04  -2.9355873e-04
   4.2960182e-05   1.3410808e-05  -2.3202787e-05   1.2711264e-05   1.7967504e-05   6.1163897e-05  -2.2339095e-06  -2.2758262e-05   7.4093536e-05  -1.1709750e-04   1.0620011e-05  -1.0356646e-04  -1.2793690e-04   1.0302306e-04  -8.4851279e-05   1.0131230e-04  -2.2281434e-05   5.0276747e-05  -9.8152137e-05   1.3726594e-05  -1.3499359e-04  -3.0132005e-04  -1.1395037e-04  -2.9172234e-05  -1.6821324e-04   7.6456468e-05  -4.2789243e-04  -5.0168514e-04   1.1503076e-03   1.0998950e-05  -8.7393862e-05   1.7428836e-04  -2.1778711e-04  -3.4771700e-04   9.7234661e-05   2.4649451e-04  -3.3460595e-04  -3.0181855e-05  -8.7522538e-05  -5.5499328e-03  -1.8865790e-04   2.5747133e-06   1.6141945e-04   2.6143797e-02   1.9445854e-03   4.8826254e-04  -3.3740835e-05   1.3666268e-04   2.2529565e-04  -1.5384137e-05
   5.2414904e-05   1.4417851e-05  -1.3503522e-05   2.4680434e-05   2.0701998e-05   7.6070188e-05  -1.5107980e-04   1.4024034e-05   2.2582609e-04   3.0989671e-05   7.7963545e-05   1.4547618e-05   3.5413461e-06   2.2545333e-04  -6.6366905e-05  -1.9428332e-04  -5.2827190e-06   2.1205115e-05   1.7761890e-04   9.1044049e-06  -1.3191799e-04  -2.8060382e-04  -1.6147293e-05   2.9045717e-05  -1.9204050e-05   1.0924700e-04   7.8613943e-05  -7.4944539e-05  -9.7107567e-04   2.4007755e-05  -2.8062065e-04   9.9156881e-05  -2.2028145e-04  -3.6526890e-04  -2.7674081e-05  -7.8329474e-05  -3.7289094e-04  -5.5531415e-05   1.6714864e-04   1.0610483e-02  -1.0223219e-04  -1.8575800e-05   2.3137467e-04  -7.0524280e-04   4.4774057e-04   4.0164191e-04  -3.1713200e-05   1.9670636e-04  -3.8893522e-05  -3.1726624e-05
   3.9048769e-05   1.2070490e-05  -2.3589626e-05   1.2238563e-05   1.2495078e-05   5.7592639e-05   1.4708626e-04  -3.6233945e-05   1.4074000e-04  -4.6846413e-05   1.6115238e-05  -5.6909961e-05  -5.6807301e-05   7.1967028e-05   6.1817915e-04  -2.4586677e-04   4.2395618e-06  -8.0688231e-05  -7.1810879e-05  -3.0792514e-06  -1.3617041e-04  -2.6795032e-04   7.1796982e-05   1.7872784e-05  -1.3892635e-04   1.1938215e-04   2.4459106e-04   1.8156221e-04   2.4980606e-04   1.7164131e-05   1.5726399e-04  -2.6246669e-05   1.0297268e-05  -6.7823188e-05  -5.9020309e-05   1.5401836e-05  -2.1289129e-04  -3.6844242e-05   5.7820202e-05   3.1764088e-03   2.3481740e-05  -1.0985238e-04  -6.4652959e-05  -4.6286499e-03  -2.4832692e-03  -1.0467526e-03  -2.3239505e-05   1.5927861e-04  -6.6655681e-05  -1.5821895e-05
   3.7404756e-05   8.5577840e-06  -2.5984002e-05   6.4897254e-06   1.4566578e-05  -5.7469975e-07   3.4232642e-05   5.2998090e-05   2.3574719e-05  -1.3303039e-04  -2.2020544e-05  -1.3405649e-04   1.3291114e-04   7.1581730e-05   6.2624174e-05  -1.5827570e-04  -1.3070422e-05  -1.0920160e-04  -5.7703565e-04   1.8361923e-05  -1.4125781e-04  -3.0603993e-04   1.4002642e-05  -4.5262503e-05  -3.4274923e-04   1.1649809e-04  -2.3586246e-05   3.8545764e-05  -3.2909450e-04   3.7468817e-05   2.3929593e-04   2.3652294e-04  -1.2058649e-04   1.7800006e-04  -4.0692081e-05  -1.3338870e-04  -2.1303166e-04  -7.3080901e-07   2.7541368e-04   8.8740475e-03   3.7155576e-05  -5.8879315e-05   2.6797174e-04  -3.5763879e-03   5.0373659e-03  -1.6577139e-03  -3.9423336e-05   1.5294559e-04   2.6604685e-04  -1.5264486e-04
   4.8506598e-05   7.7767709e-06  -1.5444004e-05   2.1019325e-05   7.0126957e-06   1.2468086e-05  -6.0283692e-05  -1.9302197e-04   1.7647340e-04   2.9632647e-05   5.1600553e-05   1.3943668e-05  -9.5859075e-05  -5.6426243e-06  -3.9584622e-05  -3.7196800e-04   4.2708384e-06  -3.6586425e-05   5.3794432e-05  -1.1212222e-05  -1.2354227e-04  -2.5485625e-04   9.2198228e-05  -7.1054978e-06  -1.3557749e-04   1.0539871e-04  -5.4833210e-05   1.0904202e-04   3.2984291e-04   4.7117173e-05  -6.0261260e-05  -1.0507313e-04  -2.9704117e-04  -1.1942164e-04  -1.2625787e-04   1.7985614e-04   3.0718942e-04  -7.7908255e-05   6.5468827e-05  -3.6241754e-03   1.8293087e-05  -1.4135530e-05   2.8245873e-04  -1.3402678e-03   2.3552755e-04   1.9171642e-04   6.8520880e-05   2.9146456e-04   1.9329877e-04   1.6840150e-04
   3.2439399e-05   7.2581679e-06  -3.6382000e-05  -4.8218972e-08   5.3901608e-06  -1.4399059e-05   4.6103934e-05   3.9786819e-06   7.3339368e-05  -2.8918717e-05   4.6141737e-05  -5.2255655e-05  -2.8856538e-04   7.4283242e-05   1.7944699e-04   4.3260038e-04   5.3401895e-06   4.7131361e-05  -3.5677378e-05   3.5716821e-06  -1.2204087e-04  -2.5320053e-04   1.1249291e-04  -9.9823446e-06  -3.8705282e-05   3.7613419e-05   4.7549332e-04  -3.1996227e-05   1.1545283e-05   1.3226168e-06   2.0803571e-05  -1.5663001e-04  -1.0765960e-04  -3.1385428e-04  -5.4305350e-05   7.3807733e-04   4.2713681e-04  -6.1501720e-05   2.5520191e-04  -4.7932654e-03  -1.2469314e-04  -3.6945912e-05   1.5264949e-04   6.6098780e-03   2.3864058e-03  -1.7972636e-03  -7.4074240e-05   1.1308968e-04  -5.9202386e-05  -2.5374166e-04
   2.7459848e-05   5.4214916e-06  -2.5282998e-05   4.9651271e-06   8.3551477e-06   1.5086956e-05  -7.7822406e-05   1.5802761e-04   1.0569608e-04  -1.0375292e-04  -1.0409934e-05  -1.1703127e-04  -1.7756867e-04   1.8788673e-04   1.2342613e-05  -1.3964430e-04  -2.0888516e-05   1.6235466e-05   4.6323211e-04  -1.2281326e-06  -1.1770506e-04  -2.3209254e-04   1.7965995e-05  -4.6592242e-05  -2.3676777e-05   3.6231184e-05   1.3473621e-04  -3.8142799e-04  -1.8735472e-04   4.9228118e-05   2.3245734e-04  -2.3822399e-04   5.5845088e-05  -1.5525763e-04   6.6200577e-05  -9.9873221e-05   3.2387790e-04  -3.9290604e-05  -2.0055595e-05   8.3835693e-03  -7.5100936e-05   5.5864612e-06   1.6062114e-04   3.0737559e-03  -1.8709337e-03  -1.2857971e-03   6.3201936e-05   9.1023277e-05   1.0141723e-04   1.6763558e-04
   5.8179812e-05   1.5530308e-05  -1.0403836e-05   1.9397372e-05   2.7062266e-05   4.3728971e-05   3.8249065e-05  -1.4727945e-04   1.4541918e-04   5.8350826e-05   4.0265113e-05   3.7373105e-05  -1.0365190e-04   6.9858157e-05   1.8348152e-05  -4.7141482e-05  -2.3833349e-05  -3.5243233e-05   2.2700668e-04  -9.9621147e-06  -9.6771131e-05  -1.2380729e-04   9.2890577e-06  -3.1829952e-06   2.4420742e-04   4.2744970e-05   9.0096357e-05   2.4743765e-04   1.3677895e-04   3.4292723e-05   5.2595220e-05   3.5787973e-05  -1.3180941e-04   2.7737531e-04   1.1401274e-04   2.2861926e-04   6.7761459e-05  -1.8646782e-05   3.5715697e-04  -2.5759703e-03   5.4293825e-05  -3.5708086e-05   2.4213865e-04   9.8748198e-03   2.5989292e-03  -4.6705012e-04   2.4175672e-05   1.0737194e-04   2.3677445e-05  -4.7109039e-05
   4.4774843e-05   1.2947872e-05  -2.3971614e-05   1.1569019e-05   1.9751116e-05   1.9659579e-05  -1.1100625e-04   1.2582573e-04  -2.8441912e-07  -3.3741289e-06   2.5445466e-05  -2.9215353e-05  -2.7471053e-05  -1.1827541e-04   2.1878758e-04  -9.6076074e-06  -9.9480967e-06  -1.6418245e-04  -1.4399269e-05  -1.4194388e-05  -1.0727342e-04  -1.0841971e-04   7.3608106e-05  -5.9158876e-05   1.0650630e-04   2.9714258e-05  -1.9813380e-04   1.1619111e-04   3.1463424e-04  -1.1536365e-06  -6.1742823e-05  -1.3850832e-04  -1.4156013e-04   7.2994393e-05  -4.5164816e-06  -6.6330234e-05   1.4649010e-04  -2.7318411e-05   4.1126911e-04  -2.8255337e-03   9.9521400e-05   4.4253429e-06  -1.1024588e-05  -1.8705812e-03   8.5529301e-04  -1.7049250e-03   3.9588969e-05   8.4796789e-05   8.2067518e-06   1.2248343e-05
   3.5991565e-05   1.2687430e-05  -2.0818405e-05   4.8630841e-06   1.5528653e-05   2.3716357e-05   1.1223076e-04  -5.1125586e-05   4.1662747e-06  -8.7411747e-05  -3.1836960e-05  -9.1374699e-05  -9.7725810e-05  -5.0200637e-05   2.2560409e-04   3.4402398e-04  -1.9137005e-06   1.5856127e-05  -2.7647493e-05   4.1897374e-06  -1.0846761e-04  -8.9071174e-05   5.4120010e-05  -9.2178147e-05  -1.9010983e-04  -8.5729789e-06  -4.4899643e-05   3.0030968e-04   1.4637860e-04  -2.1575725e-06   8.9296453e-05   2.6326093e-06  -7.7308847e-05  -7.8762081e-05  -7.0996110e-05   8.0825899e-05   9.4077397e-05   2.4800771e-05  -2.4172483e-04  -2.6318431e-03  -1.2889096e-04   4.9480761e-05   2.3972524e-04   1.0640057e-03   6.9706762e-06   8.0852682e-04   3.2644253e-05   1.7166391e-04  -2.1963577e-05  -2.7181979e-04
   5.7141056e-05   1.4987779e-05   7.0611022e-06   1.8416000e-05   3.4222121e-05   3.1353044e-05   8.7836153e-05  -4.6568726e-05   1.1208036e-04   4.7557045e-05   2.7911099e-05   2.1245491e-05  -2.1451339e-04  -7.9118705e-05   1.3194805e-04   1.4334498e-04  -4.2150136e-06  -9.7241078e-05   2.0013025e-04  -3.2332795e-05  -9.4722272e-05  -7.0811482e-05   2.3026007e-05  -2.0510093e-05   1.8581026e-04  -5.5712873e-05  -2.9276990e-04  -1.0850776e-04  -1.2061246e-03   2.6544658e-05  -1.9605056e-04  -8.6084547e-05  -1.2606400e-04   2.7815622e-05   2.6807864e-05  -6.2970741e-04  -1.0832363e-04  -2.7777303e-05   3.8229799e-04  -4.1317493e-03   1.0611678e-04   7.5696182e-05   2.5884376e-04  -3.7792411e-03  -3.2869945e-03  -2.0661638e-03  -3.0982399e-05   1.1893199e-04  -3.6328322e-05  -1.7265099e-04
   3.7030266e-05   1.6344091e-05  -8.7188182e-06   1.9254849e-05   1.5004776e-05   3.5476219e-06  -5.9748174e-05  -5.3450025e-05  -1.3272172e-06   8.9578170e-06   3.1649499e-05  -1.5532916e-05   5.1286257e-05   2.7367350e-04   3.9586699e-05   2.0718738e-04  -1.3957175e-05  -1.3279594e-05   2.0399448e-04  -1.2070981e-05  -1.0051244e-04  -6.8497837e-05   4.6438712e-05  -6.4766260e-05   1.5180420e-04  -5.6137687e-05  -2.3592662e-04  -1.8275238e-04   1.2631534e-03   1.2489121e-05   1.4284202e-04   1.4824106e-04   1.4272868e-04  -2.2434327e-04  -5.6622579e-05  -9.2003836e-05   2.1027752e-04  -5.2551324e-05  -2.8539181e-04   1.0613996e-02   8.6985056e-06   1.9969142e-05   6.6009132e-05   9.4736377e-03   3.8094399e-03   1.8131323e-04   9.9726043e-05  -1.0368950e-05   1.2387469e-04  -4.0625298e-05
   1.6007023e-05   1.2739541e-05  -1.5911775e-05   1.0079410e-05   8.4051853e-06   1.9437557e-05  -9.1702364e-05  -8.2903389e-05   4.8721904e-05  -5.8726710e-05  -5.5785849e-06  -8.2760082e-05  -1.6305996e-04  -7.8970597e-06  -3.5779219e-04   4.1613599e-05  -5.0757095e-05  -9.7284806e-07   5.4801174e-05  -7.9348893e-06  -1.0333095e-04  -9.4634786e-05   1.0456288e-04  -6.7855806e-05   1.2079346e-04  -8.6938911e-05   2.3335082e-04   1.1516541e-04   7.0413516e-04   9.2225373e-06   2.0658852e-05   4.6089728e-05  -2.6929003e-05   2.3065026e-04   7.1711249e-05  -4.5718049e-04  -4.0271197e-04   1.8628392e-05  -2.5909301e-04   1.3719870e-02  -1.1516977e-04   3.0813721e-05   3.7669466e-04  -2.2956743e-03   1.9484180e-03  -1.6187200e-03  -5.7757607e-05  -1.4910984e-04   2.8663239e-04  -2.1665724e-04
   2.7776810e-05   9.5754294e-06   1.3178101e-06   1.7145865e-05   3.5792891e-05   6.1561418e-06  -1.3578277e-04   2.0726345e-04   1.1234923e-04   6.5011220e-05   3.0408501e-05   1.2997895e-05  -3.8160101e-06   1.0486164e-04   6.3699656e-05   1.9219553e-04  -3.0499890e-05  -9.7707773e-05   2.1294839e-04  -5.8774745e-06  -8.8988512e-05  -5.4432658e-05   6.3090309e-05   1.3034894e-06   2.6050868e-05  -1.2883916e-04   3.6516855e-04   1.2568073e-04   9.0342874e-05   4.8165134e-06  -4.6721721e-05   4.2154777e-04  -4.9761307e-05  -2.0756396e-04   8.4384519e-06  -3.5964116e-04  -5.0571001e-05  -3.2075895e-05  -4.5941630e-04   2.6628584e-02  -1.0222672e-04   9.0925059e-05   2.3447155e-04   4.3510026e-04  -5.3443080e-03   5.7923840e-04   7.2346629e-05   5.2116218e-05   5.7282108e-05  -2.6405611e-04
   1.6070560e-05   1.3403393e-05  -1.2879771e-05   4.9937330e-06   2.6926738e-05  -4.2719272e-05   1.3275995e-04   1.0874651e-04   7.8940888e-05   3.2603431e-05   3.8933704e-05  -1.4542690e-05  -6.1878782e-05  -4.6387020e-05   1.7153363e-04   1.0932125e-04  -2.2811287e-06  -1.9414101e-05   1.7170286e-04  -8.3592604e-06  -8.8970191e-05  -3.1361764e-05   1.0046952e-04  -4.3087435e-05   1.3759615e-05  -1.4672765e-04  -2.4447657e-04   7.9971571e-05   5.5386097e-04  -5.4215993e-06  -2.2620283e-04   1.3217206e-04  -1.3260357e-04  -3.6008257e-04  -6.0190814e-05  -5.7469291e-04  -1.3437601e-04  -1.0761421e-05  -1.7608522e-04  -9.8519470e-04  -6.6447828e-05   5.2791245e-05   1.3108480e-04   1.9885357e-03   1.8352910e-03  -2.1219882e-04  -9.4325296e-06   2.3146988e-04  -1.6499210e-04   6.9717694e-06
   3.3053570e-06   7.1703844e-06  -1.5611482e-05   4.6595142e-06   1.7805614e-05   4.0976644e-05  -1.5653877e-05  -1.2842331e-04   3.3254659e-05  -5.7465000e-05  -1.1488966e-05  -8.8211556e-05  -2.7616547e-05  -3.5218120e-05  -1.0183794e-04  -9.0139234e-05  -1.4005441e-05   9.3848335e-05   3.8548876e-04  -1.6001974e-05  -9.5164367e-05  -4.9690345e-05   5.4906566e-05  -2.0566952e-06   5.5830519e-06  -6.9994196e-05   7.3708688e-05  -2.8559443e-04   5.2891992e-04  -2.2666531e-05   3.1736380e-04  -3.2375229e-04  -9.1153225e-07   5.6045526e-04   1.0801788e-04  -2.9694289e-04   1.2072999e-04  -1.6255037e-05   9.4881354e-05  -1.8608852e-03  -1.6642884e-04  -1.7881088e-05   4.2523905e-05  -1.9983416e-03   5.0500068e-03  -3.6590418e-03   1.0624470e-04  -1.2779754e-04   1.4773997e-05  -2.6346624e-04
   1.5904947e-05   5.7758443e-06  -1.6457772e-06   1.0163521e-05   2.9542809e-05   1.9562180e-05  -2.4716606e-05  -8.7049244e-05   1.1429992e-04   5.7787343e-05   2.3400518e-05   6.5928889e-06  -8.6318789e-05  -1.0513313e-04   1.6392270e-04   1.4433637e-04  -1.7417000e-05  -4.0402167e-05  -2.3895942e-04  -3.6780562e-05  -8.1735139e-05  -5.7898840e-05   3.7728045e-05  -1.5932555e-06  -2.2065564e-04  -5.3779342e-05   1.3862846e-04  -1.9283831e-04   7.0127175e-04   1.7896133e-05  -2.5247200e-04  -1.9803697e-04  -1.7519813e-04   5.6890689e-04   9.5109135e-06  -1.2642382e-04  -1.0783971e-04  -5.8591959e-05   2.9793032e-04  -7.7520455e-03  -5.9550908e-05   4.8534039e-05   3.1171174e-04   1.0511884e-02   2.1143693e-03  -3.0539818e-06   5.1380653e-06   1.5063604e-04  -1.7584341e-04  -1.1089968e-04
   8.6634318e-06   7.3946239e-06  -2.3921019e-05   7.5325115e-06   7.9043830e-06   5.3359336e-06   7.0299207e-06  -5.4233537e-05   5.5143995e-05   2.1743099e-05   4.4139706e-05  -1.0855575e-05  -1.3329818e-04  -4.0116724e-05  -3.1889984e-04   2.5587680e-04   2.9622115e-05   2.8570307e-06  -2.7568958e-04  -1.3623952e-05  -8.2743907e-05  -3.6260852e-05   1.1263704e-05   4.3679844e-05  -1.7824255e-04  -3.2045285e-05  -6.0244249e-05   5.4741051e-04   5.0500687e-04  -5.8490923e-06   3.4703404e-05  -1.5463910e-04  -8.6525426e-05  -2.7972535e-04  -1.0649876e-06   1.3251862e-04   1.4693495e-04  -7.7379900e-06  -5.4625643e-04   1.1168777e-03  -4.0974337e-04   2.7511214e-05   2.7158021e-04  -1.2470222e-03  -2.9625637e-03   1.2234118e-03   4.1073581e-05   3.2376396e-05  -1.2174118e-04  -3.4126906e-06
  -4.4341750e-06   6.5912377e-06  -2.1929298e-05  -2.1176220e-06   5.7504103e-06  -2.1378624e-05  -1.9195839e-05  -6.3001724e-05  -1.1700061e-04  -6.3858002e-05  -2.1193637e-05  -8.7093315e-05  -1.0458982e-04   1.9455040e-04  -2.1288091e-04  -8.8600973e-05  -2.1012951e-05  -9.0373564e-05   1.6026928e-04  -5.3867648e-06  -9.2306364e-05  -5.5577308e-05   7.4680698e-05   2.2611195e-05   2.4419645e-04  -1.7368062e-05   4.6412399e-04  -7.3962137e-06  -2.6405414e-04  -2.0738669e-05  -3.6563626e-05  -7.1824965e-04   1.4610623e-04  -2.1037170e-04   1.7245408e-04  -2.5878535e-04   2.0525245e-04   1.5696265e-05  -1.1348682e-04  -1.0487094e-03  -1.5032596e-04  -1.7357399e-05   2.6306299e-05  -3.2872378e-03   1.7090142e-03  -9.9900411e-04   1.6033042e-05  -4.2751864e-05  -1.5350996e-04   8.3244318e-05
  -2.9639352e-06   1.9033552e-06  -1.6646047e-05   2.0540556e-06   1.2979376e-05  -2.6454431e-05  -3.5697693e-05   5.9602330e-06   3.3983197e-05  -9.5160547e-05  -2.8808538e-05  -9.2144903e-05  -1.0459045e-04   1.9695181e-04  -1.6817923e-04   2.2988333e-04  -2.3499411e-05  -5.5534067e-05   1.5948094e-04  -9.4423976e-06  -8.0270154e-05  -7.4684103e-05  -2.9594090e-05   3.5296151e-05  -3.0245716e-05   6.6574685e-05   1.9901675e-04   3.4642228e-04  -3.4304432e-04   1.0703376e-05  -4.3067095e-05   1.0967045e-05  -2.0897978e-04  -5.6842581e-04   2.7729700e-05  -2.5974185e-04   3.2125582e-04  -1.2567043e-04   3.5838594e-04  -9.4145266e-03   8.0714635e-05   1.0215635e-05   1.9954877e-04  -4.7511435e-03  -3.2956828e-03   3.3866442e-03   6.4232139e-05   1.1566615e-04  -1.6872455e-05   2.7675309e-05
   2.4540797e-05   1.3078615e-05  -1.9943958e-05  -3.2672908e-06   4.6517732e-07  -1.3263799e-05  -8.1384887e-06  -2.2780026e-04  -4.5930246e-05  -4.7097983e-06   8.1723147e-06   5.7515601e-05   2.1061223e-04  -4.7971948e-06   1.6089794e-04  -4.0044260e-04   6.0889661e-06   4.1199452e-05   2.5030115e-04   1.0838370e-05  -8.6053369e-05  -8.7025684e-05   7.0576534e-05   1.9913437e-05   7.8697565e-05   1.1862692e-04  -2.4743367e-04  -1.7751913e-04   3.1296254e-04  -2.8885202e-05   1.8746554e-05   2.6328220e-05  -2.1043712e-05   5.4343039e-04  -2.6077070e-05  -8.0902690e-05   1.9043809e-04  -3.1864582e-04  -5.0130463e-04   1.7545784e-02  -1.3023736e-04   5.5267436e-05   3.4175845e-04  -7.1954504e-03   1.5440165e-03   2.0365617e-03   1.3286656e-05   2.6680937e-04  -3.8244434e-05  -3.1942731e-05
  -3.4187611e-05   3.2839551e-05   6.4585860e-05   8.0937694e-05  -3.4707999e-05  -1.4809524e-05  -2.3675811e-05  -4.8251804e-05  -1.4567616e-05  -1.0411395e-04   5.3465860e-06   1.0337880e-04  -6.7162859e-05  -1.3696076e-04   7.7481789e-05   6.1830411e-05  -8.3182404e-06   1.0142313e-04  -4.4413853e-05  -2.1221804e-05  -8.5177795e-05  -9.2933515e-05  -1.5296629e-05   1.1848691e-05  -1.4366236e-04   4.9452243e-05   1.9787984e-04  -5.3412205e-06  -4.7752101e-04  -3.0714196e-05   1.2141406e-04  -1.7451523e-04  -5.4085973e-05   2.3671874e-04   4.3203730e-05  -3.6457807e-04   8.7392065e-05  -1.8990955e-04   3.9328964e-04   1.0551956e-02   2.8237121e-04  -2.0747035e-05   3.6573666e-04   1.2023419e-02  -1.4858913e-03  -2.2325243e-03  -3.0369913e-05   9.1580914e-05   2.7366460e-04  -1.4747614e-04
  -3.1457923e-05   4.7275022e-05   8.0466838e-05   7.6920827e-05  -8.2984607e-06   2.9593197e-05  -9.4663901e-06   6.7200992e-05  -1.6967909e-04  -1.8378449e-04  -6.1876541e-05   6.0951425e-05  -1.1572378e-04  -1.2138899e-04   3.4540665e-04  -2.7946671e-04  -3.9941719e-05   2.0985333e-05  -3.8926653e-05   2.1843904e-05  -8.4875312e-05  -8.9890716e-05   2.3932249e-05   2.4834861e-05  -2.3538480e-04  -6.5488243e-06   5.8750549e-05  -3.5052674e-04   1.8521170e-04  -1.7973560e-05   3.2487049e-04  -3.2659722e-04  -1.7621572e-04   6.0708928e-05  -8.2812367e-05  -1.5675178e-04   3.5018445e-05  -8.6741231e-05   2.0212802e-04  -3.5719324e-03  -6.7377632e-06   2.1313148e-05   1.8497194e-04  -3.7287313e-03   1.0011924e-03   2.7410691e-03   1.6952018e-04   6.9794201e-05   1.2110704e-04   1.1540105e-04
  -1.8954692e-05   5.1404979e-05   7.4765398e-05   7.4094773e-05   3.5740190e-06   3.1036943e-05  -6.2361338e-05  -1.4622252e-04  -1.2046372e-05   2.1112648e-05   5.4601667e-05   1.9605490e-04  -1.3726960e-04  -4.4046956e-05  -1.5785189e-04  -1.3049584e-04  -4.2226769e-05  -8.4302432e-05  -4.9622398e-04   1.8538280e-05  -6.5212676e-05  -6.9040194e-05  -1.4979830e-05   5.7486999e-05   3.4916578e-05  -9.3065944e-05  -4.8700662e-04   1.4388785e-04  -3.1573221e-04  -2.4927884e-05   3.7470771e-05   1.8506976e-04   1.7949652e-04  -1.3874915e-04   4.0556106e-06  -7.4446137e-04   2.9181747e-04  -1.1132346e-04  -5.4469937e-04  -1.7572035e-03  -2.4439846e-04   8.6516666e-06  -4.6337624e-05  -5.1021813e-03   2.1553646e-04   1.5962054e-03   1.3914282e-04   1.3421709e-04   1.0483219e-04   1.6350941e-04
  -6.3504223e-05   4.4710374e-05   4.7050853e-05   6.2140331e-05  -2.1458407e-05   1.3866911e-05  -1.9493689e-05   1.5842415e-04  -1.1327289e-05  -4.4936562e-05  -1.2424432e-05   1.1008934e-04  -2.4084530e-04  -1.5107742e-04   1.0259412e-04   1.0941353e-04  -3.2702574e-05   2.0728936e-05   2.7425485e-04  -9.4504012e-06  -7.4114439e-05  -4.0127765e-05  -4.8889833e-06   2.0164631e-05   1.9024509e-04  -1.8006552e-04  -1.4558733e-04   7.7648729e-05   5.8660167e-04  -9.6959775e-06   1.1020624e-04  -1.0958155e-04  -8.0433885e-05   1.3398293e-04  -9.0059984e-05  -4.9366854e-04  -1.5568474e-04  -1.4629260e-04   5.3223857e-04  -2.3370283e-03  -3.4066808e-04   9.5360765e-06   6.4150947e-05  -2.7249611e-04  -1.1077976e-03   7.4835611e-04   8.5428765e-05   8.0652884e-05   3.8115145e-04  -8.6544802e-05
  -7.2719587e-05   4.3479369e-05   4.2172102e-05   4.7402613e-05  -1.0287493e-05   2.4156909e-05  -7.8631194e-05  -6.3595355e-05  -1.0846711e-04  -1.1891237e-04  -2.3940787e-05   3.0452542e-05  -1.0309262e-04  -1.0601091e-04  -2.2373137e-04  -2.5152855e-04  -6.6099725e-05  -2.7842310e-05   3.5057939e-05  -3.4734596e-05  -8.0655853e-05  -5.0228908e-05  -2.4826179e-05   2.9558634e-05   2.2823551e-04  -1.6319942e-04  -2.8892046e-05  -1.3173081e-04  -2.6010794e-05  -6.6561911e-06  -2.1152198e-04  -4.0452123e-05  -8.6404892e-05  -4.1446136e-05   5.8360209e-05  -5.5368582e-04  -3.9025358e-04  -1.0342182e-04   6.8390643e-04   9.1177057e-03  -5.2851170e-05   1.3738162e-05   1.2454978e-04  -5.6332401e-03   1.1372924e-03   3.0272250e-04   1.2075347e-04   9.6694552e-05   5.6427565e-05  -7.5037220e-05
  -4.2495911e-05   3.7667629e-05   5.6422472e-05   4.6454421e-05   3.0766280e-06  -3.6737172e-05   8.0165089e-05  -1.4488897e-04   2.5304698e-06   1.0498660e-05   3.7715743e-06   1.2120120e-04  -1.2423974e-04  -2.2879624e-04   8.7306198e-06  -2.3661750e-04  -3.9069055e-05   2.6330225e-05  -4.4568465e-06  -1.5420708e-05  -7.0605049e-05  -2.1953834e-05   1.3097528e-05   6.9234942e-05  -9.3498107e-05  -1.5566411e-04  -1.9518702e-05  -4.5582565e-04  -4.6263746e-04  -2.1776732e-05   2.8196795e-04  -1.9458307e-04  -1.1727402e-04   2.9214609e-06  -1.2758124e-04   1.0793521e-05   8.8891728e-05  -5.9096878e-05  -2.8566801e-04   2.6749764e-03  -2.7464092e-04   5.8807971e-05   1.5391206e-05  -1.9144088e-03   5.6493521e-04  -1.4671270e-04   7.8112258e-05   1.5395493e-04   2.1245921e-04   6.8113727e-06
  -6.8292655e-05   3.9334169e-05   3.6997128e-05   4.6191442e-05  -1.0419523e-05  -1.8868350e-05   1.3724196e-04   3.5658359e-05   4.4943907e-05  -4.0321109e-05   7.1975533e-06   8.3154737e-05  -1.7227573e-04  -2.1844104e-05   1.2338680e-04  -3.4321969e-05  -6.4450319e-06  -6.9823413e-06  -1.5361188e-04  -1.5060697e-05  -7.8261866e-05  -3.7280068e-05   3.0608022e-05   2.1690988e-05  -1.3348917e-04  -1.2977859e-04  -1.1340750e-04  -8.9173972e-07   9.3292777e-04  -3.3674485e-05  -6.2141669e-05  -2.0667628e-04  -3.0027094e-04  -1.4955353e-04  -1.9089569e-04  -1.0881272e-04  -4.3913635e-04   8.1635271e-06  -1.1330293e-04   3.6583222e-03   1.2130840e-04  -1.7842342e-05  -8.2507511e-05   8.6619664e-04  -5.1063055e-04   3.0638061e-03   1.4133322e-04   3.4536977e-05  -4.5140943e-05  -1.4020229e-04
  -7.0582464e-05   3.8203991e-05   3.4398134e-05   3.2532756e-05  -9.5183768e-06  -4.0048773e-05   3.7425227e-05   3.6637739e-05   1.2070615e-05  -1.3872889e-04  -4.9681974e-05  -8.2321949e-06  -1.5208419e-04  -2.5816658e-04   3.4310120e-05   1.6907111e-04  -6.2247309e-05   9.9118733e-05   1.1337704e-04  -1.0979044e-05  -8.5017949e-05  -5.8886584e-05   1.0793625e-05   2.9019668e-05   9.6646778e-05  -9.5284260e-05  -3.9747561e-04   1.5482676e-04   6.6905568e-04   8.3418236e-06  -3.5081606e-04  -4.1297637e-04  -1.4676858e-04  -6.2106366e-05  -7.8644029e-05   8.3781815e-05  -2.9021618e-04  -2.2071985e-05   1.6376888e-04   4.8891422e-03  -1.9504751e-04  -8.6022283e-06  -1.9557682e-04   1.2313880e-03  -1.8281543e-03  -4.8560600e-04   7.8922807e-05   2.0120436e-04   3.2981181e-06  -8.6243039e-05
  -5.6913868e-05   3.8242426e-05   4.0534887e-05   3.4944915e-05   9.7381117e-06  -3.1499683e-05   1.6990836e-05   1.0091873e-04  -1.3724902e-04  -4.1112387e-05  -3.5007470e-05   6.2159743e-05  -1.1121789e-04  -1.4396640e-04  -2.9265476e-04  -1.2667278e-04  -3.1346321e-05  -5.3975837e-06   1.8900160e-04  -7.5376161e-06  -7.1836272e-05  -4.6473349e-05   3.7726411e-05   7.3094336e-05   4.3560562e-05  -5.0880397e-05   1.5043157e-04   2.6687403e-05  -5.0857483e-04   5.9946246e-06  -2.1881064e-04  -3.2186406e-04  -9.5773255e-05   2.3815382e-04  -3.6319077e-05  -1.6503812e-04  -7.8942801e-04  -8.0330472e-05  -4.9015816e-04  -3.9452029e-04   4.3389573e-05   4.0776875e-05  -1.1926712e-04  -8.0610905e-03   9.0334076e-04   1.6119686e-03   2.2154848e-06   1.3873728e-04  -1.6975937e-04  -2.0261158e-04
  -4.5867408e-05   3.7752048e-05   3.2631571e-05   3.5303743e-05  -8.9503437e-06  -3.6214074e-05   2.6888505e-05   1.6450224e-04   2.0731729e-04  -3.7357328e-05  -3.0115664e-06   5.1622905e-05  -1.7211976e-04  -1.5837175e-04  -5.3029740e-05  -1.0936664e-04  -2.5783513e-05   2.2815524e-05   2.8774416e-04   1.3944145e-05  -7.9946243e-05  -5.7097608e-05   7.9209036e-05   4.4847071e-05  -1.2984588e-04  -5.1851974e-05  -2.8379176e-05  -1.9524698e-04  -4.6154033e-04  -3.1279284e-05  -1.2389204e-04   1.7780700e-04  -2.4437968e-04  -5.3138323e-05  -7.2619878e-05   1.4968019e-04  -3.9558584e-04  -4.7899586e-05   1.9502408e-04  -1.2572250e-02  -2.2131414e-04  -5.1139273e-06   1.9255056e-04  -6.6470765e-03  -1.6533174e-03   5.6651130e-04  -2.3237674e-06  -1.6306678e-05  -7.1068484e-05  -8.7948552e-05
  -6.4769258e-05   2.8711935e-05   6.4314750e-06   8.1287171e-06  -8.2514389e-06  -3.5864225e-05   1.3699148e-04  -1.3457595e-04  -1.5128226e-04  -1.4316826e-04  -5.3703738e-05  -3.5891979e-05  -2.0021872e-04  -9.2214526e-05  -4.6663903e-04   8.1381295e-05  -3.0765197e-05   5.2811130e-05  -2.4333889e-04   1.6681454e-07  -8.6598418e-05  -4.7309855e-05   4.2851971e-06   3.4783807e-05   4.2153795e-05  -7.4053503e-05   1.7205904e-04  -2.7782319e-04   1.3588992e-04   2.7631540e-05  -5.8774214e-05  -1.7353595e-04  -1.7269427e-04   2.5647177e-04   3.7708382e-06   1.4110637e-04   4.8793365e-05  -1.2074290e-05   5.8208010e-04  -4.0428471e-03  -5.0858693e-05  -2.5981344e-06   2.3112397e-04   5.3025791e-03  -3.0796742e-03   5.8944803e-04  -1.4142365e-05   1.8048112e-04   9.4630930e-05   6.1004139e-05
  -5.3750085e-05   2.3191826e-05   7.4839090e-06   3.0299809e-06  -1.7712614e-06  -2.1666243e-05  -8.9067624e-05   3.4529393e-04   8.5239524e-05  -2.0374672e-04  -1.0203962e-04  -1.0672203e-04  -1.3028334e-04  -4.8331724e-05  -3.7486257e-04  -1.7235141e-04  -5.0698673e-05   1.0438201e-04  -1.7022480e-04   5.4960292e-06  -8.2769657e-05  -8.1410457e-05   7.8766294e-05   1.9214485e-05  -1.1413122e-04  -7.1370749e-05  -2.4251372e-04   2.9772602e-04  -1.7773103e-03   3.4382504e-06  -1.5828149e-04  -1.6917904e-05  -1.0036719e-04  -4.6680428e-04  -1.2071453e-04   2.4901071e-04  -1.6115169e-04  -4.8665694e-05  -3.1257328e-04  -2.3025670e-03  -9.0233276e-05   5.0429346e-05   1.6729604e-04   8.2930420e-03   1.4648278e-03   8.0561277e-04   4.2932974e-05   7.1844654e-05   6.5674889e-05  -1.0422287e-04
  -3.2407563e-05   2.1680149e-05   1.6290569e-05   2.3722268e-05   9.2500486e-06  -1.2851025e-05  -3.4986191e-05  -1.9213257e-04  -1.9083156e-04  -5.2192499e-06  -1.7044367e-05   3.8370315e-05  -2.9805467e-05  -1.3183767e-04  -3.6262249e-04   2.2874099e-04  -2.9521911e-05   7.9556878e-05  -5.8667185e-05  -1.7505925e-05  -7.9579091e-05  -4.6313100e-05   6.3369571e-06   1.1333806e-05  -8.6828179e-05  -7.8961690e-05   2.4086512e-04  -1.1993334e-04   3.6695600e-04  -2.8218932e-05   1.8429900e-04  -6.8687565e-05  -1.0692998e-04  -1.3753359e-04  -2.8501572e-05  -3.6857455e-04  -4.9230614e-04  -3.2441643e-05  -2.5148425e-04  -1.1511741e-03   4.1802043e-05   5.8189203e-06   8.7101898e-06   6.9448684e-04  -1.3238119e-03  -4.3723875e-04   1.2209201e-05   2.0400150e-04   2.3508594e-05  -6.3330961e-05
  -5.0526432e-05   1.6890512e-05   4.2849820e-06   1.1035593e-05  -8.6299469e-06  -3.4041048e-05  -1.3915237e-04  -1.9205624e-04   6.0246774e-05  -9.1103648e-05  -2.4252719e-05  -2.5242929e-05  -1.1543376e-05  -1.3687545e-04  -4.1700708e-04  -4.0387080e-04  -2.6196954e-05   4.8915561e-05  -7.0973896e-05  -4.2058259e-06  -8.4654392e-05  -3.5313438e-05   6.8664165e-05   3.5906648e-06   1.5124347e-04  -1.5573784e-04  -4.8525172e-04   1.8948934e-04   3.9334918e-04  -1.2555121e-05  -4.0295650e-05  -1.7012611e-04  -6.1942352e-05   1.4392757e-04   7.7204713e-05  -1.9748176e-04   5.6677265e-04  -2.8221333e-05  -1.7422394e-04  -3.1302464e-03  -2.0649175e-04   1.1284789e-05  -6.4123860e-06  -5.4902951e-03   1.9069703e-03   3.1832263e-03  -2.0753410e-05   7.1060531e-05   6.7414738e-05   1.6906402e-04
  -4.2517844e-05   1.6442382e-05   5.7588986e-06   1.1974496e-06  -2.2291672e-06   3.5084202e-05   2.9982462e-05  -6.7021909e-05  -1.0059934e-04  -1.6456931e-04  -7.1748822e-05  -8.5518193e-05  -2.5064021e-04  -7.3794858e-05  -6.4636028e-05  -4.0504773e-04  -3.6835529e-05   5.2120013e-05   1.2998446e-04  -4.3673441e-05  -8.3629537e-05  -3.7881888e-05   6.8181085e-05  -2.1629965e-05  -1.8344307e-04  -2.0137390e-04  -2.7391401e-05  -1.8491206e-04  -6.6174893e-04  -3.2270345e-05   2.2719344e-04  -1.5066357e-04  -1.7144963e-04  -3.9006565e-05   7.2877214e-05  -3.1230142e-04  -7.0230628e-05   1.1889938e-06   1.5175719e-04  -4.3235696e-03  -2.1368495e-04   4.1632255e-05  -2.1407797e-05  -4.9412902e-04  -1.9196500e-03  -1.7677090e-03   8.8991073e-05   2.5981828e-04   2.3034212e-05  -6.0726328e-05
  -2.0256706e-05   1.7849958e-05   1.8588687e-05   1.3664030e-05   7.8104158e-06   1.9273133e-05   8.0825921e-06   1.0145438e-04  -5.1466264e-05   6.6528123e-06   1.0125803e-05   4.0450384e-05  -2.2692464e-05  -3.2205944e-04   3.2676333e-05  -1.1848548e-04   5.0194840e-06   5.0873481e-05  -1.2533597e-04  -5.4749717e-06  -6.4814783e-05  -4.2181411e-05  -1.8875760e-05   4.4319833e-05   1.0144491e-05  -1.7808983e-04  -9.4932242e-05   1.2708458e-04   5.9795787e-04  -2.2509805e-05  -2.8119277e-04  -1.3430021e-04   4.7168494e-05  -4.5523801e-05  -3.8950609e-05   5.3052395e-04  -7.4851955e-06  -1.1072422e-04   5.9959460e-05   8.1072375e-03  -7.0200185e-05   5.5215805e-05   3.1704170e-05   7.4052643e-03   6.7428563e-04   4.1155773e-04  -7.0483884e-06   5.1384570e-05   4.2328800e-05   2.9558016e-06
  -3.1955566e-05   1.5919710e-05   7.4157260e-06   4.4952776e-06  -4.7360390e-06  -5.7302637e-05   1.4548970e-04   2.0126298e-04  -2.1909151e-05  -5.0536859e-05  -3.1776497e-05  -8.3593104e-06  -6.3367363e-05   3.5890007e-05   4.6801622e-05  -3.6311922e-05  -6.3844186e-06   6.3944884e-05   1.1213034e-04  -5.5454057e-05  -6.7181514e-05  -3.6318317e-05   4.7293775e-05  -5.4265449e-05   1.2880372e-04  -1.8015750e-04   1.5922986e-04   1.3283908e-04   9.9660095e-04  -1.5052869e-05   1.3311794e-04  -3.7609800e-04  -9.8835946e-05  -2.6234653e-04  -1.5304408e-04  -1.3901324e-04   1.3825696e-05  -4.9091170e-05  -2.4892529e-04  -9.7188046e-03   1.3689896e-04   2.2339998e-06  -6.7998262e-05   4.8801475e-03  -3.3569464e-03  -3.7968170e-03   1.8630191e-05   1.4156017e-04   1.1842829e-04   7.5447759e-05
  -3.3977885e-05   1.4909715e-05   5.3299095e-06  -3.8451808e-06  -5.1041593e-06  -7.3039155e-05  -1.1988320e-04   3.4130102e-05  -4.0452382e-05  -1.3839203e-04  -6.5725988e-05  -7.2453346e-05  -1.7386887e-04   1.7988619e-05  -4.7412544e-04  -1.2990840e-04  -2.8490136e-05   5.3912852e-05  -5.7735462e-05  -9.0071335e-06  -6.8561319e-05  -1.6034330e-05  -2.5582365e-05  -6.1663732e-06  -2.2962459e-04  -1.5392543e-04   4.7679561e-05  -1.8304512e-04  -9.5806184e-04  -3.1618656e-05  -1.4330086e-04  -3.9198739e-04   9.2550297e-05  -3.7281890e-04  -5.0794733e-05  -1.4281512e-04   3.6446203e-05  -1.4009669e-05   5.4999266e-04  -7.4211634e-03  -2.4147337e-05   8.1092539e-06   1.4030737e-04  -4.6185763e-05  -1.7994239e-03   3.5201680e-04   9.8320088e-05   6.6978209e-05  -1.2379630e-04  -1.2177879e-04
  -1.2579292e-05   1.5393600e-05   2.3888831e-05   1.4729835e-05   4.7218309e-06  -1.9561894e-05  -8.4719184e-05  -7.6706950e-05   6.4364809e-05   1.7866198e-05   1.7942198e-06   4.3715812e-05  -2.2445802e-04   4.3812634e-05  -6.4606662e-05  -2.4873644e-04  -3.6697638e-05   6.1276973e-05   1.0914769e-04  -1.8487624e-05  -5.0429288e-05  -2.0916043e-05  -1.4529047e-05  -1.0438087e-05  -3.0334351e-05  -1.4268144e-04   7.2077273e-05   1.5865038e-04  -2.6267028e-04   1.8767063e-06  -6.0966096e-05  -2.1899850e-04   2.7263721e-05   2.8096599e-04  -3.5822435e-05  -1.3105624e-04   1.1521533e-04  -6.3447500e-05   5.4516352e-04   6.5230001e-03   3.8685972e-05  -2.3983130e-05   2.2609535e-04  -1.7352274e-03   1.2121172e-04  -3.7379746e-04  -1.9274363e-05   4.4345557e-05   1.0545960e-04   3.2673586e-05
  -2.3910901e-05   1.2477479e-05   8.3271734e-06   9.6174772e-06  -6.9088751e-06  -1.4578412e-05   1.7314867e-05   2.4674033e-05   2.4559746e-05  -3.4586617e-05  -2.2891607e-05   9.0954763e-06  -4.3181266e-05  -1.1598001e-04  -6.2082382e-04   1.1612000e-06  -3.2308304e-05  -6.0353461e-05   2.6762366e-04  -2.3932333e-05  -6.0320497e-05  -3.7673180e-05   2.7061760e-05   4.3187036e-05   1.7334922e-04  -1.4018170e-04  -2.4495623e-04  -2.0620672e-04   5.3611631e-05   7.0629881e-06  -2.3255734e-04  -2.7723821e-05  -7.4795098e-05   4.0609183e-04  -4.5303830e-05  -2.5656779e-04   1.2008737e-04  -1.4452374e-05  -2.1857455e-04  -7.4300328e-03  -3.0124327e-04  -2.8996960e-06  -4.3517866e-05   2.0970616e-03  -1.3673233e-04   8.4620441e-04  -1.8913712e-05   1.9620471e-04   2.7366970e-05   1.8374672e-05
  -2.8566903e-05   9.5497007e-06   5.3995436e-06  -3.3643357e-06  -3.8419748e-06  -7.4158066e-05   9.6851036e-05  -2.7310540e-05  -9.3975570e-05  -1.2023746e-04  -6.4156651e-05  -7.5403819e-05  -2.1323272e-04  -9.4819043e-05   1.6112691e-04  -2.7114450e-04  -3.3958695e-05  -1.4365538e-05  -9.7043812e-05  -1.9447718e-05  -5.9874914e-05  -5.2541549e-05   6.8801455e-05   6.1351973e-05  -2.4914977e-04  -1.5272856e-04   2.4864692e-04  -8.8632303e-05   1.0780587e-03   9.9956369e-06   1.8114978e-04   2.3249577e-04  -7.0257011e-05   5.4037926e-04  -1.7061274e-04   1.1957742e-05  -9.4336741e-05   4.1493571e-05   2.3705007e-04  -5.5226195e-03   4.8321141e-05   2.3292137e-05  -1.0808738e-04  -7.8232185e-04  -4.5222451e-04   3.7924308e-04   2.9227496e-05   1.9321493e-04   7.6782082e-05   6.1138635e-05
  -3.2163423e-06   1.2954966e-05   1.8107219e-05   9.4717079e-06   2.3340408e-06  -7.0414630e-06  -7.6352571e-06  -1.8672159e-04  -2.4308209e-05   4.1701918e-05   9.7378606e-06   5.1533691e-05  -2.6176036e-05   2.1239633e-04  -1.9954143e-04  -2.6435647e-04   6.9666476e-06  -9.5496565e-05  -1.9319232e-04  -2.1930959e-05  -4.3511860e-05  -3.2443284e-05   2.5591215e-05  -2.8230193e-05  -9.0337038e-05  -1.3852876e-04  -2.3889246e-05  -9.2339331e-05  -1.3309815e-03   5.9483282e-06  -9.9743324e-05  -9.3968847e-05  -1.4295842e-04   1.4715146e-04   7.7816134e-05  -5.4936053e-04   7.6603857e-05  -1.9699441e-05  -1.8032613e-04   2.2632675e-03  -3.2842468e-04  -2.3286580e-06   2.2140199e-04   4.1925217e-05   8.6467812e-04  -1.3063035e-03  -4.2294523e-05   1.1908867e-04   8.0762220e-05   2.1114711e-04
  -3.3873377e-05   1.1856417e-05   4.4427091e-07   1.0560145e-06  -9.4316574e-06  -1.5441925e-05  -2.1996519e-04  -3.6342928e-04  -2.4594872e-05  -2.1396178e-05  -2.7040192e-06   1.5853377e-05  -1.5412689e-04   7.1729308e-05   2.9757907e-04  -1.2054134e-04  -2.9309214e-05  -1.3953601e-05  -9.2209375e-05  -2.3899796e-05  -5.0857565e-05  -3.2072072e-05   9.9581441e-05  -1.9657404e-05  -2.0525383e-04  -9.1080830e-05   4.6714598e-05  -2.3453419e-04  -7.8988617e-04  -2.3949553e-05  -5.3351938e-05   7.3339681e-05  -3.3056460e-04   2.7237515e-04  -7.1344584e-05  -1.9671311e-04  -3.3145703e-04  -2.5251629e-05  -8.4946027e-05  -2.6107654e-03  -1.1219479e-04   5.5610701e-05  -1.5113747e-04  -6.6022025e-03   1.0815960e-02   2.5890302e-04  -1.1797330e-05   7.8241021e-05  -7.9886006e-05  -3.1467670e-04
  -4.6384819e-05   6.7275091e-06  -3.7566360e-07  -4.0070308e-06  -2.3388297e-05  -5.5983252e-05  -1.2451482e-04  -1.7152712e-04  -7.7842204e-05  -1.0403106e-04  -7.3245756e-05  -6.6228451e-05  -4.9582002e-05  -1.3887753e-04   4.7306850e-05   9.5617339e-05  -6.0867874e-06  -2.5732297e-05  -1.1095574e-04  -5.4508600e-05  -5.8720023e-05  -1.8099599e-05  -2.0079658e-05  -3.2143656e-05   1.6975054e-04  -1.2372252e-04  -1.1690219e-04   3.4429581e-04  -2.5863037e-04  -9.4850848e-06  -1.0446645e-04  -1.2201709e-04  -1.4729472e-04  -4.0183755e-04   8.7187203e-05  -3.4676355e-04   5.8665901e-05   5.2897234e-05  -1.2340193e-04  -1.5660936e-02  -1.6124023e-04  -4.1691223e-05   2.4902649e-04   8.1671970e-03   2.4731511e-03  -1.3374494e-03   1.3818884e-05   7.3168056e-05   3.4550332e-05  -2.1168205e-05
  -1.7832112e-05   8.3935829e-06   1.4276384e-05  -1.2890612e-06  -9.7146967e-06   1.4233373e-05  -4.7555925e-05  -1.3478272e-04  -9.6130025e-06   3.9205905e-05  -6.2902645e-06   4.3667242e-05  -9.7026241e-06  -2.0860710e-04   2.8918634e-04  -1.0017413e-04  -8.5964321e-06  -1.1041289e-04   1.5721997e-04  -3.5987661e-05  -4.0214476e-05  -2.5910189e-05   2.6397462e-05  -3.8173894e-05   1.2485747e-04  -1.2778406e-04   6.0774455e-06   1.5240579e-04   4.9386239e-05  -4.5749616e-07   1.3956589e-04  -2.5683752e-04   5.5350658e-05  -9.0463465e-05   2.4625060e-05   2.4791621e-04  -6.0720561e-04  -8.3693585e-06  -6.6885626e-04  -1.3593902e-02  -9.3806149e-05   1.0386498e-05  -1.1544849e-04   2.5595218e-04  -5.4335024e-04   2.5251533e-03   1.4148811e-04  -2.8077491e-06   1.2648042e-04   7.3210373e-05
  -5.1067847e-05   1.0660276e-05  -1.3353962e-05  -9.7832726e-06  -2.9922161e-05  -7.1268019e-05  -1.0125478e-04   1.6901235e-04  -8.5843196e-05   9.4264142e-06  -1.3116403e-05   3.1506759e-05  -1.6109800e-05  -1.3520270e-04   1.5574126e-04  -2.8602674e-04   5.1691945e-06   8.1841645e-05  -1.7712612e-04  -3.8250721e-05  -3.9778904e-05  -5.5512673e-06   1.3932397e-05  -4.5350065e-05   1.2382960e-04  -1.5822727e-04   8.8496854e-05   6.8953748e-05  -1.2678256e-04  -3.7186968e-05   2.2721031e-06  -2.2768775e-04  -1.5268190e-04   3.1732218e-04  -1.3471427e-04   1.9110115e-04   1.2332824e-04   2.9866958e-05  -1.1275894e-04  -8.9654941e-03  -3.7243916e-04   1.2813223e-05   3.0375409e-04  -7.4499454e-03  -2.9002214e-03   3.9659459e-05   6.5706721e-05   1.1996353e-04   2.6347488e-04   6.4238338e-05
  -6.2362335e-05   1.0810476e-05  -1.4721392e-05  -2.0094933e-05  -3.2909611e-05  -6.2368577e-05  -1.3758960e-04  -1.6567513e-04  -1.6336005e-04  -6.7533125e-05  -5.7432095e-05  -4.3706674e-05  -3.0268633e-05  -1.4162187e-05   2.4318871e-04  -1.9179353e-04  -2.9547473e-05   4.3388809e-05   5.9911243e-05  -4.3942557e-05  -4.7865044e-05  -5.2835298e-06   3.9026156e-05  -1.1552770e-05  -2.3931000e-04  -1.6500660e-04   7.2802082e-05   1.2658548e-04   6.3486735e-04  -2.3321081e-05  -1.1733126e-04  -1.5901933e-05  -9.3705821e-05   2.6870424e-05   1.5573498e-04  -2.6342177e-04  -2.0414416e-04  -6.1294020e-05   3.9816761e-05   7.1081445e-03   1.3114684e-04   8.1365197e-06   5.6895733e-06   7.7019902e-03  -9.5570961e-04   1.0467939e-03   1.7745993e-05   1.0098125e-04  -9.4869887e-05   2.3789014e-04
  -4.4475953e-05   9.6251943e-06  -6.5788017e-06  -1.0686749e-05  -1.6657046e-05  -6.4853935e-05  -1.3000195e-04  -1.2349339e-04   1.1510634e-05   8.4989711e-07  -6.0557097e-05   2.3445753e-05  -9.1737049e-05  -2.8682838e-05   1.4825688e-04  -1.4638726e-04  -2.3450302e-05   4.4074899e-05  -7.6502023e-05  -1.1810142e-05  -3.5224653e-05  -2.0805421e-05   8.4841566e-05  -1.5435089e-05  -1.5154382e-04  -1.1427914e-04  -3.5720928e-05   1.7292706e-04  -9.3694136e-04  -1.9314336e-06   1.1283163e-05  -1.7983382e-04  -4.0160323e-04   1.2982327e-04  -1.4211840e-04  -3.3266487e-04   1.0519599e-04  -4.9695491e-06  -1.4404775e-04   2.8524080e-03   3.9040772e-04   4.6717992e-06   1.8818564e-04   9.2293852e-04   3.1174377e-03  -1.5726730e-03  -4.5666839e-05   2.0544553e-04   3.0851654e-05  -2.2727267e-04
  -5.2897514e-05   9.3750250e-06  -1.9274667e-05  -9.1063712e-06  -3.3363816e-05  -6.5697430e-05  -7.0232323e-05  -1.9999646e-04  -1.8112456e-04   1.1635048e-05  -2.0066118e-05   1.7414681e-05  -1.4910100e-05   4.7636890e-06   7.0361049e-05  -4.5453289e-05  -3.1878859e-05   8.0348604e-05  -1.9243918e-04  -4.2112293e-05  -4.4921453e-05  -5.4722066e-05   2.1695971e-05  -1.4702262e-05  -1.0567570e-04  -7.2882998e-05   1.8638796e-04   1.8853560e-04   1.4917806e-03   3.2448968e-06  -6.5864733e-05   1.7678199e-04   9.9216501e-05  -2.1506437e-04  -2.0327208e-04  -2.1223350e-04  -3.9720131e-04   4.6745299e-05   5.2604042e-05   3.6365353e-03  -2.7791248e-04  -2.0919477e-05   3.0669026e-04   1.5321488e-02   4.0960549e-03  -1.0892090e-03   1.2575736e-06   2.0106172e-05  -4.3166900e-05   1.5101058e-04
  -6.3802181e-05   8.7151275e-06  -2.3576147e-05  -2.8073380e-05  -4.2905969e-05  -4.2596599e-05  -1.0203420e-04   2.1010426e-05  -1.3438681e-04  -6.9114198e-05  -7.8485362e-05  -3.9617371e-05  -1.3176027e-04  -1.9362822e-04   4.4073349e-05  -2.9771158e-04  -1.8090303e-05   2.8005704e-06  -2.8842916e-05  -5.1709245e-05  -4.7406822e-05  -6.1152787e-05  -4.1849897e-05   1.1026387e-05   9.8012300e-05  -4.2807704e-05  -2.1687789e-05  -2.0498039e-04   2.8374835e-04  -2.4495781e-05   8.4475010e-05  -1.2511022e-04   9.2698647e-06  -1.1223829e-04   3.2619046e-05   6.3669075e-05  -1.3432393e-04   3.1220563e-06   1.7615546e-04   1.5893752e-03  -1.5461149e-04  -3.7724571e-05  -4.7415055e-05   4.0775593e-03  -2.3633325e-03   1.8856602e-04   5.8614696e-06   1.7756691e-04  -1.8606579e-04  -2.1034521e-04
  -4.8277714e-05   6.9457064e-06  -2.5082274e-05  -3.0098174e-05  -3.5372490e-05  -6.1793755e-05  -1.2782148e-04  -2.4184507e-04  -1.5984593e-04  -9.9073353e-05  -1.1220516e-04  -6.1152925e-05  -5.0133487e-05   1.6533646e-05  -1.9039270e-04   2.3314984e-04  -2.6646539e-05   6.5922162e-05   3.4104844e-04  -6.4739092e-05  -3.2875774e-05  -4.0498100e-05   6.4890235e-05   1.0801437e-05   1.9039113e-04  -3.1131749e-05  -1.7657341e-04   8.1541504e-05   2.7431210e-04  -1.2704863e-05   2.1776827e-05   2.5757518e-05   1.3034034e-04   5.7077999e-05  -1.4865868e-04  -4.2091554e-04   2.1935644e-04   4.8310190e-05  -4.2268293e-04   2.9935066e-03  -1.9157941e-04   2.2620095e-05   1.9884271e-04   5.4334770e-03  -3.1519686e-03  -2.9562442e-03   4.1520962e-05   1.1568049e-04  -8.2030594e-05   2.6710646e-05
  -3.4453918e-05   9.4341030e-06  -1.9244257e-05  -1.9229590e-05  -3.4457826e-05  -3.9578830e-05  -1.6649389e-04   7.0014903e-06  -1.0450073e-04   4.2246575e-05  -3.6107052e-05   3.6782960e-05  -2.0093114e-05  -1.0040924e-04   3.1485732e-05  -5.1481038e-05   3.7943348e-05   8.6635540e-05  -1.9605986e-04  -6.1843733e-05  -2.4692381e-05  -4.3865617e-05   7.5226080e-06   2.4963749e-05  -1.0434679e-04  -7.1212111e-05  -2.9378428e-04  -3.1731441e-04   5.8234081e-04  -8.5221400e-06   2.2038433e-04   1.5468623e-04  -5.9801852e-05  -1.1414113e-04   9.8829114e-05   1.9025824e-04  -1.6420962e-04  -1.7267579e-05  -3.8645847e-04  -9.3298201e-03  -2.9346082e-04   8.8852907e-08  -7.4975680e-05   2.2545815e-03  -1.8938996e-03   3.5421614e-05   2.2931022e-06   1.2929463e-04  -2.0268356e-04  -4.2973033e-06
  -6.1584644e-05   8.5624715e-06  -2.7870468e-05  -2.3968705e-05  -3.2823231e-05  -7.0403970e-05  -1.9457520e-04   1.0621289e-04  -2.4137432e-04  -2.3426506e-05  -6.5435153e-05  -1.8029948e-05  -1.9036974e-04   1.3128595e-04  -1.9959752e-04   7.3264200e-05  -1.9203353e-05  -1.6869702e-06  -2.3878991e-04  -6.7422334e-05  -2.4041794e-05  -2.9386225e-05   5.0519167e-05  -4.7974058e-06   5.4104850e-05  -7.0163114e-05   2.5946301e-04  -8.7351153e-05   7.8725141e-05  -1.3607334e-05  -5.9244136e-05   1.2228971e-04  -7.4879217e-06   8.4795327e-05  -1.6633776e-04  -1.5039892e-04  -9.4829826e-05   4.0438375e-05  -1.3057381e-04  -1.0555528e-02  -1.3218114e-04  -4.6196783e-05  -2.7262968e-05   1.4803378e-02  -2.0439441e-03  -1.3466830e-03  -5.0474602e-05   8.4864565e-05  -8.5446292e-05   2.4151548e-06
  -4.7592250e-05   7.1011659e-06  -2.7116550e-05  -3.4326466e-05  -2.8453756e-05  -7.2091211e-06  -1.5567483e-04  -2.1847109e-06  -1.0429005e-04  -9.7389959e-05  -1.1268570e-04  -6.7125977e-05  -2.0576015e-04  -7.4470036e-06  -1.0232036e-04   1.0890798e-04  -4.2420103e-05   1.3547778e-05  -8.5242558e-05  -4.8819646e-05  -3.0642637e-05  -1.6913400e-05  -8.0952326e-05  -2.0948350e-05  -1.2016918e-04  -9.4025272e-05  -1.0893149e-05   2.6884174e-04  -4.2004156e-04  -8.8605475e-06  -2.9513219e-04  -8.8589011e-05   1.6603309e-04   2.7297018e-04  -7.0249275e-06   1.0955703e-05  -5.2362459e-04   5.7393194e-05  -5.5219291e-04   3.5609335e-03  -4.3351683e-05   3.7458616e-05   1.2642391e-04   3.5306339e-03   2.2706974e-03   2.5192283e-03   4.3171534e-05   1.4282200e-04  -1.1884769e-04   4.6617057e-05
  -2.3021254e-05   1.0093856e-05  -1.4592456e-05  -1.6824120e-05  -2.5986477e-05  -5.0174873e-05   1.4795417e-04  -4.0123837e-06  -7.6013326e-05   7.7041623e-05  -1.7938766e-05   7.0218601e-05  -1.4090646e-04  -3.5626705e-05   1.0549821e-05  -1.8157586e-04  -3.0950923e-05   1.2130509e-04  -9.3653391e-05  -6.6770786e-05  -1.8028837e-06  -1.7848532e-05   8.4032137e-05  -4.4789731e-06  -3.9288909e-05  -7.5405056e-05   1.2713901e-04   1.1595004e-04  -2.4651762e-04   1.8381827e-05  -1.5595723e-04   1.2483003e-04   6.0313756e-05   4.8601895e-04   2.2334210e-04   2.9718006e-04  -3.5742627e-04  -1.0996817e-05  -3.8577238e-04  -1.3831086e-03  -1.2412548e-04  -1.6534577e-05  -1.1508266e-04  -3.3430319e-05   1.8511501e-03  -4.2819278e-04   3.3585715e-05   1.9058355e-04   1.2205109e-04   1.3977129e-04
  -5.3444444e-05   1.0456631e-05  -2.8397304e-05  -2.3067711e-05  -4.1429354e-05  -1.0090798e-04  -5.6195193e-05  -4.6663939e-05  -1.6511245e-04   6.2088325e-06  -4.8234553e-05   2.0708649e-05   1.1817050e-04  -4.7981895e-05   1.0178918e-04  -2.9910789e-04   5.8222022e-06  -1.1451278e-04  -1.7773027e-04  -6.6438224e-05  -7.7362074e-06  -2.3592527e-05  -3.9814651e-05   2.6720891e-05  -1.8570760e-04  -1.0593539e-04  -2.0873911e-05   1.9465125e-04   2.8579120e-04  -2.4519793e-05  -3.2425180e-04  -2.3500853e-04  -9.2736977e-05  -5.1743537e-04   1.1505578e-04  -2.6855504e-04   3.0675383e-06  -2.9608093e-05   3.2778061e-04   6.9020391e-03  -1.4174555e-04  -7.1819486e-05   1.1206760e-04   4.3064328e-03   5.3733815e-03  -4.3246374e-03  -4.5244429e-05   2.0467830e-04  -1.2589992e-06  -3.2921205e-05
  -5.3139738e-05   1.2783117e-05  -2.8663188e-05  -3.3538199e-05  -3.4235214e-05  -9.4572977e-05  -9.3576964e-05  -9.7652461e-05  -7.3844967e-05  -9.3314862e-05  -7.8931174e-05  -7.0826689e-05   3.0971907e-05  -2.9214879e-04   3.3524144e-04   6.3852145e-05   1.4006303e-06   2.5467061e-06  -1.6869111e-04  -5.8908685e-05  -1.1019028e-05  -1.4673953e-05  -6.9127134e-05  -2.9188077e-05   1.0122834e-04  -9.4022944e-05  -6.7276647e-05  -8.1360122e-06  -1.5403393e-04  -2.0984584e-05  -1.7971365e-04   2.4764633e-04  -8.7746230e-06  -4.1600535e-04  -1.3990241e-05  -3.5017930e-04   3.4255057e-04  -4.4512662e-06  -4.4971419e-04   3.0815613e-03  -4.8320487e-04  -3.4279110e-05  -8.0692567e-05   4.3337792e-03   6.2540001e-03   2.0206866e-03  -1.8639502e-04   6.2990844e-06  -1.2479145e-04   9.5100149e-05
  -2.6194881e-05   8.5793590e-06  -6.5612985e-06  -2.0923409e-05  -2.3974546e-05   7.6504712e-06   8.4586700e-06  -2.5647515e-04  -1.6030920e-04   5.0622719e-05  -4.1945357e-05   4.3677956e-05  -1.9580408e-04   1.4514257e-05  -2.6798516e-05  -4.2424223e-04   5.0125250e-06  -3.1186966e-05  -1.0065117e-04  -6.8110639e-05   8.5507481e-06  -3.9742022e-06   2.4947445e-05  -1.1894380e-05   2.5896574e-05  -9.7852833e-05   7.0659233e-05   2.0513318e-04  -1.1159260e-05  -4.8512680e-05   1.7850700e-05   1.9304747e-04  -1.3563033e-05  -2.2509960e-04   1.7766559e-05  -6.4402069e-05  -1.1954035e-04  -3.3238994e-05  -3.5358919e-06   1.4631038e-03  -5.5537817e-05  -6.2922622e-06   1.9754388e-04   8.8557956e-04   1.0419034e-03  -2.5686068e-03   5.4074993e-05  -6.5548236e-05  -1.7357695e-04   8.3832900e-05
  -5.1301668e-05   1.3025595e-05  -2.8401733e-05  -3.9209473e-05  -3.4092704e-05  -4.8317739e-05  -1.7771368e-04  -3.0384352e-04  -1.0357477e-04   1.1124389e-05  -5.9869082e-05   1.7537541e-05  -1.6576659e-04  -2.4909699e-05  -9.5978350e-05   2.5647171e-04   3.7249523e-05  -3.0798386e-05  -1.2128522e-04  -6.2793450e-05   5.0068002e-06  -4.4461121e-06  -8.3351501e-05   2.6641559e-05   2.2383995e-04  -9.2372058e-05  -7.8279281e-04   2.2463934e-04  -8.3778921e-04  -3.3932101e-05   9.5823125e-05  -2.8341730e-05  -1.2002737e-04   1.5432805e-04   1.6220918e-05  -4.7772512e-05  -1.7087169e-04  -6.5035638e-05   1.1112692e-04  -1.1348028e-03  -3.4484496e-05  -7.3339645e-05   1.1673027e-04  -4.0754317e-03  -6.6422398e-04  -3.5312944e-05  -5.2847878e-05   8.1893311e-05  -1.1149792e-04  -1.0661280e-04
  -6.1461316e-05   1.0466903e-05  -3.1970536e-05  -4.0583564e-05  -3.7472819e-05  -2.2030585e-05  -1.8200728e-04   1.5668588e-04  -9.1090267e-05  -6.6691071e-05  -1.0472666e-04  -6.0309332e-05  -2.9930632e-05  -1.8176679e-04   1.8351374e-04  -4.1340519e-04  -1.4381701e-05   6.0273283e-05  -5.7609903e-04  -4.3942786e-05   2.4669123e-06  -5.7779171e-06   4.9621030e-06  -2.8603874e-05  -5.2619969e-05  -1.1769414e-04  -4.1549854e-05   2.9716026e-05   3.6813697e-04  -5.4717162e-05  -7.2086434e-05  -6.0953807e-05   5.8812169e-05  -2.9404991e-04  -1.2211627e-04  -4.6135538e-04   2.9251573e-04  -2.0847148e-05   3.5767045e-04  -4.8682553e-04   3.6597598e-05  -4.4466378e-05  -1.1790107e-04   2.1319909e-03  -3.0571346e-03  -1.8912525e-03  -9.5538751e-05   6.2673615e-05   1.0887015e-04  -1.9560738e-04
  -4.6831035e-05   1.1316703e-05  -1.9903702e-05  -4.3887678e-05  -2.3225073e-05  -1.1150380e-04  -9.4282994e-05   9.5589938e-05  -1.5978976e-04  -7.2684843e-06  -7.9495134e-05  -1.1081001e-05  -1.9183502e-04   7.1519935e-05  -2.9555888e-05  -3.1845109e-04  -1.9756990e-06  -8.6352229e-05  -1.6674389e-04  -4.3750875e-05   1.7281976e-05  -1.8830051e-05   3.0449959e-05   8.2308325e-06  -6.5520740e-05  -6.1343781e-05  -2.5124839e-04  -1.0505765e-04   5.0824182e-04  -1.8700892e-05   9.0009271e-05  -2.9273942e-04   6.3491411e-06   1.6756343e-04   2.9735105e-05   4.7286088e-05  -1.7638264e-05   8.3956174e-06   9.0880400e-05   2.3788302e-03  -8.1179693e-05  -7.1695649e-05  -1.4781916e-04   6.0688131e-03   4.5967663e-05  -2.5967532e-03  -3.5811812e-05   1.7793657e-04  -1.4888003e-06  -1.9590581e-04
  -3.4097127e-05   1.0272845e-05  -1.7555440e-05  -2.9288336e-05  -3.6170502e-05  -4.3451986e-05  -2.3311548e-04  -1.9827503e-04  -1.1498370e-04   2.3098732e-05  -3.2642034e-05   1.2005054e-05  -1.0365371e-04  -2.1765467e-04   4.9927821e-05  -8.7509070e-05  -8.5051479e-06   3.3866974e-05  -8.4306339e-05  -6.1335988e-05   1.5933851e-05  -1.6119109e-05  -3.1854204e-05   1.7456950e-05  -2.8228693e-05  -4.1092295e-05  -5.6345598e-04  -3.2831714e-04  -2.5694052e-04  -4.1604028e-05   9.1989459e-05  -3.3642523e-04   2.3565341e-05   2.4010942e-04  -1.4733923e-04   2.0356876e-04  -8.3845109e-04  -2.0894629e-05   2.5037129e-04  -1.6174854e-03  -1.9453376e-04  -5.3922566e-05  -1.7139145e-04  -1.2878294e-03  -1.3521635e-04  -1.1181800e-03  -6.0925246e-05   1.9528474e-04   1.8327883e-05  -4.7647958e-05
  -5.0050588e-05   7.5279113e-06  -2.1760276e-05  -3.9634120e-05  -3.6478505e-05  -8.4378909e-05  -1.6220241e-04   1.5267929e-04  -9.0717796e-05  -4.7861755e-05  -9.6650940e-05  -5.1337847e-05  -1.5463067e-04   2.1507862e-04  -2.4818766e-04   2.6423388e-04  -1.0547634e-05  -6.5341163e-05  -3.4156194e-04  -5.7813424e-05   8.4272706e-06  -9.9843573e-06  -3.1076663e-05   3.4655011e-05  -2.5808683e-04  -7.3868490e-05  -1.9057660e-04  -9.4500047e-06  -1.1758135e-03   2.1068141e-05   1.3359345e-05  -3.7863723e-04   1.1100179e-05  -1.1010224e-04  -7.0320428e-05  -1.9738855e-04  -5.1082089e-04  -3.6491438e-05  -1.6622571e-04  -2.7021959e-03  -1.5651889e-05  -1.1327682e-04  -1.2017303e-04   8.5878316e-03  -7.5411290e-06  -2.7914257e-06  -6.8391266e-05   1.1264732e-04   7.4014417e-05  -2.7221995e-05
  -4.4069780e-05   4.3423670e-06  -1.4097417e-05  -3.8284135e-05  -2.4548486e-05  -4.5567567e-06   4.3707308e-07  -2.4267088e-04  -2.3327819e-04  -5.1208564e-05  -1.1320142e-04  -5.1484702e-05  -2.3006712e-04  -5.7093068e-05   1.2480406e-04   1.5363420e-04   1.1799124e-05  -2.9189107e-06   4.5833654e-05  -7.7449171e-05   2.7129166e-05  -5.4278058e-07  -8.3647326e-05   1.9615945e-06  -1.3435792e-04  -7.5464828e-05  -6.0314068e-04  -2.6422809e-04  -7.6253706e-04  -2.2518532e-05  -2.1043050e-05   2.9733661e-04   1.3882075e-04   2.6814110e-04  -2.1923035e-05   2.4509794e-04   2.1985361e-04   1.7125357e-06  -3.6309322e-04  -2.5530418e-03  -8.7535300e-05  -2.3814848e-05  -6.3923690e-05  -6.4371615e-03   2.6424639e-03   3.0929314e-03  -5.0474569e-05   3.7704117e-04   8.8093650e-05   2.7708324e-05
  -2.4619025e-05   7.2510993e-06  -1.3208306e-05  -3.0690477e-05  -2.1246182e-05  -5.5773333e-05   2.1228616e-05  -5.0835588e-05  -1.9137046e-04   5.0127306e-05  -3.9298382e-05   2.5211602e-05  -8.6694090e-05  -8.9962326e-05  -4.4996999e-05  -8.0742953e-05  -2.9701461e-05  -9.2027505e-05  -1.7788656e-04  -5.1246963e-05   2.9559975e-05  -1.6981798e-05  -8.8090572e-05   2.4932850e-05  -4.1499856e-04  -6.0357856e-05   1.5934368e-04   2.3017262e-04   7.7943841e-04  -2.1064516e-05   1.1591314e-04  -9.6383228e-05   8.2751365e-05  -5.6775254e-05  -1.1775895e-04   1.0105086e-04  -6.5292645e-04  -1.6595792e-05   6.3491031e-04   1.0440763e-02  -3.8543662e-05  -7.3644675e-05  -6.7406188e-05   9.1891792e-03   1.8504068e-04   1.0425607e-03  -1.5836955e-05   2.1206719e-04   8.5870779e-05  -7.7680605e-05
  -4.6137877e-05   5.4840857e-06  -1.8852572e-05  -3.9416551e-05  -3.1883414e-05  -7.3937146e-05  -9.2023089e-05  -9.1891096e-05  -6.6775749e-05  -1.4380330e-05  -9.4303454e-05  -3.3828237e-05  -2.1974610e-04  -5.8319656e-05  -3.1591066e-05  -2.2166899e-04  -1.7629418e-05  -8.3597530e-05  -5.7397025e-05  -5.7372607e-05   2.0647429e-05   4.1899544e-05  -3.2053227e-05  -2.6511678e-05   2.6891840e-04  -1.4993105e-04   4.3645865e-05  -1.4809163e-04  -6.1939070e-05  -2.9121597e-05  -2.1922095e-04  -6.2346717e-06  -1.2653266e-04  -1.0263733e-04  -6.7844288e-05  -2.0010304e-04  -5.5479351e-04   9.6856411e-06   1.2954886e-04   8.2405219e-03  -3.5583635e-04  -5.3919332e-05   1.2884746e-04  -1.4179344e-03   1.9260552e-03   1.9348130e-03  -1.6436177e-05   8.4464999e-05   2.6572429e-04   1.1685880e-04
  -3.9331557e-05  -5.1527576e-07  -1.0758232e-05  -3.8536371e-05  -2.6628461e-05  -1.2663932e-04  -1.8960824e-04   1.0907727e-05  -5.9328606e-05  -1.2898441e-05  -7.7149016e-05  -4.1588093e-05  -1.0664252e-04  -8.7654815e-05   3.4858858e-05   1.1677873e-04  -2.5611023e-05  -3.4840581e-05  -3.8626036e-04  -6.8973211e-05   3.3868371e-05   9.7703278e-06   3.0050711e-07  -1.3423944e-05  -8.1079939e-05  -1.5478763e-04  -2.2729639e-04  -2.5801305e-04   1.3759283e-04   5.5567712e-06   2.5642992e-04  -2.1160080e-04  -1.5378962e-04  -4.9032684e-04   6.7040477e-05  -5.2657770e-04  -2.5317937e-04  -7.1914110e-05  -3.2936729e-04   6.8384120e-03   1.7651978e-04   2.9899662e-05  -8.8437730e-05   5.4767245e-04   4.0423352e-04  -1.6433730e-03  -7.1996765e-05   4.4942099e-05   1.1410335e-04   3.2264114e-05
  -1.2705310e-05   1.1084156e-05  -6.6773214e-06  -3.4490724e-05  -2.4629198e-05  -4.1690866e-05   2.8329629e-05  -1.3804583e-05  -3.2915974e-05   7.9414960e-05  -1.5393880e-05   5.7464484e-05   7.2788447e-05  -1.8721030e-04  -5.0545783e-05  -3.3799355e-05  -3.4032175e-06  -3.9441755e-05  -2.3624983e-05  -5.5100863e-05   3.2009331e-05   6.1455103e-05  -7.1932598e-05  -8.0282007e-06   1.3188386e-04  -9.4936113e-05   3.0639750e-04   2.0168684e-04  -1.5006671e-04   1.3388194e-06  -1.5116941e-04  -1.4498342e-04   2.0636460e-04  -1.4299277e-04  -2.6594698e-05  -4.3484912e-04   3.3663204e-05  -2.5945212e-05  -2.6417495e-04   2.6821074e-04  -7.9543475e-05  -3.0107516e-05  -1.3120291e-04  -2.0243919e-03  -1.1011920e-03  -9.5926865e-04  -1.4559473e-04   6.7302746e-05   6.0513587e-05   1.7297915e-04
  -3.6318106e-05   4.0735436e-06  -1.2095668e-05  -4.9626684e-05  -3.6040303e-05  -8.6635846e-05  -1.1254026e-04  -1.8848754e-04  -1.4201269e-04   1.7781418e-05  -6.6122382e-05  -1.8447567e-05  -1.2335560e-04   9.5246432e-05  -4.7596992e-04   7.9294823e-06  -1.7539183e-05   3.2323660e-05  -3.8799254e-04  -8.2020859e-05   2.9671792e-05   5.6711058e-05  -7.6392113e-05  -5.5963144e-05   6.0676743e-05  -1.5317166e-04   7.7902354e-05   1.4273444e-04   2.0637910e-05  -2.8672346e-05  -9.9767531e-05   1.5952704e-04  -3.6420774e-05   5.7572517e-05   1.7322233e-07  -2.9895801e-04   4.4556364e-04   1.3903431e-06   4.7865711e-04  -2.7604096e-04  -1.3388960e-04  -2.2361466e-05   3.4142190e-04   1.5219156e-02  -8.6947391e-04   1.2582244e-03  -1.4665413e-04   3.7619851e-05   2.2654377e-04   3.0315574e-05
  -2.9595274e-05   4.5843790e-06  -5.3502895e-06  -4.6915695e-05  -3.2873573e-05  -1.1033937e-04  -1.3837917e-04  -2.3693153e-04  -2.3277311e-04  -7.5861011e-05  -1.1790241e-04  -9.2444156e-05  -7.8391327e-05  -1.8591101e-04  -4.2043554e-04  -4.6130767e-06  -2.4513722e-05  -6.1315375e-05  -6.4068379e-05  -7.3244199e-05   3.3561155e-05   5.0974610e-05  -2.7459326e-05   4.8053521e-06  -3.8688962e-05  -1.2810196e-04  -3.4624743e-04   1.5766545e-05  -2.8009622e-04  -1.1819174e-05   5.6889759e-05  -1.6877112e-04  -3.0761414e-05   4.2385993e-05   9.0076945e-05  -3.4318648e-05   6.7396773e-05   7.6053416e-06   1.5784596e-04  -4.1584689e-03  -3.4915126e-04  -3.0466961e-05   7.2879469e-05  -3.7953001e-03  -4.3553923e-04  -5.3004333e-04  -3.6277950e-05  -1.3066718e-06  -4.5041394e-05   1.2382287e-04
   2.0343962e-06   1.8943536e-05   7.9438723e-06  -3.1438562e-05  -1.3671925e-05  -7.8401681e-05  -6.4986758e-05  -1.4958752e-04  -1.5097256e-04   9.0609021e-05  -3.0035490e-05   8.3998842e-05  -9.4284369e-05   9.0350313e-06  -5.0475224e-05   5.6479483e-05  -4.2192205e-06   3.0199484e-05   2.2398539e-05  -8.1483187e-05   4.1333122e-05   6.3651547e-05  -7.9369718e-05  -5.7474608e-06  -1.8637079e-04   1.4630887e-05   1.4581125e-04  -1.8341799e-04   6.3676410e-04  -2.0099487e-05  -1.5602748e-04   4.1394611e-05  -4.3016757e-05  -1.2031612e-05  -1.4114472e-04   1.2550699e-04  -5.1409978e-04  -3.4565430e-05   1.9194921e-04  -9.3377391e-03   2.0624163e-04  -3.0274858e-05   4.3410437e-05   7.3941197e-04   7.4869343e-03   1.6719803e-03  -1.0054938e-04  -4.7693014e-05  -6.1840685e-05   1.5164886e-05
  -1.8124945e-05   2.4811692e-05  -1.8733363e-06  -4.4338874e-05  -3.0177325e-05  -6.2014871e-05   8.5404317e-06   2.5078104e-04  -1.6746961e-04   2.7610946e-05  -8.0890270e-05   2.2045991e-05   5.8723344e-05  -1.5844437e-04   2.4074747e-04   2.2328603e-04  -1.1579195e-05   1.6480867e-06  -5.6612273e-05  -9.9538629e-05   3.7180551e-05   5.9789640e-05   1.2966662e-05  -3.7340091e-05  -4.8223097e-05  -8.1300757e-05   1.2889353e-04   2.0286630e-04  -7.8169192e-04  -6.1153463e-05  -9.1376503e-05   3.8191149e-04  -6.7091263e-05   3.0906146e-04   2.0397810e-04  -2.6905022e-04  -2.8034480e-04   6.1894953e-06  -5.2300829e-06   3.1728873e-03  -3.2928569e-04   1.4121294e-05  -4.1078238e-06   6.5974850e-04   5.9023201e-03   5.4876367e-04  -6.9414935e-05   3.2894590e-05  -9.9049912e-06  -1.2812577e-04
  -2.3906878e-05   1.5267371e-05  -4.5322631e-06  -4.3972890e-05  -3.0308174e-05  -5.5399723e-05  -1.2666736e-04   5.6993496e-05  -2.4421740e-04  -4.1393436e-05  -1.1648423e-04  -4.4258206e-05  -4.0166418e-05  -2.8062572e-05  -4.5227259e-04  -1.0517687e-04  -7.4668378e-06  -3.3264998e-05  -7.8782447e-05  -4.6258650e-05   3.2981057e-05   3.8219801e-05  -3.6708429e-05  -3.9974235e-05   1.5893600e-04  -1.2768572e-04   5.6084667e-05   1.3366625e-04  -1.3125454e-03  -2.9793626e-05   1.6186605e-04  -3.5076981e-04  -8.3165010e-05   7.1728384e-05  -4.6349818e-05  -1.7299963e-05  -3.3788857e-04  -3.7515329e-05   3.9366336e-04   9.4493767e-03  -1.1049410e-04   4.7732636e-05   4.5930799e-05  -4.9301358e-03   4.6029326e-04   2.8738293e-03  -2.4977233e-05  -5.1011928e-05   6.2795385e-05  -2.3682180e-04
  -1.4563894e-05   1.6384973e-05   8.2345531e-07  -4.6251331e-05  -1.6145670e-05  -6.3209853e-05  -1.2015680e-04   1.0610693e-04  -8.4420790e-05   1.3232889e-04  -4.5939221e-05   7.6608128e-05  -6.7375986e-05   1.9900266e-05  -2.5801008e-04   2.3164718e-04  -3.3431884e-06   9.7406928e-06  -1.4591595e-04  -6.0457241e-05   4.7388596e-05   5.0472801e-05   6.8955355e-06  -5.7539557e-05   3.3415528e-04  -2.1338626e-04   6.7193410e-05   1.9784769e-04   6.0713198e-04  -4.2108320e-05  -3.7924337e-04  -3.1124137e-04  -1.4600603e-04   3.7188418e-04  -6.3866959e-05   5.5892230e-04   4.3779870e-05  -6.8354319e-05  -1.7162584e-04  -4.3085273e-03  -7.1929899e-05  -3.4740500e-05   2.5001838e-04   2.1912381e-03  -3.8941591e-03  -1.5611363e-04  -1.4590075e-06  -1.7720839e-04  -1.6175445e-04  -1.2865553e-04
  -4.5792611e-05   1.2587080e-05  -1.4582475e-05  -4.1527543e-05  -3.7540092e-05  -1.0816678e-04  -1.8921754e-04  -1.0058549e-04  -2.5541257e-04   6.9140093e-05  -6.4773638e-05   1.9576279e-05  -5.1216717e-05  -8.2431034e-05   5.0069972e-05   3.0663719e-05  -6.0241155e-06   4.5336645e-05  -2.9750261e-04  -8.5655731e-05   3.9972190e-05   7.4058051e-05  -7.3854208e-05  -7.1547882e-05   1.9470291e-04  -2.1565522e-04  -2.9135979e-04   1.7796330e-04   2.1819095e-04  -5.4800817e-05  -5.3794418e-05  -8.0969890e-05   1.2201662e-04   1.8306683e-04  -2.7060349e-05  -4.4816721e-04  -9.4062540e-05  -2.7190765e-05  -6.0813763e-04  -1.0369234e-03   2.1277234e-04  -5.9016074e-06  -1.2460517e-04   6.1536970e-04  -2.0813278e-03   8.1973872e-04  -5.1771516e-05  -9.0868612e-05   1.4251283e-04   1.1949127e-04
  -3.5478799e-05   9.9980425e-06  -1.3469259e-05  -5.6460955e-05  -2.2816239e-05  -8.3241277e-05  -4.6281195e-05   1.1767133e-04  -9.7741446e-05  -7.6564802e-06  -1.1029065e-04  -4.8227248e-05   9.3324743e-05  -1.1971869e-04  -2.4789703e-04  -1.8103550e-04  -1.3785078e-05   1.0346113e-04  -1.5924778e-04  -8.2347797e-05   4.0409719e-05   9.6138472e-05  -5.4800694e-06  -1.6176591e-06  -7.7957984e-06  -1.8306030e-04  -1.9938822e-04   3.6608355e-05  -8.0359547e-04  -1.5919897e-05  -8.4396313e-05  -1.1928380e-04   1.4178737e-04   1.3568936e-04  -5.2126830e-05  -6.2336141e-05   9.8152886e-05   3.1450429e-05  -9.2697765e-06   1.1979720e-03  -1.2242743e-04   5.3684289e-05  -7.2040428e-05   7.4544516e-03  -3.2751902e-03   2.9641339e-03  -3.5629186e-05  -2.5464873e-05  -3.8802467e-05  -1.0920386e-04
  -2.2866861e-05   8.9522546e-06  -8.7409035e-06  -3.4607809e-05  -1.6374250e-05  -9.9063574e-05   3.6762805e-05  -3.6963710e-04  -8.9352354e-05   1.5628290e-04  -2.5209141e-05   8.3159277e-05  -2.0384151e-04   1.5476492e-04   2.1192202e-04  -1.2922748e-04  -3.2420655e-06   2.1800910e-05  -6.3716223e-05  -6.2343977e-05   5.0093633e-05   1.1658949e-04   3.6863876e-05  -2.7374920e-06  -1.0225267e-05  -2.2142391e-04   6.9235473e-05  -2.7668307e-04   3.4683984e-04  -1.5209368e-05  -4.3776490e-05  -6.8013975e-04  -8.3841456e-05   5.8995758e-04  -1.2052164e-04  -6.2754971e-04   1.4569804e-04  -3.0958065e-05  -2.9389124e-04  -3.1552254e-03   2.2346080e-04  -4.0653111e-05  -7.1443639e-05   5.7307719e-03  -1.6810206e-03  -7.4623461e-04  -6.9451067e-05  -2.8485360e-05   6.1678729e-05   5.9397531e-05
  -5.2897925e-05   7.9778238e-06  -2.4003508e-05  -4.8932932e-05  -2.6854419e-05  -9.2154762e-05  -1.8242022e-04  -2.5582712e-04  -1.1483195e-04   6.9995636e-05  -4.5943940e-05   1.1374521e-05   3.2460212e-05  -7.0546499e-05  -2.4798504e-05   1.3394617e-04   2.2988123e-05  -1.0163239e-04  -3.4768740e-04  -4.2609245e-05   4.3977263e-05   8.6472428e-05  -1.0023313e-04  -2.2212958e-05   5.4452663e-05  -1.8398634e-04  -1.6047215e-04  -2.7256610e-04  -3.3876422e-04  -3.7422167e-05  -6.2783722e-05  -4.2114317e-04   7.9302379e-05   3.4070131e-04   6.8437206e-05   6.6544206e-05  -4.8177922e-04  -2.7867136e-05   1.7090680e-04  -6.1598159e-03  -4.6832502e-05   1.5061765e-05   1.8021125e-04  -6.4355705e-04  -1.5982743e-03  -1.1144762e-03   2.5631611e-05   6.1258717e-05  -2.9513772e-04   4.8722530e-05
  -5.0672024e-05   4.6440960e-06  -2.3619785e-05  -6.3833613e-05  -3.3513516e-05  -2.8460043e-05  -2.2185144e-04   1.7309809e-04  -2.5544711e-04  -2.0220004e-05  -9.7328673e-05  -5.1343224e-05  -1.4029068e-04  -5.1693507e-05  -1.3204916e-04  -1.2597516e-04   2.9254456e-06  -1.0818154e-04  -3.9623538e-04  -3.5697511e-05   3.5291188e-05   7.0945622e-05  -5.4539443e-05  -3.1811989e-05   2.1613484e-04  -1.4342066e-04   4.4335800e-04  -2.4033661e-04  -6.1832828e-04  -4.0771702e-05  -2.5515299e-04   4.0336262e-04   1.4978911e-04   8.6920751e-05  -1.2495057e-04  -1.0313514e-04  -4.0961662e-04   4.5088811e-05  -9.0586916e-05   6.7886580e-03   8.7857188e-05   1.8023562e-05   1.3658157e-04  -9.3399445e-03   1.1930722e-03  -3.8442962e-04   5.3523087e-05   1.0946623e-04  -1.2343338e-04  -4.3563112e-05
  -2.0159358e-05   4.2909910e-06  -1.1723700e-05  -3.4563433e-05  -1.4528007e-05  -4.0206483e-05  -7.6739583e-05  -1.6597238e-04  -1.3973108e-04   1.3513566e-04  -2.7988035e-05   7.5135271e-05  -3.9609844e-05  -2.0463298e-04  -1.8165339e-04  -2.2859890e-04   2.4041801e-05  -8.4394160e-05  -1.6563837e-04  -4.2835549e-05   5.1313782e-05   5.7937825e-05  -3.1962845e-05   2.0334570e-05  -1.4696417e-04  -1.1826925e-04  -1.9942930e-04  -1.8113955e-04   3.5065218e-04  -9.8695709e-06   4.3534337e-06   3.6755253e-05  -2.1917114e-04   4.3350656e-04  -2.3862845e-04  -1.7021895e-05   1.5778709e-04  -6.6380482e-05  -1.3324822e-04   3.7060210e-03  -2.1751740e-04   2.4056102e-05   1.2443669e-04  -4.1647893e-03   9.7511942e-04   3.0198996e-04  -9.4305651e-06  -1.7383363e-04  -1.3940410e-04  -6.8331930e-05
  -4.7721987e-05   2.8385166e-06  -3.4986046e-05  -4.7277819e-05  -3.2088348e-05  -7.6089294e-05  -4.4638702e-05  -5.9423590e-05  -1.5159452e-04   7.6688382e-05  -6.5715234e-05   2.8861225e-05  -1.7572472e-04  -3.5078239e-05  -7.2092720e-05  -4.8274273e-04   4.1820699e-06  -3.9333969e-05  -1.1235430e-04  -3.5023899e-05   5.0980965e-05   6.3197171e-05   6.0378650e-05   3.9640938e-05   3.2852117e-06  -1.1144423e-04  -1.1172081e-06   2.1773114e-04  -7.7678647e-04  -1.1460337e-05   1.0120506e-04  -1.6010333e-04   1.5833727e-04  -2.4291909e-05   5.6381728e-06   2.8140401e-04   3.1272481e-05   2.3881896e-05  -1.2746111e-04   1.2689872e-02   4.5234337e-05  -2.6489706e-05   1.9151262e-04  -3.0885504e-03  -1.8747030e-04  -1.0241272e-03   6.8263267e-05   6.9260364e-05  -3.4209981e-04  -2.0388277e-04
  -6.6553715e-05   8.3794146e-07  -3.2880507e-05  -5.5816898e-05  -3.5973244e-05  -4.8309208e-05  -5.6946546e-06  -2.1691818e-04  -5.3446016e-05  -8.7139724e-06  -1.1683820e-04  -4.3995275e-05  -3.9702241e-05  -2.7202987e-04   3.2040029e-04  -4.4742876e-04  -1.1330205e-06   1.0868063e-04   2.4878313e-05  -6.0055791e-05   4.9357630e-05   7.9179932e-05  -9.3797447e-05   8.4101257e-06   2.2647869e-04  -8.9529298e-05  -9.4527852e-05  -1.4581818e-04  -1.0375446e-03  -1.7322668e-06  -2.1581081e-04  -7.3480216e-05   3.3070272e-04  -1.6558505e-04  -8.9974579e-05   4.1784637e-04  -2.3515939e-04   4.9104277e-05  -1.0499665e-05   1.0238412e-02  -7.1228147e-05  -1.6066911e-05  -2.1667918e-05  -6.7731556e-03   1.3936643e-03  -5.9511384e-04  -4.7505764e-06   1.0246835e-04  -1.1636980e-04  -8.2466475e-05
  -4.9565569e-05  -3.3079521e-06  -3.3913373e-05  -5.1556573e-05  -2.5130901e-05  -8.9042056e-05  -1.2582456e-04  -6.0460956e-05  -2.2123226e-04   2.3626451e-05  -1.1520981e-04  -1.4120594e-05   1.6164584e-05   1.0285799e-05  -1.1435874e-04   9.4834460e-05  -6.5211589e-06  -2.7983915e-06  -5.2313373e-04  -6.0303009e-05   6.1138817e-05   6.2954408e-05  -1.8852885e-04   3.4243058e-05   3.9651102e-05  -1.2580273e-04  -7.7086872e-05   7.8308432e-05   9.9376055e-05  -3.1883555e-05   3.4384047e-05   1.2250140e-04  -8.1809179e-05   1.6873512e-04  -6.0989481e-05   2.5151658e-04   3.4331792e-05   2.0542999e-05  -3.4841409e-04  -1.4185271e-03   1.0145151e-04   1.6717207e-05  -5.0115617e-05   1.5896123e-02  -7.3911287e-05   9.8333333e-04   9.7563548e-05  -4.5418150e-05  -1.5489227e-04  -1.1189381e-05
  -3.9002905e-05   7.5707914e-07  -2.9814417e-05  -4.5674340e-05  -2.2931759e-05  -6.5027576e-05   2.6551425e-05   1.4810331e-04  -4.4916360e-06   9.5315467e-05  -7.0372633e-05   4.0752650e-05   4.4105193e-05  -4.4011074e-05  -1.4614244e-04  -9.3818417e-05   2.7969207e-05   1.5533123e-04  -2.7173839e-04  -7.0642498e-05   6.6683519e-05   7.3345349e-05  -7.4448290e-05   8.8086690e-06   1.3575805e-04  -9.7050084e-05   8.2746330e-05   2.1903172e-05  -4.1589691e-04   9.5019977e-06  -3.3575558e-04  -4.5621084e-05  -1.7710503e-05  -2.7185073e-04  -1.2373422e-04   1.7097215e-04   3.5189159e-04   9.9291801e-06  -2.7715959e-04   1.3987185e-02  -2.6352309e-05   1.6193326e-05   2.1156908e-05   6.9390256e-03  -1.2166259e-03  -1.6048447e-03   7.6301221e-05  -2.4061850e-05   4.8538113e-06  -5.2048727e-06
  -5.1808882e-05  -3.9937131e-06  -3.4562425e-05  -5.1289000e-05  -3.0203773e-05  -1.0431423e-04  -8.2579456e-05   8.2581813e-05  -7.4427982e-05   5.5350183e-06  -9.7185293e-05  -2.7866194e-05   1.3385879e-05  -1.0540729e-04  -5.3846663e-05  -4.8331972e-04   4.0534418e-05   1.7614526e-05   4.5451565e-05  -4.7638136e-05   5.7979571e-05   9.4088573e-05  -3.9122282e-05   2.7451604e-06   9.1335169e-05  -3.0655527e-05   6.0292139e-05  -3.1901349e-04  -1.0413493e-03  -1.8961489e-05  -1.1359170e-04  -5.1132735e-04  -1.0076059e-04   7.0517228e-05  -3.0122854e-05   7.1987277e-05  -5.7535263e-04   4.0388080e-05   1.9285425e-04  -6.9926679e-03  -1.3427062e-04  -3.6638456e-05  -1.5148900e-04   9.3699200e-03   2.3306145e-03  -1.7840498e-04   7.1329283e-05  -1.0131714e-04  -2.2181540e-04  -8.9437810e-05
  -4.7108329e-05  -5.5734090e-06  -3.2034572e-05  -5.9880367e-05  -2.8381397e-05  -7.7728444e-05  -5.2152642e-05  -2.6052352e-04  -2.2884124e-04  -6.2069215e-05  -1.4606601e-04  -7.2927425e-05   1.1844428e-05  -3.3821186e-04   1.2297420e-04  -6.4710440e-04  -2.0801303e-05   1.7662784e-05   1.5470393e-04  -5.2996631e-05   7.0795912e-05   6.9182039e-05  -2.8968785e-05   4.7977380e-07  -4.7744750e-05  -1.6086738e-04  -1.4334758e-04  -6.0936960e-05  -3.2684006e-04  -7.2702746e-06   7.4060620e-07   9.9805347e-06   6.5173233e-05  -2.4071854e-04  -5.0413688e-05   4.2006541e-05   4.1113462e-04   2.1601836e-05   2.7956432e-04   9.0127867e-03  -6.5799672e-05  -3.6369867e-05  -8.2644190e-05  -1.0767213e-02   2.0859793e-03  -1.8195208e-03   1.4158127e-04   1.5342815e-04   1.2964163e-04   1.7582550e-05
