   1.2968568e-04   6.1288709e-05   4.7544690e-06   4.4662534e-05   6.6130655e-05   2.1796960e-04   1.2849532e-04   2.2915534e-04   3.0335848e-04   1.7016295e-04   1.0777020e-04   5.8864571e-05   3.3708083e-04   6.7977293e-05   1.6760778e-04   3.4844776e-04   1.0015767e-04  -1.1953845e-04   4.8549811e-04   8.9522378e-05  -1.1695384e-04  -3.2921831e-05   9.6429256e-05   6.7461398e-05   2.4504471e-04  -1.8567650e-04   4.9179688e-04  -1.6721104e-04   4.6088515e-04   2.2410086e-05   5.5264954e-05   1.0511309e-05   4.2445145e-06   2.1858505e-04   1.6331691e-05   3.2947393e-04   8.2051323e-05  -2.2110612e-04   5.8114389e-04   1.4169837e-03   3.6872120e-04   1.5859374e-04   2.9325852e-04  -3.4956199e-03  -3.2038431e-04  -1.0992995e-03   1.9478671e-04   2.5849527e-04   1.8958919e-04   5.2590026e-06
   1.2212939e-04   6.4124950e-05  -9.0463327e-06   4.2374071e-05   4.9179034e-05   1.3752571e-04   1.9609446e-05  -4.5644015e-06   2.7156118e-04   1.1127361e-04   9.3273367e-05  -1.5539807e-06   1.8290605e-04   2.8690812e-04   1.6655144e-04   1.9878708e-04   8.6666201e-05  -3.4658187e-05   4.6097804e-04   9.1359470e-05  -1.2631311e-04   2.5022469e-05   1.8104368e-04   8.7353015e-05   4.8258889e-04  -2.0237654e-04   5.3405209e-04  -2.4781650e-04   2.8602438e-04   1.2683789e-05   1.3296813e-04   4.0341602e-05   1.7078349e-04   6.4862741e-04   2.8570856e-05  -1.0950967e-04   5.1993138e-05  -2.5189540e-04   1.1019734e-04   2.5379531e-02   2.9033082e-04   1.3762941e-04   2.0884030e-04  -3.1333233e-03   1.0160226e-03  -1.9967132e-03   6.1420636e-05   1.6045260e-04   8.5367064e-05   2.2965866e-04
   1.1865982e-04   6.3772852e-05  -1.3383124e-05   3.8032460e-05   5.5371700e-05   1.9994791e-04   3.5500088e-05   1.7355867e-04   1.3719135e-04   3.8722610e-05   7.5076059e-05  -4.3085092e-05   2.5659593e-04   1.0956629e-04   2.5544703e-04   8.5231346e-05   7.4588686e-05  -1.0409553e-04   3.5385595e-04   1.0948092e-04  -1.2384035e-04  -3.0619256e-05   1.9261864e-04   4.7762962e-05   3.5957666e-04  -1.7437688e-04  -8.7003491e-06   5.1439687e-04  -3.1552091e-04  -4.4340600e-06   1.1571359e-05   2.7543458e-04  -1.1944690e-05   1.4426676e-04  -5.2139065e-05   2.1296238e-04   2.0910609e-04  -2.4119866e-04  -6.1549472e-05  -2.7387158e-03   2.9270665e-04   1.7887312e-04   1.6639019e-04   3.2873803e-03   7.8387568e-03  -1.0827817e-03   9.2239658e-05   3.3368840e-04   2.0922811e-04   1.4717980e-04
   1.4557192e-04   7.0816386e-05   7.4033301e-06   4.1469542e-05   6.6743996e-05   1.0269837e-04   1.7641419e-04  -1.7193732e-04   1.6547318e-04   1.3406537e-04   9.7714961e-05   3.3309134e-05   2.0940886e-04   3.6230785e-04   3.8779421e-05   5.3580140e-04   8.7500295e-05  -1.6864910e-04  -5.9816830e-05   8.9933659e-05  -1.1899185e-04  -3.3984004e-05   1.0232215e-04   6.0077316e-05   7.5530741e-05  -1.0599795e-04   1.4258180e-04   7.2012248e-05  -5.2916125e-04   2.0986236e-05   8.6576492e-06   5.6657387e-05   1.1157025e-04   2.2331584e-04  -1.1895685e-04   1.3980025e-04   1.3279490e-04  -2.1573876e-04   4.2567277e-04   7.0997304e-04   2.9857381e-04   1.4212193e-04   1.1841710e-04  -5.3827348e-03  -3.8741373e-03  -2.3519984e-03   4.9602710e-05   3.1130156e-04  -1.5336005e-05  -3.1475941e-04
   1.3273350e-04   7.3789321e-05  -4.8971265e-06   4.1436615e-05   5.3622891e-05   2.0784850e-04   2.4252196e-04   2.3468189e-04   7.9105921e-05   8.1459802e-05   1.1203079e-04   1.8245687e-06   3.7749376e-04  -6.8738300e-06   2.4314893e-05   2.2027724e-04   7.1358525e-05   3.8153634e-05   5.8040750e-05   9.5331670e-05  -1.3685145e-04  -2.6697595e-05   1.2388377e-04   4.8657457e-05   2.1386339e-05  -1.3704538e-04   5.2591588e-04  -1.1032848e-04   2.0404286e-03   1.4780091e-05   2.6838729e-04   6.6360604e-04  -2.8418559e-05   6.1893475e-04   6.1677245e-05   8.8915991e-04  -4.5659152e-05  -1.9894332e-04   2.2895736e-04   6.3458630e-03   2.9780183e-04   1.7244933e-04   1.1331167e-04   2.8930705e-03   1.5968021e-03   4.7587758e-04   8.6879896e-05   3.7709202e-04  -1.2987607e-05   7.2661351e-05
   1.3194335e-04   7.1930008e-05   1.7803620e-07   2.4791239e-05   4.9604478e-05   1.6821951e-04   1.5929536e-04   2.0859018e-04   2.6768434e-04   1.3833279e-04   9.0200003e-05   4.3478460e-05   1.2228914e-04   2.1085906e-04  -2.9335220e-05  -8.0868369e-05   9.9902463e-05  -1.4540780e-05   3.2788550e-04   1.0209085e-04  -1.2551561e-04  -6.1406245e-05   1.5246462e-04   5.1458075e-05  -1.0428084e-04  -8.1842634e-05   2.9192484e-04   2.6402157e-04  -6.8172277e-04   1.0065796e-05   1.8626158e-04  -2.7018512e-04   9.2049901e-05   1.8189440e-04   1.0285643e-04   4.4857609e-04  -4.7608455e-07  -2.1576960e-04   4.9764861e-04  -1.8802431e-03   3.1377628e-04   1.5043517e-04   1.8412045e-05   1.0884213e-04   1.8876231e-03   2.9254782e-03   7.5416705e-05   3.8785534e-04   2.8664371e-04   3.6856972e-04
   1.4978215e-04   7.7266246e-05   4.2931406e-06   4.5550714e-05   4.9613136e-05   2.1462268e-04   1.2557885e-04   1.9812990e-04   1.9591580e-04   1.2596924e-04   1.1846283e-04   3.5766523e-05   2.7440855e-04   2.6350562e-04   1.0528899e-04   4.4773525e-04   8.3884595e-05   6.7577676e-05  -2.4016095e-04   7.7812074e-05  -1.3552458e-04  -4.2557280e-05   2.0256947e-04   1.8244111e-05   4.9485760e-05  -9.0064394e-05   2.3979056e-04   5.7396031e-04  -1.3578674e-03  -7.2614618e-08  -3.5972247e-05   3.6016671e-04   3.6997214e-04   3.8879356e-04   6.7211389e-05  -1.0029411e-04  -3.0823384e-04  -1.7778714e-04  -1.9167508e-04  -1.9612326e-03   6.9829919e-05   1.0615419e-04   1.0235782e-04   1.9472218e-03   3.9470466e-04  -9.4263516e-05   2.2729745e-04   3.6396159e-04   2.0613165e-04   1.3443371e-04
   1.3955926e-04   7.0859307e-05  -1.0140127e-05   3.5810364e-05   4.2906599e-05   1.9164638e-04   3.3361686e-04   1.6014208e-04   1.1449440e-04   7.3066476e-05   9.5151445e-05  -7.0626133e-06   2.4553799e-04   2.8830275e-04  -1.2206973e-04   4.5428053e-04   7.5648342e-05  -5.4356526e-05   2.5051725e-04   7.0773800e-05  -1.4152430e-04  -4.9850347e-05   2.0681247e-04   3.6265621e-05  -4.2612395e-05  -1.7202852e-04   3.7786597e-04   1.9219522e-04  -1.1463605e-04   1.0351518e-05   3.9009101e-05  -1.0679073e-04  -4.0680596e-05   1.8263339e-04   5.7464040e-05   6.9206895e-04   3.6751409e-04  -1.9214368e-04   4.6651487e-04  -5.1439139e-03   2.7804708e-04   1.1879300e-04  -1.3125647e-04  -1.8664845e-03   2.1918309e-03   9.6918532e-04  -6.9172536e-05   2.6162152e-04   2.6406138e-04   2.4894558e-04
   1.5771427e-04   6.4739281e-05   1.3363530e-05   4.2162785e-05   5.9579579e-05   1.7958786e-04   1.1215791e-04  -3.1610034e-04   3.2837063e-04   1.6144403e-04   1.0739813e-04   6.4489061e-05   3.0673854e-04   3.6846544e-04  -3.6307171e-04   3.2545833e-04   4.3025178e-05  -6.7767673e-05   5.0486913e-05   1.0192722e-04  -1.2894480e-04  -6.3890751e-05   2.0918361e-04  -4.3079331e-06  -7.2381350e-05  -1.6303390e-04   1.3529857e-04   5.8170306e-05   1.9772274e-03   2.4588982e-05   2.4004873e-04  -2.7366442e-04  -1.2881399e-04  -1.7779614e-05   6.9774137e-06   1.8397615e-04   2.4096847e-04  -2.2438000e-04  -1.1347778e-04  -5.7910853e-03   1.6573872e-04   2.3678753e-04   1.8079296e-05  -7.1700136e-03   4.6136574e-04  -1.6204852e-03   7.5243981e-05   1.7434478e-04   2.2685531e-04  -1.9315834e-05
   1.3908824e-04   7.3763418e-05  -4.1785752e-06   4.0697156e-05   4.7197194e-05   1.2792548e-04   2.4386420e-04   5.1485823e-04   2.0242255e-04   1.3471574e-04   1.2192797e-04   4.7724105e-05   1.5263208e-04  -1.9099380e-04  -2.4349216e-04   2.4902361e-04   1.0226898e-04  -3.7713511e-05  -1.2521938e-04   8.7465174e-05  -1.3904608e-04  -5.8749814e-05   1.9387038e-04   2.0658128e-05   9.9407138e-05  -1.5146621e-04  -8.3697189e-05   5.3002982e-04   1.3852203e-03   4.9800065e-06   4.0765623e-05  -4.0736678e-04  -7.7203396e-05   4.8777388e-04  -1.2811637e-04   1.0644110e-04  -2.2618134e-04  -2.2961048e-04   2.6191541e-04   3.7800316e-03   2.9953630e-04   1.0337854e-04   2.4787156e-04   8.9930445e-03   3.7052617e-03   6.6243269e-04   7.8497818e-05   2.9370261e-04  -1.1779180e-04   2.2549156e-04
   1.2368083e-04   6.7922869e-05  -1.5253985e-05   3.1638785e-05   3.6363042e-05   2.4250842e-04   2.1969150e-04   5.2254327e-05   1.5772537e-04   7.1622948e-05   1.1610417e-04  -1.4750957e-05   2.1460773e-04  -4.8663911e-05   6.5593889e-07   1.0371530e-04   5.3719141e-05   9.6889416e-05   4.8728489e-05   8.4483312e-05  -1.4785705e-04  -7.4314266e-05   1.7643833e-04  -1.5488993e-07  -2.3961061e-04  -1.5792508e-04   4.7481709e-04   1.2454909e-04   8.2464736e-05  -9.4959469e-06  -7.0555820e-05   3.7659646e-04  -1.5713222e-04   3.3535750e-04  -1.1143238e-04   6.0224626e-04   2.2967244e-04  -2.1117300e-04   3.4864130e-04  -3.3601881e-03   2.2530029e-04   1.9180983e-04  -2.2226784e-04  -2.5822697e-03   4.1415063e-03  -1.0188728e-03  -2.7210457e-05   1.1968269e-04   1.8984314e-04   3.9245983e-04
   1.3028219e-04   6.2618572e-05  -7.3640558e-06   3.3484303e-05   4.2253327e-05   1.6611336e-04   2.0273581e-05   1.3052754e-04   1.7191119e-04   1.4846546e-04   9.6995274e-05   5.3446503e-05   1.3040115e-04   1.8219744e-04  -1.1225468e-04   7.8574863e-05   7.1532188e-05   8.2896969e-07   2.7955254e-04   5.0644165e-05  -1.3577876e-04  -5.5866749e-05   9.6199721e-05  -2.0457583e-05   7.0306187e-04  -2.3706806e-04  -7.8913137e-05  -3.4549623e-05  -8.8079105e-05   9.7572156e-06  -2.7339287e-05  -2.7315014e-05  -4.6405919e-05   3.4342660e-04   2.3380840e-04   4.9246533e-04  -7.2835392e-05  -2.5725161e-04   3.2154217e-04  -4.5747377e-04   1.8679084e-04   2.5773310e-04   3.3118573e-04   4.6987310e-03  -1.8592977e-03   1.8374868e-03  -3.5631932e-05   3.8757527e-04  -5.1802032e-05  -4.3465585e-05
   1.2577245e-04   6.9021669e-05  -1.2569541e-05   2.8475051e-05   4.5007841e-05   1.5973407e-04   1.2085024e-04   2.8569615e-04   2.6895490e-04   1.4583085e-04   1.3916956e-04   4.3131051e-05   9.2958158e-05   3.2166464e-04  -1.7037609e-04   2.6101404e-04   9.6119162e-05   2.2164149e-05   2.6609610e-05   4.4945922e-05  -1.4005507e-04  -4.8725040e-05   1.4150700e-04   4.0638142e-06   4.9140745e-05  -1.9134172e-04   2.6125106e-04   6.1306212e-04   9.3674666e-04  -1.7002785e-05  -3.0914358e-05   2.8008150e-04  -5.2982974e-05   2.7366757e-04  -1.5326809e-04   8.9641144e-05   4.2636605e-04  -2.4339987e-04  -3.8781043e-04  -4.4409642e-03   5.5060664e-04   1.0421715e-04   3.4746487e-04   9.7928569e-03   6.3799240e-04   3.1746211e-04   7.2075069e-05   2.7433858e-04  -1.9208288e-04   1.8215750e-04
   1.0636263e-04   6.1986386e-05  -2.5980731e-05   2.2991933e-05   2.1553045e-05   1.1112501e-04   2.7370270e-04   5.1445408e-05  -8.0981750e-05   7.2291827e-05   1.1297991e-04  -6.7833338e-07   7.7437559e-05  -7.1950271e-05   3.3562146e-06  -5.7570451e-05   8.8432906e-05   8.1309763e-06   5.0683453e-04   3.7246497e-05  -1.5142903e-04  -8.7548520e-05   7.8759876e-05  -2.4808040e-05   3.1892585e-05  -2.0531064e-04   3.9108688e-04   3.6379916e-04  -1.0773441e-03   1.6354761e-05   2.2689460e-04  -5.6785731e-05   9.9652243e-05  -3.3568042e-05   1.1170697e-04  -2.7908006e-04  -1.1125075e-04  -2.2837623e-04   2.7659908e-04   4.9467436e-03   2.6291877e-04   1.3913350e-04   3.6446407e-04   6.3216509e-03   4.2302418e-05  -8.3596288e-04  -1.4185804e-04   4.4791467e-04  -5.5324304e-05   1.9254511e-04
   1.0189358e-04   5.5524153e-05  -3.1975316e-05   2.5878109e-05   3.2984746e-05   1.2590547e-04   6.3354550e-05  -7.5091681e-05   1.0307699e-05   1.1320641e-05   1.0166205e-04  -5.3534506e-05   9.1827089e-05   1.1938384e-04   2.3332714e-04   6.3651023e-05   5.9086364e-05  -3.2550040e-05  -1.4173187e-04   5.1593179e-05  -1.4443084e-04  -7.0972266e-05   1.3787343e-04  -2.7741224e-05   5.4552529e-05  -1.1406786e-04  -2.5766456e-04   3.5028290e-05   3.3125299e-04   5.7806160e-06   2.2699865e-05   3.7210278e-04  -2.6491596e-04  -1.0705605e-04  -1.3350192e-04  -1.9360501e-05   5.5700663e-04  -2.4991270e-04  -3.4773498e-04   7.0093749e-03   3.1462475e-04   1.5730814e-04   2.7936365e-04  -2.8968972e-04  -2.6175678e-03  -5.4197334e-04  -7.0708447e-05   1.1582585e-04   8.7484659e-05   3.7861802e-04
   1.1628912e-04   5.9669699e-05  -9.5056803e-06   1.9008090e-05   3.8643891e-05   1.6830271e-04  -1.5642826e-04   5.5099191e-04   2.3509483e-04   1.1501224e-04   1.4377839e-04   4.1592695e-05  -6.3854946e-05   1.8686859e-04  -3.4615787e-05   4.1485773e-04   8.0987462e-05  -1.1215973e-04   3.5629550e-04   5.6085239e-05  -1.4141596e-04  -9.3693830e-05   7.5896205e-05  -2.6297612e-05  -1.0755503e-04  -1.2069627e-04   2.9307418e-04   1.7537037e-04  -7.3610112e-04  -1.6402416e-06  -2.7498889e-05   4.7255738e-04  -5.3530148e-06   1.7788155e-04   1.0179629e-04   3.8929356e-04  -1.6094252e-04  -2.0051256e-04  -5.3967047e-04  -1.3174715e-02   3.0373438e-05   1.6726438e-04   4.1059661e-04  -4.1798037e-03  -1.9795450e-03  -7.4780255e-04  -2.0279625e-05   1.3605297e-04  -2.3907775e-04   2.8375667e-04
   1.0023139e-04   5.3349690e-05  -3.0774987e-05   2.3183247e-05   2.6127356e-05   1.3792068e-04   1.3109356e-04   1.7531756e-04   2.2923574e-04   5.9722963e-05   1.1278781e-04  -1.2864876e-05   1.5595516e-04   1.0399585e-04   1.1249954e-04   2.6015361e-04   5.7628426e-05   7.6603683e-05  -2.2290394e-04   8.4391206e-05  -1.4804059e-04  -8.6621803e-05   6.2654610e-05  -3.6287739e-07  -4.7647191e-06  -1.0715137e-04   3.0024345e-05   4.7491447e-04  -4.5304326e-04   5.3962272e-06  -1.6530446e-05   2.0855607e-04   1.6447704e-04   2.0683885e-05   4.0545692e-05  -2.7768651e-04   1.8786895e-04  -2.2705650e-04   5.0584396e-04  -4.9488777e-03   4.0662105e-04   8.5255830e-05  -1.2524730e-04   3.2567745e-03  -3.1255034e-03  -4.7776159e-03  -1.9910029e-04   1.5665976e-04   3.5120186e-04   1.8681087e-04
   8.3127408e-05   4.7283113e-05  -3.3358294e-05   2.4459969e-05   1.8728193e-05   9.5644195e-05   2.1327897e-04   1.8290478e-04   1.1340293e-04   1.3107956e-07   9.4210263e-05  -5.5896217e-05   1.9131706e-04   3.0757530e-04   3.8123634e-04   1.9499254e-05   5.5891753e-05  -5.9117534e-05  -3.2099045e-04   5.7490044e-05  -1.5443747e-04  -9.1070673e-05   4.8308157e-05   3.5036928e-07   2.4041366e-04  -1.2251762e-04   8.6698143e-05   3.7629434e-04   1.9267343e-05  -1.2337277e-05   9.2021481e-05   3.9995782e-04  -1.5432200e-04  -3.0180875e-06   5.7992238e-05   2.9892387e-04   6.5040556e-05  -2.2287850e-04  -9.7662582e-05  -2.3795748e-03   2.8358647e-04   1.5802142e-04   1.0075564e-04   2.4587379e-03   1.8923562e-03   2.2387833e-03  -8.0443715e-05   2.7201197e-04   1.3761880e-04   1.3605738e-04
   9.9400168e-05   4.5286321e-05  -8.0025366e-06   3.4653771e-05   3.5187230e-05   1.7724840e-04   2.2706272e-04  -1.2055035e-04   1.8985837e-04   1.2076768e-04   1.5421663e-04   3.7155842e-05   2.1307387e-04  -1.7488774e-05   3.4692284e-04  -3.3746179e-05   4.8861843e-05   4.6736523e-06   5.6456949e-04   4.8612859e-05  -1.3224654e-04  -8.7915643e-05   2.0531677e-04   1.7731078e-05  -1.2506868e-05  -1.3224372e-04   4.0149075e-04  -3.2298901e-04   3.8892100e-05  -6.3502339e-06  -3.8949591e-05  -9.5996744e-05   2.4336958e-05   3.2108041e-04  -2.3715710e-04   3.2630716e-05   5.1247611e-05  -2.0157486e-04   2.5449941e-04   9.2402184e-03   1.9041709e-04   1.8559644e-04   6.8961177e-05  -1.3321097e-03  -3.2501535e-03   5.6136196e-04  -7.3201409e-05   1.8381828e-04  -4.7938822e-05   1.7095750e-04
   8.1110680e-05   4.6941928e-05  -2.1812575e-05   3.2808202e-05   3.5953370e-05   1.6399677e-04   1.1822409e-04  -6.4024516e-06   6.3310807e-05   6.7366862e-05   1.2561331e-04   1.3366178e-05  -1.2683833e-04   2.3155619e-04  -3.8669648e-04   1.8789238e-05   5.6953879e-05  -1.5303567e-05  -2.7634540e-05   4.6077712e-05  -1.4124344e-04  -7.5631702e-05   4.4458575e-05  -3.6962617e-06   5.2679711e-06  -1.1581925e-04  -1.4164983e-04   7.2161303e-05  -7.8151491e-04  -1.1850703e-05   2.6896418e-04  -1.7324202e-04  -5.5942983e-05   9.2412272e-05  -2.2465554e-04   4.1744522e-07   4.1361683e-04  -2.8536361e-04  -2.9138813e-04   4.6842569e-03   4.0363203e-04   1.5161760e-04   2.5549196e-04   3.0281155e-03  -6.3498487e-04  -7.1245816e-04   4.7084108e-05   1.6060504e-04   2.1700747e-04   1.7606244e-04
   6.1959166e-05   3.8260983e-05  -2.9119994e-05   3.2522861e-05   1.8488636e-05   1.6225273e-04   1.4704723e-04  -1.3102347e-04   2.3498779e-04   9.3095184e-07   1.0095364e-04  -3.7795722e-05   3.8094759e-06  -4.5983030e-05  -8.4892759e-05   1.1701357e-04   5.8809845e-05  -6.7429275e-05  -6.5693166e-05   9.2107752e-05  -1.4836299e-04  -7.6400211e-05   1.2314302e-04   7.5035687e-06   2.5481623e-04  -1.2437202e-04   3.6047300e-04  -2.2578616e-04   1.1427958e-03   1.6525504e-05   1.7397635e-04   8.3863823e-05   3.1115607e-05   1.0282058e-04  -1.4865839e-04   4.8655563e-04  -2.5440413e-05  -1.4214512e-04  -7.4734489e-06  -2.3136286e-03   2.2602649e-04   1.5408327e-04   3.0448160e-04   4.0841121e-03   2.2128955e-03   2.6619105e-04   1.6266256e-05   3.3450924e-04  -1.0565643e-04   2.0260358e-04
   7.7456556e-05   3.2608936e-05  -9.7008706e-06   3.8087004e-05   3.5977311e-05   1.5246487e-04   1.5422802e-04   1.4579089e-04   2.4692563e-04   1.0764875e-04   1.1209980e-04   4.5269819e-05   3.9087856e-05  -9.3362229e-05   2.2390815e-04   4.7082969e-04   4.1847026e-05   8.1373168e-05   1.6718390e-06   8.8774461e-05  -1.3085792e-04  -8.6083332e-05   1.2966942e-04   5.4912110e-05   1.5030266e-04  -1.2159328e-04  -4.7188758e-05   2.2037972e-04   5.1681371e-04   1.6892198e-05  -3.3789205e-05   1.7032663e-04  -1.4330524e-04  -2.7742900e-04  -1.3162657e-04   1.1375399e-04   3.2605440e-04  -2.5806797e-04  -9.9811092e-05  -5.5806660e-03   3.7812605e-04   1.3477853e-04   1.4508328e-04  -1.9853164e-03  -1.2922509e-03   2.4808189e-04  -3.0986146e-05   4.0111272e-04  -8.9331967e-05   1.8125927e-04
   6.9903093e-05   4.0078394e-05  -1.3552678e-05   4.1675008e-05   3.1379117e-05   1.5132851e-04  -5.6869969e-05   2.7773212e-04   1.3253314e-04   7.4733922e-05   1.2522103e-04   2.2360091e-05   4.7115260e-05   1.0482728e-04  -4.8841892e-05   3.1144227e-04   5.5147371e-05   7.9073216e-06  -5.0867446e-05   9.1743772e-05  -1.3428387e-04  -8.0597012e-05   7.1859549e-06   4.2831329e-05   2.7304946e-04  -1.0728874e-04  -4.2007032e-06  -2.3985791e-05   1.6383708e-03  -2.8573488e-05  -1.4759206e-04  -9.9640791e-05  -1.2693267e-04  -1.7770015e-05  -1.3163866e-04   2.4675453e-04   4.4180520e-04  -1.3349958e-04  -1.1312358e-04   1.5806868e-03   1.7710151e-04   1.4970418e-04   1.9430202e-04  -4.5162523e-03   5.1088324e-03   1.7105222e-03  -2.4946170e-05   2.4847110e-04   2.4915225e-04   2.2300783e-05
   5.6755871e-05   3.9481551e-05  -2.0236826e-05   3.5365629e-05   2.0093035e-05   1.8930364e-04   3.2689290e-06   2.0701558e-04   1.7714415e-04   8.4697376e-06   1.0789037e-04  -3.4953013e-05   2.0016081e-04   5.8088564e-05   1.2904007e-04  -7.8086392e-05   3.1035623e-05  -1.5844236e-04   1.5984362e-04   9.0241920e-05  -1.4038228e-04  -5.0134680e-05   8.0879137e-05   4.9081373e-06   3.9200540e-04  -1.1491014e-04  -5.1766888e-06   1.4378870e-04   4.7648395e-05  -3.2144471e-05  -3.7618996e-05   7.0706679e-05   6.2894243e-05  -1.0320691e-04  -4.5055145e-05  -8.4350009e-05   8.9897825e-05  -1.5090218e-04   4.5135498e-04   2.3005323e-03   4.0784353e-04   1.6034486e-04   2.7061848e-05   2.2391090e-03  -1.0122480e-03  -2.3530640e-05   1.0877237e-04   1.6189371e-04  -1.2424005e-04  -4.3942022e-05
   4.4523742e-05   3.4361921e-05  -2.0618127e-05   3.5213445e-05   2.7945867e-05   1.5513119e-04   1.9221265e-04   1.5076317e-04   2.8944237e-04   6.5897024e-05   7.5942757e-05   1.9991441e-05   2.3952512e-04   1.6927885e-04   1.6951537e-05  -7.3499963e-05   4.2205913e-05  -1.2897875e-04   1.5776054e-04   1.1200841e-04  -1.2089752e-04  -4.8753478e-05   6.4283173e-05   1.7545382e-05  -2.3278024e-04  -1.3322481e-04   7.5699609e-05   3.8302387e-04   1.0032387e-03   6.3360058e-06   2.1208318e-04   8.6724023e-05   2.2401710e-04   5.0676049e-04  -1.2486115e-04   3.2127119e-04   3.2122061e-04  -2.2226023e-04  -1.8886260e-04   1.4120612e-02   2.1550029e-04   1.9490650e-04  -1.3187715e-04  -9.8450910e-03  -4.7925589e-04   1.6988572e-03   1.1441598e-04   1.1854208e-04   1.8725260e-04   1.8525658e-04
   6.4698826e-05   4.1814572e-05  -2.9528987e-06   4.5431112e-05   3.1006210e-05   1.7841447e-04   1.2437858e-04   9.9218496e-06   2.9376743e-04   7.7688928e-05   1.2981521e-04   3.1728643e-05   5.3686472e-05   2.4552320e-04  -2.3748387e-04   3.3548416e-04   4.2441356e-05  -1.3309659e-05   4.7931253e-04   1.0567148e-04  -1.3094532e-04  -4.7026875e-05   3.9143793e-05   3.3460426e-05   1.1571253e-05  -1.3840420e-04   2.9993968e-04  -2.3691810e-04  -9.9102780e-04  -1.6361468e-05   6.8576352e-05   2.2788593e-04   1.5171951e-04   2.7648470e-04   2.4020479e-05  -4.2504631e-05   7.4151444e-04  -1.4720950e-04   3.4242278e-04   4.1141687e-03   4.4733420e-04   2.1066226e-04  -1.2374752e-04   5.8734524e-03   2.8197332e-03   6.8061764e-04   3.3597957e-05   4.5965382e-04  -6.3736825e-06   1.3094299e-04
   4.8221758e-05   3.8301379e-05  -1.5056392e-05   4.5150722e-05   2.6515900e-05   1.2675858e-04   3.3665472e-04   1.9776687e-04   1.4145355e-04   1.3129506e-05   1.0616180e-04  -2.6772919e-05   2.6561331e-04   3.2180292e-04  -3.0110965e-05  -2.8433595e-04   5.0935174e-05  -6.3678475e-05   1.6344577e-04   1.1364299e-04  -1.3458518e-04  -1.0154898e-05   5.4329117e-05  -7.2537296e-06   7.0436814e-05  -9.7343152e-05  -5.0591939e-04   2.0945290e-04   1.4578499e-03  -1.2262024e-05   5.9510574e-05   3.8600145e-04   2.1142428e-04   1.6784571e-06  -6.6520493e-06  -6.9465762e-04   2.6355835e-04  -2.0080873e-04   3.3461209e-04  -2.9000300e-03   4.9551862e-04   1.5936312e-04   2.1433030e-04  -1.6542540e-03  -1.6059009e-03   1.3757369e-04   1.2212560e-04   2.6617001e-04  -1.1090145e-04   5.6288936e-05
   4.9260932e-05   3.2835134e-05  -1.8075143e-05   5.2076557e-05   2.7375065e-05   1.0866439e-04   7.7795128e-05  -5.6843088e-05   1.5414144e-04  -5.6280227e-05   7.6910321e-05  -7.4687327e-05   2.3969125e-04  -4.9759572e-05  -3.0540288e-04   2.3920822e-04   3.2180906e-05  -9.0716516e-05   2.8151795e-04   1.2644022e-04  -1.2709206e-04  -7.3729541e-05  -1.1906553e-05   1.0274441e-05   1.2230888e-04  -8.7323118e-05  -1.1442380e-04   6.8123009e-05  -1.4087306e-03   5.4637580e-06   2.0095862e-04   1.2710674e-05   3.3589819e-04   2.9145277e-04   4.7782065e-05   6.0360052e-04   6.4135907e-05  -1.2468014e-04   5.0901942e-04   7.4356119e-03   4.3553312e-04   1.8138957e-04   1.9801201e-04   1.8459635e-03   6.6515955e-04  -5.6653318e-04   1.4933315e-04   3.3634814e-04   1.8217666e-04  -7.8856305e-05
   6.6064968e-05   3.9927312e-05   7.9825777e-06   5.9149028e-05   2.6556107e-05   1.2032654e-04  -3.1785727e-05   1.4145074e-04   1.7911309e-04   9.9832861e-05   1.4893092e-04   4.4142434e-05   1.8813787e-04   6.1402738e-05   3.3019864e-04  -3.6078069e-05   5.4622535e-05   1.4015371e-05  -2.0681862e-05   1.1350014e-04  -1.2052218e-04  -2.3084509e-05  -7.0287629e-06  -1.2615734e-06   1.4698369e-04  -7.4728465e-05   3.8115828e-05  -9.0803842e-05   1.9999958e-05   8.3587474e-06   1.1132321e-04   7.0793656e-05  -6.0182680e-05   6.6795503e-05  -8.4163330e-05   3.2261203e-05   3.4421351e-04  -2.1489829e-04   9.3720555e-06  -3.3717629e-04   3.5671075e-04   1.2674629e-04   3.8599086e-05   3.9015869e-03   2.5019157e-03   3.3847467e-04   1.1131413e-04   1.9590343e-04   2.3950404e-04  -3.6285190e-05
   6.1386432e-05   3.5863490e-05   4.7416128e-07   4.8449914e-05   2.9140809e-05   9.2131442e-05   2.3164687e-04   1.9652965e-04   1.8684771e-04   3.4740009e-05   1.2051078e-04  -1.9486517e-07   7.2815979e-05   2.0983745e-04  -3.0242532e-04   5.4781087e-04   4.4238859e-05  -1.4548004e-04   3.4556631e-04   9.6990065e-05  -1.2656095e-04  -7.2204966e-05   6.1131541e-05   2.0320389e-05   1.9712369e-04  -7.6968572e-05  -3.1814870e-04  -6.0315273e-05   4.6360181e-04  -1.0243017e-05   3.5910786e-04   2.0722719e-04   8.3818159e-05  -2.0930286e-04   9.4300296e-05  -1.2874314e-04   1.5402384e-04  -1.9867602e-04   3.0874880e-04   1.2813237e-02   1.2433026e-05   1.2111097e-04   7.3831354e-05   7.2709535e-04  -2.3521038e-03   1.2299705e-04   8.9433837e-05   3.0950343e-04  -1.6231928e-04  -2.0533478e-05
   4.1104195e-05   3.3401167e-05  -6.8178770e-06   4.7955888e-05   3.0565236e-05   8.4619816e-05   6.4036452e-05  -3.7660870e-05   4.1636034e-05  -2.5859075e-05   7.6953445e-05  -5.1676667e-05   1.1289718e-04  -7.0879061e-05   1.6166731e-04   2.3058965e-04   1.2381201e-05   4.6042067e-05  -5.6797148e-06   1.2195961e-04  -1.2767677e-04  -2.5251586e-06   2.9711257e-05  -1.7808221e-06  -2.9590362e-04  -1.0574254e-04  -5.5386964e-04   2.0722525e-04  -3.9322222e-05  -7.8127468e-06   3.7458667e-05  -1.3744603e-04   1.2425389e-04   2.2775742e-04  -4.8611422e-05   9.9601608e-04   3.0651729e-04  -1.6299440e-04   2.2939419e-04  -2.6299440e-06   2.0900149e-04   1.8913555e-04  -1.0347582e-05   7.9190331e-03  -2.8019410e-03   8.9103752e-04  -1.2379481e-06   2.9921570e-04   1.1417091e-04   7.9734804e-05
   7.4130301e-05   3.4605659e-05   2.2600809e-05   5.2958589e-05   3.7255646e-05   1.4306851e-04   1.5992390e-04  -2.2087050e-04   2.6100758e-04   1.1700645e-04   1.1238454e-04   5.1180363e-05   4.4230183e-05   1.7670277e-04  -1.4456268e-04   5.2081043e-04   3.7234477e-05  -3.0090068e-05   1.6201778e-04   1.3849356e-04  -1.0965609e-04   4.0133259e-06   2.5795953e-05   4.4518027e-05  -9.6381700e-05  -8.6262240e-05   4.2082727e-04   2.9227743e-04  -6.4213824e-04  -2.8493569e-05  -1.5630930e-04  -4.1390129e-04   4.3431428e-05  -1.9523835e-04   3.2739288e-05   3.8320725e-04  -7.4380332e-05  -1.8762672e-04   5.6283698e-05   2.9872002e-02   2.7275275e-04   1.5321317e-04   2.5077691e-04   9.5209144e-03   2.0147192e-03  -4.4025085e-04   2.6580788e-05   3.9132175e-04   1.2556843e-04   3.1123776e-04
   7.0092428e-05   4.0573981e-05   6.3143302e-06   4.4014301e-05   2.9669623e-05   1.0368811e-04   1.4670684e-04   1.5087044e-04   1.8162184e-04   6.1912848e-05   1.2180336e-04   1.7330844e-05   1.3801869e-04   2.8160133e-04  -2.5847775e-04   4.7592453e-05   5.1081723e-05   3.9660779e-05   2.2518383e-04   1.2577181e-04  -1.1445009e-04  -2.6093243e-05   6.4096108e-05   1.6537228e-05   3.3633281e-05  -1.0237643e-04  -3.1433068e-05   3.0931827e-04   2.1569044e-04  -1.1680233e-05   1.0830756e-04   1.4677360e-04  -4.3392898e-05  -1.2977258e-04  -1.1845062e-04  -6.6759217e-06   1.5295733e-04  -1.6134298e-04   8.4935740e-04  -4.4627334e-03   1.8081802e-04   1.4956717e-04   3.0717743e-04  -7.8798002e-03   1.0946843e-02  -1.4350810e-03  -1.9510489e-05   4.0559811e-04   2.1264210e-04  -2.9778896e-05
   5.4934044e-05   3.9620154e-05  -1.5653775e-06   4.0307550e-05   1.7365899e-05   1.2881239e-04   2.0011651e-04   3.5292178e-05   2.0421782e-04  -1.9704765e-07   8.1487677e-05  -4.4060798e-05   1.6390892e-04  -1.0955444e-04  -3.0329541e-04   2.9784004e-04   1.1526935e-05  -1.2751370e-04   2.7497410e-04   1.2040248e-04  -1.1709246e-04  -3.5293437e-05   5.6505392e-05   3.2018375e-05   1.0495958e-04  -8.8513647e-05   1.2766660e-04   1.5290761e-04  -6.9800601e-04  -3.5451303e-05  -2.2489000e-04  -1.9435100e-04  -1.1226315e-04  -3.5688543e-04  -1.7681175e-04   3.2635857e-04  -3.2625627e-05  -1.5419989e-04  -1.9620665e-04  -2.5517582e-03   2.9792916e-04   1.1326474e-04   2.5378380e-04  -8.2238164e-04  -2.2854779e-03   1.5488244e-03   1.1321557e-04   4.7039968e-04  -7.0787115e-05  -8.5576949e-06
   7.5524644e-05   3.2532284e-05   2.1427266e-05   5.4605352e-05   2.9529449e-05   1.1636203e-04  -1.2131216e-05   1.2184568e-04   3.1490269e-04   1.0768952e-04   9.0309419e-05   4.9903469e-05  -8.8592128e-07  -6.2143183e-05  -4.2483396e-05  -3.7286661e-04   2.0012363e-05  -1.8135273e-04   6.8634174e-05   1.1439977e-04  -1.0220642e-04  -2.7314245e-05   3.9395993e-05   2.3048075e-05   3.5116074e-05  -7.7597586e-05  -5.8595771e-05  -2.6190628e-06   1.1854764e-03  -2.0744357e-05  -1.2603537e-04   2.1315066e-04   1.1709145e-05   6.9955749e-06  -1.1204971e-04   5.0515094e-04  -1.5042641e-04  -1.7968801e-04  -1.0092111e-04  -4.7537074e-03   2.8498797e-04   1.6125581e-04  -6.3572421e-05   6.7639044e-03   3.7055812e-03  -1.2220403e-03   1.3596605e-05   3.9757337e-04   2.0811665e-04   2.3348779e-04
   7.0645583e-05   4.1192779e-05   1.6891701e-05   5.2121908e-05   3.8035130e-05   1.1165884e-04   6.9022615e-05   2.5634965e-04   2.1766633e-04   7.1798830e-05   1.2541715e-04   2.3979184e-05   6.7296845e-05   2.7483000e-04  -6.9948706e-05  -1.2383195e-04   2.5339785e-05  -1.0901098e-04   4.1879501e-04   1.3902516e-04  -1.0301641e-04  -4.6132202e-05   5.2667187e-05  -1.1105464e-05   1.0119431e-04  -9.1110815e-05   2.3747399e-04  -3.1862321e-04  -8.0052903e-04   2.2664162e-06   2.8192680e-04   2.8576914e-04   8.1841288e-05   1.9627833e-04  -8.3488740e-05  -5.3717107e-05   2.2060638e-04  -1.9490373e-04   9.8823628e-05   1.7875065e-03   1.3057058e-05   8.1247978e-05   6.0351747e-05  -1.9460117e-03   5.6530850e-04  -1.1242612e-03   8.9289038e-05   1.1776944e-04   2.5715385e-04   1.7822796e-04
   6.5143780e-05   4.1841780e-05   2.4717328e-06   4.0050731e-05   2.4936364e-05   1.3447783e-04  -7.8296427e-05  -6.4303233e-05   2.4988691e-04   1.0881641e-05   8.7549110e-05  -2.6164131e-05   4.3986656e-05   1.7637428e-04   3.2380826e-04  -1.7235000e-04   4.5190707e-05  -3.9928218e-06   1.5764170e-04   8.4476495e-05  -1.0610586e-04  -5.1707470e-05   3.3646862e-05  -1.5122878e-05  -3.2180405e-04  -7.7321958e-05   1.2528676e-05  -9.9166042e-05  -2.9541863e-04   1.8199098e-05  -2.6792990e-05  -5.3074018e-05   7.3850017e-05   7.0656306e-04   7.4805794e-05   2.3209155e-04   6.7640154e-04  -2.2265340e-04   3.4624894e-04  -5.9057431e-05   2.3944056e-04   9.4374307e-05   1.9887545e-04  -1.3936551e-04   1.6137008e-03   2.5729821e-03   4.9422390e-05   1.3143910e-04   3.1843528e-04   3.1911489e-04
   7.9180281e-05   3.3689019e-05   2.1351671e-05   4.9774655e-05   3.1105425e-05   1.6073689e-04   1.8423492e-04   1.0130249e-04   1.9427114e-04   1.1547497e-04   1.1980203e-04   5.3771586e-05   3.5899098e-05   5.4239288e-05   3.7702524e-05  -7.5019947e-05   6.4663604e-05  -1.2666467e-04   3.6954309e-04   1.2176657e-04  -9.2561990e-05  -2.7605322e-05  -2.5325397e-05  -1.1627292e-05  -2.0997948e-04  -1.1721537e-04   5.1184012e-05   1.2906535e-04  -1.3056493e-04  -2.9928109e-05   1.8421555e-04   2.6903269e-04   3.5400772e-05   4.5390482e-04  -2.2094020e-04   4.4806024e-05   1.6984448e-04  -1.6307356e-04   3.1698865e-04  -6.1803153e-03   3.2788428e-04   1.7362536e-04   1.8279295e-04   1.3551140e-02   6.2349415e-04  -3.1554762e-03   1.3177413e-04   2.0128938e-04   1.4516404e-04   1.1577665e-04
   8.1209095e-05   4.6509056e-05   1.8631992e-05   5.2167870e-05   2.8181972e-05   1.1329759e-04   5.7128578e-05   2.5713933e-05   5.0957897e-05   8.8684763e-05   1.2374282e-04   3.4685771e-05  -8.0266320e-05   1.4800334e-04  -3.0410272e-04   2.6741799e-04   4.8701990e-05  -3.9518585e-05  -1.5025662e-06   1.1070229e-04  -9.6687683e-05  -4.2028778e-06   9.2395363e-05   1.7299115e-05  -8.7653854e-05  -1.3949469e-04   3.3004483e-04   1.9360315e-04   9.6664124e-04  -7.8368785e-06   2.5124379e-04  -4.4363060e-05  -1.1396327e-05   4.4780353e-04  -7.8515041e-06   6.0225731e-05   2.7355170e-04  -1.7182351e-04  -1.2444850e-04  -1.6343253e-03   2.1494056e-04   1.6322650e-04   9.5809577e-05  -5.0396193e-03   9.3572820e-04   4.6041470e-05   5.9838803e-05   1.9734894e-04  -8.2788436e-05   1.3729132e-05
   7.7960904e-05   4.3607797e-05   1.0470165e-05   4.8355465e-05   2.4780433e-05   9.1062357e-05   1.7920849e-04   1.9599180e-04   2.7562320e-04   2.8298580e-05   7.4829470e-05  -2.6327352e-05  -7.6458658e-05  -2.1468518e-04  -3.5983624e-04  -2.6896823e-04   2.4364816e-05  -7.2014918e-05   1.1069800e-04   1.1504744e-04  -1.0482457e-04   3.3434564e-05   2.6641737e-05   1.2685744e-05   2.2816184e-04  -9.8802528e-05  -5.9082471e-05   2.3555238e-04   2.5278566e-04   8.6745540e-06   1.4073562e-04   2.7178007e-04   8.3479164e-05   3.3804213e-04   1.9702633e-05   2.2587190e-04   1.4412282e-04  -1.3025076e-04  -3.1479942e-06   6.6226711e-03   5.1623496e-04   1.8075721e-04  -1.0111607e-04   2.1139614e-02  -1.6850897e-03   1.3930371e-03   1.2011763e-04   7.8958168e-05   1.2411433e-04   2.8035601e-04
   1.0266368e-04   3.8444228e-05   2.7444452e-05   5.7994552e-05   3.5307723e-05   1.5273127e-04   2.1727687e-04  -9.0698915e-05   3.0247707e-04   1.2633852e-04   1.1776180e-04   7.0836461e-05  -8.3281768e-05  -9.6115161e-07  -2.3408586e-04  -2.3528794e-04   3.3894008e-05  -1.3113349e-04   1.0884696e-04   1.0922438e-04  -8.8650013e-05  -6.9429448e-06   2.0134609e-04  -4.1843846e-06  -9.4138020e-05  -1.5496368e-04  -5.4203272e-05   5.5884524e-05   3.9212679e-04  -9.0946660e-06   9.0227275e-07   1.6657841e-04  -4.8560152e-05  -8.0740116e-05  -2.8806753e-04  -1.0715803e-05  -9.7647026e-05  -2.1734906e-04  -2.9642379e-04  -2.4912131e-03   1.7232365e-04   2.2811395e-04   2.3341035e-04  -7.1658627e-03   3.3883005e-03  -2.1069387e-03   9.7743192e-05   2.4077515e-04   2.7623089e-04   1.3974530e-04
   9.2630115e-05   4.8628335e-05   1.9180956e-05   4.6265228e-05   2.8248942e-05   1.4917643e-04   7.9090882e-05   7.8128658e-05   2.8585363e-04   1.0240082e-04   1.1288250e-04   4.5797944e-05   3.0643283e-04  -6.6500863e-05  -2.5392108e-05   1.7477937e-04   5.6733166e-05  -1.1251336e-04  -1.6629319e-04   1.0345507e-04  -9.4765681e-05  -2.7618142e-05  -6.4290502e-06  -2.5583966e-05  -1.7585681e-04  -1.5574417e-04   1.3327300e-04   2.8849579e-04  -1.1350446e-04  -1.5288779e-05   3.2498379e-04   5.1473232e-04  -1.5931357e-04   3.1262511e-04   5.7814923e-05   4.7084378e-04  -3.4715357e-04  -2.0181172e-04   7.9862523e-04   7.8451084e-03   5.4045831e-04   1.5045174e-04   2.0267015e-04   1.0826076e-02  -3.9557535e-03   3.5956016e-04   1.1885102e-04   3.2933539e-04   5.1445718e-04   4.1718048e-04
   8.7373701e-05   4.5561737e-05   3.5201440e-06   4.9705784e-05   2.5550746e-05   8.4527637e-05   9.9046447e-05  -2.0889372e-04   1.7596124e-04   3.9731331e-05   8.5798492e-05  -1.4480744e-05   7.5930329e-05   3.2681768e-04   3.5296450e-06   8.4045438e-05   4.1132462e-05  -1.3978324e-06   2.1218760e-04   8.1526072e-05  -1.0632865e-04   2.8925992e-06   9.8374177e-05   6.9181178e-06  -8.2771567e-06  -1.2239849e-04   1.3527674e-04  -1.0385129e-04  -5.9200334e-04  -1.7170652e-05   1.4881499e-04  -5.7913072e-05  -4.1212705e-05  -7.0683374e-05  -6.2156098e-05  -1.8110474e-04  -1.1830914e-04  -1.2734073e-04   4.3182590e-04  -8.2598841e-03   4.5031935e-04   1.4079663e-04   1.3337380e-04   4.7199763e-03  -4.1598883e-03  -1.2438726e-03   3.5708716e-05   2.6789671e-04  -1.7951807e-05   7.6870281e-05
   1.0257208e-04   4.0788374e-05   2.6047355e-05   5.9051265e-05   3.3685857e-05   5.3667311e-05   1.8095772e-04   4.5394299e-05   3.7513487e-04   1.2773315e-04   1.2982043e-04   5.6603007e-05   2.4958799e-04   1.5968460e-04  -1.0317150e-04  -1.8712421e-04   5.6092420e-05   8.1298800e-05  -1.2151564e-04   6.6453809e-05  -8.5132138e-05  -4.7166136e-06   1.2358419e-04   2.3708020e-07   6.0962302e-05  -1.2327866e-04   3.8030648e-05  -1.4664092e-04   1.4030625e-03   4.7618560e-06  -6.3088184e-05  -9.7152450e-05  -8.2221071e-05   2.7276305e-04  -1.1184768e-04   4.7836083e-06   7.1554707e-05  -1.3761231e-04   2.5566007e-04   7.7323588e-03   2.5851245e-04   1.8599648e-04   3.1892232e-05   1.0644636e-02  -5.1558635e-04   1.3945196e-04   5.1130366e-05   3.0562008e-04   5.8944028e-05   2.1393037e-04
   1.0184092e-04   4.8268441e-05   1.0437568e-05   4.6478832e-05   3.0777515e-05   1.0333255e-04   1.0607210e-04   3.6003336e-04   2.5067394e-04   9.9546240e-05   9.9451907e-05   4.1696014e-05   6.2898558e-05   2.0278640e-05  -1.8889368e-04   9.9531215e-05   4.2156855e-05   1.0643196e-05  -1.1406294e-04   5.6501238e-05  -9.5313575e-05  -1.3547475e-05   5.9829621e-05  -3.0119540e-06   9.5994583e-05  -9.6581542e-05   4.2291082e-04   9.0702924e-06   6.8478123e-04  -2.9703908e-06   1.6241740e-04   3.0747527e-04   1.1741457e-04   4.4594004e-04  -6.0790044e-05   4.1814701e-04   3.1289642e-04  -1.1712155e-04  -1.6825947e-04   2.2194553e-02  -8.0592938e-05   5.5598644e-05  -1.4299036e-04  -8.4494293e-04   5.5559641e-03   9.3178340e-04  -8.5845939e-05   4.2805957e-04   4.5585959e-05   2.0184991e-04
   8.5029831e-05   4.6691533e-05  -5.3557301e-06   3.7555663e-05   2.4235633e-05   8.5391192e-05   8.1658851e-05   2.8695865e-04   2.3226635e-04   2.7557451e-05   1.1621434e-04  -2.1514243e-05   1.2009156e-04   2.5696761e-04   1.0577424e-05   1.4603848e-04   4.3270102e-05  -3.9628467e-05   1.6017085e-04   9.1723858e-05  -9.9161116e-05  -2.6906587e-06   1.6146491e-04  -2.7545204e-05  -8.3219093e-05  -1.1341618e-04   1.7560432e-04  -1.3998173e-04   3.6806538e-04  -8.6645578e-06  -1.6850111e-04   3.8094231e-04   6.4673732e-05   4.8162573e-04  -1.8963448e-04   2.7511606e-04   2.8621484e-04  -1.7060009e-04   1.6158013e-04  -8.1193494e-03   2.1991268e-04   1.4127686e-04   8.4799423e-05  -8.1258044e-03  -1.7247912e-04  -8.8264706e-04  -3.8357379e-05   4.2822139e-04  -1.7908302e-05   2.8133165e-04
   8.4471692e-05   4.2591768e-05   2.6552729e-07   4.1536303e-05   1.2524797e-05   6.2546358e-05   2.4734755e-04  -9.5139694e-05   1.7557913e-04   5.5796459e-05   8.8785848e-05   1.3853817e-05   9.1825852e-05  -5.2942363e-05   5.2918273e-04   1.1628808e-04   1.3967280e-06   2.7854810e-05   2.8095613e-04   6.4033426e-05  -8.5333035e-05  -5.7494763e-05   3.9535575e-05  -2.0878124e-05   2.8999176e-04  -9.8819764e-05   1.1660525e-04   2.3859198e-04  -1.2980511e-03   1.2300153e-05   2.4689181e-04  -1.5693653e-05   3.3679986e-04   4.8046265e-04   1.3493595e-04   4.0261526e-05   4.6316479e-04  -1.4373750e-04   1.5172028e-04   4.3692430e-03   4.9927580e-04   2.1725481e-04   1.2306213e-04  -3.2456515e-03   1.7442539e-03  -3.6423379e-03   1.4476440e-04   3.6127897e-04  -6.2146602e-05   9.2342370e-06
   1.0358734e-04   5.0549446e-05   5.5142718e-06   4.6087978e-05   2.2259492e-05   1.7274928e-04   2.2248094e-04  -5.8191326e-05   3.3011666e-04   1.0271913e-04   1.2850539e-04   4.1605203e-05   1.0989937e-04  -1.6169767e-04  -1.5090268e-04   2.7275764e-04   2.1566664e-05  -1.6761775e-04   5.8171508e-04   4.4036784e-05  -8.8330016e-05  -1.8105851e-05   3.9331848e-05   8.6605751e-06   3.8575268e-04  -8.8709057e-05  -2.2465063e-04  -2.3344134e-04   9.6006965e-04  -2.3257093e-05   2.4690569e-05  -7.3736563e-05   1.0019373e-04   1.7330114e-04  -1.6481495e-04   1.8381828e-04   1.6540018e-04  -1.8551649e-04   2.8246146e-04  -1.3630643e-03   3.2956700e-04   1.5537905e-04  -2.3241875e-04  -4.1281367e-03  -4.7907741e-03  -2.6259630e-03   1.2799146e-05   9.0767746e-05   4.5819412e-05   9.8696641e-05
   8.3040577e-05   4.3171691e-05  -8.4122030e-06   4.7070636e-05   1.9926967e-05   4.8891558e-05  -7.8549841e-05  -1.3441336e-04   2.0761280e-04   3.8395312e-05   9.5343748e-05  -4.1154335e-06   7.7873585e-05   7.1373957e-05  -8.5347048e-05   1.6709226e-04   2.0261561e-05  -5.1714829e-05  -6.7713822e-04   5.8418842e-05  -9.4154537e-05  -1.5429112e-05   5.2520070e-05  -1.4252558e-05   1.9168489e-05  -8.6480883e-05   1.4767158e-04   7.4300842e-05   1.1133792e-04   5.3279159e-06   1.5845637e-04   4.4696997e-05  -8.7764834e-05   3.4139765e-04  -7.8730976e-05   1.0387480e-04   8.2870662e-05  -1.9375623e-04   4.8561073e-05  -1.5299757e-03   5.4453430e-04   9.8789766e-05   2.5896615e-04  -6.2519275e-03   8.6270686e-04  -6.5188966e-04   2.4151044e-05   3.5942045e-05   1.1347156e-04   1.5071368e-04
   7.1963397e-05   3.9845574e-05  -1.5744468e-05   3.4447672e-05   1.3461124e-05   1.1524543e-04   7.9652033e-05   1.6063807e-04   2.1257492e-05  -2.2800588e-05   1.0749677e-04  -5.7506775e-05   2.2104618e-04  -8.2545179e-05  -4.3135384e-04   1.3800719e-05  -1.9981778e-06  -1.2899537e-04   2.0423165e-04   6.5264932e-05  -9.4970514e-05  -5.6455123e-05   9.6406213e-05  -4.0571969e-05  -5.5359975e-05  -7.7548466e-05  -1.4707776e-04  -1.2033992e-04  -2.5001037e-04  -2.7542565e-05   1.9301864e-04  -1.1977681e-04   5.2955958e-05   3.3683877e-04  -2.4822251e-05  -2.6507300e-04  -1.7465383e-04  -1.4391844e-04   9.1693815e-05   2.7213646e-03   3.4637589e-04   1.2335410e-04   2.7230874e-04  -5.9348764e-03  -2.3453811e-03   6.3650875e-04  -2.0544621e-05   3.7635473e-04   2.2172149e-04   9.3172523e-05
   8.8717534e-05   4.0514693e-05   5.3436429e-06   4.7866153e-05   2.0670259e-05   1.8538458e-04  -1.3962743e-04  -5.2606734e-05   3.1640020e-04   1.1252545e-04   1.2289571e-04   7.2250899e-05  -5.8627396e-05  -1.1072559e-04  -9.1542795e-05  -2.6057917e-04   2.4508630e-05  -5.5783858e-05   2.6707433e-04   6.3128726e-05  -7.7027369e-05  -1.5011158e-05   1.3542792e-04   3.7362432e-05   2.7183833e-04  -9.7675351e-05  -2.1233574e-04   1.6430613e-04  -4.4823642e-04   4.8334909e-06  -7.9291487e-05   4.6146097e-06   1.4751716e-04   1.7811448e-04  -1.3016327e-05  -1.8025162e-04   7.6997373e-04  -1.6578661e-04   4.6088957e-05   7.8726560e-04  -8.6531756e-05   1.4031173e-04   6.1711187e-05   8.7761637e-03   1.4081468e-03  -9.9082442e-04   5.0510953e-05   4.9369912e-05   1.0101166e-05   1.8226041e-04
   7.2787414e-05   3.7847163e-05  -7.5424059e-06   4.1039049e-05   5.1064294e-06   1.4825803e-04   4.0034887e-05  -4.5522238e-06   2.2276345e-04   5.5249235e-05   1.2568997e-04   1.6437436e-05   6.1966632e-05  -9.8930803e-05  -2.0886403e-04  -1.6099493e-05   3.4249915e-05   5.9782651e-06   9.8265053e-05   6.6029585e-05  -8.4930340e-05  -3.0182533e-05   1.0117430e-05   3.6390261e-06   1.2531879e-04  -8.6209053e-05   9.0909227e-05   1.3001066e-05  -5.4472021e-04  -9.5263731e-06  -1.3171887e-04   1.1182234e-04  -1.7568766e-04  -6.3536536e-05   5.1818832e-05   4.4568148e-04  -5.6030491e-04  -2.0869570e-04   2.5595364e-04   2.4873041e-02   1.4792338e-04   1.0514101e-04   1.8026473e-04   1.0883729e-02  -1.7225011e-03  -1.7986229e-03  -2.2182512e-05   2.8296118e-04  -5.2015985e-05   2.0842740e-06
   5.8488484e-05   3.3464043e-05  -2.1040920e-05   3.3420867e-05   1.2096912e-05   8.3836880e-05   2.0023206e-05   3.2082355e-06   2.8670358e-04  -5.1599945e-06   1.0057860e-04  -2.9999201e-05   5.9732025e-05  -4.8082566e-06  -1.9039102e-04  -3.6019503e-04  -1.3815754e-06  -4.4676675e-05  -2.4625959e-04   6.2230574e-05  -9.1461785e-05  -2.0058418e-05   1.0162414e-04   4.0228184e-05   3.0664288e-04  -1.0397675e-04   1.9831910e-04   2.7412528e-04   2.1779749e-03  -2.6776795e-05   4.8051646e-05   1.6736126e-04   2.0064866e-04   4.7673658e-04  -1.5625899e-04   7.7654076e-05   9.8286373e-06  -1.5444477e-04   7.3838350e-04  -2.7080791e-03   1.6412116e-04   1.0712880e-04  -1.5418113e-05   8.0059823e-03   1.5393867e-03  -1.6491867e-03   5.3318421e-05   3.0867022e-04  -1.0761725e-04   1.4163346e-04
   8.1016115e-05   3.1367246e-05  -1.6392746e-06   5.4832239e-05   2.2060471e-05   1.4827920e-04   2.1066050e-04   4.1156457e-04   1.7978181e-04   1.1043272e-04   1.3326755e-04   6.2699633e-05   1.2430250e-04   1.7297773e-04   1.8857679e-04  -9.6316027e-05   5.4132938e-06  -2.0274607e-04   5.1187631e-05   9.0258494e-05  -7.4546420e-05  -2.3944682e-05   1.0191927e-04   7.1515518e-05  -1.9695221e-04  -1.3106385e-04   3.4265072e-04  -1.0242529e-04  -3.7189608e-04  -2.9388875e-06   9.4945564e-05  -7.5898140e-05  -2.0948205e-04   4.8506848e-04  -1.3596728e-04  -1.1196443e-04  -5.7168573e-04  -2.1413839e-04   1.3114761e-04  -4.9371212e-03   4.8767007e-04   1.1384280e-04  -2.9728999e-05  -2.5231682e-03   2.0349303e-03   1.1375734e-03   9.5275762e-05   4.3630257e-04   1.1740854e-04   2.6600627e-04
   6.7605702e-05   3.2023538e-05  -6.8841096e-06   4.6585257e-05   1.4166932e-05   8.4886189e-05   2.0927707e-04  -1.1535838e-04   2.1021023e-04   6.2097010e-05   1.0556468e-04   3.5664863e-05  -3.8517275e-05   1.1726302e-04  -1.1381245e-04  -1.1595922e-04   1.3528782e-05  -1.1008246e-04   2.1222248e-04   6.2477462e-05  -8.5781183e-05  -1.2515575e-05  -3.3781660e-05  -1.9845100e-05  -3.8953254e-05  -9.6070689e-05  -7.8217970e-05   7.6289041e-05  -4.0514846e-04  -5.7690686e-06  -5.4542134e-06   2.3902635e-04  -6.0438550e-05  -1.6007556e-04  -1.8806079e-04   1.8908524e-05  -4.3347548e-04  -1.9145865e-04  -5.0554710e-04  -7.7579548e-03   2.2374361e-04   1.5871992e-04  -7.0895534e-05  -2.3032955e-03  -1.3465410e-03  -1.1698195e-03   1.2966890e-04   2.5474356e-04  -1.9440221e-04   1.7468679e-04
   4.7011115e-05   2.5615091e-05  -1.7628161e-05   4.6817280e-05   8.0744703e-06   1.2404541e-04   2.1460174e-04  -2.1023781e-05   2.1989274e-04  -4.3503201e-06   6.7187138e-05  -3.4979115e-05   6.8831789e-05   1.0146633e-04   1.4965930e-04  -4.5249162e-05  -1.8619692e-06  -2.9585437e-06  -2.4009426e-04   7.8317891e-05  -8.7765060e-05   3.1062148e-06   1.4003896e-05  -1.2148613e-05   7.2335501e-06  -1.3771225e-04  -5.2302305e-05   3.2811018e-04   3.5290961e-04   1.0773565e-05   1.0228899e-04  -1.5111797e-04  -1.7970655e-04  -3.5578949e-05   1.6354467e-04   1.5946649e-04   1.0853780e-04  -1.3861884e-04   3.6518008e-04   1.2359088e-02   4.8907004e-05   1.2395901e-04  -6.8480156e-05  -6.0237758e-03  -4.6742964e-04   1.2018739e-03   6.8515874e-05   3.3780254e-04  -2.2820888e-04   2.4819153e-04
   7.1519491e-05   2.0478181e-05   4.9144173e-06   5.8533326e-05   1.2407010e-05   1.3708865e-04   1.0944198e-04  -3.3333403e-04   2.9186512e-04   9.5219650e-05   1.1270285e-04   6.2196617e-05  -5.0109371e-05   1.9546902e-04   1.6015048e-05   9.2886679e-05   2.1905946e-05   3.5235018e-05   2.0569144e-04   6.3710097e-05  -7.2143230e-05  -1.0603962e-05   6.2147865e-06   1.4724454e-05   1.5033605e-04  -1.1624713e-04   3.6726322e-04   2.7838524e-04   3.3488224e-04  -5.0633862e-06  -3.3086453e-05  -2.0106969e-04  -2.6214955e-05  -3.0866821e-04  -6.2250059e-05  -2.8642642e-04  -2.9928648e-04  -1.9290688e-04   6.2969950e-04   2.4944008e-04   1.1097494e-04   1.3323258e-04   9.0170441e-05  -1.2676553e-03   1.3539334e-03   2.8627862e-03  -9.1018082e-05   1.4812873e-04  -4.4422188e-05   3.6742418e-05
   6.2092389e-05   2.5642939e-05  -3.5174526e-06   5.2419884e-05   1.5028969e-05   7.6176089e-05   2.8571074e-05   4.4714834e-05   2.4064859e-04   5.4421249e-05   1.2793866e-04   2.6878231e-05   2.8700229e-05  -1.1259854e-04  -2.9061703e-04  -1.5315377e-04   1.9368930e-05   4.7829053e-05   3.8471489e-04   7.1391252e-05  -7.5639997e-05  -3.6980524e-05   1.0273295e-04  -2.2427324e-05   1.5591520e-04  -8.3878636e-05   2.7707742e-05  -4.1694719e-05   2.6954903e-04  -1.7919705e-05  -6.5523396e-05  -2.5892481e-05  -4.0792987e-05   1.4196445e-04   2.9999850e-05   4.0520774e-04  -2.0554773e-05  -1.3920592e-04   5.8509893e-04   2.6190539e-03  -4.1088656e-06   1.3129557e-04  -1.9214564e-05   1.9428408e-03   4.3228711e-04   1.5856388e-03   6.1517708e-06   2.5433186e-04   1.7484149e-04   1.3792748e-04
   5.0497103e-05   2.0948937e-05  -1.2335504e-05   5.4174325e-05   5.1425104e-06   1.2642720e-04   1.8698385e-04  -1.4713158e-05   2.1167174e-04  -1.2949505e-05   6.2830499e-05  -3.6011977e-05  -6.8991903e-05   1.2965749e-04  -1.8236173e-04  -2.7998609e-05   1.1815108e-05  -1.0328303e-04  -5.5095912e-05   7.4764357e-05  -8.5186482e-05  -1.9025856e-05   7.0754955e-05  -4.7961457e-05  -1.0818110e-04  -6.6772562e-05   3.1595059e-07   1.7725029e-06   3.5121531e-05  -1.6782340e-05   2.2742880e-04   2.6342110e-04  -1.8042131e-04   2.5225262e-04  -1.0969121e-04   2.8302823e-04  -6.2921041e-05  -1.1900938e-04  -2.0319410e-04   1.0476261e-03   1.4394401e-04   1.3327866e-04   4.7110114e-04   2.7492165e-03   4.2457980e-04   1.4004673e-04   4.4399727e-05   1.9715542e-04   2.3319875e-04  -7.7096211e-06
   5.2264910e-05   1.6317201e-05   5.5926748e-06   4.8717910e-05   9.3088183e-06   2.3115223e-05   1.1458889e-04  -1.7385730e-04   2.0500753e-04   7.1089256e-05   7.0208764e-05   5.0788480e-05   2.3927554e-04  -1.4708055e-05  -2.2249352e-04   6.5628192e-05   1.5555095e-05  -1.6732613e-04  -1.3712613e-04   9.9658377e-05  -6.5594417e-05  -1.2039562e-05   5.7465077e-05  -5.3954236e-06   1.0185026e-05  -9.8969926e-05   7.5164891e-05   1.1888632e-04   5.0668756e-04   4.9939117e-05   1.5806388e-04   3.1413694e-04   1.7283173e-04   1.7430194e-04   5.0264912e-06   1.0285294e-04   1.9194803e-04  -1.5586849e-04   6.7913261e-06  -1.3064736e-03   3.1545589e-04   1.2188172e-04   8.4875908e-05   9.3564847e-03  -1.0742665e-04  -2.0233416e-03   3.9936091e-05   2.0236366e-04   5.4899301e-05   3.9905368e-05
   6.0515045e-05   2.5897156e-05   7.3484885e-06   5.3399526e-05   1.4681520e-05   9.3942741e-05   9.9432167e-05  -1.4712171e-04   2.8986187e-04   6.2312247e-05   9.3492192e-05   3.2420689e-05   8.0382131e-05  -3.1035659e-05   1.7381872e-05  -3.0341104e-04   3.4562536e-06   4.0998097e-05   5.9291295e-05   9.0777874e-05  -6.6625013e-05   1.9682273e-05   1.5122459e-05  -7.4996315e-06   6.4480082e-05  -9.9333454e-05  -2.3112148e-04   3.2389130e-06  -4.3752755e-04   3.4946008e-06   1.0669734e-04  -2.9816088e-05  -2.5519878e-07   4.6037129e-04  -4.8454505e-05   1.0585495e-04  -4.5098830e-05  -1.6297445e-04   3.5955859e-04  -6.6015045e-03   3.8218268e-04   1.0965870e-04  -2.8610621e-05   1.7565805e-02   1.6375298e-03  -1.1003371e-03   1.5176213e-04   2.5232279e-04   2.8619022e-04   6.2175393e-05
   5.6592929e-05   2.2340962e-05   2.7457795e-06   4.8643786e-05   9.8636656e-06   1.0811954e-04   8.0648664e-05   6.9773450e-05   1.3404399e-04   1.2243006e-05   7.3841118e-05  -1.5918944e-05  -5.6144665e-05   2.0683867e-05   1.0086967e-05  -1.7256601e-04  -1.3209690e-06   4.9392078e-05  -1.8819146e-04   6.9335249e-05  -7.0001362e-05  -3.2024727e-06   2.9376239e-05  -5.4868975e-05  -6.8893838e-05  -8.9591405e-05  -3.4444671e-04  -2.4303430e-04  -5.6910020e-04  -1.5441974e-05   2.4024495e-04   2.3092258e-04  -1.4931774e-04  -2.6821754e-05  -9.8033364e-05  -1.3990447e-04   8.0749276e-05  -1.5004809e-04   1.4283761e-04   8.0649918e-03   2.1828566e-04   1.3112725e-04   1.5435717e-04   4.1135149e-03   9.1568002e-04   1.6433583e-03   1.2684887e-04   1.9581316e-04  -3.4257046e-05   2.8258035e-04
   5.2768450e-05   1.7245235e-05  -4.7830467e-06   5.2898460e-05   4.1100448e-06   8.6285814e-05   6.4372645e-05   1.2229131e-05   2.3990979e-04  -1.3272518e-05   4.4363289e-05  -4.0561841e-05  -7.4089739e-06   1.5769830e-05  -1.9754794e-04   1.6032944e-04  -2.2665621e-05   6.6568638e-05  -1.0386209e-04   7.9347548e-05  -5.1203566e-05  -2.3117066e-06   7.2872376e-06  -2.4867988e-05   1.4617984e-04  -1.1402977e-04   3.5452834e-04  -3.1701679e-04  -4.5165344e-04  -1.0163253e-05   2.5125052e-04   2.1090898e-04   4.7301604e-05   2.3811035e-04   9.9961753e-06   2.0857408e-06  -4.9816376e-06  -1.3001461e-04   6.4750150e-04  -5.5770148e-03   3.4636111e-04   1.5174146e-04   2.1614207e-04   4.2621968e-03  -1.4409871e-03   4.1979942e-03  -1.3089379e-04   1.6533298e-04   1.9040889e-04   2.6800274e-04
   7.4325799e-05   2.7112917e-05   1.4922517e-05   5.2473893e-05   4.8728289e-06   2.6739363e-05   1.5434496e-04   9.5412128e-05   1.9085527e-04   9.5542513e-05   1.0352092e-04   4.6951391e-05  -1.2561394e-04  -1.2051454e-04  -8.7454529e-05   2.3569155e-04   2.8073948e-05  -2.2425425e-04   3.3166719e-04   1.1040305e-04  -5.4040680e-05  -9.7765433e-06   7.0355134e-05  -6.7347628e-06  -3.8050779e-04  -1.3078796e-04  -3.3113154e-04   3.5973618e-04   2.8892822e-04  -3.2497173e-06  -6.9294620e-06  -1.6496914e-04   6.2148698e-05   2.6524396e-04  -6.7342371e-05  -3.1331467e-04  -3.8968772e-04  -1.8437234e-04   9.4704615e-04   1.3765821e-03   2.9448740e-04   1.3791607e-04   1.6158231e-04   3.6839638e-03   6.5960647e-03  -2.1978661e-03   1.1909208e-04   2.2944162e-04   1.7181259e-04   2.1779096e-04
   6.5038614e-05   2.8405586e-05   1.1838592e-05   5.7001995e-05   9.6391623e-06   1.2004519e-04  -5.9386417e-05  -2.2860502e-05   2.0200617e-04   2.6990985e-05   8.8111425e-05   4.9107398e-06   4.1501728e-05   2.4494951e-04  -3.3033028e-04  -2.9592254e-04   6.8297254e-06  -2.1679697e-04   3.3777487e-04   9.5900607e-05  -5.3461234e-05  -1.4624810e-05   6.8781723e-05  -4.8435064e-05   2.0782910e-04  -1.2710356e-04   1.5477526e-04  -1.4921749e-04  -1.4308816e-03   5.1469857e-07   3.7743350e-05   2.1121063e-04   2.4858443e-04   4.6345136e-05  -1.1165733e-04   7.4409001e-04  -6.9894610e-05  -1.4929300e-04   6.9125369e-04  -8.2524316e-03   2.1356010e-04   8.7827648e-05   2.0489948e-04  -5.9633870e-03  -1.8617418e-04  -1.4418942e-03   8.5898828e-05   1.1147340e-04   1.8666351e-04   1.1844780e-04
   4.8321926e-05   2.5513369e-05   6.2564645e-06   4.7611895e-05   8.3284394e-06   4.2542939e-05   8.4750667e-05   1.3208482e-04   6.4687389e-05  -2.6402777e-05   3.0709347e-05  -4.4998738e-05   8.5525142e-05   1.6965807e-04  -1.0888374e-05  -2.6984912e-04  -1.1203820e-05  -5.3164895e-05  -5.9808935e-05   7.7748409e-05  -4.9734987e-05  -2.6431180e-06   6.9798742e-05  -4.1956653e-05  -2.4523423e-04  -1.2089023e-04  -2.6836203e-04   2.6316807e-04  -2.6422070e-04  -1.8259894e-05   3.3541786e-04  -1.3312735e-04  -8.9698078e-05   2.3974007e-04  -1.7772544e-04  -1.6170672e-04   6.3695611e-06  -1.2003798e-04   4.7032113e-04   1.4606615e-02   2.9634460e-04   1.5085106e-04   1.1939141e-04   3.7120087e-03   4.5066709e-03   6.5122696e-04   2.2693451e-04   2.8866957e-04   3.3534685e-04   1.8535912e-04
   7.9131722e-05   3.2944838e-05   2.5297053e-05   5.8887323e-05   1.3905120e-05   5.0484705e-05   2.3125780e-04   4.4701032e-05   2.3899591e-04   8.7171029e-05   9.1997572e-05   5.7073041e-05  -8.5692445e-05  -1.5045723e-04  -3.7887736e-07   8.8264736e-05   2.8114766e-05   1.8100549e-05   5.9273494e-05   7.5532247e-05  -3.5622059e-05   4.3833512e-05  -1.3814895e-06  -4.1758485e-05  -2.1291125e-04  -1.2806864e-04   8.5197491e-05   5.7166308e-04   1.8313131e-03  -1.6192165e-05  -7.5320600e-06   1.2922652e-04   2.2598164e-05   8.5788606e-06  -7.2033445e-06   2.8751479e-04  -5.0446991e-04  -1.1710243e-04   1.0248640e-03  -3.4643069e-03   1.8656520e-04   1.3020624e-04  -2.2290224e-05   1.5365982e-02  -1.4800951e-03  -8.4040000e-04   1.1424856e-04   1.0161597e-04   1.9439748e-04   1.6457944e-04
   7.0466420e-05   3.1314914e-05   1.5422793e-05   5.0918879e-05   1.1116393e-05   5.9406222e-05  -5.2268020e-05  -1.2401065e-05   1.1755067e-04   4.6444973e-05   9.3030430e-05   6.9204948e-06   7.3316573e-05  -2.4756830e-04   1.0165648e-04  -8.8732086e-05  -5.6064789e-07  -7.3013347e-05   3.7585403e-04   9.1906892e-05  -3.4400091e-05   4.6534646e-05   7.9430858e-05  -2.6383203e-05  -2.3729161e-05  -1.3169424e-04   3.7223008e-04   1.8599378e-04  -8.1139395e-04  -2.8974679e-05  -9.2379014e-06   1.1884557e-04   2.6911381e-04  -2.4148278e-04  -1.6751538e-04   1.8237068e-04   8.2438975e-04  -1.7522775e-04   5.2014104e-05   7.8141391e-03   7.0735230e-05   1.6200148e-04   1.4776719e-04   1.4901731e-02   2.8747835e-03  -1.2242791e-03   1.8155758e-04   2.3941374e-04   1.9461065e-04   3.5326267e-04
   6.3483225e-05   3.1246000e-05   9.7456586e-06   4.5244058e-05   9.7491402e-06   7.4414180e-05  -1.1931905e-04   1.0193497e-04   1.6113809e-04  -1.9244868e-05   6.0847633e-05  -3.4403758e-05   5.5417680e-05  -6.5478038e-05  -1.5697858e-04   8.8648740e-05   1.5410367e-05   5.1054725e-05   3.5578565e-04   7.4174728e-05  -4.1123712e-05   4.3828724e-05   5.4049975e-05  -6.9840615e-05  -2.0798411e-04  -1.1105577e-04  -5.0533359e-04   9.7271637e-05   7.7684934e-05  -2.1039401e-05   1.8195373e-04   2.8763953e-04  -3.4322275e-05   3.5262690e-04   1.6188338e-05  -2.1917566e-04   4.6772464e-05  -1.0884956e-04  -3.0583839e-04  -4.3173350e-05   1.8842296e-04   8.6285138e-05  -4.1915646e-05  -6.4622723e-03  -6.5927807e-04  -2.2044559e-03   2.4386329e-04   2.6801313e-04  -5.0099166e-05   1.0775427e-04
   8.8952838e-05   3.1668369e-05   2.5025836e-05   5.2667398e-05   1.5631098e-05   6.6706998e-05   2.4335668e-04   9.4533068e-05   3.1645788e-04   9.5273288e-05   8.0216530e-05   6.7040703e-05   5.3025662e-05   7.3119787e-05   1.7291802e-04   3.5756530e-05   1.7146960e-05  -5.6254576e-06  -3.7422658e-05   9.3485090e-05  -2.1461454e-05   3.2014195e-05  -1.2972666e-04  -4.6859328e-05  -1.6228165e-05  -1.1623165e-04  -2.5851675e-04  -1.0091401e-04   1.7117631e-05  -1.8230023e-05  -1.2105655e-04  -1.8551531e-04   1.0245090e-04   1.7059014e-04  -1.5198116e-05   6.0926063e-04   7.0196833e-04  -1.4694217e-04   4.3266693e-05  -2.1530590e-03   1.1038854e-04   1.5234375e-04   1.2207171e-04  -7.7890870e-03   1.0798114e-03   9.2887343e-04   4.4865377e-05   2.5873334e-04  -7.7598816e-05  -5.2387619e-05
   8.4041094e-05   3.1989959e-05   1.6289345e-05   5.4478660e-05   5.6949616e-06   7.7787183e-05   4.4710770e-05  -1.2466031e-04   2.6037698e-04   5.0038041e-05   7.7408928e-05   2.9093320e-05   5.9349833e-05   5.6461191e-05  -2.9456959e-04  -1.4793199e-04   1.3525424e-05  -1.2770147e-04   3.3464047e-04   1.0556103e-04  -2.4826651e-05   4.6654044e-05   5.5163742e-05  -1.1893239e-06  -6.2356434e-05  -7.8698184e-05  -7.5248986e-06  -6.4634689e-05  -7.2141644e-04   4.4587150e-06  -2.0487758e-04  -4.9715316e-05   3.4131870e-05   1.5648460e-05  -2.0640920e-04   6.9301517e-05   3.1779215e-04  -1.3659679e-04   4.3678464e-04   1.4284629e-02   2.3382844e-04   1.3677994e-04  -2.3083448e-05  -3.1794060e-03   1.3866597e-03   7.8257598e-04   2.1835225e-05   1.7396529e-04   2.0224854e-04   7.1189017e-05
   6.6433728e-05   3.1516804e-05   4.7708945e-06   4.9801023e-05   2.0605880e-06   6.7513938e-05   8.7082379e-05   4.6073168e-05   2.4319225e-04  -2.4389870e-05   6.3491956e-05  -3.3106491e-05   2.2837046e-05   8.2241604e-05  -2.0697934e-04  -4.5192972e-04   9.9631079e-06  -9.2872659e-05   3.2143207e-04   7.4874188e-05  -2.5738025e-05   4.8511229e-05   6.6004541e-05  -3.4045217e-05  -7.2858471e-05  -1.0840281e-04   4.7427439e-04   9.4075811e-05   2.8349776e-04   1.0311325e-05   2.3333554e-04   2.1611607e-04   2.7843914e-04   4.6530069e-04  -1.3486960e-04   4.6484685e-04  -3.2904244e-04  -1.0247841e-04  -1.2490228e-04  -5.0007068e-03   1.6072435e-04   1.5975379e-04   1.4299613e-04   1.8113561e-03   2.3954243e-03   1.9279537e-03   2.2400403e-05   2.3880589e-04   5.2162126e-04   1.6988904e-04
   7.7298289e-05   2.5101892e-05   1.4562548e-05   4.2671119e-05   1.9393759e-05   7.4608841e-05   3.9098602e-05   9.7620206e-05   4.7757545e-05   6.8740446e-05   6.1959217e-05   4.3658394e-05   1.1291733e-04   3.3595785e-04  -3.7003634e-04   3.5813994e-06   2.0144418e-05   2.4827612e-05  -4.5926783e-05   1.1171803e-04  -1.3149453e-05   3.8229980e-05  -7.0031580e-05   6.2603431e-06  -1.5991827e-04  -7.9473815e-05  -1.8651117e-04   3.5474132e-04   4.5370249e-04  -1.3426422e-05   1.0345077e-04  -8.6154985e-05  -4.9529026e-05   4.1611775e-04   5.9442915e-05   4.1859568e-04   2.1785081e-04  -1.2710750e-04   1.2383438e-04   8.4083648e-03   3.7866965e-04   8.5655396e-05   5.2872492e-05   8.5701531e-04   3.5424621e-03   1.9892482e-03   9.6990421e-05   2.0353439e-04   2.6592275e-04   3.8175218e-05
   8.5944070e-05   3.2291049e-05   1.1441802e-05   4.7058453e-05   1.7069458e-05   6.1004921e-05   1.1186908e-04  -1.5764218e-04  -2.7934639e-05   5.1655024e-05   7.8175632e-05   2.6338823e-05   5.2614476e-05   3.0346830e-05   1.8325144e-04  -1.5573144e-04   1.0116388e-05  -1.0120784e-04   1.5956812e-04   9.2443042e-05  -1.5312406e-05   4.0627874e-05  -6.0859759e-07  -2.6625850e-05   3.0320362e-04  -7.3699761e-05  -6.7698144e-05  -7.3674899e-05  -2.9250360e-04  -1.5652457e-05   2.4984727e-04   2.0364713e-04   1.9354367e-04   6.0382002e-04   9.3555216e-05   4.1114996e-04  -3.0878780e-04  -1.3147133e-04  -2.8678591e-05   2.7910455e-03   3.7119462e-04   9.7413300e-05   8.5914231e-05  -2.8727911e-04  -1.5127623e-03   1.5663941e-03   1.8230461e-05   3.6603629e-04   1.7003916e-04   1.5826228e-04
   6.9826412e-05   3.0220937e-05   3.7528603e-06   4.8161328e-05   6.7127797e-07   2.0747975e-05   8.3094921e-05  -9.5028518e-05   9.7430520e-06  -1.5534915e-05   5.0330538e-05  -4.0972820e-05   3.0801777e-05   1.1309538e-04  -1.5090000e-04   7.4616415e-05  -9.6344149e-07  -1.7061131e-05   5.7360571e-04   1.0627854e-04  -2.5217756e-05   6.2045670e-05   2.7147398e-05   2.4614068e-05  -2.7784568e-04  -6.0787046e-05  -6.9168062e-05  -1.5454460e-04   1.6512076e-04  -2.0254067e-05   1.2937248e-04   1.0497297e-04   6.6279201e-05   3.9275759e-04  -2.4308200e-04   3.8101594e-04   1.4383454e-04  -1.4424569e-04   3.8920258e-05  -5.7771560e-03   6.6663502e-05   6.6116139e-05   8.1633487e-05  -4.7720871e-03  -1.5876701e-04  -1.4033614e-03   1.9201013e-04   1.6863985e-04   3.1170403e-04   6.2179060e-05
   6.1530627e-05   2.9377134e-05  -4.3029127e-06   4.3742304e-05  -2.3520658e-06   8.1268670e-05   8.1141952e-05  -1.7038942e-04   4.8828620e-05  -9.1925402e-05   3.6241556e-05  -8.2987055e-05   3.0960673e-05  -1.2916504e-04  -8.3389714e-05  -1.4746869e-05  -1.6270961e-06   2.8540702e-05  -5.4041884e-06   9.0578993e-05  -2.6403422e-05   4.3624441e-05   1.4584307e-05  -2.2729324e-05   1.7027663e-04  -5.5402234e-05   3.9455865e-04  -3.3523867e-04  -2.6195581e-04  -3.6716247e-05  -1.8670129e-04   1.6153818e-04   2.1265752e-05   1.4032632e-04  -6.7203873e-06   1.6437760e-04   1.1846384e-04  -9.3223840e-05  -4.0410399e-05  -1.8054052e-03   2.2478928e-04   1.1307997e-04   7.9733953e-05   6.8630814e-03  -2.0936707e-03  -1.9862567e-04   8.4342857e-05   1.6507223e-04   2.5206438e-04   4.0357132e-05
   8.4986052e-05   2.8491282e-05   1.4216192e-05   5.1715466e-05   1.9010185e-05   7.1427479e-05   2.0145351e-04  -3.9820286e-05   6.6216773e-05   5.7748144e-05   8.8997062e-05   4.0428960e-05   1.7586205e-04   1.4702811e-04  -2.4813407e-05  -1.0183032e-04   2.1025642e-05  -9.1665694e-05  -5.0095940e-05   9.9908902e-05  -1.6149959e-05   3.1880154e-05   6.4200118e-05   4.5485587e-05  -2.1074699e-04  -5.9205115e-05   2.4463722e-04   1.9934414e-04   6.3486485e-04  -1.2111436e-05  -4.2842206e-05   1.5701953e-06  -7.1297807e-05   6.7073677e-05  -9.2889186e-06   2.3432577e-04  -6.6551715e-06  -1.3238910e-04   3.5838940e-04   3.4641048e-03   1.4722055e-04   8.8431254e-05  -4.9479545e-06   1.9208937e-03   5.5555050e-04  -3.0812676e-04   1.6920625e-04   1.4589442e-04   4.8941569e-05   1.5817457e-04
   6.6907000e-05   2.6450081e-05   4.5315796e-06   4.7951860e-05  -1.0114106e-06   1.3107707e-05   6.8752823e-05   1.7278040e-04   1.5753890e-04   1.3907529e-06   9.3761941e-05  -4.2647898e-06  -4.4098204e-05   6.3447776e-05  -1.0180251e-04  -1.1250407e-04  -4.0756684e-05   7.9852485e-05   3.1395926e-04   8.3253173e-05  -2.1581669e-05   2.5307403e-05  -9.4141098e-05  -2.6744729e-05  -2.0272640e-04  -8.8016037e-05   2.4377044e-04  -1.5671362e-04  -3.2239134e-04   2.7216154e-05   1.1147876e-04   7.0931041e-05   5.6707991e-05  -1.3474599e-04  -1.5572387e-04  -6.2628234e-05   3.3813348e-04  -8.4025458e-05   3.4305329e-05  -1.2394296e-02   1.1170202e-04   9.4193398e-05  -2.5006827e-06  -5.2889874e-03  -1.8653217e-03  -1.1320495e-03   1.2736014e-04   3.0724096e-04   3.0903801e-04  -2.4326605e-04
   4.8792779e-05   2.3317818e-05  -6.7500964e-06   4.8610953e-05   6.4422085e-07   4.8054175e-05  -3.0926734e-05   1.9947274e-04   1.2558796e-04  -7.1931339e-05   5.2482534e-05  -6.4269407e-05   2.5882327e-05   9.7214754e-05  -7.4874013e-05  -3.2459915e-04  -8.6812688e-06   4.5373989e-05   5.9024064e-04   1.0243744e-04  -2.3836930e-05   6.9864160e-05   2.6113054e-05  -4.0714531e-05  -3.7945146e-04  -1.0690319e-04   3.4850556e-04   4.9207561e-06  -4.6799291e-04  -8.8082334e-06  -7.9368670e-05   1.8193202e-04   2.8749599e-04   2.0410612e-04  -8.3449915e-05   2.1673330e-04   7.5026380e-04  -1.4845713e-04  -1.1469660e-04   3.2388102e-03  -7.1619244e-05   6.7630572e-05  -1.3092098e-04   1.9534880e-02   4.8112494e-04   2.2874068e-04   1.3009163e-04   9.0495545e-05   1.1507671e-04   2.1387775e-04
   7.7386489e-05   1.9487914e-05   1.7082230e-05   4.6446221e-05   1.2665785e-05   2.2638664e-05   7.0852919e-05  -1.7597320e-04   1.1950431e-04   4.7921159e-05   6.9773218e-05   4.3375141e-05  -9.9994017e-05   2.4255044e-04  -6.5525637e-05  -1.4259412e-04   3.5285841e-06   4.5276720e-06   2.0644165e-04   8.8797759e-05  -1.1265243e-05   3.7940841e-05   3.4511660e-05  -2.9539286e-05   5.0937088e-05  -1.0225936e-04  -3.8882121e-04  -2.4029009e-06   1.2130422e-03  -3.5628748e-06  -1.0927714e-05   2.8961673e-04   1.0186135e-04   3.1246388e-04  -1.4565924e-04   9.1875438e-04  -1.7778708e-04  -1.4705540e-04  -2.5176522e-04   4.9824682e-03   3.4231736e-04   1.4159884e-04  -1.2378259e-04   2.8276946e-02   1.3971279e-03  -1.6137732e-03   1.0531026e-04   3.9797486e-04   1.9279274e-05   3.7856447e-04
   6.1732761e-05   2.1979378e-05   4.0227219e-06   5.2419637e-05   2.7464321e-06   7.8819998e-05   1.7320878e-04  -1.1582706e-04   1.6900321e-04   1.9096355e-05   5.9522186e-05   5.0603890e-06   1.1662772e-04  -1.8028343e-04  -7.6130091e-05  -7.3028343e-05  -8.7967273e-06  -3.1850930e-05   6.7045905e-05   6.2219646e-05  -1.3517802e-05   2.9154289e-05   6.0768449e-05  -7.9970469e-06   1.4334726e-04  -7.8677003e-05  -4.6714125e-05  -1.6543752e-04  -1.1949513e-04  -2.7176304e-05  -1.5771914e-04  -5.3373806e-04   9.3697425e-05  -1.5614681e-04  -1.5473976e-04   6.7362899e-04  -1.6842391e-04  -6.3490581e-05   3.4998919e-04  -6.8972805e-03   1.3745629e-04   1.0290943e-04   6.7755027e-05  -4.1401400e-03   5.6878146e-04   8.1847428e-04   6.4579370e-05   9.8860553e-05   8.7043110e-05   3.9187118e-05
   5.3816770e-05   1.6729142e-05  -1.0567008e-05   4.5701676e-05  -1.7140051e-06   4.2025957e-05  -1.6477404e-04   1.3120122e-04   1.9398319e-04  -5.4559303e-05   2.7965396e-05  -6.4306696e-05   1.1454533e-04   7.7421544e-05   1.0760347e-04   5.0559756e-05  -3.7435770e-05   2.9819304e-05   2.7213397e-04   9.2525966e-05  -2.0057156e-05   5.1496419e-05  -1.8255438e-05  -1.5274858e-05  -5.9787802e-05  -7.0303875e-05   3.2505393e-04   1.3332300e-04  -2.9632485e-05  -4.8625756e-05   4.3033004e-05  -7.4169715e-05  -8.8889428e-05   2.0980429e-04   9.8845230e-06  -5.4080680e-05  -6.0705701e-05  -4.0109062e-05   4.5165341e-04  -2.3046157e-03  -3.5492124e-04   8.9597044e-05  -2.0659696e-04   1.0390439e-04   1.3332464e-03  -2.3126684e-03   5.4952288e-05   1.7086176e-04   3.8972573e-04   8.1916696e-05
   6.4367247e-05   7.6931647e-06   1.0335913e-05   5.2354877e-05   1.5938629e-05   1.0201817e-04   1.0338250e-04  -6.4106040e-05   6.8687979e-05   4.9868664e-05   7.1574374e-05   4.7854814e-05   7.9727462e-05   5.4183696e-05  -9.2846320e-05   1.2978770e-04  -1.6144611e-05  -6.4806867e-05   3.2508996e-04   1.1633061e-04  -9.9791778e-06   3.8658705e-05  -7.1453112e-05   2.0212910e-05   4.7568770e-05  -4.7112502e-05  -3.7180813e-05  -9.8227640e-05  -3.5829705e-04  -1.5665051e-05  -1.2406858e-04   3.8229447e-04  -4.5727083e-05   5.8486687e-05   8.0650745e-05  -1.6763064e-04   1.4317744e-04  -1.4984232e-04   2.5636223e-04   8.2490854e-03   2.9848848e-04   9.6998563e-05  -1.6855042e-06  -7.0908357e-04   1.3662479e-03  -2.6704615e-03   1.1882965e-04   1.6673596e-04   5.4946489e-05   2.9175724e-05
   5.6297038e-05   1.4539244e-05   6.6763573e-06   6.0652696e-05   8.3139703e-06   4.9305236e-05  -2.4668183e-05  -1.3189700e-04   2.6917024e-04   1.8319590e-05   7.0392955e-05   7.4741465e-06  -6.8709181e-07   7.0404916e-05   4.3996472e-05  -1.6295859e-04  -4.0123578e-07  -2.0300828e-05   8.9825990e-05   8.2124883e-05  -1.0352473e-05   4.0489620e-05  -4.9138198e-05   4.0043833e-05   1.0988339e-04  -4.7750615e-05  -2.3054845e-04   4.0568068e-04   6.3776691e-04  -1.9236430e-05  -5.2873460e-05  -2.6718111e-04   1.1250986e-04   1.9251542e-04   2.2990778e-04  -9.1358874e-05   3.7337915e-05  -1.3694167e-04   4.9088045e-04  -7.3519936e-03   3.4994239e-04   5.4161126e-05   1.0277361e-04   3.5949659e-03  -1.2598820e-04  -1.6463731e-03   2.1662148e-04   1.3146106e-04   1.9911576e-04   1.0177596e-05
   4.4541117e-05   6.0464131e-06  -4.7071057e-06   5.7661640e-05   2.5984457e-06   7.5607139e-05   2.1295618e-04  -2.2197346e-04   3.9974399e-05  -5.3013639e-05   2.0003970e-05  -5.8727885e-05   1.5809346e-05   6.8406240e-05  -9.2374394e-05  -2.8699153e-04  -2.2907690e-05  -6.5762804e-05   2.2906389e-04   9.1525508e-05  -1.5804904e-05   6.7173814e-06   2.0940059e-05  -1.9477306e-05  -1.8730304e-04  -9.6806489e-06   1.7558194e-05   1.6569486e-04  -1.3507811e-03   4.1141693e-06   5.9163529e-05   7.2817602e-05   3.9278897e-05   4.2540696e-04  -1.6432467e-04  -5.7713809e-05  -3.9823790e-04  -1.2175009e-04   6.6512887e-04   8.3302753e-03   1.5554190e-04   2.4817660e-05  -1.4539897e-04  -5.9023234e-03   2.2065034e-03  -6.7431579e-04   1.2486063e-04   2.1776855e-04   1.2000720e-04   8.2785613e-05
   6.3566811e-05   2.8821275e-06   1.5694308e-05   6.2281193e-05   1.1390766e-05   5.7857371e-05   4.1527506e-05  -4.7343719e-04   1.5566771e-05   5.3142441e-05   6.5608547e-05   5.0101979e-05   8.1442173e-05   5.4089222e-05  -5.6062621e-05  -1.2481300e-04   5.0751612e-07  -4.7693124e-05  -1.2324157e-04   5.9588965e-05  -2.3737093e-06   1.5284841e-05   7.0613511e-05  -5.5445475e-05  -1.2869557e-04  -4.5792061e-05   2.3775414e-04   1.7001200e-04   2.1414271e-04  -4.1690852e-05  -2.6555109e-04  -2.2219704e-04   1.5363704e-04   3.1329782e-04   4.0688752e-05   2.2846559e-04   8.6976266e-05  -1.0181172e-04   6.9201924e-04  -9.5672579e-03  -5.0011480e-05   3.6715996e-05   1.3003571e-04   3.9408011e-03   1.2818072e-04   8.8591914e-04   1.6317233e-04   2.1681799e-04   6.2829866e-05   1.7781592e-04
   4.9753024e-05   7.3134497e-06   2.7955098e-06   6.1274986e-05   6.6606731e-06   7.1481758e-05  -6.8199821e-05  -2.7954002e-05   2.5732469e-04   1.6368251e-05   7.4860553e-05   9.2041682e-06   9.4020783e-05   2.4227220e-04  -1.0074353e-04   1.3841185e-04   1.5674792e-06  -3.5903668e-05   5.9951539e-04   1.0032233e-04  -9.6452895e-06   5.4317865e-05  -3.8156682e-05  -5.9996109e-06  -9.4938587e-05  -1.8276356e-05   2.1433525e-04  -6.5722328e-04   7.5886003e-04   5.2471946e-06  -2.8005326e-05   1.7777452e-04  -1.1076817e-04   5.7988614e-04  -1.2750976e-05   5.2083994e-04   5.9195963e-04  -1.3563700e-04  -3.3716619e-04   1.2544216e-02   1.1824992e-04   2.1651382e-05  -6.6402346e-05  -3.3427184e-03   4.4991369e-03  -1.2747041e-03   1.2385877e-04   2.4237009e-04   1.4513118e-04  -1.3127080e-04
   4.0627128e-05   5.7264642e-06  -3.0936553e-06   6.1681938e-05  -4.9655593e-08   7.7860284e-05  -7.5924698e-05  -1.1248174e-04   1.5547266e-04  -5.2593969e-05   3.3004861e-05  -5.4658103e-05  -5.9084694e-05  -5.9056902e-07  -2.0909234e-04  -6.0800921e-05   3.6816211e-08  -1.1869905e-04   9.6393662e-05   9.4436211e-05  -1.8135652e-05   3.4136792e-06   7.0177724e-05  -5.3913434e-05   1.1360804e-05  -9.6446656e-06  -2.7379204e-04   9.4193259e-05   1.2780706e-03  -3.5358309e-05  -9.9051656e-05   2.1282722e-04   1.0765489e-04  -4.5790622e-04  -1.0024088e-04   7.1267015e-04   2.5805211e-04  -6.4728767e-05  -6.8607193e-04   1.2328245e-03   2.5052147e-04   7.2288698e-05  -1.6471824e-05   2.3582184e-03   5.1348604e-04  -2.9219626e-04   1.0867335e-04   9.5626143e-05   3.6374517e-05  -8.3647035e-05
   5.8807134e-05  -2.3025077e-06   1.8463234e-05   5.9962364e-05   1.2110949e-05   6.1951032e-05   1.1071538e-04  -2.8542518e-06   3.1196783e-04   5.4268785e-05   5.6864148e-05   3.3951721e-05   9.9006036e-05  -4.7906415e-05  -1.2125326e-04   7.8026984e-05  -4.3525171e-05  -3.2920103e-05  -5.2761334e-05   8.4183994e-05   2.8653236e-07   3.7561644e-05   4.5295128e-05  -6.7582660e-05   1.3077843e-04  -2.6710346e-05   2.9659536e-04  -1.2914935e-05  -4.4420952e-04  -1.8231021e-05   1.5667923e-04   8.3697742e-05  -3.3538188e-05   1.0595610e-04  -2.8715614e-05  -3.0918309e-04   4.1812262e-04  -8.7912544e-05   3.4566372e-04  -2.2011569e-03   1.5728394e-04   3.1045638e-05   3.9801191e-05   1.2440231e-03  -2.3811960e-03  -9.4616378e-04   1.7717942e-04   6.3854204e-05  -7.3314193e-05   1.0998452e-04
   5.4661072e-05   8.9120294e-06   1.1323560e-05   6.6582346e-05  -5.6537815e-06   7.8710407e-05  -2.3374936e-05  -4.3727126e-05   9.2066795e-05   1.4906915e-05   8.5451982e-05   1.9888223e-06  -9.9593468e-05  -1.0899990e-04   4.8584032e-05  -2.4668864e-04  -2.4447263e-06   2.3855297e-05  -2.5002224e-05   7.1338232e-05  -8.2074876e-06   3.8720562e-05  -6.8389214e-05  -7.1044160e-05  -7.9603715e-06   2.8957888e-06   3.6093610e-04  -2.8130770e-04   2.8650663e-04  -1.1396934e-05  -2.4180931e-06   1.5981920e-04   6.4467684e-05  -2.5582535e-04  -1.0926239e-04   3.6771921e-04   2.2018461e-04  -1.7195765e-04  -1.2944604e-04  -2.1334970e-03  -1.6023032e-04   4.0373765e-05   1.0607178e-04  -1.6099891e-03  -8.1679790e-04   2.9053260e-03   4.2277654e-05   6.2176601e-05   7.3203715e-05   7.2239382e-06
   4.5395253e-05   1.2438472e-06   9.9829336e-08   5.6553356e-05   4.0981713e-06   6.2398329e-05  -4.2112664e-05  -1.3637517e-04   3.3804178e-04  -5.5326600e-05   3.4918139e-05  -4.5691500e-05  -9.4640578e-05  -2.7829061e-05  -4.6149653e-04   2.8438380e-04  -1.8773362e-05  -2.7329403e-05  -1.9494296e-04   9.4387375e-05  -1.3778517e-05  -1.7998546e-07  -4.0119565e-05  -7.3208765e-05   1.3166366e-04  -2.5413459e-05  -4.9701135e-04   2.4937434e-04   1.2703834e-04   1.5055513e-05  -3.1945249e-04   2.7263741e-04   3.7429178e-05   4.8932759e-04  -1.2531146e-04   8.8608624e-07  -2.1511340e-04  -6.7620102e-05   4.4442088e-04   1.2653558e-02   9.6426324e-05   5.0449125e-05  -3.7723130e-05  -4.8513510e-03   1.3300114e-03   1.1397342e-03   8.8529974e-05   1.2610877e-04   4.6905752e-05  -2.0624492e-04
   3.7417012e-05  -1.0493870e-07  -9.5528985e-06   5.0906234e-05  -1.3215107e-06   3.5273621e-05  -2.4309538e-04   1.9811989e-04   1.5274622e-04  -2.2545273e-05   1.4154137e-05  -2.3401270e-05  -1.3766899e-04  -3.8830633e-05  -7.4326555e-05  -6.3231404e-05  -1.8640027e-06  -7.2979128e-06   2.0218740e-04   6.4087777e-05   4.8940087e-06   4.0282146e-05   6.6951630e-05  -8.4033643e-05  -1.0580352e-04  -6.7498258e-06  -7.2495961e-05  -8.7871107e-05  -3.7862433e-04  -3.1661646e-05  -2.0113690e-05  -1.5180159e-04   8.2615552e-05  -1.0695163e-04   6.3568368e-05   2.1136657e-04   2.8631152e-04  -2.6622545e-05   4.5816341e-04  -7.1386467e-03   4.7976777e-05   6.3672465e-05   4.9802209e-05  -2.8950933e-04  -4.5165094e-04  -7.5070752e-04   4.6397974e-05   1.7342581e-04  -2.4600013e-04   7.5230669e-06
   5.9363818e-05   6.9625512e-06   9.2766777e-06   5.4971413e-05   2.2945821e-07   3.1991585e-05   3.1808901e-05  -1.0123885e-04   2.1796019e-04   1.9065605e-05   6.0299364e-05   1.1092026e-05  -1.7386730e-04   2.3483844e-04  -1.7187343e-05   1.2100009e-04  -3.8131532e-06   8.8483925e-05   4.4695211e-05   5.4539669e-05   1.2459736e-06  -1.5224456e-05   3.1651859e-06  -3.5813420e-05  -2.2887984e-04  -2.1901165e-05  -3.5707024e-04   1.3130599e-04  -4.0710736e-05   1.0708573e-05  -8.8065157e-05   1.0068611e-04  -3.2398890e-05   6.1315899e-05  -1.1374470e-04   1.1986625e-05  -5.4514076e-06  -1.0835050e-04   6.5561029e-04   2.5743200e-03   2.9169954e-04   4.3258620e-05  -2.5710714e-04   7.7531040e-03  -3.1458798e-03  -1.7038713e-03   1.6732343e-05   1.8658968e-04   2.8917758e-04   2.1635511e-04
   4.3507647e-05   3.2861401e-06  -3.6850342e-06   5.3515010e-05   8.2301727e-07   1.0252652e-04  -1.3664342e-04   1.6159560e-04   1.3997628e-04  -3.1418029e-05   4.2769650e-05  -4.0601335e-05  -4.9689170e-05   8.7551642e-05  -1.6270136e-04  -2.1100821e-05   4.4891972e-06  -4.9874954e-05   1.7278173e-04   6.3677100e-05  -7.4386476e-06   9.0554504e-06   3.6418478e-05  -8.2983985e-05  -1.1059095e-04  -2.7149055e-05   1.4198972e-04   3.3511929e-04   9.8568050e-04  -2.1345677e-05  -4.3114342e-05   7.2447976e-05  -1.3238483e-04   1.6912066e-04  -3.1052783e-05  -2.4246209e-04   8.3958614e-05  -1.0993056e-04   1.8997645e-04  -9.8005226e-03   2.2986929e-04   2.7593574e-06   1.6169828e-04  -3.7528109e-03  -2.3079291e-03   4.8183714e-04   3.3301571e-05   4.2533997e-05  -2.3252122e-05   8.6037771e-06
   3.1369818e-05  -5.7985892e-07  -1.1259430e-05   4.7697853e-05  -1.6824248e-06   6.1497507e-05  -8.7318760e-05   1.2793906e-04   5.0940856e-05  -4.5979552e-05   5.6988133e-06  -4.4536679e-05  -7.7731595e-05  -6.5543398e-05   6.8891918e-06  -2.1491949e-04  -2.2989656e-05  -3.4568784e-05   7.7441866e-05   8.8109053e-05   9.4337602e-06  -1.6402955e-05  -3.1720720e-05  -6.8708527e-05   8.5242355e-05   9.9390381e-06   6.0883217e-04  -1.7610143e-04  -7.3351612e-04   7.7749855e-06   1.3812853e-04  -1.1007545e-04   7.1060917e-05  -9.1401860e-05   1.4324300e-04  -1.6691245e-04   2.4593982e-04  -1.4280537e-04   2.8190951e-04   4.6591572e-03  -1.4631056e-04   1.2003993e-04   1.0953517e-05   2.1654801e-03   3.9887647e-04   2.2892539e-04  -4.9454982e-05   6.6587461e-05   9.6104959e-06  -2.4320161e-05
   5.3048367e-05   2.6274290e-06   4.4949434e-06   5.9707669e-05  -1.9831725e-06   2.4444893e-05  -1.1831723e-04  -6.1232604e-05   2.5071201e-04   3.4967503e-05   8.3122650e-05   1.9070611e-05   9.4594645e-05  -8.7871122e-05  -1.1547373e-05  -1.0496856e-04   4.7075537e-06  -6.0043196e-05   1.4143804e-04   6.7865869e-05   3.5265407e-07   8.3623299e-06  -6.8715570e-05  -8.9205896e-05  -2.0482372e-04  -1.7093966e-05   2.6608436e-04  -1.4258367e-04   1.4238534e-03   1.4534504e-05  -7.6404940e-05   1.4693181e-04   9.8224831e-05   1.4934664e-04  -5.3335472e-05  -2.8504193e-04   1.7685085e-04  -5.2619656e-05  -3.4869116e-04   5.6472574e-03   4.2550036e-04   8.9203830e-05  -1.1669161e-04   3.5080558e-03   1.8915214e-03   2.3172568e-03  -6.8462705e-06   4.1380219e-05   1.1077701e-04   2.8780382e-04
   5.1153700e-05   1.1182540e-06  -1.0555938e-05   3.9465642e-05   2.5469469e-06   8.6761924e-05   8.7673674e-05   1.1028501e-04  -1.6496182e-05  -2.8961604e-05   6.3502135e-05  -3.7473656e-05   6.1158127e-05   1.1400068e-04   1.1779696e-04  -2.3631347e-04  -1.9015515e-05   8.8839124e-06   2.8016182e-04   5.4898443e-05  -4.6238788e-06   1.6095988e-05   2.7798442e-06  -4.6856418e-05  -2.7963560e-04  -1.8082756e-06  -1.7090490e-05   4.7120923e-04  -3.1005815e-04  -6.9003357e-07  -7.8776939e-05  -1.6983421e-04  -2.4259207e-04  -1.5019652e-04  -4.1488074e-05   1.7024150e-04  -1.5478711e-04  -1.3367577e-04   6.0166576e-04  -1.0255489e-02   1.9365252e-04   1.6039023e-05  -5.4297710e-05  -8.3527833e-05  -2.1462184e-03   3.1320556e-04   2.6299527e-05   4.8354374e-05   3.6533027e-05  -2.8511148e-04
   3.4610046e-05  -3.1416062e-06  -1.5751248e-05   4.4980599e-05  -3.7180957e-06   2.3411802e-05  -5.5175045e-05   9.2943046e-05   7.5144198e-05  -8.1424500e-05   2.0847978e-05  -7.5716547e-05  -3.6112309e-05  -9.3006684e-06  -1.8034538e-04  -2.0002204e-04  -1.7420218e-05  -4.3372907e-05  -3.9865874e-04   9.1023707e-05   5.0176131e-06   1.7128170e-05  -5.7257530e-05  -4.7566969e-05  -2.3987397e-04  -2.0187072e-05  -2.2734921e-04  -9.3435643e-05  -2.4997763e-04  -3.5158675e-07  -1.1018111e-05  -8.1844621e-05  -8.9987203e-05   4.0105940e-04  -1.4470436e-04   2.8516009e-04  -2.5057138e-04  -1.0865417e-04  -8.9329886e-05   2.3644471e-03   2.2971250e-04   8.0797319e-05  -5.3013580e-05   1.1997962e-02   2.8513640e-03  -3.2365359e-03   1.0357797e-04   2.4278792e-04   1.8448388e-04   3.8837967e-05
   5.9545684e-05   2.0786397e-06   4.2572983e-06   5.6093701e-05   3.4399015e-06   8.4951153e-06   6.7454334e-07  -8.4642979e-06   2.3892352e-04   4.8654612e-05   7.2611132e-05   3.9137107e-05   2.3212761e-04   9.6118281e-05  -4.9153219e-05   2.0299673e-04   1.9656276e-05   5.8601781e-05  -9.3089482e-05   8.9232213e-05   5.3812864e-06   2.6393076e-05  -3.6109854e-05  -6.8108711e-05   1.0413785e-05  -1.3811155e-05  -1.1827682e-04   1.5930117e-04  -1.9972662e-04   1.5986408e-05  -2.4795937e-04  -2.1558712e-05  -7.7900950e-07   9.1679554e-05  -2.8993427e-05   3.0690531e-04   1.0063036e-05  -1.1576257e-04  -1.7139799e-04  -1.3989110e-03   1.8140821e-04  -7.0354122e-06  -1.3773829e-04   8.2232896e-03   3.2217347e-03   1.1612545e-04   8.9897083e-05   1.4998230e-04   2.7768678e-05   1.2114550e-04
   4.6979065e-05  -2.6968080e-06  -1.2469618e-05   4.6549547e-05  -9.0100611e-06   1.8425042e-05   5.8378464e-05  -2.1115616e-04   1.2801118e-04  -1.6023889e-05   6.5753011e-05  -9.6819876e-06   1.1939935e-04  -2.3817743e-06   9.8263576e-05  -1.9532637e-04  -3.1009142e-06  -6.7613541e-06   2.5556213e-04   5.9422582e-05  -5.6110741e-07   1.0054134e-05   3.4221495e-05  -7.6165314e-05  -8.6622655e-05  -4.7455640e-05  -3.6006907e-04  -1.7778086e-04   5.3988502e-04  -1.9089548e-06  -1.7713894e-05   2.8810615e-04  -7.2423718e-05   8.1078084e-05   4.2113730e-05  -3.7636317e-04   5.6912203e-04  -7.2787414e-05   4.5894913e-04   1.4845437e-03  -1.0783914e-04   5.9384482e-05  -5.3624084e-05  -1.0107254e-03   1.5057117e-03  -3.0317574e-03   4.0170613e-05   2.2746586e-04   9.8960472e-06  -2.9414707e-05
   3.9622460e-05  -5.5404234e-06  -2.0097033e-05   4.2338685e-05  -6.1892051e-06   3.3858349e-05  -5.3870630e-05  -6.0725397e-05   5.8539317e-05  -7.3279502e-05   3.4533947e-05  -6.1158040e-05  -1.2778635e-04   1.0837771e-04  -1.8958983e-04  -4.7292488e-04  -1.7749593e-05  -3.0642110e-05   3.7237428e-04   4.5419711e-05  -2.4365545e-06   2.6470350e-05   3.7534330e-05  -4.6818113e-05  -1.0067993e-04  -6.1234939e-05  -2.4797604e-04   1.3165275e-04   1.4369473e-03  -7.7791929e-06  -9.6337157e-05   2.9231346e-04   9.0918445e-05   1.6641404e-04  -1.0735409e-05  -1.1089881e-04   2.1691825e-05  -5.7863454e-05  -2.7842663e-04   2.9479743e-03   1.1718102e-04   5.5847442e-05  -3.5847075e-05  -6.7898845e-03  -2.2670520e-03  -1.1182177e-03   1.0202466e-04   4.8516253e-05   2.7525178e-04  -1.2313256e-04
   5.8616020e-05  -2.3148380e-06  -1.1252598e-06   5.5168060e-05   8.7584758e-06   4.6024408e-05   4.8483842e-05  -3.1361519e-04   1.3090250e-04   7.0648559e-05   7.6694247e-05   5.9625345e-05  -6.6715627e-05  -1.7956041e-05  -5.4755644e-04   2.8022184e-04  -3.5994378e-06  -2.4727367e-05   1.8769498e-04   6.2781546e-05   1.4386687e-05   3.8509686e-05  -5.2645482e-05  -2.3556318e-05   3.3369716e-04  -8.6382141e-05   6.4665721e-05  -2.6936200e-04  -1.7337576e-03  -1.1541715e-05  -3.8732676e-05   1.2177355e-04   7.9089456e-05   3.4856712e-04   2.5711406e-05   5.7885936e-04  -2.3574644e-04  -8.1777791e-05  -3.0371177e-04   5.1816856e-03   1.4561140e-04   1.1090281e-04  -2.0825524e-04   7.7790010e-04  -1.4779882e-03   2.2983765e-03  -3.7346355e-05   9.0155212e-05  -1.8035933e-04  -5.2942956e-05
   4.6635487e-05  -3.2563971e-06  -1.1032248e-05   4.9997285e-05  -4.9393411e-06   4.0096031e-05  -8.3451574e-05  -3.5301270e-04   1.5743106e-04   1.4352742e-05   5.5678469e-05   1.3714846e-05   1.7311766e-04   1.0264270e-05   1.3162527e-04  -1.8755248e-04  -1.5858376e-06  -6.3822197e-05  -4.9697483e-05   2.9187600e-05   4.7148242e-06   1.0617154e-05   8.9879817e-05  -3.5731835e-05   1.4667395e-04  -4.8539958e-05  -5.3607982e-05   9.7057484e-05   1.5601979e-03  -1.4526984e-06   3.4289402e-05   3.3770991e-04  -1.5878053e-04   3.9052520e-06  -4.4691809e-05  -8.4293228e-05  -1.0611821e-05  -7.3807620e-05   2.2296616e-04  -6.7965160e-03   4.0602787e-05   5.2125084e-05  -3.4181969e-05   4.8425756e-03   4.4239024e-03  -8.6168543e-04   1.5407564e-05  -1.1944397e-05   5.1473526e-05   4.4909273e-05
   3.3527827e-05  -9.6331360e-06  -2.4461218e-05   4.6249006e-05  -3.2298126e-06   5.2697844e-05   1.0944886e-05   1.4182604e-04   1.0887177e-04  -6.0664523e-05   2.0600211e-05  -5.5196564e-05  -8.3622181e-05  -6.0121263e-05  -1.5057619e-04   1.6532505e-04  -1.3703126e-05  -1.1552669e-04  -9.2954433e-05   5.0565617e-05   5.5063792e-06   1.6486187e-05  -2.6990287e-05  -5.1246996e-05   2.2669602e-04  -8.3218384e-07  -2.3332088e-04   1.5050525e-04   4.2537772e-04  -1.6194403e-05  -1.8732237e-04  -8.6794258e-05  -7.5204895e-05   3.1747695e-04  -4.2599710e-05   3.3765708e-04   8.9033513e-04  -7.3487601e-05   5.4841489e-04  -2.9636659e-03   1.2163462e-04   6.0117178e-05  -1.1689273e-04  -5.2675423e-03  -2.1465218e-03  -7.9757988e-04   1.0330124e-04   2.0823561e-05   2.9790486e-04  -2.7444825e-04
   4.3551408e-05  -1.5100588e-05  -3.6967201e-06   5.6102908e-05   4.3575719e-06   2.6398979e-05   1.2275371e-04  -2.1790488e-04   1.6607161e-04   4.7238314e-05   6.2121806e-05   4.7125668e-05   3.5232028e-05   1.1025805e-05  -5.1757687e-04   1.9524377e-04   5.3770059e-06   8.5855048e-05  -2.2156264e-04   6.0887916e-05   2.4551375e-05   3.2385364e-05  -4.2959891e-05  -4.6731286e-05   1.8719226e-04  -1.9934849e-05  -5.5059762e-04  -5.6461744e-05  -3.3890648e-04   1.9710133e-05  -3.1655232e-04   2.5323205e-04   1.2531689e-05   7.3614719e-05   6.7620596e-05  -3.0641368e-04   4.0149345e-04  -1.2237894e-04   2.7823562e-04  -1.6726905e-03   1.5530955e-04   8.4733598e-05   1.3052272e-04  -7.6405011e-04  -1.1094209e-03   2.6712869e-04   1.5226568e-04   2.2250705e-04   6.5638647e-05  -4.7043843e-05
   4.4302080e-05  -6.4062274e-06  -1.2343239e-05   4.5666631e-05  -7.6531369e-06   3.0116311e-05   4.7236546e-05  -1.8163610e-04   7.6206220e-06   9.1719585e-06   7.5495976e-05   1.7165401e-05   4.6547149e-05  -1.6098014e-04   3.4926070e-05   7.2878312e-05   1.5966538e-06   1.0080478e-04  -1.5282386e-04   7.0012808e-05   1.7606073e-05   2.1363525e-05   2.4543237e-05   5.1015923e-05  -2.1933595e-04   2.8936784e-05  -2.9524369e-04   2.8533055e-04   7.8861957e-04  -3.1973646e-05  -1.3992621e-05   1.4776029e-04   1.3794340e-05  -6.2031043e-04   5.6845376e-05   1.9711167e-04  -2.1936368e-04  -1.3756895e-04   2.0163259e-04   1.7447524e-03   4.9493142e-04   6.9693655e-05  -3.4447591e-04   3.7893129e-03   1.6543517e-03   1.7385049e-04   5.1272116e-05   4.6153556e-05  -6.3455343e-05   1.1223844e-04
   2.7626029e-05  -1.4083028e-05  -2.5020398e-05   4.6331148e-05  -7.9317469e-06   5.9333175e-05  -2.2182520e-04   1.0523251e-04   2.0157109e-04  -6.4858221e-05   3.0291967e-05  -4.6499899e-05  -6.0870002e-06  -4.0034065e-05  -3.5672580e-04  -2.4240812e-04  -9.4837678e-06   1.1093098e-05  -1.1617049e-04   5.6156114e-05   1.1004432e-05   5.5104633e-06   8.4645872e-06  -5.1999705e-05  -2.2096996e-04   2.6420244e-05   5.7972758e-04  -7.3050622e-05   9.3107222e-04   9.9108001e-06   2.5693471e-05   2.6022719e-04   1.4593685e-04   4.4647287e-04   2.4175826e-05  -5.7712077e-05   4.7180109e-04  -5.2740594e-05  -4.7739252e-04  -2.4456251e-03   1.1096823e-04   1.0532757e-05  -2.8177892e-05   1.2976375e-02   1.1045511e-03   1.1402593e-03   2.6680023e-05   7.2702125e-05   1.5103181e-04   1.2871955e-04
   1.5144888e-05  -1.7955921e-05  -1.8095139e-05   3.2101492e-05  -5.7587663e-06   2.8867749e-05   9.0620459e-05   4.7900226e-05   2.2012027e-04   2.6347818e-05   3.2765558e-05   1.9208765e-05   2.3951696e-05  -4.7559435e-05   3.0590942e-05  -1.1729172e-04  -2.2360289e-05  -1.0496948e-04   6.9250062e-05   4.8265920e-05   2.7809529e-05  -1.1341648e-05  -8.1435683e-05  -4.7229812e-05  -1.0258286e-04   4.2455191e-05  -1.6364657e-04  -1.6795765e-04  -1.1415313e-03   1.6640784e-05   1.1490533e-04   4.7926782e-04  -9.4938965e-05   2.6435949e-04   3.2755011e-05   2.7348514e-04  -3.5589316e-04  -9.2016387e-05   6.4772343e-05  -2.5416003e-03  -2.8455206e-05   5.1366020e-05  -9.8368859e-05  -7.6791649e-03  -6.1408733e-04  -8.7156345e-04   9.8686745e-05   2.3698945e-04  -2.6512196e-06  -6.5577173e-05
   3.6133519e-05  -1.1884526e-05  -9.9476811e-06   5.0651885e-05  -2.5463567e-06   3.6433867e-05   8.1055521e-05   9.7130569e-06   1.6935563e-04   1.1951059e-05   4.9519589e-05   1.3825547e-05  -2.6994644e-04   1.2849408e-04   2.2898262e-04   3.9827012e-04  -1.2377408e-05   5.0244002e-05  -3.0644229e-04   5.7441735e-05   2.3853847e-05   2.5587558e-06  -3.9270035e-05  -4.3310323e-05   3.9466369e-05   4.2541724e-05  -4.7480142e-05   1.7738259e-04  -1.5173680e-03  -3.8654816e-06   3.0513473e-05   1.5206478e-04  -1.0134274e-04   4.8465771e-04  -8.0310929e-05   6.4113759e-04  -6.4185396e-04  -1.2810840e-04  -4.5515958e-04   5.6604687e-03   1.5274479e-04   3.4236629e-05  -6.6282963e-05   2.1165300e-02   3.0974958e-03   1.1200766e-05   4.4697619e-05   3.7114951e-05   1.4837098e-04  -2.0546002e-04
   2.1366657e-05  -1.8038176e-05  -2.0310497e-05   4.3278611e-05  -1.1574851e-05   5.9278667e-05  -2.5476336e-05   3.1726295e-04   7.2912633e-05  -4.5283472e-05   4.4513337e-05  -4.2856078e-05   1.1017502e-04  -7.3768515e-06  -4.1773499e-04  -1.4578809e-04  -3.8785693e-05   6.0327911e-05  -1.3817623e-04   7.3902462e-05   1.7986387e-05  -3.0200924e-06  -5.6728182e-05  -5.8889738e-05   7.4190793e-05   4.0863149e-05   4.9702043e-04   2.4596849e-04  -4.7472789e-04  -3.0973995e-05  -1.6942320e-05  -8.3047846e-05   2.0140715e-04   1.7814469e-04   1.5008665e-04   3.4871569e-04  -1.9856855e-04  -7.3491727e-05   3.5005534e-04   4.7074622e-03   2.1005007e-04   1.9414530e-05  -2.9109258e-04  -2.1262565e-03  -3.1301163e-03   1.6853368e-03  -9.6286545e-05   1.1924942e-04  -2.8292705e-05  -7.7977573e-05
   3.8004790e-05  -2.3045837e-05  -2.0789516e-06   5.0517014e-05  -5.4553707e-06   2.1458543e-05   4.0050818e-05  -2.8038234e-04   1.3875456e-04   5.7694637e-05   6.7731999e-05   5.1113027e-05  -2.6895172e-05  -3.5065442e-04  -2.0768440e-04  -3.1543078e-04   1.0790709e-07   1.0574249e-04   6.3300104e-05   7.1998184e-05   3.5982041e-05  -2.7952150e-05  -8.9456385e-05  -4.8228994e-05   2.9531064e-05   2.2791346e-05  -3.2238814e-04   3.7055044e-04  -1.4717031e-04  -3.6154872e-06   8.0783466e-05   7.0540911e-05  -1.3424375e-04  -3.4561039e-05  -3.3286800e-05   2.1326853e-04  -1.5050024e-04  -5.7323745e-05  -1.5724686e-04   5.2529746e-03   1.7267604e-04   3.3726923e-05  -2.2624135e-04   1.5911741e-02   7.8391330e-04   1.5732873e-03  -1.1787200e-04   2.4465221e-04  -4.0191415e-05   1.6112087e-04
   3.4369299e-05  -1.5844227e-05  -6.3124080e-06   5.0732895e-05  -5.4644042e-06  -1.9782944e-06  -5.0516781e-05  -1.7995432e-04   9.7087097e-05   1.7436236e-05   6.1734274e-05   1.7270730e-05   1.1382549e-04  -8.9136338e-05  -1.2404886e-04  -1.9861733e-04  -3.7399011e-05  -1.3320769e-04   3.8654599e-04   4.2414460e-05   3.3400760e-05  -8.2739234e-06  -1.0509617e-04  -4.1273754e-05  -1.9403473e-04   4.1034738e-05   2.2031453e-04   9.5625655e-05  -6.0447067e-04  -9.7952238e-07   1.8415495e-04  -8.3704370e-05   3.5015470e-04  -1.7841306e-04  -1.1440078e-04  -3.4437503e-04   1.7613311e-04  -1.1122588e-04  -2.2012663e-04  -5.1883715e-03  -9.4698451e-05   2.5472640e-05   1.1697315e-04  -1.8117600e-03   1.1773291e-03  -1.9979060e-03  -7.0374340e-06   1.6055582e-04  -1.2871870e-05   7.7358440e-05
   2.0245567e-05  -2.0340252e-05  -1.5382095e-05   4.5605968e-05  -1.7390397e-05   4.7057514e-05  -1.0345214e-04  -2.0561880e-05  -1.3169182e-05  -4.5884462e-05   5.3679290e-05  -4.2593500e-05  -5.3811145e-05  -3.4028144e-05  -2.1387560e-04  -2.2303204e-04   7.1281033e-06   2.2521079e-05  -3.7639088e-06   5.7706340e-05   3.0578674e-05   1.9016858e-05  -1.2968009e-05  -5.1351588e-05   1.5859946e-04   3.7042148e-05   1.9900507e-04   3.7531056e-05  -5.4394281e-05  -1.8560113e-06   1.4582906e-04  -4.7137590e-05   3.5152971e-07   3.4892772e-05  -2.4845003e-04  -1.4067983e-04   1.3063136e-04  -1.1976972e-04   1.6455278e-04  -1.1480846e-04  -3.6789446e-05   3.0549374e-05  -1.0192371e-04   1.0260388e-02  -9.2891132e-04  -2.6124995e-04   9.4122275e-05  -1.5533096e-05  -3.5176243e-05   1.3206265e-04
   4.4857570e-05  -1.8221363e-05   7.1658160e-06   4.7041682e-05  -9.1387428e-06   6.7570174e-05   7.3977069e-05  -2.4544970e-05   3.4775039e-05   8.5855914e-05   1.0624828e-04   7.1912385e-05   9.0265537e-05   1.4496424e-04  -2.5553400e-05   1.3145970e-04   2.4143596e-05   1.7166201e-05  -1.5824550e-04   6.1845734e-05   4.1661438e-05  -1.1039180e-05  -2.0341547e-05  -6.0633590e-07  -1.3037673e-04   3.9033606e-05  -9.9209821e-05   1.7221068e-04   4.2669827e-04  -1.0913966e-05  -1.2239303e-04  -3.3214185e-04   1.3735480e-04   2.5429911e-04   2.5382154e-05   9.2275928e-05  -3.9725396e-04  -7.3541683e-05  -5.7605573e-04   2.5888975e-03   3.3983213e-04   3.8196562e-05   1.7128878e-04   3.7103808e-03   3.7917288e-03   1.0244104e-03   2.8779557e-05   8.1532853e-05   4.1869289e-06   2.9899340e-05
   4.5135668e-05  -2.2366376e-05  -7.4866648e-06   4.5669341e-05  -7.1991285e-06   3.4289504e-05  -1.9219184e-05   7.0699949e-05   1.2119349e-04   3.3042386e-05   5.8091468e-05   2.0863747e-05   2.9496005e-05   2.1556554e-05  -2.3190862e-04   2.8795030e-04   3.1686865e-05   5.4955442e-05  -3.3252101e-04   6.3259904e-05   3.7988473e-05   7.6270371e-06   1.1523523e-05  -7.8529534e-05  -2.6249190e-04   4.0079394e-06  -6.6302140e-04   2.6198081e-04  -1.2651352e-03   6.2394120e-06  -1.8556113e-04   2.4895566e-05  -5.8912842e-06  -1.7065679e-04   2.1310033e-04   3.3001415e-05  -8.0969831e-04  -6.7997455e-05   2.0202884e-04  -3.1330241e-03  -5.8138401e-05   3.2751443e-05   1.0341989e-04   7.7823633e-03  -6.3646160e-04   1.0091217e-03  -1.4190885e-04  -1.8235126e-04  -1.4028119e-04  -4.8366946e-05
   2.8507598e-05  -2.3678193e-05  -1.1039245e-05   3.8312552e-05  -1.7324121e-05   7.2642397e-05   6.4207343e-05   1.2865388e-04   3.2230666e-05  -1.9384121e-05   2.4007211e-05  -2.5612970e-05   4.9699640e-05  -5.8360110e-06  -2.0853958e-04   2.1472452e-04  -5.3767371e-06   1.3435987e-04   2.6143387e-05   4.7327565e-05   4.4448589e-05   3.7872799e-06   2.7015399e-06  -5.5353057e-06  -4.1454996e-04   2.6062802e-05   5.0030863e-05  -4.4844480e-04  -1.3030098e-03   7.2396965e-06  -7.0758491e-05   2.2037343e-04   1.3904583e-04  -7.4303745e-05  -1.9906127e-04   5.2917917e-04   2.0013176e-05  -1.0810382e-04  -1.5561758e-04   3.3037188e-03  -1.3990907e-04   7.7579833e-05  -3.8209728e-05   1.4648044e-06  -1.1749213e-03   2.5718438e-04   3.5860528e-05  -7.0363014e-05  -3.0724586e-05   3.3034259e-05
   5.9000224e-05  -1.9106290e-05   7.1870941e-06   4.4826775e-05  -4.1534204e-06   3.7225836e-05  -1.1836832e-05   1.3288825e-04   1.0615680e-04   1.1517852e-04   1.0303635e-04   8.4907828e-05   6.0161703e-05  -8.7284743e-06   1.4123631e-04  -1.6694474e-04   1.2391052e-05   1.6674856e-05  -2.2501875e-04   7.7849727e-05   5.4991899e-05   2.0642978e-05   2.0197180e-05  -4.8507987e-05  -1.1921603e-04   2.5989588e-05   1.5316022e-04  -1.4274096e-04  -1.2156782e-03  -5.5261094e-06  -2.4200261e-05   1.8214458e-04   9.5505937e-05  -6.9650981e-05   2.2018745e-05   1.1765322e-04   3.0476128e-04  -5.5178403e-05  -1.8136142e-04  -7.1585383e-03   7.2505281e-05   9.2047863e-05   1.2790960e-04   1.5403638e-03   4.7901861e-04  -6.5438874e-04   1.3419309e-05   1.6529876e-04  -2.3954424e-04   1.5434006e-04
   3.6647223e-05  -2.3830909e-05  -1.3234281e-05   3.8617098e-05  -1.4948396e-05  -1.8868488e-05  -4.9738675e-05   4.5486402e-05   8.7427310e-05   4.8006670e-05   6.9671994e-05   3.6686281e-05   2.8276658e-05   1.1017832e-04   1.8028637e-04  -1.6269601e-04   9.6308740e-06  -5.7307918e-08  -5.6614296e-04   2.8058952e-05   5.2228090e-05   1.0952989e-05   2.3019151e-05  -3.4246132e-05  -1.7105689e-04   1.5187418e-05   2.6740425e-05   1.9799816e-04  -1.5083935e-04  -6.0486701e-07   2.0107951e-04  -2.1991630e-04   2.6326254e-04  -4.4819964e-05   6.1676234e-05   6.0568965e-04  -6.6299748e-05  -5.6291159e-05   4.5064477e-05  -1.5618646e-03   3.1862414e-04   3.6391546e-06   9.8763259e-05  -3.8677829e-03  -3.6368903e-04   1.2727322e-03  -4.5674522e-05   1.1580085e-04  -4.3879281e-05  -3.7287751e-05
   3.4931825e-05  -2.6968941e-05  -1.9470348e-05   3.4111425e-05  -7.1104541e-06   4.4372217e-05   1.4614884e-05   2.0113400e-04   3.2746400e-05   5.2236282e-06   2.6644862e-05  -1.3336455e-06   4.4380417e-05   1.4351124e-04  -1.7558978e-04   1.3424251e-04  -2.7554699e-06  -3.8082610e-05  -8.7055021e-05   3.9436025e-05   4.7444959e-05   3.7842339e-05   5.7489338e-05  -7.9341255e-05  -3.2475661e-04   2.1659600e-05   2.0307391e-04  -3.5795914e-05   5.0351239e-04  -2.5591482e-05   1.1983261e-04   8.7680019e-05  -6.3088788e-05   6.3688558e-04  -1.8991111e-04   5.0372013e-04  -5.5747450e-04  -8.8603469e-05  -3.5366982e-05  -1.3160534e-03  -3.5298947e-04   2.3950242e-05  -7.3404939e-05  -3.3636179e-03   3.7220409e-03  -7.0507533e-04   2.8498951e-05   6.9627073e-05  -6.3450287e-05  -1.9668169e-04
   5.3817039e-05  -2.2080030e-05   1.3998477e-06   4.2262458e-05  -4.1820408e-06  -3.0265943e-05  -7.8282676e-05  -1.0217106e-05   1.4090821e-05   1.3539661e-04   8.6745204e-05   1.0789851e-04   1.9899420e-05  -2.1701906e-04  -3.1812193e-05   1.0421988e-04   2.2588494e-05  -2.2933941e-04  -7.6577009e-05   2.3343746e-05   7.0809583e-05   1.1070561e-05   6.7108878e-05  -7.0430171e-05  -2.5817557e-04   3.0771294e-05  -1.0385944e-04   1.4223474e-04   8.2496408e-04   1.7971287e-06  -5.6056884e-05  -3.3858849e-04   2.1580758e-05  -7.8492500e-05   2.5549214e-04  -1.5963273e-04   5.4651740e-05  -8.9441142e-05   1.9660327e-05   7.3304516e-03  -1.6464674e-04   1.7137441e-05  -3.5316076e-05   8.6654732e-03  -3.4349525e-04   3.0650375e-03   1.3536448e-06  -1.2966413e-04  -7.5155891e-05   2.6567550e-05
   3.6146168e-05  -2.7412456e-05  -1.5668389e-05   3.3257285e-05  -3.9070483e-06   3.2417778e-05  -3.3070824e-05  -2.2396765e-04  -1.4561314e-05   8.3880383e-05   9.2013448e-05   6.2916784e-05   1.8201031e-04  -1.6712060e-04  -2.0388677e-04  -1.3463183e-04   1.2215864e-05   1.5115674e-05   4.5971316e-05   3.0124176e-05   6.4303495e-05   1.9689460e-05   5.8725687e-05  -6.9602676e-05  -3.2905725e-04   4.0351781e-05  -2.0573711e-05   3.2236316e-04   2.3258495e-04   1.9073093e-05   6.1308245e-05   3.2890055e-04   1.7107314e-04   5.9534895e-04  -1.4948664e-04  -3.6870435e-04   5.7666312e-04  -8.3109961e-05  -5.0207513e-04   1.9780367e-03  -1.1774206e-06   5.1740546e-05   6.0776383e-05  -6.1702975e-03  -3.8694148e-04  -3.6181831e-05  -1.1092103e-05  -7.0784736e-05  -7.7786826e-05  -1.3006123e-04
   3.1144613e-05  -2.7767554e-05  -2.9993429e-05   2.6800504e-05  -1.9856569e-05  -1.7501872e-05  -4.6578938e-05   2.0758556e-04   7.4550026e-06   1.4666929e-05   1.7105573e-05   1.8524538e-07   2.0308640e-04  -7.7906116e-05   5.4662527e-05  -1.5736345e-04   1.3348585e-05   8.0864447e-05   1.6175583e-04   3.1815947e-05   6.5612548e-05   1.8684683e-05  -2.2375139e-05  -4.0418596e-05   6.0682036e-05   3.6755038e-05  -3.5940984e-04  -1.0632054e-04  -2.3576531e-03  -2.5504845e-05  -7.6232158e-05  -2.7157930e-05   1.0978286e-04   1.3429609e-04  -1.0672858e-04   2.0264191e-04  -7.0807764e-05  -7.1133371e-05  -7.6108496e-04  -8.1957411e-03  -6.6633052e-05  -9.5209589e-06  -5.1053561e-05   3.3972857e-03  -1.8410330e-03  -4.5474808e-04   5.1129202e-05   1.2076921e-04  -2.4417610e-04  -1.7772103e-04
   4.1679534e-05  -3.2257412e-05  -6.7759124e-06   2.1283893e-05  -9.2707596e-06   3.8380503e-07  -1.4382634e-04  -2.2220795e-05   1.7138402e-04   1.3090395e-04   1.1165514e-04   9.9577257e-05   2.7887596e-05   1.4583967e-04   3.9917955e-04  -2.3556597e-04   3.5226276e-05  -6.7445821e-05  -1.5356790e-04   6.0090344e-05   8.4884996e-05   3.2235623e-06   5.9337104e-05  -2.4554192e-05  -1.3965568e-04   6.2742547e-05  -5.3547887e-05   5.5626875e-05   5.6068832e-04   1.3782001e-05  -1.1020179e-04   4.6410490e-04   1.3484125e-04   2.2063652e-04  -1.6051973e-04  -2.5426786e-04  -7.1063241e-06  -1.1198012e-04   5.3549902e-05   1.1564402e-03   9.3292932e-05   4.3722190e-05  -2.6860962e-05  -1.4593721e-03  -1.0008198e-03  -2.5920125e-03   9.7442127e-05   1.6029901e-04  -2.8225509e-04   5.8368089e-05
   2.5736812e-05  -3.2683223e-05  -2.5477497e-05   2.4365228e-05  -2.0931648e-05  -5.5716217e-05  -1.6892956e-05  -2.0336081e-05  -1.1095963e-04   8.3729348e-05   1.0122738e-04   7.0770773e-05  -5.8302503e-05  -7.7972436e-06   5.4574150e-05   2.4759970e-04   2.1834239e-06  -7.3806790e-05  -5.8785798e-05   4.9642164e-05   7.9009384e-05   1.9200841e-05  -9.7848397e-06  -1.0338831e-05   1.5975884e-05   5.7348174e-05   1.8303185e-04   9.6763288e-06   4.7118840e-04  -2.3870665e-05  -1.9291874e-04   7.0116966e-04  -3.7734433e-05   1.9554688e-04  -7.6468677e-05  -3.2098871e-04  -3.0594604e-04  -8.4941727e-05  -2.4311242e-04  -6.7271930e-03   6.0499973e-05   8.0047739e-06  -1.6643065e-04   7.3316558e-03   7.3195021e-03  -6.3663791e-04  -1.0081282e-04  -4.8411562e-06  -7.0318914e-05  -9.3077499e-05
   2.7985584e-06  -3.8995880e-05  -3.6634458e-05   6.2357562e-06  -2.9636190e-05  -4.3200962e-05   1.9598310e-05  -1.7175947e-04   2.6625341e-06   2.4357689e-05   5.4149874e-05   1.1992613e-05   4.3852440e-05   1.2112383e-04   4.3899941e-04  -4.2186040e-04   4.4228955e-06   1.3711628e-04  -2.3263616e-05   1.7692009e-05   7.5102114e-05   9.4829347e-06  -5.0408809e-05  -5.6019388e-05  -1.3850690e-04   4.6132431e-05   3.8874761e-05   5.4287515e-04  -4.6617119e-04  -2.0083282e-06  -1.3695673e-04  -2.3178074e-05  -9.1040129e-05   1.7311067e-04  -2.6177557e-04   4.9796556e-05   3.2844208e-04  -7.8441830e-05   7.7501363e-06   3.5373785e-03   2.3751288e-04  -1.9592437e-05   9.8333721e-06   1.0837177e-05   3.1165688e-03  -1.0063153e-03   1.2706738e-05   1.7188585e-04   2.6301798e-04  -2.7329795e-04
   1.9357705e-05  -4.2295989e-05  -1.7516064e-05   1.2482862e-05  -8.8859379e-06   1.9722085e-05   2.1044032e-05   9.3682262e-05   1.6713045e-04   1.2338442e-04   6.4026412e-05   9.9117795e-05  -1.2449682e-04  -5.1745697e-05  -1.0636756e-05  -9.8962446e-05   3.1280390e-05   4.3003558e-05  -1.0931739e-04   3.2166143e-05   9.3419862e-05   1.0467794e-05   1.0180514e-05   2.7959322e-06   2.9315380e-04   3.7068069e-06  -1.1374279e-04  -1.4958074e-04   2.1427582e-05  -1.5776159e-05  -1.7424672e-05  -5.1076262e-05   1.5019675e-04   6.0488493e-04  -1.0757682e-04   9.9177405e-06   1.4317405e-04  -9.8411329e-05   5.5679986e-05   4.7808606e-03  -3.4004010e-05   8.0637030e-05  -3.2516818e-05  -6.4632897e-03   2.8775460e-03   1.2174005e-03   5.7530897e-06   8.5111860e-05   1.7489439e-04  -7.5365664e-05
   1.4832557e-05  -3.7297770e-05  -2.7194890e-05   1.1447986e-05  -1.0251393e-05  -2.0109270e-05   9.8458011e-05  -1.0898569e-04  -2.2064232e-05   9.3541224e-05   1.1274484e-04   8.3267834e-05   8.6117075e-07   3.0987852e-05   2.8167441e-04  -4.9821301e-05   2.5334357e-05   3.4965095e-05  -8.8878231e-05   5.5803157e-05   9.1456801e-05   2.7070331e-05  -1.1977372e-05   1.6148415e-05  -1.6608120e-04   1.5276060e-05   3.9702649e-05   1.0855522e-04  -6.6382653e-04  -3.6546029e-05  -5.1152223e-05  -1.8296344e-04   1.1086710e-04   2.5595850e-04   2.5728670e-05   5.8323622e-04  -6.7794113e-04  -7.4962431e-05   5.1704532e-04   1.3946694e-04   2.2842960e-05   1.7963875e-07  -2.7753352e-04  -1.7140259e-03  -3.8245306e-03   1.6688014e-03   5.4636512e-05   5.9211037e-05  -2.1303567e-04  -2.0907831e-04
  -4.1458861e-06  -4.4656990e-05  -3.6338606e-05   9.7317916e-06  -2.7563816e-05   1.3061861e-05   5.2075586e-05   2.3149372e-04  -1.6551045e-06   1.9952375e-05   7.4271593e-05   3.1555210e-05  -6.6142842e-05  -1.5277727e-04  -1.9247067e-04   1.0370052e-05   2.8977851e-05   3.1475720e-05  -1.4619791e-04   3.1147883e-05   8.9557798e-05   7.5182346e-05  -4.6188667e-05  -2.8289809e-05   2.6371010e-04   3.8949031e-05  -2.2910721e-05   1.9842426e-04   5.5770669e-04  -1.3514808e-05  -2.9391909e-05  -6.5873937e-05   1.3213114e-04  -8.9438407e-05  -2.6522059e-04  -1.2764620e-04   5.2740850e-04  -8.5435546e-05  -3.2200175e-04   3.1913295e-03  -9.9603305e-05  -9.1526417e-06  -1.0289432e-04   6.3355011e-03  -2.0347487e-03   1.0050009e-03  -6.3857864e-05  -1.7103007e-04   2.1789073e-04   8.5395674e-05
   1.5492895e-05  -4.3168784e-05  -1.5462396e-05   1.8737190e-05  -4.1151975e-06  -2.2969223e-05   7.5476215e-05   5.8076885e-06   1.0295887e-04   1.1798539e-04   9.2148206e-05   1.1024361e-04   1.3958654e-04  -1.1937151e-04   1.6134078e-04   2.4319836e-04   7.3460392e-06  -1.6264286e-04   6.4231208e-05   6.7810783e-05   1.0572959e-04   8.1740865e-05  -5.2366627e-06   1.3809135e-06   8.6001404e-05   4.9585258e-05   1.7818036e-05  -1.5296180e-04  -2.3085118e-04   1.4617102e-05   5.9337854e-05   1.5435556e-04  -4.2972362e-05   9.4687384e-05   1.8016228e-05   4.3736430e-04  -7.2722643e-05  -1.0804157e-04   5.9229667e-05   5.6918277e-03  -8.8622801e-05   4.5072475e-06   1.3101354e-04   4.0571522e-03  -4.3008411e-03   1.4599870e-04  -2.6771191e-05   4.7826685e-05   6.9853006e-05  -7.4671821e-05
   6.1046812e-06  -4.2602951e-05  -2.5892532e-05   1.0510968e-05  -8.1531252e-06   3.2028191e-05   6.3336898e-05   5.5170873e-05  -8.0740538e-06   6.9939313e-05   9.2578957e-05   7.0353672e-05   4.4966015e-05  -2.1700005e-05   1.7755329e-04   1.2963370e-04   1.9379493e-05   6.5924607e-05   2.1289286e-04   6.4662330e-05   1.0180839e-04   7.5183736e-05   6.5675835e-05   3.7036766e-06   8.0323094e-05   2.7632339e-05   1.3333926e-04   3.8698033e-04   1.7744940e-03  -3.0994699e-05  -8.3972285e-05   3.0438360e-04   1.1322894e-04   7.2498413e-05  -1.6767086e-04   2.1160961e-04   2.7889144e-05  -4.5045181e-05   5.3519493e-06   2.8352248e-03  -1.6190096e-04  -3.3403219e-05  -1.5086043e-04  -1.2685115e-03   1.7325493e-04   3.9124889e-03  -4.2271462e-05   8.7913679e-05  -9.8888697e-05  -1.7880174e-04
  -1.1236974e-05  -4.7891128e-05  -3.3629905e-05   7.1138688e-06  -2.1139094e-05   2.3107777e-06  -4.0646983e-06   1.0431606e-04  -3.9619634e-05   7.3956976e-06   5.8815076e-05   1.3772233e-05  -6.3136584e-05  -1.2412286e-04  -2.4478359e-04  -9.3975432e-05   1.0049983e-05  -3.0523996e-05  -2.0479117e-04   8.2008439e-05   8.8611945e-05   8.8713838e-05   8.3484465e-06   1.0407726e-05  -2.8448027e-05   5.2298336e-05   2.4701076e-04  -4.1866233e-04  -9.8339550e-04   8.7421386e-06   1.1693063e-04   3.2692427e-05   1.7102971e-04   4.7766811e-05  -1.6251369e-04  -1.6376287e-04   1.5427016e-04  -1.0468284e-04  -3.4627091e-04  -2.4169888e-03  -9.7588862e-05   5.3345728e-05  -1.3623868e-04  -7.3240837e-03   7.0422273e-03  -2.6845965e-03  -1.4871147e-05  -9.9242017e-05  -3.0367190e-04   3.3539454e-05
   1.4923535e-05  -4.5417561e-05  -1.1610899e-05   6.8179024e-06  -5.9950899e-06   2.8552096e-05  -1.1507527e-04  -3.4311910e-05   2.8316174e-06   1.1337637e-04   7.8787525e-05   1.1253364e-04   3.6320260e-05  -7.7931698e-05  -1.5844987e-04  -3.3272765e-04  -4.5833035e-06  -8.9723690e-05  -6.6232387e-06   4.3230921e-05   1.0727309e-04   9.2425260e-05  -1.0507229e-05   2.2743183e-05   1.5856813e-04   4.6248519e-05   5.7909128e-06   3.1718861e-05  -1.6641333e-04  -6.0983784e-06   3.0551269e-05   6.3066772e-04   2.4883644e-04  -1.9778253e-04  -1.2680303e-04  -9.3261115e-05  -1.0229070e-04  -5.5020846e-05   1.5070944e-04   2.4888010e-03   3.9543997e-04   3.8966038e-05  -2.9283660e-04   7.4923234e-03   1.8740072e-03   2.4033878e-03  -7.8823927e-05  -1.3283860e-04   1.3443334e-04  -1.9072436e-04
  -4.1075904e-07  -4.6122015e-05  -2.3215114e-05   1.0377069e-06  -9.4610314e-06   8.1003382e-05   3.4204193e-05   1.3881417e-04   5.3813733e-06   7.1906754e-05   8.8551875e-05   8.9259607e-05   1.4228586e-04  -1.9032714e-05   5.7119949e-05   1.2772760e-04   1.9630737e-05  -1.0852732e-04   9.4508705e-06   7.9600366e-05   9.3671384e-05   9.3642964e-05   1.1180361e-04  -2.8462053e-05  -7.9587007e-05   9.0563080e-05   2.5424382e-04  -2.4574716e-04   2.9748981e-05  -4.6261019e-05   6.0918028e-05  -2.4020857e-04   5.1790641e-05   4.9925782e-04   6.8313202e-05  -3.9481840e-04   1.1959405e-05  -6.8865869e-05  -5.8256096e-04   1.0908533e-04  -2.2123891e-04  -5.6651614e-05  -6.9194182e-05   1.3612381e-03   6.5165758e-04  -7.0920883e-04  -2.8097264e-05   3.5971399e-05   1.2969166e-04   2.5044210e-04
  -9.5585328e-06  -4.9163369e-05  -3.1245654e-05  -3.2635446e-06  -1.9700390e-05  -1.1933963e-05  -1.8539061e-04   6.7797628e-05   1.3612707e-04  -2.0588463e-06   6.3294778e-05   2.3745160e-05   1.1485399e-04   2.2006847e-04  -4.1844393e-04   4.1068613e-04  -4.3837899e-06   1.7241569e-05  -8.1851249e-05   6.3380983e-05   8.9576613e-05   7.4897966e-05   9.4860130e-05   2.4909701e-05  -2.8177543e-04   7.3020121e-05  -5.2225200e-04   7.6356897e-05   3.3846885e-04  -2.5898313e-05   3.6542804e-04  -3.8434513e-04  -3.2454318e-05   3.2997326e-04  -7.7518263e-05   1.5873650e-04  -6.8336434e-04  -7.9458201e-05   1.0363567e-04   2.4071669e-02   1.1360076e-04  -2.9320448e-05  -1.0450590e-04  -5.0885067e-04  -8.2882296e-04   3.8110903e-03  -9.0929701e-05   3.6792935e-05   1.8193191e-04  -1.4061540e-04
  -1.3080931e-05  -5.1317664e-05  -2.7561373e-05   4.8944175e-06  -1.3199009e-05  -4.1759271e-05  -1.5449102e-04  -1.5541904e-04   1.1484513e-04   5.6395718e-05   3.9016919e-05   7.1181232e-05   1.3995153e-05   2.1268961e-04  -5.3230913e-05   3.4321137e-04   1.1721520e-06  -6.8829995e-06   1.9354996e-04   8.1926613e-05   1.0601460e-04   9.5151918e-05   5.6268756e-05   1.3397068e-06   2.4580140e-05   5.7062385e-05   1.2196157e-04   3.1085536e-04  -4.2609713e-04   1.8609388e-05   1.0330690e-04  -4.9461971e-05  -6.7173962e-05   4.4843100e-04  -2.3397600e-04  -5.2583357e-05   2.4795209e-04  -1.0657423e-04  -6.9887342e-04   2.2742672e-02   2.1249072e-04   3.9159804e-05   3.4440754e-04  -4.1685435e-03  -2.3639938e-04  -7.6847681e-04  -9.8577708e-05  -1.0211479e-04  -7.2468589e-05   8.6035754e-05
   1.0575053e-05  -4.0826988e-05  -1.1970355e-05   6.2277595e-06  -1.5813524e-05  -1.8297292e-06   3.3811422e-05  -5.4907982e-06   1.4670854e-04   8.2100974e-05   9.0222296e-05   1.0007850e-04   8.8573506e-05   2.4631518e-05  -1.9631813e-04  -3.7036580e-04   1.5058170e-05   1.8460065e-04   1.9326349e-04   8.1850136e-05   9.9906138e-05   9.4759132e-05   7.2491748e-05   2.6634085e-05  -2.2998734e-04   9.2566399e-05  -5.5867276e-05  -1.2068448e-04   3.2096580e-04  -2.2422520e-05   3.4744531e-04   9.0539113e-05   9.6379845e-05  -1.1973902e-04   5.8270700e-05   4.7832054e-05   8.2691658e-05  -6.6622859e-05   3.4290107e-04   1.3966689e-02   1.7514787e-05  -5.0278362e-05   1.1664748e-05   3.2448194e-03  -2.2051891e-04  -1.6137274e-04  -9.4623530e-05  -7.3992931e-05  -2.1525296e-04  -1.3196432e-04
   1.8441814e-06  -4.6074452e-05  -2.2387056e-05   6.0075695e-06  -1.9030900e-05  -1.5910997e-05   1.3719301e-04  -9.6936375e-05  -1.2839418e-04   3.0145449e-05   4.4574306e-05   4.0530795e-05   3.1792474e-04   1.4187259e-04  -2.5818709e-04   1.9329628e-04   3.0726394e-05  -8.8787725e-05  -8.4034036e-05   5.4474011e-05   9.1234608e-05   1.1307657e-04  -1.1480312e-05   3.9320039e-06  -7.8565181e-06   7.5775861e-05   1.1020119e-04   2.8501102e-04  -3.8430354e-04  -4.5616838e-05   7.4530668e-05   1.3957238e-04   9.6219752e-05  -4.3761681e-04   7.0298302e-05  -1.8757552e-05   1.9014686e-04  -4.9283633e-05   8.2979142e-04   6.2662149e-03   1.7086453e-04   3.9520208e-05  -1.5056238e-04  -3.7031735e-03  -2.2249140e-03  -1.7283131e-04  -1.2931721e-04  -8.2934261e-05   3.1578882e-05   8.1206899e-06
  -1.1131029e-05  -4.5200319e-05  -2.5845586e-05  -8.3254326e-07  -2.2427512e-05   1.0433659e-05   1.5656337e-04   9.1517257e-05  -7.3432377e-05  -3.5439782e-05   1.3195695e-05  -5.3028924e-07   1.4722017e-04   4.0860068e-05  -1.7296530e-04   1.2625856e-04  -1.3592650e-05   6.6843844e-05  -1.1680937e-04   8.7259235e-05   9.2063696e-05   1.2011230e-04  -1.9012870e-05   2.1870132e-05   1.2872666e-04   6.2721301e-05   1.7252471e-04  -3.1794185e-05   9.4469625e-04  -2.9363031e-05   2.2385451e-05  -1.7387186e-04   9.7125150e-05   1.9675776e-04  -2.6558748e-05   5.4213224e-04   1.1169507e-04  -1.7197483e-05   2.9782078e-04  -2.8137495e-03   1.7839791e-04  -2.4242343e-05   5.7271740e-05   1.7587293e-02   1.6033568e-03   1.0021959e-03  -2.3384635e-04  -7.2835783e-06  -2.1354554e-04  -4.5167591e-05
   1.0065810e-05  -3.7885289e-05   2.4168452e-07   7.0135429e-06  -6.1412784e-06   1.8783843e-05   1.0354818e-04   1.8661877e-04  -4.4131841e-05   1.0752861e-04   8.2767830e-05   1.2233639e-04   1.5249162e-04   7.2286100e-05   2.3769432e-04   3.8245744e-05   5.9776221e-06  -8.9263754e-05  -4.3334116e-05   1.0372505e-04   1.1068080e-04   1.1105698e-04   9.2093869e-05   5.4740285e-05   2.3954149e-04   7.2693198e-05   5.9454789e-04   3.6094186e-04  -6.4828043e-04  -1.8864825e-05   1.3496980e-04   2.8006861e-04   3.1135569e-04  -2.2337688e-04  -3.4032309e-05   3.7802797e-04   6.5826497e-04  -4.3479391e-05  -8.7857869e-04  -5.6797895e-04  -2.4097526e-04  -3.1609874e-05   1.6243837e-04  -5.1146424e-03   2.1872225e-03   2.5707721e-03  -6.8954098e-05   2.0345193e-04  -1.5798418e-04  -8.7313740e-05
   5.6359468e-06  -3.7148777e-05  -9.0138010e-06   1.0265124e-05  -1.8524990e-05   2.0175244e-06  -3.4119746e-06  -1.5892160e-04  -1.3293806e-04   5.4849945e-05   9.5325260e-05   7.9101279e-05   8.6749067e-05   6.2750492e-05  -2.4723148e-04  -5.3743710e-04   1.1219999e-05   7.0396534e-05   7.0726278e-06   9.6992932e-05   1.0618637e-04   1.3934157e-04   1.5631760e-04   4.2316282e-05   4.9257767e-05   6.7638204e-05  -4.5355031e-04  -2.9776202e-04   1.2543703e-03  -2.1147805e-05   2.4874384e-05  -8.8027875e-05   8.7713321e-05   2.0071294e-04   8.6397922e-05  -3.1970610e-04   5.0419755e-04  -1.7422510e-05   1.1201345e-04   2.9248318e-03   3.9190610e-04  -6.6367065e-05  -1.6593764e-04   5.8959040e-04  -1.1092753e-03  -1.4526636e-03  -9.9404329e-05  -7.4186712e-05   7.5195872e-05  -3.7696472e-04
  -9.3343724e-06  -4.2460983e-05  -2.4471050e-05  -1.5799119e-06  -1.7054614e-05  -1.6566578e-06  -2.3252550e-04  -4.8075501e-05  -1.9867770e-05   3.1824467e-07   4.8895403e-05   1.9923587e-05   8.5982218e-05   1.5403175e-04   1.6300452e-04   2.9314222e-04  -3.7628663e-05  -1.7172761e-05   4.6483820e-04   1.1569208e-04   1.0288657e-04   9.3311930e-05   6.2124564e-05   4.0028681e-05   5.1123946e-04   7.7869860e-05  -3.2826720e-05  -3.3496308e-05  -3.5789028e-05  -2.4094413e-06  -3.0520150e-06  -1.3599142e-04   6.7472400e-05  -2.0855815e-04  -1.2540273e-04   1.7280290e-04   3.5587233e-04  -2.1132193e-05   1.0136594e-04   3.0980024e-03   3.6202546e-04  -3.8986240e-05  -2.0035337e-04  -2.4498454e-03  -1.3203290e-04   3.0039365e-03  -3.7622751e-05  -2.3276632e-05  -1.3021592e-04  -1.7902647e-04
   1.0546080e-05  -4.5510242e-05  -1.1992737e-06   1.5274647e-05  -4.2418537e-06   6.8748966e-05  -1.5803877e-05  -1.3458806e-04  -8.8649955e-05   1.1070092e-04   8.0191705e-05   1.2606021e-04   1.0469046e-04   9.6309261e-05  -2.7894748e-05  -3.5714282e-04  -9.0511696e-07  -8.7273373e-05   2.1509515e-04   1.0043041e-04   1.1561456e-04   7.8585115e-05  -3.5861758e-05   2.1035790e-05  -2.2132073e-04   9.8988166e-05   3.7842421e-04  -1.0176565e-04  -2.5810930e-04   9.2015980e-06  -1.6634396e-04  -1.1221221e-04   1.6064395e-04  -1.3811788e-05   1.1464248e-04   6.7870518e-05   4.4613212e-04  -6.3502943e-05  -3.1006787e-04  -5.1074950e-03  -2.3094994e-04  -5.6058550e-05   2.3410592e-04  -1.4393171e-03  -4.1111364e-04  -2.6532196e-04  -1.5675281e-04   1.4356527e-04  -7.1760842e-05  -2.4471176e-06
   9.0148396e-06  -3.6042267e-05  -6.4922219e-06   5.2004630e-06  -7.1483673e-06   4.9349219e-05  -1.1141683e-04   7.3940253e-05   4.9493898e-05   8.4297964e-05   9.4292074e-05   1.0570155e-04   1.2279338e-04   3.2672472e-04   2.5628327e-04  -6.9527239e-05   4.4278518e-06   3.2101179e-05   8.2008599e-05   1.1610727e-04   1.1320896e-04   8.0245693e-05   6.2368934e-05   5.3894091e-05  -6.5242224e-05   1.1545579e-04  -1.7956756e-05  -4.1894204e-05   1.7561656e-03  -4.0797449e-06   2.2956371e-04   1.3313578e-04   1.2886173e-04   2.3043012e-04   7.5803757e-05   4.2098187e-04  -3.0359210e-04  -3.5085013e-05  -2.0286781e-05   7.8356527e-03   3.2810897e-06  -3.5743109e-05  -7.8653662e-05  -8.4899372e-04  -3.4636187e-03   3.6832742e-05  -1.2881530e-04  -7.5675685e-05   8.7746128e-05   1.0569226e-04
  -5.8430887e-06  -3.6106929e-05  -1.5458014e-05   8.1618373e-06  -5.9221456e-06   2.1760741e-05  -3.8393035e-05  -1.8675148e-04   7.2412622e-05   5.6958011e-06   5.6096738e-05   2.5560446e-05   2.0138150e-05  -6.0103364e-05  -1.3858434e-04  -2.7019467e-04  -7.1098357e-06  -1.0706305e-04   1.6314609e-04   1.1224917e-04   1.0962182e-04   1.1040013e-04   5.3912030e-05   2.6238440e-05  -2.0907696e-04   8.7150242e-05   1.1851708e-04   2.4011390e-06  -5.8856641e-04  -2.6772032e-05   1.1980133e-05  -1.2663426e-04   2.9980700e-04   9.1924871e-05  -8.3377112e-05   3.7581730e-04   1.6184052e-04  -4.0633517e-05   1.5742131e-04  -7.1736216e-04   1.4969223e-04  -3.4579960e-05  -1.0150535e-04  -1.4445564e-03   3.4101012e-03   7.9089275e-04  -3.3017885e-05   2.4856054e-05  -1.3810744e-04   1.1060674e-04
   3.3996894e-06  -3.7012651e-05   1.2012001e-06   1.1086390e-05  -2.6588516e-06   2.4688030e-05  -9.8023178e-05  -7.7249133e-05  -4.2300020e-05   1.0430614e-04   7.1481358e-05   1.2074567e-04   9.4912997e-05   1.6339672e-04  -1.3841534e-04   7.1723691e-05   6.4702404e-06   6.8492969e-05   1.8922646e-04   1.2061863e-04   1.2975477e-04   9.5095122e-05   1.0134798e-04   4.9451322e-05   1.0438930e-04   4.5948742e-05   3.8841594e-05   1.5973336e-04   2.3501746e-04  -1.1448658e-05   2.5711814e-04   3.1341749e-04   3.6763478e-04   2.9736201e-04  -1.0384963e-04   3.0292873e-04   4.4757558e-05  -4.8206388e-05  -3.0522866e-04   1.0039478e-02   2.2005144e-04   4.0299154e-05   1.0562244e-04  -1.6960014e-03   7.9223164e-06  -1.1522424e-03  -1.4710082e-05   1.2541434e-05   2.1966128e-04  -5.0511895e-05
   2.3991299e-05  -2.8592071e-05   5.0335625e-06   1.4636438e-05   9.8626078e-06   3.0012347e-05  -1.1773390e-04  -4.6774891e-05   2.8026774e-05   1.0057516e-04   8.2962535e-05   1.0547144e-04  -7.8730936e-06   2.5833611e-04  -4.0031042e-05  -1.4470204e-05   2.7057064e-05   2.0212911e-04   3.4189888e-04   9.9633362e-05   1.2689049e-04   1.2613795e-04  -2.3412103e-05   3.5933985e-07  -2.4858071e-04   2.7437261e-05  -1.5943260e-04  -4.1378813e-04  -5.3670845e-04  -2.3764058e-05   2.1108295e-05   3.2360098e-04   3.8478890e-04  -9.6465765e-06  -2.3431428e-05   2.4111422e-04   3.3126713e-04  -2.4597202e-05  -4.4011784e-04  -6.2445080e-04  -2.3428407e-04   6.5107052e-08  -8.6791297e-06   1.9265144e-04  -2.6402604e-03  -4.4188276e-04  -3.9059851e-05   2.0824680e-05   2.1634909e-05   3.5012417e-05
   1.9959576e-05  -2.9936720e-05  -4.4885128e-06   1.6516859e-05  -6.4080409e-06   1.2074797e-05   1.0505943e-05   4.6660316e-05   7.9903512e-05   3.1972624e-05   8.1142134e-05   4.3104737e-05  -5.6036832e-05   1.0448061e-04  -1.9823371e-04   5.2168843e-04  -1.7751605e-05   2.7603426e-06   2.3080192e-05   1.0340154e-04   1.1848802e-04   1.2383502e-04   9.9700279e-05   6.2188963e-05  -9.7275406e-05   1.3748273e-05   4.3226919e-05   3.4261798e-04  -1.5218431e-03   2.8504355e-05  -3.6381010e-05  -9.1817063e-05  -3.2794460e-06   2.4509846e-04  -1.0404090e-04   1.5348510e-04   4.6130508e-04  -7.7788800e-06   2.2156614e-04  -9.4817253e-04  -1.3227286e-04   6.9733316e-05   7.1754926e-05   1.2673722e-02  -5.0080963e-04  -1.6244480e-03   4.3515935e-05   8.6252971e-05   1.1175803e-04  -1.9054781e-04
   1.7341870e-05  -3.4353921e-05   4.0563618e-06  -8.7014809e-07   2.1160700e-05   7.1084061e-05   2.4591843e-04   1.4869648e-04  -6.9363428e-05   1.1564595e-04   6.4865162e-05   1.1855701e-04   4.1342504e-05   1.6414284e-04   1.9568295e-04  -1.6607417e-04   2.2915605e-05  -1.7114715e-05   7.6910001e-05   1.1895392e-04   1.3721942e-04   1.2589816e-04  -6.1121491e-06   6.2066312e-05   8.0116733e-05  -1.6476944e-05  -1.0284661e-04   2.3452130e-04  -9.4386347e-04  -6.8347236e-07   3.0916824e-05   1.4397498e-04  -3.8204635e-05   2.3909836e-04   1.3674425e-04  -1.2529366e-04  -5.8838214e-05  -1.5500940e-05  -1.9245551e-04  -5.2748267e-03   1.0804379e-04  -4.7661374e-06   8.3784391e-05  -4.8601381e-03  -3.2078142e-03   1.8097329e-03  -6.5889166e-05   1.3763078e-04   1.5024709e-05  -3.2488845e-04
   3.3978558e-05  -2.2740564e-05   1.4233734e-05   1.7531045e-05   2.1424548e-05   1.4083084e-05   6.8909758e-05  -6.2538267e-05   1.9194292e-04   1.0440018e-04   7.8439611e-05   1.1253791e-04  -1.1026524e-05   1.0340391e-04  -2.3933031e-04   1.3037314e-04   1.3479171e-05   3.2786353e-05  -1.3113849e-05   1.1231639e-04   1.3637748e-04   1.3362386e-04   1.5693796e-06   5.5356508e-05   1.4918034e-04  -4.1929834e-05   3.9804794e-04  -1.6351854e-05   3.8055878e-04   4.0113723e-06   8.3689949e-05   1.4501657e-04   5.6275381e-05   2.0772290e-04  -2.5968258e-05   2.9055955e-04  -8.8496439e-05  -6.5020954e-06   4.9788697e-04  -9.6950522e-03   5.7872141e-05  -4.0694840e-06   9.2964554e-05  -4.9111927e-03   2.9548120e-05   1.2240134e-03   9.6510048e-05   1.3015945e-04  -9.9680728e-05  -1.0120702e-04
