  -2.8932639e-04  -9.6519841e-05   1.5924943e-03   3.2279915e-03  -4.2087233e-04   9.2062564e-04   2.0555146e-03   2.1953462e-03   1.8653395e-03   3.2148394e-03   2.7463592e-03   1.5558946e-03   3.7657393e-03   2.8499642e-03   2.4435804e-03   2.9049620e-03  -2.9599264e-03  -5.7093537e-04   1.1912773e-03   1.7766086e-03   1.5957414e-03  -3.5219733e-04  -3.9612700e-04   7.5787248e-04   1.1117363e-03   1.9513883e-03   1.7817330e-03   6.2967319e-04   2.2801226e-03   5.2468595e-04   3.3103747e-04   4.7515010e-04  -1.4752347e-03   3.8174670e-03   9.9883683e-04   3.7431295e-05  -6.6456344e-04  -7.3262298e-04   3.4904506e-04  -1.0888285e-03   3.1392794e-04   1.0895267e-03   1.4311643e-03  -1.4344494e-02   7.5225014e-04  -9.7039081e-03  -3.2276308e-04   2.0313461e-03   6.8791938e-04   1.3438478e-03
  -5.5682263e-04  -2.0336137e-04   1.4589973e-03   3.0566845e-03  -5.5872800e-04   6.9205003e-04   2.0385003e-03   2.1014931e-03   1.6285558e-03   2.6754348e-03   2.4599365e-03   1.2066765e-03   3.2651231e-03   2.5463752e-03   1.6825177e-03   2.4408917e-03  -2.8830252e-03  -6.7143899e-04   1.6089138e-03   1.6575841e-03   1.4389934e-03  -5.9115177e-04  -5.9037382e-04   6.3598802e-04   1.0776644e-03   1.7199281e-03   1.0792388e-03   9.1811205e-04   8.8489411e-04   4.3474816e-04  -2.0021336e-05   3.2823862e-04  -1.4174361e-03   2.6285180e-03   6.6118554e-04  -4.4159539e-04  -2.2290340e-04  -9.3750010e-04   2.1752501e-04  -1.8730793e-03   5.1158742e-04   9.2713255e-04   3.6692209e-04  -7.0072282e-03  -8.3810799e-03  -1.3953323e-02  -7.8165811e-04   1.7140384e-03   2.2721280e-04   1.1646050e-03
  -9.3503989e-04  -4.8876501e-04   1.0946468e-03   2.6776048e-03  -8.7110826e-04   3.2840244e-04   1.5821401e-03   1.8342747e-03   1.3141155e-03   2.2044333e-03   2.1452231e-03   9.4799674e-04   3.2248367e-03   2.3734693e-03   1.9616697e-03   2.4992246e-03  -2.7917202e-03  -6.9142214e-04   1.5293675e-03   1.5509143e-03   1.3897874e-03  -8.4950461e-04  -5.4920965e-04   6.8945833e-04   7.1045739e-04   1.4472072e-03   1.1707653e-03   8.9718460e-04   1.9952250e-03   4.2690468e-04   4.7886849e-04  -5.3515349e-05  -1.4625266e-03   2.8450023e-03   9.5702603e-04   2.9329298e-04  -4.6147985e-04  -8.7708503e-04   5.6643004e-04  -6.6702724e-03   6.9077237e-04   1.4080681e-03   9.1353810e-04  -5.7440684e-03  -1.2643898e-02  -1.0351572e-02   4.6349253e-04   2.2911320e-03   7.9324446e-04   1.8077460e-03
  -1.0838473e-03  -2.5812938e-04   1.2556181e-03   3.0158276e-03  -7.0265436e-04   7.1542431e-04   2.0795674e-03   2.0693932e-03   1.6255588e-03   2.9459645e-03   2.5747183e-03   1.5184688e-03   3.5545449e-03   2.5499933e-03   2.4880853e-03   2.5216376e-03  -3.0520763e-03  -7.0373266e-04   1.3023140e-03   1.5242709e-03   1.3942408e-03  -6.5686286e-04  -4.9108447e-04   7.4709271e-04   9.3403150e-04   1.2699185e-03   1.6506111e-03   1.3237811e-03   1.0600404e-03   4.6904688e-04   6.7487177e-05   8.1190281e-04  -1.3789205e-03   3.0405549e-03   8.9021737e-04  -1.2750455e-04  -5.7781494e-04  -1.1152780e-03   1.0404855e-04  -1.2550510e-03   1.7562529e-04   1.3336230e-03   4.7513004e-04  -1.0604447e-02  -5.2030957e-03  -1.1005434e-02   1.2756768e-04   2.2509552e-03   7.5155229e-04   1.3291982e-03
  -1.3521747e-03  -3.8585078e-04   1.0919695e-03   2.8219169e-03  -8.1324560e-04   6.1997160e-04   1.7947544e-03   2.3558214e-03   1.4617668e-03   2.3982786e-03   2.3012792e-03   1.1031169e-03   3.2478638e-03   2.5294942e-03   2.1132645e-03   2.7190391e-03  -3.2544867e-03  -6.5004482e-04   7.7427051e-04   1.4139961e-03   1.3057401e-03  -6.1967288e-04  -7.5171288e-04   5.7698635e-04   7.8571902e-04   1.2787980e-03   1.2021083e-03   8.8550616e-04   1.4331939e-03   2.9499212e-04   2.3981738e-04   4.1671880e-04  -1.3596686e-03   3.3578987e-03   6.7559903e-04  -4.0448268e-04  -8.1130984e-04  -1.1344231e-03   1.7275829e-04   1.1833353e-03   8.1220358e-05   9.6758077e-04   9.7316777e-04  -1.2590550e-02  -4.8580850e-03  -1.1294398e-02  -7.9974976e-05   1.8169754e-03   9.2063681e-04   1.3098848e-03
  -1.3664287e-03  -3.2736018e-04   1.3126455e-03   3.0249364e-03  -6.6027435e-04   7.8609807e-04   1.9103879e-03   2.2396825e-03   1.7764592e-03   3.1029521e-03   2.6025141e-03   1.6375289e-03   3.6403374e-03   2.7511953e-03   1.7849457e-03   2.9750587e-03  -3.3171875e-03  -6.5348530e-04   1.6985342e-03   1.5791712e-03   1.5151603e-03  -1.8411041e-04  -5.1865808e-04   7.1138615e-04   6.3016143e-04   1.3035119e-03   1.4346212e-03   9.6988678e-04   2.0184389e-03   4.9104984e-04   1.2484022e-05   6.2575616e-04  -1.1351246e-03   3.0863287e-03   7.5968244e-04  -1.7315969e-04  -8.0336194e-04  -1.1424317e-03  -5.5321275e-06   7.6270133e-04   5.5530382e-04   1.2810015e-03   1.4381948e-03  -4.1321749e-04  -2.5486269e-03  -7.8331502e-03   3.5391163e-04   2.0403576e-03   9.8571915e-04   1.3136334e-03
  -1.3877276e-03  -2.5685490e-04   1.3900157e-03   3.0311435e-03  -6.6035986e-04   7.5513287e-04   1.9788109e-03   2.1635580e-03   1.5161333e-03   2.7884131e-03   2.5487056e-03   1.4361675e-03   3.4773590e-03   2.5539370e-03   2.6359484e-03   2.6995374e-03  -3.2408594e-03  -5.4690539e-04   1.2471450e-03   1.6079878e-03   1.4849795e-03  -2.1522796e-04  -4.1003979e-04   7.1197056e-04   1.2382425e-03   1.2999345e-03   1.6550906e-03   6.4626045e-04   1.3634758e-03   3.9678585e-04   5.1028404e-05   6.8482890e-04  -1.0097874e-03   2.8342793e-03   8.3539641e-04  -2.8579758e-04  -2.6986649e-04  -1.1730742e-03   3.7310109e-04   1.3857768e-02   2.2691388e-04   1.1174917e-03   4.2065998e-04  -9.7658727e-03   3.1372032e-04  -1.0366648e-02  -2.4133842e-04   2.0275684e-03   7.4316148e-04   1.1623907e-03
  -1.5542373e-03  -4.8020706e-04   1.1565442e-03   2.7237707e-03  -9.3982439e-04   4.6564001e-04   1.7105287e-03   1.9931903e-03   1.4279153e-03   1.9776891e-03   2.0930297e-03   8.8239601e-04   3.1974728e-03   2.3696988e-03   1.7902501e-03   1.9751019e-03  -3.4783971e-03  -9.7768416e-04   8.4391749e-04   1.3726812e-03   1.3149589e-03  -4.1395135e-04  -7.4865390e-04   6.0753815e-04   2.6067457e-04   9.9950552e-04   1.1119053e-03   5.1083206e-04   1.1872473e-03   2.8654517e-04  -3.3413348e-04   4.7541028e-04  -1.2804493e-03   2.3473944e-03   5.9717568e-04   1.9480885e-04   3.0680004e-04  -1.3167837e-03  -2.8939628e-05   6.5549891e-03   6.0308934e-04   1.3184015e-03   8.2839688e-04  -1.7840273e-03  -5.0169295e-03  -1.1417010e-02   5.8825588e-04   2.1665883e-03   8.2587340e-04   1.4015497e-03
  -1.3564361e-03  -2.5765257e-04   1.5134113e-03   3.1537777e-03  -6.0047954e-04   9.0870337e-04   1.9329300e-03   2.2012054e-03   1.6607861e-03   3.2239310e-03   2.6920000e-03   1.7648845e-03   3.6635299e-03   2.4080386e-03   2.4521961e-03   2.6792609e-03  -3.2337189e-03  -5.9123797e-04   8.6113909e-04   1.6429051e-03   1.5553666e-03  -5.0844850e-05  -5.2487582e-04   9.2199072e-04   1.4493864e-03   1.3496622e-03   1.2995062e-03   8.1298384e-04   1.2545467e-03   4.8869732e-04   1.1871562e-04   9.5581409e-04  -1.1580205e-03   3.8840787e-03   8.8250550e-04  -2.0844403e-04  -5.3774961e-04  -1.0619528e-03  -5.8665738e-04  -3.8929735e-03   1.1174779e-04   1.3406107e-03   1.0911730e-03  -9.2286915e-03  -2.5721709e-03  -1.0690149e-02   3.9493121e-04   2.1093155e-03   8.2298263e-04   1.0820711e-03
  -1.2193203e-03  -2.6502612e-04   1.5855981e-03   3.1326448e-03  -6.1234075e-04   7.7033415e-04   2.0909493e-03   2.1169109e-03   1.6095630e-03   2.8878057e-03   2.5412859e-03   1.5109743e-03   3.3626424e-03   2.3282336e-03   2.1583864e-03   2.8286371e-03  -3.1278513e-03  -4.9904350e-04   8.0751162e-04   1.5988315e-03   1.4485797e-03  -2.4312893e-04  -5.1906431e-04   9.3028962e-04   9.4704912e-04   1.4008320e-03   2.0786126e-03   7.4848422e-04   1.2708127e-03   3.9068999e-04  -1.6200420e-04   8.5515168e-04  -9.5202681e-04   3.3111519e-03   6.7337858e-04  -6.2709616e-04  -7.9450419e-04  -1.0261376e-03  -3.7255182e-04   1.5695457e-03   3.3135322e-04   1.1321127e-03   9.4416825e-04  -1.1322011e-02  -1.0179548e-03  -6.3463910e-03  -3.1365291e-04   1.6952497e-03   8.9554128e-04   4.0653630e-04
  -1.3325692e-03  -4.9269595e-04   1.3968303e-03   2.8407287e-03  -7.8113988e-04   4.1605876e-04   1.7321814e-03   2.1354912e-03   1.3245794e-03   2.2806621e-03   2.1940158e-03   1.0631358e-03   3.0360806e-03   2.2990245e-03   2.2920542e-03   2.3996348e-03  -3.0894538e-03  -4.9193733e-04   1.1681987e-03   1.5484530e-03   1.4064949e-03  -3.8139196e-04  -4.4803901e-04   9.7799895e-04   1.0340234e-03   1.4163898e-03   1.4236631e-03   6.9907197e-04   1.1327310e-03   3.4595403e-04   9.8051787e-05   5.7351228e-04  -9.6407591e-04   4.3837759e-03   7.5113832e-04  -4.5237198e-04  -2.5593615e-04  -1.0093262e-03  -6.9078791e-04   1.6333719e-03   1.6156696e-04   1.3641868e-03   1.1407640e-03  -3.7980962e-03  -7.4196989e-03  -1.1756239e-02   5.9586618e-04   2.0938755e-03   1.0313870e-03   8.2175882e-04
  -1.0751612e-03  -2.2120796e-04   1.7527301e-03   3.2932092e-03  -5.2692724e-04   9.0440421e-04   1.9866987e-03   2.2715128e-03   1.8472490e-03   3.1408714e-03   2.7108928e-03   1.7309492e-03   3.7505834e-03   2.5181784e-03   2.0279330e-03   2.2789347e-03  -2.9570686e-03  -2.9800256e-04   1.6190364e-03   1.6558969e-03   1.5037967e-03  -1.9825222e-04  -3.0981569e-04   1.0483433e-03   9.8101271e-04   1.5963233e-03   1.4620287e-03   8.9552032e-04   2.1832369e-03   4.5460113e-04   2.5305169e-04   6.0139142e-04  -7.8038342e-04   4.9850303e-03   6.6022645e-04  -7.0111325e-04  -4.1207686e-04  -9.4892888e-04   7.3276227e-05  -4.3153055e-03   6.5349217e-04   1.3034795e-03   1.4276798e-03  -7.3960405e-03  -9.1596404e-03  -8.8029141e-03   2.0362961e-04   2.0094088e-03   7.7569846e-04   1.0364619e-03
  -1.0287624e-03  -2.9743506e-04   1.7070521e-03   3.1341324e-03  -5.6818192e-04   7.1270677e-04   1.7642714e-03   1.8882379e-03   1.4728255e-03   2.6592952e-03   2.4645065e-03   1.3645794e-03   3.5712437e-03   2.4944323e-03   2.1223498e-03   2.7051575e-03  -2.9987474e-03  -3.7274318e-04   1.4338124e-03   1.5457640e-03   1.4178193e-03  -2.2327066e-04  -4.4709421e-04   8.9757063e-04   1.2839114e-03   1.5200876e-03   1.3350869e-03   6.4782874e-04   1.2766566e-03   2.9183991e-04   1.8114163e-04   1.3703435e-03  -6.2733470e-04   4.5120199e-03   8.6089835e-04   3.9888342e-04  -4.5282536e-04  -9.7774109e-04  -3.4998043e-04   5.8181025e-03   3.5666054e-04   1.0920875e-03   1.1401924e-03  -8.9672264e-03  -1.7385298e-03  -8.1493966e-03  -1.6804767e-04   1.6882016e-03   4.2864887e-04   2.5801046e-04
  -1.0998534e-03  -4.6853840e-04   1.5504860e-03   2.8908241e-03  -6.5368874e-04   5.2457280e-04   1.8406318e-03   2.0558028e-03   1.4768854e-03   2.7788058e-03   2.4454226e-03   1.4418992e-03   3.5074074e-03   2.4548636e-03   2.0955657e-03   2.8421057e-03  -3.0049444e-03  -3.6618687e-04   1.5201669e-03   1.6099110e-03   1.4708672e-03  -1.5550641e-04  -2.5037493e-04   9.5615559e-04   1.2860449e-03   1.5205840e-03   1.4362405e-03   8.0518908e-04   1.2574713e-03   3.9199478e-04   2.3275828e-04   9.8470971e-04  -3.9478502e-04   4.1805631e-03   9.3942689e-04  -1.1640330e-04  -3.3892345e-04  -9.5895771e-04   6.2874431e-04   7.0638778e-03   4.0464825e-04   1.4429011e-03   1.3859076e-03  -9.1832876e-03  -6.0066273e-03  -1.3957933e-02   7.6876482e-04   2.2919732e-03   1.1565195e-03   1.0405427e-03
  -7.7629316e-04  -1.3666888e-04   1.9233476e-03   3.3084361e-03  -4.0779717e-04   9.5337391e-04   2.0600157e-03   2.5455621e-03   1.6769693e-03   3.0433536e-03   2.7774284e-03   1.7397460e-03   3.6265329e-03   2.5675944e-03   2.5257084e-03   2.4428763e-03  -2.8375373e-03  -4.7438178e-05   1.2735554e-03   1.6936050e-03   1.5135170e-03  -1.4624714e-04  -1.4051708e-04   1.0423190e-03   1.3810399e-03   1.5119973e-03   1.3442945e-03   8.7230018e-04   1.0799622e-03   4.6910244e-04   3.5975722e-04   8.0856646e-04  -6.5191131e-04   3.5273628e-03   8.1677077e-04  -2.5148096e-04   5.4530559e-05  -9.6749206e-04   2.0037993e-05   1.8156368e-03   3.8136629e-04   1.4521721e-03   1.0763590e-03  -5.2829464e-03  -3.9263694e-03  -9.0624010e-03   4.1215189e-04   2.6081640e-03   1.0946173e-03   1.0065557e-03
  -8.0287625e-04  -2.6383545e-04   1.7291979e-03   3.0842356e-03  -5.5192295e-04   7.7273854e-04   1.9906270e-03   2.1644591e-03   1.5761382e-03   2.4651284e-03   2.5122717e-03   1.3042951e-03   3.5937182e-03   2.5418671e-03   2.4454014e-03   2.6241017e-03  -2.8651403e-03  -2.0557048e-04   1.3959527e-03   1.5428360e-03   1.3277387e-03  -3.8875995e-04  -2.9360934e-04   9.3665748e-04   8.1757904e-04   1.5560747e-03   1.1909404e-03   6.3613645e-04   2.0462929e-03   3.4493461e-04   3.7239850e-04   1.1403756e-03  -6.2263384e-04   4.2658383e-03   9.0963615e-04  -6.1542820e-04   2.1721606e-04  -8.7501347e-04   5.1268662e-04  -5.0102023e-04   8.4428000e-04   1.1422749e-03   1.2589329e-03  -1.0072873e-02   2.1090785e-04  -1.0613358e-02  -2.9980039e-04   1.8838958e-03   6.6686777e-04   8.0602063e-04
  -9.9647196e-04  -4.7515094e-04   1.5359538e-03   2.8214664e-03  -6.7189953e-04   5.0380005e-04   1.7531520e-03   2.0287149e-03   1.6116108e-03   2.5512190e-03   2.3871639e-03   1.3737126e-03   3.3659481e-03   2.3808517e-03   2.6248735e-03   2.4424479e-03  -2.7539621e-03  -4.1167183e-05   7.8928412e-04   1.5699714e-03   1.3148430e-03  -5.6404091e-04  -1.9983109e-04   1.0612187e-03   1.0899390e-03   1.5333705e-03   1.8651856e-03   7.2194391e-04   1.6351286e-03   4.4503904e-04   4.3390787e-04   1.2771501e-03  -8.6976844e-04   4.2356257e-03   9.8521844e-04  -1.2319267e-04   2.0348659e-04  -8.9130283e-04   7.2893471e-04  -3.3704152e-03   6.1304349e-04   1.6288453e-03   1.1016807e-03  -1.3095108e-02  -4.7713001e-03  -5.0201756e-03   6.8503153e-04   2.7693645e-03   1.3680123e-03   1.8546922e-03
  -7.5455947e-04  -1.4312722e-04   1.8087273e-03   3.2160976e-03  -4.0811827e-04   7.9286977e-04   2.1567845e-03   2.5186876e-03   1.9530051e-03   2.9901504e-03   2.7519553e-03   1.7542351e-03   3.6812196e-03   2.8433693e-03   2.5582032e-03   2.9770331e-03  -2.6927462e-03  -3.3503879e-04   1.6974328e-03   1.6668870e-03   1.3304586e-03  -5.1947456e-04  -9.8249548e-05   1.0743800e-03   1.1282349e-03   1.2962184e-03   1.4608563e-03   1.0352550e-03   2.8526562e-03   5.5680523e-04   4.3266278e-04   9.3795307e-04  -7.6379062e-04   3.9690062e-03   1.0240853e-03  -1.4350069e-04  -1.1574835e-04  -9.0720673e-04   3.1036674e-05  -1.6966795e-03   7.1131787e-04   1.7654642e-03   9.5828361e-04  -1.5111777e-02  -6.0777729e-03  -7.6641138e-03   6.5275107e-04   2.4433099e-03   1.0893467e-03   1.7111567e-03
  -8.3971862e-04  -2.3465759e-04   1.6143549e-03   3.0070443e-03  -5.0143863e-04   7.2901236e-04   1.9151449e-03   2.3095256e-03   1.6601528e-03   2.3212137e-03   2.4614627e-03   1.3623752e-03   3.6537640e-03   2.5706107e-03   2.2069390e-03   2.7829530e-03  -2.6795049e-03  -3.3690761e-05   9.9700911e-04   1.4431040e-03   1.1584399e-03  -7.2859362e-04  -2.9681309e-04   9.2796003e-04   9.7696402e-04   1.2379101e-03   1.4783121e-03   7.8089884e-04   1.8000097e-03   4.4420370e-04   5.6731474e-04   7.9781871e-04  -8.7298092e-04   3.1449124e-03   9.9745777e-04   9.3448260e-05  -1.0914604e-04  -9.1933907e-04   3.5757446e-05  -8.0084922e-03   4.2311067e-04   1.3909737e-03   8.9805265e-04  -9.5496159e-03  -2.1024582e-03  -9.5061930e-03  -2.7565268e-06   2.1642440e-03   9.4869034e-04   1.3534961e-03
  -1.0015897e-03  -4.0998391e-04   1.4137236e-03   2.8087620e-03  -6.1612524e-04   5.5770518e-04   1.8602324e-03   2.3838303e-03   1.5555194e-03   2.6273641e-03   2.5469330e-03   1.5820035e-03   3.5003610e-03   2.6362219e-03   1.9825194e-03   2.4112798e-03  -2.7742859e-03  -2.5134670e-04   8.2328095e-04   1.5089945e-03   1.2338011e-03  -6.4013910e-04  -2.1206768e-04   1.0193725e-03   1.2703394e-03   1.1261299e-03   1.5245498e-03   1.1535853e-03   1.6153037e-03   5.6852057e-04   5.6233199e-04   6.2908710e-04  -6.3912949e-04   3.2516841e-03   8.3919143e-04  -6.4101181e-04   4.0384848e-04  -8.9683553e-04  -3.5669327e-05  -8.1503903e-03   5.5037742e-04   1.8506120e-03   1.2956408e-03  -9.4741900e-03  -2.5088820e-03  -9.4924252e-03   1.1287704e-03   2.6765596e-03   1.5272237e-03   2.0576043e-03
  -7.3737139e-04  -5.2148705e-05   1.6334724e-03   3.1527895e-03  -3.9978468e-04   9.1739208e-04   2.0720148e-03   2.5127663e-03   1.8009250e-03   2.7702602e-03   2.8033252e-03   1.7350909e-03   3.8098386e-03   3.0771031e-03   2.7320355e-03   2.9941639e-03  -2.6580235e-03  -1.3806835e-04   6.0371455e-04   1.5932621e-03   1.2176165e-03  -6.0740329e-04  -9.3081799e-05   1.0734801e-03   1.2778335e-03   1.2394832e-03   1.9611849e-03   1.0367500e-03   1.3009026e-03   7.1001099e-04   6.7023112e-04   8.5144537e-04  -5.0337933e-04   3.6878351e-03   1.1096706e-03  -2.5232026e-04   6.3036743e-04  -9.3724485e-04   1.5218870e-04   5.2411323e-03   7.7399227e-04   1.7370012e-03   1.1057456e-03  -5.0412398e-03  -6.6684373e-03  -9.6372645e-03   6.6014630e-04   2.5439763e-03   1.3860173e-03   1.4904320e-03
  -8.0455694e-04  -1.5723487e-04   1.4832378e-03   2.9726638e-03  -5.0263171e-04   7.1282650e-04   2.0402721e-03   2.3250524e-03   1.6201201e-03   2.2032012e-03   2.5083448e-03   1.3162381e-03   3.8485841e-03   2.6265113e-03   2.2115665e-03   2.6797524e-03  -2.7040045e-03  -1.5959432e-04   9.3847729e-04   1.3967175e-03   1.0646456e-03  -7.5669575e-04  -1.9796293e-04   9.3656965e-04   1.1036185e-03   1.2104118e-03   1.4046559e-03   1.1206357e-03   2.7039645e-03   5.8595260e-04   9.7251794e-04   8.8200474e-04  -9.4698457e-04   3.1503430e-03   7.9824060e-04  -2.3914452e-04   5.3370200e-05  -9.2000735e-04   5.6331983e-04   9.7250240e-03   8.1266352e-04   1.4941418e-03   9.3800377e-04  -1.1420929e-02  -3.8872773e-03  -7.6079639e-03   1.9045980e-04   2.3393179e-03   1.1346849e-03   8.8645710e-04
  -1.0051614e-03  -3.2423536e-04   1.2563082e-03   2.6774497e-03  -6.4258830e-04   5.5875385e-04   1.8361867e-03   1.6170884e-03   1.4033339e-03   2.0598378e-03   2.3394520e-03   1.1980567e-03   3.5341238e-03   2.5878511e-03   2.0695815e-03   3.0639516e-03  -2.7691359e-03  -2.5720609e-04   7.9607009e-04   1.4093092e-03   1.0844140e-03  -7.6809665e-04  -1.6353212e-04   9.9347951e-04   1.1652299e-03   1.2477996e-03   1.5031729e-03   1.2868794e-03   1.6953807e-03   5.8764621e-04   4.2534005e-04   6.1754201e-04  -7.4942643e-04   2.9016684e-03   1.0931501e-03   3.0420223e-04   1.1558724e-03  -9.0250839e-04   7.3328038e-04   5.0752610e-03   6.0684013e-04   1.8099244e-03   1.1732520e-03  -1.3041588e-02  -5.2546342e-03  -7.9378588e-03   1.1504893e-03   2.6341935e-03   1.5951500e-03   2.0682919e-03
  -7.8131916e-04   2.9665774e-05   1.5612784e-03   3.1438689e-03  -3.6008781e-04   9.1993919e-04   2.0085771e-03   2.8367075e-03   1.8547096e-03   2.7046616e-03   2.7927398e-03   1.6940318e-03   4.0057003e-03   3.1426288e-03   2.6140658e-03   2.8277885e-03  -2.6848833e-03  -1.8615958e-04   1.2307300e-03   1.5103926e-03   1.1321638e-03  -7.0575008e-04  -1.2706335e-04   1.0142700e-03   1.2077476e-03   1.3055773e-03   1.5439665e-03   1.4070396e-03   2.6461750e-03   7.0601294e-04   5.2725791e-04   5.6397147e-04  -8.5931679e-04   2.6756863e-03   1.0412375e-03   6.9383109e-06   3.3437531e-04  -9.1032265e-04   5.0886403e-05   8.7794205e-03   8.5058116e-04   1.7641752e-03   1.2613784e-03  -7.1646236e-03  -3.9831027e-03  -6.6158860e-03   7.0507621e-04   2.4808208e-03   1.2598196e-03   1.5133697e-03
  -8.8318583e-04  -6.4155327e-05   1.4040633e-03   2.9702324e-03  -4.3410165e-04   8.6029008e-04   2.0580876e-03   2.4908134e-03   1.6333588e-03   2.2067393e-03   2.5423046e-03   1.2780729e-03   3.6738606e-03   2.9874400e-03   2.8966723e-03   2.5820630e-03  -2.7559220e-03  -2.0712918e-04   1.0314360e-03   1.3496535e-03   1.0132525e-03  -7.7749335e-04  -3.2642821e-04   8.1621879e-04   1.0311200e-03   1.4001273e-03   2.1547358e-03   1.0352876e-03   1.2714973e-03   5.8845099e-04   4.3903300e-04   7.2041072e-04  -7.2420586e-04   3.2087704e-03   1.0403997e-03  -5.4102164e-04  -1.5216124e-04  -8.6305127e-04   4.6716942e-04  -2.9150702e-03   3.2151953e-04   1.4534952e-03   1.1974593e-03  -1.0796018e-02  -3.8949421e-03  -1.2094831e-02  -7.9513753e-05   2.2051455e-03   8.1675960e-04   6.7066599e-04
  -1.0382878e-03  -2.1714177e-04   1.1832046e-03   2.7206305e-03  -5.4929842e-04   6.8671536e-04   1.7846255e-03   2.1328661e-03   1.3404711e-03   1.7034455e-03   2.2021807e-03   8.0765481e-04   3.5396882e-03   2.7017286e-03   2.2483242e-03   2.7279672e-03  -2.9314987e-03  -2.3171780e-04   6.4299552e-04   1.2581755e-03   1.0077900e-03  -6.6595722e-04  -3.8947846e-04   7.4794749e-04   1.3126102e-03   1.5721662e-03   1.5174111e-03   9.7537861e-04   2.2313816e-03   5.0210266e-04   1.4209328e-04   4.8723261e-04  -6.4056495e-04   4.4644685e-03   8.7652524e-04  -3.3728345e-04   3.1629654e-05  -7.5164746e-04   4.6847909e-04  -5.8772817e-04   8.8259141e-04   1.6333694e-03   1.8857111e-03  -3.5132724e-03  -5.1775295e-03  -9.0674534e-03   7.7713857e-04   2.3193180e-03   1.2367845e-03   1.6217772e-03
  -6.9352973e-04   1.1932096e-04   1.7066689e-03   3.1919568e-03  -1.8225897e-04   1.1223882e-03   2.3270824e-03   2.9578563e-03   2.0306481e-03   2.7823800e-03   2.8263810e-03   1.7045350e-03   4.0098419e-03   3.0027835e-03   2.5850309e-03   3.1500177e-03  -2.6486183e-03  -2.2964537e-04   8.5563259e-04   1.4656453e-03   1.0657238e-03  -7.0525106e-04  -1.2411718e-04   9.1967295e-04   1.1048218e-03   1.2565947e-03   2.1273077e-03   1.2107431e-03   1.6949959e-03   6.3228176e-04   4.2373317e-04   1.0450673e-03  -7.9105195e-04   3.3464397e-03   8.3966291e-04  -1.5535110e-04   4.4613561e-04  -9.8817295e-04   3.7581800e-04  -5.4633023e-05   5.7831983e-04   1.7312233e-03   1.1095776e-03  -5.2538314e-03  -4.1178777e-03  -9.1918241e-03   6.7993515e-04   2.8165788e-03   1.3098853e-03   1.5199247e-03
  -9.4220269e-04   1.0123639e-05   1.3473857e-03   3.0104208e-03  -4.3571481e-04   9.3295157e-04   1.9243612e-03   2.1907461e-03   1.5016958e-03   2.2075986e-03   2.5924849e-03   1.2852072e-03   3.9886571e-03   2.7911062e-03   2.1336789e-03   2.4762983e-03  -2.7953614e-03  -3.8533914e-04   9.3158957e-04   1.2884723e-03   9.3219033e-04  -7.3817000e-04  -3.1849599e-04   7.4332103e-04   1.3311321e-03   1.2011490e-03   1.8934412e-03   1.4114515e-03   3.1821392e-03   5.6111236e-04   4.9580168e-04   8.7151671e-04  -9.2199241e-04   3.5736577e-03   9.0960495e-04   3.5882968e-04   6.8401183e-05  -1.0107929e-03   2.2454493e-04  -6.5442952e-03   1.0981802e-04   1.4398773e-03   9.5759612e-04  -3.3584738e-03  -4.6276953e-03  -1.0270537e-02   1.9864790e-04   2.2526204e-03   1.1783540e-03   1.0022627e-03
  -1.1610040e-03  -1.7150541e-04   1.2143650e-03   2.7349708e-03  -5.5232097e-04   7.6123117e-04   1.7521129e-03   2.2321832e-03   1.3952221e-03   1.8032524e-03   2.2860805e-03   9.6232904e-04   3.5454615e-03   2.6552400e-03   2.3525171e-03   2.2708243e-03  -2.9327066e-03  -2.0886624e-04   1.0377805e-03   1.1970683e-03   9.6111832e-04  -8.0312457e-04  -2.5137802e-04   7.5881468e-04   1.1445169e-03   1.2148438e-03   1.3525829e-03   7.4711401e-04   9.1615220e-04   5.3849857e-04   2.5026015e-05   5.8606965e-04  -6.3432282e-04   3.8409811e-03   9.1386330e-04  -3.0058270e-04   4.3838017e-04  -9.6442521e-04  -2.5483556e-04  -1.9835893e-02   5.3321826e-04   1.7511965e-03   1.5126287e-03  -8.3957370e-03  -4.2411820e-03  -1.0671673e-02   1.0644088e-03   2.2499156e-03   1.2967042e-03   1.3635081e-03
  -9.1496209e-04   1.7282742e-04   1.6060583e-03   3.2592150e-03  -2.3183976e-04   1.2499125e-03   2.3139988e-03   2.6547373e-03   1.8652159e-03   2.9097847e-03   2.9310577e-03   1.7938468e-03   4.0866043e-03   3.2294528e-03   2.8410563e-03   2.8805849e-03  -2.7756982e-03  -2.6586186e-04   1.1805438e-03   1.4718295e-03   1.1185247e-03  -5.2988197e-04  -2.2218398e-04   9.4392861e-04   1.0947920e-03   1.2154219e-03   2.2610452e-03   1.1508511e-03   2.0765061e-03   7.1431190e-04   4.8100541e-04   8.9511822e-04  -4.6807193e-04   3.9578541e-03   1.0258469e-03   2.3755102e-04   4.0248880e-04  -1.0101493e-03   1.2798407e-03   1.6765954e-03   4.4954222e-04   1.7252339e-03   1.4029805e-03  -1.3444259e-02  -2.9178050e-03  -1.1162953e-02   7.6092727e-04   2.3734297e-03   1.0864626e-03   1.7314035e-03
  -1.0270580e-03   8.2420265e-05   1.4454849e-03   3.1072586e-03  -4.0363387e-04   1.0251949e-03   2.1029036e-03   2.7539518e-03   1.9011800e-03   2.2989041e-03   2.6669595e-03   1.3769974e-03   3.6824362e-03   3.0805385e-03   2.1061299e-03   2.6193589e-03  -2.7656639e-03  -1.2599716e-04   1.4102663e-03   1.4028263e-03   9.8445592e-04  -6.3410582e-04  -2.8996647e-04   8.0689695e-04   7.6110999e-04   1.3023575e-03   1.5112167e-03   1.0742607e-03   2.4336057e-03   5.9701584e-04   6.3418678e-04   1.2726488e-03  -6.2709925e-04   3.1669040e-03   8.9969265e-04  -7.6531673e-05   4.2704219e-04  -9.7819348e-04   3.9328026e-04   4.9935463e-03   3.6184436e-05   1.3623361e-03   1.2696150e-03  -5.3702313e-03  -3.6383225e-03  -9.8388605e-03   9.5803780e-06   2.1256320e-03   9.6367206e-04   1.1264934e-03
  -1.1911805e-03  -1.2673042e-04   1.2591705e-03   2.8448049e-03  -5.7357905e-04   7.3661021e-04   1.8574608e-03   2.1645995e-03   1.2475847e-03   1.7190340e-03   2.2845014e-03   9.2675758e-04   3.4696097e-03   2.5810129e-03   2.5686694e-03   2.5476778e-03  -2.9167749e-03  -1.4994670e-04   8.1164221e-04   1.2235426e-03   8.6501957e-04  -7.0022780e-04  -4.7092949e-04   5.2252616e-04   4.0530335e-04   1.2196022e-03   1.6063453e-03   8.5468852e-04   1.9138101e-03   4.2586136e-04   2.5437551e-04   3.1986812e-05  -8.5238426e-04   3.4543846e-03   6.4368662e-04  -4.4072166e-04   3.1493345e-04  -1.0047345e-03  -4.6757679e-05  -2.3937805e-03   1.9798167e-04   1.3459385e-03   1.2230366e-03  -1.0078051e-02  -3.0852484e-03  -9.2759114e-03   5.8030593e-04   2.2257543e-03   1.2686283e-03   1.6049427e-03
  -1.0320928e-03   6.9626680e-05   1.5502231e-03   3.1893381e-03  -3.5735680e-04   1.0611864e-03   2.2915597e-03   2.7771147e-03   1.9311040e-03   2.7464635e-03   2.8520462e-03   1.7047757e-03   3.9885710e-03   3.2135686e-03   2.7301523e-03   2.9507205e-03  -2.8568765e-03  -1.2266300e-04   1.1371506e-03   1.5320866e-03   1.0802405e-03  -4.1103654e-04  -2.3295697e-04   9.1772311e-04   1.4223563e-03   1.2165088e-03   1.5976746e-03   1.1969315e-03   3.4994965e-03   6.5178022e-04   3.6288617e-04   7.4904721e-04  -5.6396937e-04   3.4739887e-03   9.8520343e-04  -9.9924247e-05  -5.3751450e-05  -9.7107561e-04   4.1578137e-04   4.1399550e-04   1.8356193e-04   1.5793175e-03   1.5873939e-03  -1.4342178e-02   1.1388677e-03  -1.2994634e-02   9.6805143e-04   2.2061437e-03   1.5156957e-03   1.1710355e-03
  -1.0645953e-03   9.9686127e-05   1.5627953e-03   3.2068044e-03  -3.7384089e-04   1.1201701e-03   2.0880580e-03   2.1888909e-03   1.7355895e-03   2.4740456e-03   2.7699850e-03   1.5358293e-03   3.8715925e-03   2.9024743e-03   2.1804236e-03   2.8097434e-03  -2.8365143e-03  -1.3423113e-04   7.0952799e-04   1.5226345e-03   1.0202256e-03  -4.9943093e-04  -2.4129094e-04   7.6774805e-04   8.9557905e-04   1.2687915e-03   2.1026589e-03   9.6880662e-04   2.3966809e-03   6.1874924e-04   2.6313183e-04   7.8087708e-04  -4.3745080e-04   3.8054148e-03   7.3774945e-04  -6.0411945e-05   6.8355969e-04  -9.4127975e-04   7.4432282e-05   8.7659582e-03   4.9759413e-04   1.4380391e-03   1.4949378e-03  -4.0230285e-03  -5.4254779e-03  -1.4099708e-02   2.2382753e-04   1.8541679e-03   1.5332338e-03   9.3552721e-04
  -1.1749397e-03  -8.5677493e-05   1.3942125e-03   2.9266330e-03  -5.4339087e-04   8.5220410e-04   2.1909699e-03   2.0702872e-03   1.4403313e-03   1.8626532e-03   2.4172524e-03   1.0586815e-03   3.6208681e-03   2.6808849e-03   2.1469477e-03   2.6537497e-03  -2.9081665e-03  -2.9181538e-04   7.3681134e-05   1.3302200e-03   8.8757632e-04  -6.1165815e-04  -4.7639015e-04   5.9388671e-04   8.1473723e-04   1.2427075e-03   1.5527688e-03   1.0485790e-03   2.4553023e-03   4.2882297e-04   1.5596877e-04   1.0372819e-03  -5.9168850e-04   3.5269025e-03   8.7606028e-04  -9.7596133e-04   2.5304471e-04  -8.5555192e-04   1.2921842e-04  -2.3648927e-03   1.8449388e-04   1.0998234e-03   1.0839185e-03  -4.2814421e-03  -3.5257605e-03  -7.1708537e-03   1.3599635e-05   1.7007493e-03   9.2176109e-04   9.5204188e-04
  -1.1029039e-03  -5.2308264e-05   1.5798470e-03   3.1621105e-03  -3.7635726e-04   1.1151078e-03   2.1289296e-03   2.8727334e-03   1.9905628e-03   2.7207281e-03   2.7796016e-03   1.6752681e-03   3.8775404e-03   2.9449838e-03   2.2958531e-03   2.8501884e-03  -2.9393574e-03  -1.3004859e-04   6.4829062e-04   1.4684381e-03   1.0482292e-03  -2.9711772e-04  -3.4434098e-04   8.2007248e-04   1.0767395e-03   1.1969985e-03   1.6819971e-03   1.4380160e-03   1.6026836e-03   6.2115176e-04   6.1123655e-04   1.3430387e-03  -2.4190474e-04   3.8809234e-03   6.1428634e-04  -8.2647247e-04   8.7558886e-04  -1.0375768e-03  -5.1818668e-05   6.5713902e-03   6.5034721e-04   1.5985931e-03   1.5885775e-03  -8.1986068e-03  -5.9047858e-03  -1.0477506e-02   8.6700701e-04   2.3068497e-03   1.7236004e-03   1.2103746e-03
  -9.7954471e-04   1.0464444e-04   1.6738167e-03   3.1784321e-03  -3.6241466e-04   1.0940509e-03   2.1361075e-03   2.7807844e-03   1.8348818e-03   2.4475148e-03   2.8317627e-03   1.5657089e-03   3.8082264e-03   2.8848397e-03   2.7467909e-03   3.0446693e-03  -2.9383493e-03  -2.5953769e-04   6.4474402e-04   1.4630317e-03   1.0490256e-03  -1.9841794e-04  -4.2749319e-04   7.2438671e-04   6.3985062e-04   8.7829970e-04   1.9553474e-03   1.1577191e-03   3.0529716e-03   5.9235096e-04   7.1607594e-04   1.0361201e-03  -2.2387000e-04   2.8315268e-03   9.0901315e-04  -7.1015325e-04  -2.0190394e-04  -1.0181941e-03  -9.7220791e-06  -5.0940400e-04   1.9042894e-04   1.4373627e-03   1.1427446e-03  -6.6423197e-03  -8.0029294e-03  -1.2315001e-02   6.5426057e-04   2.1154915e-03   1.4492607e-03   1.0555767e-03
  -1.1660914e-03  -6.6175402e-05   1.4597904e-03   2.9486371e-03  -4.9720600e-04   8.9783350e-04   1.8653853e-03   2.2995549e-03   1.6040896e-03   1.8415811e-03   2.4765334e-03   1.0663007e-03   3.4512887e-03   2.6817201e-03   2.7532480e-03   2.3559493e-03  -2.9133731e-03  -1.1124610e-04   8.6181337e-04   1.3263008e-03   8.5982971e-04  -3.6823470e-04  -5.6866021e-04   6.0715456e-04   1.1649447e-03   1.1351358e-03   2.1549305e-03   1.4425284e-03   2.0120351e-03   4.3822514e-04   2.6817416e-04   1.4546256e-03  -4.6431227e-04   3.4943304e-03   5.5429182e-04  -7.7917601e-04   3.2041263e-04  -9.5025176e-04   3.1259924e-04   2.0022539e-02   6.8883848e-05   1.1198603e-03   1.0617966e-03  -3.7640121e-03  -9.7274575e-03  -1.0474187e-02  -1.3867339e-04   1.6095005e-03   8.0833398e-04   5.0524931e-04
  -1.1743645e-03  -1.9345561e-04   1.5188166e-03   2.9619990e-03  -4.7282237e-04   8.8132313e-04   2.0161415e-03   2.3158067e-03   1.8013438e-03   2.5050614e-03   2.6946797e-03   1.5234108e-03   3.5919126e-03   2.6342324e-03   2.0264094e-03   2.4714239e-03  -2.9252458e-03  -1.1739133e-04   1.4123570e-03   1.4215908e-03   9.7453839e-04  -2.3457731e-04  -2.8199592e-04   7.3353591e-04   1.0463442e-03   1.1412146e-03   1.8712825e-03   1.3547383e-03   2.2850772e-03   5.6441681e-04   5.7192775e-04   1.8431005e-03  -1.2055766e-04   4.0302831e-03   7.7625964e-04  -2.2901713e-04   5.9639453e-04  -9.7514380e-04   4.8586717e-04   8.7011540e-03   1.6298288e-04   1.5783592e-03   1.4072403e-03  -8.9883227e-03  -3.3259012e-03  -1.1456043e-02   1.0644677e-03   2.3077303e-03   1.6930150e-03   1.6418847e-03
  -8.9258282e-04   1.4742515e-04   1.8163844e-03   3.2163865e-03  -2.9384135e-04   1.0655335e-03   2.0956565e-03   2.7660977e-03   1.9444227e-03   2.5339539e-03   2.8847784e-03   1.6629014e-03   3.7533487e-03   2.9945790e-03   2.0362313e-03   2.7995396e-03  -2.8321675e-03  -7.3368545e-05   1.3856274e-03   1.5666831e-03   1.0068853e-03  -2.1551852e-04  -3.5954348e-04   7.9063652e-04   1.0916833e-03   8.8168250e-04   1.3635085e-03   1.2077879e-03   2.4034451e-03   6.2270305e-04   4.7096264e-04   9.5956109e-04  -1.6004870e-04   3.8290170e-03   8.1600016e-04  -8.1072329e-04   1.3714666e-04  -8.4405707e-04   3.8432458e-04  -8.6200107e-03   4.7156413e-04   1.4710280e-03   1.4061239e-03  -1.0914363e-02  -2.0314672e-03  -8.2731340e-03   6.9578015e-04   2.0428873e-03   1.4143125e-03   1.7084081e-03
  -9.7542896e-04   3.4643275e-05   1.6251778e-03   3.0385840e-03  -4.0263266e-04   9.6765277e-04   2.1567440e-03   2.4766829e-03   1.7251179e-03   2.0624127e-03   2.6458600e-03   1.2693616e-03   3.5164417e-03   2.9553180e-03   2.5699779e-03   2.6072110e-03  -2.8480708e-03   1.7228245e-05   1.2653004e-03   1.4151528e-03   8.7028102e-04  -3.2359036e-04  -3.5499607e-04   6.9710426e-04   9.5205347e-04   1.0927673e-03   1.5430683e-03   8.9214346e-04   3.0598575e-03   5.0695200e-04   4.9138465e-04   1.0943871e-03  -3.6097568e-04   3.7247201e-03   7.2138041e-04  -7.3447754e-04  -1.6110690e-03  -8.8735647e-04  -5.2462501e-04  -5.1501347e-03   4.4667522e-05   1.2386385e-03   1.1707047e-03  -1.2673046e-02  -7.6127686e-03  -1.2495697e-02  -1.3288673e-06   1.7362887e-03   1.3239624e-03   8.8564417e-04
  -1.0431557e-03  -1.3500966e-04   1.4459552e-03   2.7567593e-03  -5.4820807e-04   7.2444137e-04   1.7283842e-03   2.1830720e-03   1.5150618e-03   1.5055459e-03   2.3032036e-03   8.1753742e-04   3.1199120e-03   2.6003702e-03   2.8241035e-03   2.4799204e-03  -2.9198031e-03  -7.3862808e-05   8.7932940e-04   1.2658666e-03   7.5392966e-04  -5.3492619e-04  -3.7252510e-04   6.2070566e-04   5.9685472e-04   9.5817749e-04   1.7388603e-03   8.4072369e-04   2.2210923e-03   4.2108216e-04   3.1912536e-04   9.7455090e-04  -5.0972705e-04   3.3199636e-03   8.6145505e-04  -1.3904234e-04   7.1259256e-04  -8.9448801e-04   5.9898716e-04   5.8010151e-03   4.1418744e-04   1.5440047e-03   1.4481090e-03  -7.0550386e-04  -2.8397355e-03  -1.2139245e-02   1.0240441e-03   2.3744893e-03   1.6782803e-03   1.4430807e-03
  -7.8712596e-04   1.2974102e-04   1.7955223e-03   3.2089872e-03  -2.5166993e-04   1.1492166e-03   2.3194419e-03   2.6032352e-03   1.8762003e-03   2.6838460e-03   2.9294926e-03   1.6862517e-03   3.6097788e-03   2.9044165e-03   2.2769719e-03   2.6746073e-03  -2.7753646e-03  -1.7979715e-04   1.2060398e-03   1.5379116e-03   9.2299900e-04  -3.2289154e-04  -1.7968506e-04   8.8629569e-04   1.0939122e-03   9.4015448e-04   1.7478772e-03   1.1383496e-03   3.1891221e-03   6.3269219e-04   4.9944571e-04   9.5263211e-04  -5.6805974e-04   3.6208031e-03   9.2181948e-04  -4.6159193e-04   4.7321304e-05  -8.4288407e-04   1.1354795e-04  -2.1386857e-03   4.5676637e-04   1.6617483e-03   1.5033411e-03  -4.8446832e-03  -4.8289485e-03  -8.7525146e-03   1.0012977e-03   2.4432910e-03   1.4757443e-03   1.4039882e-03
  -7.9621200e-04   1.1477172e-04   1.7005199e-03   3.1035850e-03  -2.8975567e-04   1.0988357e-03   2.2005602e-03   2.4818231e-03   1.9334266e-03   2.3273001e-03   2.7704826e-03   1.3576266e-03   3.5207598e-03   2.8316060e-03   2.5256632e-03   2.6395714e-03  -2.8696354e-03   1.5770078e-05   1.3044471e-03   1.4522882e-03   8.5904100e-04  -3.6798845e-04  -3.0550908e-04   7.0901378e-04   1.1514701e-03   8.6187629e-04   1.6394485e-03   1.2433674e-03   2.6616589e-03   5.0943141e-04   7.1061333e-04   1.5708201e-03  -4.7592176e-04   3.9577521e-03   8.3958119e-04  -4.9556739e-04   3.2839476e-04  -9.1629813e-04   3.0469697e-04   3.7841788e-03   3.2642434e-04   1.4214169e-03   1.1008836e-03  -2.0900419e-02  -3.9634779e-03  -9.3037244e-03   3.1356173e-04   1.9151886e-03   1.1852597e-03   1.3554652e-03
  -9.0137834e-04  -6.5073647e-05   1.4946307e-03   2.8162785e-03  -4.3174758e-04   8.5035374e-04   1.8507700e-03   2.1134121e-03   1.4771649e-03   1.7101325e-03   2.4382842e-03   8.7738474e-04   3.4590752e-03   2.4257065e-03   2.3565190e-03   2.3884939e-03  -2.8608635e-03  -5.8049354e-05   6.0847012e-04   1.2760292e-03   6.8081834e-04  -6.1577861e-04  -3.6140706e-04   5.7889277e-04   4.7581247e-04   9.8757725e-04   1.4373409e-03   7.3542714e-04   1.3949478e-03   3.7949198e-04   3.1040334e-05   8.6371443e-04  -7.2137767e-04   3.1588515e-03   6.1280315e-04  -1.2171043e-03   4.5953540e-04  -9.3914912e-04   3.3736834e-04   1.3039059e-03  -3.8776929e-05   1.0440011e-03   9.6829247e-04  -1.3742511e-02  -6.3575059e-03  -6.8523074e-03  -8.6610758e-05   1.6210300e-03   1.1316368e-03   9.2523353e-04
  -8.7639538e-04  -6.3998821e-05   1.6223317e-03   3.0145375e-03  -3.0442988e-04   1.0000181e-03   2.1639219e-03   2.3158093e-03   1.8085400e-03   2.4846583e-03   2.7511043e-03   1.4469551e-03   3.5787988e-03   2.9110233e-03   2.3941703e-03   2.7738709e-03  -2.8249025e-03  -3.6633570e-05   1.0996138e-03   1.4019593e-03   8.1166480e-04  -4.9634173e-04  -2.7960856e-04   7.9233741e-04   8.5130963e-04   1.0025103e-03   1.7378121e-03   1.1603133e-03   2.4370393e-03   5.7977566e-04   4.7467451e-04   1.4973329e-03  -5.0374755e-04   3.1972628e-03   8.8406767e-04   3.4048228e-04   5.8135221e-04  -8.3556998e-04   5.1958580e-04   5.8369865e-03   4.6779776e-05   1.5706494e-03   1.5871305e-03  -1.5290940e-02  -8.7881126e-03  -1.0595514e-02   7.5901137e-04   2.1574080e-03   1.4768945e-03   1.6497584e-03
  -7.4534875e-04   1.2809692e-04   1.6494697e-03   3.0732725e-03  -2.3857200e-04   1.0424893e-03   2.0849342e-03   2.5486930e-03   1.9628240e-03   2.3198270e-03   2.7723177e-03   1.4448240e-03   3.5572140e-03   2.8443641e-03   2.3642159e-03   2.9226753e-03  -2.8238941e-03  -2.4143868e-05   1.4480073e-03   1.4271956e-03   8.0197159e-04  -4.7498906e-04  -2.4003799e-04   7.0150098e-04   8.0148794e-04   1.0129773e-03   1.5099908e-03   1.7107097e-03   3.1080307e-03   5.6472019e-04   1.9689293e-04   1.2549876e-03  -5.8491423e-04   3.6812692e-03   8.3744415e-04  -2.9565691e-04   2.5242002e-04  -8.3049457e-04   5.0360331e-04  -8.5569359e-03   1.9405334e-04   1.4405287e-03   1.1228941e-03  -9.4090458e-03  -8.0880150e-03  -1.3343648e-02   5.7703635e-04   1.8609078e-03   1.5134921e-03   1.2609853e-03
  -8.5423561e-04   1.3253519e-05   1.4718840e-03   2.8642030e-03  -3.6158907e-04   8.1767113e-04   1.8387703e-03   1.9909872e-03   1.5841530e-03   1.7478446e-03   2.4978127e-03   9.8597223e-04   3.2953408e-03   2.6360389e-03   2.3401785e-03   2.6102604e-03  -2.7986881e-03  -9.6980708e-05   4.5383134e-04   1.2819688e-03   6.5088365e-04  -6.6161033e-04  -3.4766132e-04   5.9161120e-04   7.7389221e-04   1.0758642e-03   1.1130748e-03   1.4314929e-03   5.4921722e-04   4.3254756e-04   2.2133003e-04   8.8600826e-04  -6.6710683e-04   3.1858962e-03   9.2165702e-04  -7.1137270e-04  -2.3491602e-05  -7.4645644e-04   2.0656211e-04   9.0715764e-03  -5.1609486e-06   1.1313760e-03   1.5025489e-03  -1.2141112e-02  -1.7775142e-03  -7.9972893e-03  -2.7245746e-04   1.6435419e-03   7.8096165e-04   5.9014431e-04
  -9.9774089e-04  -1.6892208e-04   1.2927427e-03   2.6316803e-03  -4.8918126e-04   6.5149309e-04   1.8231156e-03   2.0116386e-03   1.6592103e-03   1.8687710e-03   2.4327151e-03   1.0835098e-03   3.2502420e-03   2.4485001e-03   2.4668959e-03   2.6525573e-03  -2.7932969e-03   3.6473251e-05   9.3031791e-04   1.3018629e-03   6.9505005e-04  -6.6635810e-04  -2.8567933e-04   7.0774206e-04   1.4329603e-03   1.1390921e-03   1.9295742e-03   1.2512127e-03   2.5559415e-03   5.1497325e-04   2.2775987e-04   1.4224920e-03  -1.2347302e-04   3.8215055e-03   1.0186074e-03  -6.0052745e-04   3.6668158e-04  -7.9429155e-04   3.5949075e-04  -6.5359580e-03  -2.0604084e-05   1.5382896e-03   1.6644530e-03  -1.4104959e-02  -5.5976547e-03  -8.5882843e-03   9.0007990e-04   2.2662561e-03   1.3114953e-03   1.6835906e-03
  -7.3084229e-04   1.8452872e-04   1.6144050e-03   3.1150659e-03  -2.0407367e-04   1.0493996e-03   1.9441932e-03   2.6089461e-03   1.8740690e-03   2.2989104e-03   2.7960865e-03   1.4435794e-03   3.6331813e-03   2.9397341e-03   2.1654994e-03   2.8217861e-03  -2.7191157e-03   1.2135637e-04   1.1251826e-03   1.4412354e-03   7.3941110e-04  -5.7710084e-04  -9.6006850e-05   8.4798119e-04   8.5426465e-04   1.1783174e-03   1.8094982e-03   1.1965459e-03   3.0036252e-03   5.8394688e-04   6.9879636e-04   1.0959099e-03  -3.9291842e-04   3.1332676e-03   1.0909931e-03  -2.8256277e-04   1.6240813e-04  -7.6200330e-04   4.5554745e-05  -3.0666883e-03   6.8858208e-04   1.4994285e-03   1.8733913e-03  -4.6487562e-03  -4.9063307e-03  -7.6154419e-03   5.2267703e-04   1.9862102e-03   1.3533146e-03   1.1958645e-03
  -7.9698354e-04   1.0410181e-04   1.4922799e-03   2.9719232e-03  -2.8289435e-04   9.1252878e-04   2.0543812e-03   2.4977936e-03   1.9270356e-03   1.8780255e-03   2.6100546e-03   1.1244948e-03   3.4802791e-03   2.8270045e-03   2.6620973e-03   2.3834452e-03  -2.7354036e-03   1.4202464e-04   5.6740950e-04   1.2716021e-03   6.2733836e-04  -6.8685133e-04  -2.5037743e-04   6.3206966e-04   7.5285445e-04   1.1795234e-03   1.8221809e-03   1.0422706e-03   2.5999504e-03   4.8736911e-04   8.6745404e-04   9.3894766e-04  -5.1355734e-04   4.1561625e-03   8.3378353e-04  -5.1128451e-04  -2.4540542e-04  -7.3728769e-04   5.9561199e-04   8.1430009e-04  -9.3313349e-05   1.2945954e-03   1.2167888e-03  -8.6261202e-03  -5.8435453e-03  -9.2924880e-03   7.2348274e-05   1.6760839e-03   1.1460279e-03   7.1946654e-04
  -9.5828366e-04  -7.3795876e-05   1.2809358e-03   2.7163886e-03  -4.7349822e-04   7.0057460e-04   1.8866875e-03   2.4354223e-03   1.4559833e-03   1.3285900e-03   2.2214989e-03   6.8040373e-04   3.2162105e-03   2.4148065e-03   2.4799041e-03   2.5770389e-03  -2.8041282e-03   7.6461747e-06   9.4021007e-04   1.1237508e-03   5.1148143e-04  -8.9102890e-04  -3.6977351e-04   5.7345373e-04   8.5982541e-04   1.1579519e-03   1.7133955e-03   1.2265599e-03   1.9320984e-03   3.7861985e-04   4.0815657e-04   1.1248371e-03  -3.9497166e-04   3.5466773e-03   8.8709174e-04  -4.0317351e-05   1.3014681e-04  -7.7387574e-04   6.6656660e-04   9.8647932e-03   4.2401318e-04   1.5347238e-03   1.4901059e-03  -1.6619924e-02  -2.0849374e-03  -9.2097120e-03   8.3262468e-04   2.0868464e-03   1.4496817e-03   1.7268413e-03
  -7.4619293e-04   2.2215203e-04   1.6419672e-03   3.1971205e-03  -1.7464817e-04   1.1783022e-03   2.1702358e-03   2.6738057e-03   2.0982032e-03   2.4841509e-03   2.9049800e-03   1.6243277e-03   3.7927926e-03   2.9909126e-03   2.9335762e-03   2.9523270e-03  -2.6656226e-03   3.5327830e-05   1.5037084e-03   1.4948928e-03   7.1699620e-04  -6.4237369e-04  -4.6002715e-05   9.0793998e-04   1.3865870e-03   1.2348659e-03   1.8616637e-03   1.2841340e-03   3.7734825e-03   6.8532256e-04   5.4067757e-04   7.0167606e-04  -4.8057354e-04   4.0500406e-03   1.0451007e-03  -4.7149364e-04   3.0085805e-04  -7.3292188e-04   5.4543721e-04   9.0924427e-03   4.3885371e-05   1.6142236e-03   1.4911731e-03  -1.8712700e-03  -2.6765522e-03  -8.6742658e-03   7.8144833e-04   2.1417877e-03   1.5523374e-03   1.3997550e-03
  -7.7075843e-04   2.3807015e-04   1.5864223e-03   3.1530936e-03  -2.2165936e-04   1.0621297e-03   2.0232641e-03   2.6207573e-03   1.8871764e-03   2.0832277e-03   2.7686534e-03   1.3582930e-03   3.8146612e-03   2.6734669e-03   2.2721139e-03   2.6524339e-03  -2.6200530e-03   2.5287240e-05   1.6847240e-03   1.4176406e-03   6.3661684e-04  -7.2958256e-04  -1.0894725e-04   8.0819201e-04   1.3730660e-03   1.2904315e-03   1.7326742e-03   9.3523948e-04   3.7557972e-03   6.0363085e-04   5.6728051e-04   1.4539536e-03  -5.9699663e-04   4.1228822e-03   1.0266858e-03  -8.7202125e-06   7.7068416e-04  -7.2363386e-04   2.1566988e-04   1.7348664e-04   4.5737870e-05   1.4280670e-03   1.3995059e-03  -6.6822306e-03  -4.4480949e-03  -9.9473959e-03   2.6174920e-04   2.0831211e-03   1.2965954e-03   1.1090909e-03
  -9.3121210e-04   6.6853318e-05   1.4109651e-03   2.9034878e-03  -3.9823056e-04   7.7395811e-04   1.9388663e-03   2.3126898e-03   1.5175517e-03   1.6043647e-03   2.4496594e-03   9.7842014e-04   3.2191994e-03   2.7710786e-03   2.3307712e-03   2.7753070e-03  -2.7005048e-03   5.5137858e-05   1.3535807e-03   1.2313393e-03   5.1751226e-04  -8.5229764e-04  -3.1293114e-04   6.8046752e-04   1.0477221e-03   1.1264891e-03   1.2075549e-03   1.0276712e-03   2.2976017e-03   4.4890339e-04   4.2490914e-04   6.9626269e-04  -3.1848025e-04   3.7149636e-03   7.5398723e-04  -9.7050163e-04   4.4173765e-05  -8.0177846e-04   7.1652909e-04   7.8248291e-04  -9.4102281e-05   1.3153214e-03   1.5493401e-03  -1.8330651e-03   8.4199704e-04  -1.2479160e-02   7.3995773e-04   2.0552240e-03   1.3579370e-03   1.3545229e-03
  -8.2872860e-04   2.3644809e-04   1.6348220e-03   3.2080114e-03  -2.1039140e-04   1.1141392e-03   2.2554849e-03   2.4947657e-03   2.1376323e-03   2.4921517e-03   2.9172476e-03   1.6541219e-03   3.9169453e-03   3.1289647e-03   2.4858175e-03   2.9831904e-03  -2.6395787e-03   6.6694614e-05   9.2344196e-04   1.4864730e-03   7.0364540e-04  -6.8268494e-04  -4.1033556e-05   9.7544561e-04   9.2842476e-04   1.2591999e-03   1.4965537e-03   1.7276681e-03   2.7804400e-03   7.4259425e-04   1.0076973e-04   1.0082115e-03  -3.8527045e-04   3.4751222e-03   1.1751953e-03  -8.3396371e-05   2.4525268e-04  -7.4253284e-04   8.0351811e-04   1.0777072e-02   3.7887224e-04   1.6059279e-03   1.6491840e-03  -8.9295208e-03  -2.8949173e-03  -1.0959075e-02   8.1479189e-04   2.5521135e-03   1.7841101e-03   1.9143516e-03
  -7.8433793e-04   3.0982631e-04   1.6832431e-03   3.2531645e-03  -2.0010196e-04   1.1059807e-03   2.0007994e-03   2.6832670e-03   1.8364377e-03   2.2651944e-03   2.9181568e-03   1.5648612e-03   4.0283911e-03   3.2665308e-03   2.6620231e-03   3.0415305e-03  -2.5247319e-03   4.5624591e-04   1.0734586e-03   1.5129949e-03   6.5696583e-04  -7.4759754e-04   5.2997417e-05   1.0049462e-03   9.0618501e-04   1.4055221e-03   1.6994067e-03   1.4023412e-03   1.8246976e-03   7.5436902e-04   8.0962217e-04   1.1963436e-03  -2.2304759e-04   4.1500870e-03   1.1818653e-03  -2.1036777e-04   5.1638059e-04  -6.5351650e-04   3.0880392e-04  -5.7925591e-03   7.5324532e-04   1.5327999e-03   1.4133404e-03  -1.6638247e-02  -1.0903065e-02  -1.0958453e-02   3.2462791e-04   2.2895134e-03   1.3690793e-03   1.1799698e-03
  -8.9247437e-04   1.6046327e-04   1.5289423e-03   3.0322941e-03  -3.4951320e-04   9.7210752e-04   2.1501775e-03   2.2287106e-03   1.8402063e-03   1.7162630e-03   2.6464586e-03   1.1356400e-03   3.6219487e-03   2.7102106e-03   2.0890154e-03   3.3401833e-03  -2.5167400e-03   1.6524093e-04   1.4470296e-03   1.3609133e-03   5.2187976e-04  -9.1674720e-04  -1.8664256e-04   8.6891733e-04   1.1435400e-03   1.5610071e-03   1.9286873e-03   1.1505865e-03   1.6101446e-03   6.0512964e-04   6.2622665e-04   1.6126795e-03  -2.0402476e-04   4.0988978e-03   9.7495649e-04  -3.2935492e-04   2.5665067e-04  -5.9823605e-04   5.5153087e-06  -1.7339981e-03   3.2218467e-04   1.2336166e-03   1.2378398e-03  -3.9927568e-03  -7.8547960e-03  -4.5978380e-03   1.5400196e-04   2.0083457e-03   1.6942265e-03   1.1946912e-03
  -8.2071940e-04   1.9713446e-04   1.7390776e-03   3.2751283e-03  -2.4227203e-04   1.1481039e-03   2.1270525e-03   2.1770797e-03   2.1312179e-03   2.4380074e-03   2.9836348e-03   1.7006157e-03   3.8169976e-03   3.0496127e-03   2.9027706e-03   2.7313905e-03  -2.2590479e-03   4.2254318e-04   1.3483608e-03   1.5232835e-03   6.8435248e-04  -7.9275639e-04   7.7145851e-05   1.1330443e-03   1.2906209e-03   1.6868286e-03   1.9996816e-03   1.1664444e-03   2.6768972e-03   8.2666782e-04   6.7883439e-04   1.7014528e-03  -1.3147699e-04   4.2070104e-03   1.2697958e-03  -7.1446615e-05   1.5249821e-05  -5.6046766e-04   8.6027919e-04  -1.9885397e-03   9.1354112e-04   1.7269989e-03   1.7187475e-03   2.2260020e-04  -6.7381677e-03  -6.8372991e-03   8.7472575e-04   2.8119392e-03   1.6445282e-03   2.1637725e-03
  -7.1170693e-04   3.9399153e-04   1.8217680e-03   3.3518577e-03  -1.6168934e-04   1.2495847e-03   2.2543662e-03   2.5771337e-03   2.2448101e-03   2.4372335e-03   3.0500321e-03   1.7536323e-03   3.8013870e-03   3.2281454e-03   2.7905328e-03   3.1123196e-03  -2.3097505e-03   1.7962829e-04   1.3204269e-03   1.6246552e-03   6.7638973e-04  -7.4582314e-04  -5.0251575e-08   1.1660756e-03   1.1382357e-03   1.3890225e-03   1.8249935e-03   1.3613164e-03   2.1078610e-03   8.7793951e-04   1.1150299e-03   1.1036242e-03  -3.2786062e-04   4.0359139e-03   1.3681535e-03   1.8953568e-04   1.0015634e-03  -6.3147146e-04   4.6449085e-04  -1.8429864e-03   5.2997278e-04   1.6979390e-03   1.5275364e-03  -8.3511621e-03  -6.7811022e-03  -1.0087497e-02   8.0168055e-04   2.5279450e-03   1.6300438e-03   1.4984923e-03
  -8.5950602e-04   2.6872579e-04   1.6361173e-03   3.1567921e-03  -2.7380005e-04   1.1420147e-03   2.0786554e-03   2.8516599e-03   1.8344105e-03   2.0501390e-03   2.8130850e-03   1.4217431e-03   3.8367386e-03   3.0995081e-03   2.8015664e-03   2.5270160e-03  -2.4484613e-03   2.1920702e-04   1.1097033e-03   1.4467615e-03   5.7085545e-04  -7.9112785e-04  -7.6078584e-05   1.0397815e-03   8.5748261e-04   1.4057120e-03   2.1657902e-03   1.2544144e-03   2.0462158e-03   7.3579297e-04   4.3134016e-04   1.1639827e-03   7.5350916e-05   4.4851438e-03   1.1717214e-03   4.1656019e-04   1.4443268e-04  -5.9607212e-04   3.9841482e-04  -5.1324368e-03   3.9845880e-04   1.3451630e-03   1.2452111e-03  -6.5364339e-03  -4.4764387e-03  -1.0060085e-02   2.2052093e-04   2.1752892e-03   1.5495003e-03   1.1594448e-03
  -8.9380366e-04   1.4006389e-04   1.6602715e-03   3.0818656e-03  -3.0213373e-04   1.0899099e-03   2.0852340e-03   2.3072574e-03   2.1139630e-03   2.4428177e-03   2.9627429e-03   1.7435845e-03   3.9498108e-03   3.1365098e-03   2.9120173e-03   2.7932923e-03  -2.4110633e-03   1.6922501e-04   8.5792009e-04   1.6008501e-03   6.6967605e-04  -6.9908140e-04   1.9651098e-04   1.2471766e-03   1.2767898e-03   1.2289535e-03   1.9153308e-03   1.4752389e-03   2.6137554e-03   8.7117421e-04   1.0881406e-03   9.1934804e-04  -1.8222663e-04   3.8502347e-03   1.2977644e-03   3.0780444e-04   7.1337546e-04  -6.4967590e-04   7.8445952e-04  -4.0437952e-03   5.5095134e-04   1.9666343e-03   1.5803978e-03  -1.7950607e-02  -5.6989752e-03  -9.7632175e-03   1.4728784e-03   2.7372288e-03   2.1180429e-03   1.9567062e-03
  -6.5756898e-04   4.7144419e-04   1.8542807e-03   3.4094867e-03  -1.2286041e-04   1.4131608e-03   2.2398825e-03   2.6796700e-03   2.4587291e-03   2.6371065e-03   3.2357634e-03   1.9390102e-03   4.0812725e-03   3.2160962e-03   2.7234068e-03   2.9655618e-03  -2.3548608e-03   1.8438883e-04   9.0038002e-04   1.7063817e-03   7.2587456e-04  -6.2745588e-04   1.0745226e-04   1.2475082e-03   1.4478496e-03   1.3687452e-03   2.0291589e-03   1.7625864e-03   1.9915493e-03   9.8098174e-04   8.4602274e-04   9.7353826e-04  -7.0732072e-05   2.9899788e-03   1.1147520e-03   6.0226646e-04   4.4678157e-04  -6.0512545e-04  -1.4215389e-04  -7.3583395e-04   1.0713873e-03   1.8357427e-03   1.8650871e-03  -7.4722753e-03  -5.5768047e-03  -8.6704716e-03   1.1309891e-03   2.9600514e-03   1.8607059e-03   1.5758993e-03
  -7.1394455e-04   3.8251182e-04   1.7657654e-03   3.2375723e-03  -1.9478849e-04   1.2249920e-03   2.2911173e-03   2.9541249e-03   1.9949467e-03   2.1505025e-03   3.0185361e-03   1.5553724e-03   4.0525612e-03   3.3347078e-03   3.0026245e-03   3.1130167e-03  -2.3818470e-03   2.3582527e-04   1.1246323e-03   1.5976166e-03   6.2105223e-04  -7.5754250e-04   5.1221767e-05   1.1456270e-03   1.0489376e-03   1.4202052e-03   1.9352665e-03   1.5098975e-03   2.9072822e-03   8.9757016e-04   5.6934147e-04   1.5159537e-03  -1.5347192e-04   4.1427696e-03   1.0633226e-03  -1.0409536e-04   6.0613384e-04  -6.2450365e-04   6.6579523e-04   5.7645696e-03   4.9464894e-04   1.5827530e-03   1.4817590e-03  -3.3775289e-03  -6.6473912e-03  -9.7301695e-03   5.0304772e-04   2.3616974e-03   1.7558554e-03   1.0773917e-03
  -8.4380223e-04   1.9735392e-04   1.5735686e-03   2.9516926e-03  -3.6245977e-04   1.0249341e-03   2.1413679e-03   2.4574008e-03   1.7588864e-03   1.5244767e-03   2.6483987e-03   1.0711605e-03   3.5550583e-03   3.0692013e-03   2.6437417e-03   2.6898724e-03  -2.4011421e-03   3.2154747e-04   1.1618861e-03   1.4046431e-03   4.8228042e-04  -9.5411076e-04  -1.0466796e-04   1.0284389e-03   1.2683689e-03   1.4493912e-03   2.3697650e-03   1.3890915e-03   3.0245043e-03   7.2766579e-04   1.1721906e-03   9.1448845e-04   7.8473189e-05   3.7712266e-03   1.2745726e-03  -2.0749275e-04   5.2448112e-04  -6.5983419e-04   5.3880498e-04   6.6295587e-03   4.5484951e-04   1.7554440e-03   1.7673506e-03  -6.0035824e-03  -8.5000684e-03  -8.9349970e-03   1.3311208e-03   2.7879009e-03   2.2402504e-03   1.3063668e-03
  -6.4421055e-04   4.4661984e-04   1.9015361e-03   3.3788560e-03  -1.0630722e-04   1.4346697e-03   2.2523645e-03   2.8721283e-03   2.2683688e-03   2.6457696e-03   3.2945541e-03   1.9706874e-03   4.3072696e-03   3.6751607e-03   3.0238323e-03   3.1703124e-03  -2.2345886e-03   5.0081377e-04   1.8324634e-03   1.7435779e-03   6.8186555e-04  -7.5352669e-04   3.1738597e-04   1.2614834e-03   1.4754825e-03   1.5636440e-03   2.4409567e-03   1.4487207e-03   2.4687892e-03   1.0502501e-03   1.2710373e-03   1.3802642e-03   2.0658488e-04   4.2706165e-03   1.4021045e-03   1.9213256e-04   6.7164155e-04  -5.3679320e-04   5.9472653e-04   2.3359831e-03   9.2799519e-04   1.8799014e-03   1.8173632e-03  -1.6932053e-02  -9.2918891e-03  -9.8730186e-03   1.3428500e-03   2.9180716e-03   2.0410069e-03   1.7963959e-03
  -6.5519649e-04   4.4039357e-04   1.8302910e-03   3.3031020e-03  -1.4579264e-04   1.3342528e-03   2.3422774e-03   2.6876135e-03   2.2209217e-03   2.2276100e-03   3.0959540e-03   1.6701589e-03   4.1687717e-03   3.4751438e-03   3.2030151e-03   3.0822936e-03  -2.1849037e-03   5.2047934e-04   1.1752957e-03   1.6493441e-03   6.0192059e-04  -9.0939068e-04   6.1947467e-05   1.1448691e-03   1.3467097e-03   1.6431691e-03   1.6789139e-03   1.8583463e-03   2.5489863e-03   1.0044267e-03   9.8932278e-04   1.0491037e-03   5.9327809e-05   5.0749667e-03   1.0839520e-03   4.0866263e-04   8.3668140e-04  -5.6088826e-04   6.9002766e-04  -3.6762615e-03   7.5554586e-04   1.6051910e-03   1.7313211e-03  -1.0989781e-02  -8.0732610e-03  -1.5648773e-02   6.5159675e-04   2.6509757e-03   1.9216235e-03   1.3928182e-03
  -7.6797907e-04   2.5053561e-04   1.6181804e-03   3.0095184e-03  -3.0493844e-04   1.1080197e-03   2.2165210e-03   2.4908774e-03   2.1726147e-03   1.7375620e-03   2.7698537e-03   1.2865490e-03   3.6473747e-03   3.0783927e-03   2.7641605e-03   3.0415582e-03  -2.3636848e-03   2.2582879e-04   7.3828845e-04   1.4267096e-03   4.6263728e-04  -1.0092362e-03  -8.1607752e-05   9.7198773e-04   1.1162177e-03   1.3885795e-03   2.2694631e-03   1.6425847e-03   1.8305536e-03   8.1372506e-04   9.3775761e-04   1.1991024e-03  -3.0607020e-04   3.6576977e-03   1.2379967e-03   1.8378529e-05   9.0662128e-04  -7.1319781e-04   1.0491032e-03  -2.6942105e-03   5.1196717e-04   1.4876876e-03   1.2414197e-03  -1.3653449e-02  -7.7767093e-03  -9.5891329e-03   1.0333378e-03   2.5032582e-03   1.9689754e-03   1.7174382e-03
  -6.4803055e-04   3.9996285e-04   1.8232595e-03   3.2817407e-03  -9.8272511e-05   1.4109650e-03   2.3573348e-03   2.7132817e-03   2.4476338e-03   2.6218661e-03   3.2220695e-03   1.9332921e-03   3.9548981e-03   3.4333791e-03   3.4306182e-03   3.2509654e-03  -2.2823915e-03   3.3652390e-04   1.3815034e-03   1.6540666e-03   6.5770978e-04  -8.0609159e-04   1.5354062e-04   1.1421609e-03   1.4756466e-03   1.4956609e-03   2.2097309e-03   1.6711891e-03   1.4776511e-03   1.0740884e-03   9.3990983e-04   7.4856606e-04   2.4936910e-04   4.6372232e-03   1.1234041e-03   1.0223509e-04   8.9677295e-04  -5.0271663e-04   1.2387364e-03   1.2213413e-03   9.3606353e-04   1.7326840e-03   1.9298894e-03  -8.6014206e-03  -6.3896799e-03  -7.1367123e-03   1.1457816e-03   2.7385047e-03   2.3014047e-03   1.9829073e-03
  -5.5161177e-04   4.6977762e-04   1.8382164e-03   3.3009250e-03  -9.3990857e-05   1.4062262e-03   2.3629880e-03   2.9813983e-03   2.3611945e-03   2.3476335e-03   3.1799951e-03   1.7923132e-03   4.2308429e-03   3.2737504e-03   3.3550744e-03   3.2344356e-03  -2.0554122e-03   6.4113375e-04   1.6189771e-03   1.6947603e-03   5.9355772e-04  -9.7767252e-04   2.8191274e-04   1.1448346e-03   1.2128889e-03   1.6240051e-03   2.0212689e-03   1.7167060e-03   2.3314082e-03   1.0605945e-03   1.0647431e-03   1.2027510e-03   8.3492152e-05   4.1973949e-03   1.2418055e-03   5.5194681e-04   9.2458213e-04  -4.0119945e-04   4.6023977e-04  -2.4963927e-03   8.7494089e-04   1.5909246e-03   1.7955531e-03  -2.3528757e-02   1.4238425e-04  -9.3180276e-03   8.9215016e-04   2.8349860e-03   1.8744062e-03   1.7551184e-03
  -6.8508281e-04   2.6564318e-04   1.5662048e-03   2.9875587e-03  -3.6259927e-04   1.1201135e-03   2.0977412e-03   2.7067454e-03   2.0086034e-03   1.7006585e-03   2.8265642e-03   1.3201258e-03   3.6172334e-03   3.2416093e-03   2.7606294e-03   2.7087003e-03  -2.0844282e-03   4.1983058e-04   1.0944200e-03   1.4090349e-03   4.1618108e-04  -1.2889557e-03  -6.2758976e-05   1.0027438e-03   8.2494592e-04   1.3758919e-03   1.1392063e-03   1.6468815e-03   3.5990395e-03   9.1129239e-04   9.8666945e-04   1.4199865e-03   2.6704327e-05   4.2138305e-03   1.1430626e-03  -4.7385940e-04   1.2310926e-04  -5.5030454e-04   6.9852156e-04  -6.7832684e-03   4.5962876e-04   1.3272119e-03   1.4512732e-03  -8.1397789e-03  -5.5216374e-03  -8.5935080e-03   3.9963875e-04   2.2857971e-03   1.9063585e-03   1.4922777e-03
  -7.7301514e-04   2.2014449e-04   1.6303547e-03   3.1300706e-03  -2.0959310e-04   1.3161841e-03   2.1661944e-03   2.6486947e-03   2.1300395e-03   2.5912412e-03   3.1115687e-03   1.9173522e-03   4.1448651e-03   3.3984401e-03   3.1792119e-03   3.1864922e-03  -2.2227960e-03   4.2894317e-04   1.2887147e-03   1.5641093e-03   5.6520710e-04  -1.0573496e-03   3.6473335e-05   1.1779227e-03   1.2161322e-03   1.3750877e-03   2.4947273e-03   2.0188347e-03   2.6554582e-03   1.1228537e-03   1.1901483e-03   1.7112154e-03  -3.9831779e-05   4.2457082e-03   1.0942470e-03  -1.4690296e-05   1.0083383e-03  -7.1053539e-04   1.3274811e-03  -2.6264633e-03   8.6319138e-04   1.9633037e-03   1.7992627e-03  -1.1970411e-02  -7.0820288e-03  -8.6302971e-03   1.6269512e-03   3.0698155e-03   2.2554293e-03   1.8383386e-03
  -5.3856993e-04   5.1625236e-04   1.7582735e-03   3.3075735e-03  -5.8648344e-05   1.4574922e-03   2.3968869e-03   3.1104495e-03   2.4128989e-03   2.6147238e-03   3.3012107e-03   1.9736476e-03   4.1392869e-03   3.2981972e-03   2.4799516e-03   3.6078389e-03  -2.2385353e-03   1.8284823e-04   1.0960968e-03   1.6317695e-03   6.0030149e-04  -9.2427456e-04   1.1661018e-04   1.2093806e-03   1.3806982e-03   1.3490118e-03   2.7124081e-03   1.8343686e-03   3.0555869e-03   1.1637670e-03   1.0999384e-03   1.1772553e-03  -1.9256195e-05   4.4064494e-03   1.2896488e-03   7.1862311e-04   8.1301242e-04  -5.8905594e-04   1.0305769e-03   2.3399994e-03   2.8113142e-04   1.7776627e-03   1.8853345e-03  -1.2695637e-02  -4.4561150e-03  -8.7876236e-03   9.8772999e-04   2.8952640e-03   2.1704612e-03   1.9574827e-03
  -6.3899142e-04   3.8930215e-04   1.5879499e-03   3.1234294e-03  -1.9602853e-04   1.3182070e-03   2.1977783e-03   3.0051465e-03   2.3210680e-03   2.0342811e-03   2.9987292e-03   1.5568284e-03   3.4790861e-03   3.0242698e-03   2.9431365e-03   2.9714364e-03  -2.2921702e-03   6.9336078e-05   1.7387390e-03   1.5336807e-03   4.8756853e-04  -1.0287645e-03   3.4330344e-05   1.0455677e-03   1.0565297e-03   1.4101504e-03   2.4571787e-03   1.4878323e-03   2.8208380e-03   9.9549792e-04   7.2719320e-04   1.5126963e-03   8.6659162e-07   4.6446784e-03   1.3121663e-03   1.5984726e-04   1.2200249e-03  -6.5268972e-04   5.0849601e-04  -3.4313549e-03   3.2711355e-04   1.4507951e-03   1.8434796e-03  -2.4577531e-03  -5.5027520e-03  -8.0890702e-03   6.1862625e-04   2.6841864e-03   1.7808259e-03   1.3340409e-03
  -7.7224727e-04   2.1058100e-04   1.3751044e-03   2.8293463e-03  -3.6777079e-04   1.0652225e-03   1.9387825e-03   2.4635736e-03   2.2145442e-03   1.6985419e-03   2.7375249e-03   1.2717840e-03   3.4332918e-03   3.0317104e-03   2.8318132e-03   2.9076699e-03  -2.3579353e-03   2.9932059e-04   1.4731963e-03   1.4864278e-03   5.2809558e-04  -9.5912331e-04  -3.8244580e-05   1.0840249e-03   1.1881520e-03   1.2811865e-03   2.2131132e-03   1.9681989e-03   3.3333118e-03   1.0090913e-03   6.3493894e-04   1.1210368e-03  -1.1080211e-05   4.2888015e-03   1.2687561e-03  -9.1652386e-05   8.0783642e-04  -7.0448947e-04   1.0482335e-03   1.3560430e-03   4.4599015e-04   1.7611387e-03   1.8156574e-03  -1.0809361e-02  -4.1593639e-03  -1.0452685e-02   1.4584842e-03   3.0461219e-03   2.3354662e-03   1.6676342e-03
  -4.9784983e-04   5.5910216e-04   1.7404509e-03   3.3602398e-03  -3.2888660e-05   1.4971112e-03   2.3933344e-03   2.7160067e-03   2.3376450e-03   2.5961162e-03   3.3126955e-03   1.9979617e-03   3.8917367e-03   3.4178654e-03   3.0300433e-03   3.4602419e-03  -2.2392604e-03   2.3984417e-04   1.3654536e-03   1.7033549e-03   6.2554266e-04  -8.8997855e-04   1.9454019e-04   1.2072199e-03   1.1781972e-03   1.4147683e-03   2.3549374e-03   2.1486366e-03   3.5224077e-03   1.1609946e-03   8.6536660e-04   1.0032132e-03   1.5921076e-04   3.7753480e-03   1.1315860e-03  -3.9328527e-04   7.0148747e-04  -6.4323243e-04   1.3838346e-03  -1.5283974e-03   6.6656602e-04   1.6725897e-03   2.0075319e-03  -7.5344485e-03  -6.4776754e-03  -1.3795023e-02   1.1952074e-03   2.9351441e-03   1.9002842e-03   2.3664306e-03
  -5.9841049e-04   4.6401063e-04   1.6063864e-03   3.1979247e-03  -1.5721552e-04   1.2720649e-03   2.1424659e-03   2.5429630e-03   2.3215273e-03   2.1314740e-03   3.0574489e-03   1.6419936e-03   3.8439375e-03   3.3588898e-03   2.4982926e-03   3.0477711e-03  -2.2559604e-03   2.7736288e-04   1.0680517e-03   1.6146771e-03   5.3091586e-04  -9.8597025e-04  -2.5213407e-05   1.0229269e-03   1.2361510e-03   1.4130361e-03   2.3825269e-03   1.6330790e-03   3.8355622e-03   1.0019622e-03   6.3686358e-04   1.3928236e-03   1.3916643e-04   4.2780112e-03   1.0729221e-03  -5.7092239e-04   3.9832026e-04  -6.8461488e-04   5.8726553e-04  -7.4792921e-04   5.5817165e-04   1.4863166e-03   1.6114867e-03  -6.0131261e-03  -6.3436884e-03  -8.9498674e-03   7.4346480e-04   2.3074630e-03   1.6415106e-03   1.4165902e-03
  -7.5137138e-04   2.7193452e-04   1.4067886e-03   2.9315068e-03  -3.2757816e-04   1.1003930e-03   2.0860306e-03   2.3928930e-03   2.0350702e-03   1.5818967e-03   2.7020071e-03   1.1967211e-03   3.3745116e-03   2.9346393e-03   2.5860742e-03   2.7111161e-03  -2.3665233e-03   1.2045929e-04   1.7256908e-03   1.3964624e-03   4.1163270e-04  -1.0943211e-03  -1.5101470e-04   9.1560849e-04   8.2972180e-04   1.3538806e-03   1.8690476e-03   1.5487352e-03   3.5084183e-03   8.8624650e-04   1.1755318e-03   1.2777712e-03  -1.2259957e-04   4.2776968e-03   1.0791883e-03  -9.6714459e-05   9.2545961e-04  -6.9387059e-04  -4.8201524e-05  -4.9465708e-03   2.6052233e-04   1.6606405e-03   1.9835825e-03  -1.0824341e-02  -1.5814255e-04  -8.0719600e-03   1.2405482e-03   2.7937219e-03   2.1751074e-03   2.1297433e-03
  -5.8114994e-04   5.1187718e-04   1.6925588e-03   3.3390890e-03  -8.6605884e-05   1.4699127e-03   2.3164588e-03   2.8038674e-03   2.5653457e-03   2.6256575e-03   3.2442105e-03   2.0086488e-03   3.8864978e-03   3.3321839e-03   2.5379932e-03   3.4622932e-03  -2.2813817e-03   1.4695045e-04   1.2320202e-03   1.6655660e-03   5.9654779e-04  -8.8236766e-04   2.8442868e-04   1.1337027e-03   1.1811942e-03   1.4237606e-03   2.2864954e-03   1.9450902e-03   3.0121373e-03   1.0923393e-03   1.1287543e-03   1.3116080e-03   6.9900991e-05   4.4395728e-03   1.3111235e-03   3.2499080e-05  -2.9558336e-04  -6.9333089e-04   2.1021717e-04  -1.8801418e-03   5.8888196e-04   1.6538115e-03   1.8681491e-03  -2.7175252e-03  -4.3880497e-03  -1.3425406e-02   1.3253646e-03   2.5758795e-03   1.9471552e-03   1.5522458e-03
  -6.4691831e-04   4.9020606e-04   1.6169228e-03   3.2486445e-03  -1.6075365e-04   1.3780666e-03   2.3443177e-03   2.6742604e-03   2.3199909e-03   2.2164609e-03   3.0637132e-03   1.7031783e-03   3.7412469e-03   3.4357880e-03   2.9055018e-03   3.1023787e-03  -2.2570617e-03   4.5035503e-04   1.4182834e-03   1.5722056e-03   5.1050261e-04  -9.5305382e-04   8.8277858e-07   1.0881001e-03   1.2336433e-03   1.4734122e-03   2.0752663e-03   1.9070399e-03   2.5898414e-03   1.0074751e-03   6.8899326e-04   1.2538604e-03   1.3372814e-05   3.9948658e-03   1.1968444e-03  -5.8090308e-04   8.3210442e-04  -7.0217066e-04   6.3977385e-04   6.8611451e-03   3.3138588e-04   1.3286677e-03   1.5946215e-03  -2.1770203e-02  -1.7505279e-03  -9.9809952e-03   6.8253471e-04   2.4692181e-03   1.6910986e-03   1.2178668e-03
  -7.8021869e-04   2.8187939e-04   1.4393895e-03   2.9779850e-03  -3.2492069e-04   1.1118578e-03   1.9368436e-03   2.4529481e-03   1.9594782e-03   1.6389850e-03   2.7009745e-03   1.2463966e-03   3.0999719e-03   2.9209361e-03   2.5031164e-03   2.8046244e-03  -2.3212105e-03   2.9824930e-04   8.3835650e-04   1.3723855e-03   3.7081214e-04  -1.1107966e-03  -2.2608890e-04   9.1636943e-04   9.3297282e-04   1.4277108e-03   1.5980059e-03   1.4840624e-03   2.6370396e-03   7.7634933e-04   7.4024824e-04   1.1555760e-03  -6.1721308e-05   4.2211125e-03   1.1117280e-03  -4.7293436e-04   7.3978066e-04  -7.4584753e-04   5.7432504e-04  -1.5003801e-03   2.8185445e-04   1.5348316e-03   1.8015745e-03  -6.3372408e-03  -3.0961542e-03  -9.3841478e-03   1.2711242e-03   2.6409752e-03   2.1961036e-03   1.6100171e-03
  -6.2988390e-04   5.0116575e-04   1.7081395e-03   3.3295639e-03  -1.1108982e-04   1.4267300e-03   2.3027714e-03   2.7214673e-03   2.3895481e-03   2.6612626e-03   3.2336887e-03   2.0455110e-03   3.7153517e-03   3.3442357e-03   3.0354266e-03   3.4579069e-03  -2.2565525e-03   3.6174609e-04   1.5910291e-03   1.6848256e-03   6.1111094e-04  -8.2277635e-04   2.4240160e-04   1.2066421e-03   1.1597285e-03   1.4588208e-03   2.0514342e-03   1.9452951e-03   3.6944789e-03   1.0691348e-03   9.9680596e-04   1.3745660e-03   3.9800585e-04   4.2275735e-03   9.9910598e-04   1.9631121e-05   4.5580932e-04  -6.5010338e-04   7.4469921e-04   5.6880171e-04   6.4964482e-04   1.6554844e-03   2.1520127e-03  -1.6552199e-02  -6.7707528e-03  -1.1875230e-02   1.2889404e-03   2.7858326e-03   2.3589425e-03   1.5886796e-03
  -6.6217576e-04   5.2372483e-04   1.7048719e-03   3.3410827e-03  -1.3379414e-04   1.3255531e-03   2.2239306e-03   3.0973544e-03   2.5813789e-03   2.4152498e-03   3.1466335e-03   1.8729852e-03   3.8660038e-03   3.1905023e-03   2.5414119e-03   2.7051619e-03  -2.2391118e-03   3.5314780e-04   1.1354203e-03   1.6165427e-03   5.6697190e-04  -8.7011495e-04   8.6391607e-05   1.2259961e-03   1.2064328e-03   1.5147690e-03   1.8329800e-03   1.5708192e-03   3.0691756e-03   9.7294536e-04   1.0985610e-03   7.4040884e-04   2.8650815e-04   3.9996803e-03   1.0917283e-03   3.6249243e-04   1.3173694e-03  -6.0664274e-04   1.1833980e-03  -9.5648509e-05   1.5012418e-04   1.5094101e-03   1.7345684e-03  -1.6088832e-02  -2.5350624e-03  -8.0887349e-03   7.9759635e-04   2.4592334e-03   2.0365969e-03   1.2492141e-03
  -8.0138160e-04   3.4946363e-04   1.5467958e-03   3.0977763e-03  -2.9311841e-04   1.1019093e-03   2.0149483e-03   2.2926263e-03   2.0821276e-03   1.8894871e-03   2.8401623e-03   1.4556925e-03   3.4878738e-03   2.9933108e-03   2.8771879e-03   3.1456018e-03  -2.3131631e-03   2.4058546e-04   1.0048384e-03   1.4879821e-03   4.4587193e-04  -1.0567436e-03  -8.1741448e-05   1.0464047e-03   1.1509203e-03   1.4297187e-03   2.1845743e-03   1.0710938e-03   3.2787598e-03   8.1078376e-04   6.7271612e-04   1.4542409e-03  -1.7632690e-04   4.6165944e-03   9.4557542e-04  -4.5826950e-04   3.6943279e-04  -6.9813058e-04   6.4324739e-04  -9.4795274e-03   4.4266181e-04   1.2840480e-03   1.7145390e-03  -1.4991797e-02  -3.4601644e-03  -7.5800745e-03   1.0041904e-03   2.6066795e-03   1.8632814e-03   1.6961714e-03
  -6.8161200e-04   4.7860094e-04   1.7743954e-03   3.3766103e-03  -1.2204974e-04   1.4283053e-03   2.2693814e-03   2.6592021e-03   2.6005544e-03   2.8327946e-03   3.2522662e-03   2.1532814e-03   3.7236980e-03   3.2898823e-03   2.5460417e-03   2.6223119e-03  -2.2149472e-03   2.8678536e-04   1.6806659e-03   1.7294083e-03   6.4391358e-04  -8.3944079e-04   2.0114957e-04   1.3745825e-03   1.0151048e-03   1.5686761e-03   1.9416763e-03   1.6484255e-03   2.5909101e-03   1.0813929e-03   7.3796452e-04   1.1657628e-03   9.0768190e-05   4.3928297e-03   1.2645103e-03  -3.4126523e-04   1.3041239e-03  -5.8153109e-04   1.2364754e-03   8.1956387e-03   5.7037768e-04   1.7714265e-03   2.1284381e-03  -7.7840444e-03  -1.5508641e-02  -8.1299609e-03   1.5373820e-03   2.8900136e-03   2.1709863e-03   1.8478713e-03
  -6.2933710e-04   6.0018938e-04   1.8545587e-03   3.4856175e-03  -7.1854971e-05   1.4758530e-03   2.5015555e-03   2.8527002e-03   2.6385069e-03   2.7092798e-03   3.2851303e-03   2.1156196e-03   3.8831285e-03   3.1949382e-03   2.5358093e-03   2.9024452e-03  -2.1676619e-03   2.8270046e-04   1.2628119e-03   1.8102472e-03   6.5546931e-04  -7.7863754e-04   1.7713530e-04   1.3471604e-03   1.3077251e-03   1.5894958e-03   2.4913850e-03   1.9291372e-03   3.6697385e-03   1.0510220e-03   1.1455884e-03   1.6228298e-03   2.5354710e-04   3.9543160e-03   1.1876763e-03  -7.4776274e-04   9.0641988e-04  -6.3180970e-04   6.6069275e-04   1.7109136e-03   2.1263189e-04   1.5422491e-03   2.1063793e-03  -2.7846664e-03  -4.3724035e-03  -1.2302809e-02   9.6446666e-04   2.8206359e-03   2.1371194e-03   1.7141008e-03
  -7.3210878e-04   4.6288618e-04   1.7219335e-03   3.2244124e-03  -2.2024306e-04   1.2481887e-03   1.9873197e-03   2.5510734e-03   2.4163187e-03   2.1410733e-03   2.9988168e-03   1.7059861e-03   3.5246445e-03   2.8946896e-03   2.9278796e-03   2.7593104e-03  -2.2325190e-03   1.4106533e-04   6.1818579e-04   1.6608965e-03   5.4661027e-04  -9.1635319e-04   2.2487633e-05   1.2440511e-03   9.0573222e-04   1.4097064e-03   1.8326677e-03   1.6218300e-03   2.3574131e-03   8.8049489e-04   7.8105804e-04   8.8312506e-04   2.0177968e-04   3.5708889e-03   9.3420717e-04  -3.0842714e-04   4.1651115e-04  -7.2401308e-04   1.0999478e-03   3.8816727e-04   1.2764714e-05   1.3547150e-03   1.4224935e-03  -1.2925944e-02  -4.8057204e-03  -9.7821970e-03   4.1877857e-04   2.3941079e-03   1.9308255e-03   1.0754357e-03
  -8.4638788e-04   2.9653154e-04   1.6445540e-03   3.1134109e-03  -3.0799938e-04   1.0687528e-03   2.0317570e-03   2.5633455e-03   2.6055649e-03   2.6553073e-03   3.1491802e-03   2.0883007e-03   3.4370297e-03   3.1168272e-03   2.7458677e-03   3.1466468e-03  -2.2417605e-03   2.1174530e-04   1.2302060e-03   1.6946290e-03   6.5252843e-04  -8.2074275e-04   1.4818305e-04   1.3733782e-03   1.4072177e-03   1.3494482e-03   2.5305848e-03   1.7079914e-03   3.3065819e-03   9.8697643e-04   1.0215298e-03   1.0811955e-03   1.3465338e-04   4.1767368e-03   1.1848096e-03  -3.6985287e-04  -3.8967610e-05  -7.3029718e-04   8.9736795e-04   2.9489230e-03   9.3602674e-04   1.8687784e-03   2.0634683e-03  -5.1337271e-03  -4.7014789e-03  -1.2989672e-02   1.7079503e-03   3.0635898e-03   2.6011211e-03   2.1789395e-03
  -6.5816642e-04   6.4461335e-04   1.8443774e-03   3.4386772e-03  -1.3244232e-04   1.4155110e-03   2.3951039e-03   2.4148687e-03   2.4450992e-03   2.8296616e-03   3.3714424e-03   2.2708259e-03   4.0223752e-03   3.4819967e-03   2.7501383e-03   3.1800582e-03  -2.1697045e-03   2.7861606e-04   1.2963375e-03   1.7922684e-03   6.9743750e-04  -7.6321972e-04   2.9253922e-04   1.4517533e-03   1.3002054e-03   1.4711268e-03   2.2016780e-03   1.7036266e-03   1.7232699e-03   1.0664361e-03   1.1703797e-03   1.2011707e-03   4.4978657e-04   3.9914437e-03   1.2845766e-03  -8.6143467e-04   7.3596422e-04  -6.4053881e-04   9.3809899e-04  -2.5455742e-03   5.6372798e-04   1.7367797e-03   1.8931945e-03  -4.5006839e-03  -1.7468729e-04  -7.7633271e-03   1.3370347e-03   2.6183808e-03   1.9966913e-03   1.8391428e-03
  -7.2342064e-04   5.6090660e-04   1.7422251e-03   3.2797712e-03  -2.1582459e-04   1.3426965e-03   2.2253343e-03   2.5701418e-03   2.4524834e-03   2.3855690e-03   3.1167811e-03   1.9253962e-03   3.7616042e-03   3.2062125e-03   2.4804785e-03   2.7929358e-03  -2.2049344e-03   4.4019107e-04   1.5573379e-03   1.6849218e-03   5.8531476e-04  -8.7472296e-04   2.3725674e-04   1.3788244e-03   1.0665689e-03   1.4750322e-03   2.4638947e-03   1.6935501e-03   2.4810634e-03   9.0913818e-04   1.0238824e-03   1.2779466e-03   2.9239923e-04   3.9446261e-03   9.9490315e-04  -3.0949438e-04   3.1232557e-04  -5.9626781e-04   8.1824831e-04   7.6630521e-03   5.4945942e-04   1.5125116e-03   1.8090698e-03  -7.9921149e-03  -4.3299384e-03  -8.2532959e-03   7.3407969e-04   2.3887618e-03   1.8648290e-03   1.6171335e-03
  -8.4351900e-04   3.8492531e-04   1.5362038e-03   2.9962847e-03  -3.7195627e-04   1.0590259e-03   2.0357519e-03   2.5497314e-03   1.9575432e-03   2.0967051e-03   2.9116713e-03   1.6871868e-03   3.4796007e-03   3.1412314e-03   2.2129070e-03   3.1395762e-03  -2.2687600e-03   4.3090803e-04   1.2905909e-03   1.6848508e-03   6.0111919e-04  -8.7350298e-04   4.0593056e-04   1.3928212e-03   1.5334809e-03   1.5242698e-03   2.3283337e-03   1.8168754e-03   2.4748624e-03   9.3762769e-04   1.1494124e-03   1.0178873e-03   1.4899060e-04   4.4458518e-03   1.1198624e-03  -1.3589553e-04   1.4418607e-04  -6.6616363e-04   3.8549528e-04  -7.2293769e-04   4.8081009e-04   1.8201933e-03   1.9429125e-03  -6.2918942e-03  -1.6055709e-03  -9.4380016e-03   1.7213918e-03   3.0191010e-03   2.3333714e-03   2.1142757e-03
  -5.9076789e-04   7.1399490e-04   1.8688270e-03   3.4529795e-03  -9.3854876e-05   1.5570913e-03   2.4741145e-03   2.8876432e-03   2.6903551e-03   2.8839596e-03   3.3782129e-03   2.3078036e-03   4.0299478e-03   3.5908238e-03   3.1085254e-03   2.8527214e-03  -2.1304877e-03   3.3627872e-04   1.2858649e-03   1.8288646e-03   6.7577843e-04  -7.9862936e-04   3.7621128e-04   1.4534827e-03   1.7346425e-03   1.6445514e-03   2.3545136e-03   1.8081373e-03   3.0351318e-03   1.0635284e-03   9.9863019e-04   1.2686794e-03   3.3823121e-04   4.0487456e-03   1.3460739e-03  -2.9819016e-04   5.7898142e-04  -6.1113574e-04   8.1346935e-04  -9.7613893e-03   6.7077612e-04   1.7681187e-03   2.0383880e-03  -6.8964898e-03  -6.0357973e-03  -8.4576691e-03   1.3328609e-03   3.0082657e-03   2.4351659e-03   1.8555175e-03
  -6.3590682e-04   6.1727769e-04   1.7443617e-03   3.2795076e-03  -1.7914145e-04   1.3240256e-03   2.3053456e-03   2.7327049e-03   2.4675503e-03   2.4557826e-03   3.1747567e-03   1.9809206e-03   3.8427957e-03   3.4146486e-03   2.7026888e-03   2.8896346e-03  -2.1623839e-03   4.1833444e-04   1.6393907e-03   1.6682761e-03   5.8123731e-04  -8.5998769e-04   3.3080234e-04   1.4174922e-03   1.4580198e-03   1.5240181e-03   1.9908794e-03   1.6325732e-03   1.9392100e-03   9.1800862e-04   8.8859303e-04   1.5725805e-03   2.3615027e-04   4.3394747e-03   1.2543172e-03   1.1666306e-04   5.3897704e-04  -5.3433777e-04   7.5967278e-04  -1.0172041e-02   3.9162894e-04   1.4766401e-03   1.7593823e-03  -7.7390610e-03  -4.8029926e-03  -5.7178284e-03   9.4629836e-04   2.6461740e-03   2.0806890e-03   1.3891829e-03
  -7.4135029e-04   4.1072353e-04   1.5312111e-03   2.9633776e-03  -3.7836167e-04   1.1211833e-03   2.0401024e-03   2.2921846e-03   2.2117451e-03   1.9201584e-03   2.8417832e-03   1.5475749e-03   3.4566380e-03   2.8955010e-03   2.4080246e-03   2.6486146e-03  -2.3096178e-03   1.9458294e-04   1.0050412e-03   1.5418835e-03   5.1951007e-04  -9.9807209e-04   2.2041144e-04   1.3017069e-03   1.3396554e-03   1.3843703e-03   1.6445244e-03   1.7444423e-03   3.0378380e-03   8.2552113e-04   1.0510260e-03   1.6985174e-03   1.1378480e-04   3.9144093e-03   1.2388862e-03   2.3487635e-04   3.9564382e-04  -6.4901315e-04   7.6995260e-04  -3.5338129e-03   4.7942967e-04   1.8317293e-03   1.7227547e-03  -7.9022292e-03   3.0566216e-03  -7.6837922e-03   1.7146014e-03   3.1663734e-03   2.5004975e-03   2.2661514e-03
  -5.0363975e-04   6.8390899e-04   1.8427165e-03   3.3719700e-03  -1.3652470e-04   1.4619690e-03   2.4432782e-03   2.7834412e-03   2.7464868e-03   3.0215762e-03   3.4904056e-03   2.4620092e-03   4.2459550e-03   3.5141180e-03   2.8996465e-03   3.2745728e-03  -2.1004288e-03   5.3771213e-04   9.7846496e-04   1.7806585e-03   6.8850699e-04  -9.0331206e-04   4.2692575e-04   1.5761121e-03   1.5451059e-03   1.2994162e-03   2.4769455e-03   2.2104406e-03   2.6736117e-03   1.0924321e-03   1.3163361e-03   1.6975356e-03   1.8483307e-04   3.3337926e-03   1.1616169e-03  -4.1195736e-04   5.1426893e-04  -6.0886494e-04   5.3097331e-04   4.0625357e-03   6.2428013e-04   1.9969393e-03   1.6723226e-03  -6.4693051e-03  -1.1770468e-03  -8.9212181e-03   1.8410169e-03   3.6379311e-03   2.8242704e-03   2.3954406e-03
  -6.8314088e-04   5.9579732e-04   1.5921980e-03   3.1996793e-03  -2.8084964e-04   1.2707670e-03   2.2295315e-03   2.5469295e-03   2.4900322e-03   2.5287564e-03   3.2409986e-03   2.1009583e-03   3.9133164e-03   3.3598228e-03   2.7674723e-03   3.4975975e-03  -2.1133663e-03   4.6544577e-04   1.0206046e-03   1.6567582e-03   5.6897476e-04  -9.7203604e-04   1.9542688e-04   1.4416887e-03   1.5635077e-03   1.4619521e-03   2.1878940e-03   1.7676336e-03   3.5980351e-03   1.0333274e-03   8.1604061e-04   1.1837578e-03   1.6936933e-04   3.8205096e-03   1.2679499e-03  -8.9052141e-05   8.6680858e-04  -5.3914217e-04   8.0048235e-04  -2.5197763e-03   2.6752305e-04   1.7171127e-03   1.5243575e-03  -7.4323867e-03  -6.0475213e-03  -1.1177125e-02   1.1675445e-03   2.9152504e-03   2.0328518e-03   1.7730041e-03
  -8.0503343e-04   3.5852782e-04   1.3977459e-03   2.9271783e-03  -4.4521457e-04   1.0614913e-03   2.0639980e-03   2.5073367e-03   2.1637853e-03   1.7299604e-03   2.8320458e-03   1.4412224e-03   3.3812791e-03   3.0516128e-03   2.9419258e-03   2.1519270e-03  -1.6454182e-03   7.8964623e-04   1.0535838e-03   1.3948404e-03   5.1496946e-04  -1.2677200e-03   7.6144548e-05   1.0860583e-03   1.3118180e-03   2.2279667e-03   1.9764462e-03   1.3835783e-03   1.4168991e-03   8.0036325e-04   4.8797412e-04   1.2572838e-03  -7.0410322e-05   4.7530383e-03   1.0769940e-03  -1.6411647e-04  -1.2453535e-05  -1.3668970e-04   5.1369175e-04   2.7690586e-03   5.7898887e-04   1.4659592e-03   2.3265556e-03   3.5421939e-03   2.6303532e-03  -1.1477852e-02   1.2545850e-03   2.8123101e-03   2.5133577e-03   1.8828452e-03
  -6.2226865e-04   4.0312411e-04   1.5568815e-03   3.1912257e-03  -4.0916441e-04   1.1166654e-03   2.1090908e-03   2.5660880e-03   2.5728508e-03   2.7693212e-03   3.2749127e-03   2.0724493e-03   3.9429041e-03   3.1669526e-03   3.7668722e-03   2.8814578e-03  -8.9960376e-04   9.6167054e-04   1.3477264e-03   1.5162065e-03   5.3288479e-04  -1.4317277e-03   1.7678895e-04   1.4410189e-03   1.9474673e-03   2.1704210e-03   1.5472495e-03   1.5880363e-03   1.9835890e-03   9.8467746e-04   9.4813720e-04   1.2962719e-03   3.6433044e-05   4.5953616e-03   1.2539587e-03  -4.8452264e-04  -7.3947049e-05  -1.7357402e-04   9.7745971e-04   3.3701181e-05   7.4831967e-04   1.8990780e-03   2.1064396e-03  -8.6180028e-04  -3.2218813e-03  -8.2073873e-03   1.4996289e-03   3.2886814e-03   2.2205980e-03   1.8418265e-03
  -6.9631328e-04   2.9721917e-04   1.3737855e-03   3.1658898e-03  -4.9229251e-04   1.2187940e-03   2.1961809e-03   2.7272569e-03   2.5723425e-03   2.8231109e-03   3.1536103e-03   2.0241695e-03   3.7021430e-03   3.2280846e-03   3.5431860e-03   2.8134992e-03  -1.1655670e-03   7.5422425e-04   1.2391185e-03   1.2787851e-03   3.5584319e-04  -1.5586854e-03   1.5776127e-04   1.4984108e-03   1.8629114e-03   1.9176113e-03   1.6248194e-03   1.4305660e-03   3.8004790e-03   8.9380657e-04   8.6764566e-04   1.7279636e-03   5.5901815e-05   5.6807660e-03   1.0983789e-03   1.0471596e-04  -1.9698426e-04  -2.0661688e-04  -1.3063494e-05   1.0133943e-02   5.9353502e-04   1.7034633e-03   1.7891822e-03  -1.5067271e-02  -1.9348677e-03  -1.0552765e-02   9.4003795e-04   2.9854816e-03   2.0218114e-03   1.5005057e-03
  -8.3954865e-04   1.3351282e-04   1.2117146e-03   2.8888225e-03  -5.8570993e-04   9.3621050e-04   1.9268210e-03   2.1718363e-03   2.2593178e-03   2.1127067e-03   2.7621775e-03   1.5010296e-03   3.7335637e-03   2.7323696e-03   2.9915292e-03   2.5891645e-03  -9.7547245e-04   1.0517488e-03   8.3785178e-04   1.0837592e-03   2.2187310e-04  -1.6625177e-03  -5.6750101e-05   1.1488677e-03   1.5898432e-03   2.2806362e-03   1.5276787e-03   8.0841011e-04   2.6292980e-03   6.3821411e-04   3.6877784e-04   1.4973294e-03  -2.3460959e-04   5.2655721e-03   9.7289775e-04  -3.4262854e-04  -4.5633613e-04  -1.9371683e-04  -3.6819307e-05  -3.3512395e-03   3.2067182e-04   1.4683878e-03   1.8524618e-03  -5.6001684e-03  -2.6775664e-04  -7.8013325e-03   1.3262292e-03   2.9932081e-03   2.5926956e-03   1.7015359e-03
  -7.7704719e-04   3.4917146e-04   1.3698639e-03   3.1507562e-03  -3.4068071e-04   1.2994130e-03   2.1850818e-03   2.4880178e-03   2.6022943e-03   3.2541554e-03   3.3076834e-03   2.3941947e-03   3.7231657e-03   3.0887709e-03   3.0077852e-03   3.0586957e-03  -1.3667840e-03   7.8551733e-04   8.5713941e-04   1.3941182e-03   3.9408763e-04  -1.2890770e-03   2.0648097e-04   1.5142688e-03   1.7036691e-03   1.7453358e-03   1.9376499e-03   1.3515222e-03   4.0559396e-03   9.1128814e-04   9.6219039e-04   1.2579222e-03   7.4004847e-06   4.1116057e-03   1.0183994e-03  -4.5937157e-04   5.4986798e-04  -3.3048898e-04   8.8936946e-04  -1.7776344e-03   5.2098831e-04   1.8980049e-03   2.0796999e-03  -4.0114950e-03  -5.6451871e-03  -8.9052496e-03   1.7652739e-03   3.1659612e-03   2.2505128e-03   2.0207162e-03
  -7.5231021e-04   4.2207984e-04   1.3475843e-03   3.2445933e-03  -2.9419034e-04   1.4498148e-03   2.2544798e-03   2.7084115e-03   2.5888919e-03   3.1490333e-03   3.2990191e-03   2.3608177e-03   3.9152857e-03   3.2832061e-03   2.6897041e-03   3.0970473e-03  -1.4055835e-03   6.5806246e-04   1.0712711e-03   1.3999665e-03   3.2428451e-04  -1.2824313e-03   1.6273721e-04   1.4721786e-03   1.6668948e-03   1.5681121e-03   2.1138808e-03   1.7453717e-03   2.1275815e-03   9.2483615e-04   4.9024215e-04   1.8768734e-03   6.2633255e-05   5.3731329e-03   9.4242167e-04   1.5199283e-04   8.5043453e-04  -4.4490714e-04   1.2297105e-03  -8.7839935e-04   3.0107819e-04   1.8177417e-03   1.7725156e-03  -1.0633877e-02  -4.4864104e-03  -8.6545683e-03   1.3505124e-03   2.9975844e-03   2.1477309e-03   1.4353498e-03
  -8.5408404e-04   2.6341403e-04   1.1922457e-03   3.0372536e-03  -4.2553790e-04   1.2032113e-03   2.1080717e-03   2.2203377e-03   2.3073489e-03   2.6517648e-03   2.9809815e-03   1.9654899e-03   3.6906875e-03   2.9452813e-03   3.1161825e-03   2.7948197e-03  -1.5741371e-03   7.6219608e-04   1.4047404e-03   1.2554162e-03   1.8828739e-04  -1.3888761e-03   3.8847553e-05   1.3376621e-03   1.5315213e-03   1.3768341e-03   1.4308860e-03   1.7460036e-03   2.7907866e-03   7.8593631e-04   4.0294018e-04   1.7372188e-03  -6.9489826e-05   4.6340376e-03   7.1272685e-04  -4.3406276e-04  -2.1344484e-04  -4.6265189e-04   4.0773489e-04   1.2445009e-03   5.5182452e-04   1.7273823e-03   1.7930396e-03  -1.5596936e-02   4.8091481e-03  -1.2616856e-02   1.6829028e-03   3.3325842e-03   2.1471193e-03   1.9797098e-03
  -7.2859897e-04   3.8995189e-04   1.3872111e-03   3.2900036e-03  -2.5747385e-04   1.3540896e-03   2.1682356e-03   2.6087132e-03   2.5982023e-03   3.3398320e-03   3.3303355e-03   2.5169987e-03   3.9255410e-03   3.2220643e-03   3.0434194e-03   3.3286756e-03  -1.4975971e-03   7.0743979e-04   9.5420855e-04   1.4837568e-03   3.7127783e-04  -1.2370482e-03   3.1936847e-04   1.6077504e-03   1.6398979e-03   1.4585581e-03   2.2962294e-03   1.6556428e-03   3.6137812e-03   1.0142539e-03   7.4104406e-04   1.8083256e-03   7.9398178e-06   4.5245043e-03   9.5638254e-04  -1.5600267e-04   4.5160938e-04  -4.7328832e-04   1.1922887e-03   2.9219107e-03   5.6516449e-04   1.9455319e-03   1.8770219e-03  -1.8829199e-02  -6.6530518e-03  -1.0192007e-02   1.8761097e-03   3.4264049e-03   2.6108581e-03   2.1750892e-03
  -7.6499651e-04   4.0900643e-04   1.3675109e-03   3.2755246e-03  -2.7142229e-04   1.3728745e-03   2.2239482e-03   2.6271478e-03   2.4962618e-03   3.0735468e-03   3.2413455e-03   2.3355859e-03   3.7909644e-03   3.0136050e-03   3.0384702e-03   3.1080302e-03  -1.5476424e-03   6.9339917e-04   1.1824525e-03   1.4469160e-03   3.5814755e-04  -1.1266957e-03   1.7496689e-04   1.4686884e-03   1.3316012e-03   1.3582441e-03   2.0698085e-03   1.8054819e-03   4.6972879e-03   9.1869652e-04   9.2483492e-04   1.6897712e-03   2.5074717e-04   5.2559371e-03   8.9030532e-04  -4.7186684e-04   1.0048151e-04  -4.2252670e-04   1.0205673e-03   1.5992025e-04   3.9727357e-04   1.7528932e-03   1.8457783e-03  -1.0526278e-02  -5.0732400e-03  -7.6369192e-03   1.3575391e-03   3.0299479e-03   2.0110703e-03   1.1301250e-03
  -9.0278534e-04   2.1651587e-04   1.2036717e-03   3.0093256e-03  -4.5288570e-04   1.0141360e-03   2.0005489e-03   2.3555947e-03   1.8180097e-03   2.4861908e-03   2.8587810e-03   1.8831496e-03   3.2737274e-03   2.7350220e-03   2.3586587e-03   2.3934243e-03  -1.6904122e-03   6.8548211e-04   7.9677225e-04   1.2307619e-03   2.3231292e-04  -1.2628370e-03   1.7869794e-05   1.2041923e-03   1.4374228e-03   1.1057673e-03   1.7603323e-03   1.3635168e-03   4.1902736e-03   7.6439703e-04   7.2216516e-04   1.3729052e-03   4.9045077e-05   4.5203725e-03   7.9547521e-04  -9.4724563e-04   4.7237417e-04  -4.7704371e-04   7.1531831e-04  -2.0447373e-03   2.3679258e-04   1.6182426e-03   1.4331805e-03  -1.2318827e-02  -8.4418908e-04  -1.2775688e-02   1.5967650e-03   2.9578989e-03   2.2789920e-03   1.6986113e-03
  -8.0984732e-04   3.4046467e-04   1.3967520e-03   3.2580860e-03  -2.8298993e-04   1.3311375e-03   2.1878572e-03   2.6681803e-03   2.4022420e-03   3.1895968e-03   3.1976055e-03   2.4078107e-03   3.7009167e-03   3.0998606e-03   2.5002961e-03   2.5266339e-03  -1.6685996e-03   7.2862220e-04   1.0289456e-03   1.4322853e-03   3.5810619e-04  -1.1557753e-03   2.1377263e-04   1.5226087e-03   1.2390859e-03   1.3289780e-03   1.7852752e-03   1.9060550e-03   2.0538631e-03   9.4791874e-04   9.9369627e-04   1.1444433e-03   1.2290006e-04   4.7820397e-03   9.3838904e-04  -9.7704446e-04   5.5015524e-04  -4.8876042e-04   8.7274890e-04  -1.0628150e-02   2.5164435e-04   1.7802975e-03   1.6583405e-03  -1.5376606e-02  -7.8849364e-03  -9.1425329e-03   1.7129118e-03   3.1559190e-03   2.4169765e-03   1.8270410e-03
  -8.6046412e-04   3.3246406e-04   1.3644153e-03   3.2175726e-03  -3.4985400e-04   1.1997040e-03   2.1248080e-03   2.2909087e-03   2.3129545e-03   2.8741618e-03   3.0801417e-03   2.2035171e-03   3.5704619e-03   3.0377691e-03   2.5547361e-03   2.5459861e-03  -1.6147874e-03   7.3683244e-04   1.0246064e-03   1.3755049e-03   2.9969489e-04  -1.2522110e-03   2.5534220e-05   1.3829295e-03   1.1464140e-03   1.4032695e-03   1.4827976e-03   1.5915424e-03   3.7196542e-03   9.1074675e-04   7.3364604e-04   1.3746743e-03   2.3369446e-04   4.6881782e-03   8.4619893e-04  -1.0382908e-03   4.9723638e-04  -3.6501035e-04   3.2423364e-04   4.5639849e-03   2.2068208e-04   1.5565704e-03   1.4514235e-03  -1.6016524e-02  -5.1646340e-03  -7.5547760e-03   1.3640824e-03   2.9377071e-03   1.8333124e-03   8.2669168e-04
  -1.0425567e-03   1.4432224e-04   1.1659642e-03   2.9519852e-03  -5.1480555e-04   1.0424383e-03   2.1036291e-03   2.4640197e-03   1.9369816e-03   2.3514330e-03   2.7198708e-03   1.7745652e-03   3.1763432e-03   2.7203350e-03   1.9412151e-03   3.0364753e-03  -1.7796871e-03   5.9182057e-04   6.8210927e-04   1.1421269e-03   1.8957903e-04  -1.3676453e-03  -1.1194468e-04   1.1815276e-03   1.1570882e-03   1.1716330e-03   1.7392935e-03   1.4692025e-03   1.8131182e-03   7.2682404e-04   5.8536936e-04   1.1730061e-03  -9.3333758e-05   4.8911134e-03   7.4122561e-04  -7.3575415e-04   4.3772810e-04  -4.2337726e-04   1.0165646e-03   8.3229248e-04   6.8463749e-05   1.7038638e-03   1.6920951e-03  -1.4153328e-02  -8.9153880e-04  -1.2245988e-02   1.7192723e-03   3.1983748e-03   2.4593736e-03   1.8255103e-03
  -9.2867634e-04   3.1584527e-04   1.3930672e-03   3.2200776e-03  -3.3566408e-04   1.2001832e-03   2.1152925e-03   2.6860877e-03   2.6162269e-03   3.0393954e-03   3.0525145e-03   2.2757158e-03   3.3105847e-03   2.7459068e-03   2.8446277e-03   2.5976670e-03  -1.5797227e-03   9.4067439e-04   1.2940620e-03   1.4055796e-03   4.5627062e-04  -1.1270989e-03   9.6223221e-06   1.3665449e-03   1.4726272e-03   1.4313103e-03   2.0373017e-03   1.2994858e-03   2.8464787e-03   9.0373034e-04   6.1024947e-04   1.5712301e-03   6.8881993e-05   4.6401629e-03   8.7300857e-04  -1.6876492e-04   7.3710270e-04  -3.1531428e-04   1.2238170e-03  -2.5054361e-04   5.5133807e-04   1.6839795e-03   1.5962740e-03  -3.4702197e-02  -1.0718244e-02  -1.1251742e-02   1.7184106e-03   3.0272547e-03   2.2992098e-03   1.7007678e-03
  -1.0323649e-03   1.4356679e-04   1.2775050e-03   3.0529145e-03  -6.0806581e-04   9.2915428e-04   2.1014179e-03   2.3919044e-03   2.0852678e-03   2.2842507e-03   2.7511900e-03   1.7395200e-03   3.4883788e-03   2.6959619e-03   2.8848969e-03   2.5721330e-03  -1.0700293e-03   1.0892953e-03   8.6441863e-04   1.1845038e-03   4.1497246e-04  -1.4277811e-03  -7.4542542e-05   1.1766830e-03   1.6199729e-03   1.7779308e-03   1.8942294e-03   1.4846742e-03   2.3948718e-03   7.9358410e-04   6.6291273e-04   1.6893494e-03  -1.0965579e-04   4.8758159e-03   8.6750940e-04  -4.9396046e-04   1.6606505e-04  -2.3104767e-04   6.7518471e-04  -1.2979921e-02   3.5321013e-05   1.5420048e-03   1.6119031e-03  -3.1690259e-02  -3.7757752e-03  -7.7639609e-03   1.0478648e-03   2.7139199e-03   1.9780193e-03   1.1672903e-03
  -1.3470302e-03  -1.2657599e-04   9.8443439e-04   2.7047037e-03  -8.3227071e-04   6.5357448e-04   1.6225090e-03   2.3033107e-03   1.8799755e-03   1.8320439e-03   2.3824426e-03   1.3436696e-03   2.8120980e-03   2.3886508e-03   2.2938384e-03   2.2658086e-03  -1.2980596e-03   7.4223639e-04   1.5309688e-03   1.1152740e-03   3.8023511e-04  -1.3235942e-03  -1.5302324e-04   1.1131652e-03   1.5615650e-03   1.8917124e-03   1.5972831e-03   1.2813925e-03   3.1635130e-03   7.7602267e-04   9.7772339e-04   1.3570314e-03   6.4202279e-05   4.9280836e-03   9.7921747e-04  -1.3103574e-03  -1.9742333e-04  -2.4917367e-04   2.3005607e-04  -3.1551432e-03  -2.5530401e-04   1.6225216e-03   1.8894346e-03  -1.3484668e-02  -2.4504759e-03  -7.4535762e-03   1.7026662e-03   2.4740261e-03   2.3936771e-03   1.4711183e-03
  -1.1262120e-03   2.2699438e-04   1.3470333e-03   3.1175716e-03  -4.5396195e-04   1.0636257e-03   2.0741781e-03   2.1851144e-03   2.4264017e-03   2.5754806e-03   2.8397641e-03   1.8526276e-03   3.5374323e-03   2.5813060e-03   2.9579764e-03   2.5713530e-03  -1.2383473e-03   9.5238455e-04   1.2816876e-03   1.2487274e-03   5.2820082e-04  -9.5361646e-04  -1.2120294e-04   9.6704031e-04   1.4399679e-03   2.2429237e-03   2.1841112e-03   1.0668345e-03   1.0575483e-03   7.7385793e-04   6.1747327e-04   1.8671631e-03   3.3517941e-04   5.7770442e-03   9.6927851e-04  -7.0322136e-04  -1.5227993e-04   2.0184691e-05  -2.1600958e-04  -1.9007184e-03  -1.9834135e-04   1.1776472e-03   2.4493835e-03  -5.3422414e-03  -1.2734390e-02  -8.9838905e-03   1.1009653e-03   2.4104870e-03   2.4277803e-03   1.1974351e-03
  -1.2351903e-03   2.8297372e-05   1.1952105e-03   2.8932632e-03  -6.2331592e-04   8.5539214e-04   1.9049743e-03   2.4836552e-03   2.2594614e-03   2.2651583e-03   2.5425314e-03   1.4786153e-03   3.0518840e-03   2.3772996e-03   2.6561138e-03   2.3710586e-03  -1.4038476e-03   8.9257123e-04   1.1233073e-03   1.0610885e-03   4.5349379e-04  -9.5417228e-04  -3.7446246e-04   8.5827301e-04   1.3505567e-03   1.9572866e-03   1.8598235e-03   9.8021748e-04   3.4445561e-03   5.9680088e-04   4.4821776e-04   1.4949403e-03   4.5760156e-04   5.2836947e-03   4.8073381e-04  -1.3617573e-03   3.0718301e-04  -1.3941074e-04   4.6137549e-05  -6.2024333e-03  -5.4994664e-05   1.0334498e-03   1.9344620e-03  -4.7106221e-03  -2.4528892e-03  -6.0678297e-03   5.2904029e-04   1.9117258e-03   1.8291051e-03   8.3450333e-04
  -1.2887216e-03  -1.2026385e-04   1.2276085e-03   2.8508222e-03  -5.7355280e-04   8.7335921e-04   1.8358561e-03   2.3060949e-03   2.0974269e-03   2.5861140e-03   2.5992508e-03   1.7686783e-03   2.9934286e-03   2.5471316e-03   2.6937081e-03   2.4366330e-03  -1.3580743e-03   9.7311690e-04   8.1671873e-04   1.1375003e-03   5.2157475e-04  -8.7599992e-04  -1.3305095e-04   8.9518487e-04   1.5166401e-03   2.3040290e-03   1.4189535e-03   1.0942541e-03   3.8350420e-03   6.9022883e-04   7.0607959e-04   1.4385952e-03   5.8274739e-04   5.7706563e-03   8.4104337e-04  -8.2186557e-04   4.1311487e-05  -1.4910127e-05   6.4864557e-04  -4.5242668e-03   3.2287520e-05   1.2192251e-03   2.0382076e-03  -7.7802474e-03  -6.3327630e-03  -9.8688379e-03   1.2284645e-03   2.4359070e-03   2.0786843e-03   1.5395086e-03
  -1.1045312e-03   7.8006968e-05   1.3863053e-03   3.0479634e-03  -5.1817234e-04   8.7875355e-04   1.9314901e-03   2.3071123e-03   2.1481900e-03   2.4532920e-03   2.6394546e-03   1.6844332e-03   3.0241092e-03   2.5880551e-03   2.5844686e-03   2.3901742e-03  -1.1482739e-03   1.1201050e-03   1.5446619e-03   1.1321339e-03   5.5010314e-04  -8.7587227e-04  -2.4667976e-04   8.7881088e-04   1.2144394e-03   2.4132100e-03   1.6345400e-03   1.2019733e-03   2.7452295e-03   6.3210004e-04   6.1990012e-04   1.5736541e-03   4.0867494e-04   5.9760180e-03   6.8114570e-04  -6.8004307e-04   4.1728359e-04  -1.7264015e-04  -3.7694647e-04  -2.4009140e-03  -4.5587373e-04   9.2648738e-04   2.1869829e-03  -1.4619747e-02  -9.4490917e-03  -6.8530818e-03   6.7878538e-04   2.1119418e-03   1.6575486e-03   1.0418462e-03
  -1.1984537e-03  -1.0809719e-04   1.2219560e-03   2.8143050e-03  -6.4390758e-04   6.6315307e-04   1.6260430e-03   1.8173779e-03   1.8459432e-03   1.7925354e-03   2.2767433e-03   1.2332986e-03   2.7882587e-03   2.1557447e-03   2.5552907e-03   2.0978982e-03  -1.3157187e-03   1.1570537e-03   7.7719224e-04   1.0093054e-03   4.1044061e-04  -9.4004686e-04  -4.2725925e-04   5.7643908e-04   1.1365485e-03   2.2916642e-03   1.4611179e-03   8.1924349e-04   2.3701764e-03   4.4173663e-04   3.6476672e-04   1.1009757e-03   2.8974566e-04   6.1115762e-03   7.2472636e-04  -1.0972318e-03  -6.6899709e-05  -1.1012258e-04  -4.2090169e-04   1.2495751e-03  -8.9457649e-04   7.2940957e-04   1.4705284e-03  -9.2344638e-03  -1.9273972e-03  -9.0369899e-03   6.4015103e-04   2.0125092e-03   1.8751050e-03   1.2782661e-03
  -1.0809876e-03  -1.5209801e-04   1.3717203e-03   2.9581126e-03  -6.2320952e-04   7.7118800e-04   1.8826462e-03   2.1415909e-03   2.2785859e-03   2.2486374e-03   2.5156075e-03   1.6184929e-03   3.1044695e-03   2.5020698e-03   3.2814397e-03   2.4311962e-03  -8.6911535e-04   1.4107926e-03   1.0562381e-03   1.1631860e-03   4.0393701e-04  -8.8295538e-04  -2.6693280e-04   6.8044092e-04   1.5384812e-03   2.4373725e-03   1.7443097e-03   5.0240773e-04   3.6939227e-03   5.8678479e-04   5.5363041e-04   1.7456193e-03   7.1490312e-04   5.2202125e-03   9.0123888e-04  -1.3630670e-03  -8.8391505e-05  -1.0526116e-04   2.6265913e-04   5.1352619e-03  -4.1356805e-04   1.0140110e-03   2.1093267e-03  -4.9983673e-03  -4.7060899e-03  -1.0000308e-02   9.3660032e-04   2.3895414e-03   2.2852418e-03   1.7888856e-03
  -1.0709744e-03  -1.7130130e-04   1.2666476e-03   2.8719741e-03  -7.1010832e-04   7.0916559e-04   1.7801244e-03   2.0705825e-03   2.0756905e-03   1.8813942e-03   2.4047319e-03   1.3888320e-03   2.9046896e-03   2.1998181e-03   2.0065675e-03   2.2574179e-03  -1.2291601e-03   1.0445822e-03   1.1623208e-03   1.0619041e-03   3.2059030e-04  -9.1010873e-04  -2.8123561e-04   6.2376476e-04   1.1441130e-03   2.1203642e-03   1.2165025e-03   1.0048369e-03   2.6237306e-03   5.0908356e-04   4.7252639e-04   1.1342734e-03   2.7276556e-05   4.9708933e-03   5.2630593e-04  -8.6416083e-04  -5.1144831e-04  -2.9331524e-04   3.4967286e-04   8.3022757e-04  -4.3183149e-04   9.4965217e-04   1.6478873e-03  -8.6649535e-03   6.1235373e-04  -8.7491665e-03   8.9079223e-04   2.2366757e-03   1.8485393e-03   1.1137699e-03
  -1.2337178e-03  -3.2594590e-04   1.0681805e-03   2.6160066e-03  -8.2933722e-04   3.4337252e-04   1.5607433e-03   2.2065290e-03   1.5322836e-03   1.4394971e-03   2.0390854e-03   9.8251353e-04   2.6202335e-03   2.1404745e-03   2.2077027e-03   1.9980907e-03  -1.8121242e-03   6.9078110e-04   1.6911093e-03   8.9127931e-04   2.5521984e-04  -8.5228583e-04  -4.6486154e-04   4.9900054e-04   1.2618293e-03   1.4441275e-03   1.2046603e-03   4.9733656e-04   1.7530840e-03   3.3887351e-04   4.3413496e-05   5.3419906e-04   1.9759996e-04   4.9217399e-03   3.7645231e-04  -1.0003301e-03   2.6894345e-06  -3.4131928e-04   2.7000863e-04  -2.9565741e-03  -4.7515027e-04   9.9021161e-04   1.3268319e-03  -1.5746644e-02  -6.2802276e-03  -1.2944025e-02   1.1621090e-03   2.3172745e-03   2.3289355e-03   1.0715618e-03
  -1.1229699e-03  -1.7253675e-04   1.2823447e-03   2.8968889e-03  -6.1815785e-04   6.4412097e-04   1.6445946e-03   2.4707338e-03   1.9502287e-03   2.4217432e-03   2.4266383e-03   1.7049860e-03   2.9521158e-03   2.4483714e-03   2.2032443e-03   2.5658177e-03  -1.8848984e-03   6.4102374e-04   7.7824347e-04   1.0657818e-03   3.8476582e-04  -7.2217581e-04  -2.2462176e-04   8.1999553e-04   1.1306668e-03   1.4186992e-03   1.3182100e-03   9.8633557e-04   2.9160820e-03   5.7274482e-04   3.5455669e-04   1.4331869e-03   4.0855628e-04   4.4386648e-03   6.8338728e-04  -9.2941779e-04   4.7879024e-05  -4.7041493e-04   6.8527419e-04  -7.1829087e-03  -2.2175579e-04   1.1557273e-03   1.6714572e-03  -1.1957090e-02  -2.5944554e-03  -6.4013214e-03   1.1884093e-03   2.3721212e-03   2.3577178e-03   1.4885569e-03
  -1.1787312e-03  -1.7684602e-04   1.2003473e-03   2.8557333e-03  -6.5827701e-04   6.5193319e-04   1.7842895e-03   2.3171306e-03   1.7520705e-03   2.0876937e-03   2.3275272e-03   1.5031395e-03   2.8411322e-03   2.4687077e-03   2.7230624e-03   2.1805966e-03  -1.9252419e-03   5.4985273e-04   8.5234310e-04   1.0568476e-03   2.9202164e-04  -8.7712688e-04  -3.5244678e-04   7.9219998e-04   9.6348143e-04   1.4889768e-03   1.4397132e-03   8.7572919e-04   3.2095171e-03   4.7709543e-04   3.1493645e-04   6.5216742e-04   3.0647716e-05   4.5418283e-03   5.2534428e-04  -1.3141993e-03   1.7741579e-04  -4.3516929e-04   1.0452569e-04  -3.7413819e-03  -5.7646632e-04   9.3008991e-04   1.2256827e-03  -4.8758257e-03  -6.4726267e-03  -6.4214543e-03   6.3578069e-04   1.8652250e-03   1.9096541e-03   9.8041794e-04
  -1.3648927e-03  -3.7461607e-04   9.5839699e-04   2.5667907e-03  -8.4364618e-04   4.0993199e-04   1.5813513e-03   1.9789101e-03   1.1612606e-03   1.4312051e-03   1.9403070e-03   9.9706021e-04   2.4696821e-03   2.1213985e-03   2.8036330e-03   2.0648085e-03  -2.0842396e-03   5.7406304e-04   9.3064777e-04   8.6858775e-04   1.6505629e-04  -1.0554314e-03  -4.9392862e-04   5.1398599e-04   9.6450234e-04   1.3740545e-03   1.0674745e-03   4.4979021e-04   1.6641088e-03   2.8825257e-04   1.2717021e-04   1.0388901e-03  -7.5951015e-05   3.9097336e-03   4.2810224e-04  -1.7105996e-03  -5.5695581e-04  -6.2723854e-04   1.6487358e-04   1.5212330e-03  -1.0382896e-04   7.8114221e-04   1.0563352e-03  -1.0225269e-02   1.7525897e-03  -9.5781144e-03   6.1956752e-04   1.9596184e-03   1.8753713e-03   1.4208766e-03
  -1.3236679e-03  -3.1060862e-04   1.0938430e-03   2.7946550e-03  -6.8388466e-04   5.9574022e-04   1.6059608e-03   2.3645908e-03   1.9226861e-03   2.2630082e-03   2.3048706e-03   1.5803199e-03   2.8294746e-03   2.3403573e-03   2.0371135e-03   2.0601002e-03  -2.1493188e-03   2.3092268e-04   3.2839380e-05   9.9948060e-04   2.9979166e-04  -8.2114950e-04  -3.5516123e-04   7.4290356e-04   1.2344511e-03   1.3506715e-03   1.0839468e-03   9.4267901e-04   1.7101337e-03   4.6523754e-04   1.6425070e-04   9.3929673e-04   1.4445731e-04   4.5103012e-03   6.4968329e-04  -1.4341262e-03  -2.3553723e-04  -6.1153341e-04   5.8706244e-04   1.1785522e-03  -1.4449484e-04   1.1489451e-03   1.1520383e-03  -1.3841011e-02  -7.3200557e-04  -1.0525056e-02   1.0180449e-03   2.1404105e-03   1.9233266e-03   1.5119334e-03
  -1.3421309e-03  -2.6645485e-04   1.0373524e-03   2.7985277e-03  -6.8833219e-04   5.1647221e-04   1.6734179e-03   2.0794040e-03   1.4791586e-03   1.9465692e-03   2.2434858e-03   1.3784843e-03   2.9015231e-03   2.3948320e-03   2.1782126e-03   2.0275773e-03  -2.1358277e-03   4.0686244e-04   5.4930768e-04   9.5448992e-04   2.4683066e-04  -8.9226797e-04  -3.6687858e-04   6.5574498e-04   8.1767899e-04   1.3616830e-03   1.6072710e-03   8.0165139e-04   1.6357767e-03   4.0257367e-04   1.8768890e-04   6.4551912e-04  -2.1883017e-04   4.1955966e-03   5.6506996e-04  -9.2238636e-04   3.7326140e-04  -5.2294356e-04   7.7081803e-04   2.3138670e-03  -3.8575692e-04   8.9031830e-04   1.1503821e-03  -5.9845061e-03  -5.5437917e-03  -7.9987934e-03   2.5697722e-04   1.9344812e-03   1.5965204e-03   7.9534791e-04
  -1.4913534e-03  -4.5023728e-04   8.1155362e-04   2.5254635e-03  -8.9048897e-04   3.2701183e-04   1.3745116e-03   1.7886760e-03   1.3450856e-03   1.2491208e-03   1.8721723e-03   8.4224023e-04   2.4816880e-03   2.0517560e-03   1.8936399e-03   2.0343112e-03  -2.1351392e-03   4.8261884e-04   8.2024053e-04   7.4982218e-04   6.1704581e-05  -1.1816609e-03  -6.3400168e-04   4.4802355e-04   9.2918857e-04   1.3912333e-03   1.2455689e-03   6.2024844e-04   1.9596114e-03   2.0078006e-04  -1.7327612e-04   1.0828472e-03  -1.6943247e-04   3.9028523e-03   6.0152472e-04  -4.8604113e-04  -9.0246962e-05  -5.9619336e-04   3.5187468e-04   1.1985059e-03  -5.7920802e-04   9.4360963e-04   9.4093796e-04  -3.0745217e-03  -7.6881498e-03  -9.4758635e-03   9.0117683e-04   2.1842374e-03   1.6858019e-03   1.0400193e-03
  -1.3731446e-03  -2.9149867e-04   1.0283057e-03   2.8621636e-03  -6.7947619e-04   4.8888713e-04   1.7005539e-03   2.1092556e-03   1.7130238e-03   2.1836630e-03   2.2797524e-03   1.5228968e-03   3.0286515e-03   2.3694127e-03   2.6291383e-03   2.3469096e-03  -2.1693422e-03   3.8416794e-04   8.1453379e-04   9.9366135e-04   2.3803292e-04  -9.4540737e-04  -3.9862288e-04   6.3621264e-04   1.0682479e-03   1.3797397e-03   1.4084366e-03   5.9250416e-04   8.8886108e-04   4.4640727e-04   1.6141740e-04   8.8844390e-04  -4.0322373e-04   4.7874600e-03   7.6643348e-04  -7.8266457e-04   6.9909741e-04  -6.0491578e-04  -2.4526034e-04  -5.4176585e-03  -2.9560938e-04   1.0983049e-03   1.2884116e-03  -1.0184074e-02  -3.1941615e-03  -1.0882864e-02   1.0425983e-03   2.0432640e-03   1.9358700e-03   9.7109639e-04
  -1.3807559e-03  -3.0602748e-04   9.5529720e-04   2.8129285e-03  -6.9499580e-04   5.2665389e-04   1.6647649e-03   1.8199069e-03   1.6203158e-03   1.7983981e-03   2.1493461e-03   1.2499049e-03   2.8789232e-03   2.4541065e-03   2.1312535e-03   1.5055512e-03  -2.1832970e-03   2.1256255e-04   1.2127667e-04   9.1394264e-04   1.4207352e-04  -1.0448592e-03  -3.8416006e-04   5.5244507e-04   9.5938897e-04   1.4877178e-03   1.5370750e-03   9.9793659e-04   1.5692292e-03   3.8226179e-04   2.1221983e-04   8.7480940e-04  -3.9183200e-04   4.3579778e-03   8.8765449e-04  -1.1217594e-03   2.4815186e-04  -5.6295894e-04   5.3452473e-04   1.0435368e-02  -1.8504956e-04   8.6108153e-04   1.0513884e-03  -5.9507960e-03  -2.9692851e-04  -8.5072163e-03   8.6231317e-05   1.6547976e-03   1.4814467e-03   6.6682586e-04
  -1.5165120e-03  -5.1554095e-04   7.4832968e-04   2.5221398e-03  -9.0717076e-04   3.0073736e-04   1.3058066e-03   1.5708414e-03   1.3498126e-03   1.1129554e-03   1.7673519e-03   6.8697095e-04   2.3641987e-03   2.2130408e-03   2.6889930e-03   1.7227901e-03  -2.1881838e-03   2.7410180e-04  -1.9843179e-04   6.9453754e-04  -2.8274884e-05  -1.3156453e-03  -6.4631371e-04   4.1892278e-04   1.1041786e-03   1.4503625e-03   1.2154425e-03   8.9498656e-04   1.9159188e-03   2.3168343e-04  -2.4341415e-04   1.5500413e-04  -3.9053167e-04   4.9439035e-03   5.0967018e-04  -1.1534216e-03  -3.4836837e-04  -6.3152530e-04   4.8896467e-04   1.7758275e-03  -1.7988376e-04   1.1362149e-03   1.2832069e-03  -3.3184665e-03  -1.4634215e-03  -1.4201924e-02   1.0952190e-03   2.1715104e-03   1.6798802e-03   9.4072160e-04
  -1.2374329e-03  -2.9567335e-04   1.0601846e-03   2.9618011e-03  -6.3539465e-04   6.3009211e-04   1.7539439e-03   2.2106091e-03   1.7036861e-03   2.2952573e-03   2.3292380e-03   1.5083787e-03   3.2397814e-03   2.1435744e-03   2.1718685e-03   2.1540180e-03  -2.1936577e-03   6.2495397e-05   7.7422836e-04   9.2228135e-04   2.3336682e-04  -8.7500672e-04  -3.7401472e-04   7.1045058e-04   9.7871583e-04   1.3043202e-03   1.2540569e-03   1.2270925e-03   9.3287008e-04   4.5114677e-04   1.2781064e-04   8.9750451e-04  -4.6302719e-04   5.0672875e-03   7.4293173e-04  -5.3316180e-04   5.6860107e-04  -7.3156576e-04   4.4097623e-04   3.7632841e-03   1.3145253e-04   1.1830620e-03   1.4288139e-03  -1.5639141e-02  -6.2292493e-03  -8.4928246e-03   7.7648979e-04   1.9940324e-03   1.8868619e-03   4.6864749e-04
  -1.2338308e-03  -3.4353085e-04   9.9296763e-04   2.8266383e-03  -7.3143380e-04   5.9332111e-04   1.6410553e-03   1.9934874e-03   1.4886635e-03   1.8309960e-03   2.1790178e-03   1.1259096e-03   3.0968154e-03   2.1252788e-03   1.9639789e-03   2.3422560e-03  -2.2415817e-03   6.7056089e-06   2.5332870e-04   7.6133601e-04   2.4516365e-04  -9.0410752e-04  -6.1585358e-04   5.9323665e-04   1.2989648e-03   1.1616977e-03   1.3774205e-03   8.3218038e-04   1.7484720e-03   3.4394348e-04   5.5053228e-05   2.9323067e-04  -3.8706904e-04   4.5976560e-03   6.6940166e-04  -7.6855620e-04  -4.6363453e-05  -8.9175813e-04   4.9700140e-04  -8.2438008e-04  -5.9820548e-05   9.6320082e-04   1.1126362e-03  -1.7130399e-02  -6.1074588e-03  -9.5867012e-03   2.1491843e-04   1.6614296e-03   1.4604981e-03   3.2160184e-04
  -1.2707310e-03  -1.0199094e-03   5.0076353e-04   2.1243806e-03  -1.1967234e-03   4.8956822e-04   1.5351238e-03   1.6680959e-03   1.3969179e-03   1.2705685e-03   1.5969040e-03   3.1370457e-04   2.9519156e-03   2.1799563e-03   1.3306581e-03   2.5560858e-03  -2.8674786e-03  -7.3542882e-04   4.5282301e-04   2.6761912e-04   5.1492680e-04  -1.4835609e-03  -1.0202633e-03   9.1246673e-04   1.5230230e-03   9.6004916e-04   1.2975833e-03   1.1412698e-03   2.1116582e-03   3.9272144e-04   9.8606521e-05   1.2765641e-03  -8.5442269e-04   4.0573888e-03   7.3788944e-04  -5.9811643e-04  -3.6855479e-04  -1.0995769e-03   3.1571341e-04  -7.1854838e-03   3.2994695e-04   1.4147821e-03   8.7016064e-04  -1.7278912e-03  -8.6008692e-03  -1.1511642e-02   1.0425164e-03   2.5087723e-03   1.5370081e-03   1.6502097e-03
  -9.6519530e-04  -9.8773313e-04   3.9139582e-04   2.3628424e-03  -1.1806495e-03   9.5065014e-04   1.8317023e-03   2.0266650e-03   1.8341703e-03   2.0272378e-03   2.0209542e-03   1.2333526e-03   3.5302825e-03   2.7664602e-03   1.4500327e-03   2.0613277e-03  -2.3439939e-03  -9.2508341e-04   2.3375152e-04   1.0012423e-04   3.4679839e-04  -1.9058360e-03  -8.2981784e-04   9.3275943e-04   1.2503696e-03   1.3433571e-03   1.6389664e-03   1.0118411e-03   2.0787776e-03   5.4691522e-04   3.9422448e-04   4.2739417e-04  -8.9141668e-04   4.3382128e-03   9.5396210e-04  -7.2092237e-04  -5.3843146e-04  -6.3186372e-04   4.0497360e-04  -6.4971736e-03   2.6868982e-04   1.1951815e-03   1.0836696e-03  -9.6492646e-03  -8.4705520e-03  -1.0303209e-02   2.8467292e-04   2.4022404e-03   1.2814555e-03   1.1603431e-03
  -1.3157990e-03  -1.1465071e-03   5.8101559e-05   2.1431029e-03  -1.4146751e-03   4.3562995e-04   1.3058801e-03   1.5955600e-03   1.1175370e-03   1.2013924e-03   1.6845053e-03   7.1662344e-04   2.9069530e-03   2.3663370e-03   2.6185836e-03   1.8857921e-03  -1.3813784e-03   3.4168705e-05   6.4116648e-05   1.1772874e-04  -9.5331554e-05  -2.1655858e-03  -7.9142966e-04   4.6158009e-04   1.0606637e-03   2.0144689e-03   1.3640102e-03   8.6737418e-04   1.3223491e-03   3.7918417e-04  -1.3141641e-04   8.2590384e-04  -1.1577342e-03   4.3327999e-03   6.1490439e-04  -1.2718004e-03  -7.4896921e-04  -4.2146485e-04   6.1836111e-04   1.7089818e-03   3.3990221e-04   6.4488192e-04   8.2862988e-04  -2.2360466e-02  -2.5678892e-03  -1.1495966e-02  -3.9236853e-04   1.8138376e-03   1.1518820e-03   5.7615503e-04
  -1.6079488e-03  -1.0073835e-03   3.6558948e-04   2.1684815e-03  -1.2613123e-03   2.8054925e-04   1.4454974e-03   1.9849085e-03   1.5887828e-03   1.7817037e-03   1.9361818e-03   1.2259309e-03   2.9689474e-03   2.4312516e-03   2.3252214e-03   2.0750337e-03  -1.1508510e-03   4.0689085e-04   1.8497807e-04   3.0009157e-04  -1.3614807e-04  -2.3037379e-03  -5.9461826e-04   6.0023391e-04   1.1980312e-03   2.3146393e-03   1.3819907e-03   1.2001464e-03   1.8913924e-03   5.7787145e-04  -9.2229486e-05   6.4241362e-04  -8.3721010e-04   4.4899620e-03   1.0834027e-03  -7.2395802e-04  -2.4438658e-04  -1.6966648e-04  -1.9974772e-05   6.4338464e-03   1.1919609e-04   9.4187498e-04   1.9651891e-03  -3.7719887e-03  -6.7783943e-03  -7.1026399e-03   4.0449554e-04   2.2513024e-03   1.9858941e-03   1.2458471e-03
  -1.4850448e-03  -7.2710658e-04   5.4207083e-04   2.3187173e-03  -1.1908809e-03   3.1538695e-04   1.6481662e-03   1.6429004e-03   1.3838505e-03   1.4430770e-03   2.0348863e-03   1.1549280e-03   2.9042519e-03   2.1024223e-03   3.0482083e-03   1.6050470e-03  -6.0061796e-04   9.6225529e-04   8.1998023e-04   3.4252153e-04  -1.2755649e-04  -2.3349912e-03  -6.8691839e-04   3.3632098e-04   1.2011101e-03   2.8573205e-03   1.2835747e-03   3.6096672e-04   2.6500106e-03   5.7970255e-04  -1.9115936e-04   1.3799524e-03  -6.7129417e-04   6.4791660e-03   9.7728916e-04  -1.4944391e-03   4.8706541e-05  -3.5082205e-05  -1.0981448e-04   7.7607716e-03  -1.3571337e-04   6.5480068e-04   1.6014096e-03  -9.5327003e-03  -6.3973945e-03  -4.9159955e-03  -1.3098785e-05   1.7232316e-03   1.6002357e-03   9.3226135e-04
  -1.5602505e-03  -7.9449126e-04   4.7864087e-04   2.1677951e-03  -1.2722685e-03   1.2463061e-04   1.2074265e-03   1.7207866e-03   1.2000286e-03   9.4937120e-04   1.7770928e-03   7.7488733e-04   2.6688429e-03   1.9407691e-03   2.7135310e-03   1.5428085e-03  -7.9702493e-04   6.8312843e-04  -1.5041799e-05   2.0415624e-04  -2.9034851e-04  -2.4054085e-03  -6.7918899e-04   2.0938885e-04   6.9645786e-04   2.8132631e-03   1.3957339e-03   2.2038736e-04   3.4350671e-03   4.0279143e-04  -7.8728386e-05   1.5856768e-03  -5.6943501e-04   5.6115305e-03   1.0332968e-03  -4.6009079e-04  -4.9484242e-04  -1.1020504e-05   1.0452016e-04  -1.2441810e-02   8.6198088e-06   6.5566885e-04   1.9004608e-03  -1.6736807e-02  -6.4017053e-04  -6.9612111e-03   1.3095530e-04   2.0558101e-03   1.4868468e-03   7.5085065e-04
  -1.3280085e-03  -5.3700298e-04   8.4323547e-04   2.6206477e-03  -9.8481833e-04   4.0352214e-04   1.5918309e-03   1.5192906e-03   1.7105333e-03   1.8083216e-03   2.3206102e-03   1.5227828e-03   3.2957150e-03   2.3605607e-03   3.1420288e-03   1.9373363e-03   3.1244082e-05   1.3523039e-03   8.3545531e-04   5.1726709e-04  -7.6733064e-05  -2.3252587e-03  -5.2102597e-04   3.2451778e-04   9.9156937e-04   3.3808567e-03   1.3015812e-03   1.6345344e-04   6.9068075e-04   6.3912885e-04  -2.6578156e-04   1.5108408e-03  -3.4485964e-04   6.7138877e-03   1.0767507e-03  -8.0050540e-04  -3.5960249e-05   2.2911521e-04  -4.8627445e-04  -3.0295586e-03   1.7983932e-04   5.5491674e-04   2.3745792e-03  -9.9310419e-03  -6.7438004e-03  -6.3824612e-03  -7.2362447e-05   1.9862351e-03   1.6803704e-03   1.0216486e-03
  -1.4059260e-03  -5.6540692e-04   7.3282118e-04   2.5558493e-03  -1.0753798e-03   2.5164706e-04   1.3821316e-03   1.6220692e-03   1.4923201e-03   1.3853154e-03   2.1047723e-03   1.2464850e-03   2.9721747e-03   2.2442483e-03   2.6291113e-03   1.6747323e-03  -2.2550793e-04   1.2769419e-03   7.1224396e-04   4.5382962e-04  -1.7799475e-04  -2.3673750e-03  -5.9591746e-04   2.1857237e-04   1.2707376e-03   2.9485461e-03   1.7146881e-03   1.9766374e-04   2.6469624e-03   5.7265360e-04   2.1609136e-04   1.4934300e-03  -5.3187733e-04   6.5417546e-03   9.4673311e-04  -8.5272442e-04  -1.9087545e-04  -5.0581875e-06  -5.7424197e-04   1.0940582e-02  -9.7673277e-05   5.0144765e-04   1.7761503e-03  -3.9648511e-03  -3.6876008e-03  -8.8069635e-03  -2.8792254e-04   2.0051952e-03   1.5967909e-03   5.6564272e-04
  -1.5263708e-03  -6.6027464e-04   6.2779168e-04   2.3885567e-03  -1.1215158e-03   2.0859348e-04   1.4492682e-03   1.4822342e-03   1.3939424e-03   1.5479819e-03   2.0642420e-03   1.3988612e-03   2.7697901e-03   2.1180420e-03   2.8946786e-03   1.8373501e-03  -5.6049327e-04   1.1241916e-03   8.1989745e-04   6.1181770e-04  -8.7898065e-05  -2.1253671e-03  -3.8922744e-04   3.8947773e-04   1.0500310e-03   2.5126936e-03   9.6213142e-04   3.9886282e-04   1.9220187e-03   6.9570862e-04   6.6636340e-04   1.2633710e-03  -2.4387636e-04   5.5159391e-03   9.8759483e-04  -7.5949461e-04  -2.3188484e-04  -1.9546955e-04   1.0182051e-04   6.8705092e-04  -4.1510432e-04   1.0075282e-03   1.9479668e-03  -2.9159512e-03  -3.1184920e-04  -6.3731461e-03   1.0856806e-03   2.5663639e-03   2.2802528e-03   1.7562825e-03
  -1.2361186e-03  -2.4900300e-04   1.0366157e-03   2.8393462e-03  -7.7705312e-04   5.5988121e-04   1.8351726e-03   1.8900641e-03   1.9102823e-03   2.0714062e-03   2.4407245e-03   1.8159135e-03   3.2807724e-03   2.6580621e-03   2.8884935e-03   2.0347461e-03  -7.5477693e-04   9.5422333e-04   8.4181642e-04   7.6532748e-04  -1.1008824e-05  -1.9319649e-03  -4.5277886e-04   4.8395508e-04   1.5901441e-03   2.3168817e-03   1.8582841e-03   7.7332376e-04   3.3739649e-03   8.3133217e-04   6.8121211e-05   1.2014051e-03  -2.5729730e-04   5.8475430e-03   1.1232763e-03  -9.3294837e-04  -6.5917033e-04  -1.7558866e-04  -1.2851364e-04  -3.4052508e-03  -2.5536283e-04   1.0054250e-03   1.7450800e-03  -3.8183019e-03  -8.4017180e-03  -7.0213368e-03   8.6451735e-04   2.5464483e-03   1.7631802e-03   1.2642124e-03
  -1.2855405e-03  -2.9642103e-04   9.9455204e-04   2.7176742e-03  -8.1396609e-04   4.9712026e-04   1.7783145e-03   1.9022289e-03   1.5353803e-03   1.7276721e-03   2.2601159e-03   1.5431079e-03   3.0806570e-03   2.3474102e-03   2.3360865e-03   2.3823262e-03  -1.0174550e-03   7.8159163e-04   7.9288293e-04   6.9870736e-04  -1.0092998e-04  -1.9160559e-03  -3.4888572e-04   4.3148716e-04   8.4194815e-04   2.1586902e-03   1.7136032e-03   1.0017458e-03   2.9404701e-03   7.3483342e-04   6.0680916e-04   1.4990863e-03  -3.0215326e-04   4.6786861e-03   8.8637992e-04  -1.1154214e-03  -1.1988614e-04  -1.1699273e-04   5.6336296e-04  -3.9735949e-03   1.0149805e-04   7.9335045e-04   1.8409585e-03  -9.6930424e-03  -7.9404656e-03  -8.4941392e-04   4.0628566e-04   1.8591151e-03   1.8223248e-03   8.0465456e-04
  -1.2307086e-03  -3.2444007e-04   1.1219027e-03   2.8162454e-03  -6.5365538e-04   6.6619477e-04   1.8311975e-03   2.1074831e-03   1.8954538e-03   2.3701568e-03   2.5041611e-03   1.9812908e-03   3.5508617e-03   2.6441065e-03   2.7133294e-03   2.4950916e-03  -1.0310671e-03   7.3823158e-04   1.4192949e-03   8.7511737e-04   4.3376047e-05  -1.6808403e-03  -3.3843759e-04   5.5512879e-04   1.8601437e-03   2.0147464e-03   1.9066165e-03   1.6335056e-03   3.0207522e-03   9.3205390e-04   5.1934615e-04   1.0973909e-03  -1.3743318e-04   4.9325335e-03   1.2449700e-03  -6.1179110e-04   3.8685070e-04  -1.3520470e-04   1.2550171e-04   2.5701830e-03  -1.3699493e-04   1.3458390e-03   2.0350676e-03  -8.1734564e-03  -4.8600240e-03  -1.0219688e-02   1.5276026e-03   2.6042762e-03   2.3620513e-03   1.6525702e-03
  -1.0206345e-03  -1.5745558e-04   1.2249767e-03   2.9675732e-03  -5.9325958e-04   6.8153045e-04   1.8421592e-03   2.0422225e-03   1.8659605e-03   2.1170904e-03   2.5441777e-03   1.7955831e-03   3.5118654e-03   2.7251288e-03   2.8999934e-03   2.3149308e-03  -4.1456145e-04   1.2985129e-03   9.9561084e-04   9.0809329e-04   4.3585063e-05  -1.7849281e-03  -2.1605540e-04   5.5605610e-04   1.2109264e-03   2.6743496e-03   1.5154867e-03   1.2548871e-03   3.3959069e-03   9.5889589e-04   2.8621455e-04   1.6241433e-03   3.3910339e-05   5.9586484e-03   1.1573515e-03  -7.7439612e-04  -4.2643773e-04   1.3670765e-04   3.6684884e-04   5.9972187e-03  -3.2050657e-04   8.9817651e-04   2.0128866e-03  -8.8932989e-03  -2.5601571e-03  -1.3376632e-02   5.7373761e-04   2.3799904e-03   1.8028105e-03   1.2099153e-03
  -1.0938819e-03  -2.9684289e-04   1.0591400e-03   2.7249821e-03  -7.3426194e-04   4.8969634e-04   1.7389031e-03   1.9659896e-03   1.7353458e-03   1.5947929e-03   2.2105055e-03   1.3739938e-03   3.1967668e-03   2.5807067e-03   3.0621351e-03   2.5679022e-03  -5.2080321e-04   1.3234677e-03   6.7897793e-04   7.2784390e-04  -1.6137277e-04  -1.9591262e-03  -4.0839252e-04   3.7610272e-04   1.3162495e-03   2.6169331e-03   1.3850628e-03   6.2625320e-04   3.5887267e-03   7.7504595e-04  -5.0654231e-05   1.6697873e-03  -3.3919947e-04   5.2157086e-03   9.6825167e-04  -1.0619533e-03  -3.7170344e-04   1.4439500e-05   7.6783006e-05  -4.2006493e-04  -2.6687930e-04   6.0983462e-04   1.6750267e-03  -5.3742509e-03  -6.7786858e-03  -6.3727461e-03   3.2965991e-07   1.8903960e-03   1.6908559e-03   8.6026004e-04
  -1.2464206e-03  -5.2957179e-04   8.7026978e-04   2.5134371e-03  -8.5404422e-04   3.4942193e-04   1.5165595e-03   1.6176490e-03   1.6258027e-03   1.9278738e-03   2.1554006e-03   1.5275491e-03   2.8135576e-03   2.5318302e-03   2.6675558e-03   2.2736678e-03  -5.7591911e-04   1.2989916e-03   1.2207909e-03   7.1617146e-04  -1.5246992e-04  -2.0068265e-03  -4.7721976e-04   5.5364758e-04   1.6118110e-03   2.4171888e-03   1.3418791e-03   9.1050717e-04   3.8676581e-03   8.5668126e-04   1.1480383e-04   1.4588644e-03  -2.3614008e-04   5.5610575e-03   1.0085783e-03  -6.7928131e-04   1.1735451e-04   1.1929798e-05  -4.2708573e-04  -2.9352608e-05  -7.2226925e-05   1.1275825e-03   1.9555022e-03  -5.2765519e-03  -4.9697584e-04  -9.1055958e-03   1.3704069e-03   2.5801256e-03   2.3331719e-03   1.5118574e-03
  -9.8235288e-04  -1.7820109e-04   1.1428944e-03   2.9776511e-03  -5.8068993e-04   7.7499053e-04   1.8119293e-03   1.9722041e-03   2.1007708e-03   2.4099760e-03   2.4780980e-03   1.8531303e-03   3.4893765e-03   2.6661169e-03   3.2543545e-03   2.1970342e-03  -5.9463084e-04   8.2041684e-04   1.2491546e-03   8.5821009e-04  -9.1140428e-05  -1.8694295e-03  -4.6503544e-04   5.9307617e-04   1.5034248e-03   2.3970606e-03   1.6980995e-03   9.6505956e-04   4.0525431e-03   8.9507067e-04   4.3240399e-04   9.0316287e-04  -2.0517358e-04   5.9597990e-03   1.1078486e-03  -7.1144599e-04  -2.4194001e-04  -1.3789392e-05   8.8267354e-04   2.4986921e-03  -1.2671111e-04   1.0767243e-03   1.8009262e-03  -6.5251309e-03  -2.4038348e-03  -8.2243150e-03   8.8638696e-04   2.4030977e-03   1.8409812e-03   1.2369714e-03
  -9.9034398e-04  -3.2310814e-04   1.0267369e-03   2.8256215e-03  -6.6559028e-04   7.0171541e-04   1.7974058e-03   2.0785709e-03   1.7907014e-03   2.1007545e-03   2.2520171e-03   1.5437419e-03   3.3171966e-03   2.5426177e-03   2.8001536e-03   2.6499860e-03  -6.0595351e-04   1.0379392e-03   1.1267855e-03   6.6169631e-04  -2.5718936e-04  -2.1254180e-03  -6.0129119e-04   4.0375284e-04   1.4956860e-03   2.4401918e-03   1.5237791e-03   1.0539349e-03   3.5031852e-03   7.6398061e-04   7.3970872e-04   2.1015755e-03  -3.5792790e-04   5.2488511e-03   8.1083109e-04  -1.0645903e-03  -5.3778727e-04  -8.3787800e-06  -2.5127496e-05   4.2214133e-03  -1.2232408e-04   7.2579540e-04   1.6382223e-03  -1.2569851e-02  -2.7635200e-03  -8.2634343e-03   1.8902657e-04   1.7720904e-03   1.4746012e-03   5.1154650e-04
  -1.1206843e-03  -5.3105544e-04   7.6521985e-04   2.5944107e-03  -8.5156300e-04   4.5891607e-04   1.3657508e-03   1.5276170e-03   1.5350621e-03   1.7629259e-03   1.9416767e-03   1.2252291e-03   2.5061460e-03   2.1450059e-03   2.2869657e-03   2.0338814e-03  -4.2988363e-04   9.4060187e-04   9.6943224e-04   5.6427234e-04  -2.6354831e-04  -2.2558009e-03  -7.8955118e-04   4.9510179e-04   1.2409181e-03   2.8049480e-03   1.4089715e-03   1.1016310e-03   2.6901260e-03   7.1836967e-04   4.7628550e-04   1.8207586e-03  -3.9610025e-04   7.1300175e-03   9.1328652e-04  -8.4326166e-04  -9.3057862e-04   1.7546538e-04  -3.5320222e-06  -1.5824266e-03   5.3064843e-05   8.6703914e-04   2.1515321e-03  -8.6407633e-03  -1.6295215e-03  -7.2544739e-03   1.0625363e-03   2.4234890e-03   1.9029706e-03   9.9148380e-04
