   5.0666713e-04   4.8590262e-04   5.9894857e-04   3.6882152e-04   5.1187677e-04   2.4840413e-04   3.9176142e-04   8.6859931e-05   5.4393749e-04   1.2620732e-03   1.6705339e-03   9.3735161e-04   5.5820437e-04   5.7254132e-04  -9.0047186e-05  -3.9168305e-04  -5.5492023e-04  -2.4345875e-04  -1.2236617e-04   1.2557775e-04   2.7766224e-04   9.9531852e-04   5.8846321e-04   5.9958571e-04  -5.4390108e-05  -4.3796876e-04  -3.1199717e-04   1.4036799e-04  -7.3954690e-04   1.3965057e-04  -4.1844128e-04  -5.3883815e-04   3.7174244e-04   1.0227334e-03  -2.7878580e-04   3.2872858e-04  -2.7569017e-04  -4.5336815e-04  -6.1007123e-04  -5.1037762e-03   2.0649127e-04   9.1310637e-04  -3.3034306e-04   3.9288630e-03   1.2016157e-03  -7.8564469e-04   9.8834035e-04  -1.2292931e-04   4.6221280e-04   3.4178823e-04
   4.9120333e-04   4.9420819e-04   5.2278891e-04   2.7724734e-04   4.6539836e-04   2.4665697e-04   4.0143513e-04   3.6246772e-04   4.4368027e-04   9.1485295e-04   1.5067018e-03   6.8004237e-04   6.6513132e-04   2.3469450e-04  -4.8766166e-04  -1.1961374e-04  -5.2752561e-04  -4.5417735e-04  -4.7706260e-04   1.9618690e-05   2.1478064e-04   8.9978054e-04   2.8721977e-04   4.5392429e-04  -3.0267591e-04  -4.3416835e-04  -1.9402096e-04   1.8145074e-05  -4.0559887e-04   4.7447036e-05  -3.7906572e-04  -6.0500961e-04  -1.6623610e-05   3.6649115e-04  -4.7423426e-04   7.3088137e-05   8.0537411e-06  -4.4579362e-04  -5.7594421e-05  -1.7539961e-02  -1.1154289e-04   6.5251120e-04  -5.1436236e-04   5.7286210e-03  -1.8588288e-03   2.3149801e-03   4.9575977e-04  -2.9877125e-04   4.6168154e-04  -3.9404459e-04
   2.4912765e-04   2.6084157e-04   2.0143975e-04  -3.6191836e-05   1.9244790e-04  -1.7148755e-04   1.4053710e-05  -4.8529320e-05   3.2284026e-04   3.4685075e-04   1.0940590e-03   1.9123629e-04   1.8198301e-04   1.3284096e-04  -3.4368626e-04  -3.6074754e-04  -5.7077641e-04  -3.4078435e-04   6.8186557e-05  -1.0264635e-04   1.4373628e-04   7.8585307e-04   1.8416425e-04   4.0195134e-04  -1.8395077e-04  -4.1264767e-04   7.9784761e-05  -4.9655675e-04  -1.2546779e-04   1.4353410e-05   1.0286155e-04  -8.0255518e-04   1.8102645e-04   1.4442269e-03  -1.2026546e-04   1.4398787e-04  -3.2215990e-05  -4.2931209e-04   3.8542939e-04   3.8501529e-03   9.0350317e-05   8.1358902e-04  -2.1034045e-04  -3.5780610e-03  -4.4577657e-03   8.9997926e-04   1.1982403e-03   4.8077723e-05   4.7782049e-04   3.6628958e-04
   6.0043344e-04   5.9735752e-04   6.6257571e-04   3.6878476e-04   5.3573737e-04   4.3629663e-04   4.3059053e-04   7.0342561e-04   8.8830933e-04   1.1135160e-03   1.7296409e-03   8.8754483e-04   6.6540961e-04   3.8471192e-04  -1.1869112e-04  -1.3790295e-05  -4.1706537e-04  -3.0956921e-04   7.4401347e-04   1.1523828e-04   2.6997985e-04   1.0248634e-03   5.7618512e-04   5.8555003e-04   1.3281676e-04  -2.3589461e-04   4.7914782e-05  -1.7003708e-04   9.3889155e-04   2.1532791e-04   2.5146965e-05  -2.9017738e-04   3.1651207e-04   1.0811809e-03   7.1770832e-05   2.6509241e-04   2.4243740e-04  -4.2008644e-04  -6.9154288e-07  -8.4428734e-04   2.1902109e-05   7.3150848e-04  -2.3781395e-04   2.3045575e-03   5.5078813e-03   2.6253338e-03   9.0902287e-04   3.2959764e-05   7.9258834e-04   8.2450057e-04
   5.2547577e-04   5.4789480e-04   4.8294361e-04   2.0936280e-04   4.3295074e-04   1.5134290e-04   1.4822507e-04   1.7108495e-04   6.5527449e-04   7.8839966e-04   1.4391129e-03   6.0929620e-04   3.2246541e-04   4.9987243e-04  -1.6682474e-04   1.6904513e-04  -4.6068305e-04  -4.9824262e-04   1.5932857e-04  -5.7682691e-06   1.6273947e-04   8.7783852e-04   4.0424499e-04   4.5165510e-04   1.0301940e-05  -2.0902531e-04  -4.3309768e-04   4.3425331e-04  -1.4201567e-03   6.8920410e-05  -5.0071417e-04  -9.3554234e-04   1.8531494e-04   3.9222633e-04  -3.7435969e-04  -9.0437918e-04  -2.9727202e-04  -4.5909337e-04  -2.9543220e-04  -5.6771324e-03   1.9336405e-05   4.1410016e-04  -3.5036684e-04  -3.6505244e-03  -8.7465701e-04  -1.2734062e-04   2.3823186e-04  -5.1399937e-04   4.8571621e-04  -1.1893632e-04
   2.9903301e-04   3.2701826e-04   3.1936727e-04   6.4528373e-05   3.4973232e-04   1.4751275e-04   2.5416061e-04  -1.2623852e-04   6.4295909e-04   1.0358354e-03   1.5193515e-03   8.2992448e-04   9.4781601e-04   5.6549668e-04  -6.8424022e-05   3.8749690e-04  -4.4330742e-04  -4.1615358e-04   1.5724575e-04   8.9082336e-05   2.5363665e-04   9.3953981e-04   4.8452060e-04   6.4963434e-04   6.9626368e-04  -1.6449753e-04   2.5490529e-04  -2.2476225e-04   6.5490440e-04   3.1199318e-04  -1.5192463e-04  -5.5146070e-06   3.6366517e-04   1.2294011e-03  -3.4516671e-04  -3.6502449e-04   2.2430930e-04  -3.8293382e-04   1.7323359e-04   3.1529844e-03   2.0216545e-04   8.5760688e-04   2.5029185e-05  -2.0109552e-03  -2.3055358e-03  -2.5268712e-03   1.2304621e-03   3.0872316e-04   3.9084957e-04   2.7574107e-04
   7.1818434e-04   7.1921025e-04   6.7021203e-04   3.9616838e-04   6.0980051e-04   3.9754517e-04   5.2432873e-04   4.9945491e-04   8.6932816e-04   1.1684356e-03   1.7529820e-03   9.7227131e-04   6.8048207e-04   6.4539310e-04  -8.0702543e-05   2.1400597e-04  -3.6281563e-04  -4.4561052e-04   9.9533529e-04   1.8069029e-04   2.6879486e-04   9.4215438e-04   4.9402780e-04   6.6926400e-04   3.9959769e-04  -1.4142928e-04   3.0312053e-04  -3.6489661e-04   2.2486241e-03   3.7659425e-04  -7.2128656e-05  -4.9449969e-04   4.2173440e-05   8.6112303e-04   1.7905310e-05   7.2474271e-04   5.4925081e-04  -3.8099132e-04   3.1325567e-04  -1.6004630e-04   5.0728890e-04   7.8694767e-04  -2.6953040e-04  -3.2835931e-03   1.1044085e-03  -5.5059214e-04   7.6638395e-04   2.0955243e-04   5.0360273e-04   3.5779914e-04
   5.8428984e-04   5.8549229e-04   4.4844433e-04   2.1764597e-04   4.6298062e-04   2.0703564e-04   1.2336117e-04   4.5669585e-04   6.3165743e-04   7.7813165e-04   1.4739557e-03   6.3630956e-04   4.8374149e-04   4.0703229e-04   8.9043104e-05  -1.0748809e-04  -4.3573239e-04  -3.0386043e-04   5.4755988e-06   4.2573643e-05   1.3132441e-04   8.3722401e-04   2.8409419e-04   4.3234762e-04   1.6532140e-04  -2.4520559e-04  -4.0378794e-04  -6.2924999e-05   5.4862240e-04   1.6462222e-04  -1.1409696e-04  -1.0880209e-04   4.6404303e-04   6.7844178e-04  -2.2388181e-04  -2.3601414e-04  -2.2198037e-04  -4.0398969e-04  -4.5796210e-04   9.0213995e-03  -9.5712465e-05   5.9688708e-04  -2.1160668e-04  -7.2644517e-04  -1.7558440e-03   1.5408979e-04   8.1266958e-04  -1.6919269e-04   9.0219786e-05  -1.2004614e-04
   5.1446457e-04   4.7983316e-04   5.2069215e-04   2.5635739e-04   5.4894440e-04   4.2604964e-04   4.5017531e-04   1.3287212e-03   7.3262834e-04   1.3553216e-03   1.7865237e-03   1.1153107e-03   8.4984873e-04   6.9834478e-04   7.1214332e-04   2.6495027e-04  -4.4524504e-04  -2.9393265e-04   8.6026976e-04   1.9509494e-04   2.9248153e-04   1.0739048e-03   6.2690838e-04   8.1847352e-04   6.2712160e-04  -3.1699394e-04   5.8248843e-04   4.1842138e-04  -1.1616725e-03   4.6454661e-04  -2.2585029e-04  -2.4161145e-05   7.5961254e-04   1.4158548e-03   4.6980702e-05   5.6333328e-04   1.1168911e-05  -3.8752440e-04   3.8139970e-04   5.7288576e-03   4.4045044e-04   1.0088548e-03   2.7225446e-04   7.3540113e-03   1.8094475e-03   6.4869958e-04   1.6456231e-03   6.5997767e-04   9.3995681e-04   9.0215122e-04
   8.6467236e-04   8.2513987e-04   7.3087076e-04   4.9163558e-04   7.2741311e-04   6.9008459e-04   5.4400630e-04   1.5851394e-04   8.4184029e-04   1.3585460e-03   1.9445199e-03   1.1480788e-03   1.2895423e-03   1.3548776e-03   7.8761618e-04   6.5441779e-04  -4.0139444e-04  -2.9386010e-04   9.1069698e-04   2.6771633e-04   3.0389644e-04   1.0854079e-03   6.3051563e-04   7.8575092e-04   3.4576238e-04  -2.5993824e-04   7.8865461e-04  -5.3451967e-04  -7.4863090e-04   5.2951177e-04   9.8608565e-05   1.2743208e-04   4.3890614e-04   1.0113182e-03   2.7139514e-04   7.7601336e-04   3.6187985e-04  -3.5902482e-04  -1.5999028e-04   5.6430446e-03   1.8297939e-04   1.0274313e-03  -1.4121912e-04  -7.9204403e-03  -2.9139749e-03   2.2580317e-04   1.1096250e-03   3.3443779e-04   1.0232539e-03   6.2952260e-04
   7.0833252e-04   6.8750244e-04   5.0425925e-04   3.0196138e-04   5.6556828e-04   3.5701244e-04   3.9267374e-04   7.8446354e-04   7.3605269e-04   9.1026508e-04   1.5999391e-03   8.0551801e-04   6.8456162e-04   1.0061198e-03   1.4751202e-04   3.2922169e-04  -3.9416412e-04  -4.3109240e-04   1.3019600e-04   8.5551103e-05   1.6138115e-04   9.1413263e-04   4.0591313e-04   5.4840522e-04   4.3481606e-04  -2.6438426e-04   1.2883787e-04   2.3992377e-04   3.9039348e-04   3.1273326e-04   1.6295392e-04  -1.1152611e-03   5.7094451e-04   8.6083933e-04  -5.9165799e-05   8.4714120e-05  -8.4102758e-05  -4.4618922e-04  -3.9491840e-04   6.6425633e-03   1.3506625e-04   6.5748871e-04  -1.6559839e-04   4.6667387e-03  -4.0599038e-03   1.0399200e-03   8.6475495e-04   1.8955299e-04   2.3610167e-04  -9.8786230e-05
   5.0581846e-04   4.8370461e-04   4.0444164e-04   1.7767982e-04   5.3949084e-04   4.1087932e-04   4.8720423e-04   3.6455077e-04   7.7328761e-04   1.3276947e-03   1.7970258e-03   1.1164846e-03   1.1201452e-03   8.4339600e-04  -4.1118128e-05   7.2305987e-04  -5.3985522e-04  -4.1624749e-04   7.8520105e-05   2.1088912e-04   2.8885543e-04   1.0950677e-03   7.2853937e-04   8.2501420e-04   5.6029876e-05  -4.1311534e-04   1.1268000e-03   4.6146323e-04   1.7583267e-03   5.0488656e-04   1.5710399e-04  -4.4306321e-04   6.3839980e-04   1.0573870e-03  -1.8518015e-04   4.9915398e-04   6.3906464e-04  -3.5565608e-04   5.0368183e-04   2.8149460e-03   5.6090840e-04   1.1340330e-03  -5.1840348e-06  -3.0431611e-04   1.8725987e-03  -3.0670371e-03   1.9676953e-03   4.3068925e-04   1.0870369e-03   1.0941470e-03
   9.7913260e-04   9.2469383e-04   8.0508227e-04   5.8188429e-04   8.2358083e-04   7.6345442e-04   7.4100291e-04   8.8669936e-04   9.5818756e-04   1.4817915e-03   2.0920422e-03   1.2900335e-03   1.3047089e-03   1.0543714e-03   3.8439105e-04   3.9193791e-04  -4.2403856e-04  -4.7875062e-04   7.0654857e-04   3.1641568e-04   3.1992092e-04   1.1552115e-03   7.4899098e-04   8.0402178e-04   6.5703248e-04  -3.3662983e-04   2.5376683e-04   3.7393870e-04  -1.0015185e-03   6.5487274e-04   3.9441441e-04  -5.3126103e-04   4.9181649e-04   1.1635855e-03   1.7095536e-04   9.4004133e-04  -2.8179731e-04  -3.1737890e-04   1.0861562e-03   1.3417704e-03   5.7811805e-05   1.1161375e-03  -1.7670798e-04  -9.7575495e-03  -3.6272759e-04  -1.1793904e-03   1.5040083e-03   6.1581942e-04   1.1649583e-03   8.1988866e-04
   8.5622136e-04   8.0250058e-04   6.1921746e-04   4.2319516e-04   7.0056692e-04   6.7086465e-04   4.2985866e-04   7.7873695e-04   1.1316205e-03   1.0786562e-03   1.8191574e-03   9.4651798e-04   1.1704140e-03   1.0823071e-03   2.8208633e-05   5.6757394e-04  -4.1876361e-04  -2.6845254e-04  -1.9879606e-05   1.6547668e-04   1.8007091e-04   9.9108892e-04   5.2299432e-04   5.4321234e-04   5.7443808e-04  -2.7346043e-04  -8.3013227e-05  -2.1751279e-04   2.7113573e-03   4.1813366e-04  -1.1051223e-04  -2.4828309e-04   2.7263930e-04   1.2463096e-03  -2.3404794e-04   6.8525097e-04   5.9489574e-04  -3.4878019e-04   5.7170168e-05  -2.2795841e-03   4.8782098e-05   7.4678467e-04  -2.1230981e-04  -2.3610478e-03  -1.7651090e-03   8.4296381e-04   1.0804459e-03  -4.6867539e-05   7.0517580e-04   2.7840020e-04
   6.1627920e-04   5.5581890e-04   3.4665116e-04   1.1857392e-04   4.3092007e-04   2.9384787e-04   3.3937511e-04   5.5913243e-04   7.7537919e-04   5.8569637e-04   1.3961523e-03   5.5168162e-04   5.7059916e-04   4.5678532e-04  -2.9215313e-04   3.2252056e-04  -4.0536231e-04  -3.6769258e-04   6.7377731e-04   9.5913645e-05   1.4642290e-04   8.1924780e-04   4.1742716e-04   5.9749215e-04   1.8111954e-04  -2.5558888e-04   7.9279789e-04   2.7094292e-04  -2.6898462e-04   4.0956936e-04   2.4698311e-04  -6.3077465e-04   5.9207866e-04   1.7198249e-03   1.1906197e-04   9.6890231e-04   9.8535575e-06  -3.0478727e-04   9.8425895e-04  -1.0563117e-02   1.3956820e-04   9.6827379e-04   7.0841248e-05   1.9176163e-03   4.4453824e-03   2.0673228e-03   1.7179687e-03   8.2246773e-04   1.0457017e-03   7.3739386e-04
   1.0469455e-03   9.2314079e-04   8.9505169e-04   5.9850019e-04   8.3967944e-04   7.6606806e-04   9.9531491e-04   1.6706881e-04   1.0806425e-03   1.4302372e-03   2.1028947e-03   1.2733153e-03   1.3196524e-03   9.9330570e-04   3.9214917e-04   4.5868705e-04  -2.7174357e-04  -1.1443749e-04   4.7753766e-04   2.7153461e-04   2.5702201e-04   1.0158236e-03   8.0592523e-04   7.8539125e-04   6.2649243e-04  -1.0829642e-04   4.0371154e-04   1.7190677e-04   1.6142812e-03   6.1950338e-04   2.0960379e-04  -7.5558439e-04   7.6031184e-04   1.0012997e-03  -7.1186922e-05   4.2335081e-04   6.7415484e-04  -3.3762478e-04   1.1462520e-03   2.4062745e-02   5.5943319e-04   8.8997552e-04  -9.5362462e-05   5.1020971e-03   3.4272406e-04  -9.6864509e-04   1.3815281e-03   7.3724845e-04   1.2294202e-03   8.4593543e-04
   9.4556046e-04   8.4508030e-04   7.6712831e-04   4.5150518e-04   7.2532409e-04   5.5443082e-04   6.2737777e-04   6.1949721e-04   7.8275619e-04   1.0455326e-03   1.8705901e-03   9.9771330e-04   8.3353871e-04   6.7955971e-04  -3.4210505e-05   3.0003247e-04  -2.7002266e-04  -4.2489968e-04   8.0746651e-04   1.4400414e-04   1.5667276e-04   9.2299120e-04   5.6789949e-04   4.9313746e-04   3.2685685e-04  -1.9707403e-04   4.2581453e-04  -2.7715819e-04   1.9754548e-04   4.0841915e-04  -1.5706746e-05  -1.7944047e-04   5.2120700e-04   1.0893836e-03  -1.9155292e-05   8.7871362e-04   3.0602049e-04  -3.7880157e-04   6.8880559e-05   9.9704154e-03  -1.5167460e-04   7.0828485e-04   4.6931629e-05  -2.0156775e-03   4.8692524e-03   4.7088652e-03   9.4109942e-04   3.3310635e-04   3.8675137e-04   4.5931761e-04
   6.9175760e-04   5.7955808e-04   4.7413036e-04   1.5467794e-04   4.9011444e-04   3.0645830e-04   3.2211517e-04   1.7905366e-04   5.5612373e-04   5.5465096e-04   1.4471740e-03   5.6446833e-04   3.5173210e-04   2.0493523e-04  -6.7810650e-04   3.6164082e-04  -3.6893063e-04  -2.0702169e-04   3.5329105e-04  -2.9522385e-05   3.4578636e-06   7.0886436e-04   2.7595618e-04   2.8344849e-04  -2.3727953e-04  -2.7787033e-04  -8.9673224e-05  -2.6679353e-04  -4.6648478e-04   1.3351458e-04  -2.0700048e-04  -6.2407547e-04   5.2432233e-04   1.0553545e-03  -2.6007119e-04   5.7382755e-07   1.4877017e-04  -4.2949140e-04   3.6615928e-04   4.1815853e-03  -5.3938140e-05   5.3015421e-04  -2.5162450e-04  -3.6359848e-03  -4.0946456e-04  -4.7472431e-03   1.3593268e-03   4.0174811e-04   7.8175683e-04   8.7884086e-04
   8.6595537e-04   7.1679812e-04   7.8710006e-04   4.0593618e-04   7.2037714e-04   4.8602870e-04   4.6159708e-04   8.5989566e-04   9.0231863e-04   1.2739782e-03   1.8924824e-03   1.1618873e-03   8.6722366e-04   9.7302481e-04  -4.1316458e-04   5.4439518e-04  -3.7144727e-04  -2.8325873e-04  -2.1998345e-05   1.9186012e-04   1.6751364e-04   9.3124533e-04   4.3792595e-04   6.1568868e-04   4.8694338e-04  -2.9321111e-04  -4.5902703e-05   7.5885368e-04   1.3529228e-03   4.4621012e-04   5.3871183e-05  -4.1928791e-04   5.4403214e-04   1.0654188e-03   1.2460395e-04   1.1597228e-04   2.3258192e-04  -4.3923530e-04   3.1156259e-04  -9.9682361e-03   1.4356976e-04   7.4269850e-04   1.1273028e-04   7.2359159e-03   6.4451233e-03  -8.9147000e-04   1.3192777e-03   5.0427997e-04   1.0423472e-03   9.9777826e-04
   9.0547232e-04   7.5451640e-04   8.1183255e-04   4.1739628e-04   7.1011338e-04   4.7104154e-04   4.7445853e-04   7.1485667e-04   1.1198684e-03   1.0744120e-03   1.8380109e-03   9.9760701e-04   9.9780865e-04   6.0435507e-04   6.0422398e-04   4.1207214e-04  -4.0477538e-04  -2.4685066e-04   5.8585673e-04   1.1342637e-04   1.0464983e-04   8.6757977e-04   4.4366217e-04   5.2538340e-04  -7.4231415e-05  -4.1758394e-04   4.3995009e-04   4.1245500e-04   4.0970862e-04   3.0629989e-04  -2.6290017e-04  -1.3127015e-04   4.3251910e-04   1.3888499e-03   5.2576692e-05   5.3976156e-04  -2.3962650e-04  -3.4669158e-04   8.3565031e-04  -6.9300169e-03  -3.7878222e-04   6.4381474e-04  -1.7639840e-04  -4.6744710e-03   1.7329040e-03   2.9085944e-03   8.0199359e-04   2.4092746e-04   3.7557667e-04   5.2684895e-04
   6.6304835e-04   5.1433902e-04   5.2371225e-04   1.2412948e-04   4.8407170e-04   1.5090669e-04   2.3075069e-04   4.1717995e-04   4.5224716e-04   5.5644970e-04   1.4294704e-03   5.4951443e-04   3.8544665e-04   2.5107301e-04  -1.4736036e-04  -3.2834776e-04  -4.6568419e-04  -1.9146355e-04  -6.8161033e-05  -1.1116253e-04  -4.7176964e-05   6.3861418e-04   1.6667266e-04   1.8866554e-04  -4.4749025e-04  -3.1646117e-04  -3.4765725e-04   1.0768887e-04  -1.3370920e-03   1.2161442e-05  -3.2862980e-04  -6.9074484e-04   1.8105903e-04   1.2962524e-03  -1.6981972e-04  -1.2345072e-04  -6.0661212e-05  -4.9993204e-04   7.6222917e-05   2.5725348e-03  -3.5339053e-04   2.7603388e-04  -5.3097052e-04   5.0888259e-05  -3.2908071e-03  -2.1000558e-03   3.7514218e-04  -1.6256604e-04   6.7339808e-04  -5.9692808e-05
   5.3886883e-04   3.6362096e-04   6.0141768e-04   1.6958172e-04   5.2773202e-04   2.4677845e-04   2.9077139e-04   1.5145319e-04   6.6340272e-04   1.0963603e-03   1.7078446e-03   9.9013746e-04   5.9800409e-04   4.6970212e-04  -1.2181084e-04  -2.3026763e-04  -5.0845445e-04  -3.9004177e-04   1.2548325e-04   4.4453541e-06   5.7991674e-05   7.6190161e-04   3.9557368e-04   4.2832509e-04   5.4044544e-05  -3.4197458e-04   3.5824263e-04   1.0300764e-05   2.0269901e-04   2.0502228e-04  -9.3972696e-05  -3.3403432e-04   6.7547295e-04   1.6136058e-03  -1.0711767e-04   2.9163016e-04  -3.0624691e-05  -3.5931473e-04   9.9002291e-04   2.0815195e-03  -1.6181375e-04   7.8154553e-04  -5.3472755e-05   2.9215589e-05  -7.4080090e-05  -1.1028915e-04   1.2962723e-03   1.8556601e-04   8.9406059e-04   5.7664287e-04
   8.3341938e-04   6.4547104e-04   8.2312129e-04   3.5630673e-04   6.6527247e-04   4.0437529e-04   6.0914672e-04   2.1084158e-04   8.7467040e-04   9.9743053e-04   1.7423530e-03   9.4539707e-04   6.5868656e-04   3.2974186e-04   2.4276003e-04  -1.4394308e-04  -4.6684477e-04  -3.5261057e-04   4.6514929e-04   8.0827767e-06   4.9908034e-05   7.5708330e-04   4.9767067e-04   3.8473593e-04  -2.7889147e-04  -3.4620723e-04   8.4285653e-05  -7.4754033e-05  -1.3977697e-03   2.1267676e-04   9.9157609e-05  -4.1664232e-04   4.7165851e-04   1.4184072e-03  -2.2593902e-04  -1.7078541e-04   1.1452986e-05  -4.4020987e-04   6.2234851e-04  -2.9121952e-03   7.6530756e-05   5.1728304e-04  -4.4909425e-04   5.8495123e-03  -4.9048085e-03  -4.5040078e-03   8.0801803e-04   1.2318786e-04   4.3881184e-04   5.0860271e-04
   6.2280730e-04   4.4898925e-04   5.7028717e-04   1.2838838e-04   4.5207056e-04   4.8551625e-05   4.2429840e-04  -1.2404134e-04   5.6229695e-04   5.1221263e-04   1.3616798e-03   5.2850938e-04   1.9771846e-04  -2.2686187e-05  -5.8720954e-04   2.4450867e-04  -5.1463832e-04  -2.1821429e-04   3.6475199e-04  -1.7140240e-04  -7.4751915e-05   6.0166814e-04   1.1473254e-04   2.2973561e-04  -6.2649581e-04  -3.9668707e-04   2.5602872e-04  -5.0553354e-04  -5.4209955e-05  -5.5898236e-05  -1.7007388e-04  -6.2216452e-04   2.9023841e-04   1.3091314e-03  -4.9252558e-04   1.3545642e-04  -2.4222413e-06  -4.8732091e-04  -3.2542000e-04   4.7851470e-03  -5.0587743e-04   2.4948330e-04  -5.0277740e-04  -2.3736013e-03  -1.1533790e-03  -8.5110852e-04   1.2946755e-04  -1.6634437e-04   4.8822546e-04   1.0479911e-04
   2.9810754e-04   1.7192084e-04   2.9787081e-04  -1.0898028e-04   2.7677056e-04  -8.9105015e-05  -1.2464686e-04  -2.1636322e-04   3.7305086e-04   7.0085720e-04   1.3195097e-03   6.5497810e-04  -2.4536754e-05   1.8689481e-05  -3.7705450e-04   1.5908646e-04  -6.1481044e-04  -3.0568847e-04   2.3500089e-04  -1.2162564e-04   3.9480524e-06   6.6673540e-04   3.5977107e-04   3.9390390e-04   4.0741125e-04  -4.0560809e-04   6.2782819e-05  -4.3067941e-04  -8.7504112e-04   7.8830795e-05  -3.2809266e-04  -4.7290101e-04   3.0544208e-04   9.7299984e-04  -2.6628317e-04  -8.5113046e-05  -6.4928790e-05  -3.8978475e-04   4.3539988e-04  -1.1753307e-02  -2.3289972e-04   5.9082982e-04   3.1278640e-05   9.0730386e-03   2.8419777e-04  -3.1601950e-03   1.1360140e-03   4.5410963e-04   8.0053986e-04   4.5396571e-04
   7.8153581e-04   5.8443646e-04   8.1077637e-04   3.4657048e-04   6.2149641e-04   2.5175340e-04   4.3109659e-04   5.5606343e-04   5.3366728e-04   9.5815584e-04   1.6573367e-03   8.9556671e-04   6.2668946e-04  -4.3658150e-05  -8.3329287e-06  -2.6771650e-04  -5.3407118e-04  -4.0775258e-04  -5.1411655e-04  -3.1561303e-05   5.7793615e-05   7.1719463e-04   4.7929140e-04   3.8766622e-04  -6.3574276e-05  -3.3397620e-04  -3.1033525e-04   3.9139323e-04   1.6120218e-03   9.1151225e-05  -3.8947570e-04  -5.0234556e-04   2.0895805e-04   1.0053242e-03  -2.9201398e-04   4.0242515e-04  -8.5325236e-04  -4.2718198e-04  -5.6463479e-05  -3.8237139e-03  -5.7392486e-04   4.5914191e-04  -1.0862246e-04  -3.2071511e-03  -2.0577102e-03  -2.3191066e-04   7.9356827e-04  -1.2206188e-04   5.3646287e-04   2.1664484e-04
   6.2485214e-04   4.1747504e-04   6.0655654e-04   1.6043197e-04   4.4368277e-04   1.2985787e-04   3.2803089e-06  -5.9552312e-06   4.6298915e-04   5.2129012e-04   1.3338907e-03   5.3384638e-04   2.1137674e-04  -2.1626080e-04  -3.9226137e-04   4.3066611e-04  -5.7156786e-04  -4.9343711e-04   1.2743557e-04  -1.8358714e-04  -6.3908388e-05   5.0153420e-04   1.3819250e-04   2.5094557e-04  -4.5631154e-04  -3.3821835e-04   3.1401022e-04  -3.9667726e-04  -1.9522522e-03  -1.6314554e-04  -3.8497275e-04  -6.0104456e-04   6.8844383e-05   1.4273319e-03  -4.6499161e-04   7.3358190e-04  -7.0420108e-05  -4.1757739e-04  -1.1051038e-04  -1.2162138e-03  -4.7446712e-04   1.9862453e-04  -4.7905167e-04   4.8004303e-04   3.4830442e-03  -1.4602036e-03   9.6965625e-05  -3.6433467e-04   3.5752702e-04  -2.1611582e-04
   2.8031741e-04   1.2600515e-04   2.2075672e-04  -1.8014816e-04   1.3084387e-04  -2.3821597e-04   5.3043850e-06   1.2425464e-04  -2.9115774e-05  -3.9345468e-05   8.7070424e-04   9.6346821e-06  -5.0335377e-04  -4.0936327e-04  -2.4682676e-04  -5.6175940e-04  -6.3939387e-04  -3.8318257e-04  -1.5290467e-04  -3.6036415e-04  -1.7343680e-04   3.8796436e-04   8.0903963e-05   5.3794396e-05  -5.6810823e-04  -3.4519500e-04  -4.5429243e-04  -8.8479166e-04   6.2154914e-04  -2.9740643e-04  -7.8980945e-04  -8.3769584e-04  -2.2991413e-04   1.0490498e-03  -5.1619729e-04  -9.9168799e-05  -2.5893343e-04  -5.3137651e-04  -3.6451366e-04  -5.7609905e-03  -4.6617599e-04   4.1414337e-04  -3.7916921e-04   3.4312862e-03  -1.5173660e-03   8.6928345e-04   8.0804847e-04   1.5032818e-04   2.1201068e-04   6.1605388e-04
   6.7084405e-04   4.5944424e-04   7.5123308e-04   3.0937145e-04   5.5195973e-04   2.3864281e-04   6.5426918e-04   3.3706496e-04   5.9970428e-04   9.6345972e-04   1.5497517e-03   8.8794483e-04   5.5578747e-04   8.3803076e-05  -2.0140041e-04   2.2476533e-04  -5.4559216e-04  -4.3945824e-04   3.6742480e-04  -9.1524395e-05   3.5570072e-05   6.2729133e-04   3.5249311e-04   4.3441620e-04  -1.9604369e-04  -2.9690762e-04  -1.6582497e-04   7.4924178e-06  -8.6537516e-04   1.4338994e-05  -3.4035786e-04  -3.9146587e-04   3.1930552e-04   1.1199475e-03  -2.1771864e-04   1.7983682e-04  -8.2329832e-05  -4.0162422e-04   4.5654670e-04   3.7910994e-03  -4.2945956e-04   5.3267862e-04  -3.4311105e-04  -2.6980885e-03  -2.4191546e-03   9.9532795e-04   6.1854237e-04   1.3399980e-04   2.6301920e-04   4.0696285e-04
   5.9936981e-04   4.0782060e-04   6.0456386e-04   2.1921757e-04   4.2527795e-04   8.2572071e-05   2.5401832e-04   3.2143330e-06   4.9296167e-04   6.1926671e-04   1.3329274e-03   5.8297301e-04   4.9427117e-04  -1.2201685e-04   1.6876846e-04  -7.9355628e-04  -5.3265569e-04  -3.1784497e-04  -1.5579270e-04  -1.6439526e-04  -3.7539205e-05   5.7651213e-04   2.0841196e-04   2.0195098e-04  -5.0341821e-04  -2.6144151e-04   2.6450446e-04  -3.0677480e-04  -4.8313558e-04  -1.1942360e-04  -6.9905014e-04  -1.0191837e-03   1.0800299e-04   1.8652068e-03  -4.5224131e-04   1.8642950e-04  -2.2027911e-04  -4.1745914e-04  -1.8524552e-04  -1.1870555e-02  -9.1850292e-05   2.3839105e-04  -5.3964090e-04  -3.3401472e-03   1.3143186e-03  -2.4917079e-03   4.6616904e-05  -2.2874991e-04   5.2766420e-04  -5.3242602e-05
   3.0451143e-04   1.4288486e-04   2.4390477e-04  -1.2644409e-04   1.3368079e-04  -1.7364930e-04   4.3587975e-06   5.0442986e-06   4.1634237e-04   5.8219724e-05   9.1638585e-04   9.4269679e-05  -1.2732284e-04  -2.7803262e-04  -1.0892630e-03  -8.4837811e-04  -6.0672889e-04  -5.2088115e-04  -3.3559115e-04  -3.9048557e-04  -1.7909896e-04   3.3894292e-04   3.9340964e-08   5.2480991e-06   1.1725950e-05  -4.1791945e-04   2.9939218e-04  -8.3959894e-04  -4.9656373e-04  -3.9782826e-04  -8.7406079e-04  -5.2056112e-04   8.3860243e-05   1.0744070e-03  -5.4509949e-04  -1.0929585e-03  -3.3184342e-04  -5.2362715e-04   1.8801864e-05   7.9925271e-04  -4.1065464e-04   1.7021413e-04  -4.2670511e-04  -6.6305529e-03   4.3542222e-03  -1.4319242e-03   7.1970071e-04  -2.2121434e-04  -6.5815992e-05   1.6686285e-04
   5.1133608e-04   3.2998077e-04   5.8284058e-04   2.0432359e-04   4.2240683e-04   1.0195170e-04   2.5724416e-04   5.9450569e-04   6.7865616e-04   8.7981246e-04   1.4679894e-03   8.1785413e-04   4.8216264e-04   5.2582065e-05  -1.6770579e-04  -4.8879610e-04  -5.5385905e-04  -4.1883619e-04   4.1238894e-04  -1.8161237e-04   3.2815879e-05   5.7632267e-04   3.4776214e-04   3.7156904e-04  -7.6119982e-06  -3.4858074e-04  -4.4292858e-04  -7.3700456e-04   5.0648832e-04   1.2081234e-05  -6.9990754e-05   2.8402354e-05   1.6114397e-04   1.7866037e-03  -3.8963740e-04  -7.8737801e-05   2.9550487e-04  -4.6201903e-04  -9.6374883e-05  -1.8394295e-02  -3.2174055e-04   3.9702855e-04  -4.3818657e-04  -8.0946954e-03  -1.3799652e-03   2.0263509e-03   6.6329510e-04  -1.3973705e-04   3.7541357e-04   2.3031677e-04
   5.3600146e-04   3.8940864e-04   5.6953006e-04   2.2608317e-04   4.0288479e-04   1.2058663e-04   1.9958644e-04   1.5337826e-04   4.9912953e-04   6.8029761e-04   1.3746426e-03   6.5063691e-04   3.6421177e-04  -2.3369143e-04  -8.1521801e-05  -2.2625411e-04  -5.3119060e-04  -4.8167110e-04   9.6491494e-05  -1.6781910e-04  -8.1542685e-06   6.2332704e-04   2.0061249e-04   2.8257162e-04  -4.5634955e-05  -2.9751309e-04  -2.7479205e-04  -5.4064859e-04  -5.7174545e-04  -8.1793005e-05  -4.1580599e-04  -6.5733085e-04   2.7030939e-04   1.4081745e-03  -2.6286556e-04   2.9260313e-04  -2.8418481e-05  -5.0081115e-04  -7.9105422e-04   1.5910809e-03  -1.7572798e-04   2.2121971e-04  -5.7619467e-04   1.3563247e-02  -8.3946958e-03   1.1224429e-03   1.7492702e-04  -2.7685671e-04  -2.3242308e-05   5.3146203e-05
   2.8446439e-04   1.7823314e-04   2.3605027e-04  -7.3364812e-05   1.6036772e-04  -2.5825444e-04  -5.0762890e-05  -1.6638917e-04   1.6478756e-04   1.1661155e-04   9.9425961e-04   1.7947011e-04  -7.0296114e-06  -8.8095308e-05   1.9320699e-04  -5.3590606e-04  -5.2189280e-04  -2.8169365e-04  -3.2577012e-04  -3.2663814e-04  -1.5557121e-04   3.9660622e-04  -2.9446192e-06   2.7005080e-06  -6.3991733e-04  -3.0800898e-04  -6.8530417e-04  -5.6131353e-04   4.9403799e-04  -2.8660410e-04  -6.7525594e-05  -2.6081625e-04   2.2683556e-05   1.4900467e-03  -2.9318524e-04  -1.1532376e-04  -3.9596009e-04  -5.1678607e-04   1.6032549e-04   1.1113986e-02  -6.3775555e-04  -5.1648509e-05  -8.0908777e-04   2.7919179e-04  -1.0987726e-04  -1.8084622e-03  -3.4743152e-04  -8.0957793e-04   2.1853184e-04  -1.0840242e-04
   2.2599744e-04   9.7683194e-05   3.6388770e-04   2.8985733e-05   2.5773127e-04  -3.8762068e-05   3.5481225e-04  -6.5030072e-05   2.6528130e-04   7.1407924e-04   1.3243322e-03   6.9023506e-04   4.3036506e-04   1.0799002e-04  -1.5789621e-05   4.6387242e-04  -5.2173674e-04  -1.9827380e-04   2.7353605e-04  -1.8537947e-04  -1.5701382e-05   5.4257992e-04   1.9243300e-04   3.4050999e-04   2.7011201e-05  -2.9458257e-04  -3.3943375e-05  -2.3230702e-04  -3.0461053e-04  -5.5748355e-06   7.8814621e-05  -7.9549133e-04   1.6941271e-04   1.3399320e-03  -2.7829502e-04  -4.3915803e-04   2.1011035e-04  -4.9113727e-04   1.4740856e-04   4.1574207e-03  -6.2684740e-05   3.6078473e-04  -8.6871813e-05  -4.3898043e-03  -3.8987799e-03   3.5562888e-03   5.9891108e-04  -6.7597488e-05  -8.1953047e-05   2.5240306e-04
   4.7271306e-04   3.7202705e-04   4.9004325e-04   1.7950378e-04   3.5346672e-04   2.0957850e-05   3.4678227e-04   8.8646819e-05   5.3801842e-04   6.2985934e-04   1.3287874e-03   6.2450895e-04   4.0565472e-04   7.0368478e-05  -3.8503567e-04   1.4796089e-04  -4.5043335e-04  -3.0710615e-04  -1.8722321e-04  -1.7957565e-04  -2.6392774e-05   5.9739838e-04   1.9396549e-04   2.7066891e-04  -3.2789545e-04  -2.5183419e-04  -8.7614673e-05   5.2268460e-04   1.2295977e-03  -2.2215972e-05  -7.1829668e-04  -1.1055904e-03   6.0372644e-05   1.1718874e-03  -3.0470119e-04   1.7597007e-04  -1.3841891e-04  -4.9385708e-04   1.5518263e-04  -2.5150139e-04  -4.8090536e-05   2.6345317e-04  -3.5397580e-04   1.1636008e-03  -1.0778379e-03   1.1373484e-03   1.2905337e-04   4.9311875e-05  -6.9801572e-05  -1.0495279e-04
   2.8887755e-04   2.2917865e-04   2.4239520e-04  -4.8295631e-05   1.6927153e-04  -2.2726922e-04   1.7871289e-04  -1.7514471e-04   2.4268446e-04   1.4434353e-04   1.0242105e-03   2.1090910e-04   1.8224356e-04  -1.9604991e-04  -6.4607663e-04  -4.9435266e-04  -4.9786340e-04  -4.0934022e-04  -1.4383008e-04  -2.6851968e-04  -1.5249802e-04   4.4357768e-04   6.0195445e-05   6.6797882e-05   3.2006086e-05  -3.0877194e-04  -3.5968106e-04  -1.4307945e-04   4.3665816e-04  -2.5108943e-04  -3.6021817e-04  -6.1555271e-04  -1.0052479e-04   5.3695228e-04  -5.9257029e-04   7.4767151e-05  -7.2329422e-04  -4.5984384e-04  -2.8078377e-04   2.8379820e-03  -5.2947894e-04  -5.8846614e-05  -8.1524003e-04   4.0437547e-03  -3.0672359e-03  -5.4258024e-03  -3.0372269e-04  -2.1479932e-04  -4.3926711e-04  -5.8622111e-04
   2.4992705e-04   1.5488040e-04   3.7489209e-04   4.8970385e-05   2.9520656e-04  -6.0858216e-05   1.0520583e-04  -7.8050107e-05   5.5293081e-04   7.6801400e-04   1.3376145e-03   7.3552685e-04   3.7940708e-04   9.4011892e-05  -2.2636980e-04  -2.8611810e-04  -5.4818991e-04  -3.2902067e-04  -2.7930996e-04  -1.6275301e-04  -3.5756955e-07   6.6389749e-04   4.3558131e-04   3.9091034e-04   1.4580096e-04  -3.0566618e-04   1.0454210e-04  -1.0312534e-05  -1.5270500e-04   7.9234087e-05  -3.1001406e-04  -3.2248022e-04   3.7788646e-04   1.1495206e-03  -1.0128043e-04   4.3863949e-04  -1.2443004e-05  -4.7935318e-04   2.7451830e-04   6.6481056e-03  -1.2385378e-04   4.6058901e-04  -2.7290269e-04  -9.7943274e-03  -1.4791433e-03   1.3269879e-03   5.0667755e-04   4.0257350e-04   9.2161376e-05   2.6837797e-04
   5.5753806e-04   4.5113463e-04   5.5306667e-04   2.4539896e-04   4.4081704e-04   1.0407680e-04   4.9142621e-04   1.8881395e-04   7.9465017e-04   7.3396065e-04   1.4271284e-03   7.1896910e-04   8.1806746e-04   2.5606970e-04   1.8056645e-04  -1.0653950e-04  -4.7080629e-04  -3.5954698e-04   4.7905170e-04  -5.7954356e-05  -5.9423837e-07   6.4493908e-04   3.3690213e-04   3.2397651e-04  -7.3940908e-05  -2.5720394e-04  -1.6449403e-04  -1.8440367e-04  -2.1095648e-04   8.4598243e-05  -5.6426553e-04  -5.2821921e-04   3.8217715e-04   1.1232496e-03  -1.8410987e-04   4.4301295e-04   2.1652025e-04  -4.4694429e-04   5.4827030e-04   1.3257242e-03  -1.4379687e-04   3.2827002e-04  -1.8574871e-04   3.0299537e-03  -1.0167360e-03  -2.1310993e-03   3.1864908e-04   1.7951537e-04   5.0983438e-04   1.0868754e-04
   4.0336777e-04   3.2163027e-04   3.2841801e-04   3.4006713e-05   2.6643276e-04  -3.6263940e-05   1.4188628e-04  -4.8043665e-05   2.3879985e-04   2.5492808e-04   1.1313111e-03   3.3566100e-04   4.5406073e-04   1.1337119e-04   1.8636840e-04   2.3784016e-04  -4.7931549e-04  -2.4346793e-04  -1.3871021e-04  -2.1166801e-04  -1.2826434e-04   4.6235556e-04   2.0724096e-04   8.4214880e-05  -4.9604208e-04  -3.3892214e-04  -1.2318531e-04  -6.4870791e-04  -4.6233111e-04  -1.3729763e-04  -5.1393668e-04  -4.1371866e-04   9.3094568e-05   1.0252091e-03  -4.6190995e-04   1.8777598e-04  -3.3975646e-04  -4.9045304e-04  -2.3262637e-05  -8.0573671e-03  -5.2188215e-04   1.0427775e-04  -1.8317683e-04  -1.4391903e-02   2.6511513e-03  -7.9170248e-04   2.4868635e-04   1.7130004e-04   4.6006803e-06  -9.6150769e-05
   5.0005491e-04   3.5379571e-04   5.7285343e-04   2.2828818e-04   4.5908557e-04   1.7107873e-04   1.8296106e-04   4.1564208e-04   5.5563840e-04   9.4450545e-04   1.5162118e-03   8.7779708e-04   8.7388151e-04   4.7833429e-04   3.4422752e-05   5.0428056e-04  -4.8356724e-04  -2.4263586e-04  -6.2390252e-05  -1.7208156e-05   4.6934038e-05   7.1413751e-04   3.1089826e-04   4.7963558e-04   8.2643077e-05  -2.8213297e-04   4.0412307e-04   1.4100936e-05  -2.4986017e-04   2.2186876e-04   4.3631353e-05  -4.9419166e-04   4.8610583e-04   1.5638479e-03   2.5436553e-04   4.5017741e-04   7.1590615e-04  -3.3318324e-04   8.2098949e-04  -4.3761721e-04   1.9143645e-04   5.8113685e-04  -9.9336117e-05   4.1697901e-03  -4.4953479e-03   4.9004075e-03   9.0153137e-04   3.3912537e-04   1.5039476e-04   4.5277606e-04
   7.3504203e-04   5.7043764e-04   6.9684628e-04   3.7469444e-04   5.6992704e-04   2.7799312e-04   5.7500304e-04   4.2071799e-04   6.5800606e-04   8.8761799e-04   1.5766586e-03   8.5479673e-04   3.8816957e-04   7.5011933e-04  -4.1227504e-05   2.6146648e-04  -4.4281577e-04  -1.9830531e-04   5.8022403e-04   5.8243186e-06   2.2754095e-05   7.4340671e-04   5.2934728e-04   5.0589384e-04   1.7545282e-04  -3.0271197e-04   6.6003784e-05  -5.4480963e-05  -9.2593132e-04   2.1692926e-04  -4.0763346e-04  -7.2412670e-04   5.1142083e-04   1.1734100e-03  -2.2408110e-04   4.8516347e-05   8.5151533e-04  -3.9010262e-04  -1.5786890e-04  -6.7536295e-03  -3.3307224e-04   5.1704410e-04  -3.0745057e-04  -8.7519139e-03   1.0805385e-03  -9.2671585e-04   5.1965908e-04   1.0501456e-04   9.8857345e-06  -2.3804529e-04
   5.6686898e-04   4.0455669e-04   4.5664224e-04   1.3537252e-04   3.6904003e-04   1.1173230e-04   2.7402269e-04   4.6440531e-04   6.1934313e-04   3.9312607e-04   1.2384757e-03   4.4569929e-04   4.5728820e-04  -8.6150787e-05  -7.5759395e-05  -2.3888999e-04  -4.5677274e-04  -2.6922990e-04  -1.7303352e-04  -1.6100502e-04  -1.2058885e-04   5.1661656e-04   1.3981968e-04   1.6896092e-04  -2.4090191e-04  -3.2625321e-04   1.2243149e-04  -3.0249689e-04  -1.2413418e-04   1.9165252e-06  -9.3970484e-05  -4.2241433e-04   5.0494447e-04   1.2153204e-03  -2.7765136e-04   7.4793125e-04   2.5766340e-04  -4.3777219e-04  -1.1559761e-04   1.1056193e-02  -5.0583022e-04   2.4064258e-04  -4.6784230e-04  -4.8835725e-03   2.6490402e-03   4.6403715e-04   3.9589955e-04   2.0324471e-05   2.0807308e-04   7.4392854e-05
   5.9367035e-04   3.8635446e-04   6.3744129e-04   2.6726321e-04   5.1896059e-04   3.4344455e-04   3.8405982e-04   3.6485295e-04   6.7056553e-04   9.8094845e-04   1.5705392e-03   9.4572542e-04   5.5482809e-04   3.7674012e-04   3.3541294e-04   8.0065912e-04  -4.6570887e-04  -4.9323641e-04   7.2735199e-04   3.9961313e-05   4.6221063e-05   7.5767224e-04   4.7508872e-04   5.1395822e-04   1.6553530e-04  -2.5027723e-04   1.1302322e-04   5.3840334e-04  -8.0263003e-04   2.9199224e-04   6.2282968e-05  -4.3894943e-05   6.4759160e-04   1.0194487e-03  -1.0104052e-05   3.4433289e-04   4.4022492e-04  -3.8899324e-04   3.2738988e-06  -8.7009743e-03   8.4312291e-05   6.7359261e-04   9.7678458e-05  -7.6429904e-03   1.1151469e-03  -2.6837649e-04   1.1062381e-03   4.2231704e-04   6.2433636e-04   5.4186175e-04
   8.4086129e-04   6.4872013e-04   8.0020592e-04   4.3644759e-04   6.3635624e-04   3.8840360e-04   5.9614872e-04   1.4170290e-04   6.9888355e-04   9.2037953e-04   1.6761422e-03   9.2503277e-04   8.5581222e-04   8.7814423e-04   3.0541822e-04   2.6350576e-04  -3.8044874e-04  -2.5761055e-04   1.8170601e-04   7.6811768e-05   3.7719914e-05   7.2954019e-04   4.8380671e-04   5.0076999e-04  -1.5395116e-04  -2.3372832e-04  -1.0302664e-04   4.2778242e-04  -2.2979754e-04   3.1513494e-04  -1.8158738e-04  -3.7923176e-04   2.5614077e-04   6.6501385e-04  -9.8869947e-05  -1.5314006e-04  -2.4290416e-04  -4.3110177e-04   6.9909391e-04  -1.2421966e-02   2.2474521e-04   6.0735899e-04   1.3838304e-04  -1.9765557e-03  -5.6381789e-03  -6.5920074e-05   8.3361368e-04   1.0750529e-04   1.7454203e-04   5.7329886e-05
   6.8137725e-04   4.9365358e-04   5.7199685e-04   2.1230198e-04   4.3905538e-04   1.2703014e-04   3.2649591e-04   1.4254375e-04   4.4043388e-04   4.3354739e-04   1.2902949e-03   5.0803885e-04   4.8712335e-04   1.2738614e-04   4.4034925e-05  -1.4800088e-04  -4.0416259e-04  -2.7532605e-04   1.4245864e-04  -1.4930037e-04  -1.1201290e-04   5.3488655e-04   1.4984535e-04   2.2874975e-04  -1.7935151e-04  -2.0868800e-04   1.4079908e-04   1.6812408e-04  -1.6454235e-04   5.5240424e-05  -2.8070042e-04  -4.9356138e-04   2.5770141e-04   1.0669349e-03  -2.1308528e-04   1.5741313e-04  -2.4196197e-04  -3.7185132e-04  -2.8603981e-04   1.7866835e-02  -3.2958211e-04   1.8803542e-04  -3.2698683e-04   8.1465468e-03  -5.3850986e-04   6.8285392e-04   1.2908546e-04  -2.2695513e-04   4.0692449e-04  -2.5106195e-04
   3.6005594e-04   2.3222918e-04   2.3716071e-04  -1.0030926e-04   2.1840724e-04  -7.7436744e-05  -4.0715022e-06   2.8483526e-04   5.5315887e-04   4.0490919e-04   1.1500146e-03   4.7853813e-04   3.3589875e-04   3.7211564e-04  -6.5302855e-04   1.0240347e-05  -4.0820905e-04  -3.1224819e-04   4.3835957e-05  -1.2030060e-04  -4.6028985e-05   6.1515515e-04   3.3066256e-04   3.8658225e-04  -3.0153809e-04  -2.3437200e-04   2.1749406e-04   3.7156057e-04   2.7942203e-03   2.1029440e-04  -4.2840312e-04  -2.8953870e-04   1.4112621e-04   1.1874939e-03  -2.7699280e-04   4.2751990e-04  -3.9951195e-04  -3.7416621e-04   4.1893910e-04  -4.6937284e-03  -3.2592463e-04   5.1944359e-04  -6.0200371e-05   1.3815381e-03  -4.4300007e-03   6.3881436e-03   9.5150596e-04   4.8774880e-04   7.6457468e-04   8.4175903e-04
   8.4978197e-04   6.4336346e-04   8.1045844e-04   4.1954053e-04   6.0355139e-04   2.7274850e-04   4.4869955e-04   5.7190907e-04   6.4726913e-04   8.6177973e-04   1.6427515e-03   8.8910793e-04   8.0918276e-04   7.4199255e-04   2.5010461e-04   3.5944872e-04  -3.2980481e-04  -4.7383088e-05   2.6207787e-04   6.0600905e-06  -5.4962238e-06   6.5118121e-04   5.0136261e-04   3.8593242e-04  -4.6096373e-04  -1.7165281e-04   2.5312486e-04   5.0940731e-04  -8.2604063e-04   3.0530899e-04  -1.6871249e-04   2.3076500e-05   4.9596740e-04   1.4124209e-03  -8.1836137e-05   2.6130618e-04   3.7878344e-04  -3.7043102e-04   6.0356868e-04   1.0088881e-02  -1.4140256e-04   4.5974611e-04   1.5191636e-04   2.5637320e-03   7.5307689e-03   2.6075745e-03   7.3140470e-04   5.2651210e-04   6.6820893e-04   5.2964676e-04
   7.0100668e-04   5.1328057e-04   6.1105215e-04   2.2778066e-04   4.4413362e-04   1.9369520e-04   5.2375754e-04   5.0459674e-04   5.1722809e-04   4.4482423e-04   1.3799252e-03   5.4432428e-04   5.0276553e-04   2.3200363e-04  -1.6299808e-04  -1.1474199e-04  -3.5037057e-04  -1.3272876e-04   6.6658820e-04  -1.5949903e-04  -1.2487842e-04   4.8178251e-04   2.0389399e-04   2.0242832e-04  -3.2051193e-04  -2.1966551e-04  -8.7597298e-05  -3.2719277e-04  -1.8832582e-04   8.9888694e-05  -5.8226730e-04  -9.8976299e-05   4.0121225e-04   8.4216113e-04  -3.0906528e-04   2.8775230e-05   2.8136710e-04  -3.5897695e-04   2.7714128e-04   3.3599401e-03  -5.5417552e-04   2.1611358e-04  -6.3547451e-04   4.2460761e-03  -1.0015826e-03   1.7329906e-03   2.6276064e-04   2.7928429e-04   1.2015892e-04   1.0403532e-05
   3.8672346e-04   2.4892832e-04   2.6348245e-04  -8.4242260e-05   1.6333767e-04  -1.5440441e-04  -3.0064253e-05  -5.1290783e-05   4.7041499e-04  -9.3173185e-05   9.0857421e-04   8.6549968e-05  -2.0564180e-04   1.0287193e-05   2.3732379e-04  -3.1097603e-04  -4.1697480e-04  -9.1881804e-05  -4.1622503e-04  -3.5460814e-04  -2.7852715e-04   3.3485729e-04  -1.4460065e-04  -4.8543330e-05  -2.0061882e-04  -2.8596754e-04   1.1689676e-04  -8.1978549e-05   2.6034222e-06  -1.4977953e-04  -5.0552021e-04  -1.3332905e-05   2.7736643e-04   1.0854291e-03  -3.7005148e-04   2.7318497e-04   1.3736480e-04  -4.4909588e-04   6.5222534e-04  -1.4008087e-03  -4.1336234e-04   3.4679245e-04  -3.3530151e-04   5.0260457e-03   1.5831866e-03  -2.4003270e-03   8.4759400e-04   2.7577940e-04   2.1651872e-04   5.7387067e-04
   6.3834916e-04   4.8357618e-04   6.6453533e-04   2.7755508e-04   4.8190253e-04   8.9965659e-05   7.3026307e-04   5.6099769e-04   4.7022896e-04   7.0644531e-04   1.4913108e-03   7.6962792e-04   6.7024794e-04   4.3720761e-04   1.6505331e-04   6.3158391e-04  -4.0579576e-04  -2.3936304e-04  -1.7554848e-05  -1.5314981e-04  -9.1806935e-05   5.0733704e-04   2.8505674e-04   1.8982172e-04  -1.5816010e-04  -2.6483758e-04   4.2704883e-04  -1.9707484e-04   1.2810862e-03   1.6543877e-04  -1.7512610e-04  -2.7370511e-04   3.4943075e-04   1.5516496e-03  -3.0366817e-04   4.1428008e-04  -4.2217807e-04  -3.6786194e-04   1.7404111e-04  -2.8507619e-03   1.6444366e-04   3.5839243e-04  -3.7620430e-05  -8.5218623e-03   2.0475993e-04   1.1722111e-04   7.6578849e-04   5.2914518e-04   5.4357213e-04   4.7534329e-04
   5.8601686e-04   4.5852517e-04   5.7008263e-04   2.1364153e-04   4.0866400e-04   8.2612576e-05   4.2915469e-04   3.6790798e-04   3.7129963e-04   4.0797191e-04   1.3126775e-03   5.3881435e-04   3.5547616e-04   2.2407163e-04  -1.0682392e-05   6.5853012e-05  -4.3425788e-04  -1.9461726e-04   5.1515247e-04  -2.5863221e-04  -1.5952803e-04   4.2658701e-04   2.0054761e-04   1.3173654e-04  -3.7513638e-04  -2.9535074e-04   5.6702935e-05  -3.2075946e-04   7.7862478e-06   2.6013218e-05  -5.6011628e-05  -3.3123745e-04   6.3125696e-04   1.5352354e-03  -4.8498085e-04   2.2881827e-04   1.0976441e-03  -3.9007829e-04  -1.8631986e-04  -2.4666516e-02  -3.7704810e-04   2.0743684e-04  -4.9829180e-04  -7.4577820e-03   6.6109159e-04   2.2798346e-03   2.7036818e-04   9.0857911e-06   5.1045796e-04   1.0495514e-04
   2.7807881e-04   1.9414586e-04   2.3471046e-04  -9.7310447e-05   1.2588261e-04  -1.6167395e-04   1.0720510e-04   7.2158698e-05   7.5642194e-05  -8.8895053e-05   8.9708075e-04   8.9257410e-05   4.9710598e-05  -1.6347851e-04  -2.6803220e-05  -4.8628684e-05  -5.1721907e-04  -2.9268552e-04   3.9726023e-05  -4.3831285e-04  -3.0218251e-04   2.4902454e-04  -2.1651942e-04  -1.8566634e-04  -9.2230167e-04  -4.2323489e-04  -6.7489210e-04  -7.3728699e-04  -2.0797816e-03  -2.4783742e-04  -6.2005641e-04  -6.7016826e-04   6.1271203e-05   9.3629991e-04  -3.8583766e-04  -2.1936281e-05  -8.8163157e-05  -4.6226112e-04  -9.1442314e-04  -8.7069406e-04  -4.9471762e-04   9.9555917e-05  -6.0525420e-04  -8.6998129e-03  -1.4039871e-03   3.7965055e-03   4.6861338e-04   1.0112273e-04   5.9669046e-04   2.4761207e-04
   4.3039184e-04   3.1388336e-04   5.3772499e-04   1.6927748e-04   3.6123139e-04  -3.6436439e-05   1.6072445e-04  -1.2985163e-04   5.3419656e-04   5.8961898e-04   1.3528598e-03   6.7107199e-04   1.1415955e-04  -9.6054129e-05  -4.1070260e-04  -1.0620496e-04  -5.2748219e-04  -9.2705719e-05  -6.4456559e-05  -3.2090637e-04  -1.4006156e-04   4.1679252e-04   1.3886575e-04   1.2016790e-04  -8.3006307e-05  -4.1368228e-04   1.1879433e-04  -1.6790941e-04  -3.9398062e-04   4.3233744e-05  -3.4028653e-04   1.1017243e-04   4.5904031e-04   1.1367686e-03  -3.3839734e-04   2.5241266e-04   7.7942852e-04  -3.7236972e-04   2.8050662e-04   7.7170441e-03  -4.5323491e-04   4.1021177e-04  -4.1788159e-04   4.2891973e-03  -1.2475854e-03  -6.9764286e-04   6.5056956e-04   3.7657337e-05   2.9440914e-04   1.0446581e-05
   4.6827830e-04   3.6537519e-04   5.3713936e-04   2.0535752e-04   3.3816902e-04   3.8682858e-05   2.7890052e-04   4.3188786e-04   4.5159220e-04   3.9650497e-04   1.2872893e-03   5.1459926e-04   4.3449996e-04  -1.2608423e-04  -1.5368205e-04  -7.0224640e-05  -5.1876862e-04  -1.9397959e-04  -2.2904975e-04  -3.3033194e-04  -1.7599232e-04   3.3891457e-04   1.9971046e-04   1.1028775e-04  -4.7299688e-04  -4.3610536e-04   3.0164426e-04  -5.7319348e-04   5.2048179e-04  -6.5272252e-05  -5.3528282e-05  -7.1822101e-04   2.5441719e-04   1.5194354e-03  -2.2378426e-04   2.1531661e-04   1.7509036e-04  -4.1010161e-04   1.1036994e-03   8.4113702e-03  -4.5469825e-04   1.1712567e-04  -2.6621541e-04   1.4605803e-03   3.7488664e-04   3.9551910e-03   3.7756363e-05  -4.1851704e-06   2.7557288e-04  -2.4843003e-04
   2.1719564e-04   1.2830556e-04   2.3598286e-04  -8.0422156e-05   9.0812478e-05  -3.1386159e-04  -3.1288795e-04  -1.2047138e-04   9.4802192e-05  -1.3043731e-04   9.2002784e-04   8.5792592e-05  -3.4534381e-04  -5.6990323e-04  -5.0786987e-04  -4.1618108e-04  -6.1046949e-04  -2.0883490e-04   3.2189384e-04  -5.0206127e-04  -3.1747937e-04   1.6058327e-04  -1.6050220e-04  -1.9277426e-04  -8.4513013e-04  -4.2406344e-04  -5.2971102e-04  -1.0901712e-03  -1.3282113e-03  -3.6975861e-04  -5.4360204e-04  -5.7004817e-04   2.1192266e-04   1.4167732e-03  -7.1778730e-04  -5.3397165e-05  -3.0327344e-04  -4.7460184e-04  -6.3168042e-04  -1.0412890e-02  -4.3018561e-04  -7.0472757e-05  -4.8818457e-04   6.4432616e-03   8.4180041e-04  -1.7561706e-03   1.5969956e-04  -2.6798845e-04   1.2943539e-04  -2.9745212e-04
   2.8523410e-04   1.5199275e-04   4.9218559e-04   1.3894729e-04   2.8228987e-04  -1.4746179e-04   2.9600810e-04   6.0308911e-04   3.2585161e-04   5.0689670e-04   1.2898953e-03   6.1452936e-04   4.0916220e-04  -3.3746604e-04  -5.0390471e-04  -3.0236429e-04  -6.1021827e-04  -4.1014928e-04  -1.6974429e-04  -3.0637992e-04  -1.4479486e-04   3.5179636e-04   2.2212874e-04   1.3342315e-04  -8.1331818e-04  -3.8164109e-04  -4.5458772e-04  -4.4272095e-04  -2.8514056e-04  -7.2009010e-05  -3.6036095e-04  -3.4119654e-04   4.4388775e-04   2.1197139e-03  -5.0651527e-04   2.4283545e-04   6.7777844e-04  -3.7678194e-04  -3.8720941e-04   5.4782373e-03  -3.4288524e-04   2.8095738e-04  -4.0016425e-04   4.8011000e-04  -2.3573802e-03  -3.8535234e-03   7.1547902e-04   4.3875331e-04   3.1141311e-04   4.5101633e-04
   4.7933843e-04   3.4501657e-04   6.2741397e-04   2.7466926e-04   3.3616551e-04  -8.6630225e-06   3.0686348e-04   2.3946933e-04   3.1617281e-04   4.0063431e-04   1.2936374e-03   5.4530660e-04   3.1627863e-04  -3.8435068e-05   2.6512487e-04  -2.8169288e-05  -5.1758502e-04  -4.3858844e-04  -4.4405073e-04  -2.7629759e-04  -1.4411160e-04   3.7557952e-04   5.1672603e-05   3.3435652e-05  -3.4152897e-04  -3.4729278e-04  -1.6650972e-04  -3.4977184e-04  -8.6485950e-04  -1.0001191e-04  -7.9492136e-05  -3.5687033e-04   3.1547580e-04   1.5740597e-03  -5.6872284e-04  -4.4149466e-04   1.4253087e-04  -4.5417048e-04  -9.4691507e-04  -2.4645561e-03  -1.8594872e-04   1.1800881e-04  -3.2006885e-04   7.6749804e-04  -1.8975830e-03  -1.6009382e-03   1.7398011e-04  -2.1047355e-05  -7.4971133e-05  -1.6123931e-04
   2.9525216e-04   1.6891425e-04   3.8606100e-04   3.6446563e-05   1.2430927e-04  -3.0895750e-04  -4.8310580e-05  -6.6491048e-05   1.7596307e-04  -1.1894061e-04   9.8042435e-04   1.1518336e-04  -9.1626811e-05  -5.8567472e-04  -1.5155008e-04  -2.8744241e-04  -5.3089421e-04  -3.4476916e-04   3.0700827e-04  -4.1883727e-04  -2.6718693e-04   1.7191417e-04  -1.5876991e-04  -1.6237482e-04  -7.1942067e-04  -3.7998351e-04  -5.1287620e-04  -7.5629458e-04  -4.4899265e-04  -3.6001106e-04  -6.2056328e-04  -8.6870749e-04   1.9361370e-04   1.2505173e-03  -4.9043482e-04  -5.8373524e-04   9.6935393e-05  -5.5224728e-04   1.3016901e-04  -6.0608522e-03  -8.6988934e-04  -1.5460330e-04  -1.0258346e-03  -4.1841930e-03  -3.6643374e-05   8.4344698e-05  -3.7911316e-04  -3.6790001e-04  -4.2983671e-04  -4.3892255e-04
   1.1731808e-04  -1.3819247e-05   3.7967419e-04   3.4275196e-05   1.5307697e-04  -2.0840806e-04  -9.4149262e-05  -1.1040454e-04   4.2660825e-04   3.6038124e-04   1.1698139e-03   4.9517886e-04  -9.4265706e-05  -3.8172188e-04  -9.5635813e-05  -3.0321663e-04  -5.7523360e-04  -2.7453149e-04   4.7716906e-04  -3.3340437e-04  -1.2806477e-04   3.4095635e-04   1.4980989e-04   3.0228874e-05  -4.8944680e-04  -3.2195525e-04  -3.7842922e-04  -4.7427806e-04  -1.0266405e-03  -1.7038058e-04  -5.1595160e-04  -5.7400629e-04  -7.1515344e-05   1.3943440e-03  -5.2608206e-04  -1.0769869e-05   3.8273560e-04  -4.2896395e-04   1.9679022e-04  -1.2912055e-03  -5.3133309e-04   3.4068123e-04  -3.3628449e-04  -9.3420744e-03   9.8072132e-04   1.6255529e-03   6.6975295e-04   3.9213538e-04   3.4915749e-04   7.8092620e-05
   6.1345752e-04   4.0965300e-04   7.7021198e-04   3.8225754e-04   3.8893762e-04  -1.9282690e-05   2.9427078e-04   9.7271361e-05   4.1745140e-04   4.9311499e-04   1.3819668e-03   6.3819555e-04   3.7522570e-04  -1.4461203e-04  -2.4461714e-04   1.6380451e-04  -4.6828500e-04  -4.6639354e-04   9.6214855e-05  -1.9539865e-04  -6.7834342e-05   4.4361688e-04   2.2322338e-04   7.5592594e-05  -5.6633161e-04  -3.4815958e-04   1.2497821e-04   4.5545090e-05   5.0944684e-04  -8.7221400e-05  -3.4388524e-04  -6.1213848e-04   2.5122080e-04   1.2413189e-03  -4.1804399e-04  -1.8641334e-04   9.3790964e-05  -4.7857509e-04   1.1317110e-04   6.5208925e-03  -3.9317930e-04   2.8948873e-04  -2.7480910e-05  -1.0600873e-02  -1.5520673e-03  -1.1751434e-03   2.9465737e-04   1.1095156e-04   1.8269518e-05  -4.2597881e-06
   5.1103317e-04   3.0892488e-04   5.9874402e-04   2.1822324e-04   2.5755574e-04  -2.6572956e-04   1.6967584e-04   8.5049185e-05   3.4677278e-04   6.6076696e-05   1.0934020e-03   2.6788510e-04   8.9866313e-05  -4.5155923e-04  -5.7957298e-04  -2.3242523e-04  -5.0016580e-04  -3.5597268e-04   2.4741815e-04  -2.6260826e-04  -1.8648815e-04   3.4369226e-04  -4.1767355e-05  -6.6391811e-05  -3.8278941e-04  -3.6694732e-04  -8.2407678e-05  -2.4527067e-04   5.9990404e-04  -2.8231656e-04  -5.2528456e-04  -1.0173359e-03   4.3397426e-04   1.5550343e-03  -5.4338510e-04   1.2996461e-04  -3.3832408e-04  -4.5153167e-04   7.2791365e-05  -4.6629664e-03  -6.5350183e-04  -2.5946300e-05  -6.3999824e-04  -2.7444521e-03   9.9312107e-04  -1.7949897e-03  -2.0394748e-04  -2.5426311e-04  -6.7099181e-06  -9.7609375e-04
   2.2976729e-04   6.0339582e-05   2.4779866e-04  -1.2960027e-04   2.4425331e-06  -4.9344136e-04  -1.8596119e-04  -4.4568328e-04   7.9878519e-05  -2.4573773e-04   7.8795635e-04  -5.5364762e-06  -2.6810297e-04  -8.0273993e-04  -8.3753475e-05  -9.3693478e-04  -5.6874711e-04  -5.5357488e-04   1.6917827e-04  -3.1934693e-04  -1.6171347e-04   3.3562063e-04   6.7250083e-05  -3.9028986e-05  -9.0598728e-04  -4.3885165e-04  -7.2604849e-04   2.1462707e-04  -5.0818018e-04  -2.0305028e-04  -6.1286375e-04  -7.5546722e-04   1.8721801e-04   1.5518230e-03  -5.6506175e-04   1.5404835e-04   2.2022447e-04  -4.8005316e-04  -7.5458910e-04   6.7915614e-03  -4.9932738e-04   3.5525303e-04  -5.1016023e-04  -3.9164592e-03  -2.7801416e-05  -7.1008969e-03   1.0268661e-03   4.0222355e-04   3.5527427e-04  -1.7516989e-04
   7.6822820e-04   4.9129938e-04   8.9768763e-04   4.6896772e-04   4.9825560e-04   1.1788388e-04   3.6311711e-04   2.6614557e-04   5.9001253e-04   5.7316804e-04   1.4501006e-03   7.1514194e-04   4.8494601e-04  -1.2278389e-04  -3.2474229e-04  -4.6936478e-04  -4.6935875e-04  -7.8980469e-05   3.3530960e-04  -1.5076211e-04  -4.5441611e-05   5.8192736e-04   2.7918851e-04   1.5738278e-04   3.0324428e-04  -3.5929642e-04   2.7181508e-04  -9.6426491e-04  -3.1168942e-04  -4.9555623e-05  -1.0062154e-04  -1.3393130e-04   3.8621988e-04   1.3391203e-03  -2.4312877e-04   2.5955032e-04   4.6502778e-04  -4.2916799e-04  -6.7543541e-04   3.4395405e-04  -1.8103651e-04   4.1823683e-04  -2.4138689e-04  -5.0489075e-04  -4.2255544e-03   2.1344710e-03   5.0367211e-04   1.6999066e-04   2.0581517e-04   1.0579202e-04
   7.1724853e-04   4.4389549e-04   7.5051113e-04   3.1808409e-04   3.8222762e-04  -1.0798509e-04   3.2673200e-04   1.2563546e-04   4.0032290e-04   2.4522300e-04   1.2253935e-03   4.2670433e-04   2.1808760e-04  -4.9682817e-04   2.9060143e-04  -1.0890222e-05  -4.4852661e-04  -1.1463591e-04  -6.7722512e-04  -2.0133471e-04  -1.3934894e-04   4.9421279e-04   4.0621337e-05   9.8648034e-06  -7.3340395e-04  -3.9063464e-04  -3.9253457e-04  -1.5562959e-04   7.6125568e-04  -2.0468057e-04  -3.3040499e-04  -7.2439824e-04   6.0694329e-05   1.5437555e-03  -3.1238343e-04  -6.2452664e-04   1.6276337e-05  -4.5172611e-04  -8.8020851e-04   1.1203425e-02  -3.1034660e-04   2.4597612e-04  -6.3599565e-04   3.1102512e-03  -1.1249933e-03   2.9347781e-03   9.1610178e-05  -7.6766846e-06  -3.5065241e-04  -3.0827551e-04
   4.8020232e-04   2.2323945e-04   4.0918804e-04  -4.0905729e-06   1.3891661e-04  -2.7592681e-04  -6.7048371e-05  -2.3229759e-04   2.8384681e-04  -2.6088438e-04   8.7478879e-04  -1.5954834e-05  -1.7497722e-04  -7.1449991e-04  -7.8656210e-04  -7.3132670e-04  -5.1386334e-04  -2.8059538e-04   1.5342480e-04  -3.1502466e-04  -2.6163965e-04   3.1260471e-04  -1.5186206e-04  -1.0465417e-04  -2.5553268e-04  -4.6188361e-04  -3.4159055e-04  -7.9325761e-04  -9.0151880e-04  -3.6381267e-04  -8.4360590e-04  -1.6381046e-04   3.6280861e-04   1.1928611e-03  -3.4259024e-04   3.6979010e-04   4.7032541e-04  -5.0508912e-04  -1.4664933e-04  -1.1000677e-02  -6.3087165e-05   3.9690145e-04  -2.2400770e-04  -5.1307236e-03  -2.8441111e-03  -2.1380612e-03   5.2282232e-04   1.2515990e-05  -9.5323536e-05   2.6570581e-04
   8.1558479e-04   5.0701026e-04   8.6018129e-04   4.2264440e-04   5.1570422e-04   1.0214784e-04   4.2626963e-04   2.1903293e-04   5.7034061e-04   5.9054315e-04   1.4726450e-03   7.3768746e-04   8.5796748e-04  -1.3343083e-05   6.5561813e-05  -1.3661035e-04  -4.4047358e-04  -3.0830179e-04   2.6969871e-04  -7.1262439e-05  -6.2616964e-05   5.7377375e-04   3.4179381e-04   2.2236315e-04   1.9793924e-04  -3.7073938e-04   7.9553756e-05  -5.0273997e-04  -1.9282030e-03  -3.2000567e-05  -1.7611335e-04  -5.0377788e-04   4.4518925e-04   1.4874025e-03  -3.6857213e-04  -1.0247422e-04   3.8271621e-04  -4.3451699e-04  -2.9076487e-04   1.6456828e-03  -2.9893292e-05   5.0653046e-04  -1.0291112e-05  -1.1818678e-02   7.2015566e-04   1.7244389e-03   5.6383340e-04   3.0851946e-04   2.2609129e-04   1.2048114e-05
   8.2917308e-04   5.2941579e-04   7.7437930e-04   3.4767721e-04   4.5169861e-04   7.0762675e-05   4.3149019e-04  -1.7486294e-05   5.5215874e-04   2.5619997e-04   1.2772941e-03   4.7994632e-04   4.8593257e-04   2.0600075e-04  -1.1963101e-04  -2.7953475e-04  -3.8624223e-04  -1.9385474e-04  -5.9249105e-05  -1.5115784e-04  -1.3790702e-04   4.6906431e-04   1.4400952e-04   7.0867951e-05  -2.1326274e-04  -3.4260750e-04  -7.5970002e-04  -2.9905682e-04   1.3239602e-04  -1.0822048e-04  -2.2981488e-04  -3.4139917e-04   1.1134081e-04   1.9524104e-03  -3.5733960e-04  -2.5701092e-04  -5.8888132e-04  -3.9963916e-04   3.3990702e-05  -5.4889154e-03  -1.3473826e-04   2.4656538e-04  -3.5237041e-04  -1.0607746e-02  -2.1219461e-03   8.2600856e-04  -1.1077658e-04  -1.2327480e-04  -4.4386176e-04  -5.6344480e-04
   5.6813110e-04   3.0773054e-04   4.2240790e-04   2.1347687e-05   1.9523490e-04  -2.5150884e-04   2.8466646e-04  -4.8291171e-04   3.5534863e-04  -2.5143221e-04   8.8139786e-04   2.2418040e-05  -5.7284076e-05  -2.1094846e-04  -2.3133933e-04  -4.3131603e-04  -4.6329934e-04  -5.1786320e-04  -1.8543484e-04  -2.8333117e-04  -2.8982491e-04   2.5924633e-04  -8.4521154e-05  -1.0302447e-04  -5.3008663e-04  -3.6263291e-04   2.6252089e-04  -4.1972270e-04  -7.9273607e-04  -3.5742827e-04  -4.5209937e-04  -8.3225686e-04   2.6942845e-04   1.2733939e-03  -5.4045039e-04   2.1924541e-05   1.2883620e-04  -4.6544956e-04   1.6061272e-04  -3.5403189e-03  -2.0325040e-04   2.3920194e-04  -2.8067664e-04   8.5446062e-03  -1.2869153e-03   2.2611979e-03   4.4141131e-04   9.2482122e-05   4.3662891e-04   2.7442773e-04
   8.1383070e-04   5.0811213e-04   7.9801999e-04   3.7177614e-04   4.9724191e-04   1.3727507e-04   2.9302709e-04   8.9569985e-05   5.9613457e-04   5.2203709e-04   1.4102829e-03   6.9574767e-04   5.5869552e-04   6.5882603e-05  -3.9556270e-04   2.2778378e-04  -3.6436590e-04  -2.8344896e-04   5.5753480e-04  -9.6020776e-05  -8.1182385e-05   5.0974573e-04   5.0886220e-04   3.2063568e-04  -2.2407330e-04  -2.3480938e-04   1.8829337e-04  -2.5035091e-05   1.0018442e-03   6.1237239e-05  -8.2941180e-05   3.0067118e-05   2.7424833e-04   1.6988160e-03  -2.6339834e-04  -5.6812109e-04  -4.0195795e-04  -3.9668928e-04   7.4469775e-04   7.6747141e-03   9.7794487e-05   4.7990712e-04  -1.0155068e-04   5.5479109e-03  -2.7036795e-04  -3.0434967e-03   7.1689684e-04   1.7381640e-04   1.6895913e-04   5.0556246e-04
   8.9311454e-04   6.0286780e-04   7.8513636e-04   3.6782923e-04   5.0926924e-04   1.4760498e-04   4.1931187e-04   4.3103629e-04   5.7500962e-04   2.9749906e-04   1.3339756e-03   5.3686160e-04   5.3544249e-04   1.2685284e-04   3.7174407e-04   3.3402387e-07  -2.9872978e-04  -7.3653522e-05  -4.8801317e-05  -1.3140454e-04  -1.4212709e-04   4.3955003e-04   2.5190119e-04   1.1843604e-04  -6.8319619e-05  -1.3458221e-04  -1.8496886e-04  -1.3828154e-04   6.2207185e-04  -3.3279761e-05   2.1599169e-04  -9.7088676e-05   2.8609700e-04   1.5130106e-03   5.2033440e-05   2.4863760e-04  -3.0714902e-04  -3.6306458e-04  -8.6347631e-04  -1.4657698e-02  -8.2518018e-05   1.9223227e-04  -1.4987908e-04   2.0018579e-03  -2.9448052e-03  -2.4847223e-03   1.2265780e-04   5.1335413e-05  -3.2027962e-04  -1.7381919e-04
   6.4407155e-04   3.7569291e-04   4.2421790e-04   4.8618225e-05   2.4749726e-04  -1.5267289e-04  -7.0391752e-06   3.6305842e-06   1.4810148e-04  -2.3619059e-04   8.9234434e-04   2.8661812e-05   7.8707271e-05  -2.2722725e-04  -6.5437227e-05   4.1433166e-05  -3.7368381e-04  -5.4389136e-05  -2.9380113e-04  -2.7837584e-04  -3.0012528e-04   2.6046141e-04  -5.5176602e-05  -1.1742530e-04  -5.5836025e-04  -2.5396279e-04  -5.2848278e-04  -4.7638177e-04  -2.7908056e-04  -2.8681676e-04  -4.2866226e-04  -6.5734086e-05  -2.0834689e-06   9.3028141e-04  -1.8627783e-04  -2.2996632e-04   5.7290716e-04  -4.4093883e-04  -1.4233486e-04   2.7840286e-03  -2.1701414e-04  -5.5423232e-05  -6.5466826e-04  -1.7654566e-03  -3.7488972e-03  -1.1730636e-03  -3.0882499e-04  -4.2290281e-04  -8.0180395e-04  -5.6082784e-04
   4.0886074e-04   1.7767948e-04   3.8974674e-04   3.4475641e-05   2.5363563e-04  -1.1069437e-04   1.8818308e-04  -2.0176877e-04   5.8850268e-04   2.6906078e-04   1.1090988e-03   4.8373506e-04   3.2819927e-04  -3.8851754e-04   2.0079549e-04  -1.8898005e-04  -4.1459038e-04  -2.8399174e-04   2.4938979e-04  -2.2177520e-04  -1.6353614e-04   4.1862391e-04   2.7253653e-04   1.3229468e-04  -6.1887200e-05  -2.2672498e-04   1.5635710e-04  -2.6228678e-04  -1.3217141e-03  -2.0843780e-07  -2.2571253e-04  -3.6844218e-04   5.6750298e-04   1.4266627e-03  -3.7036932e-04  -3.5985213e-04  -5.0771754e-04  -2.8750135e-04   2.6360012e-05  -7.8015565e-03  -1.2315117e-04   5.7201833e-04  -8.2357605e-05  -5.9557473e-04  -7.2652282e-04  -1.5615827e-03   6.3870841e-04   2.4843990e-04   7.7331570e-05   2.9097221e-04
   8.2307507e-04   5.9656799e-04   6.9065549e-04   3.3268685e-04   4.8479202e-04   1.7948903e-04   4.5663782e-04   5.0125550e-04   7.5291347e-04   2.9836642e-04   1.2912893e-03   5.3671049e-04   5.5552518e-04   2.6154838e-04   6.5070308e-05   2.5043872e-04  -3.1248352e-04  -6.1655752e-05  -2.2496903e-04  -1.5885282e-04  -1.5204710e-04   4.0100998e-04   2.7962925e-04   2.2259462e-04  -7.1934628e-04  -1.5648028e-04   8.6768792e-05   8.2153492e-05   3.3296226e-04   5.1117629e-05  -2.8445778e-04  -3.5093600e-04  -4.6229692e-05   7.8514079e-04  -3.1303207e-04  -1.2717934e-04   3.0749489e-04  -3.3014701e-04   9.4022500e-05  -4.8925476e-03  -1.6345785e-04   3.5299556e-04  -2.1288698e-04  -5.7243364e-04   3.3622519e-03  -2.5302107e-03   2.5915276e-04  -1.4596140e-04   1.0545027e-05   3.7642450e-05
   6.4333453e-04   4.3899438e-04   4.3116807e-04   9.8903976e-05   2.9246905e-04   2.0313642e-05   1.4902255e-04   1.3615878e-04   6.2584912e-04  -1.9933407e-04   9.5141167e-04   1.2411865e-04   2.1036802e-04   4.4878678e-05   1.3143539e-04  -2.3189152e-04  -3.2510635e-04  -1.3979884e-04  -5.6289870e-04  -2.9727464e-04  -2.8161801e-04   2.3096683e-04   5.7110542e-06  -1.5667075e-04  -1.7421095e-04  -1.5930485e-04  -1.6466131e-04  -1.1607155e-04  -3.8305842e-04  -1.6227816e-04  -6.3473039e-04  -4.5415282e-04   1.7532353e-04   1.0793383e-03  -1.9583154e-04  -1.0167439e-04   2.3242917e-05  -3.2394053e-04   1.7142572e-04   1.6462985e-02  -7.5132048e-05   8.2400526e-05  -5.3839374e-04   2.1565917e-03   2.9511633e-04   2.4162561e-03  -4.9310632e-04  -2.6281428e-04  -5.8713119e-04  -4.9316266e-04
   2.8932543e-04   1.4742589e-04   2.4041618e-05  -2.8562616e-04  -1.4001053e-05  -3.7541956e-04  -1.8088553e-04   9.9765843e-05   1.9843596e-05  -7.5137697e-04   4.5021120e-04  -4.1682346e-04  -2.8036608e-04  -2.8597601e-04  -3.7611098e-04  -5.3942268e-04  -4.4083878e-04  -2.1645392e-04  -7.4454896e-05  -5.0161465e-04  -4.2625130e-04   2.5909560e-05  -2.4332500e-04  -3.7526526e-04  -1.0886941e-03  -2.3771192e-04  -9.1608177e-04  -3.1888482e-04   5.5095955e-04  -3.8255160e-04  -1.5916108e-04  -3.9388164e-04   1.6650214e-04   1.3922445e-03  -5.0920504e-04  -3.2759691e-04  -2.4821490e-04  -4.2134765e-04   9.0294942e-04  -1.6131604e-03  -1.3615284e-04   2.4777994e-04  -3.1142565e-04  -7.0527755e-03   1.9131813e-03   6.0856063e-04   4.1676790e-04  -6.9430862e-06  -1.1484449e-04   4.4957927e-05
   5.9534173e-04   4.5066880e-04   5.2554579e-04   1.9854316e-04   3.7256218e-04   8.8102963e-05   2.4601808e-04   5.5894721e-05   6.4812176e-04   2.3219781e-04   1.1305902e-03   4.7048138e-04   1.8080127e-04  -4.0553728e-05   8.5814783e-05  -2.0236048e-04  -3.4889235e-04  -1.3462453e-04   2.0567913e-04  -2.7697015e-04  -2.0199361e-04   3.4195176e-04   1.4766026e-04  -6.2192950e-05  -8.0145495e-05  -1.9008612e-04   8.4194828e-05  -3.9053566e-04  -7.5115426e-04  -9.4514121e-07  -2.2563786e-04  -3.4604534e-05   3.1042899e-04   1.4423605e-03  -3.4721306e-04   2.5917977e-04   2.2928863e-04  -3.4757715e-04  -1.4665377e-04   1.0286368e-02  -8.5977175e-05   3.0477898e-04  -1.8499469e-04  -3.7977571e-04  -1.1007634e-03   8.3056290e-04   2.2002682e-04   1.7917532e-04   5.8879283e-05  -1.9477271e-04
   5.1449897e-04   4.1959924e-04   3.7583645e-04   8.8398810e-05   2.8079568e-04   4.5229313e-05   1.0344321e-04  -8.1225669e-05   2.7948359e-04  -1.2722409e-04   8.9147751e-04   1.6660453e-04   2.3730329e-04   6.5355111e-05   7.2590774e-05  -4.3407755e-04  -3.2909590e-04  -3.9283087e-04  -4.3085133e-04  -3.5937727e-04  -2.8067539e-04   2.6633669e-04   8.9751884e-05  -1.2456707e-04  -2.5991659e-04  -2.0889792e-04  -2.3112481e-05  -3.9733067e-04  -1.7049890e-04  -1.8561346e-04  -4.5724830e-04  -3.2510335e-04   1.3930387e-04   1.6569329e-03  -1.9157259e-04  -9.8190016e-05  -2.6957161e-04  -4.2184046e-04  -7.8624267e-05   2.0230481e-02  -1.0796593e-04   3.0776398e-05  -4.6219403e-04   6.5076468e-04   1.9102822e-03   1.0537816e-03  -3.6712957e-04  -4.8646308e-04  -5.1849690e-04  -6.4963016e-05
   1.7266482e-04   1.3237479e-04  -1.9424484e-05  -2.7810907e-04  -2.6318723e-05  -3.3174368e-04  -3.7113423e-05  -6.1428518e-04   7.4122006e-05  -6.7376043e-04   4.5933973e-04  -3.3642523e-04  -1.8386262e-04  -3.9217903e-04  -1.8886742e-04  -4.0342702e-04  -4.8156630e-04  -2.8666254e-04  -6.9445284e-04  -5.9151859e-04  -4.3045491e-04   6.0780552e-05  -3.4331705e-04  -3.7133630e-04  -2.0558167e-04  -2.9093205e-04  -8.6388807e-04  -6.4980472e-04   3.2980277e-04  -4.5831135e-04  -3.6515895e-04  -6.9240306e-04  -3.7488993e-04   1.2608009e-03  -5.4900156e-04  -7.6368934e-04  -1.1278419e-03  -4.1199563e-04  -2.1996933e-04  -7.6189224e-04  -2.6291051e-05  -1.9879876e-04  -5.8012764e-04  -1.5756134e-02   1.2505839e-03   5.3075620e-04  -2.4095453e-04  -3.2862491e-04  -3.1610799e-04  -3.9386092e-04
   2.3639976e-04   1.8269407e-04   2.5433835e-04  -1.7729097e-05   1.8531736e-04   2.3368677e-05   1.1048398e-04   9.2953902e-05   3.7125361e-04   4.5169676e-05   8.6539751e-04   2.6588867e-04   3.2622251e-04  -3.0341884e-04  -1.8436935e-04  -1.4856618e-04  -5.0929614e-04  -3.0638301e-04  -1.2938622e-04  -4.5224276e-04  -2.6321030e-04   2.6342424e-04  -3.8279413e-05  -4.8000289e-05  -5.1047181e-04  -3.5004882e-04   2.6837856e-04  -2.5891099e-04  -1.5428934e-03  -1.2261794e-04  -3.5939002e-04  -8.0088485e-04   1.6627900e-04   1.3123861e-03  -2.0709715e-04  -7.8816398e-04   8.8597502e-05  -3.9155249e-04   7.3813956e-04  -7.5816959e-03  -4.7658195e-04   1.5374404e-04  -1.5422091e-04  -1.3704301e-02  -1.6140559e-03   2.3250445e-03   1.0499074e-04  -3.1578605e-04  -8.5540603e-05  -3.8478695e-04
   2.7762572e-04   2.8571938e-04   2.3867433e-04  -1.3481043e-05   1.9355591e-04  -1.0809983e-04  -5.6801833e-05  -3.8610483e-06   3.1326822e-04  -1.3902163e-04   8.3569944e-04   1.4614480e-04   6.8693720e-05   4.7805319e-05  -1.4166240e-04   1.0544769e-04  -4.5932742e-04  -3.6307692e-04  -4.4309266e-04  -4.2592513e-04  -3.0612963e-04   2.0170213e-04  -1.6540338e-04  -1.9818885e-04  -8.2533807e-04  -2.9877611e-04  -7.3621646e-05  -1.5075870e-04  -1.6321293e-04  -1.8849148e-04  -1.6394051e-05   1.6329451e-04   1.5247088e-04   1.4643826e-03  -3.2207798e-04  -3.4831013e-04   3.1893124e-04  -4.7892635e-04  -4.2297199e-04   9.3860775e-03  -3.5646945e-04  -2.8376237e-05  -4.7970694e-04   4.6864962e-03   1.9930073e-03   8.0593739e-04  -2.7506260e-04  -2.4849293e-04  -2.8371383e-04  -5.7876611e-04
   1.7898574e-05   5.5621626e-05  -7.7048258e-05  -2.9928421e-04  -7.4017953e-05  -3.5702818e-04  -2.5062191e-05  -4.2084011e-04  -1.0178062e-04  -6.6571642e-04   4.5398145e-04  -3.2138388e-04  -3.3008019e-04  -5.8218732e-04  -3.7996986e-04  -5.7076995e-04  -5.0571439e-04  -3.4819052e-04  -4.8765968e-04  -6.4397987e-04  -4.4253000e-04  -8.4833191e-06  -3.3565715e-04  -4.6849984e-04  -9.9418452e-04  -3.3049705e-04  -1.0888327e-03  -8.4780063e-04  -7.6106709e-04  -4.1293635e-04  -7.9611031e-04  -5.4177234e-04   1.0822847e-04   1.0654369e-03  -6.0924416e-04  -4.3693793e-04  -1.4010837e-04  -5.1742321e-04  -8.8593457e-04   1.1697488e-04  -1.5214564e-04  -2.7032569e-04  -4.8755918e-04  -3.9566373e-03  -1.4349301e-03   2.3138165e-03  -4.2814043e-04  -3.8080907e-04  -6.9052645e-04  -4.7727532e-04
   5.8157577e-05   5.9460446e-05   1.6967241e-04  -8.9339534e-05   9.8784585e-05  -2.1826313e-04  -9.8919081e-05  -3.1877942e-05   3.8908242e-04   1.6789198e-05   8.0562942e-04   2.4204215e-04   5.9110807e-06  -2.1900175e-04   1.9571962e-04  -3.8543969e-04  -4.9370190e-04  -2.9551034e-04  -1.9191801e-05  -5.2805117e-04  -2.6796642e-04   1.7371938e-04   8.0327052e-05  -1.9984721e-04  -7.4919796e-04  -2.5163603e-04   7.3644960e-06  -3.1528244e-04   5.6727073e-04  -1.4113875e-04  -2.5905974e-04  -9.4819494e-04   2.9694542e-04   1.5340619e-03  -7.0281693e-04   1.6136093e-04  -6.4991676e-05  -3.6249470e-04   2.0776612e-04  -1.3407796e-03  -4.6211324e-04   9.1296242e-05  -2.8284756e-04  -2.3498293e-03  -5.3154300e-03   2.3029798e-03   3.3744760e-05  -1.8018844e-05  -6.7556801e-05   1.7995102e-04
   1.9415136e-04   2.2855560e-04   2.2553596e-04  -3.0799652e-05   1.3101565e-04  -1.1200697e-04   2.4552640e-04   1.6580077e-04  -8.7363769e-05  -1.4689838e-04   7.9351937e-04   1.5277963e-04   2.8588157e-04  -1.6159820e-04  -5.6096649e-04  -1.6227351e-04  -4.4765987e-04  -2.7493495e-04  -1.8888721e-04  -4.7971081e-04  -2.8256452e-04   1.6887297e-04  -6.8685069e-05  -3.1252456e-04  -8.5225084e-04  -2.3791252e-04   2.5162995e-05  -6.6263770e-04  -5.1646732e-04  -1.7169151e-04  -2.1958112e-04   3.4824086e-04  -7.6374621e-05   1.0534171e-03  -6.2235765e-04   5.1087194e-05   5.2005646e-04  -3.9841811e-04  -5.9600652e-04   7.3383749e-03  -6.1300205e-04  -1.3483703e-05  -5.1722740e-04  -3.8659486e-03   2.0569172e-03   3.0110881e-04  -5.2513712e-04  -3.2152692e-04  -2.7922000e-04  -3.0523894e-04
  -2.0750771e-05   2.4091016e-05  -6.5230364e-05  -3.0650088e-04  -1.0102025e-04  -4.8148562e-04  -3.5760802e-04   1.9035155e-05  -2.6510847e-05  -6.8756711e-04   4.2342060e-04  -3.1980785e-04  -4.2788201e-04  -5.7920499e-04  -4.7124087e-04  -4.5165641e-04  -4.9017341e-04  -2.4032273e-04  -4.8705906e-04  -6.4882683e-04  -4.1775085e-04   1.6755181e-05  -3.3236016e-04  -4.7202699e-04  -6.2415854e-04  -2.7750692e-04  -6.9120154e-04  -4.3269459e-04   3.7218284e-04  -4.6010714e-04  -5.5591995e-04  -6.3507154e-04  -9.5563169e-05   9.6948323e-04  -4.5225833e-04  -2.1448427e-04  -4.7068833e-04  -4.3468006e-04  -1.1028409e-03   1.0831134e-03  -6.4659148e-04  -3.3995556e-04  -6.7198981e-04   4.6282308e-03  -1.6449429e-03   2.6245884e-04  -4.2926334e-04  -3.9917030e-04  -3.2035573e-04  -5.5226806e-04
   5.1748095e-05   4.0256360e-05   2.1115603e-04  -7.8794554e-05   9.6878081e-05  -1.7908051e-04   3.0122461e-05   3.8438599e-04   3.7565196e-04   3.2107702e-05   8.1388239e-04   2.6939288e-04   9.1016671e-05  -2.0725623e-04  -3.9979460e-04  -2.7843131e-04  -4.8383512e-04  -2.6088228e-04  -2.5073758e-05  -4.3713735e-04  -2.1645575e-04   2.2753308e-04  -1.0166928e-04  -7.4476324e-05  -4.8511912e-04  -2.1773939e-04  -2.5547622e-04  -5.9454551e-04  -7.6668622e-04  -8.9513858e-05  -6.2352941e-05  -2.8845717e-04  -9.1196935e-06   1.3506551e-03  -3.9608567e-04   1.6545727e-04   3.5099531e-04  -4.5665426e-04  -7.8425882e-04   2.0425351e-02  -1.2402292e-04   1.4338247e-04  -4.0145431e-04  -2.3799192e-03   6.6780217e-04  -2.4574378e-03  -8.4294006e-06   1.2194621e-04  -1.7380904e-04  -1.5594077e-04
   2.7427031e-04   2.5200841e-04   3.3976935e-04   3.3297216e-05   1.6329516e-04  -1.7134192e-04   3.3033255e-04   1.2976321e-04   1.0861066e-04  -7.3872892e-05   8.2123571e-04   2.1295574e-04   1.6394035e-05  -3.2166587e-04  -1.6580989e-04  -4.8991275e-04  -4.1213378e-04  -2.5201609e-04  -7.9383753e-04  -4.4255654e-04  -2.1367583e-04   1.8729513e-04   1.2571616e-05  -2.4861449e-04  -4.2338413e-04  -2.1177925e-04  -2.6529309e-04   6.4070895e-04  -1.4575550e-03  -1.2168328e-04  -2.4452872e-04  -8.2483416e-04   2.4723844e-05   9.4222534e-04  -4.9206370e-04  -3.2165481e-04  -4.4253361e-04  -3.9094809e-04  -1.8515979e-04  -1.0793976e-02  -2.9286716e-04  -5.3732030e-05  -2.9618447e-04   6.3973935e-03  -1.6433466e-03   1.7180857e-03  -3.0656578e-04  -3.1265809e-04  -3.1558605e-04   6.0151546e-05
   1.0341675e-04   6.4787622e-05   7.3077914e-05  -2.2291006e-04  -4.6569057e-05  -4.0392316e-04  -5.6955803e-05   2.9618650e-05  -6.8532645e-05  -5.9100240e-04   4.8594072e-04  -2.2509109e-04  -2.3970923e-04  -3.7492500e-04  -5.2846293e-04  -4.9898733e-04  -4.5574870e-04  -1.6987485e-04  -5.7320674e-05  -5.9933448e-04  -3.4176258e-04   9.0392736e-05  -4.1563137e-04  -4.2913327e-04  -8.2480186e-04  -2.5887592e-04  -1.0021206e-04  -5.6875503e-04  -2.0351592e-03  -3.4772645e-04  -5.1903713e-04  -6.2725466e-04  -1.8635222e-04   1.5674550e-03  -3.4411217e-04  -6.9842965e-04  -5.9254596e-04  -4.9219048e-04  -5.0191979e-06  -3.5083372e-04  -6.0441723e-04  -3.7533877e-04  -6.1708584e-04  -2.2874337e-04  -2.9214176e-03   1.5755278e-03  -7.7150832e-04  -1.9581296e-04  -4.7881494e-04  -5.3088274e-04
   1.3406609e-05  -4.9861213e-05   1.8169254e-04  -1.2535317e-04   4.9352933e-05  -2.8580590e-04  -9.3693656e-05  -2.1769670e-04   8.5287000e-05   1.5796171e-05   7.5791142e-04   2.8283830e-04   5.0049071e-06  -1.8776952e-04  -4.6313664e-05  -3.8576301e-04  -4.2500341e-04  -3.4046403e-04   2.4748954e-04  -4.0954986e-04  -1.6972880e-04   2.4529384e-04  -7.9751902e-05  -1.2219526e-04  -7.5911224e-04  -2.2174809e-04  -3.3899417e-04  -6.6008075e-04   4.2571523e-04  -2.3316619e-05  -4.9682095e-04  -7.0041721e-04   2.3221182e-04   1.5405166e-03  -2.7400631e-04   6.4538181e-04   1.7444420e-07  -3.7400139e-04  -5.5328908e-04   1.1638267e-02  -2.7515506e-04   1.4371162e-04  -3.1456928e-04  -5.1334238e-04   2.0890325e-04   3.1166978e-04   1.5185600e-04   2.8948492e-04   2.5464961e-04  -1.8779561e-04
   3.8932273e-04   2.8006383e-04   4.1497164e-04   7.6572505e-05   2.2311146e-04  -1.9285794e-04   1.9565450e-04  -5.4649361e-05   4.6747678e-04  -2.6599153e-05   8.2728814e-04   2.6841430e-04   2.2096853e-04   1.0846683e-04  -2.6525231e-04   2.1653804e-04  -3.3367128e-04  -2.4360484e-04  -4.5729576e-05  -3.5538117e-04  -1.5629013e-04   2.6962106e-04   8.4161009e-05  -1.7379028e-04  -6.9879321e-04  -1.6238310e-04  -4.8238819e-04  -3.2061507e-04   1.0017330e-04  -5.6854500e-05  -1.9659352e-04  -3.0808084e-04   3.0832845e-05   1.8852060e-03  -4.0866702e-04  -2.8715000e-04   2.3678938e-04  -3.4558348e-04   4.7495897e-04  -1.9473661e-03  -9.2613132e-05   2.4469755e-05  -4.0717615e-04   2.6130420e-03  -1.3744686e-03  -2.6061288e-03  -2.1278649e-04   1.5305491e-04  -6.8861576e-05  -1.5290834e-04
   2.5171510e-04   1.3798152e-04   1.8412474e-04  -1.4835518e-04   8.6877480e-06  -4.0847881e-04   1.0167470e-05  -1.1464118e-04  -3.2255691e-04  -4.9174554e-04   5.2789116e-04  -1.5517601e-04  -1.4463664e-04  -5.0171977e-04   1.3370176e-04  -8.1047317e-04  -3.6154327e-04  -1.1761952e-04  -1.2808760e-04  -5.2736746e-04  -2.8867647e-04   1.4128535e-04  -1.8851845e-04  -3.9937810e-04  -1.1684998e-03  -1.7668179e-04   2.4853501e-04  -5.5828283e-04  -4.3180821e-04  -3.1050798e-04   6.8752372e-05  -4.1653428e-04  -4.9714163e-06   1.1795792e-03  -4.4169091e-04  -3.0726168e-04   3.1612522e-04  -4.4019736e-04  -6.4807880e-04  -1.2174733e-02  -5.2438444e-04  -3.1121104e-04  -4.2595167e-04   5.2179517e-03   7.6155033e-04  -1.8131209e-03  -7.3873770e-04  -2.3449956e-04  -3.1995936e-04  -3.9447600e-04
  -6.0450475e-05  -1.2398524e-04  -1.4546652e-04  -4.5251465e-04  -2.0319074e-04  -5.9787312e-04  -7.2924973e-05  -6.0992979e-04  -6.1131876e-05  -4.2612304e-04   3.9234973e-04  -1.0604531e-04  -1.2165088e-05  -4.7217068e-04  -2.8715597e-04  -4.0754874e-04  -4.1857079e-04  -3.2275193e-04  -5.3643982e-04  -4.3140506e-04  -2.0667924e-04   1.8159502e-04  -1.6388427e-04  -2.0400014e-04  -4.7637883e-04  -1.9739688e-04   1.3458140e-05  -2.5166009e-04  -2.8722794e-04  -8.0297192e-05  -2.6092032e-04  -1.6995918e-04   7.8157471e-05   1.9899735e-03  -3.8247177e-04  -3.6356971e-04   1.8476964e-04  -4.6299933e-04  -4.9912545e-04   4.2467876e-03  -2.5822161e-04   9.1572379e-05  -6.3651336e-05   6.8771350e-04  -1.8485527e-03   1.3653709e-03   2.7756646e-04   2.1739279e-04   3.1693300e-04   4.4089527e-04
   4.4266810e-04   3.0095878e-04   4.0645522e-04   6.1796047e-05   2.1045578e-04  -8.6353553e-05   2.0619709e-04   1.8414557e-04   2.0647110e-04  -5.9518998e-06   8.2339469e-04   2.6250284e-04   3.8578644e-04  -2.6310966e-04  -3.1244982e-04  -5.5327103e-04  -3.2489499e-04  -3.3691636e-04  -1.0636155e-05  -3.1753094e-04  -1.5912969e-04   3.3302390e-04   8.7123808e-06  -1.9963857e-04  -3.7246905e-04  -1.8560578e-04   4.9258122e-04  -4.2610418e-04  -5.9673603e-04  -4.9722177e-05  -2.2953416e-05  -3.6483974e-04   3.7375151e-04   1.7763099e-03  -2.5809207e-04   1.6025153e-04   2.3826766e-04  -3.7840675e-04  -5.9577607e-04   2.1108568e-03  -2.8315684e-04   5.8965077e-05   8.6220956e-05  -4.7366652e-03   3.7010245e-03   5.0626355e-03   8.3695493e-05   5.6672110e-05  -2.4088379e-04  -2.4938225e-04
   3.1352314e-04   1.7885839e-04   2.1073484e-04  -1.0898484e-04   7.0187831e-05  -3.7674117e-04   2.2139036e-04  -4.6742408e-04   1.5482423e-04  -3.9085382e-04   5.5866170e-04  -5.1358118e-05   8.7330964e-06  -4.4499562e-04  -3.3170720e-05  -5.1802641e-04  -3.6084358e-04  -2.9956884e-04  -3.6548331e-04  -4.4756944e-04  -2.7630251e-04   1.4291755e-04  -2.6573683e-04  -3.5589526e-04  -4.8588816e-04  -2.1816911e-04  -6.0539338e-04  -6.8742339e-04  -7.3544984e-04  -2.0446719e-04  -2.6386318e-04  -3.2527381e-04   2.0620190e-04   1.2376969e-03  -5.9179886e-04  -5.9351856e-05  -2.7140803e-05  -4.0132066e-04  -2.0681157e-04   2.2411393e-02  -4.7201815e-04  -1.8436331e-04  -6.4858951e-04   2.3613879e-03   2.4952395e-03  -2.6023807e-03  -5.2846852e-04  -1.4557947e-04  -1.8043077e-04  -4.8435858e-04
   1.0116727e-05  -7.4867530e-05  -1.5333841e-04  -4.4613349e-04  -1.9596571e-04  -6.2237692e-04  -1.5789624e-04  -7.0469448e-04  -1.3594641e-04  -6.3128065e-04   2.9295127e-04  -2.7417496e-04  -2.4911147e-04  -4.7410320e-04  -3.5067310e-04  -5.0497538e-04  -3.9709461e-04  -2.5510704e-04  -6.2848913e-04  -4.9000984e-04  -2.4045208e-04   1.6799416e-04  -1.2110727e-04  -1.9938537e-04  -6.9836265e-04  -2.4205416e-04  -7.9616293e-04  -1.6056174e-04  -2.6115138e-04  -1.3293915e-04  -2.0183506e-04  -2.0781353e-04   2.0044789e-04   1.7633161e-03  -4.9112248e-04   2.1735628e-04  -8.6681575e-05  -3.4411700e-04  -4.6094175e-04  -1.8789897e-03   9.6251431e-05   7.0373215e-05  -1.2999652e-04   6.0555269e-04   3.7462814e-04  -1.3466142e-03   4.9329014e-04   3.0655728e-04   1.0157124e-05   1.5551707e-04
   4.5723323e-04   3.1046159e-04   3.7697397e-04   5.6515910e-05   2.3321553e-04  -5.8132300e-05   4.0442383e-04   2.7025788e-04   2.0209017e-04   3.9202023e-06   7.9753553e-04   2.9344935e-04  -3.6715341e-05  -4.6498077e-05  -8.8332163e-05  -3.3578541e-04  -3.1757832e-04  -1.0038280e-04  -1.1992863e-04  -3.3856431e-04  -1.7539576e-04   2.3615888e-04   1.3729488e-04  -1.0839702e-04  -5.4390699e-04  -1.6828957e-04  -2.2837505e-04  -2.7436120e-04  -1.5342233e-03  -1.4018885e-05  -9.8944047e-06  -3.7433908e-04   2.2410991e-04   1.3731748e-03  -3.5378788e-04   2.9712191e-04   5.0763990e-04  -4.7169984e-04   3.0264555e-04  -7.9075707e-04  -7.1715500e-04   6.3919797e-05   1.3860529e-04  -2.8627061e-03   8.9967711e-05  -3.1559002e-03   1.2142318e-04   4.0084391e-04  -3.9019742e-05  -1.9327288e-04
   3.1473648e-04   2.0188904e-04   1.8573909e-04  -9.3623115e-05   7.5945194e-05  -3.1792140e-04   8.2642973e-06  -2.2911858e-04   1.4756617e-04  -3.7412919e-04   5.6192913e-04  -1.7047101e-05  -1.2072914e-04  -4.0231846e-04  -3.8204456e-04  -2.8316412e-04  -2.9825929e-04  -1.8425898e-04  -7.1476534e-04  -4.0465227e-04  -2.8268388e-04   1.1124507e-04  -1.9216773e-04  -3.6096803e-04  -5.6658924e-04  -1.7836830e-04  -3.9841143e-06  -8.4476639e-04  -1.3553264e-05  -1.8016913e-04  -1.5172364e-04  -4.8867601e-05   5.0158828e-04   1.4569687e-03  -4.2574844e-04  -3.0634130e-04   1.6828522e-04  -3.7575376e-04  -9.0413709e-04   2.5196098e-02  -3.7113173e-04  -1.9047159e-04  -6.9317030e-05   2.5591145e-03   3.6610297e-03  -6.8969559e-05  -5.4558209e-04  -3.4940935e-05  -1.6620776e-04  -7.4389114e-05
   2.4015708e-05  -5.2984120e-05  -1.8126647e-04  -4.4107693e-04  -1.9446966e-04  -5.1887694e-04  -1.8179289e-04  -5.4268312e-04  -1.0292846e-04  -8.9403475e-04   1.9150425e-04  -4.9173291e-04  -5.9564714e-04  -5.1600009e-04  -3.8814443e-04  -6.5897248e-04  -4.0904418e-04  -1.2079070e-04   4.4467955e-04  -5.2562234e-04  -3.2700101e-04   1.1065691e-05  -1.7980831e-04  -3.4420981e-04  -6.3077308e-04  -2.0021452e-04  -1.7137063e-04  -8.8804765e-05  -1.4230541e-04  -2.1989891e-04  -4.4002297e-04   6.3689535e-05   1.4729550e-04   9.3289465e-04  -3.1278183e-04  -4.5393486e-04   3.3262654e-04  -3.9342351e-04  -3.4609778e-04  -3.1986197e-03  -4.3832752e-04   7.2852417e-05  -2.1880276e-05  -6.2733539e-03  -2.4298590e-03   3.0055374e-03   3.6212415e-04   2.6061677e-04   2.3078099e-04   4.3371602e-04
   4.4239804e-04   3.1700794e-04   3.7003221e-04   9.2720860e-05   2.5678633e-04   3.6291887e-05   2.0992792e-04   1.3165679e-04   2.1594641e-04   7.9455109e-05   8.6173828e-04   3.6859763e-04   3.5988000e-05  -1.9671179e-04  -1.0618664e-04  -2.7950550e-04  -3.2249026e-04  -2.1250980e-04   3.2722615e-04  -3.1274659e-04  -1.7312207e-04   2.3299817e-04   1.0940465e-04  -1.2760171e-04  -4.5065387e-04  -1.5422485e-04   2.1427226e-05   3.5038098e-05  -1.8422991e-04  -4.0637733e-06   2.1638894e-05  -4.8497613e-04   3.2387819e-04   1.6367087e-03  -2.0725219e-04  -5.3151546e-04   5.9489281e-05  -3.1624024e-04   3.6609525e-04  -7.9635013e-04  -2.0471888e-04   1.7673973e-04  -4.6829005e-05  -7.0770257e-03  -3.0207234e-03  -1.2755507e-03   1.9153758e-04   2.6331845e-04   2.1729582e-04   1.1147242e-04
   3.6427507e-04   2.5452941e-04   2.1259265e-04  -3.0825599e-05   1.3441691e-04  -1.2205102e-04  -2.9452256e-05   3.1651757e-04   1.5449789e-04  -2.7390858e-04   6.2936026e-04   5.6038774e-05  -1.4776176e-04  -1.3444519e-04  -6.7112729e-04   1.2568233e-04  -3.3253341e-04  -1.4278642e-04  -2.8476806e-04  -3.6353868e-04  -2.6037544e-04   1.6085750e-04  -1.6599815e-04  -2.2814584e-04  -5.2594021e-04  -1.8626865e-04   3.9731432e-04   6.8075577e-05   2.8551967e-04  -1.4031641e-04  -2.2097853e-04  -4.6371226e-04   8.9895962e-05   1.0956294e-03  -4.1778520e-04   2.0163372e-04  -8.1675069e-04  -4.3116370e-04  -4.2697959e-04   7.2584400e-04   1.5625769e-04  -1.1175940e-04  -2.5172878e-04   3.6561906e-03  -3.6791966e-03   4.8207198e-03  -2.6313111e-04  -2.6368297e-04  -9.4400435e-05  -2.5668275e-04
   4.3689743e-05  -1.5579264e-05  -1.4278923e-04  -3.5284838e-04  -1.2276824e-04  -4.5151805e-04  -1.0989782e-04  -3.4144465e-04  -3.3632157e-05  -7.8588171e-04   2.2587254e-04  -4.0562724e-04  -1.5522199e-04  -6.5661047e-04  -3.3374858e-05  -1.8471241e-05  -4.3176088e-04  -2.6910254e-04  -1.0816902e-03  -5.1777140e-04  -4.1689700e-04  -2.4730858e-05  -4.0544881e-04  -5.0704903e-04  -9.3381730e-04  -3.1203136e-04   7.1218041e-05  -7.7997986e-04  -2.2754942e-03  -4.0309681e-04  -7.8893681e-05  -5.3103530e-04  -2.6470347e-04   1.2731433e-03  -5.4435944e-04  -1.0161855e-04  -6.1152088e-05  -4.2035474e-04  -7.8756038e-06  -3.9713727e-03  -3.7720974e-04   6.9746849e-05  -1.4008960e-04   4.9804240e-03   5.7856697e-03  -1.4475682e-04   3.8686264e-04   2.8951283e-04  -1.3151995e-04   3.6776785e-04
   3.0844612e-04   2.2568397e-04   2.9064511e-04   5.0806593e-05   2.1588663e-04   1.1638366e-06   1.4343276e-04   6.0170487e-04   3.7956255e-04   1.4776013e-04   8.1667013e-04   3.9152396e-04   3.7398704e-04  -1.8302161e-04   1.8338831e-04  -2.1170218e-04  -3.6706458e-04  -2.3400798e-04  -4.1565023e-04  -2.6861223e-04  -1.7989948e-04   2.3906121e-04   1.1994528e-04  -1.2110615e-04  -8.5315946e-04  -2.2515988e-04  -1.1782908e-04   2.0228131e-04   1.7224036e-03   4.1242631e-05   4.1086751e-05  -2.8853622e-04   3.2059921e-04   1.2936788e-03  -3.8489100e-04  -7.9733966e-04   8.6005853e-04  -3.5331640e-04   4.9674622e-04  -2.0458009e-03  -1.7114852e-04   1.6591061e-04   1.3994370e-04   1.4331409e-03   3.8458349e-03  -2.3513727e-03   4.6650230e-04   2.5966452e-04   4.9543491e-04   2.2177074e-04
   3.1610846e-04   2.6257060e-04   2.5386774e-04   6.2277053e-05   2.0056248e-04  -4.5553876e-05   2.7463265e-04   2.7811559e-04   6.2913801e-05  -1.0361354e-04   7.3934015e-04   2.1432490e-04  -1.3150646e-04  -4.7399419e-05  -2.9059214e-04   8.9919835e-05  -3.4703009e-04  -1.5521275e-04  -5.7839767e-05  -2.9002994e-04  -2.4248924e-04   2.0643428e-04  -2.0659443e-04  -2.1824359e-04  -8.5402740e-04  -2.1490884e-04   2.9340930e-05  -1.7335246e-04  -2.2778343e-03  -7.7808225e-05  -1.8718958e-04  -8.2092418e-04   4.1737210e-04   1.8731821e-03  -3.3119853e-04   8.8548048e-05   7.4629243e-05  -3.9677715e-04  -2.2052629e-04   3.9748540e-03  -1.3586094e-04   5.1973675e-05  -1.6899355e-04  -2.1802206e-03  -5.2857753e-03   2.0617589e-03  -4.8506939e-07   5.2291784e-05  -2.4216888e-04  -1.7430969e-04
   4.0770363e-05   1.9296553e-05  -7.3697338e-05  -2.4970178e-04  -8.7262852e-05  -3.5136376e-04  -1.2619676e-04  -4.9149356e-04  -1.0543874e-04  -6.6383934e-04   3.5508780e-04  -2.6974923e-04  -1.4437511e-04  -3.4450984e-04  -4.1781543e-05  -8.7765284e-04  -3.6400708e-04  -9.5938289e-05  -4.3060322e-04  -4.7454666e-04  -4.0133673e-04  -2.8634633e-05  -3.3194822e-04  -4.7183796e-04  -1.2810393e-03  -2.3799048e-04  -2.3864525e-04  -7.0628751e-04  -9.7986928e-04  -3.4106043e-04  -4.2794243e-05  -3.1919018e-04   1.0480273e-05   1.2948457e-03  -4.8734245e-04   3.5927609e-05  -8.9633616e-04  -3.7077663e-04  -1.0004661e-03   1.0725281e-02  -3.9141573e-04  -3.5643351e-04  -3.7418495e-04   2.0163937e-03   2.5059239e-03  -4.9665180e-04  -5.6554651e-04  -3.6961521e-04  -8.3541230e-04  -4.2862596e-04
  -8.7063097e-05  -1.1419860e-04   3.8059425e-05  -1.5864622e-04   1.1274705e-05  -2.7040468e-04  -1.5825265e-04   1.3400189e-04   7.0318478e-05  -5.2709605e-05   6.2135828e-04   2.3727334e-04   1.8727216e-04  -2.2963285e-04   4.0013905e-04  -6.4033992e-04  -3.4223264e-04  -3.7896942e-04  -2.9971530e-05  -3.5963365e-04  -2.5858500e-04   1.0587635e-04   2.6148882e-05  -1.6851367e-04  -7.7487994e-04  -1.2803143e-04   4.4529146e-04  -4.1955427e-04  -3.7712351e-04  -9.4007308e-05   1.8284260e-04  -7.5872353e-04   1.5403405e-04   1.5348818e-03  -4.3642719e-04   6.4909208e-04   7.0556671e-05  -3.1436546e-04  -3.1450536e-04  -1.4155840e-03  -3.6462003e-04   1.4046556e-04  -2.8549993e-04  -2.6473419e-03   2.0112845e-03   4.9012550e-04   1.5323354e-04   1.7996031e-04   9.9623685e-05   8.9764253e-06
   1.7459715e-04   1.9781631e-04   2.2157079e-04   3.4150638e-05   1.3377877e-04  -1.4537055e-04   6.3118103e-05   1.7982892e-04   3.0800054e-04  -1.3764806e-04   6.7276141e-04   1.8364855e-04   1.7920473e-04   5.8207446e-05  -3.1603861e-04  -4.0005156e-04  -2.7423768e-04  -3.4404974e-04  -5.9984606e-05  -3.3492205e-04  -2.5803075e-04   7.2598581e-05  -1.0056084e-04  -3.7494319e-04  -2.6704723e-04  -1.0713228e-04   1.3131552e-04  -5.8014510e-04  -1.0786125e-03  -5.6744593e-05   1.7855943e-06  -5.9443281e-04   1.5658411e-04   2.3471049e-03  -4.7573741e-04  -1.7547644e-04   4.1189778e-04  -3.0261403e-04   1.1244398e-05   1.1165220e-03  -7.0112635e-04  -1.1004096e-04   2.0446588e-04  -4.1064913e-03   4.4043618e-04  -1.1707622e-03  -1.4290110e-04   6.8041314e-05   5.9022434e-05  -4.3952832e-04
  -4.3412747e-05   1.8741363e-05  -3.1739222e-05  -2.1470565e-04  -8.9520479e-05  -4.0225353e-04   1.9554277e-04  -3.5464304e-04  -4.2999929e-04  -6.4299104e-04   3.6722919e-04  -2.5742920e-04  -2.5128378e-04  -4.6783211e-04   1.3973017e-04  -2.8945378e-04  -2.9542291e-04  -2.1081293e-04  -4.1726249e-04  -4.7051220e-04  -3.9669211e-04  -8.6356435e-05  -3.6285815e-04  -4.6127304e-04  -5.6429656e-04  -9.7361859e-05  -8.0056582e-04  -6.7253766e-04  -1.6530820e-03  -3.5285467e-04  -1.9458185e-04  -3.4440725e-04  -2.7937745e-04   9.8434556e-04  -5.3115329e-04  -1.0097404e-04  -5.4593472e-04  -3.6715314e-04  -4.6002260e-05   5.0245663e-03  -3.7574462e-04  -4.0372610e-04  -4.0159418e-04  -8.5975854e-03  -1.9105999e-03  -1.8624209e-03  -7.2943472e-04  -2.9330916e-04  -5.3795322e-04  -9.5507654e-04
  -3.3523186e-04  -2.3336607e-04  -1.7153272e-04  -3.3262980e-04  -1.7665695e-04  -5.1631877e-04  -3.3213734e-04  -3.6035202e-04  -1.2691351e-04  -2.6914090e-04   4.3933638e-04   5.9466827e-05  -2.0706064e-04  -3.4149649e-04  -2.7957628e-04  -3.6072059e-05  -3.1061054e-04  -1.6827967e-04  -4.4511890e-04  -3.9599056e-04  -2.9010695e-04   3.1387448e-05  -1.0264041e-04  -2.5709419e-04  -7.8109122e-04  -1.3864103e-04  -2.3505649e-04  -1.4264834e-04   1.2125222e-03  -1.6626787e-04  -2.5562290e-04  -9.4529561e-04   1.3718593e-04   1.1508568e-03  -5.5571791e-04  -2.9670462e-04   2.4387173e-04  -3.0453206e-04   1.6431420e-04  -7.3316024e-04  -6.9192713e-05   5.1171748e-05  -4.7660684e-05   7.4755698e-03  -3.1669019e-04   1.5626975e-03   7.7822464e-05   1.1926497e-04   1.8576584e-04  -1.7751026e-05
   4.1178868e-05   1.2722920e-04   1.8193526e-04  -2.3399718e-05   3.9463092e-05  -3.0127709e-04  -1.7967611e-04  -1.5626535e-04   2.0882471e-05  -2.5143396e-04   6.1720028e-04   9.1349561e-05   1.9929114e-04  -4.1743147e-04  -5.4692209e-04  -8.9293165e-04  -2.2996245e-04  -2.3168295e-04   2.8754087e-04  -3.6268900e-04  -2.8953713e-04   2.9697734e-05  -6.6845532e-05  -2.5776101e-04  -5.1649008e-04  -7.9303936e-05   1.6303475e-05  -5.9722894e-04   1.0325321e-03  -1.5556569e-04  -3.1240011e-04  -2.8817760e-04   4.4139302e-05   1.0264330e-03  -3.6075799e-04  -7.4983190e-04   7.0786697e-04  -2.7842101e-04  -5.8381120e-05  -2.0072265e-03  -4.4910016e-04  -1.4195504e-04  -2.0188553e-04  -1.5685847e-02  -1.8074977e-03  -6.1205804e-04  -2.7979986e-04   5.3871190e-06  -3.7821438e-04  -2.6080057e-05
  -1.4051596e-04  -3.5102403e-05  -3.2412176e-05  -2.2802435e-04  -1.4730431e-04  -4.9951085e-04  -1.3533664e-04  -6.7296723e-04  -1.1280129e-04  -7.3666743e-04   2.8949903e-04  -3.1191157e-04  -6.0324580e-04  -5.9679826e-04  -1.9302676e-04  -4.7876348e-04  -2.6973567e-04  -1.7057171e-04  -1.0757097e-04  -5.3102174e-04  -4.0057764e-04  -6.9073991e-05  -2.6851683e-04  -4.9894315e-04  -1.2542346e-03  -1.1230401e-04  -9.7647385e-04  -6.9851126e-04  -1.1430886e-03  -3.5730592e-04  -2.7851792e-04  -3.4041164e-04  -3.4979405e-04   1.0625790e-03  -7.1340107e-04  -5.4090866e-04   4.1026222e-05  -4.2493001e-04  -9.9477486e-04  -5.5304863e-03  -6.2453299e-04  -4.6134039e-04  -6.2792198e-05   2.2079030e-04   1.4895229e-03  -1.9781073e-03  -4.4335864e-04  -3.8421678e-04  -1.1386324e-04  -1.4241649e-04
  -1.2745362e-04  -6.9431451e-05   1.8904178e-04  -6.5108317e-05   2.5236443e-05  -2.9673384e-04  -1.8090467e-06  -4.0777802e-05   2.0972638e-04  -7.0800088e-05   6.2930852e-04   2.2585002e-04   1.0904497e-04  -6.3965927e-05  -6.4247339e-05   1.8163193e-04  -2.8539612e-04  -3.0965838e-04  -2.7883553e-04  -3.3863337e-04  -2.3853449e-04   1.1684251e-04  -1.3638948e-05  -1.7004783e-04  -7.8201288e-04  -4.8242196e-05   2.3597991e-04  -6.0096034e-04  -1.2607445e-03  -1.1592272e-04   2.0274545e-05  -9.5916017e-05   3.3266551e-04   1.5724695e-03  -4.5416423e-04  -2.2639720e-04   3.9881130e-04  -4.0468940e-04  -2.8870414e-05  -5.9425528e-03  -3.7473417e-04   5.1158436e-06   6.9687318e-05  -6.6316179e-03   8.7877730e-04  -1.4103381e-03   2.3229537e-04   1.6023900e-04   6.9523398e-05  -7.9619749e-05
   8.9595225e-05   1.3942305e-04   3.0018459e-04   3.9236140e-05   8.3386345e-05  -1.8782070e-04   1.1778172e-04   2.2657884e-04   1.7205642e-04  -2.0738748e-04   6.3754938e-04   1.3058905e-04   1.3503589e-05  -1.5070196e-04  -3.0380339e-05   1.9258210e-04  -1.9280295e-04   4.3158215e-07  -6.2714022e-04  -2.8320277e-04  -2.5007874e-04   8.8447290e-05  -1.2122716e-05  -2.5678746e-04  -2.4728256e-04  -5.8135811e-05  -1.5998028e-04  -3.9497160e-04   3.2605205e-04  -1.4736931e-04  -3.4535371e-04  -4.6317352e-04  -2.8666784e-04   1.6140918e-03  -4.1357530e-04   1.3542920e-04  -2.6429718e-04  -3.7029324e-04   5.3466723e-04   2.0506985e-03  -2.2229263e-04  -1.6046879e-04  -2.8412152e-04   2.1176198e-03   8.8476884e-04   1.4644252e-03  -1.9514261e-04   3.6717694e-05  -1.8140531e-04  -3.8361899e-04
  -5.6545141e-05  -2.1826458e-05   6.1274433e-05  -1.9246590e-04  -1.1498784e-04  -5.2469206e-04  -1.3130612e-04  -5.3394068e-04   7.3668700e-05  -7.0303137e-04   2.7428218e-04  -2.9044182e-04  -3.1867163e-04  -4.8943138e-04   2.7652870e-05  -5.8394717e-04  -2.9288128e-04  -1.3602008e-04  -7.3973460e-08  -4.7974905e-04  -3.8466492e-04  -1.4293421e-04  -2.5477415e-04  -5.1591144e-04  -1.0154366e-03  -9.6141855e-05  -4.4562347e-04  -9.1630116e-04  -1.0892943e-03  -3.6175427e-04  -6.3842471e-04  -1.7370873e-04  -3.6236495e-05   1.5028899e-03  -2.4629899e-04   7.5634233e-07  -7.6012599e-05  -3.7777692e-04   8.0511621e-05   5.5221729e-03  -3.5503882e-04   6.2270169e-06  -1.4215498e-04  -5.7647717e-03   8.4733235e-04   6.3256826e-04   3.2255086e-04   4.8191211e-04   2.6071424e-04   8.9589783e-05
   2.8762920e-04   2.4184497e-04   5.2989210e-04   2.2321749e-04   2.4513406e-04  -8.2474326e-05   2.1278771e-04   2.7090605e-04   4.3829874e-04   1.6507333e-04   8.3109504e-04   4.3212032e-04   2.6620927e-04  -1.0125437e-04  -1.7660364e-05  -1.1467456e-04  -1.8765499e-04  -7.0329166e-05   2.9599008e-05  -1.5830091e-04  -1.3018209e-04   1.8076506e-04   1.3685015e-04  -7.8926503e-05  -4.5579657e-04  -2.5805068e-05   1.5488410e-04  -6.2184357e-05  -2.4570190e-04   7.6280812e-05   2.2671891e-04   3.3165040e-04   1.2963613e-04   1.6498982e-03  -2.8958256e-04  -3.4633056e-05   2.8300993e-04  -3.4171666e-04   6.2077411e-04  -1.4740378e-03  -1.9918477e-04   1.4239570e-04  -8.6735912e-05  -2.4349280e-03  -4.0154811e-03  -5.2289909e-04   4.1409789e-04   6.6353701e-04   1.2533170e-04   1.3909368e-04
   3.6520930e-04   2.8436273e-04   5.2682648e-04   2.1920004e-04   2.2094751e-04  -7.5820499e-05   2.2841481e-04   8.9549387e-05   1.2761161e-04  -7.6476994e-05   7.5433590e-04   2.3964947e-04   6.2655236e-05  -2.1322169e-04   2.1277960e-04  -4.1100281e-04  -1.7374397e-04  -2.4057155e-04   3.6633527e-04  -2.1279916e-04  -1.8128767e-04   1.6351168e-04   7.2470466e-05  -1.1362779e-04  -3.5519496e-04  -1.9688303e-05   6.1385811e-04  -2.2854461e-04   1.7722136e-03  -5.2656454e-05   2.4797223e-04  -1.4645168e-04   2.1178425e-04   1.6594040e-03  -5.1489897e-04  -5.4179359e-04   7.8545074e-04  -4.0012214e-04  -7.3776857e-05  -3.6089441e-03   2.4407200e-05  -5.0155049e-05  -3.3111309e-04  -8.4453318e-03  -7.9375226e-05  -1.0615824e-03   1.5712046e-04   5.2879984e-04   2.5781576e-04   1.2092721e-04
   1.9002364e-04   7.6943943e-05   2.2573155e-04  -6.1099709e-05   1.4305456e-05  -4.0236261e-04  -2.3999075e-04  -2.2199056e-04   8.9072608e-05  -5.6695286e-04   4.2261006e-04  -1.7125894e-04  -2.9113342e-04  -5.5389170e-04   1.1087486e-04  -7.8704517e-04  -2.2394386e-04  -2.2593817e-04  -3.8547409e-04  -3.0186042e-04  -2.8067670e-04   1.3530086e-05  -4.9694005e-05  -3.0839141e-04  -2.6625747e-04  -1.0199055e-04  -1.9859384e-04   7.9167257e-05   2.3609595e-03  -1.3999149e-04  -5.4716289e-05  -7.8315279e-05   2.2373475e-04   1.7093237e-03  -1.5776930e-04  -6.0404517e-04   2.3362890e-04  -3.0205390e-04   7.5930839e-05  -2.6851068e-03   1.6425160e-04   1.9900234e-04   2.2831016e-04  -2.6408650e-03   1.1211541e-03  -1.0743762e-03   7.7024207e-04   8.9869165e-04   3.4110795e-04   5.6290580e-04
   6.3345541e-04   4.2838466e-04   7.7218888e-04   4.3390322e-04   4.4247587e-04   2.1688134e-04   4.7973273e-04   1.1088403e-04   4.9043342e-04   4.0990906e-04   1.0388418e-03   6.4945203e-04   4.7652042e-04   2.8979729e-04   2.7328602e-04   4.2521663e-04  -7.3108582e-05  -2.4697840e-05   9.4572222e-04  -2.0061554e-05  -4.6740308e-05   2.9231538e-04   2.9282560e-04   1.6714558e-04   2.8826069e-04  -2.7849654e-05   5.1052866e-05   5.5468437e-04   2.1434522e-03   2.5213588e-04   1.5950289e-04  -1.1081935e-04   3.3342332e-04   2.0881165e-03  -2.0943103e-04   1.6915741e-04  -3.5056032e-04  -2.8183355e-04   2.2348457e-04   5.7935463e-03   3.1011608e-05   2.8703408e-04   2.3615813e-04  -2.6934561e-03   1.0479843e-04   1.5605382e-03   7.6176797e-04   5.1770621e-04   7.7534246e-04   3.1140915e-04
   6.8795827e-04   4.3871164e-04   6.8705459e-04   3.7278680e-04   3.9063956e-04   1.0608391e-04   4.7618081e-04   8.1459140e-05   3.7933385e-04   9.0966627e-05   8.7906071e-04   3.7720238e-04   4.7360233e-04   1.5672695e-04   2.0305600e-04   3.4482271e-04  -4.8165963e-05   1.4959586e-05   1.6412318e-04  -2.1144308e-05  -1.2662399e-04   2.1932532e-04   2.7376800e-04   5.1141302e-05   1.2772344e-05   3.4554389e-05  -1.7862070e-04  -2.6401074e-04  -5.1922292e-05   1.2327863e-04  -4.1077401e-05   4.8778439e-04  -1.4362773e-05   2.0577584e-03  -2.8677075e-04  -2.6944914e-04   1.1749963e-04  -2.8412443e-04   2.5515252e-05   1.2226691e-02  -2.0804584e-04   1.7295890e-04   1.0473835e-04   1.4768566e-03   1.2147838e-03  -2.8667590e-03   3.2393503e-04   2.8235363e-04   3.1927513e-04   2.3931715e-04
   4.5714615e-04   2.2562550e-04   3.7345340e-04   8.6122120e-05   1.5092967e-04  -2.1203409e-04   1.2003442e-04  -1.1050361e-04   1.0612298e-04  -3.9644731e-04   5.5143517e-04  -4.1619031e-05  -8.5876491e-05  -2.8534373e-04   1.7960454e-04  -2.3251626e-04  -1.0998752e-04  -1.3565517e-05   1.9972518e-04  -2.2791927e-04  -2.8246985e-04   1.3566711e-05  -4.2116302e-05  -1.6947975e-04  -3.4373082e-04  -3.6303652e-05  -2.0467248e-04  -1.5969254e-04  -5.6383346e-05  -8.3451530e-05  -1.5035989e-04  -1.6429444e-04   3.5757120e-04   1.2081972e-03  -2.0165453e-04  -2.6530316e-04   1.3710927e-04  -2.6004435e-04  -5.1976298e-05  -1.0016403e-03   2.3508049e-04   2.4650642e-04   4.9197541e-05   2.2209482e-03  -3.7402268e-03  -1.4158590e-03   8.6721109e-04   7.4873754e-04   5.8222754e-04   6.4685068e-04
   7.6267467e-04   4.6763389e-04   7.5676944e-04   4.4182871e-04   4.6861137e-04   3.4335177e-04   5.3813611e-04   5.3226715e-04   7.4285321e-04   4.2672345e-04   1.0929521e-03   6.3827948e-04   5.3663593e-04   4.9256504e-04   3.9244333e-04   7.1475733e-05  -2.0431522e-05   2.4190218e-04   3.3211298e-04   9.2435897e-05  -4.7646852e-05   2.7781786e-04   3.3876114e-04   3.2556642e-04   3.1004078e-04   8.8079614e-05   4.9548311e-04   1.0788706e-04  -1.3960993e-03   3.4579955e-04   5.2906922e-04   5.1925326e-04   5.2357838e-04   2.0117415e-03  -3.5227870e-04   4.8624998e-04   4.7560022e-04  -1.7959821e-04  -3.0547476e-04  -9.6412702e-03   2.8650096e-04   4.2620848e-04   4.3675714e-04  -8.7467385e-03   8.4704033e-04  -2.9440969e-03   8.3842117e-04   1.0287510e-03   7.0138706e-04   5.8999140e-04
   8.2236016e-04   5.2642246e-04   7.0855574e-04   4.3405726e-04   4.5057182e-04   2.1658634e-04   4.0312728e-04   8.2343060e-04   4.8495264e-04   1.4680643e-04   9.4199309e-04   4.5145274e-04   4.9574691e-04   4.9702945e-04   3.7745872e-04   5.1619147e-04   4.3213910e-05   1.5245596e-05   1.4583218e-04   2.9448138e-05  -1.2719813e-04   1.9065122e-04   2.8182621e-04   1.8574888e-04   1.8829518e-04   1.3513457e-04   2.3601235e-05  -2.8169280e-04  -6.6639908e-04   2.3803873e-04   1.1374383e-04  -1.4932224e-04   2.1228175e-04   1.3459141e-03  -1.6004610e-06   3.2339946e-04  -1.7283375e-04  -1.7954122e-04   7.7695708e-04  -7.3894514e-03  -1.0066021e-04   1.6560008e-04   8.2610764e-05   6.5538642e-04   7.2867831e-04  -7.8202499e-04   2.5372137e-04   8.9481816e-04   3.0529528e-04   4.9753836e-04
   5.5128412e-04   2.9678125e-04   3.9149437e-04   1.2357312e-04   2.1004280e-04  -5.3648728e-05   1.6281525e-04  -1.1937905e-04   2.1501785e-04  -3.7707208e-04   5.9284276e-04   1.3833022e-05  -1.2742745e-04   1.0913338e-04  -3.0898844e-04   3.2811600e-05  -2.0986103e-05  -3.7042886e-05   5.0435428e-06  -1.6487554e-04  -2.9252408e-04  -2.5017414e-05   1.5568001e-04  -1.5943473e-04  -5.3985900e-04   6.1761115e-05   2.3260967e-04  -2.3596072e-06   2.2169249e-03   2.5627987e-05  -1.0203841e-04   1.9094064e-04   2.1534835e-04   1.6297479e-03  -2.2905547e-04  -6.6190143e-04   1.8289425e-04  -2.5931577e-04   9.6181646e-04   5.8185989e-03  -9.9746663e-05  -2.9719413e-05  -1.0528271e-04  -1.4089441e-03   3.0543536e-04  -1.4385617e-04   1.4829580e-04   3.9567464e-04   5.9509854e-04   6.4082368e-04
   6.3080050e-04   3.5517424e-04   6.0751807e-04   3.2681640e-04   3.8443494e-04   2.2900468e-04   5.5124291e-04   3.7951526e-04   4.7040600e-04   2.2828139e-04   8.8256330e-04   5.0960935e-04   4.3606883e-04   3.7500475e-05  -4.9305818e-04   6.3133804e-04   1.3850505e-05   1.0518771e-04   5.4846081e-04   1.1320129e-05  -1.3957483e-04   1.3359575e-04   2.6748393e-04   1.8336688e-04   2.3205635e-04   1.2114854e-04   4.4058225e-04   1.2881380e-04  -8.7824115e-04   3.0649372e-04   2.1758940e-04  -5.3687947e-04   2.9042980e-04   1.7857616e-03  -8.0878774e-05   2.9616748e-04   9.3704890e-05  -1.8382458e-04  -1.3861041e-04   2.1823561e-03   4.1367461e-05   3.6420469e-04   3.2185047e-04   5.7644136e-03   4.1212030e-03   3.7383726e-03   6.0753879e-04   9.7300397e-04   1.0443918e-03   3.8235370e-04
   7.0067996e-04   4.8260085e-04   5.9384236e-04   3.5365854e-04   3.9754249e-04   2.8607552e-04   4.0559631e-04   4.0428992e-04   5.5964204e-04   7.9377416e-05   8.5658696e-04   3.8806201e-04   5.8810052e-04   3.6020402e-04   3.4996421e-05   1.3486952e-04   7.5836004e-05   1.4038717e-04  -1.8633067e-04  -2.7120555e-05  -1.9665294e-04   5.9127186e-05   3.0294381e-04   5.0556471e-05  -2.3678699e-04   7.7586265e-05   1.2549605e-04  -2.6512094e-04  -2.2658275e-04   2.7648263e-04   3.0226621e-04  -8.9902809e-04   3.0886166e-04   1.5176202e-03  -1.9942089e-04   1.4155739e-04   6.5538334e-04  -2.2594169e-04   1.0185996e-03   4.8099686e-03  -5.4176453e-05   2.0141415e-04   4.4504023e-04  -3.8603998e-03  -6.3316426e-03   8.5176708e-04   4.7832946e-04   5.8117165e-04   5.4138253e-04   4.0891120e-04
   4.6642998e-04   2.7808422e-04   2.8058383e-04   9.2224473e-05   1.6599143e-04  -3.3525503e-05   1.1086178e-04   3.0581086e-04   1.5599751e-04  -4.1739270e-04   5.0997466e-04  -3.2037304e-05  -8.9101042e-05  -1.9269693e-04  -5.8706023e-04   4.2670144e-04  -3.5702717e-05  -9.3532333e-05  -4.2193863e-04  -1.6932002e-04  -3.5701657e-04  -1.0890663e-04   5.8485708e-05  -1.2179740e-04  -2.9516080e-04  -3.2527158e-05  -6.6783672e-05  -9.2594884e-04   3.9086054e-04   4.0073210e-05   2.3508612e-04  -1.8797489e-04   1.6402245e-04   1.4096757e-03  -8.3903316e-05   1.0445590e-04  -2.8323356e-04  -2.4143653e-04  -1.1907464e-05  -5.4927506e-03  -5.9095316e-04  -2.4206536e-06  -7.5439712e-05  -6.0768740e-04  -2.5596330e-03   8.3543878e-04  -7.0898517e-05   1.9429535e-04   9.4966621e-05   4.3311817e-04
   3.1086896e-04   1.4131599e-04   3.3398272e-04   1.2855376e-04   2.2805290e-04   2.2384716e-05   7.3642754e-05   9.9086647e-05   1.7506474e-04   9.0277994e-05   7.5450429e-04   3.7891837e-04   4.1979909e-04  -7.4311442e-06   1.2466163e-04   1.5041309e-04  -9.1730981e-05  -9.7631761e-05   2.1625440e-04  -8.8417575e-05  -2.5181228e-04  -1.0528206e-05   2.8450170e-04   5.7707970e-05  -3.7129704e-04  -1.7570014e-06   2.3432658e-04   3.4745317e-04   8.3183771e-04   2.7483102e-04  -9.1494745e-05   7.5078501e-06   9.2836883e-05   1.3909178e-03  -6.4639935e-05   1.2194737e-04   1.4312319e-04  -2.3778484e-04   5.2615582e-05  -3.6731185e-03   1.6802076e-04   3.4694475e-04   4.7387794e-04   3.9193751e-03  -2.0052122e-03  -6.0731650e-04   7.8844395e-04   5.8711582e-04   2.4513339e-04   8.4416644e-04
   5.3665595e-04   3.9505266e-04   4.6222375e-04   2.8333621e-04   2.9482701e-04   2.0136015e-04   3.5539555e-04   5.7121296e-04   4.3095250e-04  -7.5623698e-06   7.5305736e-04   3.0835962e-04   3.9255299e-04   3.5308800e-05  -4.6490011e-04   8.3618608e-05  -7.2371149e-05  -3.7665191e-05   4.3559461e-04  -1.2227107e-04  -2.6561049e-04   1.4458431e-05   2.7243159e-04   1.3419542e-05  -1.5750578e-04  -1.3189356e-05   1.8366103e-04  -4.7599370e-04   4.2711035e-04   2.4374720e-04   3.2453325e-05   1.9205609e-04   9.1501504e-05   1.5703579e-03  -2.5381561e-04  -7.2679936e-04   8.3149457e-04  -2.4919314e-04  -2.7434356e-04   3.9188764e-03  -1.6078229e-04   1.9809726e-04   4.0821097e-04   3.0842822e-03   5.1967395e-03  -1.6441457e-03   3.3348915e-04   6.2985928e-04   6.2451657e-04   6.0811971e-04
   3.5381474e-04   2.3233739e-04   2.2303184e-04   6.5352695e-05   1.1775924e-04  -7.2035844e-05   1.2497569e-04  -1.0529217e-04   1.5057407e-04  -4.1959109e-04   4.8230597e-04  -6.2546860e-05   7.9873236e-05  -1.2177887e-04  -3.2810823e-04  -1.7146060e-04  -1.3352851e-04  -8.9324560e-05  -1.5265678e-05  -2.5304599e-04  -3.9655747e-04  -1.9288294e-04   7.4635907e-05  -2.4566145e-04  -7.1760302e-04  -3.4254303e-05  -2.2141357e-05  -6.8161410e-04   2.1948406e-04  -3.7199545e-05  -2.4451717e-04  -1.7288468e-04  -1.0584557e-04   1.5689832e-03  -2.4316608e-04  -2.4183588e-04  -1.5738005e-04  -3.0388322e-04   4.0821405e-04   2.1026137e-03  -1.9754402e-04  -6.5904525e-05  -4.7939542e-05  -2.8684228e-03   4.0728087e-03  -2.0753508e-03   3.6477385e-04   7.3094910e-04  -8.9595896e-06   4.2432823e-04
   4.1442979e-04   2.7108358e-04   4.6275862e-04   2.5641482e-04   2.7302108e-04   1.4901184e-04   2.4538976e-04   2.4044969e-04   2.3670269e-04   1.4975997e-04   8.0643519e-04   4.1716741e-04   1.1402437e-04   2.7764146e-04  -7.6513883e-05  -1.5705683e-04  -1.1556671e-04   6.5763728e-05   2.2943701e-04  -9.1011767e-05  -2.2097678e-04  -3.5328645e-05   3.9165531e-04   5.9356091e-05  -2.1078496e-04   1.3453738e-05   2.8037975e-04   4.3263691e-04   2.6063641e-04   2.4046915e-04  -5.6048553e-05  -9.9056197e-05   2.9647842e-04   1.7524033e-03  -2.9598441e-04  -3.1911934e-04   3.8021186e-04  -2.4110943e-04   3.3394055e-04  -3.9655180e-03  -1.4876861e-04   3.3225177e-04  -3.3273649e-05  -3.2055166e-03   3.5185080e-03   1.9199670e-03   7.6067244e-04   8.3463232e-04   5.6559453e-04   7.3680386e-04
   5.0694542e-04   4.0279407e-04   5.2632636e-04   3.5116400e-04   2.9277519e-04   1.0716686e-04   3.3111940e-04   5.9580128e-04   4.4711729e-04   3.1138843e-05   8.1083120e-04   3.4836549e-04   1.1925284e-04   5.6951871e-05  -2.4573057e-04  -1.4209020e-04  -8.8392488e-05  -7.6074895e-05  -2.3214299e-04  -1.1848107e-04  -2.3931143e-04  -3.6328420e-05   1.5183045e-04  -4.9555267e-05  -3.2520146e-04   3.9679759e-05  -4.1493906e-05  -5.5175638e-05  -1.9640480e-03   1.8838006e-04   1.3910778e-04  -4.4153578e-04   1.6211762e-04   1.4876650e-03  -1.8959696e-04  -3.0809798e-04   5.9077363e-05  -3.2591331e-04   3.2020273e-04   1.5006107e-03  -1.4922229e-04   1.4602681e-04   2.0727505e-04   9.8776305e-04   2.4341047e-03  -3.8682157e-03   2.7937192e-04   6.2543555e-04   5.7217933e-04   5.3232251e-04
   2.7943196e-04   1.9797101e-04   2.6323824e-04   1.0490896e-04   7.6893768e-05  -2.0885725e-04   1.0889852e-04  -1.8492762e-04   1.1529138e-04  -4.6427737e-04   4.5584398e-04  -7.4776719e-05  -1.1668396e-04  -3.1330893e-04  -3.8985125e-04  -4.5437316e-04  -1.7345077e-04  -7.0192138e-05   7.2531351e-05  -3.0393698e-04  -3.6278949e-04  -1.8699683e-04   6.7115565e-05  -3.1633873e-04  -4.0562890e-04  -2.9656820e-05  -5.7612377e-04   9.9080418e-05   1.1169960e-03  -9.2148504e-05  -3.0631621e-04  -4.6983693e-04   5.0382208e-05   1.2741606e-03  -3.7864709e-04  -2.2973174e-04  -1.5685745e-04  -2.7359795e-04   4.9900869e-04  -8.4653817e-04  -7.4402851e-05  -2.0536548e-04  -1.1540038e-04   5.6143343e-03  -3.9224881e-03   4.4087912e-03   4.6055976e-04   5.9979467e-04   4.0539360e-04   1.3406306e-04
   3.8001756e-04   2.6090583e-04   5.4924062e-04   3.3582270e-04   2.6960092e-04   6.0639199e-05   4.2469279e-04   2.4807663e-04   5.4878689e-04   1.9591654e-04   8.7286433e-04   4.5677891e-04   2.9325482e-04   3.7301801e-05   2.3424602e-04   3.0484668e-04  -1.7386305e-04  -4.1870750e-05   4.3079001e-04  -9.5944866e-05  -1.6018987e-04   5.6083565e-05   3.9652293e-04   1.6731370e-05  -3.6993582e-04   1.2795342e-05   2.4957836e-04   2.0782818e-04   2.1770211e-05   2.2736224e-04  -8.2495171e-05  -9.0844266e-04   6.1856052e-05   1.6274143e-03  -2.7000008e-04   2.3278699e-04   7.5324310e-04  -3.3819399e-04   4.7387657e-04  -3.4943679e-03  -5.3259899e-04   2.9548863e-04   5.3589261e-04  -9.1866786e-03  -6.9691933e-04  -4.6190256e-03   8.5458695e-04   1.0346381e-03   6.3552422e-04   1.0846065e-03
   5.5263517e-04   4.0854883e-04   6.9504208e-04   4.6390251e-04   3.2117011e-04   5.0588318e-05   3.2925387e-04   8.8919885e-05   4.0421789e-04   1.0670249e-04   8.8168529e-04   3.9467603e-04  -3.4549008e-05  -3.9663806e-05  -4.3300352e-05  -1.4391350e-05  -1.2192832e-04   2.8578593e-06   3.9135310e-04  -1.3277539e-04  -1.5542477e-04   2.8227971e-05   1.6566366e-04   2.2460321e-05  -2.6867297e-04   2.2861963e-05  -3.4677671e-04   1.8351385e-04  -4.9344893e-04   1.6773719e-04  -7.3532938e-05   4.4450356e-04   3.6741802e-04   7.7554607e-04  -4.3027446e-04   3.7097247e-04   1.7766186e-04  -3.3432330e-04   1.0230880e-03   3.2113334e-03  -3.7732225e-05   1.5673027e-04   4.2438671e-05  -3.4052116e-04   7.4278674e-04  -1.2248426e-03   3.5773512e-04   5.4754247e-04   7.1380091e-05   6.8760390e-05
   3.5040919e-04   2.0500024e-04   4.3918623e-04   2.0665453e-04   9.2212416e-05  -1.6780623e-04   1.9780532e-04  -2.1381371e-04   7.7023993e-05  -3.9407960e-04   4.9809815e-04  -3.4719411e-05  -3.3256790e-04  -6.9946999e-04   2.1932882e-04  -8.9437340e-04  -1.5449223e-04  -6.1029070e-05   2.2434894e-04  -3.0084790e-04  -3.0467505e-04  -1.1916718e-04  -1.0117743e-04  -2.9803423e-04  -1.1047466e-04   2.6283074e-05   2.8695521e-04  -5.4293562e-04  -8.0335542e-04  -1.1433844e-04  -6.7328842e-04   5.0086231e-04   1.6072276e-04   1.0666844e-03  -4.7404791e-04  -2.2540463e-04   6.3776516e-04  -2.8318621e-04  -1.0247296e-04  -1.1406280e-02  -5.8365188e-04  -1.4369134e-04  -2.1846514e-04   1.2083401e-03   2.2485836e-03  -5.5181212e-03  -1.9352010e-04   2.0437228e-04  -2.7021073e-04  -2.5800310e-07
   1.8689827e-05  -6.9318827e-05   1.3661377e-04  -9.7280659e-05  -1.1194265e-04  -3.5790060e-04  -1.1572579e-05   3.9024457e-05   1.4169292e-05  -2.9497701e-04   4.1119929e-04   1.7288261e-05  -3.2520236e-04  -6.9410709e-04  -2.6966294e-04  -5.9961900e-04  -2.2071706e-04  -7.5916185e-05  -4.7131046e-04  -2.6407387e-04  -2.1262735e-04  -6.9558133e-05   1.1243670e-04  -1.3987571e-05  -4.1914632e-04   2.7183989e-05  -1.9522234e-04  -4.7969414e-04   1.4039029e-03   6.8061995e-06  -1.0488948e-04  -4.0337298e-04   2.8545820e-04   8.9016277e-04  -1.4853280e-04   2.8485703e-04   2.9756641e-04  -2.7962378e-04   1.2989019e-03  -1.8130396e-02  -1.8664025e-04   1.8019704e-04  -1.3474227e-04   2.5899373e-03  -2.7499872e-04   1.3521928e-03   9.2546979e-04   1.0083586e-03   8.5730432e-04   6.0547242e-04
   5.4741156e-04   3.7046970e-04   7.6189864e-04   4.5152477e-04   2.9907475e-04   1.8618957e-06   3.3162034e-04   7.4104937e-05   1.7277677e-04   7.1642600e-05   7.8670634e-04   3.4799645e-04   1.2539316e-04  -3.2964069e-04  -4.7820973e-05   2.1272535e-04  -1.5832655e-04  -2.2997441e-04   1.3347549e-04  -1.6812320e-04  -1.3341921e-04   4.4905548e-05   1.9053699e-04  -3.3438278e-05  -3.8839618e-05   3.9813458e-05  -1.3264772e-04  -1.3978156e-04  -1.2099153e-03   8.8203080e-05  -3.8500331e-04  -2.4347825e-04   7.1299924e-05   1.1627956e-03  -3.7448388e-04  -1.6606686e-04   2.2412646e-04  -3.2118289e-04  -2.8196623e-04  -5.5060335e-03  -3.5120960e-04   1.5756495e-04   5.8776368e-06  -2.6289760e-03   8.8080607e-04   2.1025285e-03   5.7703326e-04   5.4863148e-04   3.7863682e-04   2.2978950e-04
   3.9764322e-04   2.2302486e-04   5.7280582e-04   2.3944532e-04   1.3220064e-04  -1.1784027e-04  -1.5882946e-05  -6.5099433e-05   3.3881210e-04  -3.6955267e-04   5.4657162e-04   7.1010581e-06  -5.6000368e-04  -4.9019413e-04  -3.0836149e-05  -5.1919557e-04  -2.1194377e-04   4.9579998e-05  -3.3410219e-05  -2.7134182e-04  -2.4846947e-04  -8.7097680e-05   7.9295860e-05  -2.1189402e-04  -6.0144597e-04   3.0627234e-05  -5.7576358e-04  -5.6399062e-04   3.2413780e-04  -1.4009677e-04  -3.2659323e-04  -4.9641769e-04   9.6705393e-05   1.3549717e-03  -5.6409603e-04  -6.8753643e-04  -2.0093285e-04  -3.2919733e-04  -1.0311715e-03  -7.8015998e-03  -6.8363117e-04  -2.0339493e-04  -1.5780410e-04   3.2204851e-03   1.3990328e-03  -2.4803334e-03  -1.8790719e-05   2.2000514e-04  -1.2216644e-04  -3.3866975e-04
   7.8153404e-05  -5.4371627e-05   1.8510732e-04  -1.1635748e-04  -1.5998795e-04  -4.8760846e-04  -3.6607610e-04  -4.4607575e-04  -5.2880518e-05  -9.2940906e-04   1.1844128e-04  -5.2054331e-04  -6.4359087e-04  -8.0451724e-04  -2.6959850e-04  -1.0609134e-03  -2.7021643e-04  -2.4761891e-04  -5.2639615e-04  -5.1973551e-04  -4.0131604e-04  -2.7388867e-04  -2.1949972e-04  -5.0451816e-04  -9.3855045e-04  -3.0571504e-05  -6.9428969e-04  -9.9109625e-04  -1.8724656e-03  -4.4297040e-04  -4.5568406e-04  -7.3999341e-05  -1.9435382e-04   7.6099619e-04  -6.4984517e-04  -6.7301147e-04  -2.4455186e-04  -3.8702949e-04  -2.6063758e-04   5.6231627e-03  -7.0516596e-04  -1.4962326e-04  -3.1292907e-04  -1.3835518e-02  -2.7010252e-03  -1.4635549e-05   5.8842642e-04   3.5725094e-04   5.9291907e-04   3.1281266e-04
   3.3674412e-04   1.6444875e-04   5.9189909e-04   2.5795060e-04   1.6058708e-04  -1.2350242e-04   5.7376242e-06  -2.4338276e-04   4.3139985e-04  -1.3392388e-04   5.7799724e-04   1.9961070e-04  -1.7672882e-04  -5.5255002e-04  -3.2234666e-04  -3.3123608e-04  -2.2502941e-04  -4.6193472e-05  -5.7099478e-05  -2.9878016e-04  -1.8144787e-04  -3.4450248e-05  -4.8357479e-06  -1.5061954e-04  -4.3221723e-04  -4.1353655e-06  -8.2399661e-04  -4.9240555e-04   1.9263958e-04  -8.8578010e-05  -4.1222799e-04  -6.0827367e-04   7.3045951e-05   1.2459216e-03  -3.4516497e-04  -5.2821386e-04  -2.6304135e-04  -3.4539416e-04   1.0738861e-03  -8.7480270e-04  -3.7593200e-05   5.1777657e-05  -1.2752869e-04   2.8255212e-03   3.4623878e-04  -2.3672991e-03   3.8494146e-04   3.1098069e-04   5.6493422e-04   4.5598994e-04
   3.3075418e-04   1.7693597e-04   5.2444602e-04   1.9616370e-04   1.0138322e-04  -2.0578664e-04   1.3416784e-05   1.9737250e-04   3.4428309e-04  -4.2792584e-04   4.0300688e-04  -3.6240792e-05  -3.1680550e-04  -6.6595722e-04  -2.0100704e-05   8.7211090e-05  -2.1327485e-04  -2.1891302e-04   2.6276725e-04  -3.9343507e-04  -2.4990953e-04  -1.2120524e-04  -1.3684035e-04  -2.7641939e-04  -5.2735209e-04   2.3060391e-06   1.1117984e-04   7.4650306e-05  -1.6872209e-03  -2.3436840e-04  -3.3300431e-04  -3.9366193e-04   2.1371055e-05   8.4170990e-04  -6.2678690e-04   2.7430174e-04  -6.2465516e-04  -3.8718816e-04  -1.1579825e-04  -4.5199003e-03  -7.8098063e-04  -1.9973678e-04  -2.3059110e-04   3.7569364e-03   3.1855872e-03   3.8651944e-04  -1.9772108e-04   2.2665977e-04  -9.8823584e-05   1.6233401e-04
   3.6987774e-05  -7.7065022e-05   1.3305979e-04  -1.4690515e-04  -1.8945846e-04  -5.3107057e-04  -7.4047057e-05  -4.7260703e-04  -2.1717419e-04  -1.0066913e-03  -1.7732407e-05  -5.3343177e-04  -6.6300965e-04  -1.0901080e-03  -1.0441926e-03  -1.0409583e-03  -2.5258923e-04  -1.0083580e-04  -8.4687967e-04  -5.8006600e-04  -4.1179080e-04  -3.2201203e-04  -3.7215147e-04  -5.2172586e-04  -1.3812644e-03  -1.2354501e-05  -7.5553550e-04  -8.4519625e-04   1.6630339e-04  -4.9800728e-04  -4.4868316e-04  -2.8366523e-04  -1.5684220e-04   1.1159490e-03  -5.0667126e-04  -7.8323262e-04  -1.5088358e-04  -4.0328506e-04  -5.7728356e-04  -4.1203834e-03  -8.9597283e-04  -5.6244718e-04  -2.8134984e-04   6.5840092e-03  -1.4078603e-04  -2.3767727e-03  -5.6828535e-04  -7.7384444e-05  -1.7376499e-04  -2.0594741e-04
  -2.8793090e-06  -1.5285154e-04   2.9210598e-04  -1.8471412e-06  -5.2893101e-05  -4.7850187e-04  -4.1996063e-05  -1.0360147e-04   1.1744101e-04  -4.2826968e-04   2.5242148e-04  -2.6972655e-05  -2.4060992e-04  -7.9302321e-04  -1.6154931e-04  -3.4928948e-04  -2.6593450e-04  -4.3438562e-05  -7.3822543e-05  -4.4571885e-04  -2.7230906e-04  -2.1130730e-04   2.2558170e-05  -2.0361178e-04  -5.7518401e-04   1.7131246e-05  -6.3304207e-04  -3.3611499e-04   4.0694958e-04  -2.1870436e-04  -1.8932774e-04  -1.6100067e-04  -1.1122847e-04   1.0374197e-03  -6.6606235e-04  -3.5783311e-04  -1.4718946e-04  -3.0318985e-04   1.1688414e-04   1.5990903e-03  -6.8045709e-05  -7.5744327e-05  -4.5081947e-04   1.2622282e-03   2.3377966e-03   2.2571988e-03   1.5935315e-04   1.3843262e-04  -5.7722718e-05   9.7970602e-05
   1.9299747e-04   6.6983979e-05   3.4888132e-04   8.6112072e-05  -2.8919869e-06  -4.0286043e-04  -2.3985700e-05  -3.7231381e-04   5.0280316e-05  -5.8229105e-04   2.3773682e-04  -1.3261476e-04  -2.3808883e-04  -1.0248185e-03  -6.7957060e-04  -4.1032795e-04  -2.3313893e-04  -9.1429196e-05  -2.1288198e-04  -4.5263636e-04  -2.8996353e-04  -2.2027672e-04  -8.8976834e-05  -3.1986111e-04  -5.5658747e-04   2.3454168e-06  -1.2041018e-04  -7.4910035e-04  -8.7616744e-04  -2.5780339e-04  -7.1662077e-04  -3.5150643e-04  -1.3947877e-04   1.0959567e-03  -6.7262020e-04  -9.5389562e-04   2.8215641e-06  -3.2031388e-04   1.4312020e-04  -6.6790590e-03  -5.5791170e-04  -3.0299416e-04  -1.7937180e-04   1.0288072e-04   3.5205493e-03   1.5127200e-03  -2.7354568e-04   3.3829591e-04  -2.1109830e-04  -6.1483431e-04
  -2.2358290e-05  -1.0889839e-04   1.3610150e-05  -2.0857147e-04  -2.5770598e-04  -6.5551064e-04  -1.7321152e-04  -5.3979643e-04  -2.0028965e-04  -1.1230323e-03  -1.3021716e-04  -6.1409950e-04  -5.6077604e-04  -7.6846522e-04  -4.5592751e-04  -6.2862242e-04  -2.8180194e-04  -7.7495723e-05  -4.5711198e-04  -6.3472812e-04  -4.1134056e-04  -4.1231475e-04  -2.9523316e-04  -5.5279845e-04  -6.0129823e-04  -6.2648687e-05  -8.0974959e-04  -9.5960859e-04  -1.4844659e-04  -4.6787498e-04  -6.3005148e-04  -1.3550867e-04  -3.8839274e-04   7.3763233e-04  -4.6036116e-04  -1.0469961e-03  -5.1517843e-04  -3.6583052e-04  -8.9253642e-04   5.0620805e-03  -7.8146212e-04  -6.1838300e-04  -3.9612368e-04   3.8222858e-04  -1.7701060e-03  -2.2592505e-03  -8.5975631e-04  -2.9702624e-04  -3.0941231e-04  -8.4547425e-04
  -2.3580644e-04  -2.9348495e-04  -1.6456766e-05  -2.1177609e-04  -1.9959518e-04  -6.2957103e-04  -1.8036550e-05  -4.8583891e-04   4.7419398e-05  -6.0239143e-04   2.6760899e-05  -1.7824741e-04  -2.8298330e-04  -9.4345532e-04  -3.1956177e-05  -1.0230505e-03  -3.6775388e-04  -2.2875851e-04  -7.1120285e-04  -5.3456356e-04  -2.8673821e-04  -1.9981057e-04  -2.3326045e-04  -3.1834815e-04  -6.8258884e-04  -1.6040719e-04  -3.4029025e-04  -5.5870932e-04  -1.4837700e-03  -2.5150494e-04  -6.3323829e-04  -5.6335528e-04  -3.5801381e-04   8.7164697e-04  -4.1775315e-04  -5.5621355e-04  -2.9418070e-04  -3.2584180e-04   1.8367625e-04  -7.5366502e-03  -5.5640109e-04  -1.3387145e-04  -2.5834292e-04  -4.5772432e-04   1.2755522e-03   8.5042731e-04   1.6098590e-04   2.9544876e-04  -3.9833866e-04   1.4794194e-04
   1.7435127e-04   7.6168631e-05   2.5309619e-04   5.3980631e-05  -1.5984340e-05  -4.1286284e-04   8.0655853e-05  -5.7201876e-05   1.1621008e-05  -6.0305686e-04   1.5982031e-04  -1.5028808e-04  -4.8552531e-05  -8.5936033e-04  -3.8710373e-04  -9.5758890e-04  -3.0300344e-04  -2.8021916e-04  -7.0955354e-04  -4.4917001e-04  -2.6527853e-04  -1.7288890e-04  -7.4202027e-05  -2.9836173e-04  -2.8883875e-04  -1.1784440e-04  -2.6691196e-04  -7.7881479e-05  -4.3251208e-04  -1.9821424e-04  -3.4921890e-04  -6.5257878e-04  -4.5707356e-04   7.3421217e-04  -5.0995918e-04  -8.0423465e-04   6.1298750e-05  -3.5195847e-04   5.5291218e-04  -2.1934393e-03  -2.6872361e-04  -2.2380467e-04  -2.0058993e-04  -1.4629983e-03   2.8371094e-03   7.6722860e-04  -2.4399215e-04   1.0297420e-04  -1.9075330e-04  -4.0858804e-04
  -1.2592234e-05  -6.9052483e-05  -2.4258534e-05  -1.7203616e-04  -1.9229575e-04  -5.6243513e-04  -3.4831802e-04  -5.5933767e-04  -3.2793955e-04  -1.0453048e-03  -1.7755340e-04  -5.4350018e-04  -4.6067164e-04  -9.7060227e-04  -4.5150047e-04  -1.4322419e-03  -3.4506375e-04  -1.2711901e-04  -4.8975780e-04  -5.8884767e-04  -3.9098892e-04  -3.0414682e-04  -4.2009665e-04  -5.4919848e-04  -5.9211534e-04  -2.5269095e-04  -8.0935075e-04  -1.1706747e-03   1.5665770e-03  -4.8805904e-04  -2.1692217e-04  -3.9989586e-04  -3.8823644e-05   6.3160580e-04  -5.6688982e-04  -4.9836258e-04  -4.5636136e-04  -3.5001742e-04  -8.2551542e-04  -4.7626193e-03  -4.1977552e-04  -5.2935065e-04  -6.6173216e-04  -7.7962438e-03  -1.0273971e-03   5.9644519e-03  -7.2145474e-04  -4.6565515e-04  -7.2392245e-04  -8.1080839e-04
  -2.8411590e-04  -2.9856875e-04  -1.6669731e-04  -2.5140060e-04  -2.5693898e-04  -6.8886310e-04  -4.6337704e-04  -5.7811715e-04  -1.1104617e-04  -6.5568846e-04  -6.7969544e-05  -2.0446056e-04  -2.8464425e-04  -9.4348029e-04  -6.0842745e-04  -7.5125211e-04  -4.2661998e-04  -2.4106819e-04  -3.8790752e-04  -5.4043205e-04  -2.6241952e-04  -1.5927307e-04  -7.0632690e-05  -3.2950708e-04  -6.0873758e-04  -3.0743418e-04  -3.6395428e-04  -4.8947852e-04  -1.2561283e-04  -2.1648894e-04  -3.4946299e-04  -8.0436311e-04  -4.1616669e-05   5.3880806e-04  -5.8238948e-04   6.8171277e-05   3.5774251e-04  -3.1513587e-04   1.9002281e-04   7.0876144e-03  -3.3433401e-04   3.7086927e-05  -1.6337603e-04   3.2756138e-03   2.9637313e-03  -2.0635012e-03   4.1421817e-04   1.2117191e-04  -7.3256255e-05   3.1641693e-04
   2.1941810e-04   1.3198039e-04   2.4333691e-04   1.2697304e-04   3.1482716e-05  -2.5933018e-04  -3.3372638e-05  -1.1529574e-04  -2.0774486e-04  -5.0245039e-04   1.8278255e-04  -6.3432453e-05   3.5869376e-05  -6.0558232e-04   1.8281233e-05  -7.8726158e-04  -3.0720749e-04  -2.4874028e-04  -1.3443714e-04  -4.0167704e-04  -2.1407605e-04  -5.9244601e-05  -2.3498742e-05  -2.9645054e-04  -5.4116687e-04  -2.9195601e-04  -7.3250942e-04  -8.7117987e-05  -3.6385315e-04  -1.7468448e-04  -4.0654643e-04  -2.6522879e-04  -6.4030850e-05   6.0103071e-04  -3.6424471e-04  -1.5156720e-04   1.8427361e-05  -3.4593028e-04  -8.2432618e-04   1.7449701e-02  -2.9445419e-04  -2.5011903e-05  -1.8280851e-04   5.1050493e-03  -3.0129082e-03  -2.4900842e-03  -9.9306337e-05   1.1917113e-05   7.3268857e-05  -2.2522542e-04
