  -8.2989910e-04  -5.0549489e-04  -4.5251864e-04  -3.4921840e-04  -3.7452771e-04  -8.4142416e-04  -7.0939149e-04  -5.8102701e-04  -9.9251256e-04  -1.4843019e-03  -9.4873854e-04  -6.8657350e-04  -6.4342964e-04  -1.1879846e-03  -9.7609191e-05  -1.0032944e-03  -3.0052464e-04   5.7347133e-05  -1.4796158e-03  -7.2507921e-04  -3.8706159e-04   2.9952649e-04  -7.4387004e-04  -1.0850471e-03  -9.7996730e-04   6.1702092e-05  -6.1340083e-04  -5.0918176e-04  -3.8582858e-04  -3.5017112e-04  -4.9696298e-04  -5.4567325e-04  -1.5235019e-04  -9.6026546e-04  -5.6935725e-04  -5.6304334e-04  -4.5350933e-04  -2.8102487e-04  -4.8824871e-04   1.0418812e-02  -6.6446583e-04  -1.8717363e-04  -4.8264966e-04  -1.4347740e-02   7.2501798e-04  -1.1233194e-03  -5.0927635e-04  -6.7521461e-05  -3.5627204e-04  -2.7533760e-04
  -9.5329370e-04  -7.4451987e-04  -6.8723614e-04  -6.9150096e-04  -5.7157816e-04  -1.1182886e-03  -1.1081164e-03  -9.5383311e-04  -1.2979143e-03  -2.3392530e-03  -1.4091227e-03  -1.3082993e-03  -1.3637205e-03  -1.3854674e-03  -8.0645084e-04  -1.4417236e-03  -1.6515983e-04   2.0609847e-04  -5.6996912e-04  -8.9204748e-04  -4.3351081e-04   1.3209097e-04  -7.3215214e-04  -1.0804854e-03  -1.5557129e-03   1.3846779e-04  -2.4907762e-04  -8.7092508e-04  -1.4435813e-03  -4.3243470e-04  -4.7653614e-04  -6.5130560e-04  -1.9276056e-04  -4.2435376e-04  -4.2647231e-04  -3.3088922e-04  -4.4229635e-04  -2.7878358e-04  -6.8273506e-04  -3.0446956e-03  -8.1565988e-04   1.2720004e-04  -2.1492274e-04   9.7048879e-03   2.4039294e-03  -8.7890460e-04   5.3940946e-04   2.1054498e-04   4.9513148e-04   2.7762583e-04
  -6.5955427e-04  -3.6966157e-04  -2.5859315e-04  -1.3358703e-04  -2.4530647e-04  -5.5478100e-04  -2.6962385e-04  -3.6713865e-04  -6.8924372e-04  -8.9898362e-04  -6.1186228e-04  -2.9683314e-04  -5.1643059e-04  -8.0983690e-04  -2.3605047e-04  -1.0951314e-03  -1.8257338e-04   4.3399757e-04  -8.5324782e-04  -6.2449177e-04  -2.9790873e-04   3.8004649e-04  -5.6809641e-04  -9.2083577e-04  -1.1364961e-03   1.9017837e-04  -6.2744424e-05  -6.6355214e-04  -8.7733770e-04  -2.4819610e-04  -1.5254844e-04  -8.1115967e-04  -2.0577799e-04  -3.2158266e-04  -6.2197668e-04  -1.0116722e-04  -8.9758314e-04  -1.9592181e-04  -1.9671561e-04   8.0183409e-03  -3.8964101e-04   8.5202169e-05  -3.7436013e-04   4.2867602e-04  -1.8727777e-03   2.2790226e-04   1.7108410e-04   6.0481198e-05   1.8466311e-04  -1.1061469e-06
  -6.4495165e-04  -4.2883508e-04  -3.4730969e-04  -2.6404153e-04  -3.1104864e-04  -7.5948198e-04  -7.2245038e-04  -6.2092050e-04  -9.6666103e-04  -1.5070889e-03  -8.7348482e-04  -7.1378984e-04  -7.3250412e-04  -1.0933602e-03  -3.9999469e-04  -1.1744340e-03  -8.1534679e-05   4.2377325e-04  -6.7629700e-04  -7.5336214e-04  -4.0202917e-04   2.5070179e-04  -7.6241314e-04  -1.0632355e-03  -1.2310146e-03   2.7085398e-04  -8.5406279e-04  -9.5488742e-04  -9.5199974e-04  -4.0497648e-04  -5.0760625e-04  -9.9332060e-04  -2.4139415e-04  -5.5620458e-05  -5.9676700e-04  -3.1245797e-04  -5.2991556e-04  -1.8021082e-04  -5.0315197e-04  -1.9596385e-02  -6.8438455e-04  -2.2398240e-04  -4.2940394e-04   1.7059589e-03   4.0471417e-04  -1.0310378e-03  -4.8289206e-04  -8.4092266e-05  -3.6486448e-04  -6.7837874e-04
  -8.0412469e-04  -6.3896395e-04  -5.8676698e-04  -6.1713427e-04  -5.0921930e-04  -1.0944606e-03  -9.2277746e-04  -8.4077532e-04  -1.0171366e-03  -2.1148345e-03  -1.2733627e-03  -1.1901452e-03  -1.1854029e-03  -1.6078481e-03  -3.8783689e-04  -1.7680229e-03  -2.6685727e-04   2.1182287e-04  -7.4732484e-04  -7.7324797e-04  -3.6103750e-04   3.1205529e-04  -6.3678750e-04  -1.0784649e-03  -8.9414784e-04   1.4213003e-04  -4.3166138e-04  -7.8602292e-04   4.1259942e-04  -4.0458562e-04  -6.6036760e-04  -7.4707472e-04  -1.6973683e-04  -1.3232853e-04  -4.4863357e-04  -9.2632661e-05  -3.1119716e-04  -3.0624325e-04   1.8001529e-05   5.8686822e-03  -5.7656056e-04   5.2424188e-05  -4.2306480e-04   1.1738096e-03   1.7972795e-03   8.8346988e-04   5.3028576e-04   1.9165172e-04  -3.4452685e-05   1.6574630e-04
  -4.9378868e-04  -2.2050594e-04  -1.2682998e-04   1.6400936e-05  -1.4663617e-04  -5.4702954e-04  -2.6297747e-04  -3.6766208e-04  -7.4715901e-04  -6.7674741e-04  -4.7551910e-04  -1.8491661e-04  -5.3904555e-04  -8.8139373e-04  -1.4506659e-04  -8.5746747e-04  -3.1615107e-04   1.5029672e-04  -6.1096274e-04  -4.9289269e-04  -1.8993369e-04   6.5540982e-04  -5.0884276e-04  -8.5511932e-04  -1.0550873e-03  -7.5766977e-05  -3.2293887e-04  -5.3892558e-04   4.3740845e-04  -1.9192674e-04  -1.0654140e-04  -2.4759246e-04  -2.7880564e-05  -4.0968170e-04  -4.5151773e-04  -3.1888505e-04  -2.7604579e-04  -2.8703437e-04  -2.8977645e-05   3.4841811e-03  -3.9669295e-04   1.6783286e-04  -4.1664249e-04  -1.6924761e-03   4.7769726e-04  -8.3659799e-04   3.5607209e-04   3.9555976e-04   6.8879577e-05   4.1925735e-04
  -5.9721974e-04  -3.0538783e-04  -2.4840207e-04  -1.2787357e-04  -2.5144083e-04  -7.2288577e-04  -5.7399709e-04  -4.8351887e-04  -9.7178918e-04  -1.2181901e-03  -7.2913797e-04  -6.6836813e-04  -4.2378411e-04  -1.0302638e-03  -3.9651807e-04  -1.2923715e-03  -2.9058327e-04   3.4223680e-04  -1.8126497e-04  -5.7772535e-04  -2.8703656e-04   5.0990691e-04  -7.0490583e-04  -8.9311093e-04  -7.5728609e-04  -1.7434482e-04  -6.6030270e-04  -1.0763360e-03  -3.4480556e-04  -3.1113822e-04  -7.8923407e-04  -6.3459430e-04   1.6980450e-05  -2.2765726e-04  -7.2049635e-04   1.1857841e-04   2.0529822e-04  -2.5309747e-04  -4.8389411e-04   2.0315277e-03  -9.0028509e-04  -1.6670390e-04  -4.8953312e-04   7.2655291e-03   1.0148599e-03   1.8746006e-04  -2.3702384e-04   6.6625587e-05  -2.8719776e-04  -4.0392185e-04
  -9.1489305e-04  -6.1348168e-04  -5.6090270e-04  -4.8594654e-04  -5.0520408e-04  -9.9677476e-04  -7.7223516e-04  -1.0242212e-03  -1.1726439e-03  -1.8650697e-03  -1.1926757e-03  -1.2384848e-03  -1.1050833e-03  -9.5658127e-04  -6.3005422e-04  -1.1117685e-03  -4.2091677e-04   1.8354773e-05  -1.0228691e-03  -8.1291597e-04  -4.5195021e-04   3.7583735e-04  -9.5896557e-04  -1.1530573e-03  -1.5872049e-03  -3.4506031e-04  -1.1358201e-03  -5.7315012e-04  -9.5071841e-04  -5.2743172e-04  -7.7133690e-04  -6.8259833e-04  -2.7407045e-04  -4.9951155e-04  -8.7340322e-04   5.0596995e-05   2.3510023e-04  -3.5774798e-04  -6.8802322e-04  -3.2280500e-03  -6.9148833e-04   7.9582169e-05  -6.1454059e-04   6.4173751e-03  -1.0127008e-03   6.5524812e-04   5.8868382e-04   3.7455728e-04   1.1808004e-04   2.9009691e-04
  -7.0901879e-04  -3.3345033e-04  -1.8747353e-04   1.2570896e-06  -2.0725008e-04  -4.4582612e-04  -1.2312735e-04  -5.7608873e-04  -5.0341163e-04  -3.8245838e-04  -4.4694502e-04  -2.2696872e-04  -6.3776606e-05  -6.3779595e-04  -4.4641283e-04  -1.0048724e-03  -3.5329006e-04   1.5392069e-04  -1.2892197e-03  -4.0701579e-04  -1.4614232e-04   6.8536313e-04  -6.1626651e-04  -6.6904345e-04  -4.6880799e-04  -2.7781309e-04   7.3676497e-06  -5.7034963e-04  -2.9146019e-04  -1.2575892e-04  -5.5039185e-04  -1.9493126e-04   7.4469179e-05  -9.9527836e-04  -6.7617075e-04  -5.8340933e-04  -7.6278643e-04  -3.5000787e-04  -4.0325787e-04  -3.5611107e-03  -4.8618717e-04   2.1389182e-04  -4.7820000e-04   6.6935210e-03  -2.4811151e-03   7.1323913e-04   3.9228535e-04   5.2294700e-04   4.7834026e-05  -7.5111842e-05
  -7.3478086e-04  -3.3533660e-04  -2.6397218e-04  -2.3455876e-05  -2.4933458e-04  -4.8417886e-04  -2.4138858e-04  -2.0436643e-04  -7.9986319e-04  -7.6193450e-04  -5.9196167e-04  -4.7286690e-04  -4.4161029e-04  -5.4289633e-04   2.2347032e-05  -9.9040894e-04  -2.8008848e-04   3.5478725e-04  -3.4198427e-04  -5.1917008e-04  -2.2114265e-04   5.8620924e-04  -6.8310153e-04  -8.4859424e-04  -7.7930460e-04  -2.7863376e-04  -1.3839817e-04  -4.4337104e-04   5.2298601e-05  -2.4403087e-04  -4.0660100e-04  -7.7352634e-05   7.5471828e-05   5.4998716e-05  -4.3450849e-04  -2.5419606e-04  -7.0538477e-04  -2.5343144e-04   1.6081407e-04  -6.9304453e-03  -4.0985484e-04  -6.6189568e-05  -2.1886585e-04   5.0425990e-03  -3.8888209e-04   2.5241582e-03  -1.1391848e-04   3.4368128e-04  -4.7218209e-04  -4.9676269e-04
  -8.7840011e-04  -6.0124736e-04  -4.9373996e-04  -3.6455860e-04  -4.9637014e-04  -8.6813001e-04  -4.7682796e-04  -7.1984000e-04  -1.1895885e-03  -1.6818150e-03  -1.0634388e-03  -1.1336620e-03  -8.5805758e-04  -9.7207079e-04  -3.1794357e-04  -1.3754424e-03  -6.2922307e-05   2.2112505e-04  -1.2775627e-03  -7.1503432e-04  -4.1369788e-04   2.3053671e-04  -8.4340607e-04  -9.8230725e-04  -1.1752025e-03  -1.0069277e-04  -3.9452180e-04  -8.8427757e-04  -1.8167306e-03  -5.0042290e-04  -8.6833048e-04  -1.6640851e-04  -4.9042599e-05   4.5420293e-04  -7.5098680e-04  -3.2418224e-04  -5.7485828e-04  -3.0948268e-04  -8.5303898e-04   6.0278382e-03  -7.7394256e-04  -1.4988800e-04  -6.8156898e-04   9.8977275e-03  -1.5711297e-03   1.3546551e-03   4.1775609e-04   3.0326357e-04  -5.0833193e-04   5.9068512e-05
  -7.5525051e-04  -4.6804085e-04  -2.5041503e-04  -4.9691305e-05  -3.2280959e-04  -5.5351516e-04  -2.2715192e-04  -2.5431978e-04  -6.4480182e-04  -5.7831593e-04  -5.5400812e-04  -3.7572026e-04  -5.3883932e-04  -7.6749426e-04  -1.9070461e-04  -3.9057760e-04   3.5074623e-05   4.6661953e-04  -5.4516204e-05  -4.4520636e-04  -1.4107558e-04   4.1501608e-04  -6.3723774e-04  -7.2574185e-04  -9.1509236e-04  -3.4085446e-05  -8.2339032e-04  -6.4643347e-05  -1.1566675e-03  -1.3576695e-04  -1.9550466e-04  -5.6856062e-04  -1.0113099e-04   6.7420502e-04  -5.7180738e-04  -5.7675922e-04   2.5294366e-05  -2.0464805e-04  -3.0416879e-04  -2.4610951e-03  -3.3300521e-04   6.2981962e-05  -2.1727584e-04   3.4046504e-03   3.4774456e-03   5.4062862e-04   2.4966203e-04   5.7102059e-04  -1.1665501e-04   1.9967263e-05
  -7.7933719e-04  -4.7826156e-04  -3.0732329e-04  -8.5718522e-05  -3.7607562e-04  -6.3835050e-04  -3.3427554e-04  -4.3364830e-04  -9.1780594e-04  -9.6613861e-04  -6.5990427e-04  -6.3203491e-04  -4.0119296e-04  -7.5620756e-04  -5.1566720e-04  -1.0710356e-03   1.1864262e-04   6.7126827e-04  -1.1219991e-03  -5.5158132e-04  -2.2496219e-04   3.5072022e-04  -6.4302870e-04  -7.9449161e-04  -1.2454580e-03   5.5238637e-05  -3.5887424e-04  -4.4292535e-04  -1.4386416e-04  -2.4289357e-04  -2.8505785e-04  -5.9083354e-04  -4.0829422e-05   9.8623591e-04  -5.7203101e-04  -5.6400825e-04  -9.0644951e-04  -1.8658093e-04   2.9397145e-04  -6.4196019e-03  -5.7437277e-04  -1.7178858e-04  -4.8146464e-04   7.1252626e-04  -1.8461128e-03  -2.4284881e-03  -3.5671110e-04   7.6317396e-05  -6.5537449e-04  -1.0874069e-04
  -9.5424103e-04  -7.0418004e-04  -5.7201606e-04  -4.4610185e-04  -5.7078601e-04  -9.6322322e-04  -6.7326491e-04  -7.5466232e-04  -1.1068345e-03  -1.6776136e-03  -1.1220124e-03  -1.1668531e-03  -1.1279493e-03  -9.5343764e-04  -7.1057136e-04  -1.3260744e-03  -1.5505711e-06   7.9310470e-04  -8.6554431e-04  -8.1127294e-04  -3.6227828e-04   2.4930446e-04  -1.0028642e-03  -1.0896099e-03  -1.0190662e-03  -1.6237398e-04  -4.0274183e-04  -1.1271529e-03  -2.3149073e-03  -4.7941739e-04  -7.6718495e-04  -5.6028589e-06  -9.5007636e-05   2.3995200e-04  -5.6602858e-04  -5.7095150e-04  -9.7968092e-04  -3.5006920e-04  -9.6473808e-04   4.9122688e-03  -7.2468439e-04  -1.5201927e-04  -7.1819755e-04  -3.3980843e-03   1.2362640e-03  -6.5531087e-04   3.0806719e-04   1.7969206e-04  -1.5655314e-04   7.5304437e-05
  -8.4350572e-04  -4.9601577e-04  -3.2082992e-04  -1.2440329e-04  -3.3063997e-04  -5.5975915e-04  -4.7209035e-04  -4.1966868e-04  -7.0949289e-04  -6.5171043e-04  -5.8483350e-04  -4.6260416e-04  -3.6703760e-04  -9.2985801e-04  -6.5238966e-04  -1.1231067e-03  -4.4705524e-05   2.2465602e-04  -1.0002957e-03  -4.9142569e-04  -8.5683168e-05   6.4258475e-04  -6.1699352e-04  -8.1487873e-04  -4.5648226e-04  -9.4315823e-05  -1.1455779e-04  -4.0005770e-04  -1.9565325e-03  -1.8755563e-04  -3.4521622e-04  -6.6334632e-04   2.5335507e-04   1.3294784e-04  -5.8587623e-04  -3.4556873e-04  -6.0168974e-04  -2.2572734e-04  -8.1211748e-04  -6.3655083e-04  -5.9602957e-04  -3.8274729e-06  -3.7746396e-04  -3.6700533e-03   2.7337284e-03  -7.7651319e-04  -1.1946571e-04   5.0684647e-04  -1.2847507e-05   1.5186389e-04
  -8.7678409e-04  -5.4722576e-04  -4.2411574e-04  -9.6563890e-05  -5.0121685e-04  -6.8216922e-04  -3.2428579e-04  -5.7246414e-04  -5.9767987e-04  -1.0953071e-03  -7.0501835e-04  -8.6965231e-04  -4.0532358e-04  -1.0759179e-03  -2.4686835e-04  -7.5682934e-04   3.8949674e-04   1.8661292e-04  -7.9695520e-04  -8.0166664e-04  -3.0921013e-04   5.4994554e-05  -7.9145067e-04  -7.3033886e-04  -1.1326930e-03   7.0779875e-04  -6.2848383e-04  -1.1035056e-03  -5.7306373e-05  -2.9310875e-04  -3.0997850e-04  -2.1272003e-04  -4.8766914e-04   4.8742775e-04  -5.0648145e-04   1.1430183e-04  -3.0811495e-04  -3.1029596e-04  -7.3066156e-04  -1.2790591e-02  -8.1663107e-04  -2.9053792e-04  -7.0115249e-04   2.8879736e-03  -6.5051223e-04  -1.1550159e-03  -6.1458274e-04   4.0931394e-04  -3.8872348e-04  -1.8270843e-04
  -1.1024998e-03  -1.3531195e-03  -9.6479902e-04  -5.8477075e-04  -9.2423259e-04  -9.1331301e-04  -6.5468450e-04  -8.1548304e-04  -8.4210210e-04  -1.5613300e-03  -1.4706395e-03  -1.7772475e-03  -6.1351829e-04  -1.0983733e-03  -8.7145437e-04  -1.4362893e-03  -2.5242041e-05  -3.8004131e-04  -9.5476420e-04  -1.0290826e-03  -2.5352451e-04  -1.4427963e-05  -1.1622485e-03  -6.8440422e-04  -1.0728587e-03   4.7954722e-04  -2.1106261e-04  -8.5316505e-04  -1.8888888e-03  -3.4107250e-04  -3.8789058e-04  -5.5647255e-05  -2.0864961e-04  -1.2121433e-04  -5.7864812e-04  -8.7059702e-04  -8.7285478e-04  -3.9119375e-04  -5.6616758e-05  -1.3643116e-03  -4.8836338e-04   1.2272873e-06  -4.7809465e-04   3.8353426e-03   1.3680124e-03  -6.0329877e-04   1.8961601e-04   1.0132805e-03   3.7629835e-04   4.6377722e-04
  -1.0839796e-03  -8.1911811e-04  -5.0415954e-04  -1.4730472e-04  -5.2792300e-04  -4.9977872e-04  -3.8781750e-04  -2.6680657e-04  -6.2842766e-04  -3.4054302e-04  -5.8059761e-04  -6.9367327e-04  -3.4280668e-04  -6.7407335e-04   1.5768498e-04  -6.9350278e-04  -5.2429700e-06   9.5436088e-05  -1.0470679e-03  -6.6597632e-04  -5.7015703e-05   2.2645222e-04  -7.1926939e-04  -6.5660186e-04  -5.6608365e-04   4.6260699e-04  -5.2343518e-04  -7.9247809e-04  -6.0497585e-04  -1.2469824e-04  -2.6334749e-04  -8.8210194e-04   2.0803014e-05  -3.8225346e-04  -5.1836547e-04  -5.1196164e-04  -2.6989204e-04  -2.5217322e-04  -4.7037689e-04  -5.4290392e-03  -5.6124263e-04  -7.8077472e-05  -1.2976970e-04  -2.2537140e-03  -4.0205573e-03   4.8019868e-04  -3.0537838e-05   7.5959897e-04   4.1691685e-04   2.9915781e-04
  -1.1897031e-03  -8.4895111e-04  -6.4462196e-04  -3.3868905e-04  -6.0125015e-04  -6.8416487e-04  -4.5762278e-04  -4.8240778e-04  -7.0936256e-04  -8.7352499e-04  -7.9436373e-04  -9.8763010e-04  -5.8927527e-04  -5.1340292e-04  -4.9031468e-04  -7.5979863e-04  -1.4996536e-04  -5.2506857e-06  -8.8173518e-04  -7.1261276e-04  -1.6160586e-04   2.5875645e-04  -8.6315972e-04  -8.9010899e-04  -1.0205007e-03   3.0321910e-04  -6.7692815e-04  -5.4654037e-04  -1.8113197e-03  -2.8497321e-04  -9.2540524e-04  -3.1505703e-04  -1.6465996e-04  -2.6016247e-05  -4.8801748e-04  -4.4753784e-04  -4.4790865e-04  -2.9851805e-04  -3.0540556e-04  -9.0863305e-04  -4.7369281e-04  -2.8838994e-04  -5.3416879e-04  -8.2126608e-05   3.9699028e-04  -2.9547137e-04  -5.3957896e-04   1.8521097e-05  -3.4165764e-04  -2.0067328e-04
  -1.3182556e-03  -1.1043316e-03  -8.4083440e-04  -5.8949890e-04  -7.3321682e-04  -8.5993693e-04  -5.4498366e-04  -6.1132695e-04  -3.9766444e-04  -4.0734705e-04  -8.5682020e-04  -9.4403420e-04  -2.7663339e-04  -6.3564465e-04  -6.1622508e-05  -4.3278679e-04  -3.6777172e-04  -5.0897332e-04  -5.9084134e-04  -7.1212946e-04   1.2744762e-04   4.5870768e-04  -9.5523678e-04  -3.5989541e-04  -7.5836934e-04  -1.3309436e-04   1.2479235e-04  -5.6869333e-04  -1.8621766e-03  -8.5319931e-05  -4.9869198e-04   2.1344084e-05  -2.0039569e-04   8.8697416e-05  -6.4379006e-04   2.2695189e-04  -3.2735283e-05  -6.3752534e-04   4.5735485e-04  -4.2594043e-03   5.8716207e-05   3.7541092e-04  -8.2367810e-04   2.5623878e-03   7.4644410e-04  -2.5647487e-05   6.7880028e-04   1.2544950e-03   7.8392623e-04   8.2754542e-04
  -7.8401901e-04  -1.6420772e-03  -1.0766780e-03  -2.5261723e-04  -8.3033537e-04   5.7288958e-07  -1.5443049e-05  -2.7011315e-04  -2.1382286e-04   4.6025607e-04  -6.9920527e-04  -8.9366484e-04   3.6817096e-04  -1.0299081e-04  -4.8819341e-04   3.2855653e-05  -3.9932321e-04  -1.3294023e-03  -5.3728709e-04  -1.0020504e-03   2.5188792e-04  -3.9090190e-04  -1.1308796e-03  -1.1849714e-04  -9.4285206e-05   5.3623912e-04   2.9767698e-04  -6.0540857e-04   9.8270562e-04   1.6853859e-05  -4.0556132e-04  -5.1085360e-04  -8.5389282e-04   5.9374928e-04  -3.3402647e-04   1.3492833e-04  -1.6033355e-04  -4.6982110e-04   2.8387646e-04   1.7693097e-02   7.2660878e-05   2.6112508e-05  -4.0609430e-04  -6.0792724e-03   2.9117130e-03   2.6516791e-03   4.3271935e-05   8.8048930e-04   2.4139449e-04   6.5632869e-04
  -1.0857211e-03  -1.5566081e-03  -1.1674298e-03  -4.4610442e-04  -8.5395947e-04  -3.4329208e-04  -9.9382223e-06  -3.4651387e-04  -7.0584001e-04   1.0861003e-04  -7.8381365e-04  -8.3679665e-04  -2.7485972e-04  -2.2987435e-04  -1.0138063e-03  -5.9465470e-04  -5.3631433e-04  -1.2403197e-03  -5.4311304e-04  -1.1218811e-03   3.4481240e-05  -5.1702769e-04  -1.0226073e-03  -4.2294170e-04  -8.3443953e-04   3.9874201e-04  -8.0834412e-05  -1.0135013e-03   8.0148637e-04  -1.7600603e-04  -7.8134873e-04  -1.8130284e-04  -7.7664928e-04   2.8160596e-04  -1.4463675e-04  -1.0553101e-04  -2.2523014e-05  -4.6762673e-04  -7.7149837e-04   1.4789421e-03  -3.8625108e-04  -2.9020204e-04  -3.8213810e-04  -4.0401388e-03   4.6501006e-03   1.6425330e-03  -5.7812728e-04   5.5137591e-04  -2.4538478e-04   1.1257148e-05
  -1.4923004e-03  -1.4145180e-03  -9.7168318e-04  -6.0716295e-04  -7.6051283e-04  -5.3449720e-04  -1.8706894e-04  -4.1937554e-04  -4.1355300e-04   4.7274638e-04  -5.0666771e-04  -3.9668215e-04  -1.3464423e-04  -2.4326803e-04   4.1337724e-05  -7.5702969e-04  -4.3171656e-04  -9.3375711e-04  -2.7870381e-04  -7.4290374e-04   2.8481270e-04  -3.7248261e-04  -7.4579881e-04  -3.7836586e-04  -4.0156645e-04   3.0101609e-04  -5.2853581e-04  -3.5195271e-04  -1.3256193e-03   1.9906929e-05  -3.8483241e-04  -4.5397811e-04  -1.6035273e-04   2.3587549e-04  -3.6276114e-04   5.2890787e-04  -6.2542054e-04  -2.4537239e-04   4.0256793e-05  -4.0470031e-03  -1.8389338e-04   2.0946280e-04  -2.3188467e-04  -7.5726202e-03   4.2634048e-03   2.4709557e-03   6.7984569e-04   8.7566173e-04   3.0100843e-04   5.5903848e-04
  -1.0668430e-03  -9.0072484e-04  -5.4885598e-04  -2.1283214e-04  -4.5076499e-04  -1.2601707e-04   7.8987447e-05  -5.8000143e-05  -1.9961975e-04   6.5682351e-04  -1.8231026e-04  -2.0435959e-04   2.2138600e-04  -2.2831257e-05  -1.7932743e-04   3.0999171e-04  -3.7545941e-04  -3.8998047e-04   1.0880093e-05  -5.6612375e-04   3.6869655e-04  -1.7887155e-04  -6.6478213e-04  -3.3194132e-04  -4.8747199e-05   3.7772165e-04  -3.7072379e-05   1.9489494e-04   5.2306894e-04   1.4049665e-04  -6.0112093e-04   2.2082026e-04  -6.1212725e-04   5.2905176e-04  -1.2184437e-04   2.9900012e-04   9.8666386e-04  -1.7474900e-04  -1.8861568e-04   3.2100636e-03  -3.8405403e-04   1.7767890e-04  -2.9390291e-04  -6.6173794e-03  -3.5363354e-03  -9.6267561e-04   4.0038809e-04   6.4243004e-04   7.0505273e-05   5.4406270e-04
  -1.1034583e-03  -9.9692261e-04  -6.5903069e-04  -3.6423863e-04  -5.5596430e-04  -4.3949802e-04  -1.8268949e-04  -1.5470042e-04  -3.4842180e-04   7.0549810e-05  -4.7797157e-04  -6.1076990e-04  -2.8231135e-04  -6.5419008e-05  -2.7194511e-04  -8.1483636e-04  -3.2374240e-04  -3.0476702e-04  -6.2516140e-04  -7.2748383e-04   2.1203244e-04  -3.2626843e-04  -8.6385646e-04  -5.2563846e-04  -5.0173188e-04   3.7675787e-04  -4.1906122e-04  -9.3780481e-04  -1.0602359e-03  -8.9904664e-05  -2.5957002e-04  -6.0700295e-05  -7.7588839e-04   2.4458375e-05  -5.2364182e-04  -1.9583173e-05   1.1674283e-04  -2.6013999e-04   1.0331715e-03   5.9929779e-03  -3.7292292e-04  -1.6675571e-04  -5.3658162e-04  -3.6107861e-03  -2.7581186e-03  -2.5098529e-03  -2.6790638e-04   4.0878964e-04  -2.8383889e-04  -1.6389080e-04
  -1.2687519e-03  -1.1804011e-03  -8.7605673e-04  -6.3541706e-04  -7.0682325e-04  -5.9981650e-04  -3.6852207e-04  -4.8727854e-04  -6.5555330e-04   1.1855888e-04  -6.2423444e-04  -6.0088391e-04  -3.3988050e-04  -1.1546815e-04  -3.2398189e-04  -5.1915372e-04  -3.1095676e-04  -2.0498774e-04  -2.5096262e-04  -5.6366553e-04   3.1103467e-04  -2.5998315e-04  -7.2510575e-04  -4.0209375e-04  -3.3714858e-04   3.5091967e-04  -6.3249194e-05   3.4294906e-04   9.1080969e-05   8.5607186e-05  -6.1586598e-04  -3.0828486e-04  -3.9358984e-04  -1.2109904e-04  -1.6749550e-04  -1.5032510e-04  -7.2878180e-04  -1.3295862e-04   9.6529409e-05  -7.8763869e-03  -5.0836039e-04   2.0774300e-04  -4.7202854e-04  -2.3035253e-03   9.8810194e-04   3.4521208e-03   6.8065652e-04   1.0079639e-03   6.9003785e-04   1.0352916e-03
  -9.0421148e-04  -7.1513280e-04  -3.7538694e-04   4.1425064e-06  -3.2312621e-04  -1.8442322e-04   8.7272529e-05  -8.9291578e-05  -1.7851857e-04   6.9351995e-04  -1.6332827e-04  -1.5378288e-04   4.6696034e-04   3.4431793e-04  -2.2401307e-04   2.6871565e-05  -3.4250869e-04  -4.2019007e-04  -1.2277153e-04  -3.2668671e-04   3.7773376e-04   3.3394124e-05  -5.2311068e-04  -3.5036192e-04  -2.4136157e-04   1.4046603e-04  -3.3748228e-04   2.8584650e-04   4.7257138e-04   1.6083677e-04   2.5096493e-05   8.6728833e-05  -2.6815533e-04  -8.7096785e-05  -1.0150297e-04   7.8584955e-05  -4.8244747e-04  -2.6114096e-04   2.8430708e-04   6.9625764e-03  -5.2793475e-04   2.2119487e-04  -4.6407312e-04  -3.2819514e-03  -2.5422245e-03  -3.8171172e-04   5.9271214e-04   7.7068806e-04   1.6951300e-04   2.9509200e-04
  -9.2452421e-04  -7.9809508e-04  -4.6038721e-04  -1.5173879e-04  -3.8948873e-04  -3.5526784e-04  -6.7755682e-05  -1.6867046e-04  -3.7295942e-04   2.2952542e-04  -3.7836653e-04  -4.5729117e-04  -3.6362241e-04   3.0418083e-05  -5.4660818e-04  -3.7711172e-04  -4.7617508e-04  -3.9729438e-04  -7.2319974e-04  -4.3617593e-04   2.3172020e-04  -9.9469951e-05  -6.5039820e-04  -4.3149071e-04  -3.7267324e-04   4.8231192e-05  -3.2425064e-04  -7.6229976e-06   1.1949425e-03   1.4563826e-05  -2.2455509e-04  -9.4847026e-05   7.5952972e-05  -3.3471169e-04  -3.2326274e-04  -4.5854496e-04  -3.0031710e-04  -2.5029757e-04   5.4077023e-05   6.2104999e-03  -1.5234944e-04  -1.1345982e-04  -5.0955999e-04  -1.9553944e-03   3.6440582e-03   2.8215540e-03  -2.7311855e-04   6.2178826e-04  -1.5738331e-04   4.3679014e-05
  -1.0453995e-03  -9.8608935e-04  -6.7480525e-04  -5.0297496e-04  -5.8186357e-04  -7.1801594e-04  -5.0748693e-04  -2.0931828e-04  -8.0018316e-04  -5.8667548e-04  -8.2155922e-04  -9.9944195e-04  -7.3692302e-04  -3.1813982e-04  -2.4241720e-04  -3.9627042e-04  -5.7050597e-04  -4.1529044e-04  -6.6755281e-04  -5.2615657e-04   1.9180811e-04  -1.6931002e-04  -6.8151992e-04  -6.0344511e-04  -9.0802112e-04  -3.7925689e-05  -4.5484104e-04  -3.8292928e-04  -6.2925473e-04  -9.5717769e-05  -2.9476834e-04  -2.6356802e-05  -1.7121476e-04  -4.5000220e-04  -2.6133473e-04   2.7084604e-04   1.1375828e-04  -2.6716990e-04   1.0473693e-03   4.8574014e-03  -5.7043839e-04   1.8124538e-04  -2.6970010e-04   1.3646367e-03   4.0366487e-03   1.8979314e-03   5.4046570e-04   7.8235508e-04   5.9198414e-04   6.7799218e-04
  -6.8920554e-04  -6.1421067e-04  -1.6569225e-04   6.6763227e-05  -1.8151321e-04  -1.6153310e-04   6.9007794e-05  -4.0425202e-05  -2.4159753e-04   6.7506830e-04  -7.5283140e-05  -2.5993049e-06  -1.9335330e-05   1.7913320e-04   3.1319453e-04  -1.1360130e-04  -3.9836779e-04  -3.3786299e-04   3.6087204e-04  -1.7669819e-04   4.3800389e-04   1.1669325e-04  -6.0757069e-04  -3.7176957e-04  -3.0311497e-04   8.2675790e-05   3.6303332e-04   1.6721475e-04  -1.2287282e-04   1.8466353e-04  -1.2382011e-04  -3.5218411e-04  -2.9089702e-05   1.1031095e-04  -1.0005819e-04   5.1820080e-04   6.8150915e-04  -2.2801461e-04  -4.9104710e-05   6.7196852e-03  -1.7413749e-04   1.1055000e-04  -1.2352616e-04  -4.8602340e-03   3.0230009e-03  -3.1126693e-03   3.9432576e-04   9.0937107e-04   6.6333305e-04   6.8888976e-04
  -7.1716978e-04  -6.1246555e-04  -2.5935244e-04  -6.8690388e-05  -2.4497704e-04  -2.6600464e-04  -1.8074884e-04  -2.9787407e-04  -2.9943616e-04   9.2686540e-05  -2.9973240e-04  -3.5771800e-04  -9.5208452e-05  -3.8945931e-05   2.3816661e-04  -1.4645029e-04  -3.5726093e-04  -2.6482405e-04  -2.9213706e-04  -2.0437587e-04   3.6104047e-04   2.2913528e-06  -6.5555208e-04  -5.4929109e-04  -3.9327072e-04   1.6769406e-04  -7.1474737e-05   1.4499179e-05   1.6650066e-04   7.3126255e-05  -1.6498567e-04   2.8485985e-04  -2.8953754e-04  -6.9558423e-04  -3.0652355e-04  -1.2574960e-04  -4.4116232e-04  -1.9387166e-04  -2.8169798e-04  -2.3449552e-03  -5.5616006e-04  -2.5785455e-04  -7.9344062e-04  -3.0828572e-03  -4.1181045e-03  -5.8771961e-04  -4.0338357e-04   4.5702938e-04   2.4502014e-04   2.3388625e-04
  -6.0842419e-04  -6.1539677e-04  -4.2172021e-04  -3.8637631e-04  -3.8510811e-04  -5.8643351e-04  -3.5265120e-04  -2.7672664e-04  -5.2023795e-04  -1.0813964e-03  -7.9276034e-04  -8.1217696e-04  -7.0907758e-04  -6.0292718e-04  -4.1974548e-04   5.0525901e-05  -4.7317625e-04  -3.2092302e-04  -7.7597666e-05  -4.4195860e-04   1.9419995e-04  -1.7535292e-04  -6.7816052e-04  -8.1105967e-04  -8.3679735e-04   4.2078984e-05  -9.1846171e-04  -4.1684689e-04  -1.2960155e-04  -2.6068196e-04  -6.4434826e-05  -5.6860014e-04  -8.7266308e-05  -4.7906203e-04  -5.3328968e-04  -5.2718149e-04  -1.2253976e-03  -2.9910589e-04  -4.6459267e-05  -1.7254496e-03  -8.6654921e-04  -5.8780628e-05  -6.3871720e-04   8.9975935e-04   7.8236422e-04  -2.5012705e-03   4.9973506e-04   5.8878702e-04   6.6793669e-04   6.5096066e-04
  -3.0186350e-04  -3.2804010e-04  -9.7521690e-05  -3.2890609e-06  -8.6486689e-05  -7.3272226e-05   1.2692114e-04  -1.2617437e-05  -3.1169082e-04   1.4142730e-04  -1.4331815e-04   9.1815506e-05   1.3822786e-04  -3.3443957e-05   1.6161732e-04  -3.5387883e-04  -5.0935266e-04  -3.2135687e-04   7.8061326e-05  -1.8657339e-04   4.5844793e-04   2.0440211e-04  -4.2758466e-04  -4.3615297e-04  -6.1588554e-04  -1.4840168e-04   2.7471050e-04  -2.3884143e-04  -1.0192649e-03   1.1666143e-04   3.6458366e-04   1.6975321e-04   3.0946685e-05  -3.3777906e-04  -3.1231254e-04   2.5127192e-05  -3.4159771e-04  -2.1118365e-04   5.2696804e-04  -9.1776578e-04  -5.1504112e-04   6.4378328e-05  -3.8672925e-04  -2.4554050e-03   3.9448878e-03  -7.2382647e-04   5.5798702e-04   7.9519919e-04   6.7525287e-04   5.5098732e-04
  -3.9747907e-04  -3.1751153e-04  -1.7072723e-04  -7.8876197e-05  -1.2572206e-04  -1.9050721e-04  -2.2535138e-04   1.0163974e-04  -4.8734405e-04  -2.1807944e-04  -2.6190202e-04  -1.8569503e-04   7.2630093e-05  -2.7621837e-04  -4.1213486e-04   1.7397366e-04  -4.8749486e-04  -3.7137116e-04  -6.6385505e-04  -2.6402847e-04   3.5414030e-04   9.4425501e-05  -6.2360050e-04  -4.9656403e-04  -7.0330454e-04  -2.4351169e-04  -1.1838983e-04   2.2127126e-05  -8.6126360e-04   5.6218619e-07  -2.0538059e-04  -3.0362676e-04  -1.9424512e-04  -6.7585695e-04  -4.1820327e-04  -2.4266250e-04  -8.4220410e-05  -1.7888439e-04   4.3777371e-04  -1.1607501e-02  -8.2797586e-04  -1.4409449e-04  -7.2280178e-04  -7.1251313e-03   1.5039184e-03  -1.3894121e-03  -1.8127888e-04   3.1416709e-04   1.7133227e-04  -1.4363440e-04
  -6.4995239e-04  -5.5681705e-04  -4.7829875e-04  -4.5650068e-04  -3.7547090e-04  -5.2386068e-04  -1.6468555e-04  -4.1778167e-04  -5.3709949e-04  -9.5884484e-04  -7.2462880e-04  -7.5415068e-04  -6.7265338e-04  -5.5641332e-04  -5.5646128e-04  -5.6085171e-04  -5.9512648e-04  -5.1916705e-04   4.0613872e-05  -5.3493859e-04   1.6039079e-04  -9.3172457e-05  -8.6483412e-04  -8.0892083e-04  -1.0331051e-03  -3.5276246e-04  -1.3512957e-05  -6.8114919e-04  -3.9465088e-04  -3.1784750e-04  -2.4085390e-04  -7.8883022e-04  -3.6737292e-05  -4.6410129e-04  -5.2422966e-04  -4.8729414e-04  -2.0445396e-04  -3.1673405e-04  -2.5187005e-04  -2.3629887e-03  -5.8090477e-04  -4.4563168e-04  -9.2317763e-04  -1.3333153e-02  -1.9290760e-03   1.6791429e-03  -3.2898888e-04   8.3108229e-05  -2.5139723e-04  -5.1609782e-04
  -6.8251294e-04  -5.7579979e-04  -3.1993966e-04  -2.5611601e-04  -2.5418404e-04  -3.9715855e-04  -2.9941482e-04  -5.1269855e-04  -2.6717153e-04  -5.6737252e-05  -3.5288974e-04  -1.4267967e-04  -2.3199616e-04  -2.3115233e-04  -5.1978696e-04  -5.5725680e-04  -6.2370900e-04  -3.9168485e-04   4.1347090e-04  -3.4815539e-04   3.0356710e-04  -8.3806874e-05  -6.1097264e-04  -5.3528079e-04  -6.7614479e-04  -3.9526474e-04   1.3973947e-05   2.8056171e-04   1.5242789e-03  -8.8916939e-05  -2.8832653e-04   1.8878072e-04  -2.9981308e-04  -9.0338806e-05  -5.5912446e-04  -3.5573822e-04   1.2742195e-04  -3.1149935e-04  -3.7334589e-04   2.3519248e-03  -8.6128269e-04   1.8807910e-05  -6.7242060e-04  -1.0374322e-03  -1.2184710e-03  -1.8972167e-03   9.6501222e-05   5.3609814e-04   8.3431833e-06   4.5210929e-04
  -6.1555102e-04  -4.5124089e-04  -3.4745317e-04  -2.5148111e-04  -2.4733981e-04  -4.0065078e-04  -2.9693687e-04  -1.2407108e-04  -3.2102558e-04  -3.1126154e-04  -3.9009601e-04  -2.8971801e-04  -1.0121377e-04  -1.3497846e-04  -2.8373225e-04  -4.2624254e-04  -5.8027933e-04  -2.9052550e-04   8.9849149e-05  -3.7903266e-04   2.4856438e-04  -6.0702769e-05  -5.8376190e-04  -6.0576567e-04  -9.7448146e-04  -4.2592324e-04  -1.1149464e-04  -3.4423347e-04  -1.3815985e-03  -1.5320090e-04  -5.8696209e-04  -9.3969320e-05  -2.1026823e-04   1.5861259e-04  -4.7165959e-04  -3.2114747e-04  -4.5602844e-04  -3.5149965e-04   1.9673906e-04  -5.3485371e-03  -6.1647256e-04  -2.2088386e-04  -5.2874535e-04  -2.6373109e-03  -2.6197121e-03  -1.4108905e-03  -1.9242860e-04   2.4666780e-04  -4.1107359e-04   1.8030285e-05
  -8.1206718e-04  -6.4214173e-04  -6.2136177e-04  -5.8043550e-04  -4.5465823e-04  -6.1402575e-04  -7.2982558e-04  -1.5038130e-04  -8.4245717e-04  -1.0041514e-03  -8.0076145e-04  -8.2901708e-04  -7.2743249e-04  -5.9937476e-04  -5.5343955e-04  -8.7612437e-04  -6.3072867e-04  -3.6875615e-04   1.9029570e-04  -6.0680648e-04   8.3311243e-05  -2.7355674e-04  -8.8276586e-04  -8.5952738e-04  -8.3656603e-04  -4.8169744e-04  -7.9217856e-04  -7.5412088e-04  -8.0553305e-05  -4.1290329e-04  -3.5341972e-04  -7.4596878e-04  -2.7539569e-04   4.9867536e-05  -5.4579170e-04   2.5668321e-06  -1.2595993e-03  -3.5106999e-04  -5.2061887e-04  -3.8873914e-03  -1.0917087e-03  -5.4659124e-04  -1.0217174e-03   8.0849873e-03  -3.8557136e-03  -5.0842599e-04  -4.3095404e-04  -1.9409975e-04  -2.7119328e-04  -5.4934720e-04
  -8.1261958e-04  -6.4986956e-04  -4.4164466e-04  -3.4806444e-04  -3.2115501e-04  -4.1721994e-04  -3.7736751e-04  -6.2374072e-04  -5.5663654e-04  -1.1358774e-04  -4.1981734e-04  -2.1124861e-04  -3.5742315e-04  -4.9479189e-04  -6.6423457e-04  -3.4086578e-04  -6.9877697e-04  -2.3695244e-04  -8.6034840e-04  -4.3955259e-04   2.5607040e-04  -8.6112093e-05  -6.1011792e-04  -5.3661701e-04  -4.6225986e-04  -4.0957442e-04  -2.4394163e-04  -3.4206020e-04   9.2909482e-05  -2.1530977e-04  -2.1556071e-04  -4.7760876e-04  -4.0595213e-04  -6.1977276e-04  -5.2595313e-04   9.3622548e-05  -5.3018291e-04  -2.2905396e-04   4.8989756e-04   1.9315816e-03  -4.4018278e-04  -9.2881426e-05  -6.7964738e-04   3.6857149e-03  -3.3324733e-03  -4.7821269e-04   1.1818765e-05   2.2414082e-04   2.6973349e-04   1.1777493e-04
  -7.0544786e-04  -5.2141317e-04  -4.3918352e-04  -3.0367705e-04  -3.0075971e-04  -3.4203584e-04  -2.4477780e-04  -2.7666526e-04  -3.4810751e-04  -3.5565620e-04  -4.5519095e-04  -3.6046925e-04  -4.7618870e-04  -4.6965643e-04  -4.9798260e-04  -1.4958420e-04  -7.0484041e-04  -2.7150495e-04  -2.3979983e-04  -4.5895966e-04   2.3795512e-04  -7.5128322e-05  -7.2986423e-04  -6.9393642e-04  -9.1848685e-04  -4.4354808e-04  -3.8381538e-04  -2.7973397e-04  -7.4402790e-04  -2.9829322e-04  -2.4796359e-04  -5.3118134e-04  -2.5785269e-04  -4.0462121e-04  -6.0597237e-04  -2.8744526e-04  -6.0577784e-04  -3.0813663e-04  -3.1291854e-04   6.7379116e-03  -5.6655082e-04  -2.1153429e-04  -6.8669766e-04   1.3917058e-03   1.0336174e-02   1.4863382e-04  -3.0285172e-04  -1.7184093e-04  -4.5880425e-04  -5.4822565e-04
  -9.1254321e-04  -7.0109533e-04  -6.8522943e-04  -5.9132208e-04  -4.9391092e-04  -6.8671629e-04  -6.3592289e-04  -6.3809688e-04  -8.5303118e-04  -1.0442983e-03  -8.4873522e-04  -8.8060263e-04  -7.1699079e-04  -8.1281987e-04  -4.5030049e-04  -1.1621041e-03  -7.2482135e-04  -3.8138675e-04  -6.4451963e-04  -6.4319791e-04   8.1824386e-05  -2.2329653e-04  -1.0330892e-03  -8.4233010e-04  -1.6475837e-03  -4.4500150e-04  -4.6421721e-04  -5.3206057e-04  -1.1546576e-03  -5.4404791e-04  -3.7986541e-04  -2.7552649e-04  -4.3550876e-04  -2.4148831e-04  -7.1544823e-04  -4.0131123e-04  -6.4440526e-04  -3.2503554e-04  -6.0791912e-04  -7.1733922e-04  -9.4450737e-04  -4.9867010e-04  -9.9007552e-04  -4.8645316e-03   7.9601421e-05   9.3911571e-04  -3.8038573e-04   1.2576180e-04  -1.2561733e-06   2.1237243e-04
  -7.8132149e-04  -5.6230155e-04  -3.9573899e-04  -2.5257203e-04  -2.9743716e-04  -3.8629473e-04  -2.3916033e-04  -2.8941405e-04  -4.9132801e-04  -8.0767371e-05  -3.4333632e-04  -1.9535066e-04  -2.7618240e-04  -4.1424145e-04  -5.4450589e-05  -4.7999172e-04  -5.3740561e-04  -4.0176246e-04  -5.9172366e-04  -4.0055157e-04   3.1111905e-04  -8.4802195e-05  -8.2154805e-04  -5.7849940e-04  -8.4826595e-04  -3.2245190e-04   2.2293800e-05  -5.7897967e-04  -5.7107734e-04  -2.2544540e-04  -1.3700992e-04  -5.7251239e-04  -4.1601196e-04   5.8787453e-05  -4.4352212e-04  -3.9915615e-04   6.2503364e-05  -1.9477047e-04  -4.9419259e-04   1.1836374e-02  -4.6902924e-04  -1.5574440e-04  -6.4973300e-04  -8.4102545e-03  -3.9642253e-03  -6.2104815e-04  -2.8754854e-05   1.3203188e-04   1.4209768e-04  -1.8932144e-04
  -7.8707712e-04  -5.1406963e-04  -3.9230668e-04  -2.2074420e-04  -3.2001024e-04  -5.1964709e-04  -1.4258693e-04  -4.9316575e-04  -5.1123038e-04  -3.4996416e-04  -4.1079789e-04  -3.6423051e-04  -4.0343017e-04  -2.9233139e-04  -4.7926372e-04  -6.2765204e-04  -4.5858373e-04  -4.0577972e-04  -1.1850182e-04  -3.8208539e-04   2.6889687e-04  -1.4827494e-04  -6.2319596e-04  -6.0706295e-04  -1.1175518e-03  -2.6653480e-04  -7.8026106e-04  -7.5924571e-04  -4.3111175e-04  -3.1541302e-04  -3.8163198e-04   3.8848313e-05  -1.7639424e-04  -2.4198413e-04  -5.7678012e-04  -9.4692032e-06  -6.4528902e-04  -2.6544716e-04  -4.3044289e-04  -1.2175544e-03  -8.4133458e-04  -3.7920492e-04  -9.4390649e-04   6.5417023e-04   2.5324064e-04  -2.4037138e-03  -6.0861104e-04   9.8349733e-07  -6.0345454e-04  -5.5261480e-04
  -9.5685152e-04  -7.0635026e-04  -6.2456314e-04  -4.9892499e-04  -4.9916317e-04  -7.0324336e-04  -6.1632466e-04  -5.3307391e-04  -8.0053625e-04  -1.0681035e-03  -8.0645480e-04  -8.8724424e-04  -9.8189828e-04  -8.3426386e-04  -5.9777626e-04  -7.8422017e-04  -5.4864015e-04  -4.9833814e-04  -3.7672496e-04  -5.8316917e-04   1.2537611e-04  -2.5845843e-04  -8.9705584e-04  -7.9118670e-04  -1.2491731e-03  -2.8811049e-04  -4.9101125e-04  -9.6389721e-04  -1.6463987e-03  -5.4875418e-04  -8.4341253e-04  -3.1054456e-04  -4.2572434e-04  -1.8718772e-04  -5.6830113e-04  -7.0224237e-04  -5.5140228e-04  -3.1279534e-04  -8.4692019e-04  -1.3333752e-02  -5.5736251e-04  -4.3097287e-04  -8.1553194e-04   7.2705825e-03  -2.5403888e-03  -6.6239067e-05  -1.1350022e-04   4.5124639e-06  -7.4326495e-06   1.0477018e-05
  -7.3704874e-04  -5.0938025e-04  -2.5471681e-04  -8.9112174e-05  -2.4435305e-04  -3.0862654e-04  -3.2176927e-04  -2.7766745e-04  -3.4945950e-04   2.6039138e-06  -2.5338482e-04  -9.7300814e-05  -3.4549373e-04  -4.6390959e-04  -3.6867065e-04  -5.4850202e-04  -3.8986965e-04  -3.2939011e-04  -3.8245798e-04  -2.1768958e-04   4.1965151e-04   6.5913948e-05  -3.8186100e-04  -3.8269747e-04  -3.1947263e-04  -1.3570717e-04  -4.6431494e-04  -5.5728335e-04  -1.6624386e-03  -1.8363656e-04  -1.7788800e-04  -8.8857859e-04  -1.5525322e-04  -3.3463506e-04  -1.9725323e-04  -5.4953071e-05  -9.0572884e-04  -1.4352861e-04  -3.7484334e-04   4.4336347e-03  -4.1950212e-04  -1.2898902e-04  -4.6137680e-04   7.0628040e-03   1.5088541e-03  -3.0451722e-04  -1.7566705e-04   1.1835946e-05   5.5298682e-05   2.3349379e-04
  -6.5714022e-04  -4.4786243e-04  -2.0025727e-04  -1.7266701e-05  -2.2229698e-04  -3.5258711e-04   6.9833281e-05  -3.6472394e-04  -2.7889840e-04  -2.3041043e-04  -2.7814170e-04  -2.6171230e-04  -2.6435804e-04  -5.5887265e-04  -4.0522456e-05  -5.2992854e-04  -3.0777117e-04  -2.0709191e-04  -3.5324285e-04  -2.2714313e-04   3.7678774e-04  -1.1528308e-05  -4.6942703e-04  -5.2523229e-04  -8.1336976e-04  -7.1527356e-05  -1.0204765e-03  -4.2151925e-04  -1.4170462e-03  -3.2919901e-04  -2.7732874e-04  -1.9904750e-05  -2.3783052e-04   4.7765166e-04  -5.0434197e-04  -7.0919388e-04  -2.1715640e-04  -2.1719535e-04  -5.1952415e-04   2.6951870e-03  -3.5339443e-04  -3.1570703e-04  -4.7699755e-04  -5.9896791e-03  -1.2658346e-03   7.4728735e-04  -6.2052021e-04   3.5062301e-05  -2.3132919e-04  -6.6058717e-05
  -8.0042181e-04  -6.2601146e-04  -4.0116129e-04  -2.9436641e-04  -4.0761827e-04  -6.6617306e-04  -3.5741707e-04  -6.1196607e-04  -6.9800526e-04  -9.1613038e-04  -6.6948700e-04  -7.5584272e-04  -8.8248297e-04  -9.3698298e-04  -7.3560042e-04  -8.0268853e-04  -3.4745893e-04  -1.7320069e-04   3.2406952e-04  -4.5759909e-04   2.2825728e-04  -1.2790077e-04  -8.7228976e-04  -6.6880172e-04  -9.6470100e-04  -1.2020510e-04  -7.4639614e-04  -1.1681151e-03  -8.4349402e-04  -4.6919400e-04   8.7472901e-05  -2.3148801e-04   7.6269175e-06  -6.3285857e-05  -3.8317969e-04  -2.5164100e-04  -3.1920048e-04  -2.5992119e-04  -1.0237843e-03  -4.0280637e-03  -7.1568700e-04  -4.2535478e-04  -7.5659179e-04  -7.6184626e-04  -8.4600761e-04   8.0715718e-06  -2.7961517e-04  -3.1560285e-05  -2.6651286e-04  -6.2450849e-06
  -6.5110781e-04  -4.5848743e-04  -8.8005589e-05   4.8923066e-05  -1.8641795e-04  -3.8575626e-04  -1.0352235e-06  -2.3738200e-04  -8.9488603e-05   1.0894227e-04  -1.9011636e-04  -5.0542549e-05   4.2002084e-06  -1.7705231e-04  -5.1283819e-04  -4.7595383e-04  -2.4592251e-04  -4.0223546e-04   3.9150746e-04  -1.5585641e-04   4.6780822e-04   1.2760410e-04  -3.2034566e-04  -2.7295505e-04  -8.7260379e-04  -4.0419753e-05  -4.6623839e-04  -1.6593044e-04  -7.1820023e-04  -1.8133235e-04   9.3477665e-06   2.2900618e-04   8.8829283e-06  -1.3426506e-04  -1.7465347e-04  -1.9685154e-04  -6.5957691e-04  -1.0765492e-04  -3.8706444e-04  -9.3262922e-03  -4.5674053e-04  -1.3459838e-04  -4.9169018e-04  -2.2429025e-03  -1.0368567e-03  -3.0532866e-04  -5.4376942e-05   3.8273030e-04  -6.8308342e-05   1.5746444e-04
  -5.6792703e-04  -3.5092825e-04  -1.8679701e-05   1.2666045e-04  -1.4807611e-04  -3.5907526e-04  -1.1935223e-04  -2.2294272e-04  -2.6247205e-04  -1.5192830e-04  -1.7586276e-04  -1.4806625e-04   1.0389114e-04  -2.9837003e-04   2.4956459e-04  -2.8223396e-04  -1.9971958e-04  -1.5886661e-04  -1.9157061e-04  -8.5749649e-05   4.4114527e-04   1.6063993e-04  -3.4090513e-04  -3.7215630e-04  -8.3205500e-04  -3.4701745e-06   7.2939554e-05  -5.2440271e-04   1.0920232e-03  -2.3236625e-04   4.1583724e-05  -6.9659227e-04   2.8505210e-05  -2.4964867e-04  -4.7787561e-04   8.5332700e-05  -5.0431656e-05  -1.7488335e-04   1.2926073e-04   5.9073595e-03  -4.6403139e-04  -2.4824750e-04  -4.2608913e-04  -7.7275448e-03  -8.4452814e-04   1.2113655e-03  -6.0668029e-04   1.1131464e-04  -2.8432856e-04  -1.6390772e-04
  -6.9072540e-04  -5.0037092e-04  -2.1902182e-04  -1.9678440e-04  -3.3105278e-04  -5.4207526e-04  -1.8203532e-04  -2.7306951e-04  -3.5249855e-04  -8.0771564e-04  -5.2670052e-04  -6.3176104e-04  -5.5773556e-04  -5.9509935e-04  -1.5908612e-04  -1.0645124e-03  -2.4665776e-04  -5.7049245e-05  -2.8387608e-04  -3.0020703e-04   2.8440042e-04  -4.2653795e-05  -6.6834717e-04  -6.1388069e-04  -8.7235041e-04  -1.3383653e-04   8.6306085e-05  -7.1336562e-04  -9.7052398e-04  -3.9473586e-04  -2.4885402e-04  -2.1634930e-04  -3.7750573e-04  -4.6141678e-04  -3.3589319e-04  -6.7591376e-04  -3.5111426e-04  -2.4082355e-04  -2.0076992e-04  -2.2055386e-03  -6.2929303e-04  -6.2852603e-04  -6.1785063e-04  -2.5974102e-03   3.4308567e-04  -2.9568537e-03  -7.9873449e-04  -2.0744809e-04  -2.4301933e-04  -3.0777766e-04
  -7.1394746e-04  -5.3314149e-04  -6.8933587e-05  -3.0499181e-05  -2.4890239e-04  -4.3223670e-04  -1.9855451e-04  -3.8574261e-04  -1.1720615e-04   1.0585785e-05  -1.9895070e-04  -8.5653242e-05  -9.3747723e-05  -5.7106814e-04  -3.6609039e-04  -1.4692472e-04  -1.9651266e-04  -1.6789339e-04  -3.6405085e-04  -1.1746634e-04   4.2814240e-04   8.5672080e-05  -3.6945002e-04  -3.1874116e-04  -5.3916912e-04  -4.9870683e-05  -2.7923717e-04  -3.3441861e-04   1.4506436e-04  -1.6252747e-04   2.8127735e-04   1.6161118e-04   2.4139733e-06  -2.0762309e-04  -3.1830842e-04   6.5051316e-04  -1.2943949e-04  -1.2098596e-04   7.0890394e-04  -5.3365412e-03  -4.2529835e-04  -1.0368908e-04  -4.2356970e-04   6.2682095e-04  -5.0527439e-03   5.2777043e-04  -1.1469040e-04   2.5416020e-04  -1.3371193e-04   1.9714101e-04
  -5.8625476e-04  -3.1985826e-04  -6.6070760e-07   7.7470431e-05  -1.8592148e-04  -2.3799844e-04   5.6168788e-05  -2.1275741e-04  -1.6889132e-04  -1.3873829e-04  -1.8165153e-04  -1.5135089e-04  -1.7214406e-04  -3.4442544e-04  -6.2874443e-04  -3.2425896e-04  -8.5501044e-05  -1.9669320e-04   4.1035295e-05  -1.0718038e-04   3.9959530e-04   7.7452976e-05  -3.8400618e-04  -2.4077643e-04  -6.7692768e-04   3.6768299e-05  -2.1128576e-04  -7.1636902e-04   5.8116973e-04  -1.5351881e-04  -9.0221420e-06  -3.1880927e-04  -2.2117223e-05   2.4311598e-04  -1.5766258e-04  -3.0009644e-04   2.3847831e-05  -6.2054904e-05  -2.5836471e-04   1.7532239e-03  -4.4968000e-04  -2.0864510e-04  -5.1349337e-04  -1.0754164e-02   3.4576133e-03   2.8625110e-03  -4.1454716e-04   1.2664389e-04  -3.9341065e-04   3.7836834e-04
  -6.9516862e-04  -4.5254218e-04  -2.0793208e-04  -1.8629360e-04  -3.3816739e-04  -4.8078515e-04  -2.9186785e-04  -5.1467499e-04  -4.7970843e-04  -7.7485660e-04  -4.9116940e-04  -6.0635095e-04  -5.3702143e-04  -5.0185365e-04  -3.8872135e-04  -7.9709763e-04  -4.6679674e-05   2.5411829e-05  -5.1176728e-04  -2.9981346e-04   2.0504511e-04  -1.4539809e-04  -6.0308771e-04  -4.2121764e-04  -9.1883464e-04   4.2699026e-05  -3.2456007e-04  -6.0422381e-04  -1.0231091e-03  -3.7586238e-04  -3.2646095e-04   2.3096474e-04  -2.1664160e-05  -1.6223591e-04  -2.3640085e-04  -5.5919756e-04  -5.3707114e-04  -1.4809119e-04  -9.5612399e-04  -4.1405051e-03  -5.7311560e-04  -5.5731361e-04  -7.1834616e-04  -6.3145002e-03  -3.7167429e-03  -2.6864352e-04  -9.7568147e-04  -9.6844698e-05  -3.0797071e-04  -5.5456848e-04
  -6.8520429e-04  -5.0418644e-04  -6.4160507e-05  -4.0187399e-05  -2.5580687e-04  -3.3868602e-04  -3.2777345e-05  -6.4291130e-04  -2.2300507e-04  -1.6133319e-05  -2.0329483e-04  -9.1681301e-05  -1.9617211e-04  -2.8516157e-04   1.0745591e-05  -5.2141771e-04   1.1427589e-05   8.0630934e-06  -6.7399285e-04  -1.1326800e-04   3.5086335e-04  -4.2133990e-05  -4.2789758e-04  -1.7880149e-04  -4.7811129e-04   1.2792717e-04   3.4341653e-04  -1.4963596e-04  -3.2495998e-04  -1.1077036e-04  -1.2122685e-04  -4.5198445e-05   2.2861976e-04  -1.7896701e-04  -8.4172185e-05  -4.0461655e-05   1.9834097e-04  -3.6894555e-05   2.4669472e-04   3.1092735e-03  -3.3955314e-04  -1.0377072e-04  -4.3441163e-04   1.8236534e-03   1.6453500e-03   2.6508004e-03  -1.9602702e-04   3.1016042e-04  -1.1543573e-04   4.3240536e-04
  -5.2651396e-04  -2.8321790e-04   1.9170966e-06   6.2309053e-05  -1.8472910e-04  -2.3781245e-04   1.7747570e-04  -4.2804616e-04  -3.9718900e-04  -1.4949469e-04  -1.3046985e-04  -1.6823539e-04   2.0489101e-04  -2.2290614e-04  -9.7957200e-06  -2.3711713e-04   8.9356479e-05   1.1504392e-04  -1.3952688e-04  -4.2423744e-05   3.1840405e-04  -8.0635189e-05  -1.3277703e-04  -2.9009252e-04  -5.7288527e-04   1.6032626e-04  -6.6317356e-04  -1.3033079e-04  -6.4495957e-04  -1.0022422e-04  -3.5342082e-04   1.1797922e-04   2.0654054e-04  -1.7411150e-04  -3.1134518e-04   1.7733884e-04   2.6313367e-04   3.2620857e-05  -1.2509219e-04  -1.6536977e-03  -2.6791662e-04  -3.2412354e-04  -2.7133524e-04  -7.8861797e-03   2.3017216e-03   3.4700450e-03  -7.2435685e-04   5.5665430e-05  -1.3122593e-04   9.3637602e-05
  -6.2732352e-04  -4.2765986e-04  -2.1482550e-04  -2.2080180e-04  -3.7963470e-04  -5.1881227e-04  -3.7040163e-04  -4.8004024e-04  -3.9441488e-04  -8.8679878e-04  -5.1237148e-04  -6.7802053e-04  -4.8099639e-04  -5.8765907e-04  -6.5303095e-05  -2.6591640e-04   1.4743468e-04   1.5035266e-04  -6.4989045e-04  -2.6708099e-04   1.3532165e-04  -3.3436099e-04  -5.1734602e-04  -4.6084257e-04  -8.7500212e-04   2.0264293e-04  -3.2276212e-04  -7.6514075e-04   3.9889003e-04  -3.2804647e-04   1.1755555e-04  -4.9892708e-04  -2.4916866e-05  -1.5838939e-05  -1.8199117e-04  -2.7972439e-04  -1.1725879e-03  -4.0407289e-05  -8.6555439e-05  -1.8984703e-05  -4.3087191e-04  -6.0992496e-04  -3.8289948e-04  -7.2475513e-03   4.3886253e-03  -3.2804545e-03  -1.2694991e-03   5.4033535e-05  -7.0325157e-04  -5.2113290e-04
  -8.1197894e-04  -6.4471184e-04  -3.7706198e-04  -4.1130578e-04  -4.8107628e-04  -6.4402161e-04  -4.5845611e-04  -4.7203983e-04  -3.1695585e-04  -3.7085233e-04  -4.4570371e-04  -3.5819877e-04  -4.6065019e-04  -4.2074040e-04  -4.4174914e-04  -5.1200669e-04   2.0716785e-05   1.3292188e-04  -5.6310638e-04  -1.8463180e-04   2.4208530e-04  -2.1801262e-04  -2.3012301e-04  -2.1350646e-04  -5.5486796e-04   1.5597889e-04  -2.2370052e-04  -1.0049906e-05  -5.5653922e-04  -1.2461744e-04   6.4853375e-05  -5.8334239e-04   1.0240989e-04  -8.6806183e-05  -1.2210097e-04  -1.6934122e-04   6.1868370e-04   9.6660988e-06   2.3211530e-04   2.7727689e-05  -2.5233737e-04  -1.7633766e-04  -1.1148860e-04   9.2293252e-04   2.8400084e-03   1.7498408e-03  -6.5912827e-05   6.1231724e-04   3.6690509e-04   6.7276816e-04
  -4.3280484e-04  -2.1695676e-04  -9.6235126e-06   3.7259080e-05  -1.7611966e-04  -1.8140583e-04   1.1124153e-04  -2.1084887e-04   3.4744742e-05  -1.3374360e-04  -1.0957776e-04  -1.2759744e-04  -5.9467104e-05  -1.0304740e-04   2.8779818e-04  -9.9975128e-05   1.4170956e-04   1.9973541e-04  -1.5907147e-04  -8.8249071e-05   2.7139307e-04  -1.3613257e-04  -1.4381185e-04  -1.1274494e-04  -3.4504899e-04   2.5366363e-04  -9.1567243e-05  -3.9122018e-04  -9.4411960e-05  -3.9752253e-05   5.7399890e-04   8.4087711e-05  -7.8392855e-05  -1.9685706e-04   1.4699409e-04  -2.2352500e-04  -1.0039202e-04   2.0517044e-05  -4.1205861e-04  -1.3651091e-03  -3.6126803e-04  -2.7140367e-04  -1.5549826e-04   1.6129470e-03  -2.4408507e-03  -5.5583083e-04  -4.9294555e-04   4.7417855e-04   1.9713554e-04   1.1894609e-05
  -4.7939710e-04  -3.2453943e-04  -1.6069777e-04  -1.5383850e-04  -2.9334141e-04  -4.0049347e-04  -3.9283172e-04  -1.4340562e-04  -3.8403543e-04  -7.0523797e-04  -4.0069156e-04  -5.2024075e-04  -2.3594417e-04  -2.7390130e-04  -3.4775675e-04  -3.5416722e-04   1.7169982e-04   1.4682230e-05   2.1426509e-04  -2.2864157e-04   1.2172273e-04  -3.0170902e-04  -4.1719078e-04  -3.5312251e-04  -6.1963970e-04   2.0383435e-04  -5.9631089e-04   5.8272602e-05   5.1025063e-04  -2.2286623e-04   7.4188043e-05   5.6517865e-06   7.2596390e-06  -2.1738924e-04  -2.3955395e-04  -2.9006688e-04  -5.1812758e-04   2.4831783e-05  -7.4244081e-04   6.6907573e-03  -3.5263982e-04  -5.6072226e-04  -3.9151046e-04  -1.0443790e-03  -3.7805995e-03  -4.8107253e-03  -1.1618611e-03  -5.6668265e-05  -2.6223456e-04  -2.5807662e-04
  -6.6888693e-04  -5.4584764e-04  -4.5350558e-04  -5.2273268e-04  -5.0795666e-04  -6.4999808e-04  -5.3728331e-04  -6.7464093e-04  -6.2032865e-04  -1.2436931e-03  -7.5257802e-04  -9.6103986e-04  -9.1853290e-04  -4.9259921e-04  -1.7382987e-04  -1.1813054e-03  -1.8589200e-05  -1.0467343e-04  -1.7080003e-04  -3.0220705e-04   9.0041227e-05  -3.6087155e-04  -3.3008470e-04  -2.8974316e-04  -7.6514628e-04   1.1798606e-04  -4.2403606e-04  -6.1125506e-04   1.5273390e-03  -2.5521428e-04  -2.1475366e-04  -1.8449877e-04  -1.5774336e-04   7.0795955e-05  -2.9255092e-04  -1.2934628e-04  -4.3679931e-04   1.5350925e-05   2.4137997e-04  -6.0677719e-03  -3.1334846e-04  -2.2634625e-04  -4.4803633e-04  -5.4530217e-03   1.4134253e-04   3.3175040e-03   8.0790123e-05   4.1115924e-04   3.4538985e-05   1.4665750e-04
  -3.0602689e-04  -1.8171531e-04   1.0184082e-05   5.3407959e-05  -9.2490365e-05  -9.7841577e-05  -3.1177224e-05  -2.6129547e-04  -4.9208324e-05  -3.6363926e-05  -5.4320473e-05  -3.6645954e-05   9.4934403e-05  -1.2551695e-04   1.7765623e-04  -1.9448707e-05   4.8385307e-05   9.2923852e-05  -2.8211635e-04  -7.2435258e-05   2.2927021e-04  -1.0017710e-04  -1.4751956e-04  -7.1621827e-05   1.4579300e-04   2.6592464e-04  -7.3539960e-04  -2.3491214e-04   5.1000324e-04  -3.1104602e-05   7.0997071e-06  -3.1094803e-04   4.2278905e-05   2.5060799e-04   2.2214832e-04   8.0957609e-05   3.8428701e-04   1.3215232e-05   1.5469252e-04  -5.8853212e-03  -2.6208378e-04  -1.1229337e-04  -3.9286577e-04   2.9463501e-04   2.3599387e-04  -3.9873316e-04  -9.2317598e-05   3.0516004e-04  -8.0516227e-05   7.3139337e-05
  -1.9423304e-04  -2.1883922e-04  -8.1642378e-05  -9.4322691e-05  -1.4447760e-04  -2.4683319e-04  -9.2506278e-05  -8.1639286e-05  -2.9889212e-04  -4.7403271e-04  -2.5412772e-04  -3.5116545e-04  -4.1124035e-04  -2.9420458e-05  -5.4586347e-04   3.0181121e-05   2.7193790e-05  -2.8113756e-05   4.6136513e-04  -1.8728136e-04   1.2443784e-04  -1.7568449e-04  -2.1671667e-04  -2.3270518e-04  -5.0300109e-04   1.5206207e-04   6.0037669e-06  -7.8836561e-04  -3.2179803e-04  -1.4673143e-04  -2.4461150e-04   3.6565715e-04   1.6842718e-04  -2.1845924e-04  -2.1297978e-05   3.2604553e-04  -2.0652247e-04  -7.9745842e-05   4.8511683e-05   3.0060945e-04  -3.0128966e-04  -5.0632859e-04  -4.2721885e-04   3.4378264e-03  -4.0850607e-03   4.3475898e-03  -7.4105948e-04   1.2066150e-05  -4.3728910e-04   9.6717289e-05
  -4.3778858e-04  -4.1995631e-04  -3.4888566e-04  -4.1200413e-04  -3.6184973e-04  -5.8398856e-04  -3.9806185e-04  -5.1347999e-04  -5.3371757e-04  -1.0848399e-03  -6.2254386e-04  -8.2271930e-04  -4.3452723e-04  -5.3517672e-04  -4.2502538e-04  -5.4947904e-04  -3.6383251e-05  -1.1679894e-05  -1.3143227e-04  -3.4557510e-04   1.5015222e-05  -3.0382042e-04  -2.3863885e-04  -3.2351931e-04  -4.6257081e-04   8.8871893e-05   2.3136518e-04   2.8902022e-04  -1.9022892e-03  -2.6118127e-04  -8.6430382e-06  -5.7887199e-04   4.4306042e-05   2.5448497e-04  -1.9573899e-04  -4.3127855e-04   2.2510871e-04  -8.8781264e-05  -5.2801402e-05   1.6037667e-02  -2.7437374e-05  -1.5904865e-04  -9.4219002e-05  -2.2221595e-02  -7.1731926e-04  -1.1381890e-03   2.0403741e-04   4.0687292e-04  -1.1027794e-04   2.7892768e-04
  -1.8608404e-04  -1.3861989e-04   8.6227092e-06   2.7794520e-05  -4.2369775e-05  -9.1173119e-05   2.9855358e-04   1.5660821e-04  -3.0091661e-04   1.0311619e-05   7.6283009e-06  -1.8207682e-05  -2.2190665e-05  -1.8004935e-04   1.6546901e-04  -8.7784982e-05   8.7215216e-05  -8.2295664e-05  -5.4555152e-05  -6.7417437e-05   1.6217260e-04  -1.3788736e-04  -3.1705786e-05  -5.6906349e-05  -2.6159803e-04   1.8154901e-04  -2.9041711e-04   6.3121399e-05   4.9251301e-04  -1.5873436e-05   2.4138931e-04  -1.1757970e-04   1.3573811e-04   3.3648557e-04  -1.5830698e-04   2.2108390e-04   3.5076105e-04   2.5759889e-05  -1.0580139e-04  -1.4365260e-02   4.5398767e-05  -2.3915086e-04  -1.4587845e-04  -9.4406027e-04  -2.8153337e-03  -4.5625464e-04  -2.7984232e-04   3.2444965e-04   1.6028178e-04   2.5977343e-04
  -1.8529237e-04  -1.8155604e-04  -9.0623638e-05  -9.4411829e-05  -1.4043448e-04  -2.7410206e-04  -2.6239172e-04  -1.1730138e-04  -1.5748918e-04  -4.7711338e-04  -1.3559007e-04  -3.4795431e-04  -1.5016076e-04  -2.0162454e-04  -1.0642557e-03   3.3332562e-05   1.3153440e-04   1.7784690e-04   3.6313731e-04  -1.5464262e-04   6.0475697e-05  -2.6410361e-04  -3.0631505e-04  -1.7105397e-04  -1.8978542e-04   3.2348427e-04  -3.4453408e-04  -4.6560247e-04  -4.6906792e-04  -1.1609047e-04  -3.0078000e-04  -7.8713692e-06  -1.5947857e-04  -2.3194623e-05   1.6615901e-06  -2.1763344e-04   4.2163121e-04  -1.9570562e-05  -5.0194369e-04  -1.3378033e-03  -5.1508984e-04  -4.8865488e-04  -1.0177257e-04   1.5014400e-03   1.6406231e-03   1.3084710e-03  -8.2015962e-04   5.0329356e-05   3.1936932e-05  -2.6578954e-04
  -3.5654273e-04  -3.9055393e-04  -3.4015780e-04  -4.2513938e-04  -3.6496323e-04  -4.7789872e-04  -4.5094619e-04  -6.2748796e-04  -3.7193196e-04  -1.1493312e-03  -5.8382773e-04  -8.5422490e-04  -8.8620855e-04  -4.9038458e-04  -1.1811185e-04  -5.7169644e-04   8.5571060e-05   2.7147811e-04   4.8880116e-04  -3.7578071e-04  -9.8994882e-05  -4.7288643e-04  -3.8502217e-04  -2.5150614e-04  -3.2009048e-04   2.4525888e-04  -4.6279290e-04  -4.4760483e-04  -9.8747150e-05  -3.2202710e-04  -2.2792222e-04  -2.6793923e-04  -1.4337560e-04  -8.1311962e-05  -1.2036160e-04  -5.6048091e-05   3.4718236e-04  -6.6354092e-05   1.9597750e-04  -9.0211770e-03  -4.0202658e-04  -3.2859485e-04  -2.5774620e-04   5.3485128e-04  -4.2019510e-03   1.1373796e-03  -1.4216459e-04   4.0258770e-04  -3.1748907e-05   6.8626768e-04
  -1.2719557e-04  -1.0800009e-04   2.9842311e-05   2.7192562e-05  -4.6749003e-05  -3.9438655e-05   1.5773631e-04   2.4730459e-04   5.8431535e-05   9.3938499e-05   9.3573370e-05   9.6122958e-06   3.5193108e-04   1.1509353e-04   3.3172409e-04   3.8044021e-04   1.6418088e-04   1.5616026e-05   3.3362713e-04   5.0235981e-06   1.2370021e-04  -1.8482024e-04  -5.9264788e-05   1.0010151e-04  -2.3298808e-05   2.9336076e-04  -1.6597183e-05  -6.7839457e-05  -4.4368942e-05  -4.4026178e-06   3.2331279e-04   4.9709849e-04   1.9412900e-04  -8.9912784e-05   2.5072531e-04  -1.7374830e-04  -2.1844056e-04   5.6956567e-05   2.4603600e-05   1.4020811e-04  -1.8704416e-04  -2.7503356e-04  -1.7862237e-04   5.1776934e-03  -2.5054661e-03   7.0911052e-04  -2.1188751e-04   3.5496699e-04  -4.1242227e-05   2.0589156e-04
  -1.0745741e-04  -1.1679736e-04  -3.5338191e-05  -1.8666911e-05  -9.7655357e-05  -2.7208056e-05   3.3218621e-05  -2.6612557e-04   8.1246319e-05  -3.0189901e-04  -8.4827094e-05  -2.5182206e-04   1.0631641e-04  -4.5079341e-05  -2.7013797e-04  -5.2884943e-04   6.5197775e-05  -3.3177505e-05  -8.1618411e-05  -1.1118077e-04   5.6952442e-05  -1.7427762e-04  -1.8798893e-04   4.6137266e-05  -1.5998312e-04   1.6317065e-04  -5.7142327e-04  -2.1773287e-04   6.2261469e-04  -6.0772021e-05   1.3305457e-05   6.2075030e-04  -1.5598567e-05   2.8241688e-04   3.7315019e-06  -8.9754316e-04  -3.8116163e-04  -3.4298504e-05   8.6373555e-05   6.6836397e-03  -2.5578350e-04  -3.6487545e-04  -3.8441629e-04  -4.0472411e-03  -3.2896108e-03   2.6474472e-03  -4.0313159e-04   1.5316762e-04  -1.4158861e-04   2.0761450e-04
  -2.6538817e-04  -3.0606409e-04  -2.8342765e-04  -3.4124174e-04  -2.7163007e-04  -3.2063053e-04  -1.2359339e-04  -5.8551022e-04  -2.6339485e-04  -8.9818169e-04  -4.5420954e-04  -7.0117274e-04  -3.8412513e-04  -4.8882130e-04  -3.0839746e-04  -2.2548465e-04  -9.7813529e-05  -9.2945673e-05  -7.9823908e-04  -3.3514760e-04  -7.1556162e-05  -1.2509529e-04  -3.8638868e-04  -1.8585777e-04  -1.1156620e-04   7.3250594e-05  -5.4182630e-04  -1.2023016e-04  -3.3839419e-04  -3.3657212e-04  -6.5922400e-04   2.2764307e-05  -2.3871391e-04  -2.2076332e-04  -3.6511639e-05   5.9331145e-05  -3.4317368e-04  -5.3504918e-05   2.7927787e-05   5.7855984e-03  -2.8796078e-04  -3.2854135e-04  -3.4975979e-04  -3.7988059e-03   2.4054870e-03   6.6072762e-04   8.8008834e-05   8.4044434e-05   1.9340531e-04   3.3587610e-04
   9.7013908e-05  -6.9814996e-05   9.2875816e-05   7.7810080e-05   6.4446009e-05   4.8814145e-05   9.8894789e-06   1.2216736e-04   7.2812327e-05   1.9040068e-04   1.2161161e-04   9.1442795e-05   2.6924218e-04  -2.4319013e-07   2.4345636e-04   1.0872255e-04  -1.2436134e-04  -1.0666156e-04  -9.5077972e-05  -4.9245896e-06   1.9551312e-04   2.6810495e-04   1.7222033e-04   1.8566524e-04  -3.1757553e-04   2.1016963e-04   1.7300974e-04  -2.3493190e-04   5.9272083e-05   5.4064843e-05   3.1962122e-07  -2.1131706e-05   2.0809697e-04  -5.9032525e-05  -7.7362194e-05  -2.9828653e-04  -9.5911309e-05  -6.1381383e-05  -4.9138337e-04   1.6683869e-03  -1.0842524e-04   1.1943949e-04  -9.2901792e-05  -5.3735548e-03  -2.5955623e-03   1.0500376e-03   4.3653435e-04   7.0750146e-05   4.9983157e-04   3.2265711e-04
   2.0686501e-04   1.3745600e-05   1.4484758e-04   1.3317926e-04   1.1385713e-04   7.9560428e-05   1.9226533e-04  -5.4080760e-05   2.1726674e-04  -6.3118714e-05   7.6507145e-05  -3.0974603e-05   1.1646587e-04   1.2129049e-04   9.6597287e-05   9.5152638e-05  -1.3049247e-04   4.5008364e-05   3.5804370e-04  -3.8920210e-05   1.2859849e-04   2.7950056e-04   2.9917906e-05   2.1228165e-04   6.6616514e-05   1.1486706e-04   1.8965964e-04  -2.9008882e-04   1.5969262e-04  -2.6206964e-05   2.4342875e-04   4.5230484e-04   1.5430013e-04   1.2715210e-04   1.2629667e-05   6.5359718e-04  -4.3534714e-04  -5.1655428e-05  -5.0761417e-04   7.0310519e-03  -3.6796730e-04  -1.1035139e-04   1.1118139e-04   4.4476474e-03  -3.6616370e-04   2.1992705e-03  -2.1279312e-04  -2.3898364e-04   9.7096483e-05  -6.1184510e-05
   5.0167320e-05  -1.6732441e-04  -5.6730569e-05  -1.5206920e-04  -3.6905381e-05  -1.6379435e-04  -2.6521622e-04  -1.3312443e-04  -2.1797865e-04  -7.3466782e-04  -3.0400773e-04  -5.4903392e-04  -9.0932714e-05  -1.2121043e-04  -5.7621114e-04  -5.7366211e-04  -2.6409305e-04  -1.7696220e-04  -4.0672039e-05  -2.6654763e-04  -4.0086576e-05   1.2138345e-04  -2.7324446e-04   5.6028380e-06   1.9485415e-04   1.9386898e-06  -2.5923867e-04  -7.8517315e-04  -9.5131330e-04  -2.6946142e-04  -1.6794867e-04  -7.0506860e-05   8.5690088e-05  -1.0513489e-04  -7.1535833e-05  -3.1745649e-04  -1.2099098e-04  -1.6065057e-04  -3.2161802e-04  -1.5084442e-03   3.5055825e-06  -3.6878418e-04  -5.2350754e-04  -1.8068288e-03  -1.3154891e-03  -5.2996201e-04  -3.2741021e-04  -6.1502063e-04   2.6843145e-05   1.0859854e-04
   8.4946681e-05  -1.4291122e-04   1.3068221e-04   6.3763728e-05   1.1204820e-04   8.2422121e-05   3.1157058e-06   1.4253982e-04   3.7418198e-05   1.2692512e-04   9.0105634e-05   5.5674598e-05   3.7508772e-04   5.7813304e-05  -1.8851290e-04  -2.0515398e-04  -2.8354084e-04  -5.4961984e-05  -5.2536125e-05  -1.2288725e-05   1.2714765e-04   3.3797577e-04   2.0242528e-04   2.3878606e-04   7.4538788e-05   3.2414511e-05   1.5718989e-04   1.3329345e-04   1.6915698e-03  -3.9500374e-06   1.0076899e-04   2.8958661e-04   4.0035491e-04  -9.3750772e-05   4.3269687e-05   8.7593019e-04   1.3094071e-04  -9.2410766e-05  -2.8612794e-04   6.1858096e-03   7.3887590e-05   9.9395089e-05  -2.1551097e-04   2.1067411e-03   2.1381904e-03   1.4212150e-03   4.7784508e-04  -5.6286157e-05   3.7495271e-04   4.4300148e-04
   1.4644788e-04   4.0929026e-05   1.9088776e-04   1.6003766e-04   1.8453637e-04   1.3339017e-04   1.9046997e-04   1.2158833e-04   2.7232163e-04   3.1808959e-05   1.2917246e-04  -9.0693729e-06   3.5558498e-04  -1.1555725e-04  -2.2229382e-04  -4.8457507e-05  -1.6006794e-04  -1.1580352e-04   9.5246520e-05  -2.6728381e-05   8.5013467e-05   2.9700107e-04   1.0458945e-04   2.6333096e-04   7.3401723e-05  -2.6053740e-05   3.5018966e-04   1.8872974e-04  -3.5542386e-04   4.2625406e-06  -1.8813103e-04  -2.6271501e-04   1.7467604e-05   2.6167725e-04   5.1655163e-05   7.0791721e-05   3.1761159e-05  -2.5040625e-05  -1.4243404e-04  -1.3174429e-02   1.0357770e-04   2.4653522e-05  -8.6898115e-05  -8.5638575e-03  -6.2836269e-03  -6.7608670e-04  -3.1237367e-05  -7.9986639e-05  -8.4507934e-05  -9.6569478e-05
  -7.0340066e-05  -1.1298461e-04  -2.6747986e-05  -1.0747802e-04   1.7312190e-05  -1.2878077e-04  -4.1533072e-05  -5.4714539e-05  -8.3355771e-05  -5.2584073e-04  -1.9391740e-04  -4.3202113e-04   4.3226413e-05  -4.6289697e-06   5.7559515e-05  -4.1642477e-04  -2.4066848e-04  -2.5354343e-04  -2.5573897e-04  -2.6050015e-04  -7.2917639e-05   1.9072623e-04  -2.7920978e-04   7.5811637e-05   6.2084553e-05  -1.8831957e-04  -3.7717435e-04  -4.7735975e-04  -1.9620040e-04  -2.2106295e-04  -2.6184908e-04  -1.0372759e-04  -4.6268331e-05  -4.4737093e-04  -2.5115375e-04   4.6888072e-04   3.3960151e-04  -1.9269064e-04   3.1712360e-04  -1.2686756e-02  -1.9871406e-05  -1.9545610e-04  -7.4391882e-04   1.2004029e-03  -1.9379134e-03   2.0352665e-03  -3.1239298e-04  -4.4734965e-04  -5.2373303e-04  -5.1088334e-04
  -1.8520963e-04  -2.3093320e-04   2.4062610e-05  -4.3477790e-05   4.4418892e-05   2.7492185e-06   1.4106625e-04  -4.8333828e-04   4.9958275e-05   1.8942529e-04   7.2590708e-05   1.2387947e-05   2.1887825e-04   1.0815458e-04  -3.2888362e-04   1.7017541e-05  -3.5374964e-04  -1.1888632e-04  -1.9334671e-04  -7.7159479e-05   5.3397449e-05   3.4183339e-04   4.3024542e-05   2.6819255e-04   2.9796668e-04  -2.1293064e-04  -3.2812523e-04   5.0334635e-05   5.5860460e-04   2.7031885e-05  -2.0481843e-04  -3.7792846e-04   1.1968920e-04   3.2163845e-04  -1.3423777e-04   7.5666624e-04   2.2901001e-04  -1.1213822e-04   4.2805288e-04  -1.7517833e-02   2.4526875e-04   2.4902521e-04  -3.7749264e-06  -2.2899008e-03   4.4579911e-03   5.1808365e-05   5.3977320e-04  -6.0163984e-05   3.2002857e-04   5.9269113e-04
  -1.4424524e-05   5.6052701e-05   1.4673673e-04   1.4642082e-04   1.7124569e-04   2.8258780e-04   4.4968612e-05  -5.3355907e-05   1.0191807e-04   1.3540170e-04   2.3092043e-04   1.9706973e-05   3.2531589e-04   3.2829863e-04  -1.1965186e-04   4.9266589e-05  -2.5476943e-04  -1.9001454e-04  -3.3597701e-04  -4.4594479e-05   4.7728063e-05   3.2404001e-04   5.7916328e-05   3.3573664e-04   4.9183960e-04  -6.6127788e-05   4.4054037e-04   5.6634330e-05  -1.3338937e-05   4.7464742e-05   3.6315795e-04  -6.8951056e-05   2.0957449e-04   3.3532432e-04   2.9786501e-05   8.8705146e-04   5.8314891e-04  -1.2300885e-04   4.1672989e-04  -1.2515696e-03   3.4893057e-04   9.5405449e-05  -3.3772041e-05  -2.0971745e-03  -2.9735651e-03   1.3876286e-03   1.3201909e-04  -5.5106095e-04   4.2632551e-04  -1.5156329e-04
  -1.3958404e-04  -6.5267668e-05  -4.6838242e-05  -9.1707669e-05   9.5802452e-06  -6.5695152e-05   5.9426504e-05   1.0566138e-04  -1.4933219e-04  -4.6536903e-04  -8.2030761e-05  -4.0161819e-04  -4.2493906e-05  -3.6131994e-06  -2.7794403e-04  -3.4725224e-04  -2.3861835e-04  -2.8774474e-04  -6.3257955e-04  -1.9945255e-04  -1.0721925e-04   1.5634952e-04  -1.2812065e-04   8.1218037e-05   7.3750023e-05  -1.1081438e-04  -2.5512779e-04   1.2841467e-04  -8.6498423e-04  -1.3843783e-04  -7.5325754e-04   5.5116432e-04   1.2393815e-04  -7.5550686e-04  -1.7377408e-04   3.1150723e-04  -2.0523829e-04  -1.4799446e-04  -7.9095294e-04  -9.7273669e-04   2.2819058e-04  -1.7288982e-04  -2.3177157e-04   6.6241546e-04  -5.3581451e-03   2.7962399e-03  -6.4540358e-04  -2.5101594e-04  -3.2279137e-04  -3.4038408e-04
  -2.1103838e-04  -1.8261391e-04   2.3830220e-05  -4.6740166e-05   4.4088065e-05   5.4425822e-05   9.1974260e-05   3.4302029e-05   2.1372492e-05   1.7727267e-04   1.7080568e-04   3.1280393e-05   3.1605063e-04   3.1310023e-04  -3.4566506e-04  -1.4301180e-04  -1.9040609e-04  -1.2005805e-04   4.3883754e-04  -3.4682085e-05   2.1161177e-05   2.2821917e-04   1.4464138e-04   3.1871055e-04   6.3718582e-04  -2.9198494e-05   9.0056681e-05   3.5138419e-04  -9.3104201e-04   8.0447338e-05   5.5435783e-04   2.3443368e-04   1.6236851e-04  -5.6427048e-04   1.8970910e-04   1.3182753e-04   4.2205266e-04  -5.9984883e-05  -4.1244269e-04   8.7659638e-03   6.1891793e-04   3.0990108e-04   8.9298839e-05  -1.0209071e-02  -2.4048558e-03   8.2450686e-04   5.8694038e-04  -4.0881801e-05   2.5900520e-04   5.0418801e-04
   2.0141451e-05   1.1569158e-04   1.6628456e-04   1.5574982e-04   1.8621757e-04   2.3579330e-04   2.0685753e-04   1.4575325e-04   2.0233574e-04   1.5153360e-04   2.6671679e-04   5.0111896e-05   6.0535199e-04   5.1203469e-04   4.7461133e-04  -1.6319772e-04  -9.0814880e-05  -9.1644353e-05   6.0931762e-04  -1.6947992e-05  -4.6585237e-06   1.4525298e-04   3.1799011e-04   3.0143128e-04   8.6258096e-04   7.1040980e-05   3.0772042e-04  -3.5586164e-04  -4.8303267e-04   1.6283379e-04   7.0015769e-05  -1.2799780e-04   1.3005860e-04   3.1263981e-04   6.4384447e-05   7.0386108e-05   1.4557699e-05  -4.2743330e-05   5.9136935e-04  -3.8612064e-03   6.7759340e-04   1.0693957e-04   5.1268951e-05   3.6811391e-05   9.2986273e-04  -9.7942800e-05  -1.1756918e-04  -5.6189871e-05   1.0999617e-04  -1.3415392e-05
  -1.1710882e-04  -3.9302678e-05  -4.9275699e-05  -7.8413461e-05   1.0604448e-05   3.4085497e-05  -3.8701550e-05   8.5689026e-05   1.2924515e-04  -4.5251247e-04  -3.9845709e-05  -3.9270127e-04  -6.4036714e-05   6.6506018e-06   5.1856155e-06   2.8897275e-04  -9.2082162e-05  -2.6206251e-05  -2.5723447e-04  -2.1449648e-04  -1.6064571e-04  -4.3354492e-05  -2.0576250e-05   1.2744634e-04  -4.0975920e-05   1.2775573e-04  -4.1667203e-04  -4.4263847e-06   4.0606284e-04  -3.1887375e-05  -6.7215718e-05   1.1289879e-03  -3.4333885e-04   3.3067405e-04  -1.8714812e-04   5.8043445e-04  -2.5569950e-04  -7.2438779e-05   1.5392953e-04   2.5179840e-04   1.5981664e-04  -2.5987154e-04  -3.3675457e-04   1.2067514e-03  -1.7296035e-03   1.9217490e-03  -7.4167328e-04  -2.3084143e-04   1.4754119e-05  -4.9429905e-04
  -3.2922009e-04  -2.7795351e-04  -3.3184447e-04  -4.4987144e-04  -2.2737669e-04  -2.9167929e-04  -3.0032502e-04  -3.5434461e-04  -3.4693888e-04  -7.7976484e-04  -3.6982464e-04  -6.5739185e-04  -4.1462699e-04  -3.2672851e-04  -1.1587159e-05  -4.0512634e-04  -1.2088109e-04   2.9182684e-06  -1.9366456e-04  -1.7818488e-04  -1.3109388e-04  -1.1362389e-04   1.8466779e-04   1.6848376e-04   4.1124204e-04   2.7357327e-04  -4.0521970e-04  -3.8882619e-04   7.9782895e-04   9.7293387e-06  -1.5314772e-04  -1.1879988e-04   2.6188203e-04   4.0308334e-04   1.2481943e-04   6.1035517e-04  -3.8413523e-04  -4.6410329e-05  -2.4567835e-04   1.4090678e-02   2.1847883e-04   1.5126776e-04  -4.2612075e-05   2.1182857e-03   3.1194077e-03  -4.7928724e-03   4.0748718e-04   2.3072418e-04   2.5930570e-04   7.5682841e-04
   2.2800048e-04   1.4460634e-04   1.9481954e-04   1.6504660e-04   1.7504352e-04   2.4066819e-04   1.8566879e-04   7.1294466e-04   1.4365885e-04   5.9246544e-05   2.3167471e-04   1.4095739e-04   1.6655042e-04   3.3197133e-04   1.7703422e-04   8.4395392e-04   5.1414358e-05   6.1646708e-05  -2.0122217e-04  -1.7061064e-05  -4.6105724e-05  -7.5126998e-05   3.7536403e-04   2.8661615e-04   2.8939653e-04   4.5840073e-04   4.4958407e-04   7.2115776e-04  -3.2986220e-04   2.6151072e-04   7.8283781e-05  -3.3300385e-04  -1.2408619e-04  -8.6554920e-04   2.0026563e-04   1.8223606e-04   2.4375861e-04   3.0856689e-05   3.5271235e-04  -1.6553666e-02   4.0646375e-04   1.3403990e-04  -3.1724744e-04   8.7369774e-03  -3.2344761e-03  -2.1246786e-03   2.1152606e-04   2.7366009e-04   2.9514963e-04   8.9136889e-04
   2.8193023e-04   1.3527303e-04  -7.6964912e-05   1.1789180e-04   4.5835019e-05   1.3566734e-05   2.8991373e-05   3.6199848e-04  -1.9798253e-04  -6.0571451e-04  -4.4605567e-05  -3.6454043e-05  -3.2328386e-05   1.3302550e-04   3.3571679e-04  -1.7127579e-04  -5.9660528e-05   6.4350817e-05  -3.4906395e-04  -1.3636331e-04  -1.4754994e-04  -1.5139833e-04   3.8383435e-04   1.1224143e-04   7.9776648e-05   3.2404327e-04  -4.6519272e-05  -2.0360103e-04   2.1009226e-05   1.2274228e-04  -2.2337364e-04  -1.1288469e-04  -3.4953107e-05  -7.5731694e-04   7.4756455e-05   2.9661736e-04  -5.9437800e-05  -2.0865555e-05  -5.4118148e-04  -1.2371904e-02  -2.1809366e-04   1.0394890e-05  -4.3444490e-04  -5.0763506e-03  -7.4509648e-04   2.3388250e-03  -2.2776220e-04  -2.0935010e-04  -4.3775159e-04   3.6610800e-04
   5.6930217e-05  -5.4045573e-05  -2.9771784e-04  -2.2283237e-04  -1.1561996e-04  -2.8751025e-04  -3.4924597e-04  -2.0209135e-04  -3.4169754e-04  -1.2686081e-03  -4.9039198e-04  -4.9033010e-04  -4.6007312e-04  -4.1058767e-04  -5.2909821e-04  -1.1119880e-04  -2.8482452e-04   4.3575932e-05  -3.4212807e-04  -4.1980977e-04  -2.9486316e-04  -2.8692395e-04   5.0498307e-05  -1.3855932e-04  -1.9322453e-05   9.1456248e-05  -2.3924781e-04   5.6671954e-05  -4.0499121e-04  -1.8667604e-04  -8.0769655e-04  -2.3740104e-05  -2.3161921e-05  -4.7897414e-04  -6.3215452e-06   2.7297728e-04  -2.5467368e-04  -1.4425593e-04  -4.9716537e-04   8.6928476e-03   9.6179203e-05   7.7957848e-05  -1.2250099e-04   3.7283697e-03  -6.0499768e-04  -4.8709968e-03   2.5147470e-04  -1.3960072e-05   2.7813000e-04   2.3032626e-04
   1.0541295e-04   1.8792527e-04  -2.8854021e-05   1.2389108e-04   1.2325303e-04   1.4674268e-04   1.7054402e-04   3.6448403e-04   1.1039701e-04   2.1476831e-06   1.5631567e-04   3.6744968e-04   3.1501707e-04   5.1635656e-05   5.9331069e-04   7.5155017e-06  -3.0658755e-04   2.2700649e-05   7.3109724e-04  -1.1646072e-04  -4.3597229e-05   1.0132890e-05   5.0269306e-04   2.6305555e-04   1.9889227e-04   1.0899858e-05   6.0195406e-04   1.8646596e-04   8.2231255e-04   1.8417122e-04  -3.8895951e-04  -2.5104664e-04  -2.5918163e-04  -3.6920735e-04   1.6166325e-04   9.6061337e-04  -3.9290407e-04  -1.2143735e-04   3.4844343e-04  -7.4708718e-04   4.7736711e-04   3.0869461e-04   2.2728396e-04   6.9688708e-03  -1.9088215e-03  -1.9947141e-03   4.3582660e-04  -3.3139611e-05   2.5205893e-04   2.6073708e-04
  -7.1758252e-05   1.8560098e-04  -1.0213003e-04   7.4972195e-05   1.0259083e-04   1.0766241e-04   6.6150773e-05  -3.8242593e-05   3.6094174e-05  -2.7291343e-04   9.7037992e-05   1.0631319e-04   2.3999391e-04   1.9422374e-04  -1.9209030e-04  -3.6320213e-04  -2.9128720e-04  -9.0575151e-05  -8.1367861e-04  -1.4677893e-04  -1.1153785e-04  -4.2836426e-05   2.8403313e-04   1.9988477e-04   6.6859735e-05  -1.9675180e-04   2.4985912e-04   4.2701988e-05  -1.5305621e-03   7.8339894e-05  -6.7665166e-04  -7.9231984e-05   3.6615158e-05  -3.6710850e-04   4.6579633e-05   6.8430154e-04   3.2678439e-04  -8.4010186e-05  -6.9800142e-04  -1.2163152e-03   7.9379493e-04   1.2729770e-04  -8.4974665e-05  -9.8826620e-04  -2.0640423e-03  -5.8116537e-04   1.4966886e-05  -2.3838835e-04  -2.8531117e-04   1.7046733e-04
  -3.0102659e-04  -3.6061432e-05  -3.5751757e-04  -2.4791987e-04  -9.9235142e-05  -1.4096778e-04  -1.9663003e-04  -9.4736730e-05  -2.4047245e-04  -9.1831048e-04  -3.7255892e-04  -3.9314627e-04  -2.5525130e-04   2.6688429e-05   1.0964843e-04  -1.2999852e-04  -3.9952938e-04  -1.6370155e-04  -1.3165076e-04  -3.2007034e-04  -2.7005610e-04  -1.9168927e-04   1.0351932e-04  -8.2609795e-06  -2.4063824e-04  -3.2327013e-04  -1.7044749e-04  -1.9153435e-04   3.4068667e-05  -1.8351831e-04  -2.9938202e-04  -3.6192051e-04  -1.7116818e-04  -1.8109631e-04  -2.7862447e-04   7.3754328e-04   2.7790089e-04  -1.4820433e-04  -1.2520258e-03  -3.4650648e-03   2.3047053e-04  -1.6310271e-04  -6.4499263e-04   4.6292949e-03  -4.4403081e-03  -1.1086756e-03  -3.2641075e-04  -6.2628818e-04  -9.1507623e-05  -4.6680707e-05
  -2.8870173e-04  -2.7215370e-05  -1.9543378e-04  -2.4990131e-05   2.5248377e-05   6.7671819e-05  -6.1809376e-05   2.6737695e-04  -7.4833260e-05  -1.2428422e-05   6.2317748e-05   2.0984035e-04   1.4643489e-04   1.2685299e-04   1.7035101e-04   1.4775968e-04  -3.5880267e-04  -2.1603229e-04  -2.4471496e-04  -1.6691106e-04  -1.0226098e-04  -1.0225784e-04   3.1197854e-04   2.3965642e-04   5.9299957e-04  -1.9719226e-04   4.2067517e-05   6.2329508e-04   5.6117924e-04   1.0523351e-04  -4.5544122e-04  -1.3017627e-04   2.9511071e-05  -3.9694794e-05   1.2344516e-04   1.8247160e-04   2.8812676e-04  -1.5100557e-04   3.9289464e-04   3.9782231e-03   8.0372224e-04   1.8314899e-04   5.0493418e-05   1.3587164e-03   1.3985440e-04   1.0320804e-03   2.8849358e-04  -9.7428288e-05   9.1360074e-05   2.7512768e-04
  -2.0889020e-04   1.3195569e-04  -1.6353444e-04   3.0040103e-05   4.2746266e-05   9.8989025e-05  -2.1829728e-04   1.0912364e-04   4.1418014e-05  -2.3550149e-04   5.1107774e-05   1.0680358e-04   2.8865802e-04   6.0435821e-05  -1.0652347e-04  -1.9669952e-04  -2.8208276e-04  -1.3223193e-04  -8.1651757e-05  -1.0371667e-04  -1.1254173e-04  -9.8632474e-05   3.0857234e-04   2.3486766e-04   3.0118821e-04  -1.4249439e-04   1.3473848e-04   2.2872974e-04  -6.9260370e-04   7.7559656e-05   9.8288638e-06   9.5076881e-05   1.6638782e-04  -8.0187310e-05   2.7517925e-04   8.0606964e-04   4.5187332e-04  -1.9485087e-04   2.5230824e-04   6.6410954e-04   2.2793637e-04   6.2162828e-05   3.8948932e-05  -3.8731496e-03   1.5860719e-03  -3.3432667e-03  -2.6032841e-04  -2.5063095e-04   1.9837190e-04   2.7292280e-04
  -3.4014299e-04  -3.7423986e-05  -3.7329542e-04  -2.4351040e-04  -1.3958885e-04  -1.4693809e-04  -3.1066959e-04  -2.8921585e-04  -3.2353762e-04  -9.7096560e-04  -3.5685746e-04  -4.2267621e-04  -3.2623220e-04   1.4267101e-05  -4.7869005e-04  -6.7890645e-04  -2.4664504e-04  -1.7326207e-04  -2.0328598e-04  -3.0103332e-04  -2.6196052e-04  -2.6586241e-04  -6.1643732e-06   1.3144610e-05  -1.7085431e-04  -1.1759697e-04   1.1282546e-04  -4.6819975e-04  -1.1635466e-03  -1.9817232e-04   1.2355746e-04   7.5635173e-05  -7.7070195e-05  -6.0463517e-05   1.4515691e-05   2.2563029e-06  -1.6308151e-05  -1.3423710e-04  -5.5799150e-04  -1.9325583e-03   2.3452082e-04  -3.5679803e-04  -2.0938682e-04  -1.7717489e-03   2.8948977e-03   2.9472278e-03  -9.3192136e-04  -8.5338973e-04  -2.8191676e-04  -4.7561902e-04
  -5.1035767e-04  -2.7842709e-04  -4.9964827e-04  -4.2696501e-04  -2.6124957e-04  -3.5026818e-04  -4.3907491e-04  -4.9132947e-04  -1.1325690e-04  -4.9949298e-04  -2.9635514e-04  -1.3854052e-04  -1.6133793e-04  -1.4667241e-04   2.5744687e-04  -2.7676547e-04  -2.6478144e-04  -1.5971241e-04  -4.5542017e-04  -2.0471026e-04  -1.4815730e-04  -2.4419191e-04   2.8749875e-04   1.9331163e-04   3.4374971e-04  -4.2692813e-05  -1.6701766e-04   6.1433471e-05   6.1758870e-04  -2.9398007e-05   2.1465901e-04   2.4657292e-04   2.2683715e-05  -2.3431874e-04   3.0070369e-06   5.5189902e-04   5.2829279e-04  -6.4001622e-05   2.6969714e-04   6.7541022e-03   1.5544896e-05   6.8129113e-05   2.9391193e-04   7.5891092e-03   6.1673654e-04  -1.8615812e-03   3.0365438e-04  -8.7518456e-05   5.8226759e-04   4.4410356e-04
  -1.5852711e-04   1.4508489e-04  -1.0718799e-04   7.6030337e-05   2.5817233e-05   7.8141689e-05   1.1257279e-04  -6.0910639e-05  -1.0795185e-04  -2.2698562e-04   6.4962231e-05   1.1623754e-04   3.8671459e-04   2.0964444e-04  -1.4359373e-05   5.5330434e-05  -1.1200319e-04  -7.1430033e-05  -4.3724646e-04  -8.9076937e-05  -7.5144228e-05  -1.4735841e-04   2.6518278e-04   2.4476915e-04   3.7659422e-04   1.6774546e-06   1.1503811e-04   3.2171566e-04   2.0670515e-04   9.5981864e-05   1.1598686e-04  -2.8100272e-04   1.8166892e-04  -6.9532674e-05   8.3592320e-05   1.8605929e-04   3.1071701e-04  -5.3865166e-05  -3.7006533e-04   2.1065608e-02   4.5811079e-04  -8.3924926e-05  -7.7432946e-05   6.7587271e-03   2.7819183e-03  -5.0255604e-04  -2.2811058e-04  -1.2949096e-05   3.4018836e-04   1.3885857e-04
  -3.2964640e-04   1.5284386e-05  -2.3543712e-04  -1.2941926e-04  -1.1925340e-04  -9.4276882e-05  -2.9194014e-04   2.1199531e-04  -2.1698457e-05  -7.9813018e-04  -2.2981390e-04  -3.2292816e-04  -1.8806162e-04  -9.0235924e-05   2.4806292e-04  -4.4059230e-04  -1.4049576e-04  -1.6019840e-04   1.5047386e-04  -2.2062995e-04  -1.9178574e-04  -2.8170820e-04   1.2841733e-04   5.3132022e-05   3.4897053e-05  -8.5740649e-05  -3.8891792e-04   2.3626590e-04  -1.0727261e-03  -1.5946012e-04  -1.0014199e-04   9.9886274e-05  -1.3370706e-04  -3.8873291e-04  -1.8038698e-04   2.5479053e-04  -1.3603397e-04  -1.0823252e-04  -7.8836997e-04   7.3366882e-03   4.6971618e-05  -2.9196744e-04  -4.4419942e-04  -3.2324933e-03   1.9851991e-04  -6.8903825e-04  -6.0661795e-04  -6.4216222e-04  -2.0706728e-04  -8.9367328e-04
  -5.1677530e-04  -2.4199460e-04  -4.9772963e-04  -4.7012890e-04  -3.3485261e-04  -3.8927668e-04  -4.3204846e-04  -7.6109334e-04  -7.1750866e-04  -1.3903958e-03  -7.0394785e-04  -8.1027229e-04  -7.8648527e-04  -5.4377102e-04  -2.0276852e-06  -3.8607180e-04  -3.5214858e-04  -2.6361656e-04  -1.6132508e-04  -3.8034038e-04  -2.9307153e-04  -3.7772357e-04  -2.1014934e-04  -2.6904678e-05   7.6515382e-05  -2.7299908e-04  -2.5447778e-04  -6.4561632e-04   1.3490987e-03  -2.9237426e-04  -2.3276680e-04   2.6552108e-04  -8.5451516e-05   9.6996919e-05   3.9633537e-06  -3.2806644e-04   1.7063902e-04  -1.3247164e-04   5.2851415e-04   3.1201437e-03   3.0568594e-04   1.9010169e-05  -3.3177540e-04  -7.9960432e-03  -2.6495303e-03  -1.8732985e-03   2.7625629e-04  -9.6614305e-05   5.7825593e-05   2.1836026e-04
  -2.0965983e-04   7.7729324e-05  -2.2054292e-05   1.1047949e-04   1.1797710e-05   9.4350056e-05   1.3964293e-04   5.4355012e-04   2.9836330e-04   5.3720883e-05   1.2151212e-04   2.3160646e-04   2.0686767e-04   2.1992090e-04   5.0317723e-04  -5.1699049e-04  -1.7424976e-04  -1.4883504e-04  -2.3786951e-04  -2.1311103e-05  -4.6248835e-05  -1.5643585e-04   3.6169757e-04   3.8027705e-04   5.1528111e-04  -1.5947221e-04  -3.3207322e-04   1.3500050e-04  -5.4468412e-04   7.9491008e-05  -2.8771287e-04   1.9919378e-04   1.8442883e-04  -2.0862995e-05   1.6227359e-04   4.4671746e-04   5.3649442e-04  -7.3659001e-05   7.3678524e-04   1.7097007e-03   3.8812272e-04   1.0452182e-04  -9.4128744e-05   8.2042249e-04   2.3069680e-03   4.1702532e-04   2.2274475e-04  -2.0968597e-04   7.7699551e-05   3.9687355e-05
  -2.1468435e-04   5.7333822e-05  -7.4963791e-05   3.2099626e-05  -4.7205776e-05   4.2573920e-06  -5.1335483e-05   1.9460006e-04  -1.3698798e-04  -3.7208662e-04  -7.5087402e-05  -5.6492052e-05  -1.8526561e-04   9.0967569e-06   4.5274763e-05   4.8706730e-04  -2.3188787e-04  -1.3863372e-04  -3.4635860e-04  -1.3654814e-04  -1.0559556e-04  -1.6959032e-04   1.4578615e-04   2.2947197e-04   1.3362948e-04  -2.0401142e-04   2.7653936e-04  -4.9872993e-04  -7.1549130e-04  -8.1284714e-05  -3.0452476e-04  -4.3317801e-04  -4.6384250e-07  -4.4996705e-04  -1.0314277e-04   4.1065208e-04  -5.7273579e-04  -1.8380405e-04   2.9967522e-04  -3.0994015e-03   2.5652317e-04  -1.8498312e-04  -2.9206485e-04   5.6151417e-03  -1.4020174e-03  -3.5004960e-03  -4.0564162e-04  -4.7179792e-04  -1.9722704e-04  -7.2198117e-04
  -3.9440257e-04  -1.6134705e-04  -3.1655258e-04  -3.0005621e-04  -2.4411811e-04  -3.3377664e-04  -4.2369735e-04  -6.5386877e-05  -3.2885678e-04  -1.0371514e-03  -5.2069273e-04  -5.5849645e-04  -3.7601980e-04  -3.3894126e-04  -5.1754783e-04  -1.8125126e-04  -3.5708008e-04  -3.3774198e-04  -5.3646212e-04  -2.8850962e-04  -2.5609072e-04  -2.9723582e-04  -1.4907755e-04   2.1668669e-05   2.4973197e-04  -2.9983697e-04  -2.8196699e-04  -1.9313682e-04   5.3874694e-04  -3.2612166e-04  -7.3351921e-04  -1.1776303e-04  -7.7570010e-05  -2.5959083e-04  -3.1029081e-04   1.7679443e-04   1.2770202e-04  -2.6683905e-04  -2.8811165e-04   1.5068573e-03   3.9720561e-04  -1.9289282e-04  -3.2026478e-04  -1.7126814e-03   1.9231127e-03   3.3683111e-03   4.3954748e-05  -5.4815435e-04  -3.4143254e-06   4.8638853e-05
  -2.2003194e-04   3.6258261e-05   1.2483695e-05   8.0504033e-05  -3.2921612e-06  -1.5872902e-05  -1.4120471e-04   3.6379388e-05   1.1612732e-04   9.4068637e-05   6.8553767e-05   2.3549391e-04   2.1787564e-05   4.6025889e-04  -1.6902095e-04   7.6276927e-05  -3.3414387e-04  -3.5068527e-04  -4.7504385e-05  -4.6425492e-05   1.6568689e-05   1.8376259e-05   3.4636786e-04   2.9436336e-04   1.9803047e-04  -3.1392762e-04   1.4648635e-04   1.6329098e-04  -1.2566278e-03   2.2056309e-05   1.8206891e-04  -1.6429294e-04  -4.0355576e-06  -1.3989047e-04   8.2371102e-05  -3.9182711e-04   7.3406869e-04  -5.6033692e-05   4.3462995e-05  -9.4036562e-03   2.7943685e-04   1.3510296e-04  -7.0435082e-05  -2.9095900e-03  -7.2465732e-04   1.1880878e-04   2.5473841e-04  -2.2376353e-04   2.6704208e-04  -6.3438514e-05
  -1.8211202e-04   9.6168311e-05   3.1804717e-05   8.8991270e-05   3.0424751e-06   8.1085949e-05  -1.6085416e-04  -8.6056760e-05  -4.4949829e-05  -1.7925307e-04   3.3543089e-05   7.7738303e-05   1.3135915e-04   1.7110274e-04  -1.5541558e-04  -1.6754097e-04  -2.9826918e-04  -2.7847494e-04  -3.4461290e-04  -2.4261133e-05  -2.8488652e-05  -5.3685781e-06   2.9564457e-04   3.2590464e-04   1.3457310e-04  -2.5330437e-04  -2.3528903e-04  -1.5907869e-04  -1.3296404e-03  -5.7549067e-05  -2.4531639e-04   2.8829835e-04   2.3417510e-05  -1.4055171e-04   1.0508009e-04  -6.3744737e-05   2.7554558e-04  -1.4978538e-04   2.0957142e-04   5.4017757e-03  -4.8440685e-05  -1.0298527e-04  -1.0428234e-04  -4.0523987e-03   2.7833669e-03   2.9859939e-03  -3.6940255e-04  -5.1012932e-04  -1.2473964e-04  -6.5511931e-04
  -3.2468486e-04  -9.0160516e-05  -1.9894128e-04  -2.2911809e-04  -1.7670356e-04  -1.5689741e-04  -2.2343469e-04  -3.0508393e-04  -3.5439859e-04  -8.4382819e-04  -3.7224439e-04  -4.2674784e-04  -1.9281462e-04  -1.6237686e-04   1.8666778e-04  -3.9687194e-04  -3.6644840e-04  -4.4236190e-04  -2.6787736e-04  -2.6117364e-04  -1.7517082e-04  -2.0603708e-04   3.1007003e-05   2.9879384e-05   4.0598685e-04  -2.8434134e-04  -5.4459769e-04   3.2458978e-04  -1.6509584e-04  -2.8065097e-04  -2.3789855e-04   2.8161501e-04  -2.8770836e-04   1.0699025e-04  -1.9068205e-04   3.2810553e-05  -2.4112382e-04  -1.8437227e-04  -1.0536435e-03   1.1280774e-02   1.9224717e-04  -3.3647110e-04  -6.5003999e-04   1.9320656e-03   1.3731208e-03  -1.6150469e-03  -2.5310682e-04  -6.5016048e-04   6.4250715e-05  -1.1524510e-04
  -1.8280892e-04   3.7381255e-05   7.2705479e-05   9.0417117e-05   1.2396970e-05   6.9653084e-05   3.1770251e-05   4.3954889e-05  -1.9569588e-05   1.6678174e-04   1.1049825e-04   2.6977801e-04   2.8988984e-04   1.1079576e-04   1.5646692e-04   2.9528461e-04  -2.7406652e-04  -2.8737524e-04  -1.2014832e-04   1.1394391e-05   5.4809108e-05  -3.3298343e-06   3.9312025e-04   4.4520287e-04   6.7128649e-04  -1.8505058e-04  -6.1880848e-05  -1.2872647e-04  -2.9838542e-04   2.7041735e-05   8.3083425e-05   2.3846976e-04  -6.2250561e-05  -6.3988782e-04   2.6488796e-04   3.9311583e-04   5.1060975e-05  -1.1716728e-05  -5.5525021e-04  -1.1677488e-02   3.2449121e-04   1.5432604e-04  -1.2161850e-04  -2.8063564e-03  -3.2699311e-03   7.2554144e-04   2.5118023e-04  -5.1803454e-05   1.8204293e-04   2.2532610e-04
  -8.6429478e-05   1.4628028e-04   1.2465044e-04   1.4283301e-04   5.1436757e-05   1.0706696e-04   9.0727081e-05   8.4045045e-05   7.8905963e-05   2.0047207e-06   1.1255921e-04   1.7222852e-04   2.0593648e-04   3.3836640e-04   1.0618233e-03   1.4164392e-04  -1.7414338e-04  -1.0192738e-04  -5.4198445e-04   9.5922951e-06   3.3599998e-05  -3.3215438e-05   3.5086923e-04   2.9070792e-04   3.0160105e-04  -1.3921957e-04   7.7831159e-05   2.4708716e-04  -6.2308169e-04  -2.0895066e-05   2.4424610e-04  -2.2032468e-04  -1.4489607e-05  -5.5669306e-04   1.3595866e-04   3.4073056e-04   5.8352896e-05  -8.3463921e-05   1.1926907e-04   2.9635516e-03   4.5360552e-04  -9.3225841e-05  -1.6223638e-04  -3.2072754e-03   1.8107193e-03  -1.1892404e-03  -2.3484477e-04  -4.9418246e-04  -2.5406784e-05  -3.4235357e-04
  -2.1983571e-04  -7.3911046e-06  -9.2283473e-05  -1.3081841e-04  -1.2770931e-04  -5.9412891e-05  -3.0238970e-04  -1.2733581e-04  -1.9791201e-04  -6.7917083e-04  -2.7456030e-04  -2.9891869e-04  -2.8252773e-05   5.9166632e-05  -6.6253770e-04  -1.8963990e-04  -2.2369991e-04  -1.8593630e-04  -6.8455134e-05  -1.5940118e-04  -1.0720472e-04  -1.5875648e-04   6.2556253e-05   4.8937942e-05   3.9195741e-04  -1.9725849e-04  -5.0152693e-04  -1.6350558e-04  -1.6925518e-03  -2.2982449e-04  -2.2700996e-04  -6.0407654e-04  -1.7871425e-04  -5.1695370e-04   9.6527496e-05   1.4409120e-04  -8.0703721e-06  -1.6025493e-04  -3.3225096e-04   4.9986281e-03   1.6680150e-04  -9.8282166e-05  -1.4775686e-04   5.7749301e-03   2.3605346e-03  -1.7841351e-03   1.6172907e-04  -5.0916726e-04  -1.3221378e-04  -5.2503445e-05
  -3.9514216e-05   1.5670038e-04   1.9264911e-04   1.8645101e-04   1.1740707e-04   2.5030327e-04   1.3728249e-04   3.0917063e-04   2.7660688e-04   3.8737734e-04   2.4504939e-04   4.3512750e-04   2.5974851e-04   6.8547582e-05   2.2376358e-04   4.4150616e-04  -1.7515032e-04  -8.1436279e-05   1.0487632e-04   1.3344592e-04   1.7194024e-04   9.3901384e-05   5.1420735e-04   5.1652599e-04   1.0189235e-03  -7.0011607e-05   3.8599788e-04   7.4121804e-04   2.5161807e-03   1.4776876e-04   2.4467462e-04   9.8103665e-05   1.7547898e-04  -3.6137004e-04   7.6571429e-05   1.2411298e-03   4.8097409e-04   5.6210731e-05   1.2378485e-04  -5.1364172e-03   6.9452653e-04   3.1384962e-04  -3.1188902e-06  -1.9341721e-03   2.5510788e-03   5.9253408e-04   4.8448358e-04  -1.7829407e-04   2.2924419e-04  -5.7981561e-05
   9.1909569e-05   2.9084913e-04   2.6109393e-04   2.8408799e-04   1.7136356e-04   2.1914876e-04   3.2546377e-04   6.1323639e-04   1.9610176e-04   1.9678375e-04   2.7636127e-04   3.2625912e-04   4.7024875e-04   2.4821988e-04  -2.6941687e-04   6.0125440e-04  -2.1710535e-05  -4.6897465e-05   1.6314392e-04   1.5228834e-04   1.4703095e-04   6.6328837e-05   3.6644275e-04   4.2992219e-04   7.9220056e-04   9.4418747e-06  -2.2467130e-04   6.1838533e-04   9.1509556e-04   1.4704160e-04   2.4850661e-04   9.2447481e-05   3.1774046e-04  -4.9116096e-04   3.3525488e-04   4.4705893e-04   6.0308445e-04   4.8821272e-05  -1.6116093e-04  -6.3216262e-03   4.3715062e-04   5.8534675e-05   1.9464908e-04   5.1552313e-03  -9.5317075e-03   2.7585909e-04   3.3547974e-05  -2.5472671e-04  -1.1719024e-05   1.0757174e-05
  -9.9428935e-06   1.4044673e-04   5.4443044e-05  -4.5105421e-07   2.7768010e-05   5.4020467e-05   1.5973875e-04   9.8534088e-05  -4.0572479e-05  -4.3311666e-04  -5.9883096e-05  -1.2275131e-04  -1.4183906e-04   1.7701538e-04  -2.8986100e-04  -4.2806994e-05  -9.5296222e-05  -2.0062531e-05   3.4577935e-04   1.4136974e-05  -6.9761945e-06  -1.2304817e-04   2.9493787e-04   2.3501110e-04   1.8517365e-04  -7.4913580e-05  -1.5615915e-04  -2.5858221e-04  -9.3731214e-05  -7.2120987e-05  -8.9586822e-05   2.1367306e-04   2.8760332e-05   1.6542121e-04  -1.6125477e-05   5.1804137e-04   1.5309688e-05  -9.4992080e-05  -7.9088619e-05   2.1497382e-02   3.9754566e-04  -1.0244027e-04  -4.2636646e-04  -8.0049103e-03  -5.3052199e-03   7.7426492e-04  -3.3220142e-04  -5.4031756e-04  -3.6675369e-04  -2.3382423e-04
  -1.7152192e-07   1.1367923e-04   2.1152766e-04   1.7268221e-04   1.5163455e-04   1.6928035e-04   1.8855777e-04   2.3958982e-04   3.0120264e-04   4.3431734e-04   3.1307439e-04   4.5755945e-04   4.1491934e-04   5.5250846e-04  -1.3312361e-04   3.7808868e-04  -5.1466017e-05  -2.2780689e-05  -1.4255062e-04   2.3723629e-04   2.0197987e-04   7.6804485e-05   5.1443459e-04   5.6095805e-04   7.1234140e-04  -7.9108118e-05   1.0478045e-04   2.2104452e-04  -3.3357114e-04   2.0707549e-04  -6.1241837e-05   1.3849937e-04   8.2374623e-05  -6.5456647e-05   3.4673192e-04   2.6466727e-05   6.9724879e-04   3.1263269e-05   1.0578438e-03   2.3983123e-02   8.2443119e-04   4.2409866e-04   5.8973127e-04   2.6767466e-03  -2.5371029e-03  -2.2457913e-03   5.9654337e-04   5.7589637e-05   2.7874220e-04   1.8170450e-04
   1.9877599e-04   4.2217516e-04   3.4324324e-04   3.5961473e-04   2.9111581e-04   4.9447210e-04   4.7110775e-04   1.8826923e-04   5.9094978e-04   4.7889620e-04   4.5768500e-04   4.9186801e-04   5.0099788e-04   8.7554724e-04  -1.0430796e-05   7.6882320e-04  -4.2138789e-05  -1.4752842e-04   7.7252265e-04   3.1410970e-04   2.4291158e-04   2.1672877e-04   6.1506761e-04   5.8791490e-04   6.8941514e-04  -1.0963971e-04   4.7686341e-04   2.0795125e-04   2.6240965e-04   2.7374341e-04   4.2976305e-04   3.8640670e-04   2.4405440e-04  -4.2683465e-04   3.8995920e-04  -1.5493692e-04   1.9953857e-04   1.2769506e-06   2.1131836e-04   1.2957155e-02   8.4089569e-04   3.3781538e-04   2.1644053e-04   4.6197996e-03   3.3751836e-03  -9.0774003e-04   2.5095657e-04  -2.4420744e-05  -5.8034743e-06   1.6495497e-07
   1.3932322e-04   3.0809280e-04   1.7929860e-04   1.3904892e-04   1.7791695e-04   2.5076044e-04   1.6300064e-04   3.9918392e-04   1.4620616e-04  -1.2793807e-04   1.5450396e-04   7.9756159e-05   2.5556717e-04   4.7565074e-04  -1.1812447e-04   2.5360001e-04  -6.6838315e-05  -1.4874576e-05  -2.7984675e-04   1.4109320e-04   9.2677328e-05   7.8846184e-05   2.8617121e-04   2.4694999e-04   7.5943110e-04  -1.0922486e-04   1.4541839e-04   1.2009221e-04   2.0531133e-04   7.9710670e-05   9.3844465e-05   3.4284429e-04   2.0419672e-04  -4.6112377e-04   3.9298709e-05   5.2984775e-04  -1.6200404e-04   1.9410416e-05  -1.4271494e-04  -9.3847029e-03   3.8210818e-04   1.8568595e-05  -3.1223459e-05  -4.8843948e-03   2.2877337e-04  -9.2703948e-04  -3.2791198e-04  -5.6059711e-04   1.0550260e-04  -6.6512765e-04
  -9.2116879e-06   8.5909531e-05  -6.3004491e-06  -1.1640463e-04   3.8967180e-05   3.6315731e-05   4.2351865e-05   1.0995803e-04   2.0985201e-04   1.8184302e-04   1.2670725e-04   2.3303946e-04   1.9322717e-04   2.3360166e-04   1.6102016e-05   4.6643105e-04  -9.6701042e-06  -1.0239144e-04   1.4827531e-04   1.9290028e-04   1.5972680e-04   6.2514686e-05   4.8744265e-04   4.6966769e-04   7.7819126e-04   6.2278682e-06   1.1804435e-04   3.8967162e-04   8.6315832e-04   2.0681269e-04  -2.2069700e-05   2.6294673e-04   5.6044728e-04  -2.6382777e-04   5.5534701e-04   5.6642556e-04   1.3532913e-04   4.5937060e-05   3.6500904e-04  -1.7246510e-03   1.5799097e-04   3.8237023e-04   2.6404401e-04  -2.5829242e-03  -8.5815060e-04   1.5200872e-03   6.6250109e-04   2.5725442e-06   3.0444929e-04   7.0605689e-04
   2.7435020e-04   4.7044581e-04   3.3854577e-04   3.3074035e-04   3.0933358e-04   4.4120129e-04   3.6037999e-04   5.4013112e-04   6.7115133e-04   4.5910841e-04   4.6490182e-04   4.9490470e-04   4.7801237e-04   7.6150714e-04   2.8865942e-04   8.5718581e-04   2.1425654e-04   2.1724420e-05   2.9174885e-04   3.2902957e-04   1.8627742e-04   3.6622750e-05   5.6268863e-04   5.1754800e-04   9.7227684e-04   1.2316031e-04  -2.1525304e-06   3.7982767e-07  -1.2557975e-03   3.2430477e-04   4.4226408e-04  -1.3474528e-04   7.1796443e-05   2.3502109e-04   6.4120797e-04   6.2611926e-04   6.0786639e-04   1.2582070e-04   1.1641010e-04   7.5450167e-04   8.3104428e-04   2.3885083e-04   2.5450619e-05  -1.0958816e-02  -3.7579930e-03   5.7941093e-04   9.0713424e-05  -1.0292301e-04   2.3331484e-04   1.2576426e-04
   2.1534004e-04   3.5863314e-04   2.0228773e-04   1.6807599e-04   2.0104961e-04   2.3311358e-04   1.9557410e-04   1.7862389e-04   3.2449295e-04  -1.0668523e-04   1.9987501e-04   9.9927594e-05   3.4827521e-04   6.1873905e-04   1.1515692e-04   5.0554710e-04   1.8940591e-04   3.5262219e-05   2.1554882e-04   2.2091449e-04   5.5683482e-05  -1.1406039e-04   4.0411824e-04   2.4407629e-04   4.1715126e-04   2.0076321e-04   2.1201695e-04   4.6470476e-04   4.3908620e-04   1.5944295e-04  -6.8610789e-05   8.8191722e-05   1.4586319e-04   1.6548931e-05   2.1584655e-04   1.8517517e-04   2.3870586e-04   8.8550158e-05  -2.5278845e-04  -6.8351827e-03   5.0511077e-04  -7.9610349e-05   2.5890913e-04  -3.5012683e-03   3.1881111e-03   9.2503784e-04  -4.3227634e-04  -4.4643434e-04   6.5630193e-05  -7.8531986e-05
   7.8712015e-05   1.3305013e-04  -4.8380283e-05  -1.7028084e-04   1.9190706e-05   2.1810230e-05  -3.5804926e-05   2.5972218e-04   1.4657507e-05  -4.7454893e-04  -1.3607503e-04  -2.1781710e-04  -1.4232399e-04   6.8285690e-06   2.1543897e-04  -2.7146247e-05   8.8005036e-05   9.4972427e-05  -6.1143120e-04   2.0018552e-04   7.7030942e-05  -1.3915628e-04   2.9001446e-04   3.0364766e-04   3.8341578e-04   7.3767464e-05   4.0966712e-04   1.5921850e-04   6.3450920e-05   1.7979419e-04   2.8021800e-04  -1.3628716e-04   1.3042519e-05   1.1430167e-04   5.5966683e-04   6.5593782e-04   2.3964010e-05   1.1245536e-04   6.8142387e-04  -2.2516360e-03   8.6057384e-04   2.9455236e-04   4.5276634e-04  -9.1899540e-03   4.4848802e-03   3.1618993e-03   5.3019455e-04   8.6108630e-05   3.4652028e-04   3.0021271e-04
   3.9934576e-04   4.9321796e-04   3.6204830e-04   3.6626289e-04   3.7873504e-04   5.1047630e-04   5.9958210e-04   5.1617651e-04   5.9353863e-04   5.7980185e-04   5.2943878e-04   5.5315468e-04   6.2106905e-04   8.8972662e-04   4.8284596e-04   8.8283169e-04   1.2801006e-04   8.4741034e-05   3.2259896e-04   3.9736694e-04   1.8371016e-04   7.5500502e-05   5.2787235e-04   4.4918832e-04   9.4291742e-04   9.0890033e-05   8.3074113e-04   7.7956059e-04   4.3299416e-04   3.3556091e-04   1.0572401e-04   3.4549110e-05   3.1718725e-04   1.7969229e-04   2.3121403e-04   3.6062641e-04   2.3424361e-04   2.2006723e-04   6.4345525e-04   1.0132210e-02   7.8528112e-04   3.4300165e-04   5.5138592e-04   1.6360894e-04   3.0986522e-03   1.9047581e-04   4.1781596e-04   1.1151232e-05   4.2344898e-04   2.2214634e-04
   3.6164839e-04   4.1264846e-04   2.4439755e-04   2.0989947e-04   2.8159574e-04   4.1916326e-04   4.3126542e-04   3.7705878e-04   4.5648258e-04   1.4162730e-04   3.0197253e-04   2.4644317e-04   4.4137659e-04   4.4699633e-04   3.7858100e-04   3.6963692e-04   1.1785149e-04   6.8423047e-05   2.6858374e-04   2.7269407e-04   8.5877284e-05   2.0816660e-05   3.8207686e-04   3.0362359e-04   5.7867006e-04   2.5519166e-05  -2.9751644e-04   3.1237479e-04   2.5718735e-05   1.8109630e-04   3.1327820e-04   4.2753618e-05   1.2150387e-04  -3.2890914e-04   5.3446024e-04   4.6245247e-04   1.1459329e-04   1.5126797e-04  -1.6281447e-04   1.7578788e-02   4.2799235e-04   7.9010257e-05   3.4613840e-04  -1.0893480e-02   1.9789354e-03   6.3033815e-04  -1.3377014e-04  -2.7958886e-04  -7.1704533e-05   1.0662317e-04
   2.1295458e-04   1.8292750e-04   3.4160860e-06  -9.5794996e-05   9.5719297e-05   3.0588897e-05   3.3915199e-05   1.4880886e-04  -9.5586707e-05  -4.6749788e-04  -1.0257695e-04  -2.3639110e-04   7.9829711e-05   2.2994044e-04   3.8988652e-05  -1.5740032e-05  -1.8404102e-05   3.2527252e-05   2.6847123e-05   4.4476521e-05  -7.4607247e-05  -1.7572608e-04   2.2023829e-04   3.9703034e-05   2.1748395e-04  -4.9453840e-05   1.5639038e-04  -2.9688582e-04   4.3917054e-04  -7.6096192e-05   5.9608126e-04   1.9850628e-04  -2.1062375e-04  -2.7654434e-05   9.4971401e-05   1.1618443e-04   4.0285135e-04   4.5525656e-05   5.9406436e-04  -7.2214357e-03   2.7617344e-04   1.1523730e-04   1.1035954e-04   1.6722556e-03  -1.6240174e-03   4.3214375e-05   5.5362011e-04   9.7565053e-06   3.3423447e-04   2.7073704e-04
   4.2982373e-04   4.3217564e-04   3.2390590e-04   3.2013564e-04   3.8423814e-04   5.4019119e-04   1.7516327e-04   6.0575455e-04   5.9782004e-04   7.5293996e-04   5.4192822e-04   6.1274366e-04   5.8027107e-04   5.7021884e-04   2.5918559e-04   1.0818591e-03   1.1490862e-04  -2.1923425e-04   4.0721145e-04   4.3581554e-04   2.1414511e-04   1.4078444e-04   4.3859010e-04   4.3342312e-04   1.0997184e-03   1.0516752e-05   2.2184022e-04   6.2611105e-04   3.0607538e-04   3.2620109e-04   5.5589469e-04   1.6267944e-04   3.2304652e-04  -4.4835630e-04   1.8698635e-04   2.6330509e-04   7.7641918e-04   1.7496986e-04   4.8450448e-04   6.9199712e-04   7.3218445e-04   4.2574794e-04   6.3794042e-04   1.7638303e-03  -2.2721076e-03   1.3734307e-03   5.8487436e-04  -4.9826849e-05   4.0461283e-04   2.7818579e-04
   4.8419216e-04   4.7508243e-04   3.1185351e-04   3.1881098e-04   3.7586101e-04   5.4500473e-04   3.6247578e-04   6.0769095e-04   4.9503252e-04   4.4035327e-04   4.6262995e-04   4.0744161e-04   3.3214453e-04   8.0926699e-04   2.2026942e-04   8.7277283e-04   1.5691575e-04   1.8455827e-04   9.6229363e-05   3.9157766e-04   1.4409133e-04   6.5650689e-05   4.6338240e-04   2.8873488e-04   6.4974587e-04   2.9474539e-05   3.3643979e-04   3.2419007e-04   1.9029416e-04   2.7312984e-04   6.4655201e-04   4.5359600e-04   1.9255039e-04   2.1118332e-04   2.2456501e-04   4.7542818e-04   3.1265433e-04   1.5480265e-04  -2.1299507e-04  -4.6198913e-03   6.1479921e-04   1.3101340e-04   2.4759388e-04  -1.4989249e-03  -5.3036967e-03   3.4894655e-03  -4.2927175e-05  -4.2587818e-04  -8.7535036e-06  -8.5354657e-07
   2.7363715e-04   2.4977504e-04   6.2620667e-05  -3.6246100e-05   1.2499734e-04   2.1490957e-04   1.4709763e-04   3.9345367e-04   4.3207747e-05  -3.1414564e-04  -1.2503308e-06  -1.0461225e-04  -6.7166831e-05   4.6041343e-04  -2.4470821e-04   2.3966387e-04   1.2829744e-04   1.4621812e-04   2.8222983e-04   1.5376786e-04  -2.9142480e-05  -1.5416992e-04   1.8503156e-04   9.3448769e-05   3.9218555e-04  -7.5348078e-05   3.8244259e-05   1.5039618e-04   9.0160192e-04   1.1039989e-05   3.5904342e-04  -7.1035509e-05   5.3620635e-05   1.7210197e-04   2.0760013e-04   5.2219623e-04  -2.6265215e-04   4.7458376e-05   6.8333832e-04  -2.8209079e-03   6.7022070e-04  -2.5008456e-04   1.7679528e-04  -1.2927735e-03  -5.5474043e-03  -2.5277128e-03  -4.2404843e-04  -4.1751409e-04  -3.0493497e-05  -4.2879969e-04
   2.1612157e-04   1.7008580e-04   1.5920502e-04   7.4334472e-05   2.0264699e-04   1.8578033e-04   1.3479328e-04   4.7274650e-04   5.8753963e-04   5.7615334e-04   3.4708623e-04   4.7235485e-04   5.5541826e-04   5.4794212e-04   2.7482098e-04   9.8594883e-04   1.3938770e-04   1.2043320e-04   6.3280942e-04   3.4094590e-04   1.3392516e-04  -3.2000182e-05   3.1627712e-04   2.8870962e-04   8.8608172e-04  -5.9386774e-05   2.8658251e-04   2.4963470e-04   5.4429745e-04   3.0792298e-04   1.4789209e-05  -3.0320662e-04   1.7537572e-04  -1.5242676e-04   3.5206354e-04   2.1052729e-04   4.4398475e-04   1.2774912e-04   2.9412517e-04  -6.5250527e-03   4.3684224e-04   3.1937240e-04   3.0550640e-04   1.4382388e-03  -2.6427029e-04   3.7784737e-03   4.4132507e-04   2.0729036e-04   4.6956720e-04   4.5528598e-04
   3.8902581e-04   4.3567497e-04   2.4091544e-04   2.3404352e-04   3.0372365e-04   4.4437952e-04   3.7414421e-04   7.3418737e-04   4.5418317e-04   5.1831687e-04   4.5143190e-04   4.5575216e-04   5.7050918e-04   6.8204076e-04   2.9412538e-04   2.0153045e-04   9.0185764e-05  -2.7068483e-05   2.1785744e-04   3.8210885e-04   1.4471683e-04   7.6840523e-05   4.2941529e-04   1.9570986e-04   2.5511745e-04  -1.1382642e-04   1.0375872e-03   1.1891583e-05   9.5529173e-04   3.0360787e-04   8.8790366e-05   2.0360283e-05   2.5968213e-04  -5.3604529e-04   3.6777937e-04  -1.7805700e-04   3.5026629e-04   1.2237702e-04   4.5059528e-04   8.8327454e-04   2.1337702e-04   2.1538931e-04   2.0401692e-04   6.6498406e-03   1.0865583e-03   1.1399880e-03   1.8749481e-04  -2.1744751e-04   3.0472147e-04   2.3181015e-04
   2.4800087e-04   2.7732848e-04   4.3910757e-05  -2.2142340e-05   1.3623788e-04   1.7625351e-04   1.3494841e-04  -6.2029743e-05   1.2196587e-04  -1.0898613e-04   9.7073127e-05   1.3862456e-05  -7.0750859e-05   5.3174666e-04  -2.4349193e-04   6.6725176e-04   3.1676995e-05  -5.5217934e-05   7.6061429e-04   1.4715288e-04   2.7154363e-07  -3.7638834e-05   9.4308794e-05   9.1673392e-05   7.4573327e-05  -1.9475131e-04  -7.5288946e-05  -7.2541307e-06  -6.3098955e-04   7.9599944e-05   1.1086236e-06  -2.2107870e-05   1.7860698e-04  -1.8216114e-04   2.4156179e-04   2.3578592e-04   9.6739299e-05   1.9864594e-05  -2.1011000e-04   2.3078271e-03   1.7386521e-04  -1.2901434e-04   8.5561311e-05  -5.6401538e-03   4.3910528e-03   1.0539391e-04  -4.1569636e-04  -6.0270890e-04  -4.7179786e-04  -6.2826737e-05
   2.8506454e-05   2.9796553e-05  -1.9000776e-04  -3.1500484e-04  -3.7856313e-05   3.8280814e-05  -7.4797666e-05  -2.2036290e-04   1.0649901e-04   1.2913000e-04  -7.4949230e-06   1.2260916e-04   1.4324959e-04   7.0638162e-05  -1.7951434e-06   5.6759088e-04   1.0876458e-05   6.2687919e-05   4.4452466e-04   1.9396863e-04   8.0565784e-05  -4.8864880e-05   1.9477772e-04   1.3678368e-04   4.3937031e-04  -1.4572874e-04   5.8328966e-04   3.7664344e-04   2.8148599e-04   1.8837758e-04  -3.6273021e-05   3.6772666e-04   3.7141494e-05  -4.7859020e-04   2.0280974e-04   2.4632274e-05  -1.5507187e-05   1.0508188e-04   2.9316294e-04  -1.5576802e-03   5.0069857e-04   2.4880099e-04   6.8621873e-04  -5.3895405e-03  -4.1694965e-04   2.8309152e-03   4.8541083e-04   1.0674548e-05   2.4984169e-04   5.6484656e-04
   3.2532390e-04   3.9732372e-04   1.8254812e-04   1.6663833e-04   2.4405686e-04   3.2398006e-04   3.8431573e-04   5.9245189e-04   2.8864155e-04   4.9597456e-04   3.6318152e-04   3.9570229e-04   3.0914487e-04   7.9528667e-04   4.0490519e-05   7.4892421e-04   1.4038246e-04   3.8319406e-05   6.6139951e-04   3.0966516e-04   9.9113371e-05   1.8584467e-05   3.2751646e-04   1.5864780e-04   5.1882095e-04  -1.2824353e-04   5.7703460e-04   8.7474514e-04  -1.5318998e-04   2.3149533e-04  -1.6004185e-04   3.3688935e-04   2.2921550e-04  -5.0631369e-04   4.7402145e-04  -1.0212955e-04   7.0973305e-04   1.5623667e-04   3.6501614e-04  -5.0049755e-03   5.0511485e-04   1.3835734e-04   3.3697602e-04  -2.4481697e-04   1.4698781e-03   2.1420864e-03   1.2437531e-04  -3.2494243e-04  -5.4527745e-06   1.6274583e-04
   2.3486320e-04   2.5015927e-04   3.2382355e-05  -2.8887750e-06   1.0550019e-04   2.3255375e-04   1.9703459e-04  -8.4065097e-05   2.2268599e-04  -1.1812680e-05   1.0367922e-04   3.5364283e-05   1.3440631e-04   6.9265392e-05   1.1254412e-04  -3.1980671e-04   3.5756773e-05   5.5344470e-05   5.8093423e-04   1.2036175e-04  -2.3233873e-05  -1.0564347e-04   1.7020920e-04  -4.5105571e-06   2.5543792e-04  -1.2987854e-04   6.8330482e-05  -2.3571341e-04   7.4361340e-04  -4.0626222e-05   8.5426273e-06   4.3347580e-04  -8.0945232e-05  -4.3539370e-05   2.6392072e-04   2.3050528e-04   5.4433098e-04   1.5754018e-04   1.1897736e-04   8.0433330e-03   2.0109443e-04  -1.5896093e-04   1.7746477e-05  -5.9148902e-03   2.5064137e-04  -6.8380858e-04  -5.1816669e-04  -5.1417184e-04  -6.8506150e-04  -4.5630158e-04
   1.6104823e-05   4.8850980e-06  -2.3375558e-04  -3.4890921e-04  -1.0231832e-04  -2.4665895e-04  -3.8566679e-04   8.7912085e-05   4.7200261e-05  -1.6327715e-04  -1.6125008e-04  -1.2748607e-04  -4.5397253e-05   1.0122093e-04  -1.7419855e-04  -1.0213323e-04  -1.9893117e-05   1.9823972e-05  -1.1795470e-04   1.9031469e-04   5.2811531e-05  -1.0405160e-04   2.5218315e-04   1.3135979e-04   7.0516102e-04  -1.1978734e-04   7.5741386e-04   6.4440124e-04   8.3498139e-04   1.0134627e-04   6.2171586e-07  -3.9467489e-04   9.3963718e-05  -6.6897506e-04   1.9136266e-04  -7.1242073e-05   2.9530909e-04   1.7664973e-04   3.8502249e-04   1.6001535e-03   6.4583041e-04   1.9019890e-04   3.3026037e-04   6.3362070e-03  -2.7864156e-03  -2.5933275e-03   5.1111169e-04  -3.7542824e-04   2.0652979e-04   3.0596310e-04
   3.5929919e-04   4.1362367e-04   2.5966251e-04   2.4115786e-04   2.4549552e-04   4.4197732e-04   2.6955723e-04   5.5416673e-04   7.6144742e-04   6.7852589e-04   4.5771315e-04   4.9817481e-04   4.1611010e-04   6.7679514e-04   6.1021303e-04   6.5978215e-04   1.5468831e-04   1.0581721e-04   5.9888489e-04   3.2686070e-04   1.4437722e-04   1.2520449e-04   3.6191772e-04   2.0263596e-04   9.6198602e-04  -1.1466084e-04   3.5145797e-04   1.0612726e-04  -4.1252945e-04   2.1121734e-04   4.5896999e-05   1.8639170e-04   9.0154077e-05  -1.4058787e-04   4.3457176e-04   3.7679961e-04   6.9486786e-04   1.9035571e-04  -7.9164369e-04  -8.5337060e-03   2.4411944e-04   1.6469044e-04   4.2697307e-04  -5.3962627e-03  -1.0813137e-03  -5.6863148e-05   1.5202608e-04  -2.6449549e-04  -5.1556549e-06   2.0599068e-04
   2.8999994e-04   3.0342487e-04   1.3436086e-04   9.2387767e-05   1.5211872e-04   2.4888816e-04   1.0363950e-04   4.4370606e-04   1.8825110e-04   2.2822311e-04   2.2797997e-04   1.8096007e-04   3.4023524e-04   3.1078185e-04  -2.3672445e-05   5.7993055e-04   1.2305825e-05  -6.2342020e-05  -2.2169739e-05   2.1477116e-04   5.8794303e-05   4.7305370e-05   1.0900806e-04   8.8989240e-05   6.2379710e-05  -2.2092757e-04  -1.1925713e-04   4.0187157e-04  -1.3391519e-04   5.0550057e-05  -2.6977566e-05  -2.5937357e-04   3.0338182e-04  -1.8268128e-04   1.6156459e-04   1.3176382e-04   8.9647830e-04   6.6911605e-05  -1.1513391e-04  -7.1553905e-03   4.0605202e-04  -4.6846304e-05  -1.1439229e-04  -2.0432035e-03  -4.0828008e-03  -3.4880086e-03  -3.0853294e-04  -4.2868979e-04  -6.5196294e-04  -6.1823422e-04
   9.5795469e-05   7.3520154e-05  -1.1946112e-04  -2.4394279e-04  -3.6980418e-05   6.5982684e-05  -4.7516838e-05  -2.5051108e-04   1.7395940e-05   7.4674237e-05  -4.5851048e-05   2.7645394e-05  -2.2563245e-05   1.9571820e-04  -4.8328709e-04   1.0938821e-04  -8.3820087e-05   8.0183754e-06   5.4475508e-04   2.4100587e-04   1.3572548e-04   1.2857339e-04   2.6029241e-04   2.5246016e-04   3.6141180e-04  -2.7866371e-04   1.2782378e-04   8.1195310e-04  -6.9742411e-04   1.2951397e-04  -1.3488173e-04   4.1020731e-04   3.3478803e-04  -6.7844310e-05   1.7248801e-04   4.3324573e-04   4.8768270e-04   1.8942615e-04   3.4257717e-04  -4.3204818e-03   2.2724940e-04   2.8673239e-04   4.1487097e-04   4.4473582e-05   1.2260276e-03  -9.6188806e-04   8.5015938e-04   2.9973244e-05   2.6917676e-04   1.1361700e-04
   6.5478147e-04   5.1579485e-04   4.2927961e-04   3.9775891e-04   3.8172063e-04   5.3113472e-04   2.7454193e-04   5.6363334e-04   4.6069952e-04   9.2154922e-04   6.0298946e-04   7.0251332e-04   5.2819069e-04   7.8790775e-04   2.7471446e-04   7.3826307e-04   1.7236973e-05   3.7755184e-05   3.3014140e-04   4.5300552e-04   2.4794982e-04   3.2609512e-04   5.5675727e-04   3.4188447e-04   4.0990047e-04  -1.5484354e-04  -4.7188183e-05   1.4894377e-04   7.3119829e-04   2.3833165e-04   7.1369816e-04  -3.6570334e-06   3.4859570e-04  -1.3559581e-04   1.8741534e-04   4.9009046e-04   4.4493296e-04   7.6896678e-05   1.6780043e-04  -1.4660924e-03   5.3697533e-04   3.6381287e-04   3.5337446e-04   1.3483766e-02   2.7511674e-03   1.4468604e-03   6.4255099e-04  -9.6881151e-05   1.7031304e-04   9.4499417e-05
   4.8811210e-04   4.2800448e-04   3.1212490e-04   2.4978362e-04   2.8173710e-04   3.7821440e-04   3.7360704e-04   5.9714203e-04   4.0955518e-04   4.9739139e-04   3.8535034e-04   3.8403104e-04   4.0276541e-04   2.4503685e-04   4.1520700e-04   4.7454948e-04  -1.1417672e-05  -6.1713217e-05   8.2637859e-04   3.4014529e-04   1.5095924e-04   2.6433490e-04   3.1303067e-04   2.3192499e-04   5.1481492e-04  -2.5767175e-04   5.0884037e-04   3.9489774e-04   3.4273535e-04   1.1288872e-04   2.5812275e-04  -4.0138557e-04   1.6234817e-04  -5.6949974e-04   2.3788896e-04   3.4624038e-04  -6.6566456e-04   6.7071436e-05  -5.6221808e-04   2.5988112e-03   2.8536169e-04   7.4771357e-05  -1.3810917e-04  -1.1304079e-02   1.6328314e-03  -9.0291252e-04   3.9942974e-05  -3.5505521e-04  -3.9175354e-04  -3.6468563e-04
   3.1900339e-04   2.0554299e-04   6.4447006e-05  -9.0899106e-05   8.6486325e-05   1.2962482e-04   4.6044883e-05   2.0666559e-04   1.0006611e-04  -2.0157501e-04  -4.2836236e-05  -1.0222371e-04  -1.9995272e-04   4.0660983e-05   1.4528683e-04   6.7845278e-05  -8.1744365e-05  -3.9731662e-05   2.2430443e-04   2.1102738e-04   6.1961706e-05   1.1828289e-04   1.4464691e-04   2.4491053e-05   3.7355302e-04  -2.1034661e-04   3.7077966e-04   4.5619759e-05   6.3889747e-04  -5.7616603e-06   1.6313815e-04   1.8397372e-04   3.5800051e-04  -4.5125274e-04   1.4289908e-04   4.8782564e-05   2.6227628e-05   3.2746626e-05   2.1961376e-04   3.7535387e-03   5.0453242e-04   3.2970420e-04   2.8250201e-04   5.4853880e-03  -7.2607049e-04  -1.9426852e-04   6.5163471e-04  -4.8490324e-06   3.5685778e-04   1.3605053e-04
   7.5815397e-04   5.8413245e-04   5.2310491e-04   4.3378188e-04   4.4686126e-04   5.8416312e-04   4.8335217e-04   6.9238618e-04   7.3685974e-04   1.0142042e-03   6.8240566e-04   8.1936474e-04   7.8561064e-04   4.0912387e-04   4.9367140e-04   5.1696424e-04   1.5667993e-04  -4.2293327e-06   2.3319616e-04   5.4894161e-04   2.5649421e-04   3.6691772e-04   5.9093878e-04   3.1633579e-04   7.0439768e-04   1.6323838e-04   4.3009920e-04   1.7179811e-04  -7.9965754e-04   2.8512947e-04   4.6045930e-04  -5.4343596e-05   5.0535414e-04  -2.8279659e-04   5.4096128e-04   1.3071416e-04   4.4174344e-04   1.9133746e-04  -1.5859607e-04   1.1969386e-02   1.8922835e-04   2.9206020e-04   5.9647224e-04   1.1549636e-04  -8.4617594e-03  -2.6902689e-03   5.2113394e-04  -1.5480602e-04   3.0433154e-04   2.6720483e-04
   8.2871231e-04   5.8777665e-04   4.7699350e-04   3.4939189e-04   3.8862030e-04   3.6166367e-04   3.0945920e-04   8.8705543e-05   6.4918544e-04   5.8360794e-04   4.8309710e-04   5.3628039e-04   2.3460705e-04   4.8240376e-04  -1.4960863e-05   1.1251312e-04   1.0642439e-04   9.2224524e-05   3.1259443e-04   4.3715938e-04   1.6099968e-04   3.2688634e-04   3.3184746e-04   2.2255306e-04   4.3888151e-04  -9.4504452e-05  -1.6865321e-04   3.5181317e-06   1.3133982e-03   1.8034308e-04   2.7786504e-04  -3.6382338e-04   3.8214942e-04  -6.9257326e-04   4.7967249e-05   3.4545537e-04   4.2981678e-04   7.3778545e-05  -1.5265222e-04  -4.4432711e-03   6.6196278e-04   3.5135014e-05   5.4656455e-05  -1.1691481e-03  -3.8065088e-03  -1.8188754e-03   2.8348244e-05  -5.4194604e-04  -9.0394125e-05  -9.6180876e-05
   5.1019801e-04   3.5196973e-04   2.1529515e-04   3.0377312e-05   1.9943833e-04   1.2121046e-04   1.7145787e-04  -1.3977689e-05   3.0206513e-04   9.4324269e-06   8.0083853e-05   5.3884291e-05  -1.8348334e-04   8.7782850e-05   5.2236521e-04   3.0786934e-04  -6.8860929e-05  -1.6905171e-05   2.6873766e-05   1.9187141e-04   2.1488719e-05   1.9381329e-04   1.3172356e-04   7.4240277e-05  -1.4531829e-04  -2.6302991e-04  -1.7500424e-04  -1.8152659e-04   9.9156634e-04  -1.8241060e-05  -1.4781347e-04   5.5207417e-04   2.1994964e-04  -2.0553295e-04   1.8903737e-04  -3.4913290e-04   3.3924755e-04   5.2307376e-05  -2.9355826e-04  -5.5165743e-03   2.8195238e-04   2.7505439e-04   1.9999237e-04   6.7109973e-03   2.7754745e-03  -2.6986413e-03   7.6696707e-04  -7.8277364e-05   2.2685449e-04   3.3933393e-04
   6.8154471e-04   6.2057626e-04   5.1774899e-04   4.4854730e-04   4.6094912e-04   5.9578521e-04   6.4060517e-04   3.5281215e-04   6.4909068e-04   1.1591594e-03   7.4361131e-04   8.5178408e-04   6.5089168e-04   6.8393722e-04   5.6716515e-04   4.1174397e-04  -1.5921963e-05  -6.2610496e-05   4.1117231e-04   5.1250105e-04   2.3760737e-04   5.0229719e-04   5.4621976e-04   4.1915398e-04   2.8510334e-04  -2.7586488e-04   2.2648848e-04   3.3056800e-04   2.2299700e-04   3.1219824e-04   8.0351287e-04   4.7874064e-04   5.0214026e-04  -8.2310557e-04   3.2456208e-04  -7.3269889e-04   1.4111333e-04   1.5905463e-04   5.9037742e-05   1.3704086e-03   4.4240191e-04   5.2985235e-04   8.8974281e-05  -1.5310658e-03   2.3361435e-03  -6.2813233e-05   6.2504271e-04   8.8426517e-05   5.9201097e-04   3.4886858e-04
   6.1166938e-04   6.1120762e-04   4.2713823e-04   3.4970359e-04   4.2661681e-04   5.1895803e-04   5.0887349e-04   4.9912074e-04   7.8735902e-04   7.9009117e-04   6.0507644e-04   5.9315516e-04   4.9352099e-04   4.8706657e-04  -4.6891741e-06   5.9785595e-04  -2.7446697e-05  -1.3092623e-04   6.1510515e-04   4.6438561e-04   1.6179096e-04   4.7563086e-04   4.8848876e-04   3.3693641e-04   8.3147264e-05  -3.4809546e-04   6.1949587e-04   2.9250782e-04   1.6492476e-04   2.1430189e-04   1.9040866e-05   9.1965740e-05   2.4882940e-04  -5.2606675e-04   2.6263433e-04   4.9501687e-04   2.3870594e-04   5.6531462e-05   7.5933576e-04  -1.2774017e-03   8.7487802e-05   2.5509234e-04   3.8210189e-04  -1.2525483e-03   2.7430723e-03   1.3632657e-03   2.4721827e-04  -3.2042860e-04  -1.0231428e-04  -3.5084182e-04
   4.1771517e-04   3.8944784e-04   1.6907336e-04   4.7248795e-05   2.2462112e-04   2.3587060e-04   6.2047620e-05   1.0000667e-04   7.7388875e-05   1.5236578e-04   1.8692423e-04   1.0912289e-04  -1.1161009e-04   2.1914461e-04  -2.6167024e-04   2.3485543e-04  -1.5205253e-04  -3.5466035e-04   1.4425538e-04   2.3679982e-04   2.2909239e-06   3.0588708e-04   1.4918792e-04   2.0178833e-05   1.7842578e-04  -3.7674178e-04   3.9536352e-04   1.0634384e-04   1.9801043e-04  -3.3146334e-05   2.4795000e-04   3.0517891e-05   1.6374247e-04  -5.0637999e-04   1.7980512e-04   7.1678033e-07   7.5443219e-05  -1.0811383e-05   1.6863414e-04   1.0466701e-03   5.0504127e-04   4.2377287e-04   2.9627979e-04  -8.9751547e-03   8.2316939e-03  -2.9146273e-03   9.8132750e-04  -3.8147507e-05   4.2267406e-04   5.8278453e-04
   6.6400645e-04   6.5254868e-04   5.0156045e-04   4.5516592e-04   5.1526824e-04   7.1062468e-04   4.0618223e-04   8.8595902e-04   7.5249659e-04   1.3126786e-03   8.4988796e-04   8.8822667e-04   9.7717997e-04   5.2195822e-04   2.8879373e-04   1.0790592e-03  -6.7050452e-05  -7.6702745e-05   4.9759028e-04   5.5024726e-04   2.3667990e-04   6.1089004e-04   5.0391228e-04   3.8789463e-04   6.3461252e-04  -3.2758337e-04   3.4942344e-04   6.6356012e-04   4.3901263e-04   3.1897219e-04   2.4511726e-04   6.1603147e-04   6.3104340e-04  -9.9422713e-04   3.5439749e-04   9.2302170e-04  -9.5272044e-05   8.0412639e-05   6.1634433e-04   5.8428305e-03   4.6075758e-04   6.6747237e-04   5.6554662e-04  -5.2374997e-03   4.1112094e-03   1.5621257e-04   9.1055979e-04   6.8028137e-05   5.1940611e-04   2.5627960e-04
   6.4521225e-04   6.5417669e-04   4.3937931e-04   4.0816015e-04   4.6952115e-04   6.3309947e-04   6.0514634e-04   6.5633864e-04   5.6153745e-04   8.8378007e-04   7.0163520e-04   6.2998536e-04   5.7917583e-04   6.6904700e-04   2.9458728e-04   4.2519410e-04  -3.8084927e-06   2.3896635e-05   5.7826546e-04   4.7091581e-04   1.4100844e-04   5.2587653e-04   5.4212485e-04   2.7019286e-04   2.8183073e-04  -2.5137395e-04   5.5589614e-04   5.1882252e-04   8.5626834e-04   2.5790249e-04   2.5894240e-04   3.5485008e-04   3.2949177e-04  -6.6581968e-04   1.2747623e-04   2.0886080e-04   9.8897505e-04   9.3128081e-05  -5.3578470e-04   2.6393579e-03   5.2266545e-04   2.5491969e-04   4.5456021e-05   5.4076669e-04   3.1640383e-03   7.1008533e-04   8.2216095e-05  -2.6317479e-04   2.9226148e-04   9.6018324e-05
   4.5509642e-04   4.2411347e-04   1.8231588e-04   8.4339787e-05   2.5452202e-04   2.1215522e-04   2.6643777e-04  -1.2172621e-04   3.9642549e-04   1.3058090e-04   2.6153898e-04   9.5758478e-05   1.8754094e-04   2.7153466e-04   9.0862268e-05   5.0503277e-04   3.1513773e-05   2.4687804e-05   5.7690579e-04   2.4737595e-04  -4.7306174e-05   2.3724353e-04   1.3272825e-04   7.6385826e-05  -8.4232241e-05  -2.0964096e-04  -4.4366304e-04   5.6034827e-04   1.3812736e-03   4.7802282e-06   1.8142843e-04  -5.3122285e-04  -2.0547555e-05  -4.5294268e-04   1.9810346e-04   1.0937517e-05   5.6068267e-04   1.1188057e-05   3.4028635e-04   2.5314663e-03   6.5227431e-07   1.5500964e-05  -8.8480039e-05   1.0214503e-02  -1.9705396e-03   6.0989434e-04   1.7970124e-05  -5.4654712e-04   2.4261605e-04  -2.0138566e-04
   5.3766987e-04   5.0753827e-04   3.8689942e-04   3.1289484e-04   4.2642994e-04   5.3486391e-04   4.0045215e-04   7.9843146e-04   7.3078682e-04   1.0728376e-03   6.9627882e-04   7.2030886e-04   6.9452391e-04   7.7014364e-04   4.6674567e-04   1.0230293e-03   1.0504746e-04   2.3122402e-05   6.3348911e-04   5.1216222e-04   1.5235606e-04   4.3319140e-04   5.3942308e-04   4.0401448e-04   7.6323329e-04  -1.2849487e-04   6.1203307e-04   7.7022408e-04   3.6816553e-05   3.4574873e-04   2.9393431e-04  -1.5137896e-04   4.9510907e-04  -7.9850026e-04   5.7690940e-04   2.7926770e-04   7.9098361e-05   1.8888581e-04   7.1018137e-04  -3.3360599e-03   5.9036032e-04   5.1254855e-04   2.9710730e-04   4.4775554e-03  -1.4683024e-03  -1.0653416e-03   6.7491870e-04   1.8214219e-04   5.2082248e-04   4.2748955e-04
   5.9377536e-04   6.3416321e-04   4.2908013e-04   4.1430179e-04   4.6858820e-04   6.5463327e-04   5.1909831e-04   7.4464839e-04   6.2350964e-04   8.8787521e-04   7.4536720e-04   6.3596078e-04   7.0509495e-04   7.1032281e-04   3.6237662e-04   1.1603844e-03   1.8714654e-04   1.0299666e-04   8.8500252e-05   5.2121491e-04   1.3637371e-04   4.6188862e-04   3.9429238e-04   2.5359119e-04   3.6699066e-04  -1.2994079e-04   2.3560206e-04  -6.2841711e-05   1.7350190e-03   3.1618043e-04   7.7037694e-05   1.1832287e-04   2.6617493e-04  -2.7708916e-04   3.3500500e-04  -2.1054289e-04   5.8477063e-04   1.0587690e-04   6.0077931e-04  -8.3618117e-03   3.6584778e-04   3.3756040e-04   1.0985348e-04   4.0511107e-03   7.1450928e-04   2.1364770e-03   1.3776627e-04  -2.8782178e-04   2.6201239e-04   1.2221783e-04
   4.6290935e-04   4.4212455e-04   1.9876588e-04   1.2731945e-04   2.8933582e-04   2.8295128e-04   1.7901701e-04   4.6290303e-04   1.6420380e-04   1.8567930e-04   3.2999192e-04   1.3436694e-04   2.3042467e-04   5.1143480e-04  -4.7242566e-04   1.0059731e-03   1.1482213e-04  -1.0108012e-04  -3.1569682e-04   3.0820584e-04  -3.3630578e-05   2.6174649e-04   2.4188000e-04   9.9765814e-05  -1.2298150e-04  -1.7474407e-04   4.0942730e-04   4.5101164e-04   5.7877152e-04   6.0389288e-05   5.2947155e-04   6.9600261e-05  -1.2515462e-04  -1.3438148e-04   2.1101514e-04  -3.9993896e-04  -4.0010225e-05   1.0168393e-04   1.3104202e-06  -1.0388819e-02   1.8262627e-04  -1.1126494e-05   1.9986347e-04   9.5160026e-03  -2.7453669e-03   7.2843360e-04  -4.2827395e-04  -8.3523232e-04  -1.3001985e-04  -5.3102931e-04
   2.3574872e-04   1.7904725e-04  -5.3608150e-05  -2.2106203e-04   8.4681575e-05   6.4028827e-05   6.0904171e-05  -1.1075559e-04   2.7713427e-04   2.1924131e-04   1.3924333e-04   9.6005329e-05  -3.1776610e-05   1.3060801e-04   1.7046105e-04   3.0043520e-04   8.6741165e-05   1.2313748e-05   5.4262503e-04   3.4955810e-04   2.4056186e-05   2.4657845e-04   4.4165170e-04   1.3414721e-04   5.0882460e-04  -2.2262080e-04   4.7874235e-04   4.1783895e-04   5.3473079e-04   1.9059700e-04   2.0644844e-04  -9.9416366e-07   2.7686462e-04  -2.6083970e-04   2.7506592e-04  -2.3592445e-04   1.3256866e-04   1.7468464e-04   3.8558067e-04  -2.0213085e-03   2.3147410e-04   4.9012213e-04   3.4616116e-04  -9.3659367e-03  -1.4889496e-03  -9.5913711e-04   6.0296734e-04   1.1214750e-04   4.1197243e-04   4.0030078e-04
   5.5835268e-04   5.5780960e-04   3.7041289e-04   3.5091161e-04   4.2378882e-04   5.6290807e-04   3.8930212e-04   3.1110542e-04   3.8268731e-04   7.8097766e-04   6.6433736e-04   5.3112325e-04   5.3430640e-04   5.0877081e-04   2.4337652e-04   8.5813057e-04   2.4752298e-04  -9.5201525e-05   1.8968520e-04   4.9986254e-04   7.5821335e-05   3.0997136e-04   3.5673406e-04   2.5946932e-04   4.0746096e-04  -4.1587366e-05   1.7575742e-04   2.9551575e-04   8.4273441e-04   2.6414377e-04   7.3807023e-04   2.3954715e-04   2.0887812e-04  -1.4517311e-04   3.5853172e-04  -1.3999273e-04  -1.5726693e-04   1.9347150e-04   3.0702271e-04  -1.0924887e-02   4.5947614e-04   3.4567362e-04   4.2319830e-04  -4.6047349e-03   2.8630593e-03   5.1786046e-05   2.4124983e-04  -1.5071250e-04   2.0755192e-04   9.9855199e-05
   4.6906597e-04   4.0446161e-04   2.2157301e-04   1.5482228e-04   2.7746765e-04   4.0391777e-04   2.7551092e-04   1.3363099e-04   1.3120493e-04   1.8947561e-04   3.1858179e-04   1.2528808e-04   9.4034913e-05   4.5936127e-04   1.8325358e-04   9.3675515e-04   2.7691299e-04   1.3377814e-04  -7.4728167e-05   2.7505800e-04  -5.9832222e-05   1.3643122e-04   2.1796454e-04   7.9630685e-05   1.3360353e-04  -8.7948894e-05  -3.4185789e-05   2.8777288e-04   1.2710462e-03   7.7639153e-05   2.1813381e-04   1.1995542e-03   2.9599902e-04  -5.7206617e-04   1.1113846e-04  -4.8380971e-05   6.2424713e-04   8.0019563e-05  -1.0350029e-04   1.6938450e-02   1.5749937e-04   8.7036724e-06   3.7452497e-04  -8.4090661e-03  -1.5567896e-03  -2.0022178e-04  -4.8156903e-04  -5.9877639e-04  -1.6798796e-04  -3.5313400e-04
   2.9908819e-04   1.7015562e-04  -2.5512734e-05  -1.9693331e-04   7.3679927e-05   2.1204555e-06  -9.2836435e-06   1.9818895e-04  -1.3092022e-04  -4.3567413e-04  -1.0151823e-04  -3.2413006e-04  -3.5518970e-04   3.1196326e-04  -1.4481429e-04   6.6755997e-04   1.7318704e-05  -8.8453424e-05  -1.9685297e-04   1.3786093e-04  -1.4454944e-04   9.9129727e-05   4.5318851e-05  -5.5165889e-05   1.3881041e-04  -2.8949781e-04   2.5581600e-04   1.1778319e-04   3.3528105e-04  -8.5453452e-05   2.6229472e-04  -3.2763847e-04   8.3876803e-06  -9.7319920e-05   5.7737325e-05  -1.5426573e-04  -2.1052120e-04   6.0761518e-05  -3.2611817e-04  -3.9792745e-03   2.8845118e-04   3.6941178e-04   4.6692515e-04   7.2710384e-03   2.6500988e-05   2.2845892e-03   4.6179758e-04  -3.1221315e-04  -8.8601715e-05   3.2770218e-04
