   3.0915867e-04   1.3863760e-04   7.7305638e-05   3.5189241e-05   1.6009605e-04   3.8121091e-04   1.7169453e-04   1.5531649e-04   5.1364332e-04   1.5574112e-04   4.1053523e-04   1.6818866e-04   1.3994749e-04   1.9518132e-04   4.9228303e-05   1.0264928e-05   1.2481057e-04   6.8821355e-05   1.6974677e-04   9.9669523e-05  -1.6001039e-04  -1.5935981e-04   1.0603012e-04   9.8095174e-05   1.9157297e-04   3.2579358e-04   2.0588418e-04   1.2411534e-04   8.2286846e-05   7.8725854e-05  -1.8202125e-05   4.5313622e-04  -3.3656652e-05   3.1166393e-04   1.8513501e-04   5.8214075e-04  -4.2223564e-04   1.3151532e-04  -3.4129486e-04  -2.1692703e-03  -1.9007700e-04   9.0013302e-05   1.1178252e-04   6.3021574e-03  -1.5349753e-03  -2.9316910e-03   4.3781452e-05   1.6564218e-04  -2.7008331e-05   3.0595862e-04
   3.1515618e-04   1.3855917e-04   7.8894700e-05   3.2708816e-05   1.6122987e-04   4.0674175e-04   1.6839245e-04   2.2063406e-04   5.3164887e-04   7.3764291e-05   3.6348155e-04   1.0583806e-04   1.6515410e-04   1.9263227e-04  -1.6664284e-04   1.0240029e-04   1.2448899e-04  -3.6898789e-05   1.0198572e-04   1.1748323e-04  -1.6397364e-04  -9.9408513e-05   2.0462519e-04   1.0373750e-04  -8.3716863e-05   2.5990343e-04   2.1200033e-04   6.7153000e-05   6.9808826e-04   1.2460373e-04  -9.4096131e-06   6.7364468e-05   1.2208906e-04   3.6152414e-04   3.4633814e-04   1.0058624e-03   3.3042385e-04   8.3146682e-05   2.4916700e-04   4.6157707e-03   9.0926631e-05   6.7301800e-05   2.3027253e-04  -6.8266490e-03  -1.2328740e-03   6.8986701e-04   1.8468401e-05   4.1730946e-04   1.1533522e-04   2.0222491e-04
   3.2066790e-04   1.3630498e-04   8.7585562e-05   4.3843665e-05   1.8292409e-04   3.5885358e-04   1.7763113e-04   5.7426812e-05   5.1758427e-04   2.3372864e-04   4.2680971e-04   2.1927549e-04   2.2159280e-04   8.1982071e-05   3.4293663e-04   1.3400483e-04   1.5297296e-04   1.3649705e-05   7.3487725e-05   1.1267860e-04  -1.4422002e-04  -8.6017659e-05   2.1826492e-04   1.3028085e-04   2.5358281e-04   1.8655110e-04  -2.8059871e-05   1.4482519e-04   2.3949123e-04   6.4832806e-05   1.1265175e-04   3.2106775e-04   4.3096847e-05   2.8094935e-04   2.3580024e-04   4.3929074e-04   8.6065884e-05   1.0952321e-04  -1.1380795e-04   2.4251533e-03   4.5370971e-04   1.8182055e-04   3.1380929e-04   9.1138557e-03   3.0012014e-03   2.1257841e-03   1.0001908e-04   1.9498878e-04   1.0056951e-04   2.6644589e-04
   3.0592599e-04   1.4308401e-04   7.3335708e-05   4.1997082e-05   1.6647918e-04   3.5208996e-04   2.8398223e-04   7.3068081e-06   4.7976928e-04   2.1578152e-04   4.2792730e-04   2.1020211e-04   2.4089946e-04   1.8678856e-04   2.8914030e-04   1.4099349e-04   1.2208988e-04   1.3848595e-04  -1.0526631e-04   1.3029562e-04  -1.4382282e-04  -5.8209644e-05   2.6279461e-04   1.2275571e-04   3.0616764e-04   1.9971484e-04  -2.0068607e-04   2.1569432e-04   1.2346320e-03   9.0437694e-05   1.0395378e-04   6.0556945e-04  -5.8609821e-06   3.4920243e-04   2.2889706e-04   1.6868046e-04   1.8169809e-04   1.1163513e-04   1.8987912e-04   5.6354050e-04   4.2934662e-05   1.2615159e-04   1.0814860e-04   9.7513403e-04   3.9318753e-03  -3.1174112e-03   5.5438260e-05   2.6456395e-04  -1.0756245e-04   2.5788750e-04
   3.0285362e-04   1.4364615e-04   7.8510027e-05   4.7491747e-05   1.6353317e-04   3.7040591e-04   2.2041916e-04   1.9051516e-04   5.8825669e-04   9.6778254e-05   3.9498697e-04   1.2743514e-04   2.5893026e-04   8.8755849e-05   3.9445428e-04   1.1669292e-04   1.2771178e-04   5.6042390e-05   1.5761168e-04   1.2526735e-04  -1.4512239e-04  -6.2421517e-05   2.0250984e-04   9.9785459e-05   1.1883873e-05   2.0929801e-04   1.7511784e-04   3.6153782e-04  -2.4770389e-04   8.6342690e-05   1.5173337e-04   5.5047142e-04  -3.0180336e-05  -1.1312473e-04   1.6798725e-04   4.3893917e-04   1.6352304e-04   6.4055428e-05   1.7456252e-04   1.0872368e-02   4.2871432e-04   1.0312360e-04   2.8055525e-04  -2.8918141e-03  -1.8588568e-03  -1.5612071e-03   8.6502669e-06   4.7918264e-05   1.1589003e-04   3.1569533e-04
   2.9764476e-04   1.4368753e-04   8.4683728e-05   4.7490394e-05   1.6358924e-04   3.9453420e-04   2.9043554e-04   2.6657814e-04   4.0832799e-04  -1.1555046e-05   3.3976210e-04   7.1142706e-05   2.9147265e-04  -3.2866952e-05   9.3338596e-05   2.1695941e-04   1.0497822e-04   3.6472447e-05   1.1068389e-04   1.3579843e-04  -1.3973031e-04  -8.8805646e-05   2.3038663e-04   8.4300715e-05   1.6523729e-04   2.6195616e-04   1.6448088e-04  -8.2195795e-05   4.6832667e-04   9.1623806e-05   1.5022182e-05   3.6935540e-04   2.0271413e-04   5.1822740e-06   1.4486346e-04  -2.8132487e-04  -4.1525334e-04   7.3707604e-05   5.9906347e-04   7.4542575e-03   1.8459214e-04   1.4509226e-04  -3.3782679e-05  -4.3131211e-03  -2.5165614e-03  -1.0925818e-03   1.3879448e-04   3.3925567e-04   6.5599816e-05   3.8733575e-04
   2.9148266e-04   1.4755447e-04   8.0261620e-05   4.9364149e-05   1.6978741e-04   3.9868488e-04   3.9775958e-04   3.4632155e-04   4.6549083e-04   1.9364925e-04   4.4189271e-04   2.0544075e-04   2.3833035e-04   1.5102126e-04   2.5328033e-04   3.7640717e-04   1.1998279e-04   1.1870547e-04   1.9217060e-04   1.4654479e-04  -1.2747044e-04  -8.4310130e-05   2.0907012e-04   1.4956752e-04   2.2333073e-04   2.3390912e-04  -1.0566136e-05   3.7858507e-04  -3.4428009e-05   9.0194648e-05   5.3063519e-05   3.0736948e-04  -2.4969925e-04   6.0554821e-04   1.7297345e-04   8.9041586e-04   1.1481468e-04   1.5398703e-04   3.2338442e-04   2.1785042e-04   2.3838661e-04   1.1035896e-04   2.3958168e-04   6.0966462e-03  -3.6190910e-04  -2.0843802e-03   5.7829959e-05   3.2026126e-04   1.6525076e-04   2.4350439e-04
   2.8342204e-04   1.5075831e-04   8.2699487e-05   5.9471306e-05   1.5494485e-04   4.2429430e-04   2.2486296e-04   1.7624086e-04   5.0879363e-04   1.2548383e-04   4.0942850e-04   1.6184369e-04   1.9838029e-04   7.4640455e-05   1.1880696e-04   1.4113687e-04   1.2371023e-04   3.9586866e-05   4.4365547e-04   1.5439252e-04  -1.3339725e-04  -5.1433115e-05   2.1345106e-04   1.4592781e-04   4.7058289e-05   1.8737343e-04  -6.2655956e-05   2.4914680e-04   2.2756692e-04   6.3096450e-05   2.7593630e-04  -1.1604698e-06   2.2073524e-05   7.3613808e-04   1.8109783e-04   3.1939641e-04  -4.5742872e-04   7.6795382e-05   5.7810667e-04  -1.9064063e-03   5.7193323e-04   1.2159930e-04   2.6476826e-04   4.0736343e-03   3.9980579e-03  -2.6870088e-03   1.3745033e-04   2.7404985e-04  -6.8478214e-05   2.0352365e-04
   3.0002231e-04   1.4516116e-04   9.0626010e-05   7.1310009e-05   1.7361564e-04   3.6980404e-04   3.4256798e-04   9.6488402e-05   5.1363854e-04   4.2922009e-05   3.6479806e-04   9.7062693e-05   1.9897742e-04   5.0258881e-05   2.0196562e-04  -5.8961636e-05   9.4065152e-05   1.0505058e-04   2.5699412e-05   1.3919341e-04  -1.4401267e-04  -5.8823811e-05   2.9043003e-04   1.7080421e-04   2.8990986e-04   2.4186680e-04   1.9082903e-04   3.3676441e-04  -3.7388914e-04   1.1359833e-04   3.0546435e-04   2.5684480e-04  -1.4496645e-05   3.6457819e-05   2.8427027e-04   4.6579592e-04  -3.7106394e-04   9.0304595e-05   3.2610918e-04  -8.2722167e-03   2.7652414e-04   1.3124735e-04   2.9119983e-04  -7.4217250e-03   9.7832559e-03  -1.8131366e-03   1.5224027e-04   2.2423106e-04   3.2465985e-05   3.7792942e-04
   3.0570084e-04   1.4539903e-04   9.8208577e-05   7.1478607e-05   1.6876019e-04   4.1488250e-04   2.3860922e-04   3.3450421e-04   4.8717135e-04   2.0429859e-04   4.2794415e-04   2.0075144e-04   2.7132526e-04  -6.3876010e-05   3.5482107e-04   1.4867666e-04   1.3453896e-04   3.5216268e-05   2.1865287e-04   1.5546472e-04  -1.2102543e-04  -7.0400725e-05   1.3735070e-04   1.6845940e-04   6.3337655e-05   4.0694614e-04   2.6729304e-04   3.4334292e-04  -5.5705901e-04   1.3841527e-04   9.7895339e-05   3.1824390e-04  -5.6193057e-06   8.0054678e-04   1.6128953e-04   1.0180057e-03   6.4956769e-04   1.8794728e-04  -1.2644638e-05  -3.9549856e-03   5.5078906e-04   1.4212183e-04   5.3205871e-04   8.3045298e-03   6.2068184e-03  -7.6998696e-03   8.0268379e-05   3.7849441e-04   1.3986268e-04   2.6268029e-04
   3.0307841e-04   1.4018125e-04   9.4147341e-05   8.6284097e-05   1.6573469e-04   4.1496780e-04   4.2181110e-04   2.8729948e-04   5.1833154e-04   1.3307769e-04   4.0387176e-04   1.3294749e-04   1.8501807e-04   2.2962522e-05   1.1359251e-04   1.3613093e-04   1.3091037e-04  -1.7645940e-05   1.2929295e-04   1.6176898e-04  -1.3240834e-04  -1.2200815e-04   9.2776725e-05   1.2666802e-04  -1.6576120e-04   4.7236084e-04   6.2075262e-05   1.5339609e-04   5.3947506e-04   1.2232813e-04  -5.4556451e-05   4.5028343e-04  -9.1284615e-05   4.6675067e-04   2.1564816e-04   1.2043630e-04   4.8669329e-04   1.7909882e-04   4.5473929e-04  -4.6771979e-03   5.4127356e-04   7.4297306e-05   2.3409243e-04   1.5809414e-03  -1.7404900e-03   1.4270385e-03   5.9500380e-05   2.1008708e-04   1.3104582e-04   2.0314229e-04
   3.0869985e-04   1.3942290e-04   1.0442808e-04   8.4885571e-05   1.7784888e-04   3.9538456e-04   4.2514119e-04   2.2929329e-04   6.0003524e-04   2.3114677e-05   3.6384587e-04   7.2685049e-05   2.9320226e-04   1.8196006e-04   1.2461127e-04  -1.9419444e-06   1.0308957e-04   1.0562127e-05   2.7539901e-04   1.3263673e-04  -1.4455325e-04  -1.0434205e-04   2.6571879e-04   1.0709244e-04   6.3137166e-05   3.9573055e-04   1.5284970e-05   2.5320466e-04  -1.8613951e-04   1.2049945e-04   2.5368252e-04   5.4360658e-04   1.6199875e-04   2.3638812e-04   2.2538865e-04   2.5210436e-04   4.8981176e-04   1.6639486e-04   3.7808422e-04  -4.8663185e-04   1.8659013e-04   9.4200135e-05  -5.9311405e-05   9.6906256e-03  -4.1246766e-04   2.8544202e-04   3.0536579e-05   2.3770529e-04  -2.5907884e-05   2.1256537e-04
   3.2747217e-04   1.3711106e-04   1.1657851e-04   8.1210121e-05   1.9119242e-04   4.0882512e-04   3.1115615e-04   1.1272509e-04   5.3322181e-04   2.5462132e-04   4.4219842e-04   2.1681115e-04   1.9419649e-04   6.3638814e-05   7.8531106e-05   1.0332921e-04   6.5714630e-05  -2.6550377e-05   2.2411197e-04   1.2230742e-04  -1.4011347e-04  -6.9266505e-05   2.5305874e-04   1.4898715e-04   4.4549702e-04   1.5331230e-04   2.3268892e-04   3.2964995e-04   9.4225159e-04   9.2628536e-05  -1.8324752e-05   5.6650571e-04   3.1651105e-04   6.4244255e-04   2.9365395e-04   5.2567740e-04  -1.2131907e-05   1.4229963e-04   3.4481966e-06  -4.1913381e-03   1.9070716e-04   1.8549357e-04   1.4791422e-04   6.2615238e-03  -3.7243459e-03   1.3341551e-03   2.1166846e-04   3.3481960e-04  -1.5861767e-04   3.0571740e-04
   3.2259000e-04   1.4552147e-04   1.1496622e-04   7.4270247e-05   1.8043820e-04   3.8699721e-04   1.3522767e-04   1.8447794e-05   5.9102691e-04   2.1995523e-04   4.4748580e-04   1.8945363e-04   2.6935272e-04   1.1525779e-04  -1.3607265e-04  -8.2867329e-05   1.1700554e-04   1.8918411e-04   5.4414890e-05   1.7134311e-04  -1.4010913e-04  -6.2827967e-05   2.1752779e-04   1.8960952e-04   2.5300480e-05   2.0497835e-04   3.2315080e-04   4.2037966e-04   1.1074524e-03   1.2173262e-04   2.7159241e-04   2.0026350e-04  -5.4320073e-05   2.6395917e-04   3.2463478e-04   5.0192449e-04   5.6872750e-04   1.8284246e-04  -1.1990323e-04  -7.3183299e-05  -4.6398760e-05   1.4643154e-04   1.2110072e-04  -9.5698414e-03  -3.2925769e-03  -3.4341982e-03   1.2469276e-04   2.5814160e-04  -6.0959661e-05   2.2839576e-04
   3.2844784e-04   1.4757123e-04   1.1769018e-04   8.6609652e-05   1.8329039e-04   3.3934967e-04   3.1144198e-04  -9.3147326e-05   4.5192288e-04   8.1085796e-05   4.1054282e-04   1.0534521e-04   2.9074875e-04   1.0252935e-04   9.3268041e-05   3.4006414e-04   7.9577461e-05   1.7232758e-05   4.8804606e-05   1.4675912e-04  -1.5047005e-04  -5.4830663e-05   2.3169645e-04   1.7629736e-04  -1.0642360e-05   2.8358444e-04   2.4458725e-04   4.9933542e-06   4.3037196e-04   1.1477002e-04   1.4554890e-04   9.2705406e-05   9.7351120e-05   7.6721562e-04   3.0289998e-04   5.9359299e-04   4.5254247e-04   1.7949057e-04   3.8412283e-04   2.1343777e-02   2.6274397e-04   1.5862452e-04   2.5608941e-04  -1.1300892e-02   1.1066030e-03  -2.2835369e-04   4.2662185e-05   4.6736948e-04  -1.7045936e-04   2.8012376e-04
   3.4149177e-04   1.4647398e-04   1.2614338e-04   8.6042273e-05   1.8306272e-04   3.7553831e-04   2.9454276e-04   1.7416627e-04   5.6718319e-04   6.6316563e-05   3.7702810e-04   1.0788864e-04   2.7758104e-04   9.0518770e-05   1.3635041e-04  -1.0894266e-04   8.2447099e-05   5.3641394e-05   2.1553828e-04   1.3411026e-04  -1.3839011e-04  -6.5190921e-05   1.8566033e-04   1.6694459e-04   1.6030011e-04   2.2071878e-04   2.9053577e-04   4.1085394e-05   1.8795197e-04   1.0988456e-04   3.0662611e-04   1.4106635e-04  -6.8732224e-05   2.4569305e-04   2.1588927e-04   4.2495423e-04   6.8633235e-04   1.5123004e-04   6.4432410e-05  -3.0868733e-03   2.2899972e-04   1.5160532e-04   4.5748675e-04  -2.4575237e-03  -5.3612422e-03  -3.1913358e-03   1.1735786e-04   3.7020360e-04  -6.1985411e-05   3.4207047e-04
   3.3908416e-04   1.5469739e-04   1.2072975e-04   9.0014524e-05   1.7730349e-04   3.9187397e-04   3.5511761e-04   1.1769735e-04   5.4428075e-04   1.8760125e-04   4.4814678e-04   1.9585110e-04   2.0020778e-04   1.4827412e-04   1.5818363e-05   1.6391279e-05   9.4881994e-05   5.2641342e-05   3.8288935e-04   1.3832256e-04  -1.3390585e-04  -9.0900976e-05   2.8737375e-04   9.5435782e-05   1.9631485e-04   2.7365822e-04   1.8030775e-04   2.7702592e-04   1.7503324e-04   8.0298916e-05  -9.2220369e-05   9.2573282e-05   1.5460294e-04   1.4449860e-04   1.9420394e-04   3.2435206e-04   2.8842667e-04   1.4235507e-04   4.1981629e-04  -7.5061462e-04   3.2347441e-04   1.2292451e-04   2.0780912e-04   5.8010765e-03   6.8933796e-03   5.0321576e-04   7.7745928e-05   2.2944520e-04   1.3873313e-04   3.1183014e-04
   3.4223750e-04   1.5501041e-04   1.2333866e-04   8.1046732e-05   1.7750128e-04   3.5506499e-04   3.3002452e-04   2.1520256e-04   6.5309129e-04   9.8177661e-05   3.9763414e-04   1.2584646e-04   3.5255068e-04   1.7760850e-04   1.9728765e-04   2.8285003e-05   9.2846807e-05   2.4663344e-05   1.9197709e-04   1.5041996e-04  -1.3939496e-04  -1.2375122e-04   2.2728290e-04   1.0763848e-04   2.6804727e-04   3.5511280e-04   2.7182681e-04   2.0055150e-04  -2.5217966e-04   1.0511569e-04   2.1095914e-04   5.3779065e-04   1.7904818e-04  -1.4991897e-05   4.9204705e-04   6.4514246e-04  -7.3811953e-04   1.4283121e-04   2.9120751e-04   1.6678492e-02   1.2710599e-04   1.3993589e-04  -4.7067999e-05   3.7145181e-04   1.6484776e-03  -2.5605115e-03   5.4438970e-05   2.4452317e-04  -1.8961653e-04   2.7012467e-04
   3.4306425e-04   1.5444517e-04   1.2964645e-04   7.7587734e-05   1.7540563e-04   3.9282156e-04   3.0519895e-04   4.3856773e-05   5.5444275e-04   1.4128090e-05   3.5236028e-04   7.1686358e-05   2.3851857e-04  -4.9493658e-05   6.1677958e-05  -1.0541460e-04   9.9153745e-05   1.2320191e-04   3.1014724e-04   1.8031099e-04  -1.4616178e-04  -9.5369163e-05   2.6010565e-04   1.3412343e-04  -1.6110502e-04   3.3118320e-04   3.9489209e-04   4.3296840e-04   3.4054369e-04   1.1705012e-04   8.4542211e-05  -1.0322977e-04   6.1748447e-05  -3.4507375e-05   2.6914317e-04   6.8179495e-04   1.5801039e-04   2.3062715e-04   9.3702634e-05   2.6151782e-03   3.8797161e-04   1.2855051e-04   2.0942185e-04  -3.3408413e-03   5.8040707e-03  -8.5980899e-04   6.6670422e-05   3.2785541e-04  -2.0271746e-04   2.8993943e-04
   3.5079586e-04   1.6036899e-04   1.3124273e-04   8.8703695e-05   1.8000005e-04   3.3235189e-04   1.9929558e-04   3.1491046e-04   5.7905319e-04   2.0749799e-04   4.5650077e-04   1.9966952e-04   3.3575864e-04   1.1481538e-04   8.4267143e-05   3.1172909e-04   8.8008383e-05   4.6532914e-05   1.0337414e-04   1.6725442e-04  -1.3296708e-04  -8.6274427e-05   1.5285859e-04   1.0269559e-04   2.8323749e-04   2.9754257e-04   1.8922190e-04   1.4371991e-04   3.8319791e-04   1.0581415e-04   1.0502165e-04  -3.5608049e-05   4.3452990e-05   7.5555238e-04   3.1046817e-04   9.0051629e-04   5.6111861e-05   1.3860728e-04  -1.6546088e-04  -2.6376473e-03   4.9630442e-04   1.3163489e-04   3.0550529e-04  -2.0624686e-03   6.9693988e-04  -3.5026912e-03   1.4692437e-04   2.7237495e-04  -4.2306765e-05   3.5255784e-04
   3.5125189e-04   1.6040447e-04   1.3234410e-04   8.7671324e-05   1.7615885e-04   3.9146439e-04   2.6124073e-04   1.6214963e-04   5.5249338e-04   1.5549365e-04   4.3387391e-04   1.7150860e-04   3.3913477e-04   2.7730776e-04  -3.1066712e-04  -2.4740233e-05   8.8071029e-05   2.4424971e-04  -9.5534175e-05   1.4131756e-04  -1.3472424e-04  -5.8954582e-05   2.6055778e-04   1.0705905e-04   3.8884467e-04   2.5471841e-04   1.2896709e-04   1.4386183e-04  -1.3180624e-04   8.0467784e-05  -2.7702721e-05   2.2098237e-04   7.6763863e-05   5.4801593e-04   2.1790061e-04   4.7408941e-04   9.5567128e-05   1.5077917e-04   6.4866809e-04  -2.3964363e-04   1.4223144e-04   1.4391265e-04   2.8182776e-04   8.3051249e-03   1.6610108e-02   4.2944155e-03   3.8538241e-05   2.6105376e-04  -9.6265823e-05   3.6347588e-04
   3.5467456e-04   1.6044846e-04   1.3859475e-04   8.6915570e-05   1.8384701e-04   3.8792123e-04   1.9393428e-04   2.2974650e-04   4.8569671e-04   5.8948252e-05   3.8627727e-04   1.1973386e-04   1.7345042e-04   1.7330989e-04   1.7782762e-04  -1.3385355e-04   7.3647017e-05   2.4861700e-04   2.7849965e-04   1.6531629e-04  -1.3426869e-04  -4.6754281e-05   2.3218732e-04   1.0916275e-04   2.1461291e-04   2.2213387e-04  -2.7008777e-04   3.1321292e-04   2.6661911e-04   1.0038931e-04  -2.3416915e-05   4.8084770e-04   1.8486469e-04  -6.1417639e-04   1.5105367e-04   7.0643780e-04  -2.7732726e-04   1.4189152e-04  -3.0195926e-04  -8.1776315e-03   3.0836149e-04   8.3812272e-05   4.0458821e-04   1.0686935e-02  -4.7000611e-04   1.8760224e-03   7.8162317e-05   4.0951688e-04  -7.4808748e-05   3.2124404e-04
   3.6197904e-04   1.6240467e-04   1.4337027e-04   9.0434994e-05   1.8680983e-04   3.6709008e-04   2.7891310e-04   1.8257526e-04   5.3158979e-04   1.7877838e-04   4.1632654e-04   2.0095742e-04   3.4825501e-04   3.1302468e-05   4.1937958e-05   3.0664209e-04   8.3596729e-05  -4.8444672e-05   2.2623011e-05   1.6745359e-04  -1.2084348e-04  -4.6189794e-05   2.9005550e-04   1.2419028e-04   1.8470389e-04   1.9566546e-04   5.9557984e-05   2.6582967e-04   7.4137951e-04   6.6026827e-05   1.1186680e-04   2.0813577e-04  -6.9468215e-06   2.5026055e-04   1.8703112e-04   1.9005561e-04   2.0527959e-05   5.5935798e-05   1.9693511e-04  -1.5292801e-03   4.8960169e-04   1.5490544e-04   2.8620916e-04  -5.7031109e-04  -7.0348065e-03  -1.9995978e-03   1.1995061e-04   4.3217948e-04  -1.0851491e-04   2.6721630e-04
   3.5271057e-04   1.6922365e-04   1.3419754e-04   8.8617657e-05   1.7509269e-04   3.7545626e-04   1.3875235e-04   2.6502580e-04   5.8325141e-04   1.7817630e-04   4.5789589e-04   2.0381692e-04   1.7778626e-04   1.7913140e-04   2.3253087e-04   7.6002223e-05   1.0520653e-04   2.2291659e-05   4.4294514e-04   1.5571943e-04  -1.1468888e-04  -2.9428347e-05   2.1098295e-04   8.2684543e-05   4.0497216e-05   1.7113618e-04  -2.1027117e-05   4.5990443e-04   2.2138582e-04   9.9455101e-05  -5.8672449e-05   2.3139864e-05  -8.0356049e-06   5.7481178e-05   2.4156674e-04   6.7794768e-05   3.8088139e-04   7.6392957e-05  -1.6726794e-04   1.2223765e-03   3.1500272e-04   1.4861753e-04   3.8398837e-04  -7.8991558e-03  -5.4168794e-03   7.2536548e-03   1.6509330e-04   4.0051041e-04  -2.7284570e-04   2.3542222e-04
   3.5550314e-04   1.6926539e-04   1.3373530e-04   9.2032285e-05   1.7895771e-04   3.4731373e-04   2.5334783e-04   2.0107547e-04   6.0390582e-04   1.0875907e-04   4.0535250e-04   1.5149506e-04   2.8314523e-04   1.9399662e-04  -7.2222065e-05   1.3818849e-04   9.5854615e-05  -4.5980811e-05   2.4535437e-04   1.8016374e-04  -1.2103445e-04  -3.6364916e-05   1.5978522e-04   7.8828802e-05   9.6608775e-05   1.3160646e-04   9.9348050e-05   3.4880996e-04  -3.4785055e-04   9.6754840e-05   2.3214871e-04   9.4893330e-05  -2.0403742e-04   3.5463705e-05   1.4144230e-04   4.6129571e-04   5.0993130e-04   8.5816333e-05   8.6917751e-04   7.6556061e-03  -3.3180862e-05   1.4302623e-04   2.2036201e-04   8.0562029e-03   2.7832547e-03   3.5230857e-03   5.6518595e-05   4.1269112e-04  -3.2133769e-04   1.8109297e-04
   3.5138623e-04   1.6922932e-04   1.3896734e-04   8.6331405e-05   1.7582903e-04   3.1500799e-04   1.8959284e-04   4.0343666e-04   5.9198443e-04   6.5867622e-05   3.9742776e-04   1.2230290e-04   2.3432419e-04   1.5338350e-04  -2.3926463e-04   1.8814942e-05   8.1145750e-05   5.6465382e-05   3.8371820e-04   1.8528268e-04  -1.1381082e-04  -4.7587844e-05   2.3954429e-04   8.5299522e-05   1.0265988e-04   1.2944479e-04   3.4499171e-04   7.3990617e-05  -1.0788513e-04   8.4482992e-05  -1.2562744e-04   3.5076655e-04   5.3297244e-05  -2.6791423e-04   1.8316969e-04  -1.4447262e-04   3.1890762e-05   1.4237623e-04   2.5864088e-04  -6.7840260e-03   4.5675610e-04   2.3973918e-04   6.7283405e-04  -5.7543227e-03  -3.2642270e-03   3.8032506e-03   6.8700552e-05   3.3509714e-04  -2.4924712e-04   2.2972576e-04
   3.4510440e-04   1.7449309e-04   1.3108912e-04   9.1927366e-05   1.7304787e-04   3.5686063e-04   2.1895811e-04   6.6054170e-05   5.5798632e-04   1.8848399e-04   4.6243213e-04   2.1284254e-04   2.9646413e-04   2.9148362e-04   3.1869629e-05  -1.1944853e-04   6.9633337e-05   1.3396042e-04   1.5902483e-04   1.8337552e-04  -1.1691939e-04  -4.1535899e-05   2.1272483e-04   1.3084509e-04  -1.2364809e-04   1.4630417e-04  -7.6014629e-05   2.8956038e-04   2.2143970e-04   6.5642926e-05   1.8679018e-05   4.3328226e-04  -1.3143000e-04  -1.2667898e-04   4.7818899e-05   8.1953814e-04   1.3283444e-04   1.3110436e-04   2.1449967e-05  -1.8226876e-03   1.5464846e-04   1.4400700e-04   3.3704491e-04  -2.4988802e-02   3.3380475e-02  -5.1760050e-03   4.5830548e-05   3.2480431e-04  -1.1344885e-04   1.5540616e-04
   3.4808612e-04   1.7401393e-04   1.3322762e-04   9.7894619e-05   1.6997321e-04   3.1971725e-04   2.0573165e-04   9.3140785e-05   6.7660835e-04   1.3320080e-04   4.3169953e-04   1.7605066e-04   3.1413947e-04   1.9710102e-04  -1.8102903e-04   1.9315057e-04   9.2891947e-05  -2.6229305e-05   1.5763062e-04   1.9349687e-04  -1.1851052e-04  -3.9818886e-05   2.3190447e-04   1.4267373e-04   2.1148770e-04   2.0368109e-04  -3.8320861e-05  -3.2789088e-05   3.6215951e-04   1.1553564e-04  -9.4908995e-05   5.0120056e-05   1.3054183e-04   2.1275292e-04   2.1074846e-04   5.1212317e-04   3.9495650e-04   1.3289582e-04   1.9812856e-04   1.5630154e-02   3.8756352e-04   9.0053218e-05   4.0033890e-04  -4.0956503e-03  -5.8165530e-04  -9.6560759e-04   7.7877812e-05   3.7383527e-04   9.1844959e-05   1.3914266e-04
   3.5255580e-04   1.7228954e-04   1.3949152e-04   9.9752557e-05   1.7628701e-04   3.2140806e-04   2.2165332e-04   1.1473311e-04   5.9628527e-04   5.5132281e-05   3.9747480e-04   1.2159448e-04   3.3942366e-04   4.4731487e-06  -5.5916174e-05   2.0562450e-04   8.2969666e-05   1.3224449e-04   3.7067526e-04   1.7474733e-04  -1.1181993e-04  -4.3553380e-05   1.8845436e-04   1.1799385e-04   3.8226959e-04   1.9886652e-04   1.1536196e-04   1.4262137e-04  -1.5236008e-04   8.9289446e-05   4.0427971e-05  -6.1356339e-05   4.8636051e-05   8.2449864e-05  -1.4677945e-05   5.9748953e-04   4.9608492e-04   1.1948345e-04   6.1515282e-04   8.9110434e-03   6.1586726e-04   1.8656682e-04   2.8912164e-04  -1.2902409e-03  -4.1327584e-03  -5.1330607e-03   1.2797133e-04   2.9065929e-04  -8.2764825e-05   2.7505300e-04
   3.5403061e-04   1.7841750e-04   1.3480768e-04   1.1444042e-04   1.6901045e-04   3.4087460e-04   2.9290718e-04   2.7346221e-04   5.9246056e-04   2.3296587e-04   4.6717215e-04   2.4022596e-04   1.9335038e-04   4.3581895e-05  -8.4049978e-05  -9.1482820e-05   8.2696693e-05   5.1964915e-05   1.6284229e-04   1.9606661e-04  -1.0540061e-04  -2.8683438e-05   1.3355310e-04   1.3204721e-04   8.5894208e-05   1.3857408e-04   2.6506218e-04   6.9466638e-05  -1.2874469e-04   8.9276662e-05   2.7221558e-04   2.1792321e-04   1.6176210e-04   5.8015172e-05   2.3954156e-04   1.6034946e-04   1.7913143e-04   1.9177567e-04  -7.5923177e-05  -6.1737793e-04   2.1686174e-06   1.8849378e-04   5.1574525e-04   3.8937815e-03   1.0730496e-03   1.0176257e-03   1.2685066e-04   3.3809291e-04  -2.7286695e-04   1.4784125e-04
   3.6085802e-04   1.8086801e-04   1.3835117e-04   1.1062013e-04   1.7695580e-04   3.4492838e-04   2.7963697e-04   7.1836555e-05   5.8963796e-04   1.6455172e-04   4.5061830e-04   1.9925959e-04   3.1908014e-04   1.5289740e-04   1.3261729e-04   1.3422717e-04   9.6119395e-05   5.4374948e-05   4.7770198e-05   1.9761476e-04  -1.1044193e-04  -3.8165141e-05   3.2406196e-04   1.3550711e-04  -9.4333402e-05   1.8882484e-04   1.3754195e-04   1.6849124e-04  -6.6612044e-04   1.1761734e-04   1.8396936e-04  -4.3486340e-05  -2.6735659e-06  -1.2196614e-04   1.8700869e-04   3.3662413e-04  -6.4579194e-06   1.0810730e-04   2.3970666e-04   3.3145808e-04  -9.4064926e-05   1.3948983e-04   1.9615819e-04  -7.8145592e-03   7.4115884e-04   2.3049985e-03   1.2972705e-04   3.4277237e-04  -1.8384507e-04   1.4604745e-05
   3.7172047e-04   1.8326544e-04   1.4490246e-04   1.0171616e-04   1.6232912e-04   3.2559430e-04   2.9089156e-04   1.8493146e-04   6.0077681e-04   7.2187046e-05   3.7649830e-04   1.4573718e-04   2.7285813e-04   2.3767831e-04   3.1626827e-05  -8.8703055e-05   1.0353592e-04   9.5242416e-07   3.3197421e-04   1.8630194e-04  -1.0849231e-04  -4.0058065e-05   1.5616704e-04   1.2905180e-04  -1.6311010e-04   2.0519581e-04   1.7567298e-04   3.3883442e-04   1.1960650e-03   7.9562349e-05  -1.2847179e-05   4.4585366e-04   1.0521429e-06  -1.0986703e-04   3.0609564e-04   7.0783764e-04   1.2623986e-04   1.3003859e-04   2.5446562e-04  -5.9345979e-03   3.4862576e-04   1.3676373e-04   1.6743188e-04  -1.2103503e-03  -3.7605087e-03   4.2386213e-04   2.1413832e-04   4.8246191e-04  -2.6677188e-04   3.2039720e-04
   3.6805309e-04   1.8704479e-04   1.4905723e-04   1.1294065e-04   1.7532182e-04   3.2960149e-04   2.1443648e-04   2.0804968e-04   5.5285665e-04   2.4749729e-04   4.6011727e-04   2.6395827e-04   2.5702410e-04   1.0234630e-04   1.9177531e-04  -9.6384712e-05   1.0749830e-04  -1.0685738e-04   4.2293305e-04   1.8198846e-04  -9.4487434e-05  -1.6222384e-05   2.8140977e-04   1.1903552e-04   3.3831508e-05   1.5453642e-04   5.8601412e-04  -5.3772928e-05  -6.3008076e-05   8.8881825e-05  -3.0248350e-04  -4.5681677e-06   1.1126854e-04  -4.1190400e-05   2.8750408e-04   4.7766578e-05  -1.4299087e-04   8.8105859e-05   1.4308274e-04  -3.5780021e-03   3.9025579e-04   1.1276918e-04   2.3038551e-04   7.0578852e-03  -1.6257435e-03  -9.3822018e-04   2.2887543e-04   2.6152015e-04  -3.1852294e-04   2.9070376e-04
   3.6437498e-04   1.8681776e-04   1.3958993e-04   1.0802208e-04   1.6084222e-04   3.4257054e-04   2.7588953e-04   4.0634375e-05   6.9500331e-04   2.0019029e-04   4.5559494e-04   2.2537381e-04   1.1682358e-04   2.4068043e-04  -6.6583852e-05   1.8583586e-04   1.1380274e-04   1.2661520e-04   4.5425398e-04   1.7107250e-04  -9.9173696e-05  -6.7405626e-06   2.3437360e-04   1.1008941e-04   2.1600936e-04   1.7775326e-04   3.2322266e-04   3.4169512e-04  -9.5767615e-04   8.4796637e-05  -5.1144092e-05   4.3950448e-04   1.3932337e-04   2.1842634e-04   1.6983940e-04   2.3523148e-04  -5.0498085e-04   9.6721102e-05  -2.7200149e-04  -4.6759918e-03   2.7872689e-04   1.4630891e-04   1.4933251e-04   1.2725732e-02  -5.6396830e-03  -1.7556740e-04   1.1366307e-04   3.0398311e-04  -1.5956139e-04   3.2444921e-04
   3.5998397e-04   1.8511633e-04   1.4451081e-04   1.0037523e-04   1.6255889e-04   3.1072090e-04   2.9746804e-04   1.9470486e-04   5.7365431e-04   1.1871858e-04   4.2498985e-04   1.8191499e-04   1.8093610e-04   1.2135050e-04   1.4330182e-04  -6.7298693e-06   9.1568108e-05  -4.1277726e-05   8.9052824e-05   1.7450551e-04  -1.0097320e-04  -1.7613072e-05   2.4973229e-04   1.1448957e-04   1.5294109e-04   1.4847008e-04   3.5429629e-04  -1.6336000e-05   1.8857134e-04   6.8102039e-05  -9.6880962e-05  -9.7612334e-05   2.1858099e-05  -9.4279370e-05   6.5273380e-05   2.5188091e-04   3.6249973e-04   1.4734695e-04   4.2602167e-04  -9.8896737e-04   4.7462090e-04   1.6497470e-04  -9.4092095e-05  -6.4241295e-03   1.2616080e-02   1.8262144e-03   2.1001665e-04   3.1601998e-04  -1.1542768e-04   2.1116521e-04
   3.7400503e-04   1.8496797e-04   1.4459931e-04   1.0543470e-04   1.5773083e-04   3.4331065e-04   2.7880544e-04   7.9484045e-05   6.4914575e-04   2.7060439e-04   4.6322675e-04   2.7325051e-04   2.8715367e-04   1.2712048e-04   8.2401901e-05   1.5381713e-04   8.1430975e-05  -1.3253633e-04   2.5801198e-04   1.7579620e-04  -9.0266476e-05  -1.9612158e-05   2.3845842e-04   1.5358266e-04   3.7827631e-04   1.2584712e-04   1.6424850e-04   9.4827392e-06   3.7056452e-04   8.4632149e-05  -1.1177708e-04   9.0885645e-05   1.6072085e-04   1.7791458e-04  -3.3983972e-05  -9.0428824e-05  -3.1295174e-04   1.6953349e-05  -8.1835547e-04   1.2232674e-02   2.2431194e-04   2.0159868e-04   3.0336113e-04   1.2945856e-02   2.9693197e-03  -4.9725394e-03   1.8827565e-04   3.2530943e-04  -2.8284572e-04   4.8236389e-04
   3.6186018e-04   1.8924607e-04   1.3617528e-04   1.0716180e-04   1.5004486e-04   2.7616983e-04   1.7867594e-04   4.3080414e-05   6.5756356e-04   2.4456377e-04   4.6391904e-04   2.4648377e-04   7.6125187e-05   2.4513778e-04   5.1047948e-05  -6.5240165e-05   9.2427057e-05  -4.7094651e-05  -5.3878044e-05   1.6706222e-04  -9.7988348e-05  -4.7736419e-05   1.9738777e-04   1.0011774e-04  -3.0343988e-06   1.3867982e-04   2.4685735e-04   2.8347279e-04  -6.8949055e-05   9.8538600e-05   4.2696449e-04   2.2797623e-04   1.3079078e-04   7.1434013e-05   3.0562328e-04   3.6739805e-04  -4.0999937e-04   4.3160970e-05  -5.8350177e-04   3.1231041e-03   2.7579704e-04   1.3546488e-04   2.1310813e-04   2.4589053e-03   5.2154681e-04   6.8389052e-03   1.3603101e-04   4.1983707e-04  -1.9607594e-04   2.8125598e-04
   3.6373344e-04   1.8444895e-04   1.3975555e-04   1.0146732e-04   1.4619397e-04   3.4588273e-04   2.6567938e-04   5.8141654e-06   6.4027420e-04   1.7746503e-04   4.3808430e-04   1.9026114e-04   1.8073000e-04   6.6320747e-05   4.2611242e-05   5.5709064e-05   3.1647094e-05  -7.3621297e-05   3.2921996e-06   1.6737457e-04  -1.0159004e-04  -1.2877591e-05   2.4569078e-04   7.0423608e-05   6.3169355e-05   1.1397988e-04  -1.0388063e-04   8.9349276e-05   3.3296060e-04   9.1116686e-05  -9.2311839e-06   4.0611182e-04  -1.0681698e-05   2.3167983e-04   1.6888740e-04  -1.2430892e-04  -9.5604410e-05   8.4730040e-05  -1.5420937e-04   2.2704047e-03   3.3815650e-04   1.7394157e-04   1.4390801e-04  -7.0154872e-03  -5.6433433e-04   9.5634203e-04   1.0280356e-04   3.4687703e-04  -2.5802240e-04   2.0639562e-04
   3.7569943e-04   1.8091506e-04   1.4239212e-04   1.0930519e-04   1.6366973e-04   3.1847891e-04   1.6288784e-04   1.1006353e-04   5.0386891e-04   2.8736482e-04   4.6307960e-04   2.7302635e-04   2.3489541e-04   9.2142320e-05  -3.2058022e-05  -6.1281280e-05   7.1464936e-05  -9.8731063e-05   5.4314762e-04   1.4787051e-04  -9.4248076e-05  -4.5178935e-05   2.6189184e-04   6.4394299e-05  -6.6533306e-05   9.5335316e-05   1.5657875e-05   2.5708191e-04   1.7127115e-04   7.4445212e-05  -4.1774001e-06   7.6654978e-05   2.4196705e-05   5.7337945e-04  -4.2478554e-05  -3.5866218e-05  -1.2937603e-04   8.9430818e-05   2.8095630e-05   3.6191435e-03   3.2694876e-04   2.0463495e-04   2.9381737e-04   1.2825172e-03   2.3165115e-03   2.0672483e-03   2.2895531e-04   4.3269651e-04  -3.7338678e-04   6.0694878e-05
   3.6617889e-04   1.8702239e-04   1.2740285e-04   1.1501375e-04   1.3827048e-04   2.7805739e-04   1.1652830e-04   2.0577392e-04   6.6558522e-04   3.1107329e-04   4.7186608e-04   2.7673724e-04   2.2304800e-04   1.8674882e-04  -9.6257558e-05   1.7937306e-04   8.1012011e-05   2.2385277e-05  -1.6272011e-04   1.7394805e-04  -9.2209491e-05  -1.3829215e-05   2.5931449e-04   8.6779241e-05   1.5976116e-04   3.1066662e-05  -6.5212887e-05   2.7978883e-04  -1.1364224e-04   3.8087011e-05   2.4931561e-04   1.5099921e-04   2.3820446e-04  -3.3641752e-04  -8.0417536e-05   3.3644270e-04   3.4775891e-04   7.7198369e-05  -1.4168248e-04   1.3369500e-06   3.2302851e-04   2.3041425e-04   2.9494174e-04   1.7807800e-02  -1.1550087e-03  -1.9771415e-03   5.8809714e-05   3.4227408e-04  -2.1383923e-04   2.9479116e-04
   3.6449201e-04   1.8335959e-04   1.3256179e-04   1.0746049e-04   1.5105016e-04   2.8113832e-04   1.8477648e-04   2.2266140e-04   5.5136526e-04   2.4384532e-04   4.5061391e-04   2.3579931e-04   2.5998687e-04  -9.1672329e-05  -1.3015324e-05  -1.8073403e-04   3.8993570e-05   5.8177761e-06   4.5837465e-04   1.6521440e-04  -9.8336939e-05  -4.6220907e-06   2.2151310e-04   8.4140302e-05  -5.5802557e-05   6.2230400e-05   9.3658222e-05   3.6427708e-04  -9.0616391e-05   5.8368234e-05  -5.0541756e-05   3.0877267e-04   7.7041026e-05  -1.4345581e-04   1.7238536e-04   2.5669091e-05  -4.8606445e-05   1.1614901e-04  -1.9768621e-04   1.8748712e-03   5.3360738e-04   1.7429923e-04   2.4048639e-04  -2.7149343e-03  -3.0975285e-04  -1.3824987e-03   1.6009396e-04   3.0470997e-04  -1.4349083e-04   2.0684922e-04
   3.6784532e-04   1.7938297e-04   1.3368639e-04   1.0432182e-04   1.4508986e-04   2.5677029e-04   2.9101357e-04   1.9640324e-04   5.7631877e-04   1.6246410e-04   3.9672363e-04   1.7241923e-04   1.9527141e-04   1.3376324e-04   5.2003881e-05   1.7545135e-04   4.7123431e-05  -1.4503724e-04   7.5095086e-05   1.6252263e-04  -1.0021942e-04   1.0189523e-05   2.0198456e-04   8.9040128e-05   8.7462831e-05   1.4301095e-05   1.6501597e-04  -5.4180713e-05   5.0592783e-04   6.0298142e-05  -2.1944623e-05   1.2738961e-04   1.0773344e-04  -1.1129736e-04   1.4483614e-04   6.4502243e-04   1.1620555e-04   1.7543226e-04   2.8589732e-04  -4.2243544e-03   3.6406133e-04   1.6270086e-04   4.9860083e-04   4.4788697e-04  -1.4337052e-03  -2.1795144e-03   2.3021769e-04   2.5148207e-04  -2.9107081e-04   3.0761011e-04
   3.5751684e-04   1.8034129e-04   1.2906350e-04   1.2051075e-04   1.3532807e-04   2.4820576e-04   1.1205403e-04  -5.3454678e-05   5.3819321e-04   3.5368017e-04   4.9205788e-04   2.9870361e-04   1.4925776e-04   4.5167864e-05  -3.4993599e-04   1.4081743e-04   7.4492629e-05   1.5558719e-05   7.3581835e-04   1.6524963e-04  -8.3787723e-05  -3.7051977e-05   1.9414829e-04   9.0075082e-05   1.9942592e-04   6.1788720e-05   3.8021719e-04   9.4329218e-05   4.4689424e-04   7.3162832e-05   2.2611956e-04   3.5363915e-05  -2.0610911e-04   4.8162727e-04   1.2975751e-04   1.0409187e-04   5.3399277e-04   1.9120026e-04  -1.8155998e-04   4.2392529e-04   1.6188069e-04   1.9913159e-04   3.0597724e-04  -8.8657746e-03  -5.8030308e-04   1.5040273e-03   2.5137435e-04   3.6341045e-04  -3.6243047e-04   9.6896856e-06
   3.4422107e-04   1.7991794e-04   1.2402874e-04   1.1855855e-04   1.2991537e-04   2.6417262e-04   1.2887374e-04   1.5794905e-05   6.7248329e-04   2.8519100e-04   4.7317927e-04   2.4584151e-04   1.1134016e-04   1.0692561e-04  -2.5736997e-05  -3.3316911e-07   4.9635830e-05   1.3798372e-05   4.5928429e-04   1.6743760e-04  -9.0759262e-05   5.2611476e-06   2.7051190e-04   9.8694189e-05   1.4047395e-04   6.0704126e-05   3.1692754e-05   1.6833845e-04   1.5238202e-04   7.2175113e-05   9.0271853e-05   4.7821132e-04   2.4900353e-05   2.8361258e-04   9.2087634e-05   1.3770582e-04  -2.9528441e-04   1.0119325e-04   3.1502888e-04  -7.4960785e-03   1.0007992e-04   1.7556621e-04   2.6291201e-04   1.3727442e-03   1.1310148e-03   2.0158242e-03   1.4929469e-04   3.6864178e-04  -2.4123653e-04   1.7513735e-04
   3.5264160e-04   1.7525333e-04   1.2843354e-04   1.1004412e-04   1.3551554e-04   2.5807499e-04   2.6572132e-04   2.7050388e-05   6.3076662e-04   1.9591085e-04   4.3136653e-04   1.8064212e-04   1.7919186e-04   1.7358651e-04   1.7377574e-04  -2.2947248e-05   3.5677302e-05  -5.2604286e-05   2.4070035e-04   1.6464826e-04  -9.6129079e-05  -1.3479388e-05   1.9976312e-04   1.2319974e-04   1.4794737e-04   1.4788461e-04   1.6958216e-04   8.8948618e-05   4.3472458e-04   1.0131699e-04  -1.0627270e-04  -3.6860998e-05  -6.9766364e-05   1.8180700e-04   3.7037840e-05   4.6581446e-04   5.6731171e-04   1.4945518e-04   6.3479610e-04   7.1479048e-04   1.9597530e-04   1.0106619e-04   3.6571603e-04  -9.9265408e-03  -3.1098274e-03  -3.1455050e-03   6.5181986e-05   2.6222900e-04  -2.6473796e-04   3.6590423e-05
   3.4216055e-04   1.6754333e-04   1.2987088e-04   1.1945237e-04   1.2981310e-04   2.1016860e-04   1.4610123e-04   1.2901676e-04   5.3595373e-04   2.4620938e-04   4.3255577e-04   2.1263139e-04   1.8082744e-04   7.6760436e-05   3.3549004e-05  -9.8738019e-05   4.5815967e-05  -1.4295203e-04   3.4364086e-04   1.7594146e-04  -8.1560713e-05  -3.1547224e-05   1.2356270e-04   8.0538499e-05   1.4984312e-04   1.2080386e-04  -1.3204401e-04   3.2272594e-04  -6.0210710e-05   7.1213486e-05  -6.8419240e-06   7.9364116e-05  -9.1212300e-05   3.9381048e-05   4.6182100e-05  -2.3815290e-04   1.1708806e-04   1.5159334e-04   8.4461419e-05  -4.9398676e-03   3.2718314e-04   2.0830022e-04   4.8664527e-04   8.2007954e-03   4.4909697e-03   3.2333673e-03   2.2126776e-04   2.5547860e-04   5.3701128e-06   2.2622102e-04
   3.3616336e-04   1.6932786e-04   1.1515023e-04   1.3118157e-04   1.1272474e-04   2.8073596e-04   5.9376525e-05   7.6230317e-05   5.7231163e-04   3.0715583e-04   4.6115991e-04   2.5249756e-04   9.8852921e-05   4.4781194e-05   2.5281630e-04  -2.1953767e-05   2.6157690e-05   5.7771413e-05   1.6154097e-04   1.6746292e-04  -8.0278172e-05   8.9633322e-06   1.4239384e-04   3.9095972e-05  -2.9281504e-05   5.4011300e-05  -6.6365035e-05   1.9497109e-04   3.4015664e-04   6.2321640e-05  -1.6579998e-04   2.0864879e-04  -1.4978288e-04  -1.0363103e-04   9.9107434e-05   5.7633803e-04  -4.6169001e-04   9.6874581e-05   1.2861923e-04   5.8649075e-03   3.8418776e-04   1.4080456e-04   4.5346856e-04  -4.9861283e-03   4.2531925e-04  -1.1094556e-03   1.5930941e-04   3.8974371e-04  -2.9426959e-04   1.2863406e-04
   3.2407447e-04   1.6307521e-04   1.1490842e-04   1.2982184e-04   1.1280552e-04   2.2714332e-04   9.0181522e-05   1.4008924e-04   6.0102961e-04   2.1658756e-04   4.4433295e-04   1.7465527e-04   2.0073801e-04   1.1603793e-04  -5.3314612e-05  -2.2352496e-04   3.0302095e-05   3.8083097e-05   2.8376628e-04   1.6355627e-04  -8.6950982e-05  -4.2969656e-05   1.1442430e-04   5.1186584e-05   4.1015160e-06   1.1441862e-04  -3.0091411e-04  -2.5128826e-04   5.3198735e-04   6.9054811e-05  -3.1246591e-04  -2.5992040e-04  -3.1248989e-04  -1.7257339e-04   1.0961817e-04  -1.7519706e-04  -6.3567277e-04   1.2609089e-04  -5.1305827e-04   2.9151773e-03   3.0086821e-04   1.5090822e-04   2.1010372e-04   9.3775634e-03  -3.8112013e-03   4.5759864e-03   1.5327455e-04   3.8182203e-04  -7.6844590e-05  -1.8761499e-04
   3.2169250e-04   1.5824131e-04   1.2104506e-04   1.3385616e-04   1.0977644e-04   2.2309720e-04   8.6938286e-05  -2.6335056e-05   6.3629734e-04   1.4774136e-04   3.9235494e-04   1.2946619e-04   8.4970539e-05   4.3566570e-06   6.8906767e-05  -2.7489266e-04   2.6156746e-05   3.6040306e-05   1.7715106e-04   1.7159712e-04  -9.1409267e-05   8.1625976e-06   7.9129823e-05   5.1770701e-05   1.1762723e-04   1.3212311e-04   1.9229583e-04   2.2942243e-04  -4.9820397e-04   6.9626658e-05   1.1065382e-04   1.2366931e-04  -2.9133522e-05   8.4616877e-05   1.1839544e-04   7.1876828e-04   1.5047089e-04   1.6900005e-04  -6.8019071e-05   6.1630337e-03   2.6101421e-04   1.6118478e-04   3.0106964e-04   7.4124048e-03   7.8021702e-03   6.0146265e-03   1.6453107e-04   3.3961600e-04  -1.6960231e-04   6.6034350e-05
   3.3437696e-04   1.5700678e-04   1.2593780e-04   1.3774872e-04   1.2031975e-04   2.1658883e-04   9.5345582e-05   8.3001061e-05   6.1157579e-04   3.3204764e-04   4.6203085e-04   2.6207659e-04   2.2309726e-04   2.1816515e-05   1.3836479e-04   4.5575329e-05   2.8306358e-05  -7.4786840e-05   3.0499083e-04   1.6839082e-04  -7.6853961e-05   1.4989835e-05   1.7738670e-04   3.4751036e-05   1.2454047e-05   6.3625484e-05  -8.6694570e-05   1.9523457e-05   2.2023782e-04   6.8282447e-05  -2.6708801e-04   2.3871542e-04  -4.2886928e-05   2.3042440e-04   2.2771933e-04   4.8741858e-04   5.2435749e-04   1.2218227e-04   5.9148594e-04  -3.8512982e-04   3.1804614e-04   1.6941992e-04   3.4611247e-04  -8.8499011e-03   1.4625720e-03  -1.3448412e-03   1.7202269e-04   2.3933117e-04  -1.8854780e-05   3.5634355e-05
   3.1727002e-04   1.5926590e-04   1.2013858e-04   1.2997260e-04   1.1183034e-04   2.3933285e-04   8.5909036e-05   1.9814823e-05   6.1941688e-04   2.8948265e-04   4.6350990e-04   2.2830490e-04   5.9822760e-05   1.3392828e-04  -1.0757960e-04  -6.6078472e-05   2.0744978e-05  -9.2167364e-05   3.0204430e-04   1.7107913e-04  -6.1090774e-05   1.9724662e-07   2.0523761e-04   1.1177804e-04  -1.4431505e-04   3.7334721e-05   1.8206572e-05   1.7398315e-04   7.2529382e-04   4.1681040e-05  -5.1038704e-05   1.0065198e-04  -9.4715608e-05   4.8262643e-04  -1.2017980e-05   4.8098015e-04  -2.3990976e-04   1.6433555e-04   4.0732455e-04   4.0408541e-04   3.8979738e-04   1.9859326e-04   3.2116595e-04   8.0493866e-03   2.1870548e-03  -2.9852514e-03   1.7758964e-04   2.8385210e-04  -4.2240947e-05  -3.4386947e-05
   3.2296672e-04   1.5849709e-04   1.2510191e-04   1.3182701e-04   1.1435035e-04   2.2596506e-04   1.4605695e-04   1.1769042e-04   5.2141474e-04   1.7715264e-04   3.9712054e-04   1.7096242e-04   1.0725480e-04  -1.0819679e-04   9.6622636e-05  -1.2008159e-04   4.6830114e-06   4.3303124e-05   5.7177449e-04   1.8709955e-04  -5.2142565e-05   3.8193815e-05   2.1218247e-04   5.2020041e-05  -3.1854826e-05  -4.2210166e-05   2.3048361e-04   6.1199484e-05   9.7815639e-05   4.4062526e-05  -3.4850938e-05   2.2305874e-05   2.5435991e-04  -2.4417537e-04  -6.0013532e-05   2.4039525e-04  -1.5629909e-04   1.0986615e-04   2.1026410e-04  -3.2760166e-03   3.5270152e-04   1.8515662e-04   3.5159657e-04   1.8987501e-02  -4.6090251e-03  -3.6807454e-03   1.1322959e-04   2.2035500e-04  -3.5591947e-05   1.7294404e-04
   3.2533999e-04   1.5730032e-04   1.3269291e-04   1.2636713e-04   1.2302026e-04   2.7558388e-04   1.7309075e-04  -8.6773871e-06   5.0459045e-04   1.7148397e-04   4.0774103e-04   1.7665827e-04   1.5442143e-04   1.4046053e-04  -1.1305438e-04  -9.6295160e-05   3.2945638e-05  -1.2020544e-04   2.5502007e-04   1.9496250e-04  -3.5690846e-05   6.2323728e-05   1.8207605e-04   6.8566937e-05   8.8425782e-05  -1.2085320e-04   2.2790047e-04   1.2346738e-04   4.1345981e-04   3.0788418e-05   4.0086037e-05  -2.3978745e-04  -7.7957506e-05  -3.5896979e-04  -8.0913320e-05  -9.1498201e-05  -1.1491576e-04   8.6398206e-05   4.7799338e-05   4.6510943e-03   2.5865613e-04   1.8752505e-04   4.6147144e-04  -1.8411822e-04   4.0339233e-04   5.1732659e-03   1.7577368e-04   3.4586925e-04  -1.2444046e-04   1.5211024e-04
   3.1196224e-04   1.6358863e-04   1.2700868e-04   1.2691392e-04   1.1356366e-04   2.4611986e-04   2.0890120e-04  -3.9290302e-05   6.0016115e-04   2.8478968e-04   4.5826400e-04   2.4878213e-04   1.5599579e-04   4.8423361e-05  -1.2098033e-04   1.7922849e-04   7.4608756e-06  -6.6388558e-05   1.8796888e-04   1.8471533e-04  -2.9740133e-05   2.0305064e-05   2.3576335e-04   8.9887108e-05   1.0400641e-04  -1.4623388e-04   3.2163720e-05  -2.2674556e-04   4.1534545e-04   2.4118490e-05   9.1299924e-05   2.4864284e-04   1.4584143e-05  -3.6507606e-04   1.5624657e-05   2.1636231e-04   1.1892022e-04   1.8370849e-06   8.5891690e-04   1.0176801e-02   2.2228940e-04   2.0663768e-04   4.1883241e-04  -9.3944399e-03   3.4680755e-03  -3.3168443e-03   1.9594160e-04   2.9803289e-04  -2.5609267e-04   1.4940847e-04
   3.0328028e-04   1.6025860e-04   1.2655077e-04   1.2529940e-04   1.1402093e-04   2.2483600e-04   1.3850372e-04  -9.7007942e-05   5.9677404e-04   2.1207030e-04   4.2791382e-04   1.9910115e-04   1.4946009e-04  -3.7405880e-05  -6.9929112e-05  -7.7809171e-05   2.5255067e-05  -2.6060845e-05   1.2172567e-04   1.7734215e-04  -3.5587738e-05   4.4914734e-05   1.3978280e-04   3.6383761e-05  -8.5784930e-05  -1.2755334e-04   1.7223718e-04   2.5462615e-04   6.2628191e-05   3.4159432e-06  -1.3746976e-04  -3.8116006e-04   2.4138889e-04  -2.8555206e-04   2.0412434e-05   5.1790517e-04  -5.8357009e-06   3.7297061e-05   1.9340051e-04  -2.8210613e-03   8.1670337e-04   1.5176332e-04   9.3834649e-05   1.0373304e-02  -4.7585298e-03  -7.0137898e-03   1.7505689e-04   2.6952880e-04   5.2004700e-05  -1.6339557e-04
   3.0243915e-04   1.5893707e-04   1.3184659e-04   1.3152261e-04   1.2295033e-04   2.3347285e-04   2.2315613e-05   1.1446064e-04   5.0142780e-04   1.1497839e-04   3.7668744e-04   1.4338281e-04   1.8628452e-04   6.6026078e-05  -7.9067344e-05  -2.2683795e-04   3.4640856e-05  -2.2006663e-04  -3.3888766e-05   2.2087008e-04  -2.2847442e-05   4.5456025e-05   1.8364943e-04   1.9278308e-05   1.5202389e-04  -1.4194648e-04   2.6689057e-04   1.2031947e-04   2.1055450e-04   1.4141560e-05  -8.4155909e-05   1.2600020e-04   3.0102414e-05  -3.4116584e-04  -6.0730701e-05  -1.6389607e-04  -6.8945414e-04   4.0381263e-05   1.5172563e-04  -3.0313761e-03   1.6478870e-04   2.1503626e-04   2.6320462e-04   1.0847828e-02   4.1359360e-03   9.3369568e-03   3.1409730e-04   2.8888689e-04  -1.4667069e-04   8.8396155e-05
   2.9358760e-04   1.6196504e-04   1.2897217e-04   1.2907686e-04   1.2328487e-04   1.9337090e-04   1.3695688e-04  -6.4814274e-05   5.9529621e-04   2.9868016e-04   4.6268286e-04   2.6173308e-04   1.1528838e-04   1.7407216e-04  -3.5637230e-04  -1.0097212e-04   2.4097093e-05  -1.3337271e-04   9.2251990e-05   1.9777218e-04  -2.0291447e-05   5.7661822e-05   2.0263763e-04   5.8418504e-05   3.4455629e-04  -1.5096158e-04   2.4765730e-04   1.5167064e-04   1.2592900e-03   2.3743640e-05  -3.5856757e-04   6.7364403e-05   7.9553851e-05  -2.7077607e-04  -2.1252948e-05   1.3827899e-04  -1.8767380e-05   7.4639647e-05   6.0536544e-04   1.4378197e-02   6.1418721e-04   2.2775237e-04   5.1840342e-04  -5.4518818e-03  -4.7800508e-03  -3.5449036e-03   2.1663000e-04   2.9307883e-04  -2.1438120e-05   1.7913182e-04
   2.8692457e-04   1.6303995e-04   1.3160391e-04   1.2672233e-04   1.1907761e-04   2.0263290e-04   2.0173124e-04  -3.3834702e-05   6.1615568e-04   2.2968742e-04   4.2484837e-04   2.0497374e-04   1.3108157e-04  -6.0363876e-05  -2.2494167e-04   3.4514442e-04   2.5421079e-05  -7.1963193e-05   4.8289308e-04   1.9614500e-04  -1.9010176e-05   6.6871879e-05   2.2647766e-04   9.6129879e-05  -9.9503071e-05  -1.0444457e-04   8.9450827e-05   1.1906657e-04   6.4815575e-04   5.5098888e-05  -8.4306943e-05  -2.9636198e-04  -7.0142232e-05  -3.2211919e-04  -5.9850176e-05   3.5033363e-04   4.3151752e-04   4.1985062e-05  -4.5591933e-04  -4.8863655e-03   4.7510010e-04   2.3374596e-04   4.5794269e-04   1.8123193e-02   1.1931883e-02  -7.2885356e-03   2.2560982e-04   2.6236128e-04  -1.0884896e-04   1.9543184e-04
   2.8732303e-04   1.5784275e-04   1.3368468e-04   1.3054266e-04   1.2301921e-04   1.8192308e-04   1.3846003e-04  -1.2330148e-04   5.6888431e-04   1.5233895e-04   3.6912554e-04   1.6832227e-04   2.2588015e-06   1.4683802e-04  -1.0640144e-04   2.6508959e-04   1.1096638e-05  -9.2046648e-05   5.7515578e-04   2.0490117e-04  -1.4689934e-05   6.8816618e-05   1.8183883e-04   3.7202743e-05   7.4208379e-05  -1.1043947e-04  -1.0503474e-04   1.1660185e-04  -3.5298373e-05   3.0154710e-05  -2.1831910e-04   5.1063842e-05   1.8947572e-04  -4.9712579e-04  -7.5858916e-05  -5.5458986e-07   5.4467435e-04   5.7576177e-05   5.1679916e-04   1.1227241e-04   1.1844908e-04   1.8183453e-04   2.4534360e-04  -1.6644215e-02  -1.4492336e-03   4.2594839e-03   2.1952479e-04   3.9169434e-04  -5.6585592e-05   1.2306923e-04
   2.8574257e-04   1.5720009e-04   1.3111993e-04   1.3411784e-04   1.1531300e-04   1.5785883e-04   2.1137351e-04  -1.1578819e-04   6.6424703e-04   2.9584570e-04   4.1475668e-04   2.5906792e-04   7.5433622e-05   1.8258873e-04  -1.0223519e-04   2.8506305e-05   2.1291971e-05  -3.8146249e-05   4.2753006e-04   1.9592704e-04  -1.1032657e-05   2.6332529e-05   1.1636470e-04   6.6967295e-05   1.2174236e-04  -1.1454660e-04  -7.2784285e-05   2.7878906e-04   9.5511944e-04   2.2724960e-05   1.8136816e-05  -1.0976911e-04  -1.9880186e-05  -5.0232490e-04  -9.8641678e-05  -2.1590138e-04   4.9041701e-04  -1.9710020e-05   4.0404312e-04  -5.3237895e-03   4.0078122e-04   1.9472076e-04   1.0377997e-04   2.9237506e-03   3.5694221e-03  -5.3933621e-03   1.8765793e-04   2.5970448e-04   1.2170249e-04   2.1049340e-04
   2.9186250e-04   1.5742020e-04   1.3283985e-04   1.3206121e-04   1.0580470e-04   2.0556503e-04   1.6097148e-04  -1.7447624e-04   5.4847717e-04   2.3060851e-04   4.0493286e-04   2.1267249e-04   2.9739938e-05  -5.6617180e-05  -2.9698500e-04  -3.8207058e-05  -5.7039229e-06  -5.3037522e-05   3.7905652e-04   2.1987471e-04  -1.9763138e-05   6.0037633e-05   1.3886065e-04   5.4413773e-05   2.9296789e-05  -1.1342965e-04   1.8805877e-05   2.5326712e-04  -3.0813011e-04   5.1150204e-05  -3.5517145e-04   3.8900043e-04  -4.8423426e-05   1.0236729e-04   2.8029770e-06  -1.6201886e-06   1.3404580e-04   3.6144382e-05   5.6075165e-04  -1.3066329e-04   1.2413785e-04   1.9552406e-04  -5.2065909e-05   1.1227753e-02   3.5698598e-03  -3.2270234e-03   1.8706183e-04   4.2105190e-04   1.6322172e-05   1.1947972e-04
   2.8831195e-04   1.5191908e-04   1.3406163e-04   1.2580465e-04   1.1605860e-04   1.5863367e-04   2.1513640e-04  -4.4442909e-06   5.3460122e-04   1.5546866e-04   3.6233154e-04   1.5935367e-04   8.6143205e-05   6.3595362e-05  -3.0382149e-05  -1.2603897e-04   3.2268272e-06  -1.2395532e-04   7.3705957e-04   2.1251345e-04  -7.5160497e-06   7.7240147e-05   1.8672417e-04   4.5451838e-05   9.7877135e-05  -1.0025544e-04   3.7408041e-05   8.4095169e-05   1.8994587e-04   4.0761021e-05  -2.4249614e-04  -3.3453782e-04  -9.8990949e-06  -1.5858929e-04  -5.0237955e-05   5.1533792e-04   3.5969165e-04   1.0047263e-04  -1.3742324e-04  -1.5124223e-03   3.2752939e-04   2.0240252e-04   2.5796113e-04   5.4787444e-03   2.2525007e-03   3.0701556e-03   2.6111203e-04   4.1871835e-04  -3.0894126e-04   1.3075465e-04
   2.8447586e-04   1.5848757e-04   1.3192960e-04   1.2438043e-04   1.0591295e-04   1.7226776e-04   8.4249012e-05  -4.3583746e-05   5.6110235e-04   3.3537712e-04   4.4364619e-04   2.9618744e-04   2.0832446e-04   4.8361409e-05  -3.1365253e-04  -1.3718884e-06   3.4339093e-05   1.2460989e-05   2.3930045e-04   1.8613864e-04  -1.5390169e-06   7.5369877e-05   1.4477184e-04   6.5824228e-05  -2.1561060e-05  -1.2310724e-04   1.6768907e-04   1.2093336e-04   3.7775934e-04   4.1222524e-05  -3.2210650e-04  -1.1028982e-04   3.3808197e-04  -5.4994290e-04  -9.5397809e-05  -2.5414734e-04  -1.5808809e-04   3.8636554e-05   3.6143322e-04   7.1257632e-04   1.7819459e-04   2.0048479e-04   4.8260071e-04   9.3364352e-03   5.4584490e-04  -2.6653690e-05   2.4968176e-04   3.1711266e-04  -2.3059716e-04   1.0358994e-04
   2.9167242e-04   1.5953757e-04   1.3341714e-04   1.2676009e-04   9.9949364e-05   1.6358259e-04   1.8868184e-05   6.6712571e-05   6.5337686e-04   2.5944522e-04   4.0986593e-04   2.4638849e-04   1.5137016e-04   1.5385520e-04  -6.2158006e-06   2.5173737e-04   2.9016672e-05  -8.9868918e-05  -2.1154978e-04   1.9883974e-04  -6.6875659e-06   5.2752323e-05   2.7201863e-04   2.7645710e-05  -1.3722475e-04  -6.8883252e-05  -1.6417378e-04   1.2058148e-04   3.7332813e-04   4.7829144e-05  -1.6234409e-04  -1.6991592e-04   1.8120036e-05  -5.6785921e-04  -1.4580546e-04   4.4826089e-04  -6.8611139e-04  -1.7927025e-05  -8.4292878e-05   4.9295621e-03   3.4563668e-04   1.6860671e-04   2.8482871e-04  -9.7401589e-03  -8.2591585e-05  -5.1814283e-04   1.9029973e-04   3.0015814e-04  -1.2243012e-04   9.6654898e-05
   2.9888569e-04   1.5535160e-04   1.3833755e-04   1.1962299e-04   1.0401165e-04   1.5967558e-04   8.1339742e-05   1.3684164e-04   4.9377891e-04   1.7772682e-04   3.6272619e-04   1.9058942e-04   1.6709515e-04   7.8186356e-05  -2.3604083e-04  -6.2806888e-05   2.6218648e-05   6.4847947e-05  -9.6702963e-05   1.9624137e-04  -8.9065279e-06   1.0026627e-04   1.9965331e-04   4.9243878e-05  -2.4073492e-04  -1.1054373e-04   1.0859429e-04  -8.5185689e-05   7.7803235e-04   2.3745986e-05  -2.0350549e-04   9.6882095e-06   9.8514312e-05  -4.4020390e-04   2.4597037e-05   1.6528164e-04  -4.9753109e-04   4.0460041e-06  -5.1081664e-04  -4.3114489e-03   1.0730018e-04   1.7755486e-04   2.6512411e-04  -8.7033268e-03   6.3368212e-03  -7.7965111e-03   2.8417501e-04   2.5626880e-04   1.0144050e-04   3.6732646e-04
   2.9824110e-04   1.5954793e-04   1.3673738e-04   1.1806346e-04   9.7095297e-05   1.4609237e-04   2.3697901e-05   1.4652216e-04   5.3764926e-04   3.4253651e-04   4.5227635e-04   3.1432023e-04   7.6301112e-05   6.6535293e-05  -5.8333688e-05   1.9375201e-04   1.1517655e-05  -6.9584770e-05   4.2922303e-04   1.8214215e-04   9.5473579e-06   5.4947948e-05   1.4467667e-04   7.5665241e-07   1.7417829e-05  -1.3240366e-04   2.7612026e-04   1.9746566e-04  -6.4394939e-05   4.2147043e-05  -6.0512510e-05  -7.1841801e-05   1.6736287e-04  -3.1353004e-04   5.5385066e-05  -1.6102320e-04  -8.0286042e-04  -1.4379548e-06   4.8685957e-05  -7.9736795e-04   1.0406762e-04   2.1052088e-04   1.2561525e-04   2.2404008e-02  -7.9850061e-04  -5.4257237e-03   2.1376777e-04   3.5680851e-04  -1.9863150e-04   3.1259315e-04
   2.8643955e-04   1.6069310e-04   1.2509331e-04   1.1484920e-04   9.1797163e-05   1.0201179e-04   1.6112781e-04   1.8319895e-04   6.1108399e-04   3.1890359e-04   4.2028408e-04   2.8595075e-04   3.8642840e-05   6.0401439e-06   3.2249001e-05  -1.6816422e-04   4.5861798e-05  -1.0666720e-04   4.5291608e-04   1.6755177e-04   1.2953612e-05   7.3352632e-05   1.1309681e-04   5.0430197e-05  -1.8933145e-04  -1.9598677e-04   3.3844382e-04   1.7503672e-04  -5.8276510e-05   6.6760094e-06  -1.3909365e-04  -2.5304870e-04   4.9177837e-05  -2.3780910e-04  -5.6118592e-05   1.1671383e-04   2.4958031e-04   4.5060369e-06   3.1259871e-04   2.8319876e-03   2.7195161e-04   1.9294537e-04   7.5549477e-05  -2.3224403e-03  -5.9497142e-03   2.6017745e-04   1.9022786e-04   3.9053822e-04   4.7934747e-05   7.9497957e-05
   2.8711357e-04   1.5839488e-04   1.2286165e-04   1.0973046e-04   9.4642244e-05   1.4715105e-04   2.1567740e-04   5.6710545e-05   5.0597772e-04   2.5001046e-04   3.7802974e-04   2.2984609e-04   7.3382682e-05   4.4142798e-06  -4.0092133e-04  -1.9284606e-04   3.1536885e-05   3.0223535e-05   1.5221427e-04   1.5461350e-04   1.3956255e-05   1.0553903e-04   1.1107943e-04   2.6585699e-06  -9.8251840e-05  -2.1340264e-04  -1.7883009e-04   2.2656447e-04  -3.7567812e-04   3.2095355e-05   3.2807475e-06   4.8849201e-05   8.5275613e-05  -1.6701919e-04  -1.9240072e-04   7.1493734e-05  -3.6809666e-04  -5.5585053e-05   4.5583630e-04  -2.8082246e-03   2.1231119e-04   1.6351075e-04   2.0587229e-04   1.7021765e-03  -1.1083853e-04   8.4442392e-05   2.2356195e-04   1.9829800e-04   1.9916332e-04   2.8401212e-04
   2.9822503e-04   1.5837970e-04   1.2794696e-04   1.1306063e-04   9.5892792e-05   1.7183261e-04   1.0429707e-04   1.2191954e-04   4.4016234e-04   3.8425639e-04   4.4260826e-04   3.3632401e-04   7.5016447e-05  -5.9987804e-05  -1.5147202e-04  -1.0863214e-04   3.3428492e-05  -5.8074933e-05   2.2501033e-04   1.7502946e-04   2.6895790e-05   9.9540775e-05   1.8196223e-04   3.4090575e-05  -1.2896147e-04  -2.2316253e-04  -1.2165086e-05   3.4771358e-05   4.2742139e-04   1.3847080e-05  -1.2917312e-04  -1.5095988e-04   2.7400994e-04  -2.4035388e-04  -2.9790455e-05  -3.4714793e-04  -6.6098268e-04  -5.3753898e-05  -1.8461580e-05   5.5128522e-03   1.4334418e-04   2.2766506e-04   2.3024157e-04  -2.3273246e-03   8.3846180e-03  -2.4131273e-03   2.9316673e-04   4.2682607e-04   6.9281377e-05  -3.5483547e-05
   2.6926771e-04   1.6064466e-04   1.1345880e-04   1.0714919e-04   8.0713253e-05   1.5199975e-04   1.1313781e-05  -7.9927078e-05   5.7589164e-04   3.4962181e-04   4.2448749e-04   3.1234484e-04   9.2980299e-05   1.3077581e-04   2.1394130e-04   1.7946582e-04   4.0356608e-05  -6.4214881e-05   2.2501510e-04   1.8611473e-04   2.7598413e-05   9.0104870e-05   1.3711053e-04   5.8335423e-05   6.1195831e-05  -1.8976798e-04   2.1344067e-04   9.7614189e-05  -4.5720610e-04   3.2652228e-05  -1.1000034e-04  -5.3161680e-04   5.7548468e-06  -3.4304205e-04   5.4898865e-05   4.6360143e-04   2.8719036e-05  -1.1391135e-05  -3.4064142e-04   1.0850097e-05   7.6618504e-05   1.9183703e-04   4.7024241e-05   4.5351293e-03   3.3298759e-03  -1.7225140e-04   2.2611007e-04   2.3682074e-04   3.6982838e-05   1.7967445e-04
   2.7076091e-04   1.5851994e-04   1.0978610e-04   1.0383428e-04   7.3684241e-05   7.9576836e-05   1.1189672e-04  -7.9846483e-05   4.3142226e-04   2.8430755e-04   3.7455687e-04   2.4221119e-04   1.4371610e-04   5.2476069e-05  -1.7232379e-04  -2.7965532e-05   8.0514201e-06  -8.0336649e-05   3.2259026e-04   1.6132029e-04   2.6328842e-05   7.3754250e-05   1.3943342e-04   2.9676314e-06   1.1486839e-04  -2.3068415e-04  -7.0476308e-05  -4.1380267e-06   5.5292132e-04   2.7664217e-05  -4.1739782e-05  -1.3898824e-04   1.6104295e-05  -1.0071676e-04  -8.1840139e-05  -2.2011793e-04  -1.5440191e-05  -3.9480958e-05   2.8218213e-04   1.8116979e-02   6.9564419e-05   1.9331402e-04   1.9670834e-04   1.5198019e-02   2.1379164e-03   1.5978725e-03   3.0230160e-04   3.4820053e-04  -2.8516421e-05   3.6150709e-04
   2.7793899e-04   1.5256886e-04   1.1199786e-04   1.0227290e-04   8.2180079e-05   1.5315744e-04  -6.9844042e-05  -1.5589965e-05   5.5858283e-04   4.0798279e-04   4.0922567e-04   3.3683973e-04  -9.4366544e-05   9.2901588e-05  -1.0461749e-04   1.3847392e-04   7.2134799e-06  -1.9549030e-04   1.3436815e-04   1.5599807e-04   4.0280283e-05   1.1239255e-04   2.2489695e-04   3.9389237e-05   2.4253527e-04  -2.5680379e-04   4.2543626e-05   2.9977213e-04   6.2895555e-04   1.8408033e-05  -8.8543471e-05  -4.7583366e-05   4.1058814e-04  -5.4786587e-04  -6.0168677e-05  -2.5318039e-04  -9.5300558e-05  -3.6721096e-05   1.1665506e-04  -2.0819223e-03   2.1811217e-04   2.6240345e-04   1.8785994e-04  -6.5041315e-03  -5.5550970e-03   1.0975715e-04   2.3454268e-04   2.5102103e-04   6.7570290e-05   2.1207267e-04
   2.6143220e-04   1.5592719e-04   9.4085808e-05   1.0890140e-04   7.0600494e-05   9.4162519e-05  -2.7661867e-05  -1.9334384e-05   3.5066312e-04   3.8938015e-04   4.3251872e-04   3.1347791e-04   2.3317232e-05  -9.3998147e-05  -1.6133387e-04   3.4868019e-05  -4.4875910e-06  -1.4274362e-04   2.3536522e-04   1.8130921e-04   3.9359202e-05   1.4761675e-04   1.0731552e-04   1.5754253e-05   1.1123178e-05  -2.6247124e-04   1.4932168e-04   3.9329714e-04   6.2742870e-04   2.5585819e-05  -1.3690976e-04  -3.2046504e-04   1.7616336e-05  -6.9956045e-04  -2.6439357e-04  -2.7615422e-06  -1.9242753e-04   2.9237357e-05   3.4689446e-04  -3.1293111e-03   4.0717464e-04   2.0932331e-04   2.9546130e-04  -9.2572840e-03  -3.5917575e-03  -5.3993636e-03   2.2916925e-04   2.3676432e-04   6.6743516e-05   2.5938588e-04
   2.5644747e-04   1.5253296e-04   9.4744195e-05   9.9081088e-05   6.6829169e-05   1.1575478e-04   1.1463242e-05   6.2571976e-06   4.2374886e-04   3.0861163e-04   3.7969428e-04   2.5650518e-04  -5.0173574e-05   9.7606702e-05  -3.5161772e-04  -2.0373175e-04   1.5595706e-05  -1.3245712e-04   3.4895647e-04   1.8235945e-04   3.7525704e-05   1.2138439e-04   1.3390578e-04   2.2833354e-05  -1.3393094e-04  -2.2715879e-04   2.0941344e-04   2.7815349e-04   9.6532324e-04   2.1793492e-05  -1.7509224e-04   5.4152315e-05   7.7910008e-05  -6.2180060e-04  -1.4175908e-04  -1.4459243e-04   5.5372430e-04   3.6020705e-05  -3.0275964e-04  -3.9550802e-03   3.0271555e-04   1.6029362e-04   9.0728012e-05   1.7000972e-03   1.5428463e-02  -6.9840276e-03   2.1143576e-04   4.3338415e-04   1.1230955e-04   1.8972257e-04
   2.5050729e-04   1.4911318e-04   9.6427430e-05   9.8374825e-05   6.2814601e-05   8.3262377e-05   1.4403826e-05   1.8748929e-04   4.5782814e-04   2.1731487e-04   3.3591341e-04   1.8286724e-04   1.7201966e-04   5.8843120e-06  -7.4199612e-05   2.0886750e-04  -7.9965866e-07  -1.6360258e-04   1.5394948e-04   1.4800120e-04   4.2495478e-05   1.0276261e-04   1.2945480e-04   8.2146971e-06   2.7798613e-05  -2.0367607e-04  -2.1684580e-04  -1.3499590e-05  -2.0180017e-04   5.6370300e-05  -2.8277686e-04   7.0427624e-05   1.4594357e-04  -2.8783836e-05  -1.9310164e-05   1.2133399e-04  -1.4639371e-04   7.9310948e-06   8.4392868e-06  -3.7373363e-03   1.1775642e-04   1.8563628e-04   1.9849703e-04  -1.2326266e-03  -4.0096237e-04   2.4029297e-05   3.3825650e-04   2.2907621e-04   1.3481233e-04   2.9572309e-04
   2.4480242e-04   1.4904981e-04   8.9723741e-05   1.0148733e-04   5.6816712e-05   1.1109725e-04   5.5499313e-05  -1.2560374e-04   6.6999893e-04   3.8633295e-04   4.3888020e-04   3.2037025e-04  -2.5383086e-05   3.8846494e-05   4.5197568e-05   3.1493080e-05   3.0588257e-05  -1.9827101e-04   2.1741593e-04   1.5789534e-04   4.9106078e-05   1.5401149e-04   1.2146633e-04   7.0767715e-06   1.8900108e-05  -2.5322280e-04   2.2066649e-04   2.8531282e-04   2.2139359e-04  -3.7497027e-06   3.2900149e-05  -9.5444113e-05  -1.2141445e-04  -6.0282543e-04  -1.3546420e-04  -1.4168240e-06  -1.6648826e-04  -4.2097272e-06  -1.2747990e-04   2.2324291e-05   3.8150782e-04   2.1004258e-04   1.7505403e-04  -5.6273392e-03   1.2819646e-03   5.2229187e-04   3.8181391e-04   4.2605752e-04   7.1012793e-05  -3.9378433e-06
   2.3519405e-04   1.5136653e-04   7.9587808e-05   9.5944080e-05   4.4068252e-05   1.2673858e-04  -1.4465967e-04  -3.9074621e-05   4.3782499e-04   3.2080628e-04   3.6634321e-04   2.5002260e-04   6.8558351e-05   4.5633064e-05  -7.8391868e-06  -1.2856476e-04   2.2696700e-05  -1.0808605e-04   2.2501561e-04   1.8618371e-04   4.7745543e-05   1.7811618e-04   1.5057089e-04   2.1155331e-05   1.5829803e-04  -2.5095986e-04  -1.4140847e-04   1.3005624e-04  -6.3804211e-04  -7.5289699e-06  -1.0909456e-04   2.3436387e-05   7.3708557e-05  -9.0048794e-04  -2.4627274e-04  -2.2019053e-04  -3.2276683e-04   4.9519262e-05  -6.0464704e-04   2.3447888e-03   1.6087809e-04   2.2716633e-04   3.7392776e-04   1.0218618e-02   8.0806215e-04   4.6191686e-03   2.2643054e-04   4.5874776e-04   2.4836952e-05   1.1886495e-04
   2.3589186e-04   1.4465426e-04   8.4386120e-05   9.2312781e-05   5.3526273e-05   7.3659343e-05   4.6985737e-05  -4.9036662e-06   4.5198141e-04   2.4635566e-04   3.4839034e-04   2.0110118e-04   3.8727690e-06   2.4748142e-06  -1.9028661e-04  -3.3186621e-05  -2.5209911e-05  -1.1462807e-04   3.9932915e-04   1.5877841e-04   4.0054409e-05   1.5202946e-04   1.2993971e-04   5.3109479e-06   6.8834750e-05  -2.8185110e-04   7.4217874e-05  -4.6808409e-04   3.6937548e-04   2.4757976e-06  -1.2659621e-04  -2.7950949e-04  -3.7973303e-05  -2.6093275e-04  -1.8180114e-04  -2.7489355e-05   2.1283036e-04  -2.3128734e-06   3.5816367e-04  -3.8015537e-03   4.9790228e-04   2.0463747e-04   1.5139706e-04  -4.8233191e-03   7.9817168e-04  -1.2057214e-03   2.9136406e-04   3.5593534e-04   3.3406228e-05   9.6988522e-05
   2.4728183e-04   1.4489985e-04   9.1999100e-05   1.0862380e-04   6.5583830e-05   7.5459568e-05  -7.4338936e-06   1.0188707e-05   4.7058248e-04   3.8414175e-04   3.8892595e-04   3.1233198e-04   6.2284089e-05   1.8277270e-04   2.7628295e-04  -2.5989159e-04   1.3999236e-05  -7.9558318e-05   2.4623622e-04   1.5937511e-04   4.9060978e-05   1.6299810e-04   3.2411655e-05   1.9650162e-05   2.5098276e-04  -3.4584358e-04   2.6276431e-04   3.4252764e-04   1.3357883e-04   1.0872701e-05  -9.0516565e-05  -2.0189246e-04   3.3781296e-05  -4.1052245e-04  -1.4072693e-04  -9.7932534e-05  -2.1424619e-04   3.1930663e-06   1.6602386e-04  -1.9267066e-03  -2.6421557e-04   2.4940795e-04  -1.7579106e-04  -1.4629914e-02  -6.7698908e-05   5.9652221e-03   3.1468368e-04   3.0061556e-04   1.9166839e-05  -1.3126172e-04
   2.2062534e-04   1.4536420e-04   7.5032745e-05   1.0244499e-04   4.4257107e-05   4.1474832e-05   9.4605726e-05  -1.2465267e-05   5.1392632e-04   3.4613075e-04   3.9062806e-04   2.8127432e-04   3.7503862e-05  -1.4933365e-05  -2.5059847e-04  -7.1466107e-05   1.8649051e-05  -4.6873713e-05   3.6829288e-04   1.9536261e-04   4.8028131e-05   1.8058460e-04   1.2965548e-04  -4.9890496e-06  -3.2745168e-04  -2.9508342e-04  -2.2329178e-04   2.5392216e-04  -9.0514382e-05   7.5256924e-07  -2.5468842e-05  -3.9753880e-04   1.4530707e-04  -4.5333657e-04  -1.3727848e-04   1.8154336e-04   9.0671114e-05  -4.0801839e-05  -3.4630854e-04  -2.7822719e-03   2.6681108e-04   1.6624964e-04  -6.3127321e-05  -3.8125080e-03  -2.3383345e-03   2.1150736e-03   2.8530639e-04   1.8899734e-04   2.5107368e-04   1.8810089e-04
   2.2084774e-04   1.4433794e-04   7.9228936e-05   9.0873051e-05   4.1167383e-05   3.1484964e-05  -4.4020428e-05   1.4450066e-04   5.2384177e-04   2.6179111e-04   3.5734149e-04   2.1158294e-04   6.8134861e-05   9.3202070e-05  -3.0415127e-04   9.1974041e-05   5.7656048e-06  -1.2284360e-04   3.9979798e-04   1.8640980e-04   4.3082473e-05   1.6140153e-04   9.6515461e-05  -2.7720591e-06   8.5497893e-05  -2.9325503e-04   1.7482114e-04   1.6375461e-04   2.1142792e-04  -2.5254070e-05   1.5246123e-04  -4.3444740e-04  -1.0372741e-04  -1.0428856e-04  -7.8499725e-05  -2.9897390e-04   9.1963084e-05  -1.9479598e-05   8.7145215e-04  -4.2246720e-03   4.3384105e-04   1.9702403e-04   2.7693753e-04  -5.1719882e-03  -2.4158135e-03  -3.1431313e-03   2.1103246e-04   3.1533639e-04   3.7449510e-05   2.8213370e-04
   2.3227265e-04   1.3835538e-04   8.7685388e-05   1.0297865e-04   6.9002279e-05   4.2043299e-05  -3.4878263e-05   2.1863154e-05   3.7267758e-04   3.3287657e-04   3.6315279e-04   2.6939600e-04   9.7878255e-05  -1.3972501e-06   1.0034617e-04   7.0808070e-05   6.2795507e-06  -9.5926771e-05   1.1282721e-04   1.7742642e-04   5.2201849e-05   1.3579978e-04   6.6861823e-05   2.6516098e-05   3.3968738e-06  -2.5065508e-04  -2.9163368e-04   1.3076437e-05  -5.4799404e-04  -9.5138848e-06   6.7849622e-05  -2.4661425e-04   1.3054002e-04  -4.0728832e-04  -1.5648408e-04  -5.3825785e-05   1.5581910e-04  -3.6609570e-05   7.8603375e-04  -2.7113601e-03   1.5167720e-04   2.3210110e-04   1.9960385e-04   3.9386444e-02   3.9206850e-03   8.6758425e-04   2.6010000e-04   3.2206374e-04   2.3263014e-05  -2.5392517e-06
   2.1831412e-04   1.4638017e-04   8.3308762e-05   1.0417638e-04   3.6111982e-05   6.3993975e-05  -2.5951875e-05   2.9619188e-05   5.1703397e-04   3.2046417e-04   3.8479781e-04   2.6435763e-04   5.7145589e-05   7.6301083e-05  -2.7195059e-04   3.1455897e-04  -1.0827107e-05  -1.0720865e-04   1.9117184e-04   1.6954556e-04   5.1086059e-05   1.6109104e-04   1.2722108e-04   2.9802382e-05  -1.4219389e-04  -2.0819310e-04  -1.4776867e-04  -1.1446002e-05   2.5204560e-04  -1.3075061e-05   9.1329275e-05  -2.0836759e-04  -7.1662871e-05  -4.1884030e-04  -2.8167092e-04   1.6735484e-04   3.9214685e-04   2.2954937e-05  -1.5885370e-04  -2.4262806e-03   4.7691402e-04   1.9740587e-04   1.2106614e-04   9.7199148e-03   2.7692185e-03   6.7625581e-03   2.3059598e-04   1.8702690e-04   1.2717773e-04  -2.8700886e-05
   2.1433666e-04   1.4144451e-04   8.3212079e-05   1.0004840e-04   3.5288067e-05   5.5592762e-05  -4.6014160e-05  -4.0980412e-05   4.4002378e-04   2.3507046e-04   3.3013447e-04   1.9497820e-04   5.4675238e-05   1.6494298e-04  -5.0221824e-05  -1.9454262e-04  -7.2310090e-06  -1.3363243e-04  -1.1042011e-04   2.0479049e-04   4.1498275e-05   1.2827771e-04   1.4876961e-04  -8.8504376e-06   9.9549252e-05  -1.8170042e-04   2.8874629e-04   2.5552587e-04  -4.4633858e-04   9.4217949e-06   5.9249756e-05  -2.8232596e-04   6.1835090e-05  -4.5965597e-04  -5.3515221e-05  -5.1001395e-04  -3.0306343e-04   1.0302192e-05  -8.3541607e-05   3.1838086e-03  -4.4619588e-05   2.0022318e-04   1.2075644e-04  -5.9361160e-03  -5.8052195e-03  -4.1697547e-03   2.7105256e-04   2.6720107e-04   1.4319835e-04   1.0902544e-04
   2.1754640e-04   1.3959272e-04   8.9682202e-05   9.8914163e-05   4.4226384e-05   7.8458506e-05  -2.5208630e-05   2.7618084e-05   5.2488106e-04   1.4111366e-04   2.8052117e-04   1.3304623e-04   6.4280786e-05   1.3102659e-04  -1.1472721e-04   4.7482212e-05  -3.7561265e-05  -1.1468508e-04   2.1727395e-04   2.0477020e-04   3.9550727e-05   1.2963716e-04   5.9685117e-05  -1.7732547e-05   1.0779605e-04  -1.5599774e-04  -2.1150852e-07   1.5295354e-04   1.5322400e-04   1.4623683e-05   1.1284304e-04   1.1903944e-04   3.5269270e-04  -3.3557185e-04  -2.7793780e-04  -2.9919657e-04  -9.5731550e-05   2.3039585e-05  -7.4474869e-05   6.9360910e-03   1.2118525e-04   1.8512603e-04   7.4589705e-05  -4.2978022e-03  -3.0405594e-03   6.8552485e-03   2.5166853e-04   3.1153750e-04   3.1324409e-04   3.1787480e-05
   2.1498097e-04   1.3926260e-04   9.3379524e-05   1.0142160e-04   4.3857071e-05   1.1802296e-04  -3.5485456e-05  -8.2378931e-05   3.7735284e-04   3.3194327e-04   3.5078134e-04   2.7506615e-04   4.1139876e-05   1.5597634e-05  -3.3665574e-04   9.2668772e-05  -5.8553046e-06  -4.7892634e-05   1.2225131e-04   1.9635020e-04   4.9662714e-05   1.4987170e-04   1.6177597e-04  -5.2211280e-06   1.9883439e-04  -1.7713997e-04  -1.5023004e-04  -5.0021303e-05  -9.8372202e-06  -1.1850393e-05   1.5611958e-04  -1.3829608e-04   9.9229597e-05  -7.2190746e-06  -1.2271406e-04  -1.0864565e-04  -3.9721752e-04   5.9211205e-05   3.9051368e-04   1.8646769e-03   5.6229433e-04   1.6195526e-04   2.8858343e-04   2.4547221e-04   2.7056320e-03  -9.0323035e-03   1.9729012e-04   3.3984924e-04   2.3150936e-04   7.2908835e-05
   1.9789883e-04   1.3785860e-04   8.7734254e-05   1.0369720e-04   3.5146470e-05   3.8911799e-05  -8.4621359e-05   5.5228116e-05   4.5212283e-04   2.6299109e-04   3.3976574e-04   2.0706464e-04  -4.9561888e-05  -5.4277618e-05  -2.2577184e-04  -2.3583976e-05   1.2800897e-05  -5.8416623e-05   5.5406074e-04   2.1969223e-04   4.7238260e-05   1.3519323e-04   1.6212864e-04   2.5162768e-05  -4.2158740e-06  -1.5041481e-04  -2.0270581e-05  -3.4804561e-05   5.1301660e-04   1.7566992e-05   1.3013937e-05   2.2920418e-04   1.1928064e-04  -3.6707515e-04  -7.9251249e-06  -2.8195261e-04  -5.8855349e-04   2.8828286e-05   9.4852163e-05   2.2789873e-02   4.4831989e-04   1.3026195e-04   3.1449905e-04   8.0573298e-03  -8.8876337e-03   3.0876605e-03   2.0696611e-04   1.5772246e-04   1.6240304e-04  -2.5309962e-05
   2.0097556e-04   1.3237043e-04   9.2055758e-05   1.0407118e-04   4.1698837e-05   5.0341790e-05  -2.5151228e-05  -1.5688506e-04   2.5846038e-04   1.6261940e-04   2.5855229e-04   1.4376902e-04   7.3628122e-05   1.7662079e-04  -8.3093219e-05   2.5336235e-04  -2.0810454e-05  -4.2369877e-05   1.3675222e-04   1.8061399e-04   4.5965575e-05   1.2828734e-04   7.4746597e-05   1.5506832e-05   1.4020553e-04  -1.5892742e-04   2.3956058e-04  -1.8413302e-05   4.7593931e-04  -2.5193336e-05  -2.5769918e-05  -4.5316335e-04   1.6778274e-04  -7.7093404e-04  -3.0497165e-04  -2.8405507e-04  -1.2363747e-04   2.3165352e-05  -4.5938490e-05  -7.0414725e-03   9.5595569e-05   8.6627893e-05   9.4955365e-05   5.6545865e-03  -4.6796557e-03  -1.1446737e-03   2.5881027e-04   1.6849562e-04   5.4044544e-05   2.7885762e-04
   2.1579964e-04   1.2803469e-04   1.0332430e-04   1.0350803e-04   5.7677073e-05   1.1670984e-04   4.4483884e-05   2.5442656e-05   3.6139003e-04   2.9632371e-04   3.2070931e-04   2.3745991e-04  -1.1501295e-05   3.2092408e-05  -4.4173739e-05   6.0905245e-06  -1.1992228e-05  -8.2812248e-06  -6.5486864e-05   1.9200159e-04   5.7640158e-05   1.2104781e-04  -1.5686754e-05   1.7988074e-06  -2.1100420e-04  -1.8235750e-04  -2.7764571e-04   2.3750332e-04   7.4588333e-04  -1.0951825e-05  -2.0451892e-04   3.4321401e-05  -5.6866320e-05  -3.6577808e-04  -6.8558635e-05  -4.0914738e-04  -6.6508021e-04   1.7055236e-05  -1.4654214e-04  -2.6646573e-03   4.1662256e-04   1.6814658e-04   7.3460251e-05   2.5400845e-02  -2.7846170e-03  -3.8826563e-03   3.1319523e-04   6.5913751e-05   2.8719867e-04  -6.0559196e-05
   1.8942698e-04   1.3195552e-04   8.7699787e-05   1.0784203e-04   2.7806202e-05   3.1182608e-05  -6.9524074e-05  -1.7280225e-04   3.8098221e-04   2.7708718e-04   3.3073290e-04   2.2200956e-04  -4.9714181e-05   3.3961154e-05  -3.5073381e-04  -1.3804690e-04  -6.8797672e-06  -1.5861854e-04   1.7425301e-04   2.1716782e-04   5.4713673e-05   1.0793276e-04   1.4744915e-05  -1.6136644e-05  -1.1002379e-04  -1.8953797e-04  -1.1429583e-04   5.9624857e-05  -1.3250487e-04  -1.0322092e-05  -1.1875002e-04  -1.5637744e-04   1.8792103e-04  -7.1234693e-04  -1.3809493e-04  -1.7991461e-04   3.3471003e-04  -2.8252125e-05   4.2066132e-04   1.6647163e-03   2.7458605e-04   1.7976273e-04   2.5646421e-04   1.8403485e-03  -5.7329736e-03   1.6800639e-03   2.4813562e-04   8.5641594e-05  -3.9567447e-05   1.6144213e-04
   1.8522589e-04   1.2818078e-04   8.7480425e-05   9.2693241e-05   3.2675638e-05   1.4391491e-04   3.3961911e-05  -9.6409509e-05   3.7835803e-04   1.8536548e-04   2.9898513e-04   1.7248643e-04   2.8031687e-05   8.0899998e-05  -5.6959427e-05  -2.8103756e-05  -1.9242709e-06  -1.1035322e-04   5.2331702e-04   1.9393413e-04   5.0974602e-05   9.8105193e-05   9.1467092e-07  -1.7689828e-05   2.5026151e-05  -1.6726545e-04  -1.7519124e-04   7.7863624e-05   5.4138253e-04  -1.4218673e-05   6.4742694e-06  -6.4363173e-04  -7.1764589e-05  -4.4244327e-04  -1.3953751e-04  -6.8621949e-04   2.0295121e-05  -1.2489436e-05   3.8190201e-04   3.2519391e-03   2.0623469e-04   1.0919217e-04   1.6846841e-04  -4.5396504e-04   1.1896222e-02  -4.5028343e-03   1.7017922e-04   2.8214601e-04   1.6367505e-04   1.5508903e-04
   1.8870058e-04   1.2368940e-04   8.8312918e-05   9.4547417e-05   3.9759274e-05   4.0373598e-05  -1.2313190e-04  -1.2662381e-04   4.0005165e-04   9.9624740e-05   2.3494664e-04   1.0283149e-04  -7.0692200e-05   1.3335441e-04  -3.0348677e-04   1.3865207e-05   1.4169916e-05  -5.2546151e-05  -1.6591939e-05   1.9754542e-04   5.4714572e-05   1.3182935e-04   9.4861920e-05  -3.3443717e-05  -2.4157249e-04  -1.5783228e-04   2.0120284e-04   7.9216661e-05   1.5570829e-04   2.2391732e-05  -4.5091674e-05  -1.5762066e-04   2.7422505e-04  -3.8062665e-04  -1.4018534e-04  -1.3985853e-05  -6.1122191e-05   2.4646524e-05  -3.5178041e-04  -5.3725610e-03  -2.3986322e-04   1.6147681e-04  -2.3978135e-05  -7.5669014e-03   3.3145136e-04  -1.2097657e-03   3.4224839e-04   3.3851704e-04   3.2237396e-04   9.3173832e-05
   1.9359001e-04   1.2573459e-04   8.7880660e-05   1.0321483e-04   4.4524790e-05   8.5051048e-05   8.9952220e-05   1.4600168e-04   4.2297947e-04   2.8267116e-04   2.9051385e-04   2.3222090e-04  -3.1318083e-07   1.0269310e-04   6.0910694e-05  -6.0162918e-05   1.5810811e-06  -3.9610248e-05   5.2351609e-04   1.8777230e-04   6.5383181e-05   1.5365909e-04   8.3740131e-05   6.8791819e-06  -4.3296768e-05  -1.8242151e-04  -1.1453310e-04  -2.1140696e-04   4.0049737e-04  -2.4897963e-05  -1.2934692e-04  -1.9727387e-04   2.8106914e-04  -1.5699197e-04  -2.0213946e-04  -3.9079634e-04  -3.2848978e-04  -4.0130031e-05  -3.7811909e-04   8.1052836e-03   1.9358360e-04   1.5396423e-04   1.8997845e-04  -9.9934905e-04   5.7289633e-03  -4.5968434e-03   2.3960551e-04   1.3237998e-04   7.0867204e-06  -8.5658974e-07
   1.7955387e-04   1.2340325e-04   8.2779050e-05   9.7183532e-05   3.6635542e-05   2.8741892e-05   2.7445027e-05  -1.2437155e-04   3.8723045e-04   2.2185151e-04   2.6184396e-04   1.7570634e-04   6.9694579e-05   8.9494730e-05   1.2366113e-04  -4.3446544e-05   1.5348858e-05  -1.0291978e-04   1.3687230e-04   1.8526734e-04   5.6427205e-05   1.3623679e-04   3.5436591e-05   2.3112361e-05   1.1378340e-04  -2.3071977e-04  -6.5552435e-05   7.6736185e-05   4.5114936e-04   2.9277753e-06   1.0240807e-04  -4.7386746e-04  -6.8799643e-05  -3.4994027e-04  -1.7019759e-04  -4.9094906e-05   1.6739859e-05  -6.0682294e-05   4.1628885e-04   7.4148551e-04   1.1399896e-04   1.3740628e-04  -1.5496585e-04   1.8772991e-02   4.1403109e-04  -3.7338133e-03   2.5446908e-04   1.3331771e-04   1.0559700e-04  -1.4331225e-04
   1.8874581e-04   1.1948228e-04   9.0002955e-05   9.3704206e-05   3.1184361e-05   5.9535101e-05  -7.0331084e-06  -4.4556750e-06   2.9153496e-04   1.3984359e-04   2.2710799e-04   1.1767526e-04   6.6691478e-05   9.1797210e-06  -9.0901136e-05  -3.9363596e-05  -2.7024293e-05  -3.9732175e-05   5.9115046e-05   1.8779356e-04   5.4206310e-05   1.3353002e-04   7.8922594e-06   1.4392052e-05   9.2482529e-05  -1.8332600e-04   6.9345180e-05   5.8640879e-05  -6.3386769e-04  -9.0723497e-06  -1.3662869e-04  -5.3529174e-04   3.4638311e-04  -3.4596020e-04  -2.2124259e-04   2.3663380e-05  -3.8361883e-05   1.4538323e-05   1.1820850e-04  -4.1809101e-03   2.4875574e-04   1.5521410e-04   2.8761305e-04   7.5070239e-03  -2.1325068e-03   1.6961638e-03   3.1971114e-04   3.1934859e-04   1.6129161e-04   1.9070177e-04
   2.0254885e-04   1.2217411e-04   9.4576106e-05   8.8428220e-05   4.1005322e-05   3.5333389e-05  -9.7812437e-05  -1.1701225e-04   3.4444255e-04   3.0191906e-04   2.9641768e-04   2.3412233e-04   8.4965595e-06   5.2219049e-05  -1.7923396e-04   1.1960942e-04  -1.4628809e-05  -2.0022351e-05   2.3423812e-04   1.5887474e-04   6.5465909e-05   1.6540279e-04  -1.8850198e-05  -2.1410164e-05   1.8928686e-04  -2.1949111e-04   7.0010581e-05   1.5833952e-04  -1.4814061e-04   1.3280966e-05  -9.2996997e-05  -2.1300439e-04   1.4094097e-05  -5.0859893e-04  -1.6348787e-04  -3.5792694e-04  -5.5460044e-04   2.8343273e-05  -5.6780170e-04   3.9103851e-03  -2.8095260e-04   1.8967740e-04   2.6676405e-04   8.3686523e-03   1.6170317e-02  -4.3551917e-03   2.1156594e-04   1.9583496e-04   3.3086337e-04   1.8841069e-04
   1.7349306e-04   1.1729340e-04   8.2953826e-05   9.1309594e-05   2.9940689e-05   2.2521021e-05  -4.6493551e-05   1.1946043e-05   4.2834340e-04   2.4788425e-04   2.6013405e-04   1.8324275e-04  -8.6839696e-05  -2.9638282e-05   2.3104751e-04   1.8784473e-05  -2.4786266e-05  -1.0074678e-04   4.3052994e-04   1.7207657e-04   6.4539767e-05   1.7845833e-04   5.0257592e-07  -4.5795737e-06  -2.2693191e-06  -2.0398674e-04   1.1554871e-04   8.1583376e-06   2.7849813e-04   3.9779252e-07  -1.5656768e-04  -9.8269360e-05   8.6902815e-05  -8.8751302e-05  -3.5356596e-05  -5.4740056e-04  -7.7698896e-06   3.9077753e-05   3.5239299e-04  -2.1858410e-04   1.6175749e-04   1.3080354e-04   8.8945606e-05  -4.3778061e-03   1.2433047e-04  -4.1523937e-04   2.4489599e-04   2.1497809e-04   3.2463190e-04  -8.5778935e-05
   1.7707823e-04   1.1336533e-04   8.0712445e-05   8.2604813e-05   2.4838333e-05   9.4005873e-07   1.4772352e-06   3.0981518e-08   3.3941478e-04   1.6640528e-04   2.2383264e-04   1.2170448e-04  -3.0347073e-05   4.2373067e-05  -2.1942034e-04   1.4686783e-05  -2.5065365e-05  -3.4438261e-05   2.6699796e-05   1.7337120e-04   5.3281314e-05   1.8490735e-04  -1.1226001e-05   3.0248317e-05  -5.9569167e-05  -2.0863522e-04  -3.4185294e-05   2.5125718e-04  -6.3781910e-05   2.8052400e-06  -1.3908221e-04   5.7214947e-04   7.2870840e-05  -3.6464346e-05  -1.1141357e-04  -6.4737251e-05  -5.2717223e-04   6.8346344e-05   4.2656360e-05   1.8315212e-03   3.3328700e-04   1.5902796e-04   1.7174050e-04  -1.4896819e-03   2.0030502e-04  -3.8633743e-04   2.1689177e-04   1.3059782e-04   1.4087842e-04  -1.0613936e-05
   1.9158583e-04   1.0654335e-04   8.6133194e-05   8.7172317e-05   3.3413504e-05   4.3328371e-05  -7.4432166e-05   9.2589391e-05   3.2340494e-04   2.9300113e-04   2.5527828e-04   2.1454610e-04  -3.4248111e-05   1.9541130e-04   1.5213681e-04   1.7148010e-05  -1.6772330e-05  -5.3876887e-05   2.2753698e-04   1.6074901e-04   6.4630622e-05   1.4702915e-04   9.2569517e-06   9.2276841e-06  -1.2039677e-04  -2.3850618e-04  -7.9215330e-05   5.4243941e-05  -4.3768078e-04  -2.5413865e-06  -1.9388905e-04  -1.9321550e-04   2.1891957e-04  -3.0467138e-04  -1.2735560e-04  -6.0211448e-04  -3.3573198e-04  -5.4974724e-05  -4.0473399e-04   2.8989438e-03   6.2080668e-05   1.7568740e-04   4.0864514e-05   1.3335818e-02  -3.5409385e-03  -7.0496364e-03   2.9772008e-04   1.9956182e-04   1.6293551e-04   1.0504657e-04
   1.6194339e-04   1.1021330e-04   7.2234790e-05   9.0123052e-05   8.6891650e-06   4.9592531e-05   7.6764481e-05  -1.0285148e-04   2.7015759e-04   2.6481884e-04   2.8465179e-04   2.0698438e-04  -1.3510189e-04   2.0084162e-04  -7.7685596e-05  -4.4029206e-05  -1.9174324e-06  -1.6878362e-04   5.2069925e-04   1.6221717e-04   6.1256782e-05   1.5347231e-04   9.7227159e-05   1.5671172e-05  -1.0474696e-05  -2.2639244e-04   5.5915094e-05   7.9898498e-05   3.5383308e-04   1.5446861e-07  -2.8407291e-04  -2.7816283e-04   3.3433356e-05  -1.3847256e-04  -1.1888758e-04  -2.0986919e-05   5.7702936e-04  -2.7971175e-05   5.3238055e-05  -6.2426962e-03   3.9895345e-04   1.5655033e-04   8.4011765e-05   1.4335481e-02   1.9902503e-02   1.0816760e-03   2.1901637e-04   2.5938873e-04   1.1604499e-04   1.2285581e-04
   1.6082134e-04   1.0783628e-04   6.7378583e-05   7.5895732e-05   6.9381999e-06  -2.3728513e-05  -1.1684973e-04   4.4941971e-06   1.6483317e-04   1.6944324e-04   2.2963319e-04   1.3766305e-04  -1.1446103e-04   1.0187196e-04  -9.3315102e-05   4.5000802e-06  -5.8724909e-06  -1.4077421e-04   1.2941347e-04   1.6217568e-04   6.2669169e-05   1.4267850e-04   1.2106189e-05  -1.3410620e-05   8.5160958e-05  -1.9125342e-04  -9.8138793e-05  -2.4507393e-04  -1.7090928e-04   1.6598575e-06  -3.4103278e-04  -2.4241244e-04   1.3971300e-04  -1.2613973e-04   1.4957501e-05  -7.4763846e-04  -5.2923104e-04  -2.9883673e-05   1.0869082e-04   2.2461917e-03  -7.4284595e-05   9.4535710e-05   1.1517399e-04   2.8096761e-03   2.0112402e-03   6.3355537e-03   2.8578361e-04   1.6121495e-04   2.8340443e-04   1.5597137e-04
   1.6351916e-04   1.0405800e-04   6.9745678e-05   7.0039496e-05   5.0542781e-06  -5.4960365e-06  -4.9914788e-06  -2.0154947e-04   2.0409694e-04   7.7343211e-05   1.7775405e-04   8.5248430e-05  -1.3647151e-04   5.8808579e-05   9.7174401e-05   5.8587819e-05  -3.3427095e-05  -1.5169158e-04   3.7416481e-04   1.4288936e-04   6.1348568e-05   1.3364281e-04  -7.7674429e-07  -6.7927140e-06  -1.8367835e-04  -1.8804983e-04   1.3419753e-04  -1.9106902e-04  -5.0866097e-04  -4.4149288e-05  -2.0278025e-04  -2.2440334e-04   3.2438510e-04  -1.5339217e-04  -1.9081697e-04  -8.9915855e-05   4.1918657e-04  -2.9885296e-05   4.7226364e-04   3.2034030e-03  -1.1777152e-04   1.0177865e-04   1.2107143e-04  -4.9016904e-03  -5.8235559e-03  -2.4435061e-03   2.8973288e-04   1.1334306e-04   2.5061684e-04  -1.8760136e-07
   1.5589464e-04   1.0522266e-04   6.4043968e-05   7.2989940e-05   9.6707090e-06   3.9110822e-05  -1.0001154e-04  -1.3262330e-04   3.1118208e-04   2.4167135e-04   2.3302491e-04   1.9374483e-04  -8.7710825e-05  -1.3139921e-04   3.5956290e-07   2.9584861e-04  -1.7715423e-06   3.1002372e-05   4.3025342e-04   1.7101067e-04   7.0439106e-05   1.5660921e-04   6.8939116e-05  -9.0747762e-06   1.3787647e-04  -1.6397753e-04  -2.5785045e-04   8.5285283e-05   5.7260029e-04  -2.8820607e-06   2.2827707e-04  -8.9344983e-05   6.4458211e-05  -4.9768976e-04  -1.6310238e-04   3.7953630e-04   1.0378359e-04  -6.1139822e-06  -2.9139753e-04   5.8157514e-03  -1.3763714e-04   1.1320129e-04   2.3665527e-06  -9.6581345e-03   4.1938522e-03  -7.5374742e-04   2.1684158e-04   1.2693595e-04   2.4205379e-04   1.9355063e-04
   1.3355164e-04   9.4933363e-05   5.1673618e-05   7.5955308e-05  -2.2920349e-05   4.5231336e-05  -1.8383435e-05  -3.1980363e-04   2.4084956e-04   1.6015235e-04   2.1095321e-04   1.2115762e-04  -3.4029024e-05   1.5320138e-05  -1.8120983e-04   6.8089532e-05  -2.5330639e-05  -9.2639988e-05   2.0924443e-04   1.5425443e-04   6.7733672e-05   1.1624001e-04   1.7593857e-05   1.4931084e-05   7.9816746e-05  -8.4555722e-05  -9.6271280e-05  -3.3426614e-04   3.0425561e-04  -1.5786189e-05  -9.6201606e-05  -4.9575883e-05   4.6237263e-05  -1.3668514e-04  -1.8782866e-04  -1.1898837e-04  -3.6944964e-04   1.7853642e-06   1.5153547e-04   4.4772648e-03   8.5797241e-05   7.1280141e-05  -1.3862340e-06  -1.2839170e-03  -1.8085801e-03   3.0322103e-03   2.4312639e-04   2.9329243e-04   2.0564183e-05  -5.2598938e-05
   1.3734806e-04   8.9466484e-05   5.5612891e-05   6.5316686e-05  -1.7434410e-05  -5.7421119e-05  -1.2266297e-04  -1.3823481e-04   1.5213789e-04   8.8347064e-05   1.4774429e-04   7.3152005e-05  -1.9875279e-05   2.9082814e-05  -6.5327091e-05   1.5781718e-04  -2.3316154e-05   8.0314800e-05   1.8193593e-04   1.4835005e-04   5.7391750e-05   1.2908575e-04  -3.6450310e-05  -3.3368367e-05  -9.0645080e-05  -1.0895956e-04  -5.3603686e-05  -1.6666198e-04  -2.2054538e-04   2.5253098e-06  -1.9921533e-04  -6.1786332e-04  -5.0587449e-05  -2.4309753e-04  -6.7846151e-05  -3.6879144e-05   5.8631104e-04  -6.4345848e-05  -1.0426870e-03   1.0863778e-02   1.7393402e-04   1.0284126e-04   6.6748944e-05   9.2467368e-03   4.4150474e-03  -4.8986991e-04   3.4366318e-04   3.1560194e-04   1.7159957e-04   9.3740724e-05
   1.4302514e-04   8.7847620e-05   5.3435961e-05   7.1119750e-05  -1.4440673e-05  -2.1075282e-05  -9.4623843e-05   3.4987948e-05   2.8560712e-04   2.4561424e-04   2.2361286e-04   1.8395491e-04   2.0893573e-05   2.1535857e-04   1.4963692e-04   2.0674129e-04  -2.3079900e-05  -1.4363280e-04   1.7825024e-04   1.3858566e-04   6.9837290e-05   9.3790368e-05  -2.7254828e-05  -3.4047400e-05  -1.6713956e-04  -1.0759114e-04  -5.9021288e-05  -2.7224876e-05   2.0494658e-04  -6.6846596e-06  -2.3310057e-04  -2.5043270e-04  -5.3233136e-05  -6.6735351e-04  -8.9335612e-05  -3.2777622e-04  -1.1500849e-04   9.4537018e-06  -3.8046710e-05  -3.3853669e-03  -4.3744574e-05   8.9942492e-05   2.2911587e-04  -6.3117053e-03   3.4310590e-03  -1.4569378e-03   3.4096977e-04   1.5408678e-04   3.0016649e-04   1.6559540e-04
   1.1909241e-04   8.3916791e-05   3.7866084e-05   5.9764283e-05  -2.5916732e-05  -1.4748801e-05  -5.8105172e-05   5.3809912e-05   2.2645213e-04   1.9482110e-04   1.9474489e-04   1.5308642e-04  -9.8785116e-05  -7.1690188e-06  -5.4322963e-06   7.9770267e-05  -3.1637589e-07  -9.9193327e-05  -4.0282674e-05   1.4586878e-04   6.0861112e-05   9.9795056e-05  -6.9264723e-05  -4.5903216e-05  -3.5475365e-05  -7.9915473e-05   9.1989008e-05  -1.5668404e-05  -7.5731950e-05  -1.2506890e-05  -6.0286493e-05  -3.0119612e-04  -3.9094914e-05  -2.7577879e-04  -9.2066570e-05   3.9425018e-04   3.7184349e-04   7.3466613e-06  -2.0626697e-04   2.8503444e-03   3.5255880e-04   3.7994021e-05   8.9448324e-05   3.6218449e-02  -1.9518010e-03   1.9615989e-03   2.2613860e-04  -1.2005928e-05   1.6863403e-04   1.7352679e-04
   1.2413775e-04   7.8953053e-05   3.8471062e-05   5.4876902e-05  -2.8457143e-05  -5.2178508e-05  -5.2106207e-05  -5.8149042e-05   2.5276444e-04   1.2936660e-04   1.4130129e-04   9.0387417e-05  -1.0043660e-04   1.3529873e-04  -2.5659098e-04  -2.0828086e-04  -2.2105483e-05  -1.2745120e-04   2.0832632e-04   1.1193079e-04   5.5140066e-05   9.9720266e-05  -9.3087729e-06  -6.2873609e-05  -3.4443219e-04  -1.0837969e-04  -5.2503974e-04  -1.0706499e-04  -4.0058981e-04  -1.5577607e-05  -8.7475833e-05  -5.5367115e-04   3.0162148e-05   8.4691979e-05  -7.9504334e-06  -3.5572061e-04  -1.5963698e-04  -4.0653126e-06  -3.6798866e-04  -3.8529525e-03  -1.0308015e-04   5.1341005e-05  -1.9729669e-05   3.1096893e-03   3.8314730e-04  -5.6949066e-04   2.0987881e-04   8.8948160e-05   1.3524445e-04   1.7988944e-04
   1.3551138e-04   7.4035655e-05   4.2498032e-05   5.8627207e-05  -1.0680637e-05  -4.7299229e-05  -2.4503530e-07  -8.0970688e-07   2.9203709e-04   2.6841060e-04   2.0510846e-04   2.0331659e-04  -9.1527167e-05   4.3576485e-05  -2.4727720e-04  -2.5216892e-05  -1.5857604e-05   1.0656528e-05   5.8956241e-05   1.1327249e-04   6.3091415e-05   9.1083537e-05  -6.3199586e-05  -2.3602886e-05  -3.1358824e-05  -7.6313212e-05  -2.2672236e-04   1.5486681e-04   5.1709540e-05  -2.2987830e-05  -7.5605516e-05  -8.1144873e-04   1.0097762e-04   7.4043091e-06  -1.4738222e-04   4.9913033e-06  -9.6024194e-04  -6.9712449e-05  -2.4023891e-04   3.3655989e-03   6.4528540e-05   7.3256226e-05  -5.0338313e-05   4.9294527e-03  -3.5599344e-03   1.5236235e-03   2.5553111e-04   3.5459871e-05   2.5777842e-04   1.2678605e-04
   9.6504853e-05   7.1975293e-05   2.5748153e-05   4.9197333e-05  -3.2775461e-05  -5.4566484e-05  -5.4771019e-05   2.1358652e-04   2.2757851e-04   2.2294116e-04   1.9908595e-04   1.6874561e-04  -7.5656113e-05   2.3670387e-04  -5.0166211e-05   3.9152877e-05  -1.5925814e-05   4.0663919e-05   1.8812403e-05   1.1893208e-04   6.2443127e-05   9.5344352e-05  -5.1889885e-05  -3.0006973e-05   3.6153342e-05  -4.3378706e-05  -2.3194114e-04  -3.1254906e-04  -1.0331195e-03  -1.1439349e-05  -5.5881432e-05   1.4061134e-06  -1.1064137e-04  -3.9363309e-04  -1.2554052e-04  -1.2116927e-04  -5.6034558e-05  -7.8123914e-05  -3.4360457e-04  -7.2953408e-03   8.0358033e-05   4.2567950e-05   1.1439102e-04  -3.1859155e-03   1.0014437e-02  -9.3105069e-04   1.7116495e-04   1.3123966e-04   1.5783892e-04  -1.1542269e-04
   9.4916475e-05   6.8075315e-05   2.1054817e-05   4.0243165e-05  -4.4456559e-05  -5.5579141e-05  -4.8112135e-05  -5.7645637e-05   6.8285532e-05   1.2599234e-04   1.4725509e-04   8.6593063e-05  -1.0733472e-04   5.4874181e-05   6.7649220e-05  -3.0157564e-04  -3.4451783e-05  -5.3996926e-05   2.6826252e-04   9.0857247e-05   5.5304892e-05   9.3964903e-05  -3.6328416e-05  -2.8787385e-05  -1.6836390e-04  -6.5242355e-05  -8.6759443e-05  -6.2350351e-05  -1.0217534e-05  -2.0285390e-05  -2.0299504e-04  -2.3160108e-04   1.2075187e-04  -1.8161410e-05  -1.0803784e-04  -1.2444842e-04  -4.4461564e-04  -6.9320005e-05  -1.0259585e-03   3.5187849e-03  -1.7483922e-04   5.0328701e-05  -6.0197086e-05  -1.8853081e-03   1.8448846e-03  -4.5326003e-04   1.6525961e-04   6.2895750e-05   1.3519288e-04  -8.8063425e-05
   1.0042913e-04   6.0573406e-05   2.2609243e-05   4.6413377e-05  -3.0639534e-05  -5.3551728e-05  -1.3540621e-04  -2.4154169e-05   1.6462660e-04   9.9846002e-05   1.0871550e-04   5.3684187e-05  -6.3189094e-05   1.4803835e-04   9.8477416e-05   1.6604809e-04  -2.4543433e-05   3.7826914e-05  -2.4127403e-04   8.1554390e-05   6.1216248e-05   1.1053367e-04  -4.7326059e-05  -1.4353046e-05  -1.1040801e-04  -1.2189693e-04  -4.0051609e-04   4.2685697e-05   1.1274248e-04  -6.6391534e-05  -1.0485197e-04   4.0295701e-05   2.6310992e-04  -9.4639880e-05  -6.9184629e-05  -2.3600340e-04  -7.4965734e-05  -4.5164896e-05  -5.5589298e-06   1.2428870e-02  -1.8390964e-04   9.2735820e-05  -2.1563320e-04   5.4865330e-03   1.5486429e-03  -6.1322758e-03   2.1627168e-04   1.2226832e-04   5.8047870e-05  -2.7070661e-05
   7.6655953e-05   6.2779123e-05   1.2986995e-05   3.9871400e-05  -4.6265843e-05  -3.0055651e-05  -6.1033770e-05  -9.3806091e-05   2.3824198e-04   2.2423697e-04   1.8039458e-04   1.6088986e-04  -1.8011677e-04  -3.4254808e-05   8.4098749e-05   2.3980896e-04  -1.4169066e-05  -8.3355932e-05  -1.3950175e-04   8.4644955e-05   6.2266750e-05   1.1087867e-04  -1.2144191e-05  -4.3395365e-05  -1.4881091e-04  -9.4761250e-05   8.0943370e-05  -1.7418319e-04  -5.4840936e-04  -1.7783785e-05   1.8337926e-04  -3.5588117e-05   1.6343135e-04  -4.5565821e-04  -1.1336185e-04  -1.6077481e-04  -2.8889105e-04  -2.0082891e-05   5.1996674e-05  -4.4122869e-05   7.7566488e-05   5.7207162e-05   4.6146793e-05  -1.9666976e-03  -1.5168743e-04   2.1974077e-03   3.1209094e-04   2.0363770e-04   1.6824421e-04  -1.2681780e-04
   5.9308950e-05   5.8977239e-05   2.9717480e-06   3.2414093e-05  -4.9574388e-05  -5.9653157e-05  -1.7853065e-04  -2.3519334e-04   1.7686271e-04   1.5415653e-04   1.3257019e-04   9.0413945e-05   1.8702603e-05  -3.6249967e-05  -2.9172032e-04   2.2257174e-05  -6.8727923e-06  -1.0914455e-05   2.0510469e-04   1.1573554e-04   5.5563287e-05   9.5620584e-05  -8.1562837e-05  -1.0659781e-04  -1.8931017e-04  -1.3472853e-05  -1.7331424e-05   2.2438011e-05  -3.7307202e-04  -1.5748230e-06   2.0556452e-05  -2.1499165e-04   4.6997651e-05  -2.4502905e-04  -9.2462258e-05  -1.0770020e-04   2.3705386e-04  -3.9204235e-05  -2.8077155e-04   2.7306117e-03   4.7985133e-04   1.8977245e-05   2.8192220e-04  -1.0145605e-02  -2.0616595e-03   4.6381787e-03   1.0168213e-04   6.0293718e-05  -9.4632705e-05   8.9274698e-05
   7.1087954e-05   5.3271990e-05   6.8933059e-06   3.6510926e-05  -5.7159978e-05  -1.1088361e-04  -1.8654726e-04   7.3679192e-05   1.9309696e-04   6.0377228e-05   1.0138704e-04   2.4203784e-05  -1.2108472e-04  -4.5367560e-06   3.4431482e-04  -1.1387745e-04  -2.8105591e-05  -6.5298962e-05   8.3335668e-05   1.0588918e-04   4.9239163e-05   8.7570086e-05  -1.0468699e-04  -3.1262858e-05  -9.3326969e-05  -8.5417969e-06  -1.3258272e-04  -2.0203996e-04  -1.0464524e-04   6.2774698e-06   3.2646762e-04  -1.0378537e-04   1.2836067e-04   3.8141580e-04  -1.2464919e-04  -5.2485638e-04  -6.5670692e-04   1.0652636e-05  -1.5146562e-04  -1.3547674e-03   1.3396931e-04   1.1146457e-05   1.2884938e-04  -9.5123309e-04  -2.1562602e-03   6.7848475e-03   2.4885486e-04  -7.2176415e-05   7.7878994e-08  -1.0136922e-04
   7.4562005e-05   5.1554347e-05   3.9635552e-06   3.9603292e-05  -5.3460066e-05  -7.4867516e-05  -4.4612247e-05  -2.5189467e-04   2.3023438e-04   2.1418298e-04   1.7374869e-04   1.4013211e-04  -6.5246488e-05   9.1392052e-05  -1.8402113e-04  -2.7284268e-04  -3.9021794e-05  -7.3529482e-05   1.1286682e-04   9.4253708e-05   6.0977512e-05   9.4408315e-05  -1.2054305e-04  -5.6728553e-05  -1.1691337e-04   2.8983652e-05   3.0721977e-04  -9.7663135e-05   5.5253760e-05  -3.5777241e-05  -4.0391029e-04  -3.6278207e-04  -6.0365415e-05  -1.6546181e-04  -9.1555055e-05   8.9424087e-05  -1.8491884e-04  -1.7304350e-05   4.5711133e-08   2.1511565e-03  -1.9386944e-05   3.4411205e-05   3.1843083e-06  -7.9754498e-03   1.0790490e-02   3.5976560e-03   2.6352028e-04   2.1050349e-04  -4.5631379e-05  -1.9891116e-04
   4.7505255e-05   4.6715453e-05  -1.1157381e-05   3.3264918e-05  -5.7405294e-05  -7.2326860e-05  -2.3137967e-04   3.1505286e-05   7.4646319e-05   1.6591701e-04   1.3697421e-04   8.4583997e-05  -8.3812643e-05   1.9436197e-04  -4.5413079e-05   2.1447883e-04  -2.0455534e-05  -1.2621425e-04   5.1071829e-06   8.5604697e-05   5.3960135e-05   1.0223054e-04  -6.1090614e-05  -7.7072655e-05  -8.3065977e-05  -2.5457116e-06  -4.6591982e-04   1.3224076e-04  -1.3917366e-04  -4.6695979e-05  -2.2849532e-04  -1.8275811e-06   3.3504423e-04  -5.4849716e-05  -1.3116395e-04  -5.1495433e-04   4.5963569e-04  -8.4789201e-05  -1.1779694e-03   2.6843636e-03  -1.6761785e-04   1.7108312e-05  -2.1699088e-04  -8.3698016e-03   4.6217692e-04  -3.4685628e-03   2.1807090e-04   3.3528730e-05   3.1496286e-06   1.5327157e-04
   5.0299797e-05   4.2338204e-05  -6.6573962e-06   2.3881967e-05  -6.0802278e-05  -9.1706788e-05  -6.0984607e-05   5.1792551e-05   1.8376960e-04   6.8244459e-05   7.7166493e-05   2.1192358e-05  -1.9013620e-04   1.6663406e-06  -1.8573364e-05  -1.3598271e-04  -2.3633707e-05  -3.1293395e-05   4.9973291e-04   1.0459647e-04   5.2673324e-05   1.0201012e-04  -1.7729383e-04  -6.9521513e-05  -3.7352554e-06  -2.0155434e-05   2.7633534e-04   9.7716395e-05  -5.4140337e-04  -1.5500038e-05  -2.6457902e-04  -3.8614054e-04  -1.2586603e-04  -4.5596398e-04  -1.8667955e-05  -1.2055028e-04  -4.1297969e-04  -5.9228103e-05   7.5071839e-05  -3.2466683e-03  -2.3448991e-04  -7.0520082e-06  -2.9471496e-04   1.2883680e-02   2.1645854e-05  -2.7412279e-03   2.4796830e-04   4.5591485e-05   1.0335544e-04  -3.6703408e-05
   5.7996684e-05   3.9820152e-05   3.9312790e-06   3.6564117e-05  -4.8384449e-05  -8.5267777e-05  -1.1908431e-04   9.3403985e-05   7.9812351e-05   1.9777601e-04   1.1228292e-04   1.0169763e-04  -2.5052181e-04   1.5983263e-04  -3.9372701e-04   2.9045978e-04  -1.4524560e-05  -5.4997698e-05  -7.2691982e-05   9.8583427e-05   5.7811158e-05   1.2750222e-04  -1.8658107e-05  -3.7130190e-05  -4.4046556e-05  -4.4935317e-05  -3.3908585e-04   8.6872067e-05   3.9875816e-04  -3.3865745e-05  -1.8312062e-04  -3.5377121e-05   4.0838000e-04  -6.1411096e-04  -9.7316988e-05  -3.5305173e-04  -1.4792958e-04   2.4591212e-05  -1.9354295e-04  -9.0966560e-03  -8.6707594e-05   7.0626644e-05   3.8283728e-05   7.1135839e-03   3.8912371e-03  -1.0873538e-03   2.6557481e-04  -3.0385141e-05  -5.8558595e-05   9.3047616e-05
   3.3299835e-05   3.9392700e-05  -1.4880716e-05   3.2730495e-05  -6.6388828e-05  -6.4248707e-05   5.0868525e-06   1.1572816e-04   2.0321136e-04   1.9890352e-04   1.2916554e-04   9.4954594e-05  -5.0191615e-05   1.2682340e-04  -7.5336240e-05   1.9221238e-04  -2.8195442e-05  -1.3810951e-04   2.0457662e-04   1.1532046e-04   5.4227643e-05   1.5249927e-04  -1.8443995e-04  -2.1007289e-05   2.1566502e-04  -9.5318319e-05   2.2529058e-04  -3.6806472e-05   5.4414861e-04   1.2973667e-05  -1.6017871e-04   1.0740628e-04   1.4389826e-04   1.7368991e-04  -1.7267255e-05  -7.9274271e-04  -6.4507895e-04   1.3255946e-05  -6.2035411e-05  -4.1196393e-04   1.1123982e-04   2.0368467e-05  -9.3951792e-05  -4.9644797e-03   1.2708383e-02   1.5181192e-03   2.4312911e-04  -2.3662185e-05   3.8408929e-05  -1.2656700e-04
   3.1806881e-05   3.4577450e-05  -1.1857122e-05   3.4862504e-05  -6.3781488e-05  -4.7715290e-05  -1.2872998e-04   2.1734300e-04   5.2491090e-05   1.1132917e-04   7.3574149e-05   4.3295073e-05   1.8560460e-05   1.5204422e-04   6.9691887e-05   1.0034255e-04  -2.6302481e-05   1.6749140e-05   4.6619534e-05   1.0670690e-04   4.9714356e-05   1.0674971e-04   4.6641753e-06   1.6569476e-05   1.6162280e-04  -6.9164860e-05   6.7775312e-05  -5.9021248e-05  -2.3659383e-04  -3.4575347e-05  -4.6131760e-04   1.0520549e-04   8.1853923e-06   2.0183250e-05  -1.6473711e-04   6.0711335e-04  -5.3652951e-05   1.7663389e-05  -1.8768503e-04   1.7551642e-03   1.5129176e-05   2.7606155e-05   9.2831571e-05  -4.5593703e-04   1.5258002e-03  -9.7873772e-04   2.0033626e-04  -5.6520148e-05  -7.4131109e-05   9.4476243e-05
   3.1967043e-05   3.3352077e-05  -7.5445455e-06   2.7043310e-05  -5.8313988e-05  -9.6847965e-05  -6.2709041e-05   8.1129539e-05   4.6737288e-05   1.9942683e-05   4.6452398e-05  -1.5745656e-05  -1.0983068e-04  -2.2999400e-05  -2.6060053e-04   3.8159793e-05  -2.4549938e-05  -2.5398756e-05   1.2944138e-04   1.0972320e-04   4.1526429e-05   1.2099795e-04  -1.0701683e-04  -1.7423217e-05  -1.4448178e-04  -7.6175616e-05  -7.9944213e-05   6.2776642e-05   8.8046327e-06  -1.7172630e-05   6.6992234e-06   2.1622369e-04   2.1031499e-04   1.4714898e-05  -7.6718351e-07  -4.6061905e-06   2.8226705e-04  -1.6913145e-05  -1.8079049e-04  -3.8582417e-03   2.7610353e-04   6.5960245e-05  -2.8515331e-04  -5.3763390e-03   5.8595035e-03   1.9488251e-03   3.0614727e-04  -3.3681263e-05  -7.3456205e-05  -5.7528418e-05
   3.7384234e-05   3.4105182e-05  -7.1796708e-06   3.2847878e-05  -5.1880885e-05  -4.7113470e-05  -1.4006096e-04   1.3496686e-04   1.2958127e-04   2.0812935e-04   1.2236017e-04   1.1557569e-04  -2.1173424e-04   5.9321930e-05  -7.9531717e-05   5.3420183e-05  -2.2161221e-05  -1.3415088e-04   6.8936686e-05   1.0035269e-04   5.3009167e-05   1.2925766e-04  -1.7593495e-06  -4.1046624e-05   1.4238701e-04  -1.5056932e-04  -2.4678279e-04  -2.7412743e-05  -4.8650647e-04  -4.0599734e-05  -1.7516129e-04  -5.3913699e-04   5.4791104e-05  -4.7482934e-04  -3.7246031e-05  -3.0656002e-04  -2.5422909e-04  -2.8556133e-06   1.3698719e-04  -4.0429565e-03   8.7918634e-05   4.2166692e-05  -1.3451606e-04  -5.7797984e-04  -6.9544157e-03   5.9346673e-03   2.3751192e-04   3.2697757e-05  -9.6715579e-05  -7.8699828e-05
   1.7637672e-05   2.9450317e-05  -1.1518684e-05   2.7821663e-05  -6.2989886e-05  -4.3833727e-05  -6.7250956e-05   1.6025284e-04   1.7223353e-04   1.5198457e-04   1.0536837e-04   7.4053038e-05  -1.3564335e-04   3.2762648e-05   1.3803337e-04   2.7292260e-04  -3.1083418e-05  -5.0332706e-05   1.9783298e-04   9.8035816e-05   4.1641393e-05   1.6712972e-04  -5.9240356e-05   1.0504141e-05  -1.2725608e-04  -2.0250937e-04   1.0378355e-04   6.9681875e-05  -9.9339893e-05  -6.3965628e-05   2.3481113e-04   1.1487592e-04   7.9207726e-05  -5.4379465e-04  -1.5475770e-04  -1.8199252e-04  -1.1374016e-03  -6.9422960e-05  -5.2496136e-05  -8.4320060e-04   3.3606455e-04   2.5297830e-05  -1.0940961e-04   1.5448815e-02  -4.8683942e-03  -3.4463352e-03   1.8920471e-04  -1.7543051e-04  -1.2446086e-04   1.6199077e-05
   1.6386031e-05   2.9228218e-05  -4.5879556e-06   1.6907543e-05  -4.5457116e-05  -4.0326857e-05  -4.1769068e-05   6.0283011e-05   1.3185757e-04   6.3641630e-05   4.8724702e-05   1.4938346e-05   2.3728657e-05   1.9943707e-04  -2.8333429e-04  -1.5700393e-04  -3.4432131e-05  -1.5990868e-04  -1.0427164e-04   7.9981044e-05   4.5852630e-05   1.2344359e-04  -2.3603232e-05  -2.2151762e-05   3.0654273e-04  -2.1650741e-04  -2.9291838e-04  -3.8532613e-04  -1.3274894e-05  -4.8344202e-05  -1.9914639e-04  -1.4282408e-04  -1.0028396e-04  -4.0616473e-04  -7.9706726e-05   1.2902649e-04  -4.2509541e-04  -2.3196884e-05   9.8132507e-05   7.0205606e-03  -1.6935250e-04   2.5342202e-05   8.4634175e-06   1.9944608e-03   4.4007571e-03  -4.1346727e-03   1.8719661e-04  -8.6585394e-05  -2.8037522e-05  -2.1612410e-04
   3.1716547e-05   2.5102436e-05   7.4465806e-06   2.8367249e-05  -4.1214356e-05  -6.6071661e-05  -1.0917439e-04  -6.1530154e-05   7.3195581e-05   1.9872909e-04   1.0257802e-04   1.0516962e-04  -6.5075226e-05  -9.1126676e-05  -1.0053283e-04   8.8909532e-05  -2.3094541e-05  -1.7682120e-04  -1.8759803e-05   8.6879620e-05   5.7093137e-05   1.3416410e-04  -1.0721978e-04  -2.4823398e-06   3.7223633e-04  -2.1256201e-04   7.8116442e-05   1.0165875e-04   1.5577867e-04  -4.1407926e-05  -7.3372692e-05  -8.0532824e-05  -5.9418944e-05  -4.0623810e-04  -6.8732152e-05   1.7121702e-04  -5.8286887e-04   1.6253935e-05  -3.1697730e-04   5.7852720e-03  -9.3300529e-05   3.2339289e-05  -1.0463122e-04   1.8825484e-02  -2.9455682e-03  -4.2657503e-03   2.3583420e-04   6.1860024e-05   1.6288990e-04  -6.9892259e-05
   2.2959919e-06   2.5749065e-05  -5.2890687e-06   2.2427765e-05  -5.5369612e-05  -2.5038773e-05  -6.5894565e-05  -1.1311884e-04  -4.6229441e-05   1.6567582e-04   9.9716417e-05   7.8849276e-05  -2.8410041e-05   1.5914720e-04  -5.1821426e-05   4.3914863e-04  -3.6675126e-05   6.2694657e-05  -4.8321024e-05   9.2423965e-05   5.3309708e-05   9.8731165e-05  -1.0193150e-04   4.0550017e-06   3.5966743e-05  -2.0123601e-04  -4.9073937e-05  -2.2278218e-04  -6.5362256e-04  -4.9575956e-05   7.6000346e-05  -2.0383368e-04   1.4803596e-05  -1.6277800e-04  -8.5086504e-05   4.5862290e-04  -4.0816615e-04  -4.2511483e-06   8.2519564e-06  -5.5475291e-03  -4.4161618e-05   4.7490990e-05  -1.5256293e-04  -7.6431627e-03  -5.3854119e-03   1.9826757e-04   2.0434674e-04  -1.1975153e-04   1.7028871e-05  -2.2531858e-04
   4.3946720e-06   2.1462823e-05  -2.9412083e-06   8.8249726e-06  -5.4195400e-05  -2.6416930e-05  -1.3065293e-04  -2.8160488e-04  -2.4433073e-05   5.5222754e-05   5.4241107e-05   4.4733461e-06  -9.4317860e-05   1.2819102e-04   7.4769305e-05  -9.8008459e-05  -4.6890033e-05  -6.1625637e-05   3.9254202e-05   8.0743906e-05   5.2092459e-05   8.2621285e-05  -1.3366857e-04   2.2243925e-05   8.9926289e-05  -1.4342437e-04   3.1515730e-05  -9.7316530e-05   2.0403106e-04  -1.9622230e-05  -1.8599915e-04  -9.7690870e-05   4.4010227e-05  -4.8808556e-04   5.5554283e-05   7.5449236e-05  -7.1892333e-05   6.2158768e-05  -3.8009774e-04   7.7525382e-03  -6.5324588e-05   5.4022826e-07  -2.6685896e-04   3.0703510e-03   6.7707518e-04   3.4956755e-03   1.5151504e-04  -1.6766864e-05   6.9644448e-05  -2.9327095e-04
   1.6900240e-05   1.3611165e-05   1.4598841e-05   2.0134907e-05  -4.0601521e-05  -9.5238067e-07  -7.8242367e-05   1.3117722e-04   5.1377359e-05   1.2684871e-04   5.6242930e-05   5.7873913e-05   1.9180141e-05   6.3590254e-05   1.6556894e-04   2.5053974e-04  -1.7242197e-05   1.0832237e-05   9.7236581e-05   8.5207452e-05   6.3909691e-05   6.7798283e-05  -1.4881420e-04   6.2082918e-06   1.8415028e-04   3.5609217e-05   2.5734946e-05   4.3119078e-05   3.7768645e-05  -2.2062755e-05  -1.6159387e-04   4.6110952e-05  -3.8157767e-05  -2.4063232e-04   1.5842008e-05  -4.5659253e-05  -1.8130591e-04  -7.5045245e-05  -7.8128540e-04   2.0946090e-03  -1.8919210e-04  -3.3913391e-05  -6.0664632e-05  -2.2163310e-03  -6.2846509e-03   8.1716720e-03   1.5699437e-04  -1.1903591e-05  -9.9905439e-05  -6.7120527e-05
   1.2429501e-06   6.4093606e-06   2.6327439e-06   1.9394151e-05  -6.2379317e-05  -4.7184461e-05  -4.6527504e-05  -5.1129959e-05   1.5853936e-04   7.6997007e-05   5.4859913e-05   1.8135726e-05   2.0354459e-05   4.6500241e-05   1.1653006e-04   6.7212932e-05  -9.4220268e-06  -4.4830595e-05  -7.4572495e-06   7.1772636e-05   5.9874339e-05   4.5394001e-05  -7.1878145e-05   1.6672002e-05  -1.4040405e-04   6.9263057e-05  -2.8668915e-06  -2.3601014e-04   2.3044697e-04  -6.2316743e-05   1.9741087e-04   1.7614369e-04   1.2767815e-04  -2.3249442e-04   9.8666598e-05  -1.2657479e-04   2.9837614e-04  -9.8053861e-05  -4.0631840e-04   5.4730806e-03  -2.0946550e-06  -5.3613072e-05   7.6351818e-05   1.7608664e-04   3.1296019e-03   1.1029365e-03   1.7528664e-04  -5.6273029e-06   1.1278506e-04   3.2105617e-04
  -2.9810228e-05  -1.1496191e-05  -1.6747341e-05   1.9144894e-05  -8.8279463e-05  -7.6777411e-05  -1.1138983e-04   2.8886832e-04  -2.0086900e-05  -9.9656747e-05  -7.1804784e-06  -7.5195043e-05  -1.8701981e-05   5.7178626e-05  -1.2628299e-05   4.1590702e-05   2.9890447e-05  -4.0971881e-05   1.8102559e-05   1.0276579e-04   4.8956539e-05  -1.1014893e-05  -8.7616689e-05   1.1727119e-05  -3.3462519e-04   1.4540023e-04  -3.6062189e-05  -2.9769141e-04  -1.1473079e-04  -9.6723867e-05  -4.5858935e-05  -3.7143048e-04   1.7503230e-04  -4.2386143e-04  -1.6111216e-04   3.2885934e-04  -9.3127537e-06  -1.1862454e-04  -7.9133251e-04   1.5829770e-03  -3.2433216e-04  -5.0255921e-06  -4.4761851e-05  -4.2819404e-03  -1.1682615e-03   5.0183717e-04   9.4885108e-05  -2.4948875e-05   1.1632124e-04   4.8210659e-05
  -5.8159654e-05  -3.1589512e-05  -3.4345892e-05   1.5923864e-05  -1.0930569e-04  -1.0348531e-04  -6.9629365e-05   2.1206984e-05  -6.8182875e-05  -2.3609227e-04  -6.5080349e-05  -1.2788827e-04  -6.5959568e-05   5.1856190e-05   2.1818970e-04   8.6702777e-05   2.0151021e-05   4.4596341e-05   2.6100370e-04   9.4568015e-05   4.5100653e-05  -4.7122048e-05  -5.9616723e-05  -3.2610642e-05  -4.0470524e-04   1.8760588e-04  -1.7849841e-04   2.4546593e-04   8.5898419e-04  -1.3416093e-04  -1.8785016e-04   1.6548086e-04  -1.7330103e-05  -9.5030176e-05   8.4633502e-05  -4.6856225e-05  -8.5651925e-05  -1.7452052e-04  -1.3699995e-04   4.5916103e-03  -1.7345347e-04   1.7132283e-05  -1.9089259e-04   6.7256549e-03   8.6032944e-03   5.5302866e-03   1.1124778e-04  -1.0376830e-04  -2.2123750e-04  -1.3089066e-04
  -7.1881987e-05  -3.8527160e-05  -4.2250937e-05   7.0717310e-06  -1.1514151e-04  -9.8035678e-05  -6.6005785e-05  -8.7912576e-06  -1.3812102e-04  -4.6099074e-05   2.4671857e-07  -1.3211041e-05  -1.1068165e-04   3.6911450e-05   4.6670382e-04   1.0339759e-04   4.5995625e-05   1.2663778e-04   3.8303231e-04   9.5127136e-05   2.9044753e-05  -8.4650943e-05  -1.0803070e-04   1.6455109e-05  -3.0399614e-04   3.3231406e-04  -2.4701064e-06   4.7640515e-05  -3.8237163e-04  -1.3297265e-04  -8.5107669e-05   3.9404877e-05  -5.5273533e-05  -3.6676126e-04  -7.6453573e-05   2.8008598e-04  -3.9740666e-04  -1.2757941e-04  -1.6559285e-04   1.8861088e-04   1.2802159e-04   2.4708030e-05   1.0706517e-04   1.3932023e-04   6.6031719e-04   6.3093766e-03   2.1952025e-04   1.1836492e-04  -3.6587680e-05  -1.3652576e-04
  -6.7123678e-05  -3.3817578e-05  -3.1979816e-05   2.0261126e-05  -1.0742227e-04  -9.5937685e-05  -1.3351436e-04   8.4943073e-05   3.6733702e-05  -1.2504867e-04  -3.9897808e-05  -3.7888207e-05   5.3779269e-05  -7.4496966e-05   5.1950821e-05   2.5596781e-04   4.0507912e-05  -1.8131596e-04  -2.4356274e-04   6.4290194e-05   1.0605390e-05  -7.5372656e-05  -1.3363792e-04   5.8169114e-08  -3.3577042e-05   2.5026119e-04  -1.6436458e-04  -6.6098575e-05  -2.5928440e-04  -1.0772619e-04   2.9964821e-04  -1.2376720e-04   3.9441813e-05   1.5327435e-04  -5.0750739e-05  -2.8219740e-05  -6.1906385e-04  -8.9213623e-05  -2.5991080e-04  -5.2655116e-03  -4.8057489e-05  -5.5793462e-05  -1.7802815e-04  -5.0603123e-03  -2.5980771e-03   1.1246235e-02   3.8312977e-05  -1.4097443e-04   2.0131694e-04  -2.8993987e-04
  -6.0763876e-05  -3.9913859e-05  -3.3992892e-05   1.9940620e-05  -9.8068675e-05  -7.4794094e-05  -8.4222593e-05   1.0857254e-04  -1.0870751e-04  -2.1370304e-04  -9.8580393e-05  -1.1155026e-04  -4.5223507e-05   1.2352385e-04   5.1877764e-04   5.4294265e-05  -3.0246820e-06   2.0457464e-04  -9.9638943e-05   1.8904935e-05  -3.8205862e-06  -6.2732841e-05  -1.8856463e-04  -3.7329391e-05  -8.6260610e-05   2.0102582e-04  -8.4295534e-05  -1.1890644e-04   4.2509689e-04  -9.4390751e-05  -8.9997711e-06   7.6231016e-05  -2.3620334e-04   2.7781280e-04   8.4538669e-06  -1.0561693e-04  -5.3135282e-04  -4.7716807e-05  -5.7624775e-04  -1.6728967e-03  -2.8003211e-04  -1.9488707e-05   2.9036664e-05   3.8641011e-03   3.0801322e-03   2.2642659e-03   1.7297732e-04   2.5958067e-05   1.6101469e-04   4.4561555e-05
  -6.6923480e-05  -4.2198513e-05  -3.6808309e-05   1.5532796e-05  -1.0048209e-04  -7.7814999e-05  -1.2610247e-04  -7.7149460e-05  -2.8671846e-05   5.3309763e-05   1.1225817e-05   4.6176177e-05   2.5456655e-05   4.0003466e-05   1.7096377e-04   1.2243792e-04   2.9455341e-05   1.5379518e-04  -3.2043772e-05   1.3779623e-05  -1.0111902e-06  -7.2219598e-05  -1.2810266e-04  -2.1104610e-05  -5.8234925e-04   1.7903672e-04  -1.7487715e-05  -1.9378452e-04   1.1218689e-04  -7.0938360e-05   1.3212083e-04  -2.6791083e-04  -3.8521968e-05   5.1178242e-04  -1.1422315e-05   1.3196994e-04  -5.6469993e-04  -1.1777406e-04   2.3862913e-04   1.8322116e-02  -3.2801030e-04  -1.9672660e-05  -2.4848353e-04  -3.9910269e-03   2.6128262e-03  -1.4770824e-03   1.6754688e-04  -2.1894324e-04   1.3642370e-04  -2.5217238e-04
  -8.4141167e-05  -4.6628320e-05  -4.3545551e-05   1.0385329e-05  -1.0297047e-04  -8.9060093e-05  -1.4998454e-04   1.4113764e-04  -2.4401283e-05  -2.1361187e-05  -4.2654956e-05  -2.2237171e-05  -4.3062813e-05   1.6828382e-05  -3.9164290e-05   1.3410914e-04  -7.5705739e-06   1.0947920e-04   1.1802407e-04   5.2855212e-06  -4.0719797e-06  -4.8358706e-05  -1.3028934e-04  -1.2398768e-05  -3.1431066e-04   2.4200192e-04  -2.1672458e-04  -9.4954165e-05  -3.0567313e-05  -4.6999958e-05  -7.6160446e-05   3.7780829e-04  -6.6573120e-05   2.2594603e-04   3.5597372e-05  -3.9646114e-04  -2.3787876e-04  -9.0537738e-05   3.0580573e-04   4.2948900e-03   2.0258638e-04  -3.2183405e-05  -2.4830576e-04  -4.4278698e-03   7.2002364e-03   1.5481359e-03   1.2425164e-04  -1.1687554e-04   1.6519232e-04   2.5035364e-05
  -9.1751273e-05  -5.4093667e-05  -3.6902529e-05   5.9899462e-06  -9.2484144e-05  -1.5280102e-04  -2.8528013e-05   1.7211228e-04  -2.5477635e-05  -1.5768458e-04  -9.0205431e-05  -1.1018121e-04  -6.7852401e-05  -2.2473924e-04   1.8986467e-04   5.7979512e-05  -3.1003851e-06   5.5859637e-05   1.7523354e-04   1.2608302e-05  -7.4957520e-06  -5.4770542e-05  -2.1783709e-04  -3.6173897e-05  -4.9308763e-04   2.2339971e-04  -1.8396837e-04   3.6476609e-05  -6.0238363e-04  -3.8742866e-05   4.0380345e-04   2.9907073e-04  -1.4471909e-04  -2.5892886e-04   4.4938828e-05  -4.0083422e-04   8.2715735e-05  -7.2886229e-05  -5.4271083e-04  -4.0494124e-03  -2.7196718e-04  -6.1730367e-05  -7.2568466e-05  -9.8665655e-03  -1.0904373e-03   1.5868800e-03   7.0199232e-05  -1.1498605e-06   1.8425481e-04  -2.2697133e-04
  -8.7741741e-05  -6.0750313e-05  -3.1749958e-05  -6.6373752e-07  -7.4356933e-05  -8.2586892e-05  -3.7225047e-05   8.5506872e-05  -2.1879119e-05   1.2971767e-05  -4.3012624e-05   8.2380473e-07  -1.0447027e-04  -7.9285339e-05   4.4603646e-04  -2.0727111e-05   1.7579432e-05   6.4928041e-05   1.2883364e-05   2.6666272e-05   8.4969352e-06  -7.9412624e-05  -1.0498849e-04  -3.4346769e-05  -2.1424190e-04   2.2027720e-04  -4.9859027e-05  -4.6110500e-04  -7.7682512e-04  -4.7619069e-05   5.8039794e-05  -2.0567706e-04   9.7797827e-05   6.3705858e-04   1.8830234e-04   3.1681976e-04   6.7226065e-05  -1.1374948e-04  -6.4493367e-04   9.4698528e-03  -3.6415472e-06  -2.4806499e-05  -2.7041786e-04   1.5729906e-02  -2.7031465e-03  -7.5250384e-03   1.4673651e-04  -2.5715245e-04   8.9538058e-05  -1.5890127e-04
  -1.2853113e-04  -6.6582928e-05  -5.2988165e-05  -1.9253139e-05  -1.1079593e-04  -1.8779430e-04  -5.0786766e-06   3.4063499e-04  -1.8712244e-04  -5.2039948e-05  -4.9109371e-05  -4.3633274e-05  -9.1039554e-05  -9.6276053e-06   2.5649462e-04   4.1830888e-05   9.1961274e-06   1.5174667e-04  -1.4586063e-04   9.8093406e-06   1.0576595e-06  -7.5648633e-05  -1.7158926e-04  -1.7543527e-05  -7.5402153e-05   2.3115669e-04  -1.3278301e-04  -4.0812185e-04  -1.6903163e-04  -1.0726416e-05  -9.1776834e-05  -1.8249899e-04   1.7605515e-04  -2.1285882e-04   1.6174489e-04   6.7694848e-05  -8.4211948e-05  -1.0287787e-04  -1.3150179e-03   5.7340128e-04  -1.9127419e-05  -5.7981917e-05  -3.0368898e-04   1.0983917e-02  -5.6586405e-03   2.1159376e-03   9.1207396e-05  -2.1831835e-04   1.7195115e-04  -2.9936732e-06
  -1.3510308e-04  -7.2019437e-05  -5.6830639e-05  -2.1468761e-05  -1.0818223e-04  -1.2409032e-04   2.4576551e-05  -5.5566896e-05  -2.7415852e-04  -1.6151088e-04  -1.1364977e-04  -1.2345008e-04  -1.3481702e-04  -1.9375342e-05  -2.5707233e-05  -8.5559317e-05   2.6721640e-05   6.8923309e-06  -1.2549810e-04   1.3187730e-05  -6.3456573e-06  -6.0064875e-05  -2.1137796e-04  -5.1440918e-05  -1.7907038e-04   2.0408930e-04   1.9399758e-04  -8.5773558e-05  -1.2198612e-04  -2.9847690e-05   3.9960374e-04  -6.4429085e-05  -2.3668103e-05   3.2023995e-04  -1.7860148e-04  -3.0790383e-04   1.2278788e-04  -1.0600017e-04  -1.8903695e-04   7.0575753e-04  -1.6223066e-04  -8.6888380e-05  -3.4207720e-04  -5.9576384e-03  -5.0978879e-03   1.7836446e-02   8.0777623e-05  -1.0526074e-06  -1.8394352e-05  -2.1183425e-04
  -1.3410051e-04  -7.6744756e-05  -5.0697417e-05  -1.4061039e-05  -9.9472178e-05  -1.0354989e-04  -2.9068915e-05   1.6159056e-05  -1.1785222e-04  -1.5569323e-04  -1.2076649e-04  -1.2812561e-04  -9.5392999e-05  -5.3279262e-05   2.0366146e-04   2.0021062e-04   1.0775755e-05   3.5378930e-06   4.8303878e-05   2.5660925e-06   4.4003109e-06  -6.6996952e-05  -2.3084685e-04  -4.1464777e-05  -1.2635619e-04   2.0576936e-04  -2.1549522e-04  -2.3447274e-04  -5.0993636e-04  -5.7023015e-05   7.8024699e-05   4.0782932e-05   8.1408136e-05   3.5224200e-04   2.4843079e-04  -1.1572713e-04  -7.9971144e-04  -8.7927678e-05  -6.1351224e-04  -3.6450049e-03   5.7395388e-05  -5.2382100e-05  -7.9649726e-05   1.4887334e-02  -1.2353362e-03  -1.2364039e-03   1.9624319e-04  -2.0201228e-04   5.1940169e-05  -2.5007594e-04
  -1.4677740e-04  -7.9756268e-05  -5.9455608e-05  -3.0025114e-05  -1.0878989e-04  -1.1167521e-04  -1.5921563e-04   5.2430940e-05  -2.9352272e-04  -8.1675746e-05  -6.3216081e-05  -6.2000785e-05  -9.5987140e-05  -1.3091341e-04   3.0288310e-04   1.0493905e-04  -4.5128409e-06   7.2448893e-05   4.4351685e-04   2.1457887e-05  -2.3650216e-06  -7.2379677e-05  -2.1690089e-04  -4.7525209e-06   1.6449032e-04   2.3067674e-04   8.3210456e-05  -8.8750130e-05   5.1988265e-04  -3.6130856e-05  -1.2251460e-04  -2.3791040e-04  -2.2402278e-04   3.0290338e-04   1.5684601e-04   2.9349243e-04  -2.2075808e-04  -1.2742521e-04  -3.2002790e-04  -1.9582729e-03  -3.2369982e-04  -6.7048495e-05  -2.3899274e-04  -1.1587028e-03   1.5572237e-03  -2.3277991e-03   6.1422790e-05  -7.3427567e-05  -6.7103683e-05  -1.6889628e-05
  -1.6149365e-04  -8.6726141e-05  -6.8577174e-05  -3.7547412e-05  -1.0703475e-04  -1.0626020e-04  -8.7552376e-05   9.8345598e-05  -2.1178149e-04  -1.7110500e-04  -1.2280789e-04  -1.1489430e-04  -5.2576685e-05   3.9349859e-05  -7.0364331e-05   3.6319540e-04   1.8361320e-06   2.2384383e-04   8.4493404e-05  -5.5677283e-06  -8.4984231e-06  -6.1477323e-05  -1.0426498e-04  -3.3727694e-05  -2.8783394e-04   2.4188173e-04   4.9060480e-05   4.8382106e-05   1.0310268e-04  -2.9507983e-05   7.2901545e-05   4.4515404e-05  -8.5517413e-06  -1.3697421e-04   2.3748614e-04   6.6834525e-04  -2.2511062e-04  -7.0582922e-05  -2.5598600e-04  -1.4119204e-03  -1.1073205e-04  -1.2260646e-04  -1.1939822e-05   2.5040491e-02  -4.0411367e-03   4.5252605e-03   4.0846960e-05  -4.5399982e-05   2.1391819e-04  -5.3896289e-05
  -1.5895469e-04  -8.8241482e-05  -6.2193634e-05  -3.4187906e-05  -9.6682867e-05  -1.3094385e-04  -1.0208369e-04  -1.0478757e-04  -1.4847875e-04  -1.7425658e-04  -1.1924772e-04  -1.2382853e-04  -1.0276671e-04  -5.9518981e-05   2.1613641e-04   5.1502760e-05   1.1507413e-05   1.4262844e-04  -7.9827616e-05  -6.3167031e-06  -4.4741223e-06  -4.3037897e-05  -9.8698452e-05  -6.7876106e-05   1.7442717e-04   1.3795021e-04  -7.4185147e-05  -3.9067995e-04   1.0056559e-04  -4.6211226e-05  -4.4679167e-05   4.9097108e-04   8.3108971e-05   1.3553351e-04   8.1467202e-05  -5.3696387e-04   2.2827744e-04  -1.1170550e-04  -7.3008610e-05   8.9806076e-03  -1.3451376e-04  -9.2412716e-05  -5.7136385e-05   4.6467938e-04  -8.4879436e-04   1.8449641e-04   5.0872550e-05   3.2535911e-05   9.5992065e-05   8.2214123e-05
  -1.6556669e-04  -9.0770089e-05  -8.2105304e-05  -3.9888426e-05  -1.0192851e-04  -8.4952429e-05   1.1278242e-05  -1.4494495e-04  -3.1893206e-04  -3.1638054e-05  -7.4665018e-05  -2.6007394e-05  -1.7325878e-04   9.1805799e-05  -2.7757473e-05   3.4408900e-04  -1.2773948e-05   3.4518034e-05  -7.0785711e-05  -2.4785993e-05  -1.0505521e-05  -3.4745848e-05  -1.4091587e-04  -5.2039642e-05  -6.4011299e-05   6.7103814e-05  -1.4765981e-04  -3.6820973e-04   2.3994874e-04  -8.6357388e-05   5.7369175e-06   1.4873697e-04   3.5029534e-05  -1.2949508e-04   5.9700717e-05   1.5431650e-04  -4.0441134e-04  -1.0707792e-04   1.1996734e-04   1.2468799e-03   1.8490505e-04  -2.5201125e-05   1.2370043e-04  -1.0001088e-02  -6.5120514e-03   9.9576381e-04   8.0309990e-05  -8.3454324e-05   9.5941410e-05  -1.7404596e-04
  -1.8032322e-04  -9.3508388e-05  -8.5869746e-05  -4.6527777e-05  -1.0822818e-04  -1.5661027e-04  -7.4509509e-05   6.7878254e-06  -2.2734521e-04  -1.0060573e-04  -1.0416863e-04  -8.2119950e-05  -1.6573205e-04  -5.5888435e-05   3.5932282e-04   1.6257641e-04   9.1969114e-06   1.5334686e-04   3.0407653e-05  -1.9031815e-05  -1.6103761e-05  -5.0958857e-05  -1.8897391e-04  -7.0461588e-06   2.0799728e-04   9.7393211e-05  -1.0494590e-04  -2.6262674e-04  -2.2071882e-04  -8.0939724e-05   1.8871296e-04  -2.6372366e-04   2.8082011e-05   2.7152317e-04  -9.4791081e-05   4.9960374e-05  -1.1900098e-03  -1.2341150e-04  -2.4147207e-04  -3.9972196e-04   2.2466254e-04  -9.9245350e-05  -3.2004432e-04  -2.8738761e-03   5.1325792e-03   1.7192957e-03   1.2275499e-04  -2.0067269e-04   1.4152298e-04  -2.0296060e-04
  -1.7136081e-04  -9.8089833e-05  -8.1279250e-05  -3.6151061e-05  -9.8994162e-05  -8.6915381e-05  -1.4535953e-04   9.0686990e-05  -2.2376461e-04  -1.9858270e-04  -1.4277088e-04  -1.3447633e-04  -5.8479538e-05   1.0729842e-04   1.5193153e-06  -2.0556913e-04   1.1231217e-05   1.6436340e-04   2.1543112e-04  -1.5264095e-05  -9.4871812e-06  -3.5430792e-05  -1.9622447e-04  -1.0628843e-05  -9.3418523e-05   7.7939127e-05  -2.1907160e-04  -1.2394793e-04  -2.6206716e-04  -6.5911918e-05   1.2755600e-05   5.1448261e-04  -6.3216321e-06   1.4341850e-04   4.9241153e-05   2.1754023e-04  -2.5949275e-04  -7.4804077e-05  -9.2287046e-05   1.8200092e-03   1.6467433e-05  -3.6714919e-05  -3.7021653e-04  -7.8320475e-03   1.4177972e-03  -2.2425570e-03   1.7722682e-04  -2.5043692e-04   5.8025424e-05  -2.2854628e-04
  -1.6589345e-04  -9.8938959e-05  -8.3934952e-05  -4.5322235e-05  -8.6303095e-05  -1.1484294e-04  -3.9130038e-05   1.0586812e-05  -1.6030073e-04  -8.7600038e-06  -8.3016945e-05  -1.5991798e-05  -1.0497039e-04   1.9135181e-04   1.1885299e-04   2.0022529e-04   1.5601967e-05   7.1046238e-06   6.6852830e-05  -3.4238605e-05  -1.0374970e-05  -8.0539203e-06  -9.6002710e-05   2.1577873e-05   1.4007057e-04   9.7065516e-05   2.6992948e-05  -1.3438306e-05   3.7737127e-04  -3.8958417e-05   2.3678552e-04   6.9335234e-05  -1.1477376e-04   5.4631929e-04  -1.4989110e-04  -1.9240986e-04  -7.5501250e-04  -2.5956690e-05  -7.7433698e-04  -4.8101004e-03   8.4645471e-05  -4.0299026e-05  -2.4185638e-04   4.7526369e-03   7.9575722e-04   1.1342835e-02   5.3667747e-05  -2.4201228e-04   2.9784684e-05   2.1033331e-04
