  -7.0415263e-04  -5.7622953e-04  -1.7590538e-04  -1.5853879e-05  -1.9829941e-04  -5.5087998e-04  -1.0548396e-04   3.3116926e-06  -1.0773644e-03  -4.2691710e-04  -1.1026945e-03  -8.1053091e-04  -3.1878584e-04  -3.4420870e-04  -3.7495498e-04   2.9394389e-04   1.1461850e-04   1.4505857e-04  -3.8418930e-05  -2.2049967e-04   3.2561505e-04   3.0005947e-04  -1.1723265e-03  -1.1629694e-03  -9.7638852e-04   2.6492142e-05  -1.8485189e-04  -6.6140946e-04   2.3531531e-04  -4.6617923e-05   1.4944404e-04  -2.4445090e-04   5.2193127e-04   1.8226343e-05  -2.9435815e-04  -9.0175599e-04  -8.1496971e-04   1.4301269e-05  -3.9029776e-04   3.1198107e-03  -5.4109114e-04  -7.6042017e-04  -4.5808317e-04  -3.6986487e-03   1.8109595e-03   1.4658310e-03  -1.0704420e-03  -8.8907644e-04  -5.5726709e-05  -6.1945239e-04
  -8.0193102e-04  -7.4839598e-04  -3.1257397e-04  -1.7186077e-04  -3.1457626e-04  -7.3473447e-04  -3.1164236e-04  -3.2243019e-04  -1.4502056e-03  -9.1322843e-04  -1.4133535e-03  -1.2662451e-03  -6.4197771e-04  -5.2322767e-04  -1.6288250e-04  -2.1300194e-04  -6.9055473e-05   1.4905496e-04  -4.1093957e-04  -3.7640694e-04   1.7959617e-04   1.7908329e-04  -1.4342493e-03  -1.3681368e-03  -9.0258743e-04  -1.0691836e-04  -6.2730740e-04  -6.0650520e-04  -2.8400033e-04  -2.1928299e-04  -7.7946141e-05  -1.2802902e-04   2.1611268e-04   1.4032098e-04  -5.4471148e-04  -1.6870415e-03  -1.3866053e-03  -3.1158783e-05  -1.1349992e-03  -4.6660709e-03  -9.8115322e-04  -9.2380116e-04  -9.3593210e-04   1.2055017e-02   1.4740085e-03  -4.6036514e-03  -1.5301947e-03  -1.4789727e-03  -3.7552419e-04  -8.4785040e-04
  -9.1491692e-04  -8.8834402e-04  -3.2391894e-04  -1.8362155e-04  -2.7448672e-04  -5.8298447e-04  -1.6037302e-04  -8.7368615e-05  -1.1911130e-03  -2.6168674e-04  -1.1901003e-03  -7.2160136e-04  -6.6445564e-04  -4.9465848e-04  -6.2201027e-04  -9.7913980e-05  -1.6949420e-04   2.4564291e-05   6.5100532e-05  -2.7684559e-04   3.1275244e-04   3.1834049e-04  -1.3297322e-03  -1.1700789e-03  -1.1532173e-03  -2.0897716e-04  -1.5804038e-04  -6.0984230e-04  -6.8637572e-05  -1.2383824e-04   6.0999020e-05  -9.2447815e-05   2.5464190e-04   6.2496656e-05  -4.8835849e-04  -8.8188949e-04  -1.3155268e-03  -6.6430410e-05  -7.7072880e-04  -3.8798780e-03  -1.0205534e-03  -4.4430658e-04  -8.2402170e-04  -1.2389936e-02  -2.8844581e-03  -4.3428238e-03  -2.6714648e-04  -6.2461843e-04   5.3934884e-05  -3.2692813e-04
  -7.5718120e-04  -6.3461257e-04  -1.9965816e-04  -2.6588146e-05  -1.8153813e-04  -4.5809551e-04  -1.2040616e-04   1.5961463e-04  -1.0658579e-03  -2.8246624e-04  -1.0694319e-03  -6.9045910e-04  -5.4486596e-04  -4.3815555e-04  -7.7246188e-04   4.4250650e-05  -8.3881314e-05  -1.4432355e-04   2.8767096e-04  -2.1834276e-04   3.3070645e-04   3.1282194e-04  -1.3704449e-03  -1.1519687e-03  -1.1973373e-03  -2.9282653e-04   1.6623731e-04  -7.3930586e-04  -7.7706558e-04  -1.0638632e-04   1.1274882e-04  -5.5519893e-04   4.9512851e-04  -3.8057932e-04  -5.5107707e-04  -5.9584389e-04  -7.9370715e-04  -5.9675185e-05  -8.4343686e-04  -3.1434400e-03  -7.2271068e-04  -6.0769456e-04  -5.9589295e-04   6.5719942e-03  -3.1902574e-03   2.6160537e-03  -7.5068581e-04  -9.8342134e-04   8.8283152e-05  -3.7054368e-04
  -8.1520202e-04  -7.4977614e-04  -2.7572215e-04  -1.5754309e-04  -2.9300532e-04  -6.9592544e-04  -3.3789390e-04  -1.6648175e-04  -1.5167211e-03  -8.3490805e-04  -1.3486668e-03  -1.1548930e-03  -5.9575512e-04  -5.4790516e-04  -7.7276741e-04  -4.1366225e-06  -1.4138620e-04   1.3979567e-05  -4.3229951e-04  -3.2876513e-04   2.0540631e-04   1.8017259e-04  -1.4399047e-03  -1.3540279e-03  -1.1229396e-03  -2.4876060e-04  -3.1615715e-04  -6.2120782e-04  -1.0590936e-04  -2.1583763e-04   6.1682522e-06  -8.3616920e-05   3.1042349e-04  -3.4332188e-05  -5.3636386e-04  -1.0488029e-03  -1.2196299e-03  -1.5544372e-04  -9.4507338e-04  -1.1070470e-02  -1.1817686e-03  -8.9199195e-04  -8.4283110e-04   1.0008175e-02   3.7002664e-03  -9.1504148e-04  -1.4178053e-03  -1.0571976e-03  -3.1760635e-04  -8.2770095e-04
  -9.5736294e-04  -9.2477654e-04  -4.2726408e-04  -3.4023391e-04  -4.5506613e-04  -9.9235552e-04  -5.0973980e-04  -3.8245667e-04  -1.6290944e-03  -1.4347159e-03  -1.6939377e-03  -1.6965102e-03  -1.0304089e-03  -6.9798750e-04  -4.2329865e-04  -1.9078481e-04  -2.0335960e-04   2.6662041e-05  -2.7111324e-04  -5.2640436e-04   7.4557800e-05   3.2682809e-05  -1.5775134e-03  -1.5121289e-03  -1.2699732e-03  -2.8071445e-04  -4.2706996e-04  -4.5327476e-04  -5.8486307e-04  -3.7186546e-04  -6.2402338e-05  -2.5991997e-04   2.9902823e-05   7.1101123e-05  -5.2045140e-04  -4.0568903e-04  -2.1458998e-04  -1.8005661e-04  -1.2331046e-03  -7.3741395e-03  -1.1675491e-03  -7.0879457e-04  -6.3781615e-04   1.0162889e-02   5.0870264e-03   2.8044099e-03  -6.5643369e-04  -9.3895174e-04  -1.0693620e-05  -3.9776997e-04
  -8.3775190e-04  -7.3596591e-04  -2.3370980e-04  -1.3294387e-04  -2.8040312e-04  -6.8625936e-04  -4.0260595e-04  -3.3880357e-04  -1.0981676e-03  -4.0590274e-04  -1.1909488e-03  -7.5439800e-04  -6.4957805e-04  -5.7057530e-04  -7.2343176e-04  -3.1519629e-04  -9.9878846e-05   5.2242021e-06  -2.1103995e-04  -3.1085289e-04   2.9001557e-04   2.3358988e-04  -1.3949260e-03  -1.2777793e-03  -1.3557926e-03  -2.3577099e-04  -2.6143476e-04  -7.1889145e-04  -3.0682885e-04  -2.8619467e-04   8.2858525e-05  -2.3744654e-04   5.3553621e-04  -5.1208085e-04  -4.3300519e-04  -1.1033096e-03  -1.1773027e-03  -2.3288513e-04  -1.0606673e-03   6.6547660e-04  -1.0810338e-03  -7.0419005e-04  -8.6095720e-04   4.0643606e-03  -7.5463403e-04   2.5024780e-03  -7.9565990e-04  -9.7732130e-04  -1.8895714e-04  -3.6514201e-04
  -8.3398708e-04  -7.6748058e-04  -2.6744715e-04  -1.8676309e-04  -3.2412156e-04  -7.8510732e-04  -3.3850508e-04  -1.9039979e-04  -1.3450615e-03  -7.0466823e-04  -1.3350364e-03  -1.0384418e-03  -8.5039675e-04  -5.5700348e-04  -7.3988963e-04  -5.0796094e-05  -2.0088942e-04  -2.0033251e-05  -3.0945346e-04  -3.7457448e-04   2.1966406e-04   1.5010970e-04  -1.4461777e-03  -1.3948674e-03  -1.1134245e-03  -3.5873769e-04  -3.3644636e-04  -8.9525199e-04  -4.9517944e-04  -2.9561005e-04  -2.3304389e-04  -2.1539874e-04   2.0621630e-04  -5.2821293e-04  -5.5487215e-04  -7.7594462e-04  -5.9372332e-04  -1.1847082e-04  -1.5117879e-03  -1.7531853e-03  -1.4048367e-03  -8.4880809e-04  -9.9799165e-04  -8.8756168e-03  -1.6082771e-03   3.2452729e-03  -1.4021373e-03  -1.2939074e-03  -6.4151471e-05  -6.6324271e-04
  -9.5722690e-04  -9.7555574e-04  -4.1905377e-04  -3.4319476e-04  -4.7196608e-04  -9.7477599e-04  -6.7427085e-04  -3.6319924e-04  -1.6868898e-03  -1.2357762e-03  -1.6628442e-03  -1.5259889e-03  -1.0137782e-03  -7.9213257e-04  -7.2083832e-04  -3.2796012e-04  -2.7437496e-04  -1.7021380e-04  -1.2979153e-04  -5.3869258e-04   7.6394077e-05   2.3636016e-05  -1.6661378e-03  -1.6155378e-03  -1.6128024e-03  -3.7255959e-04  -4.0236636e-04  -1.0440391e-03  -2.8575677e-04  -4.9564120e-04  -3.8996141e-04  -1.2634203e-04   1.2351009e-04   2.3873882e-04  -7.9118100e-04  -7.9432939e-04  -7.4181438e-04  -1.4083444e-04  -1.3826453e-03   1.1805193e-02  -1.1666715e-03  -9.8611042e-04  -1.1555378e-03   2.6534949e-03  -9.3355300e-03   1.2378379e-03  -1.0044930e-03  -1.1750357e-03  -3.6591999e-04  -6.9691299e-04
  -8.8112248e-04  -8.8269712e-04  -2.7997108e-04  -1.9106833e-04  -3.5277812e-04  -7.6304271e-04  -3.1193823e-04  -4.4458994e-04  -1.2492900e-03  -4.8459790e-04  -1.2829384e-03  -8.7323505e-04  -8.3370396e-04  -6.7715923e-04  -7.3062925e-04  -3.3773293e-04  -8.1929838e-06   1.8447399e-04  -4.3142278e-04  -3.9496526e-04   2.8359937e-04   4.2050360e-05  -1.3538477e-03  -1.2942267e-03  -9.6544629e-04   5.0131865e-05  -8.3636324e-04  -1.2724587e-03   3.5004321e-04  -3.9866674e-04  -8.1875332e-05  -9.4986521e-05   7.8769932e-05   4.8256310e-04  -3.9548424e-04  -1.8437405e-03  -1.7280775e-03   9.2463815e-05  -1.4555603e-03   1.3091791e-03  -1.4706445e-03  -7.8675785e-04  -1.1431717e-03  -1.0071662e-02  -5.2839802e-03   1.2994414e-02  -9.5110014e-04  -1.3111887e-03  -2.7186284e-04  -7.3709962e-04
  -8.5060904e-04  -8.9722057e-04  -2.9132696e-04  -1.9876834e-04  -3.9961160e-04  -8.8477216e-04  -5.3491839e-04  -4.9226813e-04  -1.4062696e-03  -7.8383932e-04  -1.4281315e-03  -1.1480064e-03  -8.9831062e-04  -9.3711220e-04  -3.2761108e-04  -5.0714123e-04   7.8488418e-05   3.0211848e-04  -2.1304836e-04  -4.6192639e-04   2.1014380e-04   1.5156564e-05  -1.3943146e-03  -1.3862494e-03  -9.2057226e-04   8.7436245e-05  -5.5325613e-04  -1.0653151e-03  -7.2199991e-04  -4.7617979e-04   1.1014719e-04  -1.7595448e-04   1.3825552e-04   4.3191019e-04  -5.5541843e-04  -7.2856771e-04  -1.7895733e-03   6.4308057e-05  -1.4880395e-03   6.2900507e-03  -1.7903128e-03  -9.9307182e-04  -9.4910228e-04  -4.3707751e-03   1.1533513e-03  -9.6708292e-04  -1.5065204e-03  -1.5510004e-03  -4.8822394e-04  -9.2413853e-04
  -9.5510826e-04  -1.0621191e-03  -4.3151784e-04  -3.5467505e-04  -5.4679374e-04  -1.1505581e-03  -7.9588086e-04  -6.8940624e-04  -1.8643680e-03  -1.3551975e-03  -1.7740226e-03  -1.6725226e-03  -1.2207907e-03  -1.2499762e-03  -5.7302241e-04  -4.4949522e-04  -9.1239701e-05   2.7747705e-04  -3.5910102e-04  -5.7566172e-04   5.2606440e-05  -9.1838767e-05  -1.7158269e-03  -1.5515704e-03  -1.3762516e-03  -7.9447644e-05  -6.3579093e-04  -1.0910099e-03  -1.6998842e-04  -6.2037050e-04  -3.8568943e-04  -3.3958643e-04  -1.8856820e-04   6.0861144e-04  -7.2773796e-04  -1.0625747e-03  -1.6062696e-03  -9.8433105e-05  -1.2979445e-03  -3.1652891e-03  -1.3644235e-03  -1.2458069e-03  -9.6434267e-04  -9.6786181e-03   4.0723458e-03   1.2604790e-03  -1.8176590e-03  -1.8468255e-03  -4.5474520e-04  -1.1743688e-03
  -9.8515453e-04  -1.0733077e-03  -3.4230077e-04  -2.5198332e-04  -4.1963544e-04  -9.1375230e-04  -4.9005885e-04  -2.6021930e-04  -1.2214995e-03  -3.3640742e-04  -1.3575085e-03  -7.7920582e-04  -1.0052668e-03  -9.4589911e-04  -7.7918690e-04  -3.7986884e-04  -2.6647261e-04  -1.4758593e-05  -1.8814682e-04  -4.0620100e-04   2.2340308e-04   1.0314330e-04  -1.5692278e-03  -1.0758763e-03  -1.4980505e-03  -5.5857719e-04  -7.0515502e-04  -1.1035090e-03  -1.2559639e-03  -5.2698015e-04   2.0584017e-04  -5.5347156e-04  -1.3150419e-04  -1.9494402e-04  -7.6817058e-04  -1.1123315e-03  -7.1696297e-04  -1.0736351e-04  -4.4701408e-04   8.0518536e-03  -1.1305251e-03  -5.1259279e-04  -9.5310784e-04  -4.7808844e-03   5.2550188e-03  -1.0733441e-03  -4.5622571e-04  -1.2756382e-03   8.4358013e-05  -8.3942903e-04
  -8.6111849e-04  -8.4223703e-04  -2.4686902e-04  -1.0163015e-04  -3.6180770e-04  -8.0395740e-04  -1.7429705e-04  -2.2930048e-04  -1.2846742e-03  -3.7364129e-04  -1.2117422e-03  -7.5098715e-04  -9.5061219e-04  -8.6421607e-04  -3.2150358e-04  -7.6947959e-05  -2.0851579e-04  -1.7438794e-04  -1.2203654e-04  -3.7525772e-04   2.6821761e-04   1.2756349e-04  -1.4321589e-03  -1.1212756e-03  -9.2041498e-04  -3.5473812e-04  -8.6083607e-04  -1.2518289e-03  -1.4058077e-03  -5.1134947e-04  -1.5270745e-04  -2.7613828e-04   2.3740926e-04   2.2937116e-04  -8.1526412e-04  -1.0170660e-03  -1.7414708e-03  -1.2050644e-04  -9.4430003e-04   1.5008831e-04  -9.0782047e-04  -6.6847372e-04  -7.6582696e-04   1.3374735e-02   1.5479031e-03   4.4234791e-03  -7.7796902e-04  -1.4250466e-03  -1.6206699e-04  -1.0079924e-03
  -8.9736748e-04  -9.4327133e-04  -3.3107222e-04  -2.0750018e-04  -4.7366659e-04  -8.6408085e-04  -5.1174226e-04  -2.0365536e-04  -1.4143775e-03  -1.0303996e-03  -1.5399778e-03  -1.2846157e-03  -1.1459537e-03  -1.0809493e-03  -7.7994895e-04  -7.5743016e-04  -1.7465223e-04   8.3830491e-05  -1.8538248e-04  -4.6535087e-04   1.4512517e-04   2.8859947e-06  -1.5052896e-03  -1.3900561e-03  -1.0516250e-03  -2.6177222e-04  -9.2074974e-04  -7.0596754e-04  -1.0479769e-03  -5.9134827e-04  -1.9519744e-04   2.9388451e-04  -1.5843418e-04  -8.5919797e-05  -8.0166536e-04  -1.0622992e-03  -1.6348631e-03  -1.6986117e-04  -1.5786171e-03  -1.8067662e-02  -1.3912586e-03  -9.8345883e-04  -1.2064090e-03   9.5582847e-03   3.5397140e-03   1.0068743e-03  -1.4467178e-03  -1.9895271e-03  -3.1392145e-04  -1.2793673e-03
  -1.0473687e-03  -1.0918127e-03  -4.8315563e-04  -3.6056322e-04  -5.9567555e-04  -1.1247728e-03  -6.6272315e-04  -7.2647014e-04  -1.7521174e-03  -1.1674765e-03  -1.6814858e-03  -1.4319131e-03  -1.2398198e-03  -1.0641858e-03  -7.9407310e-04  -4.0281427e-04  -3.2648747e-04  -1.7149189e-04  -4.0295441e-04  -4.0709658e-04   2.2111405e-04   6.6214503e-05  -1.4114282e-03  -1.2088120e-03  -1.1358543e-03  -3.8887069e-04  -9.4212347e-04  -8.4180344e-04  -7.3030638e-04  -5.9866515e-04  -2.8250393e-04  -3.4785486e-04   9.3015973e-05   1.5169702e-04  -7.7386748e-04  -7.1970397e-04  -1.9220171e-03  -2.3484019e-04  -3.2053021e-04   2.8280369e-03  -1.1951389e-03  -5.7229627e-04  -1.3458619e-03  -6.8353949e-04   3.4771203e-03   3.3712343e-03  -3.1336467e-04  -1.2085183e-03  -2.6576581e-05  -8.9355494e-04
  -8.0967695e-04  -7.4484467e-04  -1.7723841e-04  -3.0797102e-05  -3.3135415e-04  -7.0999382e-04  -3.3459693e-04  -2.0143793e-04  -1.1261583e-03  -4.2007773e-04  -1.1513981e-03  -6.7982479e-04  -6.7499484e-04  -8.8186312e-04  -5.7865726e-04  -2.1124833e-04  -1.5200156e-04  -7.9721955e-05  -2.6032678e-04  -2.1206740e-04   3.1682546e-04   1.8854110e-04  -1.3777809e-03  -9.9165714e-04  -8.2272623e-04  -1.2843749e-04  -4.9031817e-04  -1.0923211e-03  -5.5044907e-04  -4.6163209e-04   3.7166689e-04   1.4334194e-04  -1.5996990e-04   4.4698289e-04  -5.4093922e-04  -6.5653608e-04  -1.6893258e-03  -8.0941012e-05  -1.4362298e-03  -2.4629783e-04  -1.2796958e-03  -6.8572705e-04  -1.0295225e-03  -2.8905587e-03  -4.9094362e-03   2.2055744e-04  -8.1307132e-04  -1.1899086e-03  -3.3656703e-04  -9.7862794e-04
  -8.2765135e-04  -7.9190586e-04  -2.1537353e-04  -8.1836275e-05  -4.0126097e-04  -8.4328640e-04  -4.1133960e-04  -4.2591829e-04  -1.5525429e-03  -8.7469927e-04  -1.3380160e-03  -1.0755548e-03  -1.0168435e-03  -8.3625532e-04  -6.0285185e-04  -3.3460549e-04  -1.1012628e-04   4.8610396e-05  -3.3300524e-04  -2.9832768e-04   2.2780152e-04   1.0194453e-04  -1.4151316e-03  -1.1851024e-03  -1.2037212e-03  -2.3069300e-05  -8.7770895e-04  -1.0579318e-03   1.0039190e-04  -5.1219633e-04  -8.2385421e-05  -2.2680269e-04  -1.3914415e-04   3.9323911e-04  -9.8213332e-04  -1.0685130e-03  -6.1169959e-04  -1.4098105e-04  -1.5007009e-03  -1.1186431e-02  -1.0720973e-03  -1.0807252e-03  -6.8103441e-04   9.4121005e-03  -2.2012636e-03   2.3146833e-03  -1.5315538e-03  -1.5396649e-03  -1.9983515e-04  -1.0941733e-03
  -9.5298578e-04  -9.3511486e-04  -3.5332656e-04  -2.3445433e-04  -5.1864568e-04  -1.0467335e-03  -5.5629440e-04  -5.3022761e-04  -1.6243510e-03  -1.3709089e-03  -1.6207459e-03  -1.5363108e-03  -1.0804111e-03  -8.4073021e-04  -4.9978937e-04  -3.1926922e-04  -2.0958303e-04  -1.0482266e-04  -4.4136503e-04  -5.2698073e-04   7.7330878e-05  -5.4264616e-05  -1.5853673e-03  -1.4007451e-03  -1.0182546e-03  -8.6526677e-05  -1.1189586e-03  -1.2340599e-03  -4.2957146e-04  -6.4400822e-04  -1.6266454e-04   3.2060262e-04  -1.1130676e-04   2.9512765e-04  -7.6580356e-04  -1.2063414e-03  -1.3870059e-03  -2.2754630e-04  -8.8962569e-04  -3.5987608e-04  -1.1437879e-03  -8.4138737e-04  -1.0599955e-03   8.1127919e-03  -3.4444653e-03   3.9127371e-03  -5.1110261e-04  -1.2884319e-03   2.8675879e-05  -7.1699329e-04
  -8.5771055e-04  -7.3579891e-04  -1.7381083e-04  -1.5269341e-05  -3.1488793e-04  -5.9989735e-04  -1.9565123e-04  -4.0860838e-04  -1.1525694e-03  -3.5783005e-04  -1.1367366e-03  -6.2063459e-04  -8.0424768e-04  -8.0487301e-04  -4.6043322e-04  -4.3247337e-04  -1.3263624e-04   9.6026324e-06  -2.6115804e-05  -2.4046066e-04   3.2385028e-04   2.0636947e-04  -1.1575792e-03  -9.7593322e-04  -9.2216657e-04  -1.0884595e-04  -3.8444420e-04  -1.0154529e-03  -7.6919375e-04  -4.4066529e-04  -1.7039763e-05   2.9038524e-04   1.8351960e-04  -2.0222769e-04  -6.1503437e-04  -1.3560557e-03  -1.3038189e-03  -1.0592361e-04  -6.2614266e-04  -8.4957683e-05  -1.3199614e-03  -7.0390012e-04  -1.0968730e-03   5.5778045e-03  -2.0860368e-03   2.1500799e-03  -6.8233989e-04  -1.0962269e-03  -6.6288863e-05  -8.7006617e-04
  -8.1710709e-04  -6.7408639e-04  -1.4888379e-04  -1.2556757e-05  -2.9012497e-04  -7.1472535e-04  -2.0173239e-04  -2.4169376e-04  -1.1726711e-03  -6.1427325e-04  -1.2004254e-03  -8.3524943e-04  -8.0961589e-04  -8.3845324e-04   4.9208313e-05  -2.1550858e-04  -1.3934346e-04  -2.3278128e-04   1.3566390e-05  -2.4817494e-04   2.5756116e-04   2.1081255e-04  -1.2266297e-03  -1.0678800e-03  -1.0197322e-03  -1.7515267e-04  -6.1509782e-04  -5.4629741e-04  -4.5198825e-04  -4.2094223e-04  -1.9981814e-04  -1.7059504e-04  -7.4684525e-05  -1.0489346e-04  -5.8130396e-04  -6.8862864e-04  -1.1344049e-03  -1.4664908e-04  -1.3071940e-03   4.1080224e-03  -1.0595606e-03  -8.7275833e-04  -1.1944872e-03   1.8268936e-04  -1.5732903e-02  -4.6310565e-03  -1.0771099e-03  -1.3618087e-03  -1.7989705e-04  -1.1698748e-03
  -9.2517643e-04  -8.0747542e-04  -2.7861667e-04  -1.7952280e-04  -4.1121457e-04  -9.1673865e-04  -3.6787958e-04  -6.0052448e-04  -1.5075977e-03  -1.1389789e-03  -1.4658483e-03  -1.3127961e-03  -7.1150454e-04  -8.4618648e-04  -6.4130116e-04  -1.7772352e-04  -2.4980924e-04  -2.9636687e-04  -4.1824815e-04  -4.2103053e-04   1.2581899e-04   1.1603196e-04  -1.3304922e-03  -1.2685423e-03  -1.1313042e-03  -2.4518633e-04  -7.1494571e-05  -1.0347302e-03  -2.9678794e-04  -5.4458925e-04  -7.0204034e-05  -7.4619782e-04  -1.3467207e-04   5.8577856e-04  -6.3739292e-04  -1.3415959e-03  -8.6085172e-04  -2.2201182e-04  -5.7886913e-04   1.0526482e-02  -1.3778019e-03  -1.0185533e-03  -1.2700233e-03  -5.0342600e-03   6.2416308e-04   1.2922614e-03  -1.6371190e-03  -1.9895667e-03  -4.0460163e-04  -1.2492596e-03
  -1.0455332e-03  -9.4403164e-04  -3.3255265e-04  -2.5097432e-04  -4.0618854e-04  -8.7414985e-04  -4.4886692e-04  -5.6000910e-04  -1.3377373e-03  -6.4056116e-04  -1.2945879e-03  -8.7325898e-04  -8.5289311e-04  -6.4234360e-04  -4.9115071e-04  -6.3120940e-04  -2.5799853e-04  -3.9848415e-05   5.3708838e-05  -3.3194994e-04   2.4210349e-04   1.8412134e-04  -1.2166214e-03  -1.0661926e-03  -1.0253238e-03  -2.7406518e-04  -5.2118063e-04  -9.8377978e-04  -1.0245314e-03  -4.5195961e-04  -1.2212907e-04  -4.7001863e-04   9.2702285e-05  -2.0560806e-04  -5.5403955e-04  -2.8762250e-04  -1.3454674e-03  -1.2865858e-04  -1.1070165e-03   5.5689563e-04  -1.3184467e-03  -6.2753033e-04  -1.0473628e-03   3.3530390e-03   6.0033589e-03   1.1932317e-03  -5.1386200e-04  -1.2759510e-03  -1.0897646e-05  -4.7255176e-04
  -8.5824181e-04  -6.3924131e-04  -1.8434746e-04  -6.4018968e-05  -2.6845149e-04  -6.6963962e-04  -1.0444435e-04  -3.5921636e-04  -1.1964196e-03  -5.5066589e-04  -1.1197726e-03  -7.4563239e-04  -5.0309882e-04  -5.7832169e-04  -3.8412644e-04  -1.9088786e-04  -2.2266470e-04  -9.7957512e-05  -3.6354532e-04  -2.5284439e-04   2.6184748e-04   2.4368528e-04  -1.0962725e-03  -9.9861238e-04  -7.6087384e-04  -2.7602704e-04  -3.4115647e-04  -1.0461399e-03  -1.0914595e-03  -3.9327593e-04   2.1239433e-04  -6.9913576e-06   7.1055780e-05  -4.0610932e-04  -4.6352655e-04  -2.7345426e-04  -1.1965851e-03  -1.6706623e-04  -6.3278311e-04  -2.4214098e-03  -1.0568568e-03  -7.2998554e-04  -1.1924644e-03   1.0145620e-02   4.3142778e-03  -8.9234943e-03  -9.7616791e-04  -1.2575929e-03   9.1496498e-05  -7.2505139e-04
  -8.9070247e-04  -6.9180009e-04  -2.3982405e-04  -1.5519215e-04  -3.2227830e-04  -7.1343180e-04  -3.5759740e-04  -4.9137190e-04  -1.4295670e-03  -9.4873068e-04  -1.3094569e-03  -1.1031172e-03  -6.8313145e-04  -7.2488753e-04  -4.1111599e-04  -5.9684878e-04  -3.0524138e-04  -4.0462470e-05  -2.4336141e-04  -3.6214973e-04   1.4362732e-04   1.7939872e-04  -1.1667149e-03  -1.1492867e-03  -8.0031797e-04  -3.1809183e-04  -4.7490755e-04  -9.4530336e-04   2.2739936e-04  -4.4464573e-04  -2.9276108e-04   1.1121998e-04   3.1187982e-04  -1.8771128e-04  -5.7020452e-04  -9.3218184e-04  -1.5570924e-03  -2.1443890e-04  -1.7346302e-03  -5.3886757e-03  -9.8917412e-04  -9.5931528e-04  -1.1180305e-03  -1.3330502e-02   1.4283293e-03  -1.0646532e-04  -1.3550487e-03  -1.6199822e-03  -2.6464420e-05  -9.3927019e-04
  -1.0034944e-03  -8.3809614e-04  -3.8845171e-04  -3.1058039e-04  -4.3257675e-04  -8.8662223e-04  -4.0790305e-04  -8.1759505e-04  -1.6302429e-03  -1.2564514e-03  -1.5251939e-03  -1.3989463e-03  -7.0522953e-04  -8.3562406e-04  -2.7679687e-04  -3.5184974e-04  -3.6155499e-04  -2.5496221e-04  -5.1416265e-04  -3.8867281e-04   1.7343450e-04   1.5080042e-04  -1.2294346e-03  -1.0579907e-03  -9.6599601e-04  -3.4052852e-04  -6.8108086e-04  -4.6405644e-04   2.2456491e-04  -4.2055725e-04   1.0055269e-04  -3.2580344e-04  -9.4308598e-05  -1.4232218e-04  -5.6802912e-04  -2.3122913e-04  -1.1778730e-03  -2.7678051e-04  -1.0804067e-03   6.9670044e-03  -1.1411880e-03  -6.6095713e-04  -1.3559622e-03   2.1120906e-03   5.3242208e-03  -1.5164603e-04  -3.5267565e-04  -1.1315719e-03   1.7437550e-04  -3.8925989e-04
  -8.3432079e-04  -5.7844003e-04  -1.7389600e-04  -6.1580329e-05  -2.1953315e-04  -5.6327751e-04  -2.0526645e-04  -2.0699424e-04  -1.1242019e-03  -5.4505729e-04  -1.0516159e-03  -7.3061261e-04  -5.3199596e-04  -6.4855523e-04  -5.2615989e-04  -1.4832495e-04  -1.9889446e-04  -2.3164238e-04  -4.5153829e-05  -2.5599243e-04   2.1703209e-04   1.8344169e-04  -9.6947560e-04  -1.0409278e-03  -5.6932407e-04  -1.9064154e-04  -2.6602836e-04  -8.3444401e-04   5.7555000e-05  -2.7525937e-04  -8.0077210e-05  -3.8071608e-04   5.4133703e-05  -3.5108154e-05  -3.9047061e-04  -1.0102107e-03  -8.8191894e-04  -2.0696312e-04  -5.0328806e-04  -6.2976789e-05  -7.1205565e-04  -7.0480566e-04  -1.0832673e-03   5.0078284e-02  -2.4040475e-02   1.8227868e-03  -7.2039996e-04  -1.1697351e-03   5.8487853e-06  -4.9428770e-04
  -8.4839779e-04  -6.2309217e-04  -2.2129083e-04  -1.4043570e-04  -2.5733709e-04  -5.7720789e-04  -2.5189717e-04  -1.3765112e-04  -1.3497900e-03  -8.5716532e-04  -1.1966024e-03  -1.0175119e-03  -5.6697917e-04  -5.5464607e-04  -2.2953992e-04  -5.9419626e-04  -2.4384541e-04  -3.6352809e-05  -4.1816439e-04  -3.4311684e-04   1.1865172e-04   9.8325196e-05  -1.1669078e-03  -1.2031886e-03  -8.8989135e-04  -2.2928421e-04  -1.5337390e-04  -4.1786363e-04  -1.0981670e-03  -3.5518812e-04  -1.2371856e-04  -2.9485041e-04  -2.1772391e-04  -2.3619877e-04  -5.0713815e-04  -5.4957881e-04  -1.1623034e-03  -1.9545932e-04  -6.7672279e-04  -1.4110795e-02  -1.1096171e-03  -8.9288491e-04  -1.1187590e-03  -2.7631668e-04  -2.0697733e-04   2.4407157e-03  -1.3731436e-03  -1.5632425e-03  -4.0976310e-04  -8.3597779e-04
  -9.5636601e-04  -7.7711639e-04  -3.6436037e-04  -2.9838426e-04  -3.6803997e-04  -7.7920337e-04  -3.7323675e-04  -4.6648001e-04  -1.6469465e-03  -1.2951626e-03  -1.4974395e-03  -1.4468023e-03  -8.5221970e-04  -5.2621274e-04  -3.0874257e-04  -3.4527029e-04  -3.5908609e-04  -3.0815252e-04  -5.2335992e-04  -4.1110671e-04   8.1280865e-05   6.4297223e-05  -1.0949814e-03  -1.1175523e-03  -1.2125315e-03  -3.3905907e-04  -4.7612435e-04  -6.4870517e-04   1.3003198e-05  -3.5525009e-04  -9.3635012e-05   1.0547446e-04  -2.2768679e-04  -1.2595169e-04  -2.8380661e-04  -1.1192797e-03  -9.3807018e-04  -1.4865464e-04  -1.2871128e-03  -1.1260020e-02  -1.2469436e-03  -5.4895069e-04  -9.3265338e-04   6.5115914e-03   1.7325919e-03   5.9783296e-03  -3.3159775e-04  -9.8243100e-04   4.0972904e-05  -5.2176032e-04
  -7.6934381e-04  -5.1928661e-04  -1.1367165e-04  -2.4031453e-05  -1.0115912e-04  -3.8044588e-04  -1.4500196e-04  -3.8822208e-04  -1.0087370e-03  -3.5219188e-04  -9.0256188e-04  -5.7075050e-04  -2.0841260e-04  -2.6377270e-04  -1.3322616e-04   1.6866576e-04  -2.1411400e-04  -1.8031523e-04  -4.2697164e-05  -2.3116771e-04   2.1575401e-04   2.4850032e-04  -8.8181207e-04  -9.6148800e-04  -6.8004156e-04  -2.3639345e-04  -3.8595809e-04  -5.2918668e-04   2.4880242e-04  -1.9558160e-04  -3.0573262e-04  -2.3317299e-04  -2.1029227e-04  -2.2308709e-04  -3.5501827e-04  -2.4060420e-04  -9.2068041e-04  -1.9130573e-04  -1.9302478e-04  -5.8371888e-04  -5.5131613e-04  -5.3422368e-04  -1.0165903e-03  -5.4422892e-03  -3.7139372e-03   2.2234546e-03  -4.3229037e-04  -1.0984868e-03   2.4711399e-04  -3.7980848e-04
  -6.8543764e-04  -5.0349673e-04  -9.4157447e-05  -4.7511439e-05  -9.8181103e-05  -4.3494522e-04  -1.2003723e-04  -9.0418907e-06  -1.1234065e-03  -7.3643849e-04  -1.0444308e-03  -8.3590864e-04  -2.8622683e-04  -4.2719432e-04  -6.7099329e-04  -1.6479238e-04  -2.0033462e-04  -1.7806933e-04   3.5192592e-05  -2.5388031e-04   1.4139338e-04   1.9022332e-04  -1.0386970e-03  -1.0469594e-03  -3.5800482e-04  -1.5614704e-04  -3.7100085e-04  -6.9434562e-04   6.8264577e-04  -2.3928816e-04  -3.1006540e-04   1.7966697e-04  -1.6683818e-05   5.8057094e-06  -4.4052090e-04  -7.2505831e-04  -7.6352240e-04  -1.0826929e-04  -7.4987544e-04   2.7030599e-04  -3.9890801e-04  -7.4516039e-04  -8.1440917e-04   1.2716806e-02  -3.1975301e-03  -5.2408273e-03  -1.1228349e-03  -1.4311218e-03  -7.4772077e-05  -5.5080454e-04
  -7.1577023e-04  -6.4964208e-04  -1.9519329e-04  -2.0658669e-04  -2.0472539e-04  -6.3310587e-04  -2.9110070e-04  -2.2798275e-04  -1.4156384e-03  -1.2167458e-03  -1.2951287e-03  -1.3082974e-03  -6.0097105e-04  -6.0719787e-04  -4.8255431e-04   6.7821478e-05  -2.3507651e-04  -3.3771499e-05  -4.0015986e-04  -3.9685215e-04  -2.2259901e-06   4.3731947e-05  -1.0681298e-03  -1.2529464e-03  -6.1357120e-04  -1.9902361e-04  -6.1217777e-04  -9.6985174e-04  -1.6529452e-03  -3.0436923e-04  -1.9550760e-04  -3.9321947e-04  -8.9786212e-05  -8.0739999e-05  -5.6512695e-04  -7.7307434e-04  -1.0334733e-03  -1.8281874e-04  -6.8783120e-04   7.7521359e-03  -1.0004761e-03  -6.2160264e-04  -9.9217182e-04  -4.5586955e-03   3.4732153e-03   1.4762804e-03  -5.2072667e-04  -1.1176259e-03   2.2751513e-04  -4.7874823e-04
  -6.1221159e-04  -4.7406284e-04  -4.3393808e-05  -1.7609718e-05  -4.7118643e-05  -2.7752880e-04   1.0479619e-05  -1.0557203e-04  -8.0838666e-04  -3.0983004e-04  -8.0611493e-04  -4.9464533e-04  -1.7472843e-04  -2.8416293e-04  -4.4847571e-04   1.7820214e-04  -9.5523785e-05   2.0061423e-05  -2.1145646e-04  -1.2996576e-04   2.4514497e-04   2.3054829e-04  -8.5545296e-04  -8.6921285e-04  -3.7797377e-04  -1.4859717e-04  -5.2597543e-04  -7.5853488e-05  -5.6655688e-04  -8.0283877e-05   4.1872892e-04   2.2198955e-04  -1.7806551e-05  -3.1150677e-04  -4.6304092e-04  -4.2906817e-04  -5.6445942e-04  -6.7412097e-05  -8.6747570e-04   3.1459886e-03  -5.9213489e-04  -3.9916945e-04  -8.2013878e-04  -7.7385269e-03   2.0005496e-03  -1.6282357e-03  -4.1192383e-04  -8.9882960e-04   4.3449050e-04  -2.8405464e-04
  -5.2025093e-04  -3.8153765e-04   2.1324275e-05   1.9200495e-05  -2.5703637e-06  -2.6070757e-04   1.9556173e-05   8.2335311e-05  -1.1349872e-03  -4.7563369e-04  -8.2595984e-04  -6.0429517e-04   3.9559374e-05  -2.9498842e-04  -6.9987786e-05   5.6415021e-05  -4.9419199e-05  -1.2216675e-04  -4.6697320e-04  -1.4499763e-04   1.8258711e-04   1.6131655e-04  -8.2585844e-04  -9.2240452e-04  -5.5966992e-04  -1.5644518e-04  -3.4271405e-04  -7.2330324e-04   1.0592961e-03  -6.2389066e-05   4.7972776e-06  -2.7626752e-06  -1.3780102e-04  -4.3870599e-04  -3.1924585e-04  -5.6473585e-04  -2.0768575e-04  -7.6966957e-05  -3.2036926e-04   2.9200979e-03  -6.4810412e-04  -6.5555860e-04  -6.3540449e-04  -6.0489736e-03   4.7975760e-03  -8.3237613e-04  -9.6169289e-04  -1.0954351e-03   7.1198992e-05  -5.1223719e-04
  -5.7545595e-04  -4.9090694e-04  -8.3778861e-05  -1.1865161e-04  -1.0212999e-04  -4.3983999e-04  -1.9505409e-04  -1.2551318e-04  -1.1950146e-03  -9.2184218e-04  -1.0916877e-03  -1.0266773e-03  -2.5608056e-04  -2.1743389e-04  -6.1349384e-04   1.3067835e-04  -1.0283810e-04   8.4810403e-05  -9.4999312e-05  -2.5115765e-04   6.0407012e-05   6.4491411e-05  -9.7503350e-04  -1.0945175e-03  -7.2325848e-04  -2.1994738e-04  -3.8964389e-04  -3.4801566e-04  -4.6937805e-04  -1.1549961e-04   8.7556009e-06  -1.0139339e-04   2.0234615e-06  -1.2854047e-04  -2.2651552e-04  -2.3232777e-04  -1.0744608e-03  -1.5871844e-04  -1.4033051e-03   1.2604475e-03  -9.9798269e-04  -8.0645917e-04  -5.5641623e-04   8.9362385e-03  -9.3545411e-03  -2.2900479e-03  -9.3157479e-04  -1.1964565e-03   7.9962578e-05  -3.5247349e-04
  -5.3155114e-04  -4.2704825e-04   2.2196306e-05  -1.3047666e-05   2.3425138e-05  -2.8460618e-04  -1.1949518e-05   2.0462257e-04  -8.5856277e-04  -2.8847891e-04  -7.3151657e-04  -4.6322416e-04  -1.5349257e-04  -1.0066001e-04  -4.1336007e-04   8.5645304e-05  -1.8021623e-05   1.1146632e-04  -2.3723565e-04  -1.0768240e-04   2.1825718e-04   1.8271462e-04  -6.3419039e-04  -8.2423358e-04  -5.0345436e-04  -1.1848300e-04  -1.5407703e-04  -3.3213061e-04  -4.8792033e-04   1.2706086e-05   1.0480909e-04   1.0968125e-04  -8.3254934e-05  -3.5230073e-04  -2.2236201e-05   3.2195294e-05  -5.1099123e-05  -1.5782651e-05   2.8192252e-04  -1.1291610e-02  -4.9395970e-04  -3.9761953e-04  -7.0497801e-04   1.3329645e-03  -2.6480788e-03   4.8121633e-03  -2.5533931e-04  -7.4481405e-04   4.6149778e-04  -4.9981981e-04
  -4.1273702e-04  -2.9266140e-04   8.7812543e-05   6.5506763e-05   9.4953233e-05  -6.7573688e-05   2.0480047e-04   3.3510188e-04  -7.9635374e-04  -3.5483093e-04  -6.8290555e-04  -4.7422387e-04   1.7663665e-04  -1.5325182e-04  -1.1472344e-04   4.6151277e-04   2.5067991e-05   1.5636251e-05   2.0738080e-04  -5.6792389e-05   1.9219769e-04   2.3283431e-04  -5.6131463e-04  -7.9472386e-04  -3.3415118e-04  -1.3419564e-04  -3.1650776e-05  -3.4542510e-04   5.3977570e-04   4.7151640e-05  -4.5305482e-04  -9.0304347e-05  -8.4941901e-05  -3.1963229e-04  -2.8344485e-04  -3.6112362e-04  -1.9856566e-04   8.0138443e-06   1.3158532e-04  -5.7680961e-03  -5.4699782e-04  -4.3546088e-04  -7.8728230e-04  -5.7286904e-03  -1.1943958e-03  -9.5010037e-03  -6.3541450e-04  -9.9369162e-04   2.2304741e-04  -3.4192656e-04
  -4.5096516e-04  -3.9266385e-04  -2.0076406e-05  -4.6675126e-05   2.2587037e-06  -3.0369038e-04  -2.5577368e-05   1.2826353e-04  -1.0971968e-03  -7.9412223e-04  -9.3861244e-04  -8.7879645e-04  -8.2483872e-05  -1.2235102e-04  -4.7631544e-04   1.5741448e-04  -7.1858312e-06   6.3545114e-05  -7.9252723e-06  -1.9229380e-04   6.6863911e-05   7.1866234e-05  -8.2755886e-04  -8.7194354e-04  -3.5084639e-04  -1.9704054e-04  -4.6001401e-06  -3.3491608e-04  -4.6363633e-04  -4.6626457e-05   7.9634927e-05  -2.9746356e-04  -1.2716360e-05  -3.4622173e-04  -3.4187766e-04  -5.1617510e-05  -5.3837727e-04  -5.0977553e-05  -6.5258495e-04  -2.7280310e-03  -8.6261245e-04  -6.7290041e-04  -7.9320860e-04   2.8789986e-03  -1.1589269e-03  -3.9932304e-03  -1.0784734e-03  -1.2427055e-03   1.1523707e-04  -5.1000662e-04
  -5.6198804e-04  -5.3079409e-04  -6.1282648e-05  -1.0198727e-04  -7.6319511e-06  -2.6106159e-04   7.5098498e-05   7.3076750e-05  -8.1777020e-04  -3.5449208e-04  -7.8616460e-04  -5.1823322e-04  -7.6698489e-05  -6.5957691e-05  -4.5525024e-04   3.2958397e-04  -6.3013416e-05   3.7217240e-05  -7.6043658e-04  -1.0105373e-04   1.6622178e-04   2.1164359e-04  -6.7268428e-04  -6.8976241e-04  -3.2986980e-05  -2.4399703e-04   1.9134315e-04  -3.2584142e-04   7.7990623e-04   3.4251680e-05   2.1227729e-04   1.7605332e-04   9.3694740e-05  -8.1606663e-04   8.0710139e-05   4.1075642e-04  -2.6435647e-04  -6.3011721e-05  -5.9796392e-04  -1.8388610e-03  -8.0201699e-04  -1.8315324e-04  -4.7244632e-04   2.4135821e-03  -2.6623800e-03  -1.6907249e-03   1.5953447e-04  -6.3940574e-04   6.2173401e-04   1.4583724e-04
  -3.5235312e-04  -2.1648033e-04   1.0274466e-04   1.1568650e-04   1.5344273e-04   4.4441182e-05   2.6849151e-04   3.7506281e-04  -8.1151340e-04  -1.9862512e-04  -5.4056477e-04  -3.2736256e-04   1.4788915e-04   6.5221837e-05  -3.2121074e-04   2.0743128e-04  -6.7770714e-05  -1.3605371e-04   2.2723801e-04  -1.6290753e-05   1.9740434e-04   3.1547298e-04  -5.5404665e-04  -6.1304367e-04  -2.4445978e-04  -2.8959906e-04   2.9711679e-04  -3.7215772e-04   6.9334690e-04   1.5726808e-04  -4.4122204e-05   1.1319194e-04   2.9481178e-05  -3.3795888e-05   3.1446099e-05  -3.2110335e-04  -6.6412066e-04  -4.1522544e-05  -9.7762808e-05  -1.4476651e-04  -2.6030149e-04  -2.7172567e-04  -6.4599258e-04  -1.3809371e-02   2.7623051e-03  -1.4301363e-04  -3.8184053e-06  -7.4265292e-04   3.4792372e-04  -2.5094906e-04
  -3.4844669e-04  -2.5882880e-04   5.5971719e-05   4.4975845e-05   9.7310956e-05  -3.5284265e-05   1.7946416e-04   1.0563320e-04  -8.6033385e-04  -5.6256662e-04  -7.2601566e-04  -6.6489010e-04  -1.2130865e-05   1.9390511e-04  -3.6771980e-04   6.9860998e-04  -8.7296685e-05  -8.8480090e-05  -3.6366913e-04  -9.9920100e-05   8.6323591e-05   2.2576032e-04  -6.3550792e-04  -7.6533924e-04  -1.3336353e-04  -3.2495739e-04  -1.1292793e-04  -4.0347164e-04   8.8358164e-04   6.0011640e-05   2.6996247e-04  -7.0818176e-05   9.3327260e-05   3.2200365e-05  -3.0364346e-04  -7.2683091e-05  -4.2867110e-04  -8.1067832e-05  -9.0000380e-05   2.4421443e-03  -8.6228451e-04  -4.5254151e-04  -7.2822144e-04   5.5514858e-03  -1.3218063e-03   1.1100156e-03  -7.1021833e-04  -9.5271063e-04   1.3486294e-04  -5.1220704e-04
  -4.7416647e-04  -4.3454336e-04  -1.0679587e-04  -1.2137101e-04  -3.9587849e-05  -2.4937058e-04  -1.7061332e-04  -2.1606068e-04  -1.2507566e-03  -1.0641698e-03  -1.0242451e-03  -1.1443347e-03  -2.3951783e-04  -2.1405745e-04  -4.2363018e-04   7.1633126e-06  -2.3058717e-04   4.6102963e-05  -1.8329776e-04  -2.9103490e-04  -6.5050481e-05   5.2057985e-05  -7.7303674e-04  -9.9502469e-04  -5.6050922e-04  -3.6201847e-04  -1.1631765e-04  -2.7273165e-04  -5.9503398e-04  -7.8393809e-05   2.5957539e-05  -9.7874217e-05  -1.4057671e-04  -1.6117221e-04  -3.4224492e-04  -7.7155326e-04  -8.3348865e-04  -2.0931700e-04  -4.4361167e-04   4.2090835e-03  -7.3049823e-04  -1.9859825e-04  -8.1716909e-04  -6.6040852e-04  -1.9620310e-03   9.7602000e-04   7.2018360e-05  -6.9507177e-04   5.9599284e-04  -1.7430737e-04
  -3.7826085e-04  -2.2603758e-04   6.9561698e-05   1.0107191e-04   1.5205733e-04   1.4444058e-04   3.2613933e-04   4.0043547e-04  -4.7321667e-04  -7.0083690e-05  -4.7212062e-04  -2.2975753e-04   9.6474367e-05   1.7279532e-04  -7.5058968e-05   2.6180060e-04  -2.4149967e-05  -1.2990426e-04  -4.6995888e-04  -7.9330111e-06   1.8420321e-04   2.6727040e-04  -5.0159608e-04  -5.8786443e-04  -3.0253927e-04  -1.9266039e-04  -1.5997518e-04  -1.1114867e-04  -5.7456258e-05   1.0808060e-04  -3.1829120e-05   2.6391135e-04   1.8571173e-04  -4.8302434e-04  -5.6319808e-05  -2.1365506e-04  -1.1170077e-03  -6.1666047e-05  -1.0912974e-04   4.3008046e-04  -3.3448017e-04  -2.0761405e-04  -4.8257201e-04   1.9082318e-03  -2.7102414e-03  -4.5208181e-03  -8.6171145e-05  -6.8795384e-04   6.3199532e-04   2.1107135e-04
  -3.1857510e-04  -1.8061585e-04   9.0522553e-05   1.0700677e-04   1.4655753e-04   8.6912238e-05   3.0155215e-04   4.6785048e-04  -8.7003014e-04  -3.8163277e-04  -5.9422309e-04  -4.7376365e-04   7.9763646e-05   1.1198807e-04  -3.7531313e-04   4.4975386e-04  -1.8533285e-05  -1.1240053e-04  -6.9245341e-04  -6.5238470e-05   1.0804069e-04   1.4428560e-04  -6.2064140e-04  -7.2117930e-04  -1.7321159e-04  -1.9614420e-04   4.6155976e-05  -2.2158957e-04   7.1046798e-04   5.3152267e-05  -9.2088681e-05  -5.4937316e-04  -1.3558099e-04  -2.8497842e-04  -1.6927680e-04  -3.1901587e-04  -3.4957900e-04  -7.8860787e-05  -3.7631058e-04   7.8888685e-03  -4.9138226e-04  -4.2865839e-04  -5.4284179e-04  -2.3207946e-03  -5.7345873e-04  -2.3797108e-03  -6.2480359e-04  -9.8005903e-04   1.6280981e-04  -2.3064282e-04
  -4.4949027e-04  -3.3371241e-04  -4.4575019e-05  -4.8556805e-05   6.0948432e-06  -1.4065306e-04   4.2890959e-05   1.0773003e-04  -9.8942698e-04  -8.4836845e-04  -8.9580612e-04  -9.2898792e-04  -1.8478229e-04  -1.9982204e-04  -6.5490277e-04   2.6080047e-04  -6.1785155e-05  -7.6930002e-05  -2.8035036e-04  -1.9439416e-04  -1.8569721e-05  -3.5773473e-06  -7.2068296e-04  -9.5282804e-04  -5.7665800e-04  -2.4192143e-04  -1.8592128e-04  -4.5983866e-04  -2.9649358e-04  -1.0763218e-04   1.0392292e-04   1.7670318e-04   5.1676594e-05  -2.9067678e-04  -2.6069977e-04  -8.2741334e-04  -1.0315626e-03  -1.3475784e-04  -8.3889207e-04   3.7291553e-03  -8.4294955e-04  -6.9936598e-04  -8.3087292e-04   1.1799871e-02   3.5594849e-04   2.0222797e-03  -1.1849813e-03  -1.2466003e-03   2.8715112e-05  -6.6495797e-04
  -6.1710697e-04  -5.8356463e-04  -2.0054006e-04  -2.1581638e-04  -1.2447550e-04  -3.1724383e-04  -4.7276102e-05  -4.1577288e-05  -9.9422457e-04  -6.9636706e-04  -9.4876194e-04  -8.2144828e-04  -2.7004341e-04  -2.6914873e-04  -4.7438688e-04   4.5957699e-04  -3.8945156e-05   7.8992831e-05  -2.7550655e-04  -2.3588591e-04   5.9443217e-05   3.6573441e-05  -5.8818742e-04  -7.3424814e-04  -3.9995418e-04  -2.4703844e-04   5.2515814e-05  -5.4418860e-04   1.4702251e-04  -7.0449278e-05   3.4299446e-04  -3.8335758e-04  -3.1281357e-05  -6.7191155e-05  -2.5150587e-04   1.6802039e-04  -8.9430047e-04  -1.2257903e-04  -6.5704976e-04   3.1426637e-03  -8.6951960e-04  -2.3429673e-04  -8.5588393e-04  -4.5206128e-03  -5.7084709e-03  -4.8484188e-03   1.5997859e-04  -6.2286743e-04   1.3062045e-04  -1.8656750e-04
  -4.1976752e-04  -2.2272448e-04   2.2694525e-05   5.1473995e-05   8.7949113e-05   1.1545496e-05   2.5933521e-04   4.0925812e-04  -6.7739945e-04  -2.8924065e-04  -6.0762349e-04  -4.2349400e-04   5.6106557e-05  -2.6918854e-06  -6.0400768e-04   2.7146656e-04  -6.5790715e-05  -1.8251783e-04  -9.8573888e-05  -1.0338273e-04   1.1554823e-04   1.4653383e-04  -5.4100459e-04  -5.7139073e-04  -1.1216960e-04  -2.8265707e-04   1.3283579e-04  -4.4150130e-04  -1.2607028e-04  -1.2085381e-05   2.9964768e-04  -3.0561385e-04   7.9163765e-05   6.5645972e-06  -2.6874038e-04  -2.5009178e-04   1.7505210e-05   4.2916879e-05  -5.3331663e-04  -7.5596902e-03  -8.5376931e-04  -2.8726706e-04  -7.5535709e-04   1.0092738e-02  -1.2855942e-04  -2.1425831e-04  -3.9626544e-04  -9.3168515e-04   3.6271417e-04  -1.8113763e-04
  -4.6052734e-04  -3.2349309e-04  -4.3751530e-05  -3.6113484e-05   7.4666232e-06  -1.0230701e-04   9.9280856e-05   2.6968191e-04  -9.7133941e-04  -7.1943249e-04  -8.6507708e-04  -8.2399871e-04  -1.9702475e-04  -1.3825482e-04  -3.5796553e-04   3.6697485e-04  -1.0823452e-05  -5.2748590e-05  -2.8399800e-04  -2.4471365e-04   3.0997576e-06   2.9466783e-05  -6.2356831e-04  -7.7526469e-04  -3.5818099e-04  -1.4767212e-04   1.3459416e-04  -3.1853563e-04  -6.1380584e-04  -1.4309764e-04   2.4518004e-04   6.9339134e-05   2.5450264e-04   3.4952516e-04  -3.6030676e-04   1.0078460e-05  -7.2450806e-05  -1.5901705e-05  -3.4248351e-05  -5.5782762e-03  -9.7028288e-04  -6.3905120e-04  -6.7618449e-04  -8.9446986e-03   4.9231676e-03  -4.9371994e-03  -9.7187405e-04  -1.3723859e-03  -1.0077220e-04  -3.2056129e-04
  -5.9468078e-04  -5.0751743e-04  -1.9545000e-04  -2.0903230e-04  -1.1328770e-04  -2.9796499e-04   1.5769831e-07   1.2823990e-04  -1.3441114e-03  -1.1368431e-03  -1.1702658e-03  -1.2548397e-03  -3.9475132e-04  -3.3427545e-04  -5.1629782e-04   1.9780938e-04  -1.9113389e-04  -1.0479453e-04  -3.4350090e-04  -4.3973973e-04  -1.5249546e-04  -1.0884802e-04  -7.7497726e-04  -1.0148793e-03  -6.1041547e-04  -3.1442859e-04  -5.4841622e-04  -9.3078380e-04  -8.4849031e-05  -3.4754234e-04  -7.2651375e-05  -1.4559165e-04  -2.2101229e-04  -3.8934395e-05  -5.2590767e-04  -9.8690507e-04  -7.3641818e-04  -1.3777577e-04  -4.4940857e-04  -4.2110332e-03  -9.1666251e-04  -7.3625491e-04  -1.0890836e-03  -9.9090580e-03  -3.9682277e-03  -3.7363039e-03  -4.3417260e-04  -1.1762091e-03   1.1678055e-04  -3.8955157e-04
  -5.2272889e-04  -3.8948251e-04  -5.2693773e-05  -4.7313079e-05   2.1069580e-05  -2.6146443e-05   2.0958221e-04   2.1793845e-04  -7.7007839e-04  -2.6140900e-04  -7.3869160e-04  -4.5956825e-04  -2.9115789e-04  -2.2818662e-04  -5.8997003e-04   3.6549236e-04  -1.7734789e-04  -9.2934781e-05  -2.1909644e-04  -2.0516157e-04   7.6609962e-05   9.6412805e-05  -7.4284454e-04  -6.4249733e-04  -4.3893285e-04  -3.2353154e-04   7.6478638e-05  -3.4368818e-04  -5.6376477e-04  -2.4357303e-04   5.0786603e-04  -3.1409654e-04  -4.8817852e-05  -1.6452205e-04  -5.4067199e-04  -6.8008312e-04  -8.7089342e-04  -1.4598540e-04  -1.4375382e-03   4.3880818e-03  -9.8702672e-04  -3.6451838e-04  -8.0738234e-04   1.5807299e-02  -2.4465451e-03   3.5717532e-03  -1.5738943e-04  -8.5680909e-04  -5.9630631e-05  -1.5980599e-04
  -4.9380696e-04  -3.2651206e-04  -2.9986057e-05  -1.3755819e-05   3.1571533e-05  -5.5901797e-05   2.5482193e-04   2.4293037e-04  -8.1366801e-04  -4.2236343e-04  -7.5611740e-04  -5.3219678e-04  -2.1342718e-04  -2.8016738e-04  -2.4278324e-04   3.8215704e-04  -2.6855274e-04  -1.8549844e-04  -2.1674264e-04  -1.9629726e-04   1.1920288e-04   1.1454521e-04  -7.4275082e-04  -7.8692025e-04  -6.4896674e-05  -3.7294190e-04  -2.7528411e-04  -5.5577722e-04  -6.1165582e-04  -2.6755992e-04  -5.0683313e-05  -1.1083742e-04   1.6529759e-04  -9.4984629e-04  -3.2568135e-04  -9.8891719e-04  -7.9988741e-04  -3.4250875e-04  -1.2997231e-03   4.7439514e-03  -9.2283811e-04  -5.8064185e-04  -8.7278569e-04  -7.8360122e-03  -3.8092360e-03   5.1085358e-03  -7.3862332e-04  -1.1641131e-03  -9.8898716e-05  -3.5075852e-04
  -5.3962634e-04  -4.6562043e-04  -1.3748700e-04  -1.7531159e-04  -1.0069438e-04  -2.6403798e-04  -6.7682049e-05  -1.1776994e-04  -1.1016517e-03  -9.8629692e-04  -1.0712218e-03  -1.0461598e-03  -5.2090234e-04  -2.1096977e-04  -7.1637164e-04   1.6008223e-04  -4.2302467e-04  -4.6103084e-04  -8.9473143e-04  -3.5597623e-04   1.2897660e-05  -2.3057992e-05  -8.8466326e-04  -9.4996963e-04  -4.3321541e-04  -5.6203565e-04  -2.4255077e-04  -5.6964939e-04  -6.8542408e-04  -4.2499299e-04  -6.6382920e-05  -5.0450896e-04  -3.9514049e-04  -4.5425564e-04  -4.7938770e-04  -4.5485576e-04  -2.3467030e-04  -4.5639969e-04  -1.1325373e-03   1.8947587e-03  -1.2501606e-03  -7.4382505e-04  -1.1882590e-03  -1.6375088e-04   2.4505693e-03   4.7764489e-03  -1.2318047e-03  -1.4028011e-03  -2.2930182e-04  -7.8323390e-04
  -7.2025490e-04  -6.4574153e-04  -3.0525151e-04  -3.6230768e-04  -2.3888232e-04  -4.8702597e-04  -2.0601266e-04  -1.5274303e-04  -1.2053567e-03  -1.0524589e-03  -1.2649717e-03  -1.1434451e-03  -6.5958349e-04  -5.5364333e-04  -7.8075775e-04  -8.7423177e-06  -6.5185857e-04  -2.8271772e-04  -3.6452487e-04  -3.4280444e-04   1.0242737e-04   5.6066976e-05  -7.3607790e-04  -7.9094397e-04  -5.7788088e-04  -7.3571719e-04  -2.7723098e-04  -3.6584146e-04  -3.7702356e-04  -4.2726696e-04  -4.4990133e-04  -4.8271104e-04  -9.3138078e-05  -8.3178736e-04  -4.6309605e-04   2.3947495e-04  -5.2226323e-04  -5.5049331e-04  -6.7983597e-04  -3.8613388e-03  -1.0515430e-03  -3.4751333e-04  -1.2521551e-03   2.4515888e-04  -3.8472789e-03  -5.8947350e-03  -8.3506384e-05  -9.3497231e-04   1.5358743e-04  -1.9436894e-04
  -5.8333203e-04  -3.6763441e-04  -8.6291533e-05  -1.0405966e-04  -4.4205328e-05  -1.2708714e-04   1.2676848e-05   1.0527355e-04  -9.9469814e-04  -4.2801298e-04  -8.2007953e-04  -5.1122799e-04  -3.5176234e-04  -2.6819346e-04  -6.8371737e-04  -1.2125939e-04  -5.8354106e-04  -6.0723402e-04  -4.0450529e-04  -2.2752403e-04   1.8300433e-04   1.7882457e-04  -7.9537882e-04  -7.8366778e-04  -6.2405318e-04  -7.5213733e-04  -1.2351471e-04  -1.9251416e-04  -5.7978858e-04  -4.0323572e-04  -1.9350293e-04  -7.9385459e-04  -2.0339532e-04  -9.3278964e-04  -3.7789150e-04  -4.0328229e-04  -7.4176374e-04  -4.6576353e-04  -1.0124792e-03  -9.8229013e-03  -8.5817336e-04  -4.4175662e-04  -1.1818695e-03   2.4507414e-03  -3.1113550e-03   3.3765261e-03  -4.3780982e-04  -1.0777795e-03   2.7232923e-04  -4.4557019e-04
  -6.6353864e-04  -4.5417764e-04  -1.8016274e-04  -1.8329587e-04  -1.3247300e-04  -2.6996899e-04  -8.8435445e-05   2.9814930e-04  -1.1821064e-03  -7.9786626e-04  -1.0388142e-03  -8.3842449e-04  -6.0829817e-04  -2.4634050e-04  -8.4830547e-04  -4.3896052e-05  -6.8130088e-04  -5.5853778e-04  -2.8049015e-04  -2.9525539e-04   8.4116058e-05   1.2331064e-04  -8.2321552e-04  -8.4859721e-04  -4.8065741e-04  -7.1886607e-04  -4.2039168e-04  -6.9840968e-04  -2.9650019e-04  -4.6671423e-04   7.7037206e-05  -3.6312480e-04  -3.6631583e-04  -1.2034999e-03  -6.5851497e-04  -4.9910392e-04  -5.7885837e-04  -5.8995764e-04  -7.3369796e-04   1.5171428e-03  -1.4533279e-03  -7.1168569e-04  -1.1722709e-03  -1.1741143e-02   4.7923191e-03   8.7609468e-03  -1.1249598e-03  -1.4868391e-03  -3.6327873e-04  -4.0487127e-04
  -8.2263857e-04  -6.3242321e-04  -3.2215237e-04  -3.5728991e-04  -2.7302792e-04  -4.9506669e-04  -1.1647838e-04  -4.1592761e-04  -1.3468348e-03  -1.3089535e-03  -1.3528510e-03  -1.3354659e-03  -7.6326448e-04  -5.0773827e-04  -8.5208897e-04   4.8806120e-05  -7.7420921e-04  -4.6390909e-04  -3.5939986e-04  -4.7722869e-04   1.7050923e-05   4.3023723e-05  -9.6883986e-04  -9.0371515e-04  -9.2459633e-04  -8.1207516e-04  -5.0899910e-04  -5.8984506e-04  -8.6646155e-04  -5.5598910e-04  -2.2322888e-04  -6.0435815e-04  -3.0025127e-04  -1.1434042e-03  -5.3166412e-04  -6.5164451e-05   2.5796307e-06  -5.5589521e-04  -1.0870704e-03  -1.4611956e-03  -7.3160464e-04  -4.3216345e-04  -1.2714535e-03  -6.0856622e-03   7.3444040e-04  -1.1957978e-02  -2.3726269e-04  -1.1138626e-03   1.8925221e-04  -1.5971635e-04
  -7.4544240e-04  -4.5672653e-04  -1.5529270e-04  -1.2690881e-04  -9.3924122e-05  -1.3699874e-04   7.9774793e-05   1.7738233e-04  -1.0250648e-03  -3.8193475e-04  -8.5968676e-04  -4.9803546e-04  -4.6288202e-04  -5.0100579e-04  -4.4681391e-04   5.4199398e-05  -7.0456590e-04  -5.2921812e-04  -2.8171338e-04  -2.7025220e-04   1.4534763e-04   2.4048513e-04  -8.0950605e-04  -7.0584484e-04  -9.3844580e-04  -7.6874258e-04  -6.4049213e-04  -5.5983214e-04  -1.6013953e-03  -4.8553667e-04   1.8072948e-04  -7.8959408e-04  -2.8067260e-04  -1.0520341e-03  -5.2369229e-04  -6.8627816e-04  -9.9714706e-04  -5.6063221e-04  -1.0517215e-03  -7.6901843e-03  -1.4115506e-03  -4.9693475e-04  -1.4808803e-03   1.2048802e-03   1.1273908e-03   1.8244651e-03  -3.9180447e-04  -1.1001248e-03  -8.6263317e-05  -4.8206933e-04
  -7.6408265e-04  -5.1140599e-04  -1.9666870e-04  -1.7567296e-04  -1.3848033e-04  -2.6068115e-04  -9.0482235e-06   4.3236108e-05  -1.1896872e-03  -7.2261260e-04  -1.0178643e-03  -7.8738161e-04  -5.8730377e-04  -2.5213437e-04  -6.2891893e-04  -3.5166091e-04  -7.0345367e-04  -6.0270767e-04  -8.1401336e-04  -3.2768113e-04   6.8731199e-05   1.6269955e-04  -8.9993118e-04  -8.9559442e-04  -4.3586345e-04  -7.0922176e-04  -6.8710983e-04  -6.1806140e-04  -1.1183691e-03  -5.6272687e-04  -1.9432654e-04  -2.3076270e-04  -1.4244324e-04  -9.9854323e-04  -4.8467424e-04  -7.8994292e-04  -1.1795112e-03  -5.1377015e-04  -1.8232461e-04   2.0321314e-03  -1.1473715e-03  -8.5669488e-04  -1.4508417e-03  -1.7752597e-02  -6.6712447e-03   8.0277352e-03  -1.1331842e-03  -1.5812896e-03  -1.0376339e-04  -8.7162846e-04
  -9.0315932e-04  -6.9113047e-04  -3.3739713e-04  -3.4177623e-04  -2.7599133e-04  -4.6692786e-04  -2.2505459e-04   5.1074476e-05  -1.3923493e-03  -1.1093747e-03  -1.2570160e-03  -1.1971960e-03  -5.4237974e-04  -6.6010660e-04  -6.8070873e-04  -2.8001258e-04  -7.4415270e-04  -6.3784304e-04  -1.0040727e-03  -3.5840672e-04   8.9351764e-05   9.0270813e-05  -7.9998421e-04  -7.3578383e-04  -3.8242104e-04  -7.3240971e-04  -2.7387869e-04  -5.4846506e-04  -4.4418123e-04  -5.4805877e-04  -1.6234636e-04  -9.1102562e-04  -4.5777083e-04  -4.5357511e-04  -5.1762286e-04   8.4519088e-05  -1.3166605e-03  -5.0414610e-04  -6.0508458e-04   1.3495388e-03  -5.7858240e-04  -4.2975513e-04  -1.2556351e-03   2.1489020e-02   3.2528157e-03  -3.8655910e-03  -1.3323441e-04  -1.2695044e-03   1.1043220e-06  -2.4649661e-04
  -7.1957620e-04  -4.5383952e-04  -9.0278802e-05  -6.4301392e-05  -4.8697697e-05  -7.7872952e-05  -4.9012699e-05   3.1749639e-04  -1.1029533e-03  -3.3881125e-04  -7.5396814e-04  -4.4261443e-04  -3.4673751e-04  -3.7891945e-04  -6.6639198e-04  -3.3577505e-04  -6.2491850e-04  -5.6065997e-04  -3.9553724e-04  -1.7545183e-04   1.7773690e-04   2.8862848e-04  -6.2385027e-04  -6.5543503e-04  -7.2838418e-04  -5.9344020e-04  -3.5941226e-05  -8.4746385e-04  -1.4285994e-03  -4.2982021e-04  -1.4035621e-04  -3.2658619e-04  -2.9084212e-04  -5.5982609e-04  -3.9573683e-04  -2.2049356e-04  -9.7725762e-04  -4.2002479e-04  -1.0038812e-03   4.5174025e-03  -1.0102856e-03  -4.9325405e-04  -9.2714082e-04  -1.9936068e-03  -4.4750422e-03   3.4191553e-03  -4.1806648e-04  -1.0777424e-03  -2.8393042e-04  -4.2802098e-04
  -7.3191698e-04  -5.1714428e-04  -1.3787860e-04  -1.2846892e-04  -9.4150993e-05  -2.1305082e-04  -3.4010867e-05   6.5064545e-05  -9.5534063e-04  -6.2581839e-04  -9.2932582e-04  -7.2890316e-04  -3.0139310e-04  -2.2744991e-04  -5.1397877e-04   1.1477864e-04  -6.2204839e-04  -6.6300004e-04  -6.4732961e-04  -2.7558877e-04   9.2219329e-05   1.7606845e-04  -7.2190317e-04  -7.7522884e-04  -4.6496099e-04  -6.5164658e-04  -4.1009093e-04  -7.7081937e-04  -1.4097360e-04  -4.9213163e-04   1.0433051e-04  -7.7228626e-04  -2.3330540e-04  -1.1344991e-03  -3.9601550e-04  -5.2554323e-04  -7.8348338e-04  -4.6437897e-04  -9.0434041e-04  -3.3366315e-03  -8.6408923e-04  -7.8116811e-04  -9.0976857e-04  -7.7548218e-03  -5.2871457e-03   1.6295823e-04  -1.0717578e-03  -1.5817238e-03  -3.7257225e-04  -6.7995285e-04
  -8.2092761e-04  -6.8558822e-04  -2.7137829e-04  -2.7583339e-04  -2.2204181e-04  -3.8467059e-04  -2.1548093e-04  -2.0033108e-04  -1.2303459e-03  -1.0910672e-03  -1.2135083e-03  -1.1508602e-03  -6.1962142e-04  -5.1369338e-04  -7.3700957e-04  -7.2085582e-05  -6.8785390e-04  -4.2685209e-04  -9.2759432e-04  -3.1961541e-04   8.5963664e-05   9.7584467e-05  -7.5703242e-04  -6.8232120e-04  -6.3758763e-04  -5.9751648e-04  -4.3042182e-04  -3.2031146e-04  -4.1930794e-04  -4.6411855e-04   7.1041010e-05  -2.7900087e-04  -2.4313018e-04  -9.0200896e-04  -3.9406051e-04  -7.0867909e-04  -7.0620509e-04  -5.0460320e-04  -6.0128811e-04   4.1100434e-03  -5.7385932e-04  -3.6954784e-04  -1.1728770e-03   1.7061667e-03  -1.4097797e-03  -1.1774681e-03  -8.1813516e-05  -1.0953498e-03   3.7176383e-04  -7.3899508e-05
  -5.4527679e-04  -4.0576558e-04   3.4617158e-05   5.2315263e-05   6.3214182e-05   5.7536068e-05   2.4681567e-04   2.0001126e-04  -6.2401925e-04  -9.6305026e-05  -5.9413130e-04  -2.1986634e-04  -3.4277228e-04  -1.1785452e-04  -1.7341117e-04   1.2069946e-04  -5.5638683e-04  -5.2660546e-04  -3.1613541e-04  -6.9140013e-05   2.2593011e-04   3.0960099e-04  -5.2099105e-04  -5.2906276e-04  -3.5646834e-04  -5.2709109e-04  -2.3516540e-04  -2.6120202e-04  -3.3041224e-04  -3.0892549e-04   3.7750101e-04  -1.1903198e-04  -5.1316567e-04  -7.4053265e-04  -3.1126008e-04  -1.8127196e-04  -6.2596088e-04  -3.6163087e-04  -7.2737678e-04  -8.5064617e-04  -8.5283571e-04  -3.6743176e-04  -1.0697268e-03  -1.9756183e-03  -4.3701991e-03  -2.2650755e-03  -2.8574606e-04  -9.7672886e-04   3.1024727e-04  -1.1769727e-04
  -4.7903231e-04  -4.0945437e-04   4.5350462e-05   1.1252829e-05   5.8707265e-05  -5.3404816e-05   2.9046932e-04   1.4527618e-04  -9.4077713e-04  -4.4926815e-04  -7.1847445e-04  -5.1293167e-04  -1.6830763e-04  -1.6491889e-04  -5.0745299e-04  -1.7311340e-04  -4.9067446e-04  -4.0503941e-04   6.0273701e-04  -1.0499977e-04   1.5454317e-04   2.5135453e-04  -6.8329670e-04  -5.9700949e-04  -2.7324673e-04  -5.4249464e-04   9.7014963e-05  -3.3504827e-04  -1.0456028e-04  -3.1451957e-04   2.2747721e-04  -2.3136522e-04  -1.9483433e-04  -4.4130813e-04  -1.6435001e-04  -6.1248831e-04   1.2265348e-04  -3.6663050e-04  -3.5014260e-04  -6.9113225e-03  -8.0097967e-04  -6.0369272e-04  -1.0114089e-03  -6.6718931e-04  -2.1826453e-03  -2.5157316e-03  -8.3767431e-04  -1.1767752e-03  -2.0626803e-05  -3.3121332e-04
  -5.5958342e-04  -5.4849015e-04  -7.1156515e-05  -1.4222559e-04  -5.3387761e-05  -2.5553451e-04   1.2107435e-05  -1.1424512e-04  -1.0964670e-03  -9.0561411e-04  -1.0043330e-03  -9.5059676e-04  -3.2692397e-04  -2.7801309e-04  -4.7111770e-04  -7.5699427e-05  -5.8601634e-04  -5.6673435e-04   1.4005527e-04  -2.4761248e-04   1.3992923e-05   4.4189997e-05  -7.8804593e-04  -8.1067928e-04  -1.8005134e-04  -5.6927523e-04  -2.4965938e-04  -2.8880208e-04  -9.6866256e-04  -3.6024358e-04   1.4498623e-04  -7.1804208e-04  -3.3956513e-04  -5.5829989e-04  -3.9732427e-04  -6.6341565e-04   3.3944601e-05  -4.2259245e-04   3.8413459e-04   4.2970213e-03  -6.2964729e-04  -4.3722239e-04  -9.4199553e-04   5.3601997e-04  -5.1131854e-03   1.0557474e-02  -8.6444648e-05  -8.9444889e-04  -1.4318622e-04  -4.8086551e-04
  -4.3974162e-04  -3.6974676e-04   1.0506393e-04   4.3416785e-05   1.2524429e-04   7.5580327e-05   2.4730098e-04   1.4161486e-04  -5.1058357e-04  -1.3681874e-05  -5.1083718e-04  -1.6530315e-04   4.6778405e-05  -1.2593379e-05  -5.9815199e-04  -1.7318191e-05  -4.3390293e-04  -4.4858194e-04  -1.2677295e-04   1.5711244e-05   2.4355830e-04   3.2122043e-04  -4.7067305e-04  -3.2254722e-04  -1.2515494e-04  -5.7381747e-04  -1.3917479e-04  -2.1571612e-04  -2.7031638e-05  -1.5829105e-04   1.1435605e-04  -2.9299708e-04  -1.4197473e-04  -1.0097561e-03  -3.6471483e-04   2.9684062e-04   1.5520617e-04  -3.9985840e-04  -5.8208389e-04  -2.2152755e-03  -3.3521402e-04  -2.2858429e-04  -7.1305211e-04  -1.9092824e-02  -2.2147078e-04   7.3461784e-03   2.4666544e-05  -7.3609187e-04   4.0157523e-04  -1.0382303e-04
  -3.4489293e-04  -2.8568896e-04   1.4867799e-04   8.5046820e-05   1.7299637e-04   1.7008476e-04   2.2527200e-04   1.3429731e-04  -6.8611302e-04  -1.4835550e-04  -4.8293368e-04  -2.4353815e-04   6.2832798e-05   1.0715381e-04  -5.4804463e-04   5.5176951e-04  -4.7646431e-04  -4.6003971e-04  -2.9868234e-04   1.4362031e-05   1.8185438e-04   3.8028930e-04  -3.8051233e-04  -4.7851010e-04  -3.2317828e-05  -6.3257018e-04  -1.5008560e-04  -9.4623414e-05   1.9744733e-04  -9.1570226e-05   3.1202686e-05  -4.7111040e-05   5.9062066e-05  -1.1918573e-03  -2.3286500e-04   2.8035726e-04  -5.0444057e-04  -4.2418294e-04  -8.6127099e-04  -4.6010097e-03  -6.4466795e-04  -3.3687099e-04  -5.6674582e-04   2.3354157e-03   8.1058834e-03   1.3662723e-03  -4.0373436e-04  -1.0576779e-03  -1.0101235e-04  -5.8788992e-05
  -4.1834998e-04  -3.9256708e-04   2.6229700e-05  -6.5535118e-05   7.5380958e-05  -2.8667479e-05   7.0280871e-06   1.4687076e-04  -7.3181029e-04  -5.9480581e-04  -7.0420589e-04  -6.3693291e-04  -2.9251267e-05   1.6528837e-05  -1.8153388e-04   3.9411700e-04  -5.4163567e-04  -6.2907650e-04  -2.2186086e-04  -7.9046535e-05   5.5045086e-05   1.8921752e-04  -5.1318022e-04  -5.5507931e-04  -3.3508582e-04  -6.9164485e-04   5.4779939e-05  -2.9135266e-04   7.1028853e-04  -1.9284963e-04  -1.1584668e-04  -5.8548909e-04  -1.6258202e-04  -1.3018751e-03  -1.9378542e-05  -3.6563686e-04  -2.5270993e-04  -4.0514139e-04  -9.0344466e-04   2.0378341e-03  -6.2063156e-04  -5.1286339e-04  -9.3142409e-04   6.7032228e-04  -4.8705030e-04   6.0190685e-04  -5.8168417e-04  -9.4490609e-04  -2.8190500e-04  -1.7733373e-04
  -3.8695379e-04  -3.5750138e-04   1.0159709e-04   1.7336164e-05   1.7597324e-04   1.1881680e-04   2.5210617e-04   1.3772154e-04  -3.6859361e-04   6.1825602e-05  -4.0881432e-04  -1.0650686e-04   7.7736877e-05   2.5021119e-04  -4.4565299e-04   3.4498313e-04  -5.0924579e-04  -3.6963305e-04  -2.0211707e-04   3.6486650e-05   1.8873355e-04   3.5310001e-04  -4.5381990e-04  -3.1261961e-04   1.0605809e-04  -6.0881674e-04   3.7037316e-04   9.8788492e-05  -1.6832794e-04  -3.2420925e-05   9.5855132e-05  -9.4845040e-05  -1.9564475e-04  -1.0561832e-03  -5.8975580e-05   2.1666357e-04   7.0271723e-05  -2.8518317e-04  -6.0898461e-04  -3.7829294e-03  -3.0848189e-04  -1.0959170e-04  -5.9382821e-04  -2.4520517e-03  -7.1400055e-03   2.2613315e-03   4.8972150e-05  -7.4892648e-04   1.6191238e-04   3.3098331e-04
  -2.5874280e-04  -1.9933823e-04   1.4506695e-04   8.9615729e-05   2.3040167e-04   2.3672899e-04   3.9213052e-04   4.4404014e-04  -5.2880245e-04  -3.8470575e-05  -3.2687173e-04  -1.4093980e-04   2.4762456e-04   1.5770094e-04  -6.4924819e-04   3.3339349e-04  -4.3041992e-04  -3.8052734e-04   1.0968397e-04   6.5265456e-05   1.5904920e-04   3.2993412e-04  -3.1665241e-04  -3.5990510e-04  -2.4939331e-04  -6.0292071e-04  -3.7740720e-05  -7.9739402e-05   7.7601807e-04  -6.5373702e-06   2.6364622e-04   2.0792591e-04   2.7500635e-05  -1.0502618e-03  -2.2177442e-04  -2.4202176e-04  -3.6921597e-04  -3.3595937e-04  -6.5006046e-05   1.1738950e-03  -3.3064905e-04  -2.1874049e-04  -3.0168542e-04   4.1607949e-03   4.5742918e-04   1.2732429e-03  -2.4209757e-04  -5.6658586e-04   2.5358731e-06  -1.8090353e-04
  -3.0997291e-04  -2.8942872e-04   2.8915461e-05  -4.5235822e-05   1.4492231e-04   1.5316923e-04   1.5409361e-04   2.8450403e-04  -5.7987124e-04  -4.9285631e-04  -5.5233377e-04  -5.2263186e-04  -7.5961952e-06   1.0285831e-04  -4.6683001e-04   2.0159213e-04  -5.2484777e-04  -5.5569544e-04  -2.8995294e-04  -7.6403303e-05   3.4370147e-05   2.4210961e-04  -4.8682952e-04  -4.8594637e-04  -4.6888689e-04  -6.6834281e-04   1.5868543e-04  -4.8223837e-06  -6.3405326e-04  -5.8647376e-05   4.1512481e-05  -2.7339606e-04  -5.8502359e-05  -1.3641713e-03  -1.0163913e-04   3.9550418e-06  -6.6176945e-05  -3.4055641e-04  -5.7226507e-04  -1.0287520e-02  -4.2457372e-04  -3.7146680e-04  -7.9473678e-04  -6.9504417e-03  -1.0584011e-03  -2.8111222e-03  -7.2272279e-04  -1.0907621e-03   1.7416523e-05  -5.5395451e-04
  -4.0238979e-04  -3.9407011e-04   1.6434617e-06  -5.4729280e-05   1.8060781e-04   1.1975038e-04   3.7562117e-04   2.9204244e-04  -4.2905312e-04   6.7350105e-05  -3.3053261e-04  -9.7520860e-05   3.8321194e-04   1.8771882e-04  -3.8802071e-04   4.0211339e-04  -5.1527814e-04  -3.6587572e-04  -7.5439377e-05   4.4590008e-05   1.2616735e-04   2.9438201e-04  -4.3434178e-04  -2.7558659e-04  -3.6795405e-04  -7.0080766e-04   5.0855739e-05  -1.2784054e-04  -4.3179232e-04   2.7597960e-05   2.7226756e-04  -1.5299860e-04  -4.0903909e-04  -7.2659337e-04  -9.6348762e-05   4.3995562e-04  -9.7083808e-05  -3.0837953e-04  -3.3517205e-04   8.0490985e-04  -9.6038377e-05   7.4985866e-05  -3.7789386e-04   9.0711927e-03   1.4849813e-02  -2.8350047e-04   3.8900145e-04  -3.3549065e-04   1.8914820e-04   1.3878533e-04
  -2.2538032e-04  -1.1673860e-04   1.1631434e-04   8.4261526e-05   2.8037318e-04   3.5893149e-04   4.8904761e-04   5.4273906e-04  -1.0855229e-04   8.4130595e-05  -2.0973309e-04  -2.1071350e-05   3.8197666e-04   5.0363957e-04  -4.3678208e-04   3.2839790e-04  -4.2378283e-04  -4.3486783e-04  -1.9003318e-04   8.2404724e-05   1.4299972e-04   2.9390471e-04  -2.3104054e-04  -1.9185783e-04  -7.2939962e-05  -6.5641833e-04   2.1962012e-04  -1.0811882e-04  -5.7132125e-05   9.9941113e-05   2.1160807e-04   4.9784958e-05  -6.2561972e-05  -3.7610481e-04   9.2719209e-05   4.2649620e-04  -1.2659100e-04  -3.4702834e-04  -5.9314241e-04   3.2537782e-03  -3.9977676e-04  -1.7221149e-05  -6.2891847e-04   2.6828833e-03   4.5037423e-03   6.6137947e-03   1.1836322e-04  -4.8692978e-04   1.2641562e-04  -3.7802769e-05
  -2.6213564e-04  -1.8513305e-04   1.8347831e-05  -1.2971453e-05   2.0102812e-04   1.9144356e-04   3.3169828e-04   3.7403245e-04  -4.7421892e-04  -3.7765809e-04  -4.2106485e-04  -4.1967555e-04   3.6415996e-04   2.0475365e-04  -1.9870358e-04   6.2910782e-04  -4.9010088e-04  -3.8090820e-04  -2.2393046e-04  -5.2067251e-05   8.1515191e-06   1.9897641e-04  -4.2296629e-04  -4.1998731e-04  -6.8774571e-05  -6.5808924e-04   7.5559117e-05  -8.2675615e-05  -6.4855785e-04   1.0116982e-05   3.2265054e-04  -7.8196405e-04  -1.2139171e-04  -5.5031758e-04  -2.2030690e-05   1.8419318e-04  -7.9080288e-04  -2.8269211e-04  -6.6731905e-06   4.3710340e-03  -4.7787133e-04  -2.5973684e-04  -6.0249568e-04   1.7682778e-03  -1.2426957e-02   6.6429116e-03  -5.6638871e-04  -1.0599464e-03  -1.9938711e-04  -3.7198802e-04
  -3.7992685e-04  -3.4320063e-04  -1.3981877e-04  -1.9853184e-04   5.3448191e-05   1.2215691e-05   1.2727252e-04  -4.6478446e-05  -7.9260918e-04  -9.0323167e-04  -7.4789964e-04  -8.8260468e-04  -3.1187948e-05   2.2679033e-05  -6.5939245e-04  -4.6087531e-05  -5.2871631e-04  -3.2451743e-04  -4.1928131e-04  -1.1034770e-04  -2.5133020e-05   7.5189149e-05  -4.0505669e-04  -4.1113797e-04  -2.1302221e-04  -5.8538810e-04   1.7956967e-04   2.3507222e-04   5.6520716e-04  -5.8957932e-05   3.9200255e-04  -3.6255957e-04  -3.1060618e-04  -1.3047012e-03  -2.4455777e-04   1.7886997e-04   1.6810993e-05  -3.3439262e-04   1.1764326e-04  -1.9562496e-03  -2.8877010e-04   2.2800203e-05  -3.4523217e-04  -6.0719955e-03  -2.2752183e-03  -1.1099419e-03   2.2518338e-04  -3.4845274e-04   8.8947578e-05   1.8393246e-05
  -2.1381120e-04  -4.7633588e-05   9.9865341e-05   7.7417732e-05   2.9162032e-04   4.0316640e-04   4.1974706e-04   5.3053780e-04  -4.7614783e-04   1.8642654e-04  -1.1141669e-04   8.1947932e-05   5.1197252e-04   3.4672866e-04  -2.6651210e-04   5.8640313e-04  -4.2249067e-04  -3.4721827e-04   1.1446814e-04   1.0287585e-04   1.1932473e-04   2.1706668e-04  -2.3577383e-04  -2.2622917e-04  -1.2193847e-04  -5.8159349e-04   7.5102856e-05  -3.8602750e-05  -1.2822749e-04   1.4201786e-04   1.3108230e-04  -1.9154894e-04   6.9745671e-05  -6.2939018e-04  -9.5387142e-05   3.2394470e-04   4.3219209e-04  -3.3768034e-04   2.8379538e-05  -2.9358184e-03  -5.2169367e-04   4.0202349e-06  -4.7943290e-04   1.2190656e-03  -4.7035990e-03  -2.5473847e-03   2.2225156e-05  -4.8147872e-04   3.0534252e-04   2.6352651e-04
  -2.1761630e-04  -4.4723027e-05   5.6297195e-05   2.5769423e-05   2.5151411e-04   2.8509722e-04   4.9440376e-04   4.6326293e-04  -4.2819887e-04  -1.7672480e-04  -2.1742670e-04  -1.7782810e-04   3.0410266e-04   3.2692519e-04  -6.4352417e-04   7.9315674e-04  -4.6105118e-04  -4.2747977e-04  -1.0169242e-05   1.0759766e-06   5.3986922e-05   1.5693925e-04  -4.2010783e-04  -3.4628727e-04  -5.2778493e-04  -7.1272644e-04   3.5348558e-04  -1.5741106e-04   8.2123338e-04   1.1971132e-04   2.1972765e-04  -5.6469295e-04  -1.4045181e-04  -4.5878740e-04  -3.9258601e-05   4.1197645e-04   1.6021826e-04  -4.5782232e-04   6.3278765e-04  -7.5567453e-03  -3.6896410e-04  -2.2365380e-04  -7.3851919e-04  -7.7954326e-03   4.9170307e-03  -2.5941804e-03  -2.9720005e-04  -8.2764664e-04   4.7800346e-05  -6.0468631e-07
  -3.4062658e-04  -1.9056187e-04  -9.1507383e-05  -1.3378431e-04   1.2370890e-04   1.8661481e-04   1.4791904e-04   3.5563484e-04  -6.6183577e-04  -5.5848254e-04  -4.9739570e-04  -5.7228532e-04   1.4228580e-04   2.4977198e-04  -4.0065954e-04   2.7365534e-04  -5.6775339e-04  -4.1046890e-04  -4.3804682e-04  -1.3038940e-04  -6.4181819e-05   1.3357095e-04  -5.2849815e-04  -4.9608992e-04  -5.4916891e-04  -8.3161326e-04   2.0253839e-05   6.1102986e-04  -4.3158128e-04  -3.7701557e-05   9.1192254e-05  -2.5412071e-04  -5.5571578e-05  -1.2735672e-03  -2.1119929e-04  -2.2823324e-04  -5.6840561e-04  -4.0790756e-04  -6.0901447e-04   5.3661000e-03  -5.9976312e-04  -4.3072962e-04  -6.4159802e-04  -4.2478717e-04  -4.0605976e-03   1.7421214e-03  -4.9751956e-04  -1.0324533e-03  -7.3578565e-05  -3.4937402e-05
  -3.3712058e-04  -1.6994253e-04  -1.0751900e-05  -6.7000365e-05   2.1562167e-04   3.4564093e-04   3.5876711e-04   3.9956727e-04  -3.4605752e-04   1.7439332e-04  -1.5210033e-04   2.1370090e-05   2.2056188e-04   3.2900574e-05  -9.7767066e-04   7.2126603e-04  -5.7479576e-04  -5.8271876e-04  -1.8022832e-04   2.9965347e-06   1.0298606e-04   2.2098635e-04  -1.8634868e-04  -2.2417314e-04  -3.9656201e-04  -7.8271993e-04  -7.2431118e-05  -2.6743161e-04  -2.7959785e-04   5.6834419e-05   1.1349862e-04  -1.5162524e-04   3.1213929e-06  -1.1280734e-03  -1.4628870e-04   1.5173759e-04   1.0665455e-04  -4.3278816e-04  -2.9182434e-05  -1.6992412e-03   2.0994275e-04   6.0802195e-05  -2.1128525e-04   4.2286366e-02  -5.0571730e-04  -5.5996766e-03   3.2842296e-04  -4.5237786e-04   2.6903008e-04   5.3670007e-04
  -2.7580827e-04  -8.5636893e-06   2.5556739e-05   9.1404545e-06   2.4711364e-04   4.1913969e-04   3.0286942e-04   4.2680232e-04  -2.9104998e-04   8.6197309e-05  -9.2572111e-05   9.0405574e-06   4.2548429e-04   2.2604103e-04  -3.7000841e-04   3.5629841e-04  -5.3891033e-04  -5.9700315e-04  -3.6711810e-04   6.1244386e-06   1.0487813e-04   2.3823664e-04  -3.4161817e-04  -2.5033308e-04   1.8139448e-04  -7.9005049e-04   4.0048029e-04   6.2616731e-05  -3.2060550e-05   8.4147890e-05   9.2772818e-05  -1.7795240e-04  -1.9461017e-04  -8.5924478e-04  -1.1118929e-04   2.3166968e-04  -1.9958732e-04  -3.5682967e-04   2.6627036e-04   9.6749718e-04  -2.7819545e-04  -1.2013335e-05  -3.5196444e-04   6.0265060e-03   2.0394649e-03   7.4412709e-04  -1.7386914e-04  -5.2964449e-04  -1.9480231e-04  -9.8959412e-05
  -3.4098641e-04  -1.0890909e-04  -6.8766531e-05  -9.9918863e-05   1.4272067e-04   2.7618461e-04   1.9684521e-04   2.6032430e-04  -6.7435880e-04  -4.1606574e-04  -3.8571365e-04  -4.0821382e-04   2.4517413e-04   2.8187918e-05  -3.6752518e-04   1.6784872e-04  -6.0257316e-04  -4.7147161e-04  -5.7300983e-04  -1.4092098e-04  -9.6141048e-07   1.2126335e-04  -4.4893619e-04  -4.2013975e-04  -6.3534180e-04  -7.4836559e-04  -1.0068657e-04  -2.0345183e-04  -3.4722270e-04  -4.3277005e-06  -2.0084617e-04  -6.9404887e-05  -8.6571650e-05  -1.1707405e-03  -2.4403416e-04   2.8504827e-04  -3.8994427e-04  -3.8408165e-04  -8.8031095e-04   9.6475072e-03  -7.5628562e-04  -2.9267435e-04  -7.4756646e-04   6.5058940e-03   1.3292934e-03   2.0611419e-03  -6.4480875e-04  -9.7506295e-04  -1.8728337e-04  -6.5676402e-04
  -4.2534803e-04  -2.6813950e-04  -1.4142945e-04  -2.1672237e-04   8.7628367e-05   1.5393442e-04   1.9165041e-04   2.0595318e-04  -3.8188955e-04  -1.1349822e-04  -3.0217471e-04  -1.7184416e-04   1.1897676e-04   2.4305760e-05  -8.2944584e-04   3.1769209e-04  -6.0087536e-04  -5.1455153e-04  -5.2869895e-05  -9.7074750e-05   9.0368296e-05   1.7764888e-04  -3.3335097e-04  -2.5754140e-04  -3.6578302e-04  -6.9708796e-04   3.8657055e-04  -9.3439900e-05   8.7651872e-04   3.5465786e-05   5.9937356e-05  -1.3113300e-04  -2.6637304e-04  -8.3696033e-04  -2.2314511e-04   3.1275387e-04  -2.9532719e-04  -3.4307534e-04  -2.4946255e-04   4.5214342e-03  -3.7378728e-04   3.2056647e-05  -5.5597490e-04  -2.6126707e-02  -4.0422836e-03  -1.2522779e-03   3.6902391e-04  -4.5515088e-04   2.1125190e-04   2.8146507e-04
  -2.1796292e-04   3.4171822e-05   5.6974419e-05   5.7049574e-06   2.3564807e-04   3.5983563e-04   4.3976356e-04   4.7273384e-04  -4.1078817e-04   2.8290619e-05  -1.2461962e-04  -9.7334541e-06   2.3290415e-04   5.1661307e-05  -2.0882631e-04   1.7752254e-04  -4.6938093e-04  -4.3867136e-04  -1.1777432e-04   1.8942246e-05   1.4150514e-04   1.6175394e-04  -2.8410507e-04  -2.8185773e-04  -1.7428958e-04  -6.2508637e-04   2.8258489e-04   6.6730143e-05  -5.2810414e-05   7.3016949e-05   6.3658122e-06  -5.6221319e-04  -6.9795475e-05  -8.4840809e-04  -1.5469366e-05   3.7010189e-04  -4.6208545e-04  -3.5657629e-04  -2.5038762e-05   1.2906775e-03  -7.6974952e-04  -1.5600138e-04  -5.7185063e-04  -1.0533672e-02  -1.7947948e-03  -4.9253069e-03  -1.6080038e-04  -5.3004397e-04  -1.5098242e-04   9.8324796e-05
  -2.7552637e-04  -5.7127356e-05   4.0950322e-06  -7.5754680e-05   1.5768655e-04   2.3056855e-04   2.2410833e-04   3.8827807e-04  -5.9886463e-04  -3.8085532e-04  -3.4596835e-04  -3.7244693e-04   5.4460066e-05  -8.8074499e-05  -6.7536643e-04   3.2078061e-04  -5.1609980e-04  -3.9022288e-04   4.7810947e-05  -1.4190483e-04   3.0705054e-05   6.0689265e-05  -4.5980894e-04  -4.0927183e-04  -5.8996526e-04  -6.7263411e-04  -1.8849042e-04  -4.3617658e-04   3.9092143e-04  -5.7697427e-05  -4.6162662e-05  -3.1287840e-04  -3.1758353e-04  -7.9296349e-04  -3.0706811e-04   6.9122011e-04   2.9461732e-04  -4.3628932e-04   4.1961749e-04  -4.3591098e-03  -4.0156941e-04  -4.9458060e-04  -7.6672365e-04  -7.0318679e-04   8.3408868e-03  -4.0254043e-04  -9.4736525e-04  -1.0308080e-03  -3.3674296e-04  -4.3338755e-04
  -4.1742617e-04  -2.4847977e-04  -1.4180185e-04  -2.4755279e-04   1.1382674e-06  -1.4461107e-05   6.5429791e-05   4.1870230e-06  -9.8692614e-04  -8.9678651e-04  -6.9526042e-04  -8.8125927e-04  -2.1004373e-04  -3.4451965e-04  -5.3471292e-04  -1.9250975e-04  -5.8947178e-04  -4.3333505e-04  -5.0250418e-04  -3.1369278e-04  -9.2337512e-05  -8.5152955e-05  -5.7471555e-04  -6.1442930e-04  -7.6499168e-04  -6.8300671e-04  -4.3495627e-05  -4.6381113e-04   1.2002116e-04  -2.0105678e-04  -1.2955796e-04  -5.0675601e-04  -5.5457407e-04  -9.3791005e-04  -1.3370022e-04   3.7641232e-04  -2.1749611e-04  -3.7999093e-04   4.2235342e-04  -6.2847016e-03  -3.5917974e-04  -2.0654322e-04  -5.1621813e-04   4.9528140e-03   3.9362246e-03  -7.0446841e-03   1.2503128e-04  -6.5733201e-04  -2.6878028e-04  -3.0963700e-05
  -2.5341552e-04  -2.6861864e-05   8.0249869e-05  -9.0261346e-06   2.1474349e-04   2.8795577e-04   3.1733789e-04   4.7565103e-04  -1.4508836e-04   2.0380560e-04  -8.5802421e-05   9.8308752e-05   1.7796843e-05  -6.8471469e-05  -4.9709057e-04   2.2277821e-04  -4.5531394e-04  -4.0629721e-04   1.2993372e-04  -1.5365251e-05   1.6318692e-04   1.5553579e-04  -4.5516837e-04  -2.3752428e-04  -6.5164058e-04  -5.9480581e-04   2.6455702e-04  -4.3506090e-05  -2.6285060e-04  -2.2818982e-05  -1.4016659e-04  -7.8836048e-05  -2.5354707e-04  -9.1320527e-04  -2.6871089e-04   1.9130495e-05   5.6644488e-04  -4.0959349e-04  -6.6361163e-04  -1.2448078e-04  -7.7892229e-04  -1.7315474e-04  -6.1853358e-04  -3.0233315e-03  -3.4057030e-03   1.0804640e-02  -1.5578769e-05  -6.6834607e-04  -2.2304617e-04   8.8349574e-05
  -2.4629640e-04  -9.2390064e-06   8.8326517e-05  -5.6437102e-06   1.8427946e-04   2.9666672e-04   3.3441390e-04   2.6468202e-04  -4.3761614e-04  -1.2389863e-04  -2.2381921e-04  -1.2855677e-04   9.3811301e-05   1.0901360e-05  -4.4846619e-04   3.6379270e-04  -4.6515977e-04  -4.7707121e-04  -6.5288384e-04  -9.9987257e-05   1.1922171e-04   1.0296312e-04  -4.4509178e-04  -4.2669629e-04  -5.0670397e-04  -5.9350685e-04   4.1552619e-05   9.8050674e-05  -8.6675776e-04  -1.0247604e-04   1.3278562e-04  -5.3368963e-04  -1.4730811e-04  -8.8426797e-04  -2.6572056e-04   2.2045395e-04   6.7025388e-04  -3.9637065e-04   1.0459672e-04  -1.7351734e-02  -9.5920148e-04  -3.8504059e-04  -8.2264893e-04  -1.0737209e-02   9.7236186e-03  -5.3239190e-03  -7.5233716e-04  -7.7463978e-04  -3.2910713e-04  -6.8506750e-05
  -3.3673571e-04  -1.8510182e-04  -2.5455407e-05  -1.7272960e-04   4.8179361e-05   3.0898907e-05   7.2054172e-05   2.7944270e-04  -5.3465558e-04  -6.3193223e-04  -5.2493537e-04  -6.2218047e-04  -2.5310693e-04  -3.8251191e-04  -9.4987033e-04  -3.6481800e-04  -5.6377536e-04  -5.2451488e-04  -3.9385888e-04  -2.0383310e-04  -8.5927886e-06   2.0078049e-05  -5.7686004e-04  -6.2554888e-04  -8.6491340e-04  -6.1133777e-04  -3.9493731e-05  -1.7072196e-04  -6.9842098e-04  -1.9378896e-04  -1.1590466e-04  -6.2114595e-05  -4.5873798e-04  -4.5422203e-04  -2.1732016e-04   1.1940678e-04  -9.7129101e-05  -4.3726614e-04   3.4907923e-04   3.5356577e-03  -6.0644012e-04  -7.0717098e-04  -7.7404955e-04  -5.0618066e-03   3.0821532e-03  -2.8157188e-03  -1.5084756e-03  -1.1653617e-03  -4.2130169e-04  -8.4119255e-04
  -4.4710640e-04  -3.4455615e-04  -4.9006067e-05  -2.1288086e-04   5.0997030e-05   1.5217764e-05   7.5068718e-05   1.4626408e-04  -3.1704607e-04  -2.8465462e-05  -3.4724700e-04  -1.2146037e-04  -1.3849794e-04  -1.6207404e-04  -5.4341077e-04  -6.5843509e-05  -5.3967518e-04  -5.5441132e-04   1.0769818e-05  -1.0993412e-04   1.2786880e-04   1.1086601e-04  -3.4533464e-04  -3.4146861e-04  -3.6981551e-04  -6.4622663e-04   2.1383243e-04  -4.4088307e-04  -5.0875224e-04  -1.5356021e-04   1.9442367e-04  -3.1312744e-04  -1.6167414e-04  -8.6613075e-04  -3.2277356e-04   5.8530633e-05   5.8414618e-04  -4.1473089e-04   4.9431488e-04  -2.1275689e-03  -8.1274670e-04  -2.0995819e-04  -6.4762664e-04  -2.2323098e-02  -1.2990197e-03   6.7177010e-03  -8.4112275e-05  -3.6654068e-04  -2.7529802e-04   2.1024021e-04
  -2.3009996e-04  -2.3746745e-05   1.3107662e-04  -1.7519009e-05   1.8554942e-04   2.4848597e-04   3.3824524e-04   4.1778752e-04  -2.4464627e-04   4.7993421e-05  -1.8071293e-04  -4.6547634e-06   4.9405469e-05  -2.9198356e-05  -2.1755596e-04   4.1295268e-04  -4.6687599e-04  -3.0667798e-04   5.6462832e-05  -2.2876397e-05   1.8568643e-04   2.0843127e-04  -3.7381967e-04  -3.0461937e-04  -4.5245263e-04  -6.1622664e-04   2.2465450e-04  -1.6059286e-05   3.9677456e-04  -9.5939475e-05   1.6646300e-04  -5.2108604e-04  -3.4585121e-04  -7.0074678e-04  -1.9438178e-04   1.7477188e-04  -2.2020370e-04  -3.6754701e-04  -7.8280241e-04   2.1216362e-03  -3.7653596e-04  -4.2677883e-04  -7.6309108e-04  -5.1723528e-03   5.5700904e-03  -1.2792066e-03  -6.2763866e-04  -5.2839483e-04   4.4375192e-05  -1.8689525e-04
  -2.4294968e-04  -1.0699774e-04   8.3007602e-05  -8.2166211e-05   1.0824985e-04   1.0292562e-05   1.6385941e-04   1.4240197e-04  -4.7747826e-04  -3.7668765e-04  -4.2144355e-04  -3.8474787e-04  -1.6245880e-04  -1.5896313e-04  -5.8503333e-04   2.1685382e-04  -5.0692563e-04  -4.1997893e-04  -8.4267405e-04  -1.2480708e-04   8.4783969e-05   1.0211598e-04  -4.2948200e-04  -4.6164164e-04  -6.3326117e-04  -6.1514816e-04   3.0307189e-04  -1.4150492e-04  -1.0922110e-03  -1.6101754e-04  -9.4024988e-05   5.7263598e-05  -1.7494168e-04  -9.3232415e-04  -3.1108895e-04   2.1203235e-04   8.5147467e-06  -3.8075319e-04  -4.3071053e-04  -3.2216881e-03  -6.6126249e-04  -5.9385772e-04  -9.6689793e-04  -1.2097982e-03  -1.0030745e-02   3.1658444e-03  -1.1413707e-03  -1.0675631e-03  -4.0471429e-04  -3.2668788e-04
  -3.3302529e-04  -2.7311558e-04  -4.2463787e-05  -2.4937952e-04  -2.0330443e-05  -1.0342176e-04   8.3580788e-05   2.0127693e-04  -8.3675183e-04  -8.6017465e-04  -7.2433217e-04  -8.5096201e-04  -3.1527734e-04  -4.2359397e-04  -4.3215512e-04  -8.6456123e-05  -6.3678494e-04  -5.0044281e-04  -5.4319279e-04  -2.7318083e-04  -1.2349289e-05  -2.1518375e-05  -6.5187062e-04  -5.9249683e-04  -4.4660099e-04  -6.6961983e-04  -2.8998629e-04  -4.7619027e-04  -9.0567308e-04  -2.9579617e-04  -1.5257928e-04  -2.3895502e-04  -4.6476917e-04  -1.1557349e-03  -2.7348509e-04  -3.0218500e-05   1.0457484e-04  -3.9094628e-04   5.9078523e-04   8.5347760e-03  -1.2487806e-04  -3.1589513e-04  -6.0421845e-04   6.9862753e-03  -4.5961188e-04   2.4640297e-03  -2.2670033e-04  -6.4911053e-04  -3.0641656e-04   4.1588435e-05
  -1.5661030e-04  -4.8497997e-05   1.8764377e-04  -8.1256239e-06   2.0390328e-04   1.8544930e-04   1.7849419e-04   3.8637376e-05  -2.5653510e-04   1.8237338e-04  -1.3102542e-04   6.9144196e-05   2.8120881e-05  -9.0753529e-05  -7.2693778e-04   2.3488418e-04  -5.2275887e-04  -4.2233418e-04  -5.2305823e-04  -4.5931196e-05   1.9117027e-04   1.9769240e-04  -3.7758934e-04  -3.5864057e-04  -4.5062506e-04  -6.6625758e-04   1.1110128e-04   9.0572299e-05  -4.2408318e-04  -1.3481014e-04   1.3390173e-04  -2.0242296e-04  -4.4096325e-04  -1.1173848e-03  -2.3747988e-04   5.1425118e-04   2.9012986e-04  -2.8445382e-04   3.5517741e-04  -4.4042249e-03  -4.7916602e-04  -2.5960975e-04  -7.3066639e-04   2.5374191e-03  -3.4053968e-03   3.7759074e-03  -2.6185039e-04  -6.3389383e-04  -3.1569431e-05   1.1322424e-05
  -1.2769055e-04  -5.6756464e-05   1.7608772e-04  -2.9713185e-05   1.8395529e-04   2.0951283e-04   2.5947235e-04   2.9369144e-04  -4.3894551e-04  -1.4876756e-04  -2.6211358e-04  -1.8231878e-04  -5.5767148e-05  -1.3930169e-04  -6.8678608e-04   4.6828533e-05  -5.3677935e-04  -4.5252428e-04  -2.7757989e-05  -9.4400311e-05   1.4395099e-04   2.1287389e-04  -4.1189036e-04  -4.6185587e-04  -5.2852515e-04  -6.2122935e-04   2.0081467e-04  -4.2812524e-05  -9.8345045e-04  -2.0828399e-04  -4.7603604e-05   2.8986720e-04  -4.4321954e-05  -9.2179351e-04  -1.3852106e-04   2.8125715e-04  -2.7835229e-05  -2.7930789e-04   2.8534183e-05  -2.2863878e-03  -7.0539594e-04  -4.8215117e-04  -4.7374822e-04  -1.3754852e-02   2.3855567e-03   9.5080873e-03  -8.5113331e-04  -8.7289268e-04  -2.1815745e-04  -1.8826032e-04
  -2.1174262e-04  -2.1738964e-04   4.7400383e-05  -1.8031803e-04   9.3074821e-05  -7.7012810e-05   9.2275797e-05   3.3469147e-05  -6.2124827e-04  -6.1747438e-04  -5.7760999e-04  -6.4204156e-04  -3.4819118e-04  -2.2472694e-04  -5.8637501e-04  -3.5934347e-05  -6.2064262e-04  -5.2594644e-04  -3.7611340e-04  -2.4023429e-04   2.5744171e-06   1.6113062e-04  -5.7006552e-04  -6.5561401e-04  -7.6586200e-04  -7.0893212e-04  -2.6133080e-04  -2.4285649e-04   3.7016362e-04  -3.0499321e-04  -4.8210579e-05  -1.7418519e-04  -5.8435695e-04  -1.1166213e-03  -1.8438685e-04  -3.3526638e-04  -1.8101983e-04  -3.9763239e-04   1.5688891e-04   5.9299654e-04  -8.0011290e-04  -4.8124936e-04  -8.6452102e-04  -6.9155539e-03  -1.7571621e-04  -2.8845523e-03  -3.2093050e-04  -8.6459861e-04  -2.3004638e-04  -3.3350059e-04
  -7.4961899e-05  -7.6868528e-05   2.1273019e-04  -4.4121202e-06   2.6361673e-04   2.3595741e-04   3.4850059e-04   5.2565435e-04  -1.7788027e-04   2.3831913e-04  -1.3447592e-04   8.3828512e-05   2.3452370e-05  -1.3298255e-04  -4.3865910e-04  -1.5813120e-04  -5.2838499e-04  -5.6175777e-04  -1.5953807e-04   1.7465381e-05   2.3971102e-04   3.2886831e-04  -2.5221283e-04  -2.3575054e-04  -6.1975914e-04  -6.5103534e-04  -3.8226040e-05  -1.3096898e-04   1.4506461e-04  -1.6460662e-04   8.2993836e-05  -3.8328994e-04   3.1208692e-05  -8.8090403e-04  -3.3806453e-05   2.1169368e-04   1.8052380e-04  -3.0435968e-04   4.4516608e-04  -2.0718412e-03  -9.8190845e-05  -2.3206606e-04  -7.6082104e-04   1.0134123e-03  -1.4280239e-02   3.6346884e-03  -7.3945266e-05  -6.5757468e-04  -3.7278674e-04  -2.6595817e-04
  -2.9291698e-05  -1.6724227e-05   2.3790171e-04   3.4322322e-05   2.6831302e-04   2.2251470e-04   2.9448379e-04   3.0390359e-04  -3.2627361e-04   7.6480595e-05  -1.5030908e-04  -1.2998176e-05   1.9536784e-04  -6.7299934e-06  -7.5390685e-04   1.3242368e-04  -5.0347298e-04  -4.8483635e-04  -3.6384014e-04  -1.6937431e-05   1.9587664e-04   3.1829067e-04  -2.9587472e-04  -3.1631839e-04  -3.4371667e-04  -6.4467225e-04  -1.2429070e-04   1.1080287e-04   5.0231648e-07  -1.4706216e-04   1.7994559e-04  -5.3501659e-04  -3.1595858e-04  -9.9551328e-04  -2.4083871e-04   4.0103158e-04   5.3041790e-06  -3.0847543e-04  -1.7310248e-04  -1.0583173e-03  -5.2454264e-04  -3.6042085e-04  -6.8423821e-04  -3.0521622e-03   3.4216025e-03   1.7200891e-03  -6.2798627e-04  -9.0159895e-04  -5.2844605e-04  -1.6495568e-04
  -1.0475523e-04  -1.6153614e-04   1.1655515e-04  -1.0890837e-04   1.6708004e-04   5.8783568e-05   9.2864975e-05   4.9257171e-05  -6.4297847e-04  -4.4840234e-04  -4.5550539e-04  -4.9042137e-04  -4.0289501e-06  -1.5906018e-04  -4.7512969e-04  -1.8677049e-04  -6.0896383e-04  -6.3142151e-04   4.5609719e-05  -1.6470189e-04   7.3049756e-05   2.2131599e-04  -5.0242839e-04  -5.7089154e-04  -7.6555181e-04  -7.1721489e-04   1.6956816e-05  -4.2673742e-04   5.0743215e-04  -2.6635404e-04   1.4946898e-04  -1.2221846e-03  -1.7741793e-04  -1.1282716e-03  -3.5531723e-04  -1.5577996e-04   4.2469073e-05  -4.0346192e-04  -5.0869817e-04  -3.5062730e-03  -6.9922872e-04  -6.0824695e-04  -7.6367141e-04  -4.8173917e-03  -1.1202161e-03   1.2763896e-03  -1.1466054e-03  -1.1831465e-03  -3.9063097e-04  -5.9759163e-04
  -1.7264381e-04  -2.9060565e-04   1.1610927e-04  -1.0927560e-04   2.2227432e-04   8.1499820e-05   2.9072110e-04  -9.5351337e-05  -3.1780696e-04   2.1376529e-04  -2.0754825e-04   1.6063706e-05   7.3433621e-05  -2.4498100e-04  -7.1887451e-04   2.2985594e-04  -5.8429089e-04  -5.6365546e-04  -1.9452354e-04  -3.2206641e-05   2.1129983e-04   3.6050420e-04  -2.8645227e-04  -2.3454297e-04  -2.8541713e-04  -7.0014060e-04   9.7830030e-05  -1.8217048e-04   1.2154584e-03  -1.7160464e-04   1.8382349e-04  -3.4602510e-04  -2.1049184e-04  -9.8912371e-04  -1.6924751e-04   4.5878167e-04   5.4191085e-05  -2.3927182e-04   7.1640720e-04  -6.0224682e-03  -3.0795453e-04  -7.6352233e-05  -5.0668768e-04  -9.2765037e-03   3.0104518e-03   7.8470474e-03   7.5572359e-05  -3.3558538e-04  -8.9356166e-05  -6.3478583e-05
   3.7040736e-05   2.3504266e-05   2.6789567e-04   7.1084483e-05   3.4228477e-04   2.4689233e-04   2.9795774e-04   2.8748502e-04  -2.2862169e-04   2.5129973e-04  -5.9497335e-05   9.8545643e-05   3.0107811e-04  -8.3946928e-05  -5.5331708e-04   3.2313951e-04  -4.6135657e-04  -3.2549934e-04  -3.7886424e-04   7.1106209e-05   2.6270654e-04   4.1697925e-04  -2.9031732e-04  -2.2965293e-04  -3.7370328e-04  -6.2529545e-04   4.2221658e-05  -1.2517301e-04  -5.3090905e-04  -9.2294285e-05   4.5945396e-04  -1.7449009e-04  -1.1392043e-04  -1.0148232e-03  -1.2734551e-04   5.5689852e-05  -1.0232148e-04  -2.7546924e-04   1.6752523e-05   6.0152058e-03  -5.4529967e-04  -2.4795739e-04  -4.6778051e-04  -7.2300169e-03  -1.4570304e-02  -8.5178087e-04  -4.6021910e-04  -6.2718440e-04  -1.7444356e-04  -1.5051424e-04
  -3.9284573e-06  -4.1407704e-05   2.0412935e-04  -2.0468788e-05   2.5321738e-04   2.0070479e-04   3.1255998e-04   1.7761966e-04  -2.4953618e-04  -2.4022628e-04  -2.8090825e-04  -2.9588246e-04   2.2821951e-04   1.0640977e-05  -4.2468807e-04   2.1181686e-04  -4.7179253e-04  -3.7776292e-04   3.8998889e-05  -1.8017856e-05   1.4240996e-04   2.8508893e-04  -3.2065966e-04  -3.7783114e-04  -6.5831863e-04  -6.2926905e-04   1.1062051e-04   1.1370843e-04   7.6911092e-05  -1.5877391e-04   3.8489565e-04  -5.9915858e-04  -2.0068382e-04  -1.2502944e-03  -2.0064827e-04   6.6516112e-04   7.4867904e-04  -3.6812315e-04   2.4131271e-04  -1.5045190e-03  -2.1232554e-04  -4.9491186e-04  -6.7930215e-04  -2.1582549e-03   4.8989488e-04  -4.2328783e-03  -1.1767613e-03  -8.2994608e-04  -6.3236710e-04  -4.5690185e-04
  -1.1425652e-04  -1.9208969e-04   5.5545621e-05  -1.8668124e-04   1.1801799e-04  -5.8416754e-05   6.4998007e-05   1.9253189e-04  -4.5691669e-04  -7.2365487e-04  -5.7889166e-04  -7.6245493e-04  -6.9511159e-05  -2.4266054e-04  -7.6516211e-04  -1.7874980e-04  -5.1563000e-04  -2.9930877e-04  -5.6239974e-04  -1.0793637e-04   1.0523631e-04   1.5918507e-04  -4.0934791e-04  -4.2050015e-04  -3.4270572e-04  -6.3442456e-04  -2.4647280e-04   8.3901512e-05   1.4894202e-04  -1.4966859e-04   4.2589550e-04  -9.0853509e-06  -3.4654871e-04  -1.0481429e-03  -1.3343512e-05   4.1851538e-04  -4.4262334e-04  -3.6217645e-04  -5.5380579e-04  -5.7853712e-03  -1.3577558e-04  -1.5200870e-04  -5.8569905e-04   4.7368594e-03   7.9152593e-03   4.0452178e-03  -9.9141616e-05  -2.4930824e-04  -2.3025807e-04   1.5355251e-04
   7.2320021e-05   6.0393199e-05   2.9060384e-04   7.6364020e-05   3.3634953e-04   2.9753294e-04   5.1180768e-04   4.4561597e-04  -1.9691946e-04   2.6029767e-04   1.0377295e-05   1.3557625e-04   2.7949811e-04   2.7654113e-04  -4.7499061e-04   7.4605182e-06  -2.8282838e-04  -3.7151854e-04  -2.3834259e-04   1.0913781e-04   2.5541673e-04   2.5170707e-04  -2.6057806e-04  -1.7752005e-04  -5.8965076e-04  -4.6752961e-04   3.3207342e-04  -1.1351674e-04  -1.3017679e-04   3.0533070e-06  -1.0648258e-04  -6.3161024e-05   5.7864003e-05  -5.7645404e-04   6.9118971e-05  -4.9961579e-04   1.9928517e-05  -2.3697581e-04   2.5321357e-04  -3.8987016e-03   1.9555167e-05  -2.1453408e-04  -3.3150896e-04   8.6048273e-03  -6.9518709e-03   1.5917066e-03  -2.9598849e-04  -1.4764679e-04  -1.4159827e-04  -7.2658448e-05
   4.6122383e-05   2.1749285e-05   2.2265503e-04   5.7675893e-06   2.6439171e-04   1.4060413e-04   2.9466435e-04   5.5798213e-04  -2.8747518e-04  -1.9595682e-04  -2.1272447e-04  -2.2267559e-04   1.4537809e-04   1.3202082e-04  -1.6932146e-04   1.6563774e-05  -1.2161169e-04  -1.9068508e-04  -2.5704481e-05   3.9575687e-05   1.7934089e-04   1.6292215e-04  -3.0499537e-04  -3.5342723e-04  -4.8477727e-04  -3.0130349e-04   1.2713950e-04   3.1931867e-04  -1.9388353e-04  -1.4288763e-06   1.4404436e-04  -7.7731311e-05  -1.1818504e-04  -6.9433125e-04   5.1382642e-05  -7.0921524e-05   2.0730132e-04  -1.7081801e-04  -3.5268709e-04  -2.6925504e-03  -1.4074516e-04  -4.2996689e-04  -4.1419434e-04  -5.6643860e-04  -1.3152246e-03  -3.8476163e-03  -1.0005579e-03  -6.9804298e-04  -2.3321828e-04   1.1728235e-04
  -4.8197231e-05  -1.3539514e-04   8.3991916e-05  -1.4007457e-04   1.5011318e-04   2.9878176e-05   2.5259124e-04   1.8429258e-04  -4.8530407e-04  -5.8383244e-04  -4.7945214e-04  -6.1689393e-04  -6.9007307e-05  -5.8440492e-05  -3.8707271e-04  -4.6559449e-05  -2.4205526e-04  -3.3898381e-04  -4.3454010e-04  -1.0089429e-04   4.5264504e-05   4.1111252e-05  -4.2297103e-04  -4.8496528e-04  -4.9321790e-04  -4.0244820e-04  -2.4570929e-04   2.3333752e-04   1.1311766e-04  -1.2359285e-04   4.0141153e-04   3.7299772e-04  -1.3358092e-04  -7.3413062e-04  -1.3918801e-04  -1.9947725e-04  -5.4231065e-04  -8.2988445e-05   1.2010288e-03  -1.1370921e-02  -3.3858154e-04  -2.4781708e-04  -2.9443551e-04  -4.5996862e-03  -3.0491333e-03  -1.8709331e-03  -2.2915706e-04  -3.5476964e-04  -1.6257724e-04  -3.8500373e-05
   1.0775170e-04   6.0327649e-05   2.7151886e-04   5.4555458e-05   3.4004406e-04   3.2102258e-04   4.3058340e-04   2.8614301e-04  -5.7142970e-05   3.0289061e-04   4.1087192e-06   1.6249836e-04   1.8592173e-04  -1.9528354e-05  -4.0478315e-04   2.0293663e-04  -9.6082287e-05  -1.1775517e-04   1.1358114e-04   1.4716128e-04   2.5650530e-04   2.5695885e-04  -1.3226857e-04  -1.3374227e-04  -1.7489794e-04  -3.0723435e-04   5.8608997e-04   1.5043572e-04  -3.2582812e-04   8.8886074e-05   5.0679001e-04   2.1545368e-04   4.3347150e-05  -3.8603501e-04   1.0985128e-04   4.5573275e-04   4.7651181e-05  -1.5964323e-04   5.7979010e-04   3.4973656e-03  -2.0914122e-04  -1.6203895e-04  -2.7382441e-04   7.9364600e-03   9.4897090e-04   5.2311267e-03  -2.8102030e-04  -1.3070313e-04  -1.5959007e-04   4.2357983e-04
   1.3837917e-04   9.4571602e-05   2.6296906e-04   6.6830515e-05   3.2134727e-04   2.8708272e-04   4.5109700e-04   1.6214472e-04  -1.1364642e-04   2.7853703e-05  -8.5729844e-05  -4.2617648e-05   2.9372095e-04   1.8871583e-04  -2.7997608e-04   5.0305927e-05  -1.1660733e-04  -1.0988355e-04   2.2799720e-04   9.6938616e-05   2.0640707e-04   2.4176315e-04  -1.3987107e-04  -2.3517816e-04  -3.2365959e-04  -3.3083366e-04   1.6113295e-04   8.3968363e-05  -1.0510084e-04   8.7888708e-05   1.7380828e-04   2.7405380e-04   1.2632074e-04  -7.5478927e-04   3.3242581e-05  -4.3220105e-04  -6.5867812e-04  -1.7562305e-04   5.0541118e-04  -2.6419670e-03  -4.2797619e-04  -2.6591218e-04  -1.6883103e-04  -3.0339925e-02   1.6168676e-03  -6.1985588e-04  -6.5149227e-04  -1.2652838e-04  -2.0038112e-04  -6.5506661e-05
   4.7784546e-05  -5.5094963e-05   1.3181398e-04  -7.6557226e-05   2.2726798e-04   1.6459687e-04   2.2277227e-04   3.0840625e-04  -2.7814653e-04  -3.9262217e-04  -3.4134253e-04  -4.3827892e-04   2.0342274e-04  -8.8825880e-05  -1.2307260e-04   2.6748900e-04  -2.0740948e-04  -1.0466141e-04  -4.7529730e-04  -1.1813460e-05   6.7522364e-05   1.4330116e-04  -3.5001908e-04  -3.8075534e-04  -1.2572712e-04  -3.1895874e-04   4.9513037e-04   8.1411403e-05   5.4508296e-04  -1.6975306e-05   1.5492045e-04   4.6020004e-04  -5.2839569e-05  -1.0099264e-03  -3.6519210e-05  -3.4541368e-05   2.5760266e-04  -1.3380885e-04   6.1594846e-04  -7.8261146e-05  -1.9402753e-04  -4.3887537e-04  -3.2606101e-04  -1.0823521e-02  -3.2526127e-03  -1.3322099e-03  -4.3781442e-04  -2.5422123e-04  -2.8227395e-04  -4.0680938e-05
   1.1860101e-04   1.7207611e-05   2.5007533e-04   5.5628661e-05   3.4048766e-04   3.8716174e-04   4.1666842e-04   2.6486165e-04  -1.4707084e-04   3.5741020e-04   9.9014951e-06   1.7403445e-04   2.7294323e-04   1.1801349e-04  -7.0276110e-05   3.7467311e-04  -9.0941954e-05  -2.5014457e-04   2.2694800e-04   1.5346594e-04   2.5292384e-04   2.3994010e-04  -7.8239093e-05  -9.4504830e-05  -1.1957274e-04  -1.9939667e-04   4.7449651e-04   7.7123754e-05   1.8607819e-04   1.5883346e-04   1.5187090e-04   1.0354989e-03  -9.1414135e-05  -4.8880576e-04   2.0808914e-04   2.6827261e-06   9.2375610e-04  -1.0388646e-05   4.9695559e-04  -1.4252693e-03   4.7517365e-06  -4.6373712e-05   1.1388053e-04  -3.8447597e-03   1.6880931e-03  -3.6670002e-03  -9.7423777e-05   1.6521043e-04  -5.1886302e-05   3.0136979e-04
   1.8691037e-04   1.5139935e-04   3.0534924e-04   1.2201962e-04   3.7289143e-04   4.2259309e-04   4.9865153e-04   1.7436856e-04   5.6235138e-05   1.9563145e-04   4.3328117e-05   1.1368515e-04   4.8261386e-04   2.6563408e-05  -2.5151623e-04   2.6351618e-04   2.8545255e-05  -1.0574120e-04   1.3472766e-04   1.7394514e-04   2.3991546e-04   2.2691510e-04  -7.2843854e-05  -1.7911034e-04  -4.8614648e-04  -1.3903371e-04   3.3431663e-04   5.3924765e-04   1.2678747e-03   2.1009818e-04   3.1098613e-04   7.9821832e-05   2.7008177e-04  -2.0092630e-04   2.5152680e-04   3.5011594e-04  -1.7661669e-05   4.7436049e-05   6.3452846e-04   3.9528124e-03  -1.7941133e-04  -2.4201452e-04   2.8994753e-05   2.0155688e-03  -9.2258090e-03  -1.9924203e-04  -5.9835066e-04  -3.0783249e-05  -1.6039280e-04   4.6071535e-04
   1.2739851e-04   3.4081389e-05   2.0522582e-04  -2.2946069e-05   2.7125591e-04   2.4487555e-04   2.9411097e-04   2.0640592e-04  -1.7549659e-04  -3.3781133e-04  -2.6254728e-04  -3.4633366e-04   2.3095890e-04   4.8528520e-05  -5.1979133e-04   6.4490008e-04  -6.4648484e-05  -1.5115509e-04  -1.5069084e-04   6.4445070e-05   1.1587480e-04   1.4499768e-04  -2.6662354e-04  -3.6629988e-04  -2.8155220e-04  -2.0011493e-04   1.5460323e-04   1.7118895e-04   5.7937334e-05   9.1435439e-05   4.0756533e-04   2.9967134e-04   5.5658969e-05  -7.4347790e-04   3.6085097e-05   2.1723381e-05   5.2456703e-04  -2.0462414e-05   1.2301175e-03  -4.4251843e-03   7.4835858e-05  -4.0252143e-04  -9.5711213e-05   9.5355511e-03  -2.0596576e-03  -1.9564040e-03  -8.8331260e-04  -3.1112815e-04  -3.5228222e-04   2.2638225e-05
  -1.2776328e-05  -1.5176387e-04   4.3109096e-05  -1.9353093e-04   1.4127651e-04   7.0972652e-05   3.2340924e-04  -1.2584303e-05  -4.5615042e-04  -6.0109090e-04  -4.9421116e-04  -6.3153985e-04  -1.0954712e-04  -1.7492389e-04  -3.8546609e-04   1.5938173e-04  -1.7751550e-04  -2.7303663e-04   3.0633880e-04   1.6053578e-05   1.3724971e-04   1.5899993e-04  -1.8351071e-04  -3.1841619e-04  -3.6820897e-04  -3.5061128e-04   5.0664513e-04   1.2664927e-05   1.2334511e-05   1.5426723e-04   3.5906333e-04  -4.5171057e-04   1.3122880e-05  -7.0395425e-04  -5.4418000e-05   4.5124028e-04  -2.0222231e-05  -6.8544163e-05   1.0210021e-04  -7.2193956e-03   2.2386450e-04   2.7469276e-05   2.8558946e-04  -6.5175495e-03  -1.1196064e-03   5.0914935e-03   2.5759649e-04   1.2696662e-04   2.8206423e-04   5.9109059e-04
   1.7884023e-04   1.5554388e-04   3.0441472e-04   1.1168997e-04   4.0333919e-04   4.4165846e-04   4.7285474e-04   4.9044611e-04  -6.4351087e-05   2.3634984e-04   6.3427935e-05   1.3567183e-04   4.2067253e-04   2.6769715e-04  -5.8537803e-04   2.4573685e-04  -5.7489291e-05  -3.3496603e-05   2.2125231e-04   1.7979892e-04   2.1683350e-04   2.5411294e-04  -1.6489056e-04  -1.4751228e-04  -1.1372048e-04  -2.7624078e-04   4.7994113e-06   3.4013597e-04   1.0917338e-03   2.2174335e-04   3.8831684e-05  -1.2919192e-04   3.6289071e-05  -5.2388571e-04   9.2383729e-05   4.5315485e-04   2.6697974e-04  -5.9993552e-05   8.7831519e-05  -1.0680195e-03  -6.8114598e-05  -3.7536680e-05   9.7234915e-05   3.9811893e-03   1.5629243e-04   7.8698026e-04  -2.4766443e-04   8.0461781e-05  -2.3868934e-05   6.3737790e-04
   1.4830430e-04   1.1206338e-04   2.5261394e-04   3.7482547e-05   3.2914142e-04   3.1698990e-04   4.7267837e-04   5.4927520e-04  -1.3848182e-04  -1.4056033e-04  -8.1960017e-05  -1.4849055e-04   1.4669419e-04   2.0001283e-04   1.2612175e-04   3.5210376e-04  -5.4836091e-05  -1.1979413e-04  -1.8615661e-04   4.5878744e-05   1.3478634e-04   2.0197860e-04  -2.1068951e-04  -2.0334184e-04  -4.5392793e-04  -1.9579635e-04   4.4872871e-04  -1.3494106e-06   4.7245377e-04   1.7948275e-04   8.3397354e-05   1.1130576e-04   1.5424064e-04  -4.5884555e-04   1.3452342e-04  -2.3709208e-04  -1.0900267e-04   4.5960092e-05   4.3549915e-04  -1.9013641e-03  -5.3760264e-04  -3.3622890e-04  -1.5513615e-04   1.0490726e-02   2.3835050e-03  -4.3416815e-03  -7.7070779e-04  -1.8480814e-04   1.2117257e-04   4.5469096e-05
   6.9190952e-05  -6.9419264e-05   1.4737219e-04  -1.2720062e-04   1.9667360e-04   1.0289373e-04   2.7282492e-04  -1.2002929e-05  -4.2304487e-04  -6.9740036e-04  -4.6757708e-04  -6.6448242e-04   4.3511202e-05  -3.2096363e-05  -6.4368756e-04   1.3467866e-04  -5.7783778e-05  -4.9160983e-05  -1.4134090e-04  -1.0964504e-04  -1.0024811e-05   2.3059067e-05  -3.8501126e-04  -5.5731530e-04  -5.0820468e-04  -1.5342810e-04   3.2565108e-04   1.3883547e-04   6.8483490e-04   3.7849702e-05  -3.5488405e-04   8.1532336e-05  -3.3277131e-05  -9.8761846e-04  -8.6378452e-05   2.6380288e-04   4.2432154e-04  -1.2319621e-05   4.4460793e-04   3.3503559e-03  -3.9289260e-04  -2.3867817e-04  -2.0947805e-04  -1.2984144e-03   1.2618789e-03  -7.1525141e-03  -1.5608969e-04   3.0111201e-04   1.2117199e-04   4.5881383e-04
   1.7729073e-04   8.8051573e-05   3.0800732e-04   3.8010974e-05   3.5548621e-04   4.2755555e-04   3.8784670e-04   5.7815219e-04  -7.2700946e-05   1.9503858e-04  -6.0458115e-06   1.1426435e-04   3.3198265e-04   1.6703425e-05   1.1701262e-04   5.6618289e-04   4.9987426e-05   1.8197696e-06   2.4842075e-05   1.0395896e-04   2.0311406e-04   1.8550595e-04  -9.3759911e-05  -1.8534348e-04  -3.9115493e-04  -8.5106287e-05  -3.6707457e-05   5.0442570e-05   3.9854553e-04   2.6007835e-04   6.9477654e-04   3.7751612e-05   3.1358079e-04  -4.7666399e-04   1.3692307e-04   2.5204167e-04  -7.3134353e-05   1.6651220e-05   2.7389108e-04  -4.8272740e-03   1.3490499e-05  -1.3377448e-04   1.4963104e-04  -8.2097953e-04  -7.6057473e-03  -3.0637200e-03  -1.6477205e-04  -1.6781188e-06   2.5751643e-04   7.8278122e-04
   2.1446195e-04   1.2497345e-04   3.3164743e-04   6.0147035e-05   3.5782292e-04   3.8981749e-04   5.9947529e-04   2.5047586e-04  -1.3470059e-05  -2.6612413e-05  -7.1756374e-05  -1.8710643e-05   2.8459582e-04  -4.4625398e-05  -2.4723852e-04   8.7776953e-06   6.3441039e-06   4.7806821e-05  -8.2446451e-05   8.1406761e-05   1.4996233e-04   1.9741591e-04  -2.5268170e-04  -2.4187843e-04  -3.6996501e-04  -9.2852089e-05   5.0626427e-04  -2.0440455e-04   6.1753421e-04   2.5583489e-04   5.4207200e-04   1.0720320e-04  -1.4700594e-04  -3.1660710e-04   1.2627950e-04   3.7210973e-04  -4.7294780e-05   7.6978300e-05   1.1915000e-03  -2.9920975e-03   3.9922647e-06  -3.1031008e-04   2.0210350e-04   3.7395000e-03  -3.6600600e-03   3.9565261e-03  -7.3744921e-04  -6.3005964e-06  -6.0175953e-05   1.4459991e-04
   1.4192708e-04  -3.2996519e-05   2.2058602e-04  -8.8756198e-05   2.3199643e-04   1.8366904e-04   2.1953136e-04   6.5350039e-05  -3.0750109e-04  -5.3476566e-04  -3.4681137e-04  -4.9659039e-04   2.6459931e-05  -2.4983650e-05  -3.7539427e-04   1.9631941e-04  -7.7879493e-05   4.5567438e-05  -6.7442417e-04  -9.2227892e-05   1.8466240e-05   7.6097764e-05  -2.4969265e-04  -4.8817435e-04  -6.7540462e-04  -1.2449916e-04  -2.3855185e-04  -3.0325112e-04   7.0685981e-04   9.8791468e-05   4.1356133e-04   4.1337381e-04   1.4982921e-04  -3.3644176e-04  -1.7101855e-04  -2.9704990e-04   2.2494911e-04   3.9110773e-06   3.8847738e-05   1.1191666e-03   1.1543315e-05  -5.7189941e-04   1.4134767e-04  -9.3986364e-03   6.0503758e-03   1.6628461e-03  -1.3626686e-03  -4.2175673e-04  -2.7355849e-04  -8.6911139e-05
   6.5692948e-05  -1.8996604e-04   1.9161594e-04  -1.3849075e-04   2.5482028e-04   2.2570498e-04   2.3968461e-04   1.0613851e-04  -1.6203350e-04   4.6486832e-05  -1.7951590e-04  -2.0837484e-05   2.7739766e-04  -1.6725004e-04   1.3049932e-04  -1.2563924e-04  -1.6875283e-04  -1.1243739e-04   1.1987656e-04  -2.6496993e-05   1.4334412e-04   1.5722230e-04  -3.5844074e-04  -2.6217417e-04  -4.9785199e-04  -2.3181579e-04   2.8463907e-04  -1.3384825e-04  -6.3152367e-04   1.9894629e-04   4.8697504e-04  -2.9285948e-04  -2.8276994e-04   2.5742783e-04   1.9401945e-05   3.0151787e-04   1.0225966e-04   2.7698892e-05   2.2436025e-04   1.4858065e-02  -1.8201985e-05   3.5493829e-06   8.2727165e-05  -6.4256871e-03  -1.3146567e-04  -1.5905952e-03   2.5027187e-04   3.8984278e-04   3.5315330e-04   4.1989450e-04
   2.8277535e-04   1.2969428e-04   3.7250677e-04   8.9610163e-05   3.7408393e-04   4.1786171e-04   3.0525198e-04   2.5550483e-04  -6.2064406e-05   2.2703772e-04   4.5882305e-05   1.8262911e-04   2.7645589e-04   9.0277790e-05  -9.5085707e-05   2.2912840e-04  -7.5087330e-05  -9.2791643e-06  -9.5218689e-05   7.0010632e-05   2.0134945e-04   2.4559905e-04  -8.8570894e-05  -1.9159704e-04  -5.0915632e-04  -1.9292835e-04   7.6540258e-05   9.1050089e-05   1.2816211e-05   2.3841647e-04   2.7691986e-04  -1.5580807e-04  -6.7391738e-05  -9.3592139e-04  -4.3947461e-05   4.5134668e-04   3.5343386e-04  -1.5486203e-05   3.5794917e-04  -1.6128747e-03  -1.1106390e-04  -5.5489782e-06   2.6441028e-04   1.3109624e-03  -1.1044840e-02  -1.8064422e-03  -1.0752476e-04   1.4679205e-04   1.7375624e-04   3.0290120e-04
   2.6195444e-04   4.7291327e-05   3.2186866e-04  -2.0905552e-06   3.0037793e-04   2.1416697e-04   2.9939806e-04  -1.0264377e-04  -7.9496385e-05  -2.1889534e-04  -1.4304554e-04  -1.8723123e-04   2.4794957e-05  -5.9892787e-05  -5.0461374e-04   1.5294556e-05  -1.3381969e-04  -2.3283526e-04  -6.7640161e-05  -1.4837132e-05   1.0131619e-04   2.1085519e-04  -4.1328560e-04  -4.5679012e-04  -7.3770282e-04  -3.0211161e-04  -2.0263102e-05   1.7894228e-04   3.8224834e-04   1.8372614e-04   4.0239614e-04  -3.6654124e-04   2.0485080e-04  -7.0240052e-04  -4.3959233e-05  -6.3755538e-04   1.8414091e-04  -6.1940824e-05  -5.6624296e-05  -3.5426964e-03  -2.3639802e-04  -2.7973176e-04  -6.8544265e-05   1.7579285e-03  -1.4183578e-03   1.6300332e-04  -6.9128035e-04  -5.6363831e-05   5.2436415e-05  -5.0898194e-05
   1.5903338e-04  -1.1824624e-04   1.7353876e-04  -1.5811517e-04   1.6338458e-04   3.6827551e-05   1.4631632e-04  -8.5559543e-05  -4.2886368e-04  -6.9048209e-04  -4.7956634e-04  -6.5440912e-04  -1.0622348e-04  -9.0636742e-05  -2.2801728e-04   1.4665831e-04  -3.1026793e-04  -2.6208954e-04  -3.1409442e-04  -1.8548622e-04  -2.9531790e-05   1.0541092e-04  -4.4539094e-04  -5.8742228e-04  -6.2692224e-04  -4.4424145e-04   7.0691305e-05  -2.8605913e-04   2.4975222e-04   3.3467113e-05  -3.8047536e-05  -8.8498076e-05  -1.0327855e-04  -7.8160566e-04  -2.8161306e-04  -2.6710576e-04  -3.0001151e-04  -1.3255088e-04   6.3813868e-04   2.1819435e-03  -3.7395503e-04   1.1911004e-05   9.4987459e-05   1.0473807e-02  -6.9747842e-03  -4.8993253e-03   1.6883195e-04   2.1242147e-04   1.8389571e-04   3.6830845e-04
   3.0122415e-04   8.9063178e-05   3.8245806e-04   6.5421802e-05   3.6325396e-04   3.7391341e-04   4.4459270e-04   1.2740512e-04   4.8194244e-05   3.8837903e-04   1.2057727e-04   3.2236986e-04   4.5846109e-04  -1.0354209e-05  -2.7350520e-04   2.1833282e-04  -2.0328810e-04  -1.4592189e-04   4.6418299e-05   8.5092863e-05   2.2557838e-04   2.8748592e-04  -2.7107590e-04  -1.4813493e-04  -6.7784288e-04  -4.1303088e-04   3.9376624e-04   1.1357370e-04   5.0448329e-04   2.2272665e-04   1.5564122e-04   4.5577707e-04   1.6379487e-04  -3.7518580e-04  -1.4157151e-04   3.6966210e-04   2.4898973e-04  -1.2911405e-04  -1.8932148e-04   4.7693243e-03  -8.3705752e-05   1.2073848e-04   1.7984101e-04   1.2508656e-03   6.1848331e-03  -4.3013301e-03   2.3487970e-04   2.4483449e-04   2.6249266e-04   4.4859754e-04
   3.2360217e-04   1.3443384e-04   3.7589221e-04   7.9019293e-05   3.4947286e-04   3.7579492e-04   2.5102810e-04   2.0355219e-04  -1.2368168e-04   1.5570928e-04   4.1218253e-05   1.4260251e-04   3.1223457e-04   6.2788691e-05  -4.1736409e-04   2.5376432e-05  -2.8835618e-04  -2.8766040e-04  -2.7222873e-04   5.3776250e-05   1.8729726e-04   2.7405130e-04  -2.3124837e-04  -3.1097038e-04  -2.5669494e-04  -5.3703913e-04   3.6143698e-04   5.6912038e-05   4.8975338e-04   2.1849701e-04  -7.9276331e-05  -3.1586512e-04   6.5545071e-05  -6.4445595e-04  -6.8444526e-05   1.8124905e-04   9.4634958e-04  -1.4817751e-04   3.3924871e-04  -5.2195843e-03  -3.1605168e-04  -2.5382833e-05  -3.4760113e-05  -1.6117191e-02   5.2805096e-03   9.4511285e-03  -3.0208021e-04   1.5618396e-04   2.6096182e-04   1.9473291e-04
   2.2916384e-04  -3.8090675e-06   2.5066949e-04  -5.9929414e-05   2.0627683e-04   1.6058012e-04   1.8333447e-04   1.5684117e-04  -3.3052720e-04  -2.8427539e-04  -1.8061795e-04  -2.5546577e-04  -1.4907638e-04  -2.0004901e-04  -1.5601207e-04   2.9881325e-04  -3.9517018e-04  -1.6367491e-04   8.2256129e-06  -4.5714038e-05   7.2079609e-05   1.9574106e-04  -3.8996947e-04  -4.2604309e-04  -1.1542630e-03  -6.2463991e-04   3.3696496e-04   4.0501705e-04  -9.3789029e-05   9.6428463e-05   1.4730605e-04  -1.3696810e-04   1.2980425e-04  -8.2916470e-04  -2.4023330e-04   1.4886000e-04   9.9442092e-05  -2.5452534e-04  -2.5465319e-04  -5.4773246e-03  -1.8203433e-04  -2.9340075e-04  -1.7242947e-04   1.0134347e-02  -4.1421512e-03   7.7096852e-03  -7.6053088e-04  -3.5882680e-04  -2.4991914e-05   2.1155916e-04
   1.8421659e-04  -8.8685585e-05   2.7227117e-04  -2.9164670e-05   2.8801325e-04   2.9689353e-04   1.7248206e-04   3.0815802e-04   9.3342256e-05   3.3909068e-04   5.4806187e-05   2.3297642e-04   8.1754573e-05   1.3589462e-04  -3.1658416e-04  -4.8747646e-05  -4.4627971e-04  -1.9718846e-04   1.9537687e-04   2.9863173e-05   2.0534855e-04   2.8638233e-04  -1.4848763e-04  -2.2709448e-04  -8.2639611e-04  -6.4588845e-04  -1.7943440e-04   2.4912300e-04  -2.6606087e-04   1.4709606e-04   1.9585801e-04  -3.1603436e-04   1.3836286e-04  -7.4996235e-04  -1.2185171e-04   8.1145350e-05   5.9378927e-04  -1.9318942e-04   4.6005502e-04  -5.5714683e-03   2.4096358e-04   2.6937056e-04   2.1551056e-04  -1.2523574e-02   3.6987129e-03   5.7971934e-03   3.2164625e-04   8.3794803e-05  -2.6164613e-05   3.5710316e-04
   3.0670236e-04   1.1994453e-04   3.2988019e-04   8.0226659e-05   3.2900105e-04   3.3348924e-04   3.6810714e-04   5.9862656e-04   2.0851879e-04   2.8125072e-04   1.2162303e-04   2.5084263e-04   3.1956133e-05  -6.1091807e-05  -5.4863875e-04  -2.0107991e-04  -3.3985791e-04  -5.2635791e-04  -2.9087523e-05   6.0516999e-05   2.2089636e-04   3.2983226e-04  -1.4816971e-04  -1.6564458e-04  -4.6075843e-04  -5.4827495e-04   2.0563316e-04   2.8935139e-04   4.3465159e-04   1.9497435e-04  -1.2545119e-04  -1.5160632e-04   8.3915606e-05  -6.5992307e-04  -1.0047485e-04  -4.0760866e-04   2.4687115e-04  -1.8590236e-04   4.3693557e-04   6.5264897e-03   4.3604839e-05   4.0498595e-05   3.1111380e-05  -2.1071418e-04   6.7368024e-03   4.2460594e-04  -1.2050095e-04   3.9273687e-05  -1.0786310e-05   4.6822242e-04
   2.6185683e-04   2.5442701e-05   2.3728247e-04  -2.3370527e-05   2.0814179e-04   1.5761500e-04   2.4675619e-04   4.9241062e-04  -1.4143411e-04  -2.4015797e-04  -1.6864577e-04  -2.1915991e-04   5.6813260e-05  -1.7118988e-04  -4.6393325e-04   3.3948378e-05  -3.3020109e-04  -1.9382244e-04  -8.7920569e-05  -2.8829876e-05   1.0375692e-04   1.8018330e-04  -2.5792141e-04  -4.1613213e-04  -6.6988514e-04  -4.4910260e-04  -2.6243950e-05   1.6789610e-04   1.7279532e-04   7.4238764e-05   3.8746719e-05  -4.1900240e-04  -3.8629183e-05  -3.2555600e-04  -2.5090267e-04  -2.4715997e-04   2.3494099e-04  -1.9023065e-04   4.9888727e-04  -3.6232502e-03  -1.3860874e-04  -2.6432672e-04   7.2785435e-05  -6.0351845e-03  -1.3304636e-03  -5.5806283e-03  -9.1459550e-04  -5.7949580e-04  -3.1808138e-04   6.4573251e-05
   1.8325039e-04  -1.4555572e-04   1.9964966e-04  -9.1415437e-05   1.7310794e-04   4.4430028e-05   1.3632396e-04  -9.5859185e-05  -1.0392777e-04   7.6663186e-05  -7.2663410e-05   6.6980043e-05  -1.1164968e-04  -9.8148616e-05  -2.9090786e-04  -3.8201167e-04  -1.3268625e-04  -1.6076314e-04  -6.3129824e-05   3.3653243e-05   2.2280301e-04   8.9975816e-05  -1.5402994e-04  -2.2944172e-04  -6.7117758e-04  -1.4333850e-04   1.1052979e-04  -4.0579171e-06  -1.9251379e-04   1.3630473e-04   4.0247341e-04  -7.2746676e-05   4.5260062e-05  -1.5777799e-04  -1.0923717e-04   1.5313713e-05   4.9869629e-04  -3.7516424e-05   7.3141645e-04   6.3186878e-04   2.8343202e-04   4.4668679e-05   1.3057409e-04   5.5974452e-03   5.0846413e-03  -6.2020053e-03   9.9861109e-06   4.1496362e-05   1.8284263e-04   5.0143106e-04
   3.7676361e-04   1.0794486e-04   3.1574172e-04   5.4121931e-05   2.1568532e-04   1.7807167e-04   2.0193611e-04   2.5731904e-04  -1.1408451e-04   3.9191425e-05  -6.5270283e-06   9.3125425e-05  -9.4249815e-05  -7.1883544e-05  -3.9264333e-04  -1.9787571e-05   1.1159876e-05  -7.5734890e-05   8.1444348e-05   1.0964835e-04   2.2704432e-04   3.7099995e-05  -2.0701280e-04  -2.1718939e-04  -1.3813640e-04  -1.6778743e-06   9.8770695e-05   2.5832956e-04  -1.0396306e-04   1.7087330e-04  -2.7775165e-04  -6.8024223e-05  -1.8037268e-04  -1.9009557e-04  -1.6863775e-04  -1.1611029e-04   1.7895854e-05   1.1194732e-05   4.8062048e-04  -4.2239856e-03   7.1447161e-05  -5.6143566e-05   1.3938159e-05   1.9091632e-03  -4.0890598e-03  -3.4108418e-03  -5.4220064e-04   3.2992213e-04  -1.2198713e-04   4.6599151e-05
   2.2004283e-04  -9.8006036e-05   1.3104438e-04  -8.9122441e-05  -4.9443835e-05  -1.9156166e-04   7.1799972e-05  -2.4669140e-04  -2.6794276e-04  -7.7727792e-04  -3.7896927e-04  -5.5328180e-04  -2.0603063e-04  -2.6402599e-04  -1.7586956e-04  -4.4238259e-04   2.2278819e-04   1.7067374e-04   1.6424252e-04  -1.2271362e-04   7.5675387e-05  -2.9447160e-04  -2.8801235e-04  -4.6956673e-04  -2.9616526e-04   2.0816967e-04   1.4246236e-04   3.6183215e-04  -1.3750151e-04  -1.2922600e-06   2.4013969e-04   3.1205080e-04  -1.9097383e-04  -6.4936682e-04   8.7895758e-05  -4.2204023e-04  -2.3204963e-04  -6.8654081e-05   1.0650337e-03  -3.1697520e-04   1.6232027e-04  -3.5007822e-04  -2.3301065e-04   4.7488627e-03  -2.2394769e-03   1.3303471e-03  -9.8304311e-04   7.7311088e-05  -2.3378576e-04   1.9737889e-04
  -7.3176197e-05  -3.9583226e-04  -1.4707580e-04  -3.2142916e-04  -3.3879848e-04  -5.5045588e-04  -2.0461890e-04  -3.5121618e-04  -5.0007814e-04  -1.4374827e-03  -7.8129035e-04  -1.0504571e-03  -5.4084352e-04  -5.2132376e-04  -3.4560543e-04  -6.7221583e-04   2.4715607e-04   2.4297375e-04  -2.8662861e-04  -1.8960948e-04   6.1818871e-05  -4.7706204e-04  -3.2440436e-04  -3.8671159e-04  -4.0838838e-04   3.7156598e-04   2.4185216e-04  -1.2954218e-04  -1.6201104e-04   7.9239248e-07   3.6793674e-04  -7.0578337e-04  -2.5509825e-04  -8.8284147e-04  -2.3880647e-04  -1.3146931e-04   3.4219593e-05   4.7718902e-05  -6.0755265e-05  -3.5597422e-04   3.5904206e-05   1.0352005e-04   2.9480289e-04  -3.8236754e-03  -5.3701368e-03  -3.6816041e-03   1.3731289e-04   7.6008349e-04   4.7161858e-04   1.0672160e-03
   1.3468627e-04  -1.0695957e-04   7.5674885e-05  -3.9033221e-05  -1.0454111e-04  -2.2526922e-04   1.9579122e-05   8.2493701e-05   1.3207925e-04  -3.8222285e-04  -2.1059164e-04  -9.1078793e-05  -3.0403750e-04  -2.6557074e-04  -2.2693665e-04  -5.3603883e-04   5.1343895e-04   4.3751899e-04  -2.8152074e-04  -8.7626606e-05   9.9203935e-05  -4.5377691e-04  -1.8927777e-04  -3.2728317e-04  -3.8923288e-04   7.0264615e-04  -3.6249181e-05  -1.7533584e-04  -1.7415370e-04   1.4418441e-04   6.3865249e-05   2.0369122e-05  -2.1672106e-04   3.3009946e-05   1.1717918e-04  -3.3787556e-04   6.6068664e-04   2.2569625e-04   1.8633329e-04   2.2047956e-03   6.0277493e-05   4.0865725e-05  -1.8675562e-05   4.9422198e-04  -3.4737168e-04  -1.9037429e-03  -1.7257332e-04   6.2386721e-04   1.7424725e-04   1.0237471e-03
   1.7911456e-04  -1.2922304e-04   4.5604913e-05  -1.0112330e-04  -1.1932489e-04  -3.2931048e-04  -5.2076059e-05  -2.3746406e-04  -2.7372295e-04  -7.0287287e-04  -3.8167235e-04  -3.1657843e-04  -4.2710747e-04  -3.1748385e-04   1.8368794e-04  -8.2802091e-04   3.2378166e-04   5.8940717e-04  -5.4623964e-05  -1.6443177e-04  -4.7361897e-05  -5.2287750e-04  -2.6586407e-04  -4.4741595e-04  -8.1174017e-04   5.2014954e-04  -6.5556771e-05  -1.3145771e-04  -2.8828776e-04   5.1933846e-05  -1.7689556e-04  -1.6646691e-04  -3.0019882e-04  -1.5033712e-04  -4.1404906e-05   2.1797630e-04   6.1208114e-04   2.3931770e-04   1.1382489e-04   6.1340476e-03  -6.6177519e-05  -6.7136520e-05   1.6713528e-04   1.3136877e-02   3.7448632e-03  -7.7015259e-03  -6.8939169e-04   4.8455523e-04  -3.0415697e-04   6.5382913e-04
   2.3138906e-05  -3.2315528e-04  -1.1662215e-04  -2.4749836e-04  -2.7586569e-04  -6.0896343e-04  -3.1370946e-04  -5.8059848e-04  -3.9218430e-04  -1.2715034e-03  -7.2177558e-04  -8.6719432e-04  -6.0969812e-04  -7.5671548e-04  -2.8851902e-04  -7.4066588e-04   2.1886280e-04   1.4065939e-04   1.1389833e-06  -3.2840820e-04  -1.9554744e-04  -6.4495578e-04  -3.5878658e-04  -5.2143063e-04  -9.5181877e-04   4.9320102e-04  -2.3378478e-04  -2.6352538e-04  -7.8154902e-05  -7.3532989e-05  -2.6478039e-04  -2.5418150e-04  -1.0215943e-04  -2.2068477e-04  -6.4646694e-05  -1.1325901e-05   6.6879339e-04   1.1307647e-04   6.7594374e-04  -9.5317094e-04   4.6025284e-04   2.2337797e-04   8.9054811e-05  -4.8139226e-03  -5.5226306e-03  -1.7656953e-03   3.3684602e-04   7.7133370e-04   1.1775360e-04   5.0767889e-04
   1.1607150e-04  -6.2091385e-05   5.0627503e-05   3.1590112e-05  -5.8979572e-06  -1.1769046e-04  -4.0764349e-05   6.3430271e-05   2.1487685e-04   6.9246715e-05  -1.4037727e-05   2.7224945e-04  -2.6141960e-04  -3.3808415e-04   2.4938636e-04  -2.0640943e-04   2.6982278e-04   1.4211301e-04  -3.0117561e-05  -5.2416188e-05   4.0897714e-05  -3.5414350e-04  -1.5718222e-04  -8.7507935e-05   2.0378360e-05   4.7041406e-04   6.9869908e-05   2.9895798e-05  -3.2043661e-04   1.5849777e-04  -2.3673460e-04   1.6547124e-04  -9.1050088e-06   1.1719832e-04   9.9894991e-05  -2.6724470e-04   5.0270034e-04   2.6823831e-04  -2.8362163e-04  -1.4336371e-02   3.9125961e-04   3.2536630e-04   4.6080732e-04   3.7852360e-03  -2.4922851e-03   2.1307261e-03   3.3987654e-04   1.0954605e-03   1.2499285e-04   6.9689681e-04
   7.0900234e-05  -4.1828422e-05   3.2289429e-06   2.2673928e-05  -4.9669867e-05  -1.4365675e-04   4.7382782e-05  -2.9331548e-04   1.4558545e-04  -2.6529279e-04  -9.2793431e-05  -5.0936328e-06  -2.4569369e-04  -2.1347505e-04   2.6046057e-04  -4.7663067e-04   3.5379853e-04   2.6274190e-04  -1.7348316e-04  -6.7552348e-05  -3.0158466e-05  -3.9830012e-04  -1.0298420e-04  -1.6032632e-04  -7.2241135e-05   5.1033683e-04   1.6472113e-04   1.0827998e-04   1.2231096e-04   1.4151711e-04   2.6114093e-04  -1.7120465e-04  -7.5508462e-05   4.0765447e-04  -4.4700191e-05   4.7389479e-04  -9.7336699e-05   2.3596655e-04  -1.0517029e-04  -8.9368084e-03  -3.4419860e-05   2.5035599e-05   4.7067972e-04   9.7910846e-03  -6.0795238e-03   4.0936284e-03  -3.4082081e-04   6.8454759e-04  -5.3008171e-05   2.0564273e-04
  -8.6045446e-05  -2.2838179e-04  -1.3912561e-04  -1.5388310e-04  -2.0926514e-04  -3.4435134e-04  -2.3454792e-04  -5.1738281e-04  -2.2156663e-04  -8.7129558e-04  -4.4344366e-04  -5.4284511e-04  -3.2984969e-04  -3.1603163e-04   1.8923255e-04  -4.3176836e-04   3.8478483e-04   3.7082843e-04  -3.7971264e-04  -2.1768296e-04  -1.5893175e-04  -6.0325192e-04  -2.6289743e-04  -3.3272986e-04  -3.1234318e-04   5.5454712e-04  -1.6431963e-04  -3.1256716e-04   9.0164505e-04   4.4555778e-05  -6.0222927e-04  -2.7149101e-04  -1.7139329e-04   9.1373146e-04  -7.5436052e-05  -6.1690815e-05  -2.3595111e-04   2.1369231e-04   4.6806873e-04   8.8768010e-04   2.8272337e-04  -2.8783697e-04   1.3861695e-04   9.2505021e-03   4.1886201e-04   1.3368513e-03  -7.1253371e-04   3.4079098e-04  -2.8568588e-04   6.1061099e-04
  -1.1351064e-04  -2.3176403e-04  -6.4412940e-05  -9.4820047e-05  -1.3473484e-04  -2.3382950e-04  -8.8178676e-05  -3.6651801e-04   2.3657754e-04  -1.0311447e-04  -1.1750157e-04   9.2899005e-05  -1.9278262e-04  -1.1530036e-04   1.8238305e-06  -2.5428427e-04   4.5199879e-04   3.6452373e-04   2.6047244e-04  -8.2514096e-05   4.7735512e-06  -4.6580826e-04  -1.5214391e-04  -1.1426084e-05  -3.3110747e-04   5.8579730e-04  -4.8460661e-05   3.5854784e-04   8.8977587e-04   1.3873990e-04  -3.0014905e-04   7.7233918e-04  -1.2922072e-04   3.2167183e-04  -4.7239728e-06  -1.7637530e-04  -8.6655236e-06   2.8748289e-04   6.6705712e-04  -7.0224744e-03  -7.6729935e-05   2.0870908e-04   5.9371971e-04  -1.5720220e-02  -3.9710634e-04   1.5507179e-02   1.2544132e-04   1.2702658e-03   1.6367417e-04   1.0413129e-03
  -7.5407508e-05  -8.1947321e-05  -5.2105366e-05  -4.3048967e-05  -1.1602118e-04  -1.1521881e-04  -1.4568018e-04  -3.8885343e-04   3.3072414e-04  -2.0961915e-04  -9.5694464e-05   4.1963758e-05  -1.3895601e-04  -1.4660040e-04   2.6108706e-05  -6.3259460e-05   5.4331630e-04   3.7845821e-04   1.2002300e-04  -5.9463135e-05  -1.8487259e-05  -4.7649138e-04  -4.6154390e-05  -7.7157049e-05  -2.7077552e-04   6.4192503e-04   5.8217753e-05   1.8602435e-04  -1.1995338e-04   1.4901042e-04   4.3329379e-05   5.8253063e-04  -2.5419513e-04   6.3020317e-04   1.1948690e-05  -4.3327243e-05   1.1629490e-04   3.1144961e-04   1.7170340e-03  -2.5099488e-03   5.1185049e-05   2.0247480e-05   5.7116320e-04  -1.0587271e-02   4.8202244e-03   1.5227698e-03  -3.6748225e-04   9.2870509e-04  -1.1191684e-04   6.0510263e-04
  -1.5969852e-04  -2.1780170e-04  -1.6933669e-04  -1.8996006e-04  -2.5848867e-04  -3.9271478e-04  -3.6704115e-04  -1.1970266e-04   1.2234489e-04  -7.8506611e-04  -3.9024456e-04  -4.6191885e-04  -2.0787334e-04  -2.6510583e-04   4.0937052e-04  -6.2216241e-05   4.5497698e-04   4.9272017e-04   9.4992021e-05  -2.1092505e-04  -1.5561876e-04  -5.8393856e-04  -1.8584314e-04  -2.4785849e-04  -4.0075861e-04   5.5934518e-04  -3.6829300e-04  -3.6563477e-05   1.8804654e-05   6.5643566e-05  -5.0641655e-04   3.8495686e-04  -9.3276481e-05   1.5840460e-04   2.3279247e-04   4.8846513e-04  -5.1956647e-04   2.6076409e-04   3.1115991e-04  -4.4534140e-04   2.4353532e-05  -1.2178683e-04   3.8231860e-04   2.6684846e-03   4.6452596e-03  -1.6755007e-02  -7.8263233e-04   4.3685394e-04   1.4251756e-05   5.6067732e-04
  -3.1432966e-04  -4.0222376e-04  -3.4468397e-04  -3.5209878e-04  -3.8914455e-04  -5.5820105e-04  -4.1606190e-04  -5.4253102e-04  -2.2628062e-04  -8.7298383e-04  -5.3791358e-04  -5.8021233e-04  -4.2746743e-04  -4.3649055e-04  -3.3345737e-04  -6.6741410e-04   3.9498031e-04   5.5945193e-04   3.5394787e-05  -2.0396644e-04  -1.1207690e-04  -5.5496069e-04  -1.0626514e-04  -7.6681172e-05  -2.7274067e-04   5.2180164e-04  -1.3878613e-04   1.4240636e-05   4.5522736e-04   7.6798235e-05  -1.6311732e-04   1.8609222e-04  -1.5237110e-04   3.2848807e-04  -2.0162552e-04   4.5490538e-05   8.4626628e-04   2.7215391e-04   6.4600003e-04   5.8487192e-04   1.5418322e-04   1.6542482e-04   3.9176765e-04   3.1409733e-04   1.9526565e-03   1.0361592e-02   8.4319050e-05   1.0537195e-03   1.9014697e-04   1.1805245e-03
  -1.2735552e-04  -1.0942597e-04  -1.3114064e-04  -1.1952439e-04  -1.8569881e-04  -2.3289882e-04  -4.5022378e-05  -2.0008408e-04   3.1092839e-04  -3.4935024e-04  -1.3957128e-04  -4.9392336e-05  -1.2323016e-04  -5.5195309e-05   1.6238705e-04  -1.2253138e-04   5.5462134e-04   5.5581436e-04  -6.1591569e-04  -1.3009942e-04  -8.7627493e-05  -4.9797405e-04  -3.3827146e-05  -7.7805620e-05  -7.6393672e-04   6.5086910e-04  -1.9251475e-04   4.8397287e-05  -1.1441702e-04   1.3893098e-04   1.7483685e-04   6.3138403e-04   1.5048045e-04   1.6996369e-04  -2.4814124e-05  -5.5671547e-04   1.6167862e-04   3.5969281e-04   3.6482463e-04   1.6678858e-03   3.3118736e-04   7.8467543e-05   5.1706732e-04   1.3387862e-03   1.1413222e-03   1.4496685e-03  -2.7281631e-04   9.5035072e-04   2.3091029e-04   6.4889732e-04
  -1.6436260e-04  -2.0675563e-04  -1.9255503e-04  -2.0709989e-04  -2.7218831e-04  -4.1117138e-04  -1.6905097e-04  -4.2899669e-04   1.4238242e-05  -7.8560621e-04  -3.2667778e-04  -4.0763861e-04  -2.5849088e-04  -2.4206548e-04   2.7371856e-04  -6.4295810e-04   4.8185172e-04   3.0345170e-04   1.9271203e-05  -2.1013532e-04  -2.1533457e-04  -5.7812064e-04  -2.7166700e-04  -2.4167170e-04  -1.5788917e-04   6.4362912e-04  -3.2044746e-04  -2.3600753e-04   3.7120385e-04   7.2591509e-05  -1.9319504e-04   5.0048548e-04  -2.0164956e-04   7.4043043e-04  -1.3604862e-04  -8.3635713e-04  -9.7161545e-05   2.7321046e-04   3.1075196e-04   6.5550883e-03   1.4601157e-04  -8.5304331e-05   1.2078800e-04  -2.1606704e-02   4.8356676e-03  -4.6340707e-03  -6.7230250e-04   3.9096290e-04  -2.5706901e-04   4.6444152e-04
  -2.6649446e-04  -3.6388100e-04  -3.2813023e-04  -3.4509780e-04  -3.6462766e-04  -5.2425661e-04  -3.5563190e-04  -3.8201344e-04  -2.1719337e-04  -9.1484934e-04  -5.2812754e-04  -5.7729526e-04  -4.0905207e-04  -3.1305800e-04  -1.1822997e-04  -4.0585376e-04   2.9240240e-04   3.1685104e-04  -3.9763683e-05  -2.0023707e-04  -1.8844231e-04  -5.4965570e-04  -2.4833530e-04  -1.9560492e-05  -6.1797228e-04   4.1545590e-04  -1.1583150e-04   1.8551643e-04  -2.2675771e-04   6.5676737e-05  -1.4042341e-04  -5.1819917e-04  -7.3838469e-06   2.9329001e-04   8.7638809e-06   9.1775693e-04  -3.3848392e-04   2.4012034e-04   2.2768845e-04  -7.1375016e-03   2.6171480e-04   2.5747009e-04   2.0226114e-04   5.7180487e-03   1.2063757e-04  -3.2387525e-03   4.1522054e-04   8.7814964e-04   2.0823174e-04   7.4535218e-04
  -8.7903005e-05  -4.9036531e-05  -8.3070932e-05  -5.1575898e-05  -1.0679648e-04  -1.7900048e-04  -2.2465629e-04   2.2208976e-04   4.6374448e-04  -8.4782529e-05   4.7044301e-05   1.8072310e-04  -2.6970369e-05  -3.6838221e-05   3.7546019e-04  -5.6610757e-04   3.6453872e-04   3.1695768e-04   1.5364910e-04  -5.7133668e-05  -1.0903249e-04  -3.9912795e-04  -5.7515419e-05   1.3167241e-04  -3.8206126e-04   3.5286575e-04   1.4069758e-04   4.8166682e-04   1.3926001e-04   2.1431311e-04  -7.9085105e-05   7.2332796e-07   3.4099765e-05   2.7840372e-04   6.0211947e-05  -5.0078241e-05   5.6725927e-04   9.8432829e-05   5.1010698e-05  -4.8358073e-03   1.4462475e-04   2.6770961e-04   2.2740393e-04   8.5297255e-03   7.3141535e-03  -6.4588292e-04   2.5149621e-04   1.0300855e-03   2.0327583e-04   9.7408914e-04
  -1.4788030e-04  -1.2935128e-04  -1.4764287e-04  -1.0363907e-04  -1.7487715e-04  -1.2718668e-04  -1.8767227e-04  -6.7419664e-05   1.4561243e-04  -4.0956622e-04  -1.0515917e-04  -8.1608676e-05  -2.9257362e-05   8.6766246e-05  -2.7881935e-04  -2.8474702e-04   2.4929389e-04   1.7080110e-04  -1.2924988e-04  -9.6536343e-05  -1.9655225e-04  -4.3364821e-04  -1.3274817e-04  -1.3021831e-04  -6.7941070e-04   2.7206226e-04   9.0542606e-05   3.9778079e-04   2.9462561e-04   1.5981148e-04  -3.0062385e-04   5.3222920e-04  -2.3452664e-04  -1.9126400e-04   1.3609471e-04  -1.9665681e-04   1.2672666e-03   2.0848778e-04   3.8482665e-04  -1.5133952e-03  -7.8817808e-05   8.0443548e-05   3.7734295e-04   9.9719735e-04  -3.6464243e-03   2.0646097e-03  -4.3325336e-04   7.8937353e-04   3.2456268e-05   5.6817679e-04
  -2.8378502e-04  -3.1922088e-04  -2.8777545e-04  -2.6332246e-04  -3.2263456e-04  -4.7112265e-04  -2.1341551e-04  -4.6639499e-04  -2.5086707e-04  -9.4128534e-04  -4.3208615e-04  -5.8138155e-04  -3.1511686e-04  -3.5753203e-04  -1.5866631e-04   9.1144022e-05   1.9132403e-04   2.1662614e-04  -1.9600097e-04  -2.1264736e-04  -2.0874053e-04  -4.9138191e-04  -8.5854364e-05  -8.7615219e-05  -4.3948766e-04   2.6670820e-04   4.5625263e-04   1.4149098e-04  -6.4633175e-05   1.1654078e-04  -1.5194411e-04  -5.2371679e-04  -4.8911050e-05  -6.3779727e-05  -4.4445886e-05  -3.1973966e-04   2.8076593e-04   1.9863348e-04   6.7423849e-04  -2.9809941e-03   1.6925643e-04   3.5667332e-04   5.9443322e-04   1.5109110e-02  -2.5733840e-03   4.5966585e-03   6.1988935e-04   1.2445791e-03   4.1056046e-04   1.0814362e-03
  -7.5805641e-05  -5.5333607e-05  -1.5129676e-05   3.3808497e-05  -6.6860579e-05   2.1116417e-05   4.6400757e-05   8.6769673e-05   3.9878115e-04   1.0746256e-04   2.0612548e-04   3.8556795e-04   8.9636182e-05  -9.6889933e-05   1.7000144e-04  -3.2212821e-04   3.8100651e-04   4.1185872e-04   3.7941227e-05   6.3704800e-05  -6.4111780e-05  -3.6292724e-04  -3.1385607e-06   1.0505142e-04  -3.2939346e-04   3.6552135e-04   2.4470256e-04   9.6313997e-05   3.9017839e-05   2.5911635e-04  -1.7808189e-04   1.9499466e-05   1.0188321e-04   2.2246497e-05   2.4410614e-04   4.9748807e-04   1.0987992e-03   2.0134469e-04   8.7488350e-04   3.5484950e-03   3.4893159e-04   4.4685794e-04   5.2539166e-04  -5.8181365e-03   3.7689853e-04  -4.0790811e-03   5.6428259e-04   1.1608957e-03   3.6396951e-04   3.5260417e-04
