  -9.9640260e-05   2.7683660e-04   2.0234907e-04   5.0610539e-05   1.2963997e-04   6.0315913e-04   8.8098634e-04   7.6278701e-04   8.0242346e-04   8.4638776e-04   7.9470268e-04   7.4421841e-04   6.6536287e-04   6.6347671e-04  -3.1785641e-04   9.5620728e-04  -1.6470173e-04  -1.9025513e-04   7.8492815e-04   8.8839949e-04   2.3146885e-04   1.2901103e-03   9.1769482e-04   1.0487824e-03   8.8582968e-04  -1.2761090e-03   3.3003322e-04   8.1905368e-04   2.4628232e-04   4.6968367e-04   1.0681590e-03  -1.1696853e-04   1.4261649e-03  -1.1323253e-03   7.0610183e-04   1.2759246e-03  -4.0603097e-04  -6.2708219e-04  -2.9821866e-04   6.6792821e-03   7.7044882e-04   7.3519023e-04   7.2105357e-04  -9.0588005e-03   4.0026000e-03  -4.2053354e-03   9.8830520e-04   1.0465262e-03   1.6011781e-03   1.9062175e-03
  -1.3416256e-04   2.6538339e-04   1.3020988e-04   1.4956923e-05   7.8320656e-05   4.6176321e-04   7.9948513e-04   5.0925149e-04   6.3659536e-04   5.0848123e-04   6.3637324e-04   5.0371623e-04   6.1619485e-04   8.2332682e-04  -1.2792888e-04   8.2021666e-04  -3.0381049e-04  -4.0876397e-04   4.6101739e-04   8.1703649e-04   2.0107269e-04   1.3651703e-03   8.5513148e-04   9.2271448e-04   1.2092227e-03  -1.3665896e-03   2.9013382e-04   1.0926038e-03   1.3302531e-03   4.8232565e-04   8.9385634e-04  -4.0750537e-04   9.4897044e-04  -1.7258738e-03   6.2864565e-04   1.3249211e-03  -1.4119336e-04  -6.0048309e-04  -2.9475411e-04  -1.8119612e-03   1.0501682e-03   5.5099028e-04   9.3649514e-04   3.2725304e-03  -3.8044017e-03   2.6049849e-04   3.2060218e-04   5.8006408e-04   1.1505677e-03   1.6695197e-03
  -2.7113414e-04   8.5746171e-05  -2.7728329e-05  -1.6613617e-04  -9.2257833e-05   3.3649223e-04   5.5661931e-04   4.4387279e-04   5.2265200e-04  -4.0008639e-05   3.5225472e-04   5.9978378e-05   5.5718847e-04   6.5373851e-04  -6.6966214e-04   5.2687281e-04  -3.2513132e-04  -4.7481537e-04   5.9570244e-04   7.8839902e-04   2.4162346e-04   1.3249459e-03   8.0775830e-04   9.8271063e-04   8.5109472e-04  -1.2911237e-03   6.7903899e-04   1.3075942e-03   4.1109332e-04   4.8884854e-04   1.2713503e-03  -3.9138188e-04   1.4089978e-03  -1.8481814e-03   6.2422885e-04   7.6849491e-04   4.7750804e-05  -6.1394175e-04  -2.8997642e-04   2.0008579e-02   9.1806403e-04   9.3173259e-04   6.3269207e-04   5.1849606e-03  -2.4512324e-03   2.6568929e-03   1.2217587e-03   1.2688008e-03   1.6180170e-03   2.4121648e-03
  -3.0830655e-05   3.0728037e-04   1.5819052e-04   4.7654630e-05   8.9291534e-05   5.9483969e-04   8.0154691e-04   6.6724687e-04   8.5600361e-04   4.5959972e-04   7.3294441e-04   5.5184233e-04   7.8280183e-04   7.9432357e-04  -6.8789632e-05   1.0096971e-03  -2.9198360e-05  -2.5606217e-04   5.9596746e-04   9.5312600e-04   2.9443984e-04   1.2490369e-03   9.8712603e-04   1.0226833e-03   6.0796837e-04  -8.5722707e-04   3.5023291e-04   8.8321464e-04   1.1231357e-03   6.1972789e-04   7.1016251e-04   1.6336178e-04   1.2594271e-03   1.4334932e-04   7.3415576e-04   1.3618110e-03   3.0286208e-04  -2.4672423e-04   2.1452719e-04   2.9985589e-04   1.0256073e-03   6.2947953e-04   1.2205241e-03  -6.5629147e-03   4.1390965e-03   6.1406456e-03   4.0959351e-04   7.5303519e-04   1.1676651e-03   2.0378367e-03
  -8.8427987e-05   1.3270481e-04   7.9348792e-05  -5.9456794e-05  -3.3614044e-05   2.7064892e-04   6.4977509e-04   4.4512723e-04   4.8688424e-04  -2.6729450e-04   3.9728091e-04  -8.4819527e-05   7.6388469e-04   5.3955219e-04   1.6388035e-04   4.8084088e-04   2.5679590e-04  -1.5269390e-05   5.8539538e-04   7.3390827e-04   2.3159462e-04   1.0473246e-03   9.7129442e-04   7.1269047e-04   1.5237982e-03  -3.6199062e-04   2.0665770e-04   6.9309602e-04   8.7028276e-04   5.8432273e-04   9.1183838e-04   2.4540347e-04   9.3840319e-04   1.5209067e-03   8.8496855e-04   7.8827934e-04   4.8149577e-05  -9.1911672e-05  -7.2514475e-04  -5.6582354e-03   1.0066937e-03   1.4647251e-04   9.9744985e-04   1.2376690e-02   4.6401429e-03   4.0220637e-03  -1.1624303e-04   3.6075947e-04   8.8343641e-04   1.6315471e-03
  -3.7511381e-05   1.3630153e-04   2.0382700e-04   4.0083825e-05   7.6428027e-05   4.8296186e-04   7.7717222e-04   3.4374220e-04   8.7169552e-04   6.4197148e-04   7.7324250e-04   5.5565871e-04   7.0439698e-04   6.5418053e-04   3.6729031e-04   4.1236129e-04   5.1697297e-04   2.0969016e-04   7.6841220e-04   9.2710549e-04   4.1901186e-04   1.1894132e-03   1.0385381e-03   9.4407005e-04   1.5940577e-03  -1.6745448e-04   5.9471885e-04   9.6743368e-04   1.2374198e-03   7.2826911e-04   1.4945519e-03   4.5228004e-04   1.4352815e-03   1.5978188e-03   9.2687388e-04   1.1078209e-03   1.8572404e-04   7.7630997e-05   2.8940913e-04   1.5683610e-03   9.8885712e-04   5.4102717e-04   1.5898019e-03  -2.3600920e-03   5.5081444e-03  -4.3071015e-04   2.1860674e-04   8.4128685e-04   1.3869390e-03   1.9436580e-03
   3.8071954e-05   1.7527388e-04   2.3125306e-04   6.2680381e-05   6.3228981e-05   4.0014216e-04   8.2009099e-04   5.4372998e-04   7.9793535e-04   2.4933729e-04   6.4130087e-04   1.7995703e-04   6.8646326e-04   6.2810001e-04   6.5553864e-04   4.3523300e-04   1.0665542e-03   6.3696451e-04   8.5264456e-04   8.6982606e-04   4.3693278e-04   1.0338791e-03   9.7356073e-04   7.6265808e-04   1.7580005e-03   5.9058686e-04   4.9425778e-04   6.0777180e-04   9.4211975e-04   7.3337386e-04   1.1299724e-03   1.6562513e-03   1.1967735e-03   3.1505071e-03   8.7600574e-04   1.4885432e-04  -1.4564289e-04   3.0124903e-04   4.3823532e-04   2.8526278e-03   8.8100717e-04   2.7321427e-04   1.2570244e-03   5.0288701e-04   5.6562652e-03  -3.7450514e-05  -2.0014882e-04   6.6578184e-04   8.3921599e-04   1.4660547e-03
  -1.0952110e-04  -1.2885741e-05   7.6817661e-05  -9.9668410e-05  -1.0921082e-04   2.0670606e-04   5.0668744e-04   6.2768470e-04   3.4920263e-04  -3.9716469e-04   2.4355910e-04  -3.5756020e-04   4.4823709e-04   4.5297833e-04   1.0662914e-03   4.1493567e-04   7.4670487e-04   4.9368455e-04   1.0505224e-03   6.2070845e-04   2.5887659e-04   9.6634112e-04   7.3275546e-04   5.8884703e-04   1.2639306e-03   2.1168886e-04   3.2987198e-04   9.7400253e-04   8.3038071e-04   5.8429671e-04   8.7263610e-04   8.8178529e-04   1.4552900e-03   2.8431353e-03   7.5394457e-04   9.0012304e-04  -2.2827744e-04   3.8630146e-04   3.1917670e-04  -7.4183163e-03   8.1036560e-04   6.5430655e-04   1.5627178e-03   4.5800335e-03  -1.2326597e-03   2.9650901e-03   8.4185414e-04   1.2850480e-03   1.1150460e-03   1.7046616e-03
   6.4281623e-05   2.2997979e-04   2.7951080e-04   1.5552499e-04   1.8772736e-04   5.5276230e-04   8.1110053e-04   4.2304953e-04   8.6668233e-04   9.8409527e-04   9.3709631e-04   7.1241008e-04   1.0029559e-03   8.3400431e-04   1.1035664e-04   8.3704770e-04   8.8424573e-04   4.1821875e-04   9.8214275e-04   9.5022755e-04   4.5881665e-04   1.2614938e-03   9.3038217e-04   9.6293341e-04   1.5251565e-03   6.8139627e-05   5.4661458e-04   8.4655092e-04   2.0653016e-03   7.9871819e-04   1.5438024e-03   1.4115330e-03   1.6468216e-03   2.8251987e-03   7.5416773e-04   1.0415855e-03  -6.5741938e-04   4.0352019e-04  -1.9210705e-04   8.4749749e-03   8.6487789e-04   6.3145696e-04   1.2436763e-03   2.6296286e-04  -7.5566961e-04   1.6156642e-03   7.0376607e-04   9.4645662e-04   1.4161314e-03   1.7772231e-03
   9.6218231e-05   2.0601222e-04   2.6253579e-04   1.3006819e-04   1.6215675e-04   5.9192802e-04   9.4946421e-04   5.9106410e-04   1.0737893e-03   5.4193882e-04   7.3378225e-04   3.8767693e-04   9.9800015e-04   9.0156432e-04   6.2739605e-04   4.9370527e-04   8.1290898e-04   4.1948765e-04   7.6566881e-04   8.9078245e-04   3.6723644e-04   1.1393729e-03   8.8632898e-04   8.4470317e-04   1.4767280e-03   8.7024724e-05   7.1495189e-04   1.0346553e-03   1.6857228e-03   7.4640132e-04   1.7324408e-03   7.1838172e-04   1.6658209e-03   2.6367421e-03   9.1196282e-04   1.1134908e-04  -4.8127360e-04   3.0979715e-04  -7.0462076e-05   1.0567911e-02   7.8759779e-04   4.4370358e-04   1.5344330e-03   8.8726617e-03  -3.0351166e-05   9.8952965e-04  -8.2070665e-06   7.2810089e-04   1.0286450e-03   1.4195903e-03
  -2.2285451e-05   3.8820104e-05   1.3551490e-04  -2.5241632e-05   5.2874489e-05   3.7152536e-04   7.4552215e-04   5.0976709e-04   4.7768120e-04   4.8485312e-05   4.3552869e-04  -5.9409736e-05   6.9549022e-04   6.0110795e-04   5.8551144e-04   7.7986316e-04   8.2796195e-04   4.3719882e-04   5.3171813e-04   8.7042974e-04   4.1117598e-04   1.0646299e-03   1.0241925e-03   9.7354181e-04   1.4750964e-03   2.5614636e-04   3.7934605e-04   1.1481706e-03   1.1308609e-03   7.7684474e-04   1.4173075e-03   1.6144117e-03   1.8668490e-03   3.8155583e-03   9.0842647e-04   1.1387301e-03  -8.0548365e-05   4.6680900e-04  -4.6055680e-04  -5.7707063e-04   9.5074245e-04   6.3579332e-04   1.7467204e-03   3.0775941e-03  -1.0336379e-02  -6.6047785e-04   6.0758216e-04   9.3240256e-04   1.2728012e-03   1.7838642e-03
   2.5793479e-04   2.7412854e-04   4.3079883e-04   2.7096141e-04   2.9466592e-04   6.9906551e-04   1.0912425e-03   6.5307616e-04   1.0875879e-03   8.4468361e-04   9.2358916e-04   5.7047309e-04   9.8671322e-04   7.9387700e-04   8.4225688e-04   1.0720826e-03   1.5459418e-03   9.9042943e-04   1.0500539e-03   1.0032350e-03   4.4302159e-04   1.0609705e-03   9.4893837e-04   8.9285697e-04   1.7976499e-03   8.0947229e-04   8.6476014e-04   8.4076799e-04   8.1538304e-04   8.2221755e-04   1.3828896e-03   2.0508931e-03   1.9276373e-03   3.1407331e-03   9.1284845e-04   8.5856998e-04   1.8351781e-04   2.5053378e-04   5.8847357e-04   1.4669914e-03   8.1198529e-04   7.4734818e-04   1.3663133e-03   3.9523863e-03   3.2494729e-03   4.0661669e-03   7.1191584e-04   1.2204837e-03   1.1441052e-03   1.7880728e-03
   1.8937649e-04   1.6226573e-04   3.7925871e-04   1.6992897e-04   2.1861326e-04   5.0889497e-04   8.3588425e-04   6.1305484e-04   8.1567228e-04   4.6484088e-04   6.8521546e-04   3.3340897e-04   6.8992854e-04   6.1171030e-04   5.3711893e-04   9.8282518e-04   1.0244409e-03   5.8001140e-04   1.3222924e-03   8.7052025e-04   3.6210191e-04   1.0831886e-03   9.2326989e-04   9.3138946e-04   1.0546047e-03   4.8776218e-04   6.4201403e-04   9.5174281e-04   2.2211261e-03   7.9388032e-04   9.8163728e-04   1.7421977e-03   1.7023528e-03   3.8539309e-03   8.5922400e-04   1.0121203e-03  -4.9241316e-06   6.9964782e-04  -6.1740389e-04   1.0984680e-02   1.0251206e-03   2.0244402e-04   1.7094429e-03  -5.6761940e-04   5.4151881e-03   5.4048485e-04  -5.7485554e-04   7.2768901e-04   7.3009031e-04   1.3722810e-03
   4.0841529e-05  -9.8295219e-05   2.0235694e-04  -2.1794045e-05   3.6328056e-05   3.0634127e-04   6.2053150e-04   5.6269846e-04   4.1396788e-04  -2.0420883e-04   2.9460248e-04  -3.5541132e-04   7.7214517e-04   4.4085656e-04   8.0156059e-04   9.2498265e-04   1.0076730e-03   8.5266697e-04   5.9848087e-04   7.2975614e-04   2.9676899e-04   9.5541799e-04   7.5161364e-04   7.0637098e-04   1.3512222e-03   5.1452010e-04   3.2481484e-04   1.1449880e-03   1.0276531e-03   6.4277649e-04   1.4509374e-03   1.6317230e-03   1.5702542e-03   4.3771560e-03   8.2660682e-04   1.0222485e-03  -4.7386097e-04   6.2705844e-04   1.9783268e-04   2.2089580e-02   6.1548915e-04   5.3379132e-04   1.6141244e-03   6.8493416e-03  -1.6409254e-03   2.1484573e-03   5.2204664e-04   9.4820728e-04   1.0169643e-03   1.3916299e-03
   2.3415180e-04   1.6796283e-04   4.3747007e-04   2.5642250e-04   2.8041567e-04   6.3957833e-04   9.5782819e-04   7.1971933e-04   1.1053480e-03   8.7729999e-04   8.8346377e-04   5.5483269e-04   9.3020400e-04   7.6915481e-04   8.3107734e-04   6.3182408e-04   1.4161030e-03   1.0800036e-03   1.1806840e-03   9.4220147e-04   4.4542531e-04   1.0550199e-03   9.1602816e-04   8.5442537e-04   1.4676152e-03   7.9670222e-04   2.9450018e-04   1.1698245e-03   2.0204124e-03   7.3183875e-04   2.1373599e-03   1.8877150e-03   1.9330065e-03   4.1142004e-03   6.9790101e-04   7.2374288e-04  -1.5873727e-04   5.5444741e-04   1.2280325e-04  -4.6009786e-04   7.0555939e-04   4.0690522e-04   1.2745151e-03  -4.0377928e-03   1.2244935e-03  -6.4414082e-04   9.6333009e-05   6.3496921e-04   1.3948245e-03   1.5165042e-03
   1.9204889e-04   1.0398417e-04   3.7733628e-04   1.8692439e-04   2.3562707e-04   4.6371788e-04   7.1947253e-04   5.6509877e-04   8.1284245e-04   5.0109689e-04   6.5283169e-04   2.9451886e-04   5.7289220e-04   5.3906860e-04   6.2033511e-04   1.1829626e-03   1.0735438e-03   6.9823593e-04   8.0717646e-04   8.7640248e-04   3.2517378e-04   1.0570808e-03   7.6098030e-04   7.2316115e-04   1.1924212e-03   2.9082331e-04   3.2888903e-04   6.3696987e-04   1.8918200e-03   6.0746667e-04   1.4292082e-03   1.3132653e-03   1.7499683e-03   2.5727809e-03   5.7541061e-04   1.0515369e-03  -4.0411999e-04   3.4528621e-04  -2.7243857e-04   3.7549104e-04   8.6354912e-04   9.9590274e-05   1.1595847e-03   1.8849801e-02   1.0891190e-03   1.5203916e-03  -3.7034249e-04   4.7287645e-04   7.5410132e-04   1.2860312e-03
   8.5411652e-05  -3.6016005e-05   2.6419971e-04   5.2384978e-05   1.3018528e-04   3.7150233e-04   6.7239569e-04   3.2123100e-04   5.0920894e-04  -2.3632747e-04   2.4685927e-04  -1.9832929e-04   4.3872793e-04   6.6692429e-04  -9.6034928e-05   1.1156913e-03   5.9579662e-04   3.7348029e-04   6.7835726e-04   7.1930140e-04   1.8910250e-04   9.6936413e-04   6.7019614e-04   6.4754876e-04   1.1014923e-03   2.7100612e-05  -9.3097413e-05   7.2920584e-04   1.7780797e-03   4.5772805e-04   1.4040302e-03   1.2009162e-03   1.6020808e-03   1.4996983e-03   4.8468704e-04   1.1040524e-03  -1.2807969e-04   1.3339594e-04  -1.0686295e-04   8.5635483e-03   6.5368944e-04   5.4336869e-04   1.0700026e-03   1.7491547e-02   4.5134974e-04  -6.6975621e-04   8.5775874e-04   1.1721036e-03   1.4067495e-03   2.0320909e-03
   2.4778899e-04   2.0243270e-04   4.5738698e-04   2.7268694e-04   3.5285836e-04   6.5051718e-04   9.2777726e-04   1.0441253e-03   8.9907605e-04   8.9873938e-04   8.2733249e-04   7.5110898e-04   8.0678880e-04   7.4590772e-04   4.3760455e-04   1.0819049e-03   6.7362038e-04   3.1173200e-04   9.6492382e-04   1.0221576e-03   4.0959450e-04   1.2028753e-03   8.7488402e-04   7.9088740e-04   1.2003296e-03  -1.2679996e-04   5.9591880e-04   1.0035065e-03   4.8347231e-04   5.2432989e-04   1.1348103e-03   9.6148613e-04   1.7388089e-03   1.2299718e-03   7.1775733e-04   6.9354603e-04   6.5159384e-04   2.4020703e-05   4.0380177e-04  -3.7071267e-03   8.7175192e-04   4.8511053e-04   1.1311879e-03  -1.5656326e-03   2.9991914e-03  -3.3295911e-03   4.2197460e-04   7.5677870e-04   1.3853827e-03   1.8932313e-03
   1.5757112e-04   1.1900757e-04   3.3992482e-04   1.8051291e-04   2.3074137e-04   4.5398509e-04   9.1413746e-04   4.5263569e-04   7.4724550e-04   4.2387546e-04   5.6566962e-04   3.7240877e-04   4.5563851e-04   7.5874943e-04   1.6293871e-04   9.0174662e-04   4.3342490e-04   7.3582385e-05   6.1605324e-04   9.1540831e-04   3.5276209e-04   1.2316916e-03   6.9428893e-04   6.1614212e-04   7.4531499e-04  -4.1937287e-04   8.2592887e-04   6.5539818e-04   8.4206759e-04   3.9073720e-04   9.6723455e-04   5.3235743e-04   1.6326860e-03  -3.2948607e-05   4.0823032e-04   3.4592563e-04  -7.7303324e-04  -1.7830395e-04   7.7514036e-04   2.8184631e-03   4.4703347e-04   1.6978684e-04   1.1629254e-03  -5.3661212e-04  -3.9731436e-03  -1.7432731e-03  -3.5709297e-04   6.2064739e-04   7.1256101e-04   1.4081050e-03
  -8.4984924e-05  -7.4706615e-05   1.3304831e-04  -2.9187626e-05   1.7342085e-05   2.0625662e-04   5.2960776e-04   5.7761051e-04   4.2579020e-04  -2.5147758e-04   1.5097132e-04  -2.2116206e-04   3.0143696e-04   5.6148041e-04  -2.6836156e-04   8.7005715e-04   1.1916972e-04  -8.5276799e-05   3.8049003e-04   7.3642639e-04   2.3264300e-04   1.0746103e-03   5.7431631e-04   4.4283961e-04   5.3195033e-04  -5.4365682e-04   4.1972304e-04   1.0399079e-03   9.2840509e-04   2.3734070e-04   1.1110808e-03   6.1026309e-04   1.5114726e-03  -6.1011745e-04   4.2981654e-04   1.0922017e-03   5.2332267e-04  -3.0415913e-04   3.9915607e-04   7.3020407e-03   3.1222007e-04   5.0114800e-04   7.3477317e-04  -5.2531213e-03  -3.3772562e-03   4.1234563e-04   6.0117128e-04   9.6618524e-04   1.4850297e-03   1.6558189e-03
  -3.6569014e-05   1.0345240e-04   2.6817413e-04   1.3732872e-04   1.9044276e-04   4.7449151e-04   8.9534087e-04   7.0319913e-04   7.3754397e-04   7.1645022e-04   5.9342646e-04   5.9416023e-04   4.8986002e-04   5.6986598e-04   3.3765496e-05   8.8880758e-04   8.3382969e-05  -8.2751030e-05   1.1852569e-03   9.0004609e-04   3.9343614e-04   1.2278431e-03   6.1852165e-04   6.7640754e-04   8.5367577e-04  -6.6751637e-04   2.5802644e-04   7.1139907e-04   4.5652682e-04   3.0589401e-04   1.0062421e-03   3.0419003e-04   1.4786834e-03  -1.3545157e-03   4.4343559e-04   5.6138082e-04   6.7729293e-04  -3.6355390e-04   5.9801049e-04   1.1245847e-02   6.3176313e-04   3.8471623e-04   6.1587658e-04  -4.6374891e-03  -1.3503148e-03  -2.8058465e-03   1.9903634e-04   7.8048225e-04   1.0655946e-03   1.7486482e-03
  -1.3203673e-04   1.4573864e-05   1.7827288e-04   3.3954304e-05   7.9886144e-05   3.2347135e-04   6.2202185e-04   6.8919209e-04   6.6313095e-04   2.5523987e-04   3.5910078e-04   2.1880388e-04   3.5789722e-04   4.6637346e-04  -1.3707238e-04   8.7805418e-04  -1.2795338e-04  -1.4942385e-04   1.1895992e-03   7.9708948e-04   3.5405476e-04   1.1839704e-03   4.1946766e-04   5.3389376e-04   5.5253238e-04  -8.8751764e-04   2.2124291e-04   1.0174523e-03   1.1511446e-03   2.0860178e-04   9.2156063e-04   3.0487200e-04   1.5030893e-03  -2.4542727e-03   5.2668591e-04   1.0687084e-03  -2.4209729e-04  -4.4543482e-04   8.1032724e-04   7.8993058e-03   4.5795605e-04   9.8775607e-05   6.3641591e-04  -7.1429327e-04   3.3769717e-03   1.0867178e-03  -4.5255417e-04   4.6155651e-04   8.1147224e-04   1.8134620e-03
  -2.9507157e-04  -1.5934135e-04   2.3421497e-05  -1.3407609e-04  -6.5123648e-05   1.1610905e-04   4.7708006e-04   3.4294231e-04   3.4763230e-04  -2.6032102e-04   1.5772017e-05  -9.0420181e-05   5.7156918e-05   4.7738475e-04  -2.5503366e-04   3.9473313e-04  -2.3887584e-04  -4.8835878e-04   6.5680651e-04   7.5076113e-04   3.4861520e-04   1.0641711e-03   6.6331791e-04   5.4215523e-04   8.5024798e-04  -8.9281489e-04   5.9582409e-04   1.0737660e-03   1.4980910e-03   2.1952532e-04   1.3681190e-03  -2.4943065e-04   1.4033308e-03  -3.5342195e-03   4.8736011e-04   3.4362727e-04   8.5222558e-04  -4.4795364e-04   3.9994760e-04   6.7756460e-03   5.7096692e-04   4.7540467e-04   5.7885790e-04  -2.3524540e-03  -1.6117855e-03   2.7572578e-03   4.3724859e-04   8.0207275e-04   1.4972005e-03   2.2936044e-03
   5.1002156e-05   1.3400326e-04   2.3971667e-04   1.0045833e-04   1.2447813e-04   2.5525509e-04   6.2024128e-04   5.5273174e-04   4.1264179e-04  -4.7578415e-05   2.3513632e-04   3.5662213e-04   8.3095816e-05   4.3904953e-04  -5.1467173e-04   8.7728433e-04  -2.8401613e-04  -3.6245020e-04   7.8407838e-04   8.3354249e-04   4.4067609e-04   1.0850034e-03   5.6128064e-04   4.3437158e-04   3.6947429e-04  -6.7793269e-04   3.4094069e-04   7.7531935e-04   3.6636510e-04   1.9370967e-04   1.0369020e-03  -8.1904611e-04   1.0749705e-03  -3.5666607e-03   4.3795892e-04   1.4718289e-03  -9.8430892e-06  -3.3873040e-04   4.6767879e-04  -4.4236914e-03   3.9457320e-04   2.0746228e-04   4.9982284e-04  -7.4134427e-03  -2.2109910e-03   3.4191376e-03  -3.5204581e-04   6.3225947e-04   1.2744119e-03   2.2214646e-03
   1.1516064e-04  -1.6759574e-05   8.6924272e-05   4.4570792e-05  -5.8247423e-07  -5.2804706e-05   2.9753140e-04   4.7341880e-04   2.4713168e-04  -9.6074404e-04  -2.4895938e-04  -3.7177777e-04  -1.3495193e-04   2.3764462e-06  -9.0632377e-05   1.4319556e-04  -3.6906142e-05  -5.2015832e-05   7.3277962e-04   5.6757650e-04   3.0591124e-04   7.8095717e-04   4.3180044e-04   1.3282050e-04   5.2560359e-04  -2.9206026e-04   3.8136324e-04   3.2963787e-04  -6.4664416e-04   7.6447497e-05   1.9792763e-04   1.7830955e-04   9.4160350e-04  -1.5684594e-03   3.9866148e-04   4.2402120e-05  -2.6660142e-04  -1.6098800e-04   2.6632202e-04   9.3839485e-03   1.5135750e-04  -2.2782799e-04   4.6206088e-04  -2.7803404e-03   3.9944225e-03  -3.5222380e-03  -6.6848844e-04   2.3154181e-04   1.2449415e-03   1.7714078e-03
   5.2926549e-05  -9.7989745e-05   1.3511699e-04   2.5365609e-05   2.2735465e-05  -8.4967833e-06   5.4525118e-04   1.9756757e-04   4.3224666e-04  -4.8166556e-05   7.1684728e-05   2.4346654e-04  -2.1183491e-04  -1.1263406e-04  -5.7425397e-04   1.5379078e-04   1.5118853e-04   1.3116369e-05   6.0570770e-04   6.3636375e-04   4.3293936e-04   8.3964638e-04   4.4511905e-04   3.1126791e-04   5.8460172e-04  -1.3570191e-04  -1.5681799e-04   4.0439458e-04   3.4635558e-04   1.4243115e-04   3.4393152e-04  -2.2470158e-04   9.4244507e-04  -5.6031876e-04   4.0019464e-04   5.1977026e-04  -6.4738438e-04  -1.2207717e-04  -6.7581648e-05  -2.0653850e-03   2.7880201e-04   1.8089953e-04   7.8034011e-04  -6.6593871e-03  -2.8499470e-03  -5.2554025e-03   2.9243878e-05   5.6440628e-04   1.0733503e-03   2.0680211e-03
  -1.6069884e-05  -7.1219009e-05   7.4160067e-05  -2.6019408e-05  -2.4409306e-05  -3.4884019e-05   3.4358131e-04   1.4660529e-04   4.2207533e-04  -2.7432080e-04  -3.7528538e-05   1.1724965e-04  -1.5982457e-04  -1.2662570e-04  -2.5553803e-04  -1.4049475e-04  -9.2868679e-05  -3.3571164e-04   4.5840620e-04   4.9790530e-04   3.3632742e-04   7.8054453e-04   3.6460097e-04   2.3745949e-04   4.4477961e-04  -3.5378090e-04   2.4949964e-05   2.1928475e-04  -3.2968877e-04   7.5216500e-05   7.8879111e-04  -5.0318695e-04   1.0363046e-03  -2.3439187e-03   4.7071415e-04   5.8836851e-04   1.5253846e-04  -3.9337855e-04  -8.7368273e-05  -9.9505382e-03   1.8263525e-04   1.4387596e-04   3.6974601e-04   1.3172663e-02   7.7104545e-03  -3.0627253e-03  -2.7332667e-04   6.1878259e-04   1.1063085e-03   1.6660618e-03
  -2.4856286e-04  -2.4227462e-04  -1.1919458e-04  -2.1553981e-04  -2.0114309e-04  -2.4181401e-04   2.7009306e-04   1.7621359e-04   1.3768587e-04  -9.2922297e-04  -3.9270273e-04  -4.1532164e-04  -4.6040467e-04  -2.1068931e-04  -6.7982700e-04   2.0620720e-04  -3.0763660e-04  -4.0477279e-04   4.8318965e-04   3.9337319e-04   2.7300353e-04   7.7759748e-04   1.9996167e-04   1.2080755e-04   4.9645582e-04  -5.4741366e-04   1.5639207e-04   6.3201488e-04   5.6098029e-04   2.0098701e-05   2.4675750e-04  -8.3100243e-04   1.0204205e-03  -2.4576266e-03   4.3672780e-04   9.1532571e-04  -5.4819818e-04  -3.3303248e-04   1.5122189e-04   1.8734605e-03   2.8544627e-04   4.4236649e-04   8.0276985e-04  -6.4332428e-04   1.1447076e-02  -5.7863188e-04   6.4472039e-04   7.1472937e-04   1.3618880e-03   1.7509381e-03
  -1.4220108e-04  -3.1685751e-05   2.2091695e-05   5.3417348e-06  -2.3434772e-05   2.8867618e-05   4.0666241e-04   1.4179411e-04   6.6855381e-04  -5.5319222e-05   8.4951171e-05   2.7120154e-04  -1.7631479e-04  -3.6757468e-05  -3.2022464e-04  -5.4850982e-05  -1.0110169e-04  -3.6569269e-04   5.1365286e-04   5.9588253e-04   3.7443184e-04   8.3112670e-04   4.1867071e-04   2.3185757e-04   6.2092865e-04  -2.1918421e-04  -1.2891233e-05   6.5363571e-04  -3.2090535e-04   1.8707840e-04   5.2263570e-04  -7.7723316e-04   9.7022997e-04  -1.7267193e-03   4.5693706e-04   6.7960675e-04  -6.2297273e-04  -2.0048056e-04  -1.1632198e-04   3.8757345e-03   9.6364942e-04   2.3764427e-04   6.1686960e-04   9.2002982e-03  -4.3557831e-03   6.9252676e-03  -6.2110943e-05   5.9592078e-04   1.0510663e-03   1.9273965e-03
  -1.8850034e-04  -1.2615533e-04  -5.7078389e-05  -6.4238360e-05  -1.2387344e-04  -1.7005260e-04   3.1703981e-04  -4.7331760e-05   3.4229225e-04  -5.3478841e-04  -1.6632244e-04  -1.7394029e-04  -2.7529208e-04  -1.1742103e-04  -4.9995695e-04  -1.8149913e-04   1.6644140e-05  -2.7936464e-04   2.5481719e-04   4.4638326e-04   3.0771279e-04   7.3218427e-04   3.3169155e-04   1.3594239e-04   5.8861566e-04   6.8639187e-05  -1.1864153e-04   7.1189634e-04   1.1910668e-04   1.6166909e-04   3.9584708e-04  -7.7538600e-05   6.8574515e-04   7.1443297e-04   5.9787108e-04  -1.0386916e-04  -2.6408990e-04   3.4583260e-05  -9.5890142e-04  -2.5107914e-03   3.9859035e-04  -2.3121080e-04   8.9436222e-04   6.4689307e-03  -3.7672950e-03  -5.2966787e-03  -1.0646973e-03   2.1926766e-05   8.0863311e-04   1.0967867e-03
  -4.1370370e-04  -4.0416748e-04  -2.3675720e-04  -2.2699327e-04  -3.4284810e-04  -4.9860839e-04   1.6989494e-05  -2.5708662e-04   1.1829301e-04  -7.0887245e-04  -2.7107747e-04  -4.7744834e-04  -3.6774896e-04  -4.7630799e-04  -1.7911237e-04  -5.1156606e-04   5.2766642e-04   2.7879255e-04   3.8573143e-04   5.1415717e-04   3.8446626e-04   6.3948910e-04   3.5528140e-04   1.5355404e-04   8.9689478e-04   7.2497583e-04   1.9388534e-04   4.9404177e-04  -4.6538466e-04   2.3157075e-04   4.3663004e-04   2.0487668e-04   6.1660697e-04   2.5131456e-03   5.1810214e-04   1.0079482e-04  -6.8858243e-04   4.0215411e-04   1.4868005e-04   9.3029384e-03   4.2033769e-04   3.7078105e-05   1.0736677e-03  -5.8900104e-03   6.0193641e-03   4.0652265e-04  -2.1244111e-04   2.4888743e-04   7.3956233e-04   1.1860349e-03
  -3.3391791e-04  -2.7674413e-04  -1.4635838e-04  -8.8826637e-05  -2.7754068e-04  -3.5827601e-04   2.6482478e-04  -1.7111344e-04   4.8495005e-04  -3.2431234e-04  -5.2926793e-05  -2.7594430e-04  -3.4927326e-04  -2.8856884e-04   1.4705749e-04  -3.7481895e-04   7.1737176e-04   5.1107339e-04   4.9216836e-04   3.8904813e-04   3.5199276e-04   5.7824096e-04   1.7573457e-04   7.0679831e-05   7.1088201e-04   7.9878082e-04   1.0220202e-05   1.0948779e-04   4.4549111e-04   1.9027054e-04   6.8873027e-04   1.8835496e-04   8.2619517e-04   2.7783716e-03   3.6322422e-04   4.4164768e-05  -1.2634825e-03   3.4625691e-04  -1.2101585e-03   1.7707968e-03   1.4247852e-04  -1.4056449e-04   1.0456913e-03  -1.2065011e-02  -2.1707532e-03  -3.2727476e-04  -6.2018889e-04   4.0742257e-04   7.5177522e-04   1.0753914e-03
  -4.4309880e-04  -3.5136746e-04  -2.3694654e-04  -1.8130209e-04  -3.4703943e-04  -4.6982052e-04   7.8470890e-05  -2.6870787e-04   3.0465078e-06  -6.7307136e-04  -2.8524088e-04  -4.8669343e-04  -3.2689958e-04  -1.8694811e-04  -2.5246103e-04  -4.8051379e-04   1.6308372e-04   5.4166085e-05  -2.0037164e-04   2.4529226e-04   1.7133098e-04   6.4487843e-04   2.9835204e-05  -5.7889938e-05   6.1890000e-04   1.7909535e-04   3.5270441e-05   7.3742674e-05  -1.0112475e-05   8.5969616e-05   3.2156572e-04   3.6144161e-04   8.1185903e-04   4.9615360e-04   3.0404652e-04   7.6819648e-04  -5.2503770e-04  -1.1200470e-04  -7.6184602e-04  -1.1257193e-03   7.0563729e-05  -3.3073634e-04   6.0967595e-04  -8.1739714e-03  -3.2449787e-04   2.4528403e-03  -1.0111404e-03   2.1495318e-04   6.2507601e-04   1.2128322e-03
  -4.4398804e-04  -4.2054546e-04  -3.1930968e-04  -2.9821627e-04  -4.0902884e-04  -5.1711826e-04  -7.0760580e-05  -3.5213608e-05   1.3446690e-04  -1.2834942e-03  -5.8097497e-04  -8.6482853e-04  -5.9290137e-04  -2.7364824e-04  -5.6855497e-04  -3.2073236e-04  -1.0467815e-04   3.1131218e-05   3.7129450e-06   2.5211176e-04   1.4899779e-04   6.8501552e-04   1.9389983e-04   1.0990897e-05   6.8568764e-04   3.3004897e-05  -4.6107511e-05   4.1588524e-04  -5.9008290e-04   7.9682526e-05   7.1580929e-04   5.7556688e-05   8.2256127e-04  -2.0250260e-04   3.6732227e-04  -1.5056266e-04  -6.9649750e-04  -9.7034579e-05  -6.4396957e-04   1.5376356e-02   3.7635892e-04   2.0029680e-04   6.8724668e-04   2.3120679e-02   8.5927994e-04  -1.7040983e-03   4.9718702e-04   6.0771167e-04   9.2314539e-04   1.5817600e-03
  -1.6501528e-04  -1.0105489e-04  -5.9190537e-05  -1.4988644e-05  -1.3408247e-04  -8.7159504e-05   2.7931246e-04  -2.6912693e-04   4.8515425e-04   6.2181389e-05   9.7232958e-05   2.8212732e-04  -1.5423898e-04  -2.1152018e-04   2.6664344e-05  -3.4842658e-05  -6.9488910e-05  -2.8971015e-04   3.9193415e-04   4.0149028e-04   3.0123437e-04   8.1333664e-04   3.1712354e-04   1.7457931e-04   8.9272624e-04  -7.1951355e-05  -1.2402475e-04   9.2985906e-04  -5.4812152e-04   2.3954849e-04   8.3340169e-04  -2.2627035e-05   8.0389233e-04  -1.4461661e-03   4.2699950e-04   5.2878208e-04  -4.7624469e-04  -2.0838999e-04  -2.6408775e-04   8.5312435e-03   4.7803996e-04   2.5437228e-04   1.0096245e-03  -1.3832889e-02  -1.2065476e-03   8.3457294e-04   3.0564805e-04   5.7493942e-04   1.2235293e-03   1.7192967e-03
  -2.1422835e-04  -1.7993472e-04  -1.5201130e-04  -1.2053419e-04  -2.2373244e-04  -2.9902501e-04   1.8862580e-04  -2.2758498e-04   3.9246530e-04  -3.5035485e-04  -8.6555112e-05  -3.9620540e-05  -2.6790012e-04  -2.2206341e-04  -2.4949049e-04  -5.7365961e-04  -3.6998867e-04  -5.0515565e-04   6.9582398e-04   3.3980512e-04   7.5622357e-04   9.1668422e-04   2.6979760e-04   6.8637528e-05   2.7303473e-04  -2.0733988e-04  -2.1726680e-04   7.0829847e-04  -5.2702671e-04   2.1694064e-04   3.7994975e-04  -6.0949352e-04   8.3246513e-04  -2.6724187e-03   4.0222917e-04   3.9096543e-04  -3.3754750e-06  -3.2104421e-04  -8.7739563e-06   2.6949125e-04  -5.0084207e-05  -1.7415200e-04   5.2576780e-04   7.9890648e-03   4.7301801e-05  -6.5315575e-03  -6.2242325e-04   2.9520827e-04   5.5097550e-04   1.1695630e-03
  -3.9985325e-04  -3.8630422e-04  -3.6884047e-04  -2.7898661e-04  -4.6207561e-04  -5.2692706e-04  -5.2039646e-05  -1.8393583e-04  -2.0976079e-04  -1.3818173e-03  -5.3068902e-04  -9.4733527e-04  -5.0379382e-04  -5.5485906e-04  -1.0095761e-04  -7.8419293e-04   4.0141359e-04  -9.5673859e-06   1.6467606e-04   1.2092953e-04   7.1655435e-04   3.0167971e-04  -1.2773058e-05  -2.9221343e-04   4.7399558e-04   9.9307776e-04  -3.7512503e-04   8.8740795e-05  -5.6525366e-04   1.3353242e-04  -7.3970266e-05   7.3075388e-04   2.8148430e-04   2.8519058e-03   2.9461170e-04   7.1815966e-04  -7.6803536e-04   4.2029948e-04  -5.4825854e-04   1.5350281e-03   1.1195580e-04  -2.5868937e-04   9.7771722e-04  -7.0484551e-03   1.2249716e-03   6.3830176e-03  -3.1183157e-04   2.4258737e-04   5.8320537e-04   1.0806206e-03
  -3.0776786e-04  -3.1402911e-04  -2.5969886e-04  -1.1585491e-04  -3.6180543e-04  -3.6544265e-04   4.4916949e-05  -3.0191836e-04   3.8062540e-04  -2.6111669e-05   5.6451754e-05   9.3001516e-05  -2.9103147e-04  -3.6408778e-04   3.4661265e-04  -8.5639628e-04   4.8595003e-04   2.4436117e-04   2.1828705e-04   2.7637251e-04   5.0054019e-04   3.9932108e-04   8.0439342e-05  -5.8628881e-05   8.6460600e-04   6.2916480e-04  -6.3746941e-04   1.1677483e-04   6.6781155e-04   1.9460311e-04   4.5986002e-04   1.4866643e-04   6.2295893e-04   1.4938407e-03   4.1316837e-04   6.9046428e-04  -1.2842187e-04   1.0938859e-04  -9.3805761e-04   7.7704934e-04  -7.7355808e-06  -7.7463592e-05   5.6329108e-04   1.5296633e-03   3.7425067e-03  -5.4059019e-03  -2.3378718e-04   5.0773146e-04   6.3119398e-04   1.4194103e-03
  -3.9368201e-04  -3.1586111e-04  -3.1534841e-04  -1.8360840e-04  -3.7305808e-04  -3.5739670e-04   3.8674229e-05  -2.2220463e-04   1.4648277e-04  -3.1559414e-04  -1.7077387e-04  -7.1957562e-05  -3.4474686e-04  -4.0700877e-04  -1.9297221e-04  -4.2919975e-04  -7.3811956e-05  -9.4801188e-05   6.1247009e-04   1.7827256e-04   3.1644831e-04   5.1428581e-04   2.7602800e-05  -4.8490860e-05   4.1333618e-04   5.5234726e-05  -1.3877999e-04   3.4762867e-04  -5.9903861e-04   1.4923014e-04  -2.8243585e-04  -1.2409141e-04   3.4885967e-04  -7.5112745e-05   2.8038726e-04  -2.6845321e-04  -7.0795033e-04  -1.6332377e-04  -1.1314213e-03   1.7519493e-04   2.0535337e-04  -1.6378345e-04   4.7561995e-04   4.4619769e-04   2.0966611e-03   3.6323529e-03  -5.8989506e-04   1.0277970e-04   7.8794442e-04   1.1378954e-03
  -4.3848564e-04  -4.2250464e-04  -4.0175204e-04  -3.0506917e-04  -4.6399244e-04  -5.7434657e-04  -1.2443023e-04  -6.7914330e-04   2.5310112e-05  -9.2232047e-04  -4.4730279e-04  -5.4985110e-04  -4.8512773e-04  -4.5341381e-04  -3.8065368e-04  -7.6571241e-04  -1.7713923e-04  -8.2352315e-05   1.8956982e-04  -3.0578361e-05   1.9564164e-04   4.3027016e-04  -1.9620486e-04  -2.9147812e-04   3.0790135e-04  -1.1197759e-05  -4.0966357e-04   2.6961957e-04  -8.2836294e-04   3.1453008e-05   3.5547338e-05  -4.8561557e-04   4.3413177e-04   7.1622507e-04   3.3071215e-04   1.3796476e-04  -4.7098918e-04  -4.7494443e-05  -1.4269995e-03   9.5290830e-03   3.1362404e-04   1.2475760e-04   5.0880009e-04   6.3715279e-03  -6.4211376e-03  -3.8094646e-03   3.1923832e-04   9.9512486e-05   6.8417744e-04   1.1424191e-03
  -2.0412973e-04  -1.7956637e-04  -1.5281320e-04  -3.9189355e-05  -1.6916014e-04  -2.4575515e-05   2.5081568e-04   5.9874255e-05   7.1841135e-04   4.2101258e-04   1.8113127e-04   5.5431924e-04  -2.2704070e-04  -3.6146637e-04  -4.9984420e-04  -4.3319803e-04  -7.9612750e-05  -4.0003620e-04  -3.1859676e-05   2.3995676e-04   3.6910383e-04   6.1165652e-04   6.1117957e-05   4.8331280e-05   5.6349160e-04  -1.2515708e-04  -4.0456867e-05   5.4538267e-04   7.2496379e-04   1.9591939e-04   1.0275609e-04  -1.2310495e-04   3.8694852e-04   1.7088426e-03   3.7890542e-04  -3.7471997e-04  -6.8755401e-04  -5.9580575e-06  -1.0059820e-04  -2.3883972e-03   1.5092647e-04   2.1538777e-04   5.1467499e-04   2.5570840e-03   4.8393602e-03   4.6121255e-03   1.6152811e-04   1.5170380e-05   7.9275988e-04   8.6906081e-04
  -1.6050125e-04  -1.6874657e-04  -1.1763581e-04  -4.0331714e-05  -1.5284224e-04  -1.1525388e-04   2.1187852e-04  -1.6539515e-04   4.6846972e-04   9.0037916e-05   2.8394454e-05   3.1039715e-04  -1.3303492e-04  -2.3162991e-04  -6.0405495e-04   2.0346653e-05  -2.1578844e-04  -3.7475972e-04  -6.7096480e-05   1.2778011e-04   3.2879136e-04   6.1141537e-04   5.3790598e-05  -4.1635463e-05   2.4192736e-05  -3.5033078e-04   1.3045517e-04   1.8413551e-04   2.0024850e-04   9.6463693e-05   7.7512472e-05   3.9149108e-05   2.6844058e-04   1.3190517e-03   2.5080395e-04  -2.7494607e-04  -5.3359993e-04  -1.0985013e-04  -3.3040225e-04   1.2260788e-02   5.6519453e-05  -1.2318797e-04   7.7294542e-05   1.8122960e-03  -5.4284227e-03  -5.7053915e-03  -6.0234719e-04  -4.1848727e-04   3.6253803e-04   3.6669656e-04
  -2.6366470e-04  -2.9983310e-04  -1.9149762e-04  -1.4864598e-04  -2.0467152e-04  -2.4867835e-04   3.7920978e-05  -9.8369375e-05   1.3897354e-04   3.3272241e-05  -7.1338545e-05   2.4417421e-04  -1.9643418e-04  -3.6297092e-04  -1.2720680e-04  -2.8700623e-04  -3.0024970e-04  -4.1543951e-04   4.0491929e-04   2.4923016e-04   4.1684997e-04   6.9730612e-04  -4.5252611e-05   1.0204944e-04   3.1513339e-04  -5.0559890e-04   1.0722895e-04   5.6663482e-04   5.7277788e-04   1.1201388e-04  -2.1051006e-04  -8.4462161e-05   2.4851103e-04   1.0285027e-03   4.5025890e-04   2.6756094e-04  -4.5119150e-04  -1.8242054e-04  -1.3402097e-03  -3.7956132e-05   3.0655612e-04   2.8244627e-04   4.9665745e-04   1.4275392e-02   1.6159605e-03   3.7760744e-03   6.2674936e-04  -6.1807092e-05   9.6067594e-04   7.8578043e-04
  -3.2190874e-05   4.1029907e-06   7.9097634e-05   1.6359167e-04   2.7097180e-05   1.3607365e-04   4.1957133e-04   4.5222678e-04   6.3436711e-04   5.5986329e-04   2.9306990e-04   7.2005769e-04  -1.5256622e-04  -2.7777659e-04  -5.9953687e-04   9.2437542e-05  -2.2083936e-04  -3.2623805e-04   1.9865004e-04   4.0468655e-04   5.0254603e-04   8.3027140e-04   8.1184779e-05   1.0402276e-04   3.4706238e-05  -5.7453295e-04  -1.4295611e-05   7.4854103e-04   2.9904323e-04   1.2105765e-04  -2.0393710e-04  -6.3019892e-05   5.4120377e-04   1.0615757e-03   2.3610046e-04  -2.0779755e-06  -5.3221593e-04  -2.0728161e-04  -6.6752534e-04   3.8795383e-04   5.7766109e-04   2.0665908e-04   2.9067750e-04   3.1924722e-04   8.0526387e-04  -3.8007742e-03   5.2774791e-05  -3.8506181e-04   4.4913130e-04   7.9989922e-04
  -2.6043630e-05  -5.3616539e-05   9.5673022e-05   1.4330566e-04   8.3381992e-06   2.5943049e-05   2.6664816e-04  -5.2614714e-06   3.6459905e-04   1.2945931e-04   1.0586999e-04   3.7961590e-04  -1.7065626e-04  -2.4034177e-04  -6.2124053e-04   3.6849495e-05  -3.1117731e-04  -3.6525828e-04   7.2613492e-04   3.1652118e-04   4.2530551e-04   7.7688158e-04   9.3158524e-05  -1.1102609e-04   4.5194058e-04  -6.4899586e-04  -2.7376306e-04   5.9797475e-04  -4.5078405e-04   5.6322271e-05  -1.0248893e-04  -4.5268337e-04   3.8705303e-04   7.3955563e-04   1.1320737e-04  -6.7659210e-05  -2.2989181e-04  -1.9864549e-04  -7.9495169e-04   5.2271737e-03   2.1999318e-04  -1.1056341e-04   3.8141239e-04   1.9133961e-02  -1.0721396e-02  -8.4770075e-04  -6.4221141e-04  -5.9595273e-04   4.2032660e-04   5.4738746e-04
  -1.1798824e-04  -1.9912769e-04   3.1588326e-05   3.3657139e-05  -5.1658440e-05  -1.1743023e-04   2.7452238e-04   6.2031822e-06   4.1429876e-04   3.0265452e-04   1.2408786e-04   5.1959907e-04  -3.1589964e-04  -3.6641926e-04  -3.4747814e-04   4.4108403e-04  -3.7131686e-04  -4.6308796e-04   3.5483981e-04   3.9251024e-04   5.3768349e-04   9.2475896e-04   1.2575250e-04   1.0331109e-04   6.1224862e-05  -7.7606249e-04  -1.4740010e-04   6.0038484e-04   1.4345840e-03   5.0060313e-05  -1.3562471e-04  -7.1204320e-04   3.5882471e-04   7.0719456e-04   4.2508273e-05   1.1135322e-04  -7.2692899e-04  -3.1316723e-04   1.3503201e-04  -4.2127684e-04   3.3509528e-04   3.9932062e-04   2.5380446e-04   2.7152972e-02   5.6465372e-04  -1.3077908e-04   6.8511546e-04  -3.5832451e-05   8.2740758e-04   1.1510891e-03
   1.5217983e-04   1.4588634e-04   3.5217762e-04   3.7154762e-04   1.8424598e-04   1.8650251e-04   6.2179507e-04   3.2883236e-04   7.8235543e-04   7.1482459e-04   4.8673889e-04   9.0270751e-04   1.6939225e-04  -5.9428254e-05  -3.5753654e-04   2.9904841e-04  -1.9054483e-04  -4.4951326e-04   9.9153433e-04   5.8742840e-04   6.3315406e-04   9.2197867e-04   1.8018496e-04   1.6450194e-04   3.9597575e-04  -6.4937398e-04   4.4281966e-05   6.4136693e-04  -1.5127804e-04   1.2247446e-04  -1.5397121e-05  -4.8449193e-04   4.8027086e-04   6.7383389e-04   2.7986511e-04   2.2050367e-04  -1.9665816e-04  -1.9882721e-04  -1.3415568e-04   6.0442169e-03   5.8729301e-04   1.9323944e-04   4.2117402e-04  -8.4964931e-03   9.6743251e-04   5.3075566e-03   2.0814096e-04  -2.1511920e-04   6.7563588e-04   7.8674464e-04
   1.4345579e-04   6.6590517e-05   3.8011838e-04   3.3453549e-04   1.5599157e-04   6.5795059e-05   4.1838689e-04   2.7253389e-04   5.1996455e-04   2.2787569e-04   2.0884885e-04   4.8574904e-04  -8.2723272e-05  -3.2043335e-04  -6.0015440e-04   1.3008283e-04  -1.8480710e-04  -3.4671306e-04   6.4826984e-04   4.5826921e-04   5.6169834e-04   8.7388849e-04   1.5765896e-04  -7.7447949e-06  -1.8646586e-04  -6.3913147e-04  -1.7694649e-04  -1.6392014e-05  -3.3643091e-04   1.1860170e-05   1.9437152e-04  -1.5038883e-04   1.8492994e-04   6.9023599e-04   2.9537646e-04   6.3114439e-04  -2.5169214e-04  -2.0303504e-04  -2.1038020e-04   8.7228799e-03  -9.8271121e-05  -5.0462739e-05   2.1309423e-04   5.9430622e-03  -2.6283914e-03   3.7250218e-03  -5.8412785e-04  -5.8863324e-04   4.5097846e-04   2.7162462e-04
   6.6663270e-05  -9.7070682e-05   2.8153660e-04   1.7515605e-04   2.2761824e-05  -1.1603165e-04   1.9099888e-04  -7.5775621e-05   9.2574865e-06  -5.5613637e-04  -1.7401931e-04  -2.6725966e-04  -4.9046945e-04  -3.3720265e-04  -4.1378353e-04  -2.2306411e-04   1.1448763e-05  -2.7276744e-04   5.7087705e-04   2.9746047e-04   5.1128876e-04   7.7333668e-04  -7.4856871e-05  -1.1808918e-04  -1.5318292e-04  -3.3665306e-04  -3.5059635e-04  -9.6146730e-05  -6.9082459e-04  -6.1826839e-05   1.2172761e-04  -4.1080444e-04   2.8885918e-04   2.2754690e-03   1.8145314e-04  -5.0777855e-04  -8.2292664e-04   1.5054620e-04  -8.4498757e-04  -1.2365540e-02   1.4047747e-04   7.8116165e-05   3.8573751e-04   1.1765632e-02  -2.0347319e-03   4.7606635e-03   1.1624461e-04  -3.7881028e-04   6.5676041e-04   7.4756809e-04
   2.1836470e-04   7.7502278e-05   5.3387129e-04   4.4889722e-04   2.3923699e-04   1.2070030e-04   6.3698087e-04  -1.4629275e-05   5.9616118e-04   7.6732348e-04   4.0763229e-04   6.6220650e-04  -1.4397345e-05  -1.4941019e-04  -2.4726678e-04   1.4245421e-04   4.8958714e-04  -3.7782305e-05   5.1961729e-04   5.2436464e-04   7.3191541e-04   9.5299241e-04  -7.7202112e-06   5.1408893e-05   5.4432737e-04   2.0928183e-04   2.2328105e-04   1.0838238e-04  -6.2895828e-04   1.6452381e-05   4.5950736e-05   7.1342202e-04   6.0386484e-04   3.2850276e-03   3.0091446e-04   2.4772561e-04  -4.2267682e-04   3.7429304e-04  -9.3290641e-04  -6.9382810e-04  -1.0759210e-04  -1.2348771e-04   6.1928353e-04  -1.9419576e-03  -1.0243527e-02  -1.0607751e-03  -3.6719351e-04  -5.7363621e-04   4.2961721e-04   5.2435166e-04
   2.8780129e-04  -2.8606303e-06   5.6249759e-04   3.9293419e-04   1.6463929e-04  -8.6392145e-05   5.2224559e-04  -4.8695860e-05   5.0572091e-04   9.4056268e-05   1.2295730e-04   1.6242717e-05  -2.7219599e-04  -4.3747196e-04  -4.5582050e-04   1.0013457e-04   8.0823590e-04   3.3757131e-04   9.1824727e-04   4.1540692e-04   6.7319395e-04   8.4184500e-04  -9.7642878e-05  -1.7464408e-04   9.1967659e-06   7.0006715e-04   2.7472699e-05   4.5888595e-05  -8.1938138e-04  -5.5697183e-05   2.2235188e-04   8.0055924e-04   4.2799409e-04   3.9301161e-03   2.2739409e-04  -3.9899375e-04  -1.2330570e-03   6.0227013e-04  -1.0312812e-03   4.7412148e-04  -4.1197432e-05  -5.3789862e-04   4.0414254e-04   7.8346310e-03  -1.2025951e-03   6.6040433e-03  -1.2865544e-03  -6.2948850e-04   3.5861838e-05  -4.9514914e-05
   1.9806129e-04  -2.0171650e-04   4.3704879e-04   1.9806821e-04   4.1358515e-05  -2.3425459e-04   1.9390885e-04  -7.9616235e-05   2.1975292e-04  -3.6731781e-04  -2.3609368e-04  -4.4027576e-04  -5.9402356e-04  -6.0634193e-04  -4.8970146e-04   2.0170661e-04   3.7828318e-04   1.2777280e-04   5.2635116e-04   2.0280885e-04   4.8203446e-04   7.8859867e-04  -2.5043165e-04  -3.3623417e-04   2.2238963e-04  -3.2191278e-05  -1.4104722e-04  -2.0348803e-04  -6.7921227e-04  -2.3319288e-04   2.1149211e-04  -4.5376495e-05   5.6839356e-04   2.2906857e-03  -1.4846832e-04  -4.5705031e-04  -6.0165871e-04   4.8455244e-05  -4.1572927e-04   5.6970346e-04  -4.4866058e-05  -6.3102768e-04   1.4647462e-04   1.4716228e-02  -3.8619221e-03   7.2930433e-04  -1.3040963e-03  -1.0084535e-03   2.2247915e-04  -1.9332985e-04
   2.2395761e-04  -1.7540593e-04   5.3951144e-04   2.4735060e-04   1.7694166e-04  -1.0146377e-05   4.6909406e-04  -6.9546833e-05   4.7887306e-04   7.4935437e-04   2.1093193e-04   5.0887291e-04  -1.6325936e-04  -2.6466628e-04  -8.2143769e-04   5.7163044e-05   1.3958135e-04  -1.3639327e-04   5.9881341e-04   4.0244785e-04   6.2161573e-04   1.0116132e-03  -1.1982445e-05  -6.6894027e-06   2.5847438e-04  -1.9705594e-04  -3.9472702e-04   4.4132743e-04  -4.4650427e-05  -1.1762157e-04   8.4562693e-05   3.9118339e-04   4.9780088e-04   1.2437443e-03   1.1567582e-04  -1.4664727e-04  -1.0583653e-03   2.5262425e-05  -4.9214112e-04  -2.0952069e-03  -1.1563830e-04   4.3430005e-05   3.3244499e-04  -2.0067969e-03   1.7506351e-03  -2.6847802e-03   9.7663935e-05  -3.3923215e-04   3.3921737e-04   7.4254800e-05
   4.7487859e-04   1.1665523e-04   7.0947781e-04   4.0331139e-04   2.9120833e-04   1.2792528e-04   6.1734451e-04   1.8539392e-04   5.5895030e-04   5.8586610e-04   2.6211783e-04   4.6870508e-04  -1.1159274e-04  -2.1141104e-04  -2.9234440e-04  -3.2284737e-05   1.3782160e-04  -1.4050765e-04   9.7368320e-04   4.8660053e-04   6.6328823e-04   1.1286271e-03   9.2587034e-06  -5.7505304e-06   2.1959026e-04  -1.9140492e-04   2.5606845e-04   3.3690716e-04  -1.0158864e-03  -4.4863391e-05   2.0810802e-04  -2.1086758e-04   6.2088983e-04   1.2712012e-03   2.3963011e-04   8.5523119e-04  -8.4817689e-04   1.4692447e-05  -8.8212779e-04   1.5288869e-02   1.2209101e-04  -1.4933855e-04   1.6076588e-04  -1.9407839e-02  -6.0109287e-03   9.3622791e-04  -3.7666596e-04  -4.0803192e-04   4.8721093e-04   7.4807147e-05
   5.2415440e-04   2.1451280e-05   6.5756572e-04   2.9017017e-04   2.0355264e-04  -4.3193704e-05   1.8845081e-04  -3.3938421e-05   3.4902626e-04  -7.7681914e-05  -5.8449285e-05  -1.0388224e-04  -3.8914377e-04  -3.2987376e-04  -1.1028448e-04   1.1483298e-07   1.2425236e-04  -1.9810715e-04   2.0788460e-04   3.6681394e-04   5.4032123e-04   1.0299289e-03  -2.9370492e-05  -1.5903125e-04   1.5493535e-04  -1.9357690e-04  -1.9331137e-04   1.7793494e-04  -1.0484795e-03  -1.3292409e-04   4.8849979e-05  -2.5164173e-04   7.6834956e-04   1.4116161e-03   3.1766416e-05   1.0804636e-04  -7.1038905e-04   5.9425438e-05  -5.5979163e-04   4.5518223e-03   1.5200696e-05  -4.6427234e-04   2.0579297e-04  -1.5730917e-03  -7.7073718e-03  -6.6433527e-04  -1.1501741e-03  -9.5203042e-04   1.1773673e-04  -2.5027772e-04
   4.3816233e-04  -1.2867134e-04   4.9490947e-04   8.5952786e-05   7.2855699e-05  -2.4622111e-04   6.0682145e-05  -2.8659657e-04  -2.5779009e-05  -8.0544740e-04  -4.5369859e-04  -7.3244254e-04  -4.7743000e-04  -5.7085010e-04  -4.5980045e-04  -2.3815974e-04  -4.9427108e-05  -2.9377986e-04   3.6962915e-04   1.4623103e-04   3.9093514e-04   8.5244607e-04  -1.7023853e-04  -3.8464071e-04   7.6733835e-05  -2.7747266e-04  -5.1669282e-04   1.2578773e-04  -4.7952551e-04  -2.4374292e-04  -2.6131833e-05  -5.3772971e-04   3.9583244e-04   9.0141420e-04   1.1487505e-04  -9.6460822e-04  -6.2094670e-04  -1.4866984e-05   1.1447715e-04   1.2159945e-02   5.7704459e-05  -7.8817560e-05   4.4258293e-05  -1.5681449e-03   1.4498741e-03  -3.3078562e-05   5.3897144e-05  -5.0374522e-04   2.7185536e-04   1.9508501e-04
   6.0961774e-04   9.8839926e-05   6.9538306e-04   2.9497620e-04   2.9461514e-04   1.0715911e-04   4.3488326e-04   2.9310057e-04   4.6193981e-04   4.2508476e-04   1.6743189e-04   3.0194098e-04  -8.5261250e-05  -2.5110663e-04  -2.6341135e-04   2.8874344e-04   4.3431475e-05  -1.9420580e-04   3.7804141e-04   4.0835593e-04   5.6905294e-04   1.0865306e-03   4.6571872e-06  -9.4919305e-05   6.4806685e-05  -2.4071195e-04   1.0425484e-04   5.0691603e-04   2.0212705e-05  -7.0656541e-05   1.4678038e-04   6.4894543e-06   4.2755585e-04   1.1100068e-03   4.2028758e-05  -8.6457585e-04  -1.2657525e-03   8.8243223e-06   3.6323266e-04   4.1196467e-03  -1.8533104e-04  -8.6198910e-05   2.5525910e-04   2.2999026e-02  -2.0533758e-03  -2.4418761e-03  -2.5789626e-04  -3.1921885e-04   3.1401977e-04  -1.4286894e-04
   6.0021383e-04   9.1143826e-05   6.4141181e-04   2.3072274e-04   2.4137727e-04  -9.3322014e-05   2.0785042e-04   7.2623792e-05   1.6563709e-04  -1.5646281e-05  -1.8163084e-05  -6.8678804e-05  -2.3437259e-04  -1.6252493e-04  -4.2129788e-04  -9.8825612e-06  -3.7697907e-06  -2.2499611e-04   9.2695345e-04   2.9127346e-04   4.8626988e-04   1.0371089e-03  -1.0215011e-04  -1.1247669e-04   1.8312556e-05  -2.9445335e-04  -5.3870244e-05   5.1514216e-06  -6.8207749e-04  -9.9523728e-05  -9.0967849e-05  -3.2676509e-04   3.8423136e-04   8.5226464e-04   1.5675389e-05   3.8647268e-04   6.1292936e-05  -3.2055126e-05  -4.8836460e-04  -2.3316056e-03   1.8809060e-05  -2.9310776e-04  -2.1540599e-04   3.1928238e-03   9.2024831e-03  -5.0244112e-03  -9.0847199e-04  -9.6483267e-04   2.1422356e-04  -1.0636356e-04
   5.0079729e-04  -7.1748822e-05   4.8210062e-04   4.4335997e-05   1.0604714e-04  -2.5950902e-04  -2.4082561e-05  -7.5681455e-06   5.5040105e-06  -6.1171735e-04  -3.6318673e-04  -6.0556474e-04  -4.6017228e-04  -3.6111037e-04  -6.0573791e-04   5.4427192e-06  -1.3453088e-04  -2.7803378e-04   5.1674677e-05   1.3131075e-04   3.3075147e-04   8.6659077e-04  -1.9079058e-04  -3.6396735e-04   6.9959693e-05  -3.5990399e-04  -2.7630336e-04   3.0937306e-05  -4.1110101e-04  -1.9814516e-04  -2.4093364e-04  -6.3013058e-04   1.6970462e-04   8.4339781e-04   1.2243602e-04   5.6717831e-06  -4.1697366e-04  -2.4960329e-05   7.0294057e-04   9.9173980e-04  -4.7908328e-05  -3.1184178e-04  -2.8501911e-06  -1.1251427e-03   4.4556614e-03  -4.7979187e-04  -1.7360055e-04  -5.9820677e-04   4.4769619e-04   1.3587029e-04
   6.2903465e-04   9.9205761e-05   6.1351003e-04   1.8280158e-04   2.6584259e-04  -2.0857208e-06   3.1079742e-04   3.5919322e-05   3.6827268e-04   3.0684384e-04   1.1640100e-04   1.7955138e-04  -3.9303253e-05  -2.1311555e-04  -2.5395473e-04   1.5710536e-04   4.6810539e-05  -4.1247826e-05   7.7656272e-04   3.2024898e-04   4.9086916e-04   1.0084389e-03   1.9779086e-06  -1.2604162e-04   3.8734754e-04  -2.7943635e-04   1.6754256e-04   2.9790917e-04  -7.0615788e-04  -1.0760909e-05   2.4125667e-04  -6.6022883e-04   4.1623675e-04   1.0576866e-03   3.5824891e-05  -1.3179008e-04  -7.6181581e-04  -1.3384009e-05  -3.3696412e-04   1.1308357e-02  -1.1619974e-04  -1.3250348e-04   2.0697046e-04  -1.8032400e-02   3.8376057e-03   2.4917789e-03  -2.7626738e-04  -4.4671563e-04   3.3386191e-04  -4.0010425e-05
   6.0884992e-04   9.3413219e-05   5.6023488e-04   1.5246087e-04   2.1441144e-04  -8.0451406e-05   3.0845017e-04  -1.4431379e-04   1.9849034e-04  -1.5720803e-05  -1.0967624e-05  -9.6465097e-05  -2.0612335e-04  -1.8207231e-04   1.7657836e-05  -3.1539900e-04   8.6800377e-05  -1.6041432e-04   4.6578865e-04   2.2790334e-04   4.1006343e-04   8.9789281e-04   5.5688510e-05  -1.9686764e-04   1.7223100e-04  -1.5742668e-04  -9.5379641e-05   1.8702674e-04  -5.7607301e-04   1.2375430e-05   4.1135219e-05  -5.3917491e-05   2.0511277e-04   1.5827261e-03   1.3807384e-04   2.3764333e-04  -1.4453622e-03   1.5707093e-04  -1.7830075e-04   3.6435216e-03   2.9639723e-05  -3.8429676e-04  -5.5220182e-05  -1.1172546e-02  -8.8711811e-04   1.7432511e-03  -1.0162840e-03  -8.2585932e-04   2.8025554e-05  -1.5184340e-04
   4.7357255e-04  -8.1530066e-05   3.6728228e-04  -3.2146490e-05   4.8953418e-05  -2.5043229e-04   8.3248837e-05  -5.7990267e-04  -1.2773056e-04  -7.0933904e-04  -4.1746633e-04  -7.0657069e-04  -2.9057165e-04  -3.2830096e-04  -3.9879454e-04   8.4252688e-06   5.8900096e-05  -6.0174760e-05   4.7319911e-05   2.6378179e-05   2.4641273e-04   6.9386663e-04  -1.9022638e-04  -4.8377438e-04  -1.1111370e-04  -7.5766671e-05  -5.4695364e-04   2.5428037e-04  -3.1801523e-04  -1.1589957e-04   2.0151387e-05   1.4578269e-04   1.7355928e-04   2.0320762e-03   1.9834362e-04  -4.2138257e-04  -1.1408137e-03   1.5717294e-04   6.9671712e-04   1.4017098e-02  -3.2049901e-04  -2.8287593e-04   1.0540088e-04   8.8297995e-03  -3.3876842e-03  -3.4470051e-03  -2.1157537e-04  -6.0023722e-04   4.3579206e-04   2.7761725e-04
   5.8104249e-04   9.0620793e-05   5.1286607e-04   1.3575362e-04   2.1720484e-04   8.7306862e-06   2.7403506e-04  -1.1248301e-04   3.0251595e-04   3.2322720e-04   1.2816173e-04   1.3935132e-04  -2.0057948e-04  -7.2520641e-05   1.4624980e-04   6.9997943e-05   2.1642886e-04   1.3722046e-06   7.5356849e-04   2.5241496e-04   4.3257882e-04   8.0019992e-04   4.6876787e-05  -2.0365036e-04   4.9387739e-04  -4.0048844e-06   1.6597119e-04   4.6233702e-04  -1.0050378e-04   1.0117478e-04   6.9011883e-05  -1.6996617e-04   2.5806707e-04   1.5736179e-03   2.9728704e-04   3.3405106e-04  -4.4153526e-04   1.4969870e-04   3.0800304e-04   9.3135424e-03  -1.3638774e-04  -1.1599683e-04   1.5379673e-04   3.0247977e-03  -8.7464496e-04   8.0056451e-03  -3.5486344e-04  -6.3393818e-04   2.0691908e-04   1.4167726e-04
   5.4359430e-04   9.9706354e-05   4.5696020e-04   1.1185391e-04   1.9897475e-04  -9.3847855e-05   1.8490190e-04  -2.1219622e-04  -6.0036546e-05   4.0142691e-05  -2.9384519e-06  -9.6153817e-05   1.4295170e-04  -6.0610131e-05   2.2695157e-04  -2.5779768e-04   1.6600694e-04  -1.2479331e-04   3.1087705e-04   1.6601823e-04   3.5292792e-04   7.3839701e-04   2.4303970e-05  -2.3961221e-04   1.9268380e-04  -6.6948755e-06   1.1399548e-04   5.2162656e-04   4.3231863e-05   1.1501538e-04  -1.9602659e-04   4.2316507e-05   5.0389965e-04   1.3778399e-03   1.6099295e-04  -8.6156646e-04  -3.2239858e-04   1.5796589e-04  -1.2083183e-03   4.7184215e-03  -2.8615721e-04  -3.7720636e-04   1.3056475e-04  -1.3498812e-02   3.1527039e-03  -6.7909011e-03  -9.8620949e-04  -7.0952566e-04  -1.4682698e-04  -7.0732822e-05
   4.4015632e-04  -4.5942532e-05   2.9855032e-04  -4.9317307e-05   5.0684288e-05  -2.3875573e-04   5.9023147e-05  -1.3425162e-04  -2.3456602e-04  -5.6762371e-04  -3.5887430e-04  -6.2481925e-04  -2.3371904e-04  -1.6676188e-04  -3.6003909e-04  -4.8051785e-05   8.8236127e-05  -1.1324920e-04   5.7827483e-04   3.2032833e-05   2.1156376e-04   5.8941945e-04  -1.6278615e-04  -4.8003707e-04   1.4414999e-04  -8.0489292e-05  -3.9984076e-04   2.4656841e-04  -1.0068902e-03   1.9541496e-07  -3.8406192e-04   8.7478329e-06  -9.1262787e-05   1.8129224e-03   6.3723164e-05  -3.2062674e-04  -9.7508793e-04   1.6187894e-04  -2.5812900e-04   2.5004393e-03   4.0276835e-05  -2.2098201e-04   1.4305882e-05   9.1707511e-03   8.7637840e-05   3.3263077e-03  -1.7003788e-04  -4.8615044e-04   2.3228755e-04   1.2242727e-04
   5.6998979e-04   1.3148613e-04   4.5632076e-04   1.3521740e-04   2.3561119e-04  -3.7635500e-06   2.7173394e-04   2.4072925e-04   1.4455967e-04   4.4996865e-04   1.8872520e-04   2.4936648e-04   1.0332210e-04  -7.8177247e-05  -1.0798415e-04   9.4417177e-05   1.9905841e-04  -1.2026460e-04   1.9755290e-04   2.2218203e-04   4.2435087e-04   7.6434476e-04   1.4187834e-04  -1.3931855e-04   3.4163054e-04   1.4434710e-05   3.0504596e-05   3.7948421e-04  -5.9383526e-04   2.2156052e-04  -5.4444332e-04   2.2246692e-04   2.4561078e-04   1.9054235e-03   3.4096790e-04  -6.2203791e-05   4.0469688e-05   2.1873601e-04  -4.8015520e-04  -6.0299208e-05   1.9533710e-04  -8.6159831e-05   8.9661960e-05  -1.4048520e-02   2.4299852e-03  -1.6999494e-03  -2.9301448e-04  -3.9212662e-04   3.8054408e-04   8.7599787e-05
   6.0052791e-04   1.8251712e-04   4.5643351e-04   1.6612567e-04   2.6172854e-04   3.8562099e-05   3.4631623e-04  -8.1483704e-05   1.4970684e-04   2.1346739e-04   1.1557886e-04   6.7229012e-05   2.6290808e-04   7.4363918e-05   3.0727955e-04  -1.3285902e-04   2.8789966e-04  -5.3982380e-06   4.0964325e-04   2.2109941e-04   3.8561042e-04   7.3953229e-04   8.5641150e-05  -2.9076575e-04   4.2340381e-04   1.0376274e-04  -9.1356167e-05   4.6190267e-04  -1.7865714e-05   2.4101966e-04   5.8745736e-05   6.9259037e-04   1.8254360e-04   2.0295661e-03   5.2913057e-04  -2.1456977e-04  -1.4053166e-04   3.6921818e-04  -2.3520600e-04   4.5400462e-03  -8.2549763e-05  -2.9758480e-04   2.4223731e-04   6.1983318e-04  -1.5522701e-03   8.7971427e-03  -1.1003177e-03  -7.3313288e-04  -3.8381877e-05  -3.9320879e-04
   5.1593524e-04   1.9943711e-05   3.1791758e-04   8.8357929e-06   1.2248216e-04  -2.2161931e-04   1.4316117e-04  -3.2160661e-04   4.3799281e-07  -5.0303747e-04  -2.1931459e-04  -5.6504953e-04   9.9473058e-05  -3.0143825e-05   1.1073020e-04  -4.6639736e-05   3.1111535e-04   3.0807383e-05   5.5337162e-04   3.8151535e-05   2.8473249e-04   5.6606502e-04  -1.7567934e-04  -4.5970574e-04   2.7694399e-04   2.5001168e-04   7.5042386e-05  -1.7510163e-05   4.6928338e-04   1.2590193e-04  -4.1840982e-04  -1.7126053e-04   3.5521403e-04   2.2899976e-03   2.1368227e-04  -6.8119558e-04  -4.9186178e-04   3.2807759e-04   1.7164160e-04   8.0113411e-03  -1.6948540e-04  -6.5160834e-04   2.0644530e-04  -9.7720185e-03  -2.1671822e-04   4.9355738e-03  -1.1735021e-03  -8.7304687e-04  -5.7917205e-06  -3.3429638e-04
   5.6411605e-04   6.5377521e-05   3.9455990e-04   1.1203664e-04   2.3454514e-04   6.7067573e-05   2.4412686e-04   5.3730069e-05   7.8106808e-05   4.8187608e-04   2.0136706e-04   1.6795116e-04   6.0511429e-05   1.4824695e-04  -5.2097268e-05  -2.5405976e-04   5.2076159e-04   3.6590599e-04   4.7044907e-04   1.8605897e-04   4.4717867e-04   6.2969275e-04   1.4701775e-05  -2.3586220e-04   3.9229984e-05   3.6688781e-04  -2.1748325e-05   5.8854738e-04  -5.3353200e-04   3.2740732e-04   5.3697859e-05   1.7398191e-04   3.4875798e-04   2.8383248e-03   4.1040979e-04  -3.1897394e-04  -6.4295059e-04   4.6889717e-04  -4.2635266e-04   5.6721452e-03   1.0302065e-04  -1.1556876e-04   2.9581951e-04   6.3032354e-03  -3.4792107e-03  -5.5889143e-03  -3.9506945e-04  -4.9029296e-04   5.0179307e-05   2.2057538e-05
   5.6231086e-04   1.7545666e-04   3.9543968e-04   1.9148240e-04   2.5238536e-04   7.2623887e-05   2.4078706e-04   1.0267764e-04   1.7948652e-04   3.2616168e-04   2.1223121e-04   6.5320019e-05   4.0429251e-04   1.6350972e-05   2.8220247e-04  -8.6297252e-05   5.7532260e-04   2.3469803e-04  -6.9757036e-05   1.9370868e-04   4.2602865e-04   6.8064727e-04   1.0446837e-05  -3.4799564e-04  -7.0108574e-05   3.5275921e-04   3.7167786e-04   5.1088061e-04   4.4636035e-04   3.0337865e-04  -4.3450674e-04   4.4769037e-04   6.0498464e-04   2.8161851e-03   2.1699794e-04   3.1542650e-04  -2.7391015e-04   3.4959690e-04  -1.2534154e-04  -1.0306579e-03  -1.0080069e-04  -2.9261250e-04   2.0384342e-04  -1.7279334e-02   2.3502244e-03   3.6231962e-03  -8.0165570e-04  -5.7716313e-04   8.6540522e-06  -1.7122440e-04
   4.2489369e-04   6.9439338e-05   2.6209021e-04   6.4322208e-05   1.3303068e-04  -1.5534311e-05   2.1863087e-04   3.7796213e-05  -1.9709139e-06  -1.1559856e-04  -6.0045695e-05  -3.1433642e-04   5.7640133e-05   4.2400276e-05  -3.6358528e-04   3.0668762e-05   2.4463597e-04   1.9894647e-05   2.0319350e-04   5.2537420e-05   2.8547909e-04   7.2815281e-04  -1.6008028e-04  -5.1222136e-04  -5.8544865e-05  -8.8893234e-05  -1.4299230e-04   2.7887327e-06  -1.4317904e-04   1.9075390e-04  -1.6334909e-04   1.4106330e-04   5.3974462e-04   1.6002678e-03   3.0478864e-04  -4.9050292e-04  -2.6372794e-04   1.2812676e-04  -5.0481444e-04  -7.1513504e-03  -1.5197105e-04  -4.4739744e-04  -1.3463589e-04   2.7276734e-03   2.0457699e-03  -2.4134410e-03  -1.1123122e-03  -7.7262218e-04  -8.5855478e-05  -3.2540457e-04
   2.7498748e-04  -7.0362184e-05   1.4055730e-04  -3.9737606e-05   8.9222362e-05  -1.1061216e-04   7.0728194e-05   3.2720163e-06   1.7812650e-04   3.0722568e-04   2.7124817e-05   1.4908923e-06   1.7577174e-04   9.5654923e-06  -6.4706597e-05   2.1134126e-04   1.4342240e-04  -1.7125250e-04   1.7545046e-04   1.3877949e-04   3.7326993e-04   8.0383813e-04   2.6334797e-05  -2.2761882e-04   3.5474710e-05  -1.8216386e-04  -1.6380291e-05   5.7855947e-04   1.2563844e-04   2.8175380e-04  -1.1122249e-04  -8.2461393e-06   3.3410423e-04   1.5003689e-03   1.5211127e-04   1.9563443e-04  -5.1061815e-04   1.5244015e-04  -1.4506184e-04  -3.4527427e-03   3.3230981e-04   1.6328607e-04   4.9214024e-04  -1.5539740e-02  -4.9259618e-04  -1.3769367e-03   3.0219139e-04  -1.9550136e-04   3.6795670e-04   5.1136425e-04
   4.6878756e-04   2.6190226e-04   3.6215098e-04   2.5178201e-04   2.8896792e-04   2.4320443e-04   4.5403544e-04   3.5983499e-05   3.4767218e-04   6.7601196e-04   3.5989386e-04   3.6044908e-04   4.6575084e-04   1.7718103e-04  -1.1987480e-04   5.4377830e-04   3.0649669e-04  -3.5744542e-05   4.0243188e-04   3.0095933e-04   4.6271537e-04   8.6234952e-04   7.9156736e-05  -1.8301535e-04   2.2907704e-04   1.0721014e-05   1.1620104e-04   4.3145937e-04   3.6925101e-04   3.9098464e-04   6.1576378e-05   6.6299154e-04   6.9507177e-04   2.4724684e-03   2.3389504e-04  -6.8617170e-05  -1.5463663e-04   3.7267341e-04  -1.3010997e-03   5.9194416e-03  -1.9828316e-04  -1.1959025e-04   4.6588396e-04  -1.5601389e-03  -1.5869319e-02   7.8337977e-04  -5.2339601e-04  -4.5755709e-04   8.2277038e-05  -1.1415204e-05
   3.7118915e-04   1.0396922e-04   2.6818685e-04   1.6895056e-04   1.4753248e-04   6.2465151e-05   2.9234571e-04   3.2439952e-05   5.3430576e-05   5.7295270e-05   7.0868453e-05  -1.6796935e-04   2.5139909e-04   1.3312061e-04   1.4876096e-04  -1.9719411e-04   5.8607734e-04   3.6644042e-04   1.1834990e-05   1.1960285e-04   3.2760861e-04   6.2890013e-04  -8.0806509e-05  -4.2098321e-04  -1.0219304e-04   3.8719797e-04   3.0273557e-05   1.3972858e-04  -4.7319460e-05   3.1343161e-04  -1.1206635e-05   8.9772086e-04   4.4341042e-04   3.0955018e-03   2.1961782e-04   2.4096014e-05  -3.2750214e-04   4.8698342e-04  -1.1195375e-04   1.4294696e-03   1.1828986e-04  -3.7456333e-04   2.4006769e-04   9.0258848e-03  -2.7180801e-03   8.0822045e-03  -1.1832657e-03  -7.9906260e-04  -3.9965162e-04  -1.1926895e-04
   2.8806660e-04  -8.7122738e-05   1.4515857e-04  -1.2467265e-05   3.1616066e-05  -1.8653058e-04   5.8478113e-06  -2.1472856e-04  -3.7043245e-04  -3.9852812e-04  -2.5950259e-04  -5.7952834e-04   2.0610044e-06  -2.2265392e-04  -2.9641267e-05   2.5920747e-04   4.5114339e-05  -1.3433231e-04   3.7842960e-04  -8.0095815e-05   1.9544194e-04   6.5360084e-04  -2.3478272e-04  -4.2570796e-04  -6.9514906e-05  -3.7100352e-04   1.2220917e-04   1.7927740e-04  -2.2540784e-05   1.1321273e-04   6.0932700e-05  -1.7874656e-04   3.8924214e-04   1.7972739e-03   8.8754459e-05  -2.0445793e-04   3.0369044e-04   8.3441373e-05   9.0408821e-06   3.1235423e-03   1.7891546e-04   1.3625778e-04   2.2665163e-05   5.0760666e-03  -2.9215000e-03   4.5554466e-03   4.2585956e-04  -1.5174836e-04   7.4534270e-05   2.7549797e-04
   4.5986151e-04   2.3423467e-04   4.1610911e-04   2.9165013e-04   3.0577750e-04   3.8538044e-04   5.2867382e-04   1.8561675e-04   3.3924749e-04   9.3704311e-04   4.7057681e-04   5.7238515e-04   4.4157915e-04   1.9782284e-04  -2.8133512e-04   2.3262972e-05   1.3880222e-04  -6.1164879e-05   9.7983990e-05   2.4713471e-04   4.1824076e-04   8.8072132e-04  -8.0404752e-05  -1.4058242e-04   1.8850330e-04  -2.7017150e-04   2.1061758e-04   3.5389536e-04  -5.7009584e-04   3.1287939e-04  -1.3580009e-04   2.7741143e-04   6.2065729e-04   2.1122235e-03   3.5824065e-04  -1.3857344e-04  -1.7380107e-06   1.1594380e-04  -9.0373599e-04   1.7977782e-02   3.1243428e-04   1.4201083e-04   2.0509883e-04  -1.4598880e-02  -9.6487015e-04  -6.0046073e-03   2.1939322e-04  -1.6946574e-04  -5.4622829e-05   8.6636675e-05
   4.3171080e-04   2.0511409e-04   3.8025019e-04   2.6756577e-04   2.5872295e-04   2.3254295e-04   4.6758616e-04   3.6188419e-04   2.0040353e-04   5.6278927e-04   3.1552723e-04   2.9414686e-04   4.5157937e-04   1.7951360e-04   2.5534102e-05   3.7419231e-04   2.8696126e-05  -6.9176109e-05  -2.7728709e-04   2.6658643e-04   3.5881970e-04   8.4302924e-04  -1.8058998e-05  -2.9413085e-04  -2.9800014e-04  -4.3318598e-04   2.1958668e-04   7.8810530e-04  -1.7183034e-03   2.3479969e-04  -1.0200082e-04   2.2065957e-07   5.9658429e-04   1.3476721e-03   1.6914630e-04  -1.9683488e-04  -4.9114885e-04  -4.7666032e-05  -2.8372469e-04   3.6003781e-03   8.9463218e-05  -3.2819433e-05   1.2683160e-05  -1.9784363e-03   4.3970793e-03   6.6851797e-03  -1.7546449e-04  -5.9507653e-04  -2.6586777e-04   1.8547737e-04
   2.6975237e-04   4.4509958e-05   2.2373948e-04   1.1068452e-04   1.2291543e-04   1.1688165e-04   2.0658663e-04   1.5344597e-04   1.6755790e-06   7.9941092e-05   2.7788861e-05  -1.2562436e-04   2.2456468e-04   1.6774083e-04  -2.4072747e-04   2.4808198e-04  -2.2702273e-04  -2.3475589e-04   2.2938086e-04   5.4140070e-05   2.2978595e-04   7.9428992e-04  -1.0406462e-04  -4.2612996e-04  -3.0194470e-04  -6.2770519e-04   2.7848137e-04   3.8505817e-04  -2.6189210e-04   7.8366502e-05  -3.0058323e-04  -1.3888683e-04   2.9271934e-04   1.5425546e-03  -7.3919909e-05   4.1754218e-04  -1.8472392e-04  -1.8732043e-04   1.2100849e-04   4.0997113e-03  -6.1959319e-05  -1.3181358e-04  -3.2725383e-04  -4.6750712e-03  -6.2643911e-04   5.2890070e-03   3.9842090e-04  -2.3952726e-04  -1.8418679e-05   2.5591577e-04
   3.2285106e-04   1.5397141e-04   3.6857720e-04   2.5939781e-04   2.7532422e-04   3.0919653e-04   3.8253708e-04   2.0727630e-04   1.9091292e-04   8.8630524e-04   4.0699050e-04   5.6352367e-04   2.5089152e-04   2.4424758e-04  -5.0264510e-04   3.6327259e-04  -2.5676994e-04  -2.8419454e-04   2.1514457e-04   2.3351604e-04   3.7891613e-04   9.3509880e-04   4.2721025e-05  -1.4606385e-04  -2.9463883e-04  -5.7707558e-04   7.9086964e-04   3.9685352e-04   6.2589644e-04   1.4241654e-04   3.2560228e-04  -2.4911363e-04   3.9574807e-04   1.3523053e-03  -1.1814458e-04   5.9693132e-04   9.4521034e-05   1.5746189e-05   7.6387409e-04  -3.4622187e-03   3.4209547e-04   2.0217680e-04  -2.4387136e-04  -4.5112618e-03  -2.7806505e-03   6.7258999e-03   2.7989250e-04  -3.3686752e-04   2.9287531e-04   1.3942511e-05
   3.3104254e-04   1.6759077e-04   3.7972713e-04   2.4814263e-04   2.4607242e-04   2.2963514e-04   4.5706562e-04   1.9485892e-04  -2.8806979e-05   4.6355714e-04   2.8494943e-04   3.3602238e-04   3.9242094e-04   9.5572861e-05  -2.6412631e-04   2.3063316e-04  -2.5928044e-04  -2.6420003e-04   2.9618456e-04   2.2873242e-04   3.4016377e-04   8.6060859e-04  -6.5152541e-05  -3.4474075e-04  -2.5919345e-04  -4.8244908e-04   2.9539049e-04   3.4143787e-04  -6.8105030e-04   9.8429875e-05  -2.6971311e-04   2.8691609e-05   2.5938806e-04   1.1504741e-03   5.4491709e-05  -2.4262229e-04  -4.7945337e-05  -1.5990576e-04   2.6402957e-04   1.2284229e-02  -5.1133455e-05  -3.8864498e-05  -1.0374632e-04   2.1087402e-03   4.1663200e-03   7.4214316e-03  -2.9674621e-04  -7.2031881e-04   5.9290029e-05  -2.5510165e-04
   2.0970577e-04  -1.1797863e-05   1.9296345e-04   5.6109518e-05   8.0828650e-05  -3.4463981e-06   1.9677046e-04   8.5141342e-05  -2.8302395e-04  -2.2105152e-04  -1.3906157e-04  -2.4960411e-04  -6.3613210e-05  -6.0081118e-05  -2.1859599e-04  -1.3114860e-05  -3.7532597e-04  -3.7473545e-04   1.0227781e-04   6.4851658e-05   1.9620539e-04   6.8050361e-04  -2.6184783e-04  -5.3720979e-04  -5.4361904e-04  -4.7691565e-04   2.1131204e-04   3.0252527e-04  -7.2927983e-04  -7.4552612e-05  -5.5241009e-04  -5.2884012e-04   4.2359700e-04   1.3128172e-03  -7.4168034e-05  -3.8416195e-04  -2.3877279e-04  -1.0571027e-04   1.1341683e-06   1.3013542e-02   1.2100473e-04  -2.8843168e-04  -4.6690163e-04   2.8869503e-03  -4.9812030e-03  -6.9433330e-03  -9.4431796e-04  -8.8722614e-04  -3.4443304e-04  -3.9109282e-04
   7.5255790e-05  -1.5871318e-04   1.6551722e-04   3.0877221e-05   9.5633222e-05   2.7239790e-05   1.7566579e-04   1.0647121e-05   2.8121049e-05   4.2794109e-04   6.9992115e-05   2.6195231e-04   9.0948110e-05  -1.8607893e-04  -2.6169972e-04  -3.7804697e-04  -4.2158278e-04  -2.8215811e-04  -1.3780796e-04   7.2995928e-05   2.9090932e-04   7.5577555e-04  -9.0979825e-05  -3.9157795e-04  -4.4860301e-04  -5.6508213e-04   2.6312785e-04   8.4069936e-05  -1.1262560e-03  -9.0202375e-05  -5.6428654e-04  -4.0453707e-04   1.0635921e-04   1.3143395e-03   5.8054055e-05  -2.2031726e-04  -5.0582363e-05  -1.3035303e-04   4.6013037e-04   7.0344959e-03  -4.3304593e-05   1.0639666e-04  -2.8088014e-04  -2.2626889e-03   1.4525610e-03   7.0605120e-03   1.4043652e-04  -4.7587598e-04  -1.2698412e-04   2.6537839e-04
   1.6633583e-04   1.9541711e-05   2.3836990e-04   1.0093649e-04   1.3091194e-04   1.0318445e-04   3.7633153e-04   1.7486770e-04  -2.2691520e-05   3.2738474e-04   2.2044651e-05   1.9049055e-04   4.4596942e-05  -8.9924491e-05  -2.8677454e-04   2.4150859e-05  -4.1608268e-04  -4.5259920e-04  -1.3588089e-04   9.3089562e-05   2.6026019e-04   6.8533688e-04  -2.2730009e-04  -3.9812474e-04  -3.3037429e-04  -5.7805679e-04   6.3068634e-05   3.6387256e-04  -5.5182652e-05  -1.1733943e-04  -2.6838324e-04   5.9759139e-05   2.0038956e-04   1.3442728e-03  -9.7777352e-05  -2.7214081e-04  -3.4021150e-04  -1.5024125e-04  -5.3524855e-04   2.9025201e-03  -2.2433992e-04  -1.7189831e-04  -3.0632247e-04   9.2044892e-03   8.4354468e-03  -3.0858049e-03  -4.0491426e-04  -5.8156933e-04  -8.8964352e-06  -1.3908291e-04
   2.9143655e-05  -1.1985278e-04   8.1708517e-05  -5.2526819e-05  -1.1609827e-05  -8.8432309e-05  -4.7340640e-05  -1.5646148e-04  -4.8158559e-04  -2.2815153e-04  -2.7597934e-04  -3.1063776e-04  -2.9601774e-04  -3.9833106e-04  -9.4486604e-04  -1.1871400e-04  -5.0180039e-04  -4.3026425e-04  -3.9455396e-04  -6.6145636e-05   1.3905056e-04   5.3323194e-04  -4.1887243e-04  -6.3702097e-04  -8.4501848e-04  -6.0458027e-04  -1.0824052e-04  -2.7254593e-04  -7.0484920e-04  -2.3677833e-04  -2.9023495e-04  -8.3168983e-05  -1.9704188e-05   8.4415649e-04  -2.6806438e-04  -8.8076992e-04  -6.0680491e-04  -2.5307634e-04  -6.4679940e-04   9.2174914e-03  -7.1636494e-04  -3.7145684e-04  -4.6531294e-04   7.2465744e-03  -1.6764989e-03   3.6383751e-03  -7.3422305e-04  -1.0493181e-03  -1.3171918e-04  -2.9136889e-04
  -1.0554650e-04  -2.4837520e-04   4.9929087e-05  -6.9735303e-05   1.8837452e-05  -8.7343273e-05   3.2318185e-05  -8.7658293e-05  -1.9150294e-04   4.0310348e-04  -1.0568795e-04   1.9438328e-04  -1.7627045e-04  -2.1628445e-04  -6.0386694e-04  -2.0849091e-04  -5.6073704e-04  -3.4671871e-04  -4.3819033e-04   1.6245940e-05   2.3625628e-04   6.5953832e-04  -3.5923635e-04  -4.1796023e-04  -2.8090796e-04  -6.5395114e-04  -4.7388879e-04   3.2137489e-04  -1.1872331e-04  -2.4145411e-04  -5.3071638e-04  -8.1054895e-04   1.2601382e-04   9.3395973e-04  -2.8052539e-04  -1.2324256e-04  -4.4536669e-04  -2.5047862e-04  -1.1753094e-03   2.6927812e-03  -3.2963030e-04   3.0361018e-05  -3.5877252e-04  -2.6589317e-02  -3.6012884e-03   1.2146886e-03   2.5626190e-04  -4.6171443e-04  -2.3481339e-04  -3.0528771e-04
   2.5434851e-05  -6.5226923e-05   1.3139583e-04  -1.8743562e-05   6.3794476e-05  -1.7642355e-05   2.1323482e-04  -1.7387266e-04  -2.4429675e-05   2.8196003e-04  -1.0008500e-04   1.0727621e-04  -3.3086113e-04  -3.5705892e-04  -4.5139639e-04  -5.3797488e-05  -5.3208414e-04  -2.8121177e-04   7.6778037e-05   1.0316476e-05   2.5573725e-04   6.8103860e-04  -4.1685486e-04  -4.2040265e-04  -4.0640283e-04  -6.7567831e-04  -1.3419913e-04  -1.3777856e-05   1.2549230e-04  -2.5212634e-04  -3.0696268e-05  -8.8777422e-04   1.6914100e-04   8.9020736e-04  -2.1008734e-04  -5.2593148e-04  -4.1300993e-04  -2.2289176e-04   2.5460383e-04   4.9972683e-03  -3.4521063e-04  -1.5551872e-04  -3.2721605e-04  -1.5487697e-03   5.4307235e-03   7.3879310e-03  -1.8931374e-04  -9.6023257e-04  -6.9117952e-05  -5.7707587e-04
  -9.1145477e-05  -2.0460799e-04  -1.3779317e-05  -1.5634051e-04  -7.6438228e-05  -2.5726540e-04  -2.2467453e-04  -2.9180659e-04  -5.2306772e-04  -2.8923393e-04  -4.2991206e-04  -4.1593774e-04  -4.1175744e-04  -4.8995623e-04  -5.0388079e-04  -6.0190784e-04  -6.2096340e-04  -4.8739728e-04  -5.4983882e-04  -1.6778288e-04   1.3525305e-04   5.4452877e-04  -4.0938825e-04  -6.1935978e-04  -4.7724773e-04  -7.6108641e-04  -2.2363584e-04  -3.8648264e-05  -4.3735985e-04  -3.6814046e-04  -8.6856732e-04  -2.6149652e-04  -1.8954769e-04   9.3316654e-04  -2.3704242e-04  -2.8131017e-04  -4.3287064e-04  -3.2593866e-04  -5.6080631e-04  -7.8209350e-03  -3.3409244e-04  -4.3691968e-04  -5.4847402e-04   1.4703362e-02  -3.5268874e-04   4.3945611e-03  -8.1802718e-04  -1.0216888e-03  -2.7974334e-04  -6.1622972e-04
  -1.9054924e-04  -3.3103782e-04  -1.0256244e-05  -1.5628192e-04  -5.5987639e-05  -1.6532383e-04  -1.6080135e-06  -6.9329639e-05  -3.3738062e-04   3.9887289e-04  -2.2509431e-04   1.4021897e-04  -3.8822854e-04  -4.1412152e-04  -6.9459621e-04  -1.9180274e-04  -6.1932852e-04  -3.8584185e-04  -1.1747967e-04  -8.7486609e-05   2.4020414e-04   6.3988572e-04  -3.6577281e-04  -4.0520029e-04  -6.3548563e-04  -7.6948962e-04  -2.5219834e-04   2.8985812e-04  -4.7741481e-04  -3.0531766e-04  -3.9787171e-04   5.5554656e-06   6.6902452e-05   7.3836540e-04  -2.1174942e-04  -8.3206367e-04  -5.6404999e-04  -2.2858431e-04   3.1398199e-04  -3.7128218e-03  -2.0794811e-04  -1.2800682e-05  -5.3683593e-04  -6.5133092e-04   8.2927791e-04  -3.5952386e-03   2.5207389e-04  -7.0538343e-04   6.9860296e-05  -1.9770801e-04
  -8.4520274e-05  -1.5980196e-04   4.1944080e-05  -9.4917828e-05  -2.8506754e-05  -1.0805498e-04   1.8244463e-06   1.4543504e-04  -2.6048737e-04   2.7052389e-04  -2.2947254e-04   6.0116767e-05  -3.0827383e-04  -2.7360272e-04  -5.4543762e-04  -2.3154328e-04  -5.9130247e-04  -4.1815880e-04  -1.4350826e-05  -9.9467419e-05   2.5338316e-04   6.2621519e-04  -3.5560442e-04  -3.9568666e-04  -3.7648063e-04  -7.2908233e-04  -1.9831664e-04   4.1689607e-04  -1.0385059e-03  -2.7246427e-04  -4.9971649e-04  -6.7180954e-04   2.8923905e-05   5.1171880e-04  -2.2217752e-04  -2.5368226e-04  -4.7976896e-04  -1.8505876e-04   3.6458976e-05  -6.1003410e-04  -2.5116332e-04  -2.0183988e-04  -6.2553812e-04   1.3981632e-02   1.0027088e-02  -3.6149193e-03  -8.0903992e-05  -7.6070469e-04  -1.2605234e-04  -6.0739095e-04
  -2.0945635e-04  -2.9933141e-04  -1.0342094e-04  -2.1123076e-04  -1.8424870e-04  -3.6659700e-04  -1.1681299e-04  -2.4277765e-04  -5.9319811e-04  -2.5676846e-04  -5.1814795e-04  -4.0520940e-04  -4.2999809e-04  -4.1568346e-04  -6.7188340e-04  -5.5165839e-04  -6.7715562e-04  -3.4171832e-04  -5.8284192e-04  -2.1407595e-04   1.2242462e-04   5.2285811e-04  -5.3627446e-04  -5.6795543e-04  -8.4749947e-04  -7.5150910e-04  -2.6520115e-04  -9.0831971e-05  -7.8967464e-04  -3.3821425e-04  -8.9326676e-04  -6.5576617e-04  -2.4215170e-04   6.4758019e-04  -2.1179541e-04  -6.3126558e-04  -1.8420345e-04  -3.4688492e-04  -8.6745614e-04   2.4465364e-03  -5.6033506e-04  -4.9332611e-04  -1.0716998e-03  -8.1006223e-03  -9.6843978e-03   4.7522783e-03  -5.4103078e-04  -9.8036206e-04  -1.5584330e-04  -9.2034502e-04
  -2.5289433e-04  -3.3578757e-04  -3.8140690e-05  -1.4198078e-04  -9.0539659e-05  -2.2461101e-04   1.7003651e-05  -2.4095316e-04  -1.6147151e-04   4.7799951e-04  -2.3280548e-04   2.0820105e-04  -4.0438940e-04  -3.1769343e-04  -2.3152026e-04  -1.6142092e-04  -6.4705143e-04  -6.0544745e-04  -4.4402084e-04  -1.0719558e-04   2.7091822e-04   6.3390000e-04  -3.4453379e-04  -3.4289327e-04  -1.2429280e-04  -7.7706826e-04  -1.6933016e-04   4.5789586e-04  -1.1790729e-03  -2.0524039e-04  -2.4941150e-04  -6.2449172e-04   6.4856489e-05   5.4342259e-04  -3.0962547e-04  -1.6000016e-04  -4.9835927e-04  -3.4024194e-04  -5.8429042e-04   3.4367179e-03  -2.3464934e-04  -4.3686964e-06  -7.3510094e-04  -5.7643778e-03  -1.4462567e-02  -2.2224388e-03   4.9174152e-04  -3.3964438e-04   8.9467221e-06  -3.0460939e-04
  -1.4748656e-04  -1.8347829e-04   2.3341976e-05  -4.6553945e-05  -6.1231454e-05  -1.1541331e-04  -1.9419593e-05  -1.2163865e-05  -3.1937836e-04   3.9459032e-04  -2.0662999e-04   1.5807079e-04  -3.2623211e-04  -1.9859639e-04  -3.4851985e-04  -3.3904743e-04  -5.9639569e-04  -4.0505131e-04  -1.3108237e-04  -4.1751533e-05   2.8277084e-04   6.4249017e-04  -3.7490230e-04  -3.5192119e-04  -7.6486456e-04  -7.1849732e-04  -1.4957639e-04   1.2291595e-04  -7.6890818e-04  -1.7282162e-04  -3.7676693e-04  -6.6467386e-04   8.6796927e-06   6.9458911e-04  -2.6201151e-04   5.0457439e-04  -6.8570382e-04  -3.2988875e-04  -1.0027204e-03  -1.8094239e-03  -4.1883840e-04  -1.8684359e-04  -6.3826662e-04   1.9889067e-04   1.5282038e-03  -1.7846128e-03   3.9424267e-05  -8.0337637e-04   2.8781478e-05  -5.4864795e-04
  -2.7400340e-04  -3.0746628e-04  -1.0464052e-04  -1.4729809e-04  -2.0978370e-04  -3.4481706e-04  -1.2269711e-04  -1.9283271e-04  -4.2564931e-04  -1.8274167e-04  -4.9856433e-04  -3.2850986e-04  -5.5061805e-04  -2.6480277e-04  -8.5868413e-04  -1.9043890e-05  -5.8651849e-04  -5.4282852e-04   5.0713197e-06  -1.2685168e-04   1.6482502e-04   4.9077021e-04  -4.4617159e-04  -4.9163238e-04  -3.2049429e-04  -6.9758785e-04  -4.1082525e-04   1.7660552e-04  -2.5977966e-04  -2.2897770e-04  -7.7552209e-04  -6.3987810e-04  -4.2172955e-04   4.3315845e-04  -2.7567497e-04  -7.5353886e-04  -8.5456959e-05  -3.7875160e-04  -1.3672192e-04  -7.0841558e-04  -4.0173190e-04  -4.8568734e-04  -7.3395163e-04  -2.1181291e-02  -6.2604323e-03   1.6084143e-03  -5.6270580e-04  -1.0608209e-03  -2.0992152e-04  -5.6911382e-04
  -4.2296905e-04  -4.8150410e-04  -2.5657460e-04  -3.0562712e-04  -3.5325994e-04  -5.5458915e-04  -2.1508886e-04  -4.0269017e-04  -5.8131287e-04  -4.4766872e-04  -6.8774511e-04  -5.9097493e-04  -5.8904511e-04  -4.6106603e-04  -2.5995829e-04  -5.0796504e-04  -6.2815793e-04  -5.2215066e-04   1.1256133e-04  -1.3503054e-04   2.1513386e-04   5.0834904e-04  -5.0376088e-04  -4.7039051e-04  -2.8659197e-04  -6.7255215e-04  -1.4778406e-05   6.1005790e-04  -2.8094824e-04  -1.5024305e-04  -7.4949174e-04  -6.7495467e-04  -3.3455784e-04   6.1916321e-04  -2.7526997e-04   1.2793604e-04  -8.4777403e-04  -2.8039471e-04  -9.0604537e-04   8.1370240e-03  -1.6608962e-04  -5.7597030e-05  -5.5627414e-04   1.7728390e-03   5.9166737e-03  -6.5962137e-03   6.1532826e-04  -5.1742134e-04   1.9562482e-04  -3.4628419e-04
  -1.8068544e-04  -1.6639377e-04   4.7011497e-05   4.5532473e-05  -9.5986179e-05  -8.9724810e-05   8.6172542e-05  -1.7534298e-04  -3.5071371e-05   4.3835258e-04  -1.5398093e-04   2.2512855e-04  -1.6077574e-04  -1.1727366e-04  -3.0861140e-04  -5.5072647e-05  -4.5221587e-04  -4.7145988e-04   1.7426128e-04   7.4630210e-05   3.2457535e-04   6.1451964e-04  -3.5977937e-04  -2.5701406e-04  -4.0106397e-04  -5.4807198e-04   8.8930581e-05   5.1394827e-04  -6.1402604e-04  -1.7370516e-05  -6.1107363e-04  -2.6118959e-04  -2.1241115e-04   5.5961992e-04  -1.2205738e-04  -6.6503190e-04  -4.5139837e-04  -2.3502317e-04  -2.9040268e-04   1.5050587e-03  -6.4587436e-04  -5.9753427e-05  -5.0487340e-04  -1.2711604e-02   2.7680802e-03  -2.8303550e-03   2.8149437e-04  -4.2685555e-04   2.2484538e-04  -4.5565015e-04
  -2.6308547e-04  -2.0310971e-04   8.4288540e-06   1.6042601e-05  -1.5253789e-04  -2.2808227e-04  -1.6607012e-04  -1.8439832e-05  -1.2863576e-04   8.0257312e-05  -2.8373420e-04  -6.8382949e-05  -2.1562458e-04  -2.0256225e-04  -3.8408890e-04   2.4063990e-04  -4.5885736e-04  -4.9008190e-04   7.8821628e-05  -6.1525993e-06   2.9189439e-04   6.3451804e-04  -2.1509601e-04  -3.6779765e-04  -5.3536345e-04  -5.6992844e-04   2.5369963e-04   3.3152546e-04  -5.8264413e-04  -1.6201018e-05  -1.4628800e-04  -4.5964151e-04   7.0901100e-05   6.5045420e-04  -1.2247905e-04  -5.5091485e-04  -3.6744107e-04  -3.0382819e-04  -7.8143936e-04  -4.8887287e-03  -2.7260886e-04  -3.2969363e-04  -5.2269938e-04  -5.5526458e-03   7.3580258e-03  -2.3393568e-03  -2.8108459e-04  -8.2560582e-04  -2.8623649e-04  -6.7211007e-04
  -3.4223616e-04  -3.4671120e-04  -1.0016965e-04  -1.0928819e-04  -2.7390866e-04  -4.0179057e-04  -1.1855358e-04  -4.2339516e-04  -5.5632403e-04  -6.3540263e-04  -6.0356397e-04  -6.8261154e-04  -4.1244901e-04  -3.0173521e-04  -2.2650769e-04  -2.1691281e-04  -2.3572662e-04  -2.2318785e-04  -2.0152981e-04  -1.5218838e-04   1.8887850e-04   4.3941158e-04  -4.7499168e-04  -5.8020843e-04  -5.4106856e-04  -2.2540966e-04  -3.2574550e-05   6.6034103e-05  -6.5942126e-04  -1.0328299e-04  -8.6457253e-04  -4.0947975e-04   2.0578799e-04   1.9363316e-03  -2.3403014e-04  -2.1071956e-04  -1.0951858e-03   5.2451935e-05  -1.1732073e-03   4.6021799e-03  -4.5536703e-04  -3.3579796e-04  -4.8915047e-04   4.8312661e-03   3.4504762e-04  -6.8557155e-03   2.1578393e-04  -5.3587183e-04   1.0529374e-04  -8.6530170e-04
  -2.0612884e-04  -1.9077134e-04   1.1521752e-04   1.3342466e-04  -9.9995508e-05  -1.0126152e-04   1.0271640e-04  -9.3103103e-05  -1.8273678e-04   4.9405801e-04  -4.6076257e-05   1.8290033e-04  -1.5821970e-04  -2.3750807e-04   3.6587918e-04  -2.3046929e-04   3.0963865e-04   2.7215091e-04  -5.8599733e-05   1.6983252e-04   4.4355015e-04   5.4078700e-04  -3.4235945e-04  -3.1466899e-04  -2.9423871e-04   2.4319690e-04  -2.6420446e-05   2.4422337e-04  -2.5814498e-04   8.4883693e-05  -5.3344196e-05   4.6150861e-05   2.3190249e-04   2.8276939e-03   2.7963470e-05  -2.0718704e-04  -1.2083269e-03   2.6180194e-04  -6.5230450e-04   6.8790838e-03  -4.3699969e-04  -2.2255330e-04  -3.1085525e-04  -3.4015649e-03  -7.3720943e-03  -5.3928401e-03   9.6860844e-05  -2.9472844e-04   1.5490502e-04  -3.5800191e-04
  -1.1773506e-04  -1.5149376e-04   1.8892498e-04   1.7705625e-04  -9.6773714e-05  -2.1688920e-04   1.7199777e-04   8.8304681e-05  -1.1194806e-04   2.2961217e-04  -1.2391455e-04  -2.6122445e-05  -3.2647006e-04  -2.3043384e-04  -1.6769533e-04   1.1126745e-05   2.4544608e-04   2.2277901e-04  -6.3017120e-05   1.0972561e-04   3.7245217e-04   5.3515320e-04  -2.2810948e-04  -4.2408388e-04  -3.2666299e-04   2.8109315e-07  -2.4853993e-04   5.2762127e-05   4.4575188e-04   5.7450870e-05  -5.0403696e-04   6.4804754e-04   1.6605269e-04   2.1425632e-03  -3.0742758e-05  -1.1246089e-03  -1.2612758e-03   1.1598627e-04  -1.1853208e-03   3.0583045e-03  -3.5866594e-04  -3.8562174e-04  -3.2642198e-04   1.1175703e-02   2.5087034e-03  -1.6541632e-03  -4.0191659e-04  -6.6101621e-04  -8.6111897e-05  -3.0244986e-04
  -1.8227556e-04  -2.6220104e-04   9.5896765e-05   4.0481176e-05  -1.9732240e-04  -3.4695698e-04  -1.3153390e-04  -2.3510667e-04  -4.6954511e-04  -3.1505225e-04  -4.0369423e-04  -4.6928038e-04  -1.7385432e-04  -2.1832967e-04  -8.3989558e-05  -4.4244537e-04   2.5649340e-04   1.8067173e-04  -3.0036946e-04  -6.1810401e-06   2.7582105e-04   4.1608574e-04  -4.5982731e-04  -5.6429656e-04  -2.3419521e-04   4.7570175e-05  -2.8573917e-04   1.4784644e-04  -1.9184597e-03  -2.3815788e-05  -6.1478111e-04   1.3395317e-04   3.8653703e-05   2.2638796e-03  -1.6442027e-04  -4.1710271e-04   3.3201496e-04   5.2398012e-05   4.5591973e-05  -2.1872055e-03  -9.4579453e-05  -5.8287784e-04  -5.9441646e-04   2.8457623e-03  -1.4976533e-03   1.0137066e-03  -6.3651439e-04  -7.7226519e-04  -1.0610300e-04  -6.8617653e-04
  -1.9349543e-04  -2.9653177e-04   1.7460933e-04   1.0527681e-04  -6.1495019e-05  -2.5592099e-05   1.4865283e-04  -1.2555954e-04  -1.0186093e-04   7.7842234e-04  -5.0019447e-05   3.7137154e-04  -2.0004707e-04  -1.7604280e-04  -2.8631877e-04   5.8009286e-05  -5.9543025e-05   1.6819542e-04   3.2089902e-05   1.6615067e-04   5.4239260e-04   6.1922852e-04  -3.1567295e-04  -1.1049090e-04   5.8488913e-05  -4.4786453e-04  -2.6305398e-04   4.7841037e-05  -1.1048680e-03   1.0449131e-04  -6.3947824e-05  -6.0893806e-05   2.3399729e-04   1.5383508e-03  -1.1340869e-04  -1.1483676e-04  -6.1353698e-04   1.1052315e-04  -6.7765970e-04   7.2787497e-03   3.5845503e-04   7.4291405e-05  -9.3860945e-05  -1.0823658e-02  -1.8215715e-03   1.7492576e-04   6.2723103e-04  -1.2673190e-04   4.0274244e-04   4.4424192e-05
   4.2094875e-05   1.3179189e-06   3.9955191e-04   3.1310407e-04   7.0370013e-05   6.7761495e-05   1.5563969e-04   9.8095887e-05   8.1169310e-05   5.4582622e-04   8.1912622e-05   2.9684196e-04   8.4195795e-05   2.5356724e-04  -1.5562301e-04   2.0621868e-04   4.0626698e-04   2.3586043e-04   4.0179538e-04   2.9638910e-04   5.0301978e-04   6.5573590e-04  -1.9306490e-04  -1.6847836e-04  -1.4074431e-04   8.0751481e-05   3.5836853e-04   1.8227185e-04   1.2943042e-03   1.7172753e-04   2.8035679e-04   9.8965631e-04   4.9028947e-04   2.5875757e-03  -1.2051249e-04   6.2645813e-05  -1.3298126e-03   3.1440190e-04  -1.5376955e-04  -2.0190070e-03   4.6546407e-05  -2.2049542e-04  -2.3913875e-04  -4.7763265e-03   1.7669913e-03   3.0476780e-05  -2.9910199e-04  -4.4061185e-04   1.0963058e-04  -4.5061531e-04
   7.5264186e-05  -8.8934408e-05   3.6212485e-04   2.1016970e-04  -9.0832182e-06  -1.5595510e-04   1.8410369e-04  -4.4895562e-05  -2.1738584e-04  -1.4507116e-04  -2.4967239e-04  -3.0166013e-04  -4.2714462e-05  -7.4711643e-05  -3.0569825e-04   6.7055873e-05   4.2947446e-04   3.6775120e-04   5.3631182e-05   1.3405182e-04   3.5201601e-04   5.3281954e-04  -2.9677845e-04  -3.7810070e-04  -4.3312187e-04   7.3226831e-05   2.5649177e-04  -3.1990389e-04  -4.4259627e-04   3.6917736e-05  -1.4429619e-04   4.2263631e-04   4.8217308e-04   2.6092837e-03   8.5852598e-06  -4.1885517e-04  -1.1842197e-03   1.9788704e-04  -3.2165376e-04   2.1665515e-03  -2.5945331e-04  -4.3745653e-04  -3.0064123e-04   5.1485794e-03   1.7435051e-03  -2.9584197e-03  -7.2870485e-04  -6.6665217e-04   4.8886599e-05  -7.5458089e-04
  -2.6701771e-05  -2.1458481e-04   2.1399361e-04   2.0532872e-05  -1.0877044e-04  -2.9069392e-04  -5.7247005e-05  -4.3763136e-04  -5.0382776e-04  -6.4572302e-04  -5.2594004e-04  -7.4506161e-04  -4.0847750e-04  -3.2646101e-04  -4.9026473e-04  -1.7922961e-04   1.1167355e-04   1.3939037e-04   3.3856524e-04   5.4987006e-05   3.2333477e-04   5.8868265e-04  -3.1930525e-04  -3.5674014e-04  -3.6066907e-04  -1.2558464e-04   2.1172584e-04  -3.6507092e-05   2.0879084e-04  -3.2484815e-05   6.0188206e-05  -6.0493196e-05   4.9427443e-04   1.9141164e-03   2.8784872e-05  -6.1635225e-04  -3.0369603e-04   7.1556686e-05  -2.8041226e-04   7.6572048e-03  -3.0814626e-04  -4.6264726e-05  -5.9981114e-05  -2.5379979e-03   2.9700915e-03  -5.2947304e-03   5.2935333e-04  -1.4606553e-04   1.8315946e-04   1.6282747e-06
   1.9546834e-04   1.1245869e-04   5.0270697e-04   3.0767790e-04   1.8330742e-04   1.8902027e-04   3.6671167e-04   5.3939715e-05   1.6638621e-04   4.7885306e-04   8.7678891e-05   3.3936853e-04   2.4232264e-05   3.0169091e-05  -8.6060529e-05   2.9185048e-04   1.1708184e-04   2.4572542e-04   6.2461902e-04   3.1453863e-04   5.0648669e-04   8.5750601e-04  -1.5335537e-04  -1.6913920e-04  -2.2831968e-04  -2.1044993e-04   1.1639168e-04   5.8490556e-04   8.0309866e-04   8.1839775e-05  -1.6326692e-04   5.3760130e-04   4.7632700e-04   1.3088393e-03   2.3500090e-04  -1.8925930e-04  -9.3398162e-04   2.8902452e-05  -2.0118970e-04   6.8268217e-03  -1.0362126e-04  -3.3214248e-05  -6.2925312e-05   1.7104471e-02   2.1368826e-03   7.7244913e-04   3.9266128e-04  -5.5275254e-05   1.7001262e-04  -2.6077544e-04
   1.9257379e-04   1.0874473e-04   4.4145450e-04   2.4328328e-04   1.2349384e-04   5.3651238e-05   2.3682883e-04   7.0553469e-05  -8.4542691e-05   7.9349447e-05  -4.5892375e-05  -1.1648929e-05   1.4031048e-04   1.0266564e-05  -6.3196156e-04  -9.4518000e-05  -4.8143283e-06  -1.8622532e-05   2.0440012e-04   2.6845443e-04   4.5404135e-04   8.5059070e-04  -1.3937027e-04  -3.0656630e-04  -2.4878618e-04  -2.8842382e-04  -1.4998265e-04   2.2431447e-04  -9.0217123e-05   2.6016942e-05   3.6044125e-04  -3.0310728e-04   2.7002831e-04   1.1600088e-03  -4.6959372e-05  -3.1142708e-04  -5.2341970e-04  -1.2418619e-05  -3.0108585e-04   4.1378783e-03  -4.6898832e-04  -2.4936479e-04  -3.0294986e-04   2.4431364e-03   2.3836836e-03   1.9799350e-03  -3.5659072e-04  -6.4923515e-04  -1.4797837e-04  -4.0431166e-04
   8.9401357e-05  -3.4474295e-05   2.9730759e-04   4.9611539e-05   2.2849350e-05  -1.1367623e-04   2.5615369e-05   2.8230555e-05  -4.9588142e-04  -5.2727887e-04  -3.8934380e-04  -5.3419621e-04  -2.6493703e-04  -2.5733799e-04  -6.1177375e-04   2.3224120e-04  -1.1612054e-04   1.7939690e-05  -3.5078387e-04   7.5552503e-05   3.1264528e-04   7.2373688e-04  -2.3006863e-04  -4.8912974e-04  -5.4534705e-04  -3.6798604e-04   3.1321906e-05  -2.6879218e-04  -4.3524595e-04  -1.3132107e-04  -1.5857776e-04   2.0903867e-06   2.1476002e-04   1.0533853e-03  -1.0235445e-04  -6.3354836e-04  -1.2320073e-03  -1.2714151e-04  -2.5622433e-04   3.7954701e-03  -6.1197375e-04  -3.6414905e-04  -4.1090595e-04  -1.5461751e-03  -6.8009282e-03   4.1498188e-05   8.0972903e-05  -5.1691011e-04   6.6622524e-05  -3.4106642e-04
   1.3717866e-04   7.8949830e-05   3.8905002e-04   1.4437863e-04   1.4605763e-04   1.3736072e-04   2.1499218e-04  -3.0438282e-04   5.1780307e-06   3.1963305e-04  -8.2364859e-06   1.6812961e-04   2.2429373e-05   8.0449710e-05   8.9371046e-05   4.6903847e-04  -1.7981941e-04  -3.7229005e-05   1.3946544e-05   2.6383871e-04   4.9564900e-04   8.8161440e-04  -1.0759451e-04  -2.5144208e-04  -1.8911991e-04  -4.2936410e-04   1.2921778e-04   3.9949903e-04   1.1160995e-04  -4.7895886e-05  -2.4646282e-04   2.3388964e-04   3.8647681e-04   5.3400337e-04   7.2353196e-06  -3.4209588e-04  -2.1197718e-04  -1.2358068e-04  -3.2126505e-04   2.6480530e-03  -1.6784982e-04  -2.8540142e-05  -1.3228839e-04  -9.1869617e-03  -2.9922826e-03  -4.6467870e-03   3.7278974e-04  -1.2385182e-04   3.3983166e-04  -3.0033695e-04
   1.0764821e-04   1.2922162e-04   3.5811044e-04   1.3935953e-04   1.5660896e-04   1.3754056e-05   2.2829825e-04   3.6709262e-05  -1.4931044e-04   8.3760911e-05  -7.3024785e-05  -3.7592886e-06  -7.3272691e-05   1.3782146e-05  -2.2254577e-04   1.5331394e-05  -2.3620334e-04  -2.3596373e-04   2.4060413e-04   2.0940971e-04   4.4330838e-04   8.3380134e-04  -2.3916186e-04  -3.2633971e-04  -5.1123989e-05  -4.1396407e-04   7.3275682e-05   3.4061342e-04  -1.0033397e-03  -7.2435563e-05   6.0221384e-05  -5.8339845e-04   2.5389687e-04   4.9916736e-04   1.1613805e-04  -5.2292872e-04  -6.2932773e-04  -1.6992455e-04   1.4156513e-04  -2.7296801e-05  -1.3969677e-04  -2.6668728e-04   2.6761220e-06   5.1805978e-03   2.3530654e-03   1.3460687e-03  -2.7834944e-04  -4.3878501e-04   9.9070494e-05  -4.7053932e-04
  -9.5364067e-06  -1.7998165e-05   1.8908556e-04  -4.2135318e-05   3.8307385e-06  -8.1703889e-05   4.7581027e-05  -2.5238050e-04  -3.7904578e-04  -5.1765819e-04  -4.3406873e-04  -5.5025023e-04  -2.6611693e-04  -2.3181265e-04  -6.7850144e-04  -5.9758295e-05  -3.2961127e-04  -1.7323891e-04  -5.5654894e-04   6.8306188e-05   3.0124784e-04   6.8557792e-04  -3.4828638e-04  -5.7789305e-04  -1.7053656e-04  -4.3628266e-04  -2.6259827e-04   2.0350897e-04   4.1262238e-04  -2.3190455e-04   1.5803745e-04   8.1461631e-06   8.5402062e-05   4.0901086e-04  -1.1617332e-04  -8.2238438e-04  -4.7711667e-04  -2.5347326e-04  -3.7463257e-04  -9.4034895e-03  -2.8256388e-04  -5.3043378e-04  -5.9932919e-04   6.7639933e-03  -2.6576431e-03   4.6380368e-04  -8.5382984e-04  -8.1709772e-04   3.8225317e-05  -1.1084363e-03
  -1.4818012e-04  -1.7313268e-04   8.3266663e-05  -1.5525552e-04  -3.2530359e-05  -1.8363037e-04  -1.1511744e-04   3.2354296e-06  -4.1051404e-04  -1.0750538e-04  -3.3995308e-04  -2.1183093e-04  -2.7913993e-04  -1.4117714e-04  -4.4610802e-04  -4.2241732e-05  -3.8137264e-04  -1.7087463e-04   1.0583381e-04   1.0982016e-04   3.7891016e-04   7.1662088e-04  -3.3886955e-04  -4.1114373e-04  -3.5256916e-04  -4.1666118e-04  -3.8835852e-04  -4.4675031e-05  -1.2852065e-03  -2.0251129e-04  -2.5257713e-04  -6.8774403e-05   2.5662067e-04   8.2671520e-04  -1.9053512e-04   9.6503260e-05  -6.7166833e-04  -2.2151363e-04  -5.2066369e-04   7.6234816e-03  -4.0167401e-04  -1.1073274e-04  -4.3233752e-04   2.2330242e-03   2.4951645e-03  -8.0250306e-03   2.1876836e-04  -1.8830954e-04   1.7865791e-04  -3.4639685e-04
   5.1205541e-05   9.4854135e-05   2.3980346e-04  -1.3553487e-05   1.1830507e-04  -3.9612263e-05   4.1882162e-05  -2.5172603e-05  -3.6348731e-04  -1.5097938e-04  -2.6446066e-04  -7.4860269e-05  -1.2302517e-04  -1.8137108e-04  -2.4777625e-04  -6.4202664e-05  -3.2371827e-04  -1.0974064e-04   5.1318709e-04   8.8351284e-05   3.7923665e-04   6.8600982e-04  -2.1217027e-04  -5.0069706e-04  -5.1707088e-04  -1.0969569e-04  -2.7810427e-04  -1.3672598e-04  -8.8561146e-04  -1.9660895e-04  -7.3445764e-05  -1.6322563e-05   2.2167106e-04   4.6879728e-04  -3.3001012e-05  -5.1679831e-06  -3.0906929e-04  -1.0568168e-04  -2.9198403e-05  -2.8559138e-04  -5.4955983e-04  -2.5541641e-04  -6.3064176e-04   2.0495838e-02   5.3631898e-04   4.5983234e-04  -2.8082627e-04  -6.3757633e-04  -2.0803597e-04  -4.8690478e-04
   2.9591209e-04   1.2297803e-04   2.3192007e-04  -1.1811646e-04   4.3317526e-05  -2.1006407e-04  -2.3267747e-04  -3.5352417e-04  -4.6652241e-04  -8.2988787e-04  -5.7276158e-04  -5.3531857e-04  -1.6841141e-04  -4.2782907e-04  -2.5154004e-04  -2.1846348e-04  -3.1748324e-04  -9.6497422e-07  -3.7300837e-04  -6.8321446e-05   2.3529372e-04   4.2388757e-04  -4.3799533e-04  -6.0229661e-04  -5.3896214e-04  -1.9423573e-04   1.9159449e-04  -1.1772930e-04  -8.9001848e-04  -3.0082819e-04  -1.8481840e-04  -5.7778973e-04  -3.7306815e-04   5.4425368e-04  -3.0811536e-04  -1.1257253e-03  -5.2271655e-04  -1.5190401e-04  -5.7406834e-04  -1.3664832e-03  -4.5433539e-04  -5.6282221e-04  -6.9793733e-04   9.8236334e-03  -1.7887454e-03  -1.4975159e-03  -9.9391455e-04  -7.6918036e-04  -2.6603526e-04  -7.8885694e-04
  -3.5681896e-05  -2.2110334e-04  -9.1551185e-05  -3.3578664e-04  -2.3819270e-04  -5.6454411e-04  -3.7360896e-04  -3.3679712e-04  -5.4799893e-04  -1.1466640e-03  -8.4454275e-04  -9.2357211e-04  -6.4455200e-04  -7.9720380e-04  -6.9184433e-04  -4.7159087e-04  -3.1770131e-04  -1.4467954e-04  -6.3781219e-05  -1.7894008e-04   2.5181117e-04   2.5976796e-04  -4.6279634e-04  -5.2717555e-04  -4.8847118e-04  -8.5469481e-05  -4.9537193e-04   5.8254820e-05  -1.0741802e-03  -3.0711375e-04  -5.0401170e-04   1.6805840e-05  -1.3325784e-04   1.0975511e-04  -1.6349406e-04  -4.8595318e-04  -7.9848571e-04  -2.7533865e-04   3.3405956e-04   1.2967988e-03  -4.4804998e-04  -1.2598778e-04  -7.6551258e-04  -1.0213349e-02   5.1533966e-04  -2.4064702e-03   4.4454416e-04  -2.1672866e-04  -6.5525339e-05   1.4049880e-04
   1.3060325e-04   3.2710497e-05   7.3824580e-05  -1.2152689e-04  -4.7731755e-05  -2.6351618e-04  -1.0954251e-04  -2.1864061e-04  -1.7666948e-04  -4.2547926e-04  -4.7265220e-04  -2.5261543e-04  -3.5462892e-04  -5.0798315e-04  -2.0234881e-04  -1.3727011e-04  -4.0973222e-04  -3.6399550e-04   5.9058839e-05  -1.2676039e-04   2.1121625e-04   3.1407940e-04  -3.4312159e-04  -5.0512771e-04  -4.5283948e-04  -1.3407836e-04   2.2761239e-04  -1.5402403e-04  -4.6189295e-04  -2.8526352e-04  -1.5245088e-04   2.1866359e-05  -2.8037748e-04  -3.1303513e-04  -2.4755372e-04  -8.0074638e-04  -5.4823223e-04  -2.8507755e-04  -1.1970954e-04  -3.0881891e-03  -4.3008197e-04  -2.4522844e-04  -7.9519313e-04   1.5966404e-03  -3.5021494e-03  -3.3869245e-03  -2.1990192e-05  -2.7716355e-04   3.8264111e-06  -9.0218280e-05
   1.5315486e-04  -1.0315124e-05   2.7878652e-05  -1.9008585e-04  -7.4070442e-05  -3.3475770e-04  -1.9624311e-04  -3.1376569e-04  -5.2559556e-04  -9.7460824e-04  -6.2770839e-04  -4.0109898e-04  -3.3070083e-04  -6.9336419e-04  -5.8101531e-04  -5.1008037e-04  -4.8724760e-04  -2.2960854e-04  -5.7678949e-04  -2.7002767e-04   7.3301751e-05   1.9998696e-04  -4.5588528e-04  -6.3784979e-04  -8.0552103e-04  -2.7735099e-05  -5.3437502e-04  -3.0438628e-04  -1.9253797e-03  -3.4995310e-04  -2.5618848e-04  -2.9089185e-04  -2.3945022e-04   3.0444100e-05  -5.9728656e-04  -1.6454160e-03  -5.6861935e-04  -2.3239029e-04  -3.0086306e-04   3.5726211e-03  -6.2382047e-04  -5.2619854e-04  -7.3155807e-04  -1.1861397e-02   1.9371837e-03  -7.3728976e-03  -7.0455915e-04  -6.2663812e-04  -1.8907542e-04  -3.9224711e-04
   2.3271955e-04  -8.2731553e-05  -2.3398967e-04  -1.5327384e-04  -1.9672030e-04  -7.4622140e-04  -4.3704640e-04  -6.8164151e-04  -1.0695567e-03  -1.8188859e-03  -1.0577610e-03  -1.0111841e-03  -9.1462414e-04  -1.0511697e-03  -4.8321296e-04  -1.1585823e-03  -6.0107978e-04  -1.5565728e-04  -3.3888218e-04  -4.4655410e-04  -1.7633998e-05   7.6686418e-05  -4.3340772e-04  -7.1247533e-04  -8.7608013e-04  -2.1778724e-04  -6.1925023e-04  -3.2971174e-04  -8.4965257e-04  -4.3555687e-04  -4.9584068e-04  -8.1904040e-04  -2.3389230e-05  -4.3554590e-04  -4.3274107e-04  -7.4019335e-05  -7.3479774e-04  -3.2839784e-04  -7.9474773e-04   1.7427629e-03  -5.4035097e-04  -1.3130051e-04  -7.0065539e-04   5.2374350e-03   7.8372023e-04  -3.9276690e-04   5.2519311e-04  -5.0542818e-04   3.3999956e-04   7.5769436e-05
   4.6495700e-04   1.9211575e-04   3.0807274e-05   1.1043098e-04   4.7312886e-05  -2.8775289e-04  -1.6761049e-04  -3.4341044e-04  -2.7219858e-04  -2.9603453e-04  -3.4376548e-04   2.6896075e-04  -5.5804732e-04  -7.9159730e-04  -1.3012216e-04  -5.4009107e-04  -5.7493913e-04  -2.0568407e-04  -2.8489024e-04  -2.0474549e-04   1.7098869e-04   2.4066186e-04  -2.6451441e-04  -4.8706206e-04  -7.8711199e-04  -2.4717112e-04  -1.3360752e-04  -4.3844976e-04  -9.9726918e-04  -2.9400291e-04  -4.5449269e-04  -6.0816540e-04  -5.4282392e-04  -4.2241198e-04  -2.5539406e-04  -9.2929188e-04  -7.5530028e-04  -2.2722878e-04  -5.9735141e-04  -2.2846286e-03  -5.7758164e-04  -7.7967532e-05  -8.9570845e-04   1.5233337e-02  -6.1424717e-04  -8.9900708e-04   3.6534233e-04  -3.7751539e-04   4.6448360e-05  -1.6793367e-04
   4.1002745e-04   7.6170305e-05  -5.3947781e-05   8.9315581e-06  -8.0727317e-05  -5.2612642e-04  -4.2943342e-04  -2.0160219e-04  -5.6603027e-04  -9.8349073e-04  -6.7331415e-04  -2.7249707e-04  -8.4613613e-04  -1.0043629e-03  -5.7975203e-04  -1.1166739e-03  -5.8326178e-04  -1.8882551e-04  -5.2684097e-04  -3.8327594e-04   7.4578973e-05   1.8387423e-04  -4.0461586e-04  -5.6123821e-04  -8.8950904e-04  -2.5146105e-04  -6.0580816e-04  -5.2119995e-04  -1.5926079e-03  -3.5296439e-04  -1.2311112e-05  -9.5905707e-04  -3.9525534e-04  -6.4021448e-04  -4.3241793e-04  -6.4953166e-04  -8.4989140e-04  -4.3200652e-04  -4.7778804e-04  -8.8512298e-04  -5.6441181e-04  -3.5727237e-04  -5.6162599e-04   2.5942811e-04   2.0101916e-03   4.7940984e-03  -3.0765869e-04  -8.0893462e-04  -1.1905884e-04  -1.5572224e-04
   1.9699134e-04  -7.2815397e-05  -2.1797385e-04  -1.4798931e-04  -2.1141231e-04  -7.1844517e-04  -5.7108898e-04  -6.2191766e-04  -8.8480127e-04  -1.5532458e-03  -1.0043975e-03  -8.2177803e-04  -1.0078591e-03  -1.0587985e-03  -3.3219668e-04  -1.2442903e-03  -6.9079711e-04  -3.1946396e-04  -7.1021396e-04  -4.9099640e-04  -3.1387863e-05   9.6742282e-05  -4.3883990e-04  -7.2338257e-04  -7.9793233e-04  -3.3990422e-04  -5.4370071e-04  -3.7344155e-04  -1.9498221e-03  -4.2605016e-04  -5.6076021e-04  -5.7788577e-04  -3.8093669e-04  -4.0398221e-04  -5.0775526e-04  -1.5248704e-03  -7.1572984e-04  -1.9137934e-04  -5.1276188e-04  -1.3446880e-03  -2.3498773e-04  -1.3426867e-04  -8.6795393e-04   9.1899401e-03  -2.6547859e-04  -2.1678472e-03   5.0364085e-04  -4.2768780e-04   7.3882358e-05  -5.7753641e-05
   2.6533511e-04   1.0774411e-04  -7.4972711e-05   4.6800305e-05  -5.4481658e-05  -4.0448073e-04  -4.4051756e-04  -2.7313048e-04  -3.0249043e-04  -4.0459042e-04  -4.8737373e-04   5.6383727e-05  -4.7312246e-04  -9.0185594e-04  -6.6506892e-04  -7.5694150e-04  -5.8722863e-04  -1.6285331e-04  -1.5454047e-04  -3.0598871e-04   1.6043925e-04   2.8451890e-04  -3.5928868e-04  -4.7280380e-04  -7.0146145e-04  -2.4121965e-04  -5.6727848e-04  -4.6620684e-04  -8.1305916e-04  -3.0886792e-04  -3.8171429e-04  -6.5370923e-04   1.0456012e-04  -2.0773947e-04  -3.8592902e-04  -1.2111665e-03  -8.5998100e-04  -1.6409966e-04  -6.3364266e-04  -8.3527556e-03  -2.8352885e-04  -1.8031630e-04  -5.4139696e-04  -1.2436497e-03   2.9226851e-03  -3.0605413e-03   1.7658991e-04  -5.8558251e-04   4.3374010e-05   6.8576395e-05
   2.2209673e-04   8.6506036e-05  -1.1618847e-04   3.6515808e-05  -1.0947586e-04  -5.2471203e-04  -3.6839861e-04  -5.0932786e-04  -5.0449249e-04  -7.6799135e-04  -6.4080500e-04  -2.4443277e-04  -8.1777823e-04  -8.2406506e-04  -5.0901907e-04  -4.8898160e-04  -5.2632176e-04  -1.2968182e-04  -3.8662119e-04  -3.6329418e-04   1.0261525e-04   2.5436614e-04  -4.7079168e-04  -5.5709912e-04  -1.0231854e-03  -1.5266467e-04  -8.0262031e-04  -5.5663649e-04  -1.5499146e-03  -3.0132034e-04  -9.3114708e-04  -8.4719225e-04  -2.2145262e-04   1.2152972e-04  -3.8994488e-04  -8.8304660e-04  -7.5434468e-04  -1.2443466e-04  -1.5384289e-03   5.8677170e-04  -4.0949762e-04  -5.3726468e-04  -4.8976339e-04  -1.2292711e-02  -1.0562417e-04   5.0223242e-03  -5.4112537e-04  -8.2540535e-04  -2.4983921e-04  -7.7499688e-04
   7.9069709e-05  -9.2411690e-05  -2.4740177e-04  -8.2680410e-05  -2.2075561e-04  -7.0421700e-04  -5.4138823e-04  -8.4261899e-04  -8.0085959e-04  -1.4508868e-03  -9.9053758e-04  -8.9985289e-04  -8.8260043e-04  -1.0367453e-03  -6.7099911e-04  -1.0665954e-03  -3.0371372e-04   5.1506418e-06   3.9191349e-05  -5.4857682e-04  -1.6499691e-06   1.5637763e-05  -6.7027914e-04  -7.0557755e-04  -7.8356883e-04   1.2837064e-04  -7.8255660e-04  -6.3554209e-04  -4.9913907e-04  -3.8982887e-04  -4.5676387e-04   2.1147526e-04  -3.3940794e-04   2.2074122e-03  -4.9783546e-04  -1.2975378e-03  -1.3492928e-03   2.2176826e-04  -9.5695996e-04  -1.0647486e-02  -7.5121381e-04  -3.6915523e-04  -5.0402310e-04  -5.3549474e-03  -3.9928738e-04   8.7490622e-03   5.9219310e-05  -8.2348846e-04  -2.7570149e-04  -5.2419864e-04
   2.0923335e-04   5.4836553e-05  -7.6733386e-06   1.6049316e-04  -2.4313313e-05  -3.8721992e-04  -2.5531522e-04  -6.6922011e-04  -1.8228334e-04  -2.3626209e-08  -3.5288944e-04   1.5166889e-04  -6.6552544e-04  -1.0248980e-03  -7.1819365e-04  -6.5819209e-04  -8.2463805e-05   3.0876597e-04   5.3069722e-05  -3.0858521e-04   8.6983186e-05   1.5723298e-04  -4.3808628e-04  -3.6859486e-04  -6.5046176e-04  -8.6020722e-05  -6.6806044e-04  -5.1506876e-04  -7.8686239e-04  -2.5633688e-04  -3.3083127e-04   4.0734973e-05   1.9845342e-05   2.0459022e-03  -4.6645122e-04  -8.1510050e-04  -8.0405705e-04   1.3523806e-04  -1.2948840e-03   5.1478520e-03  -4.5216759e-04  -1.7539709e-04  -7.8576850e-04  -8.5826162e-03  -1.7447182e-03   7.0048339e-04   2.1176726e-04  -7.0720387e-04  -9.9642151e-05  -1.0507982e-04
   1.2621068e-04   9.1429349e-05  -3.1515348e-05   1.7821333e-04  -4.1087947e-05  -4.0571729e-04  -3.2267711e-04  -4.1565570e-04  -2.7071105e-04  -2.8299211e-04  -4.3134985e-04  -4.9026621e-05  -6.0619501e-04  -7.8446971e-04  -6.2313140e-04  -6.6178071e-04  -1.3108912e-04   2.0205972e-04  -5.3516281e-04  -3.1575884e-04  -5.8872970e-06   1.3673557e-04  -4.5503530e-04  -3.2098754e-04  -6.4482779e-04  -2.0156569e-04  -2.8236813e-04  -2.2554572e-04  -5.7267456e-04  -2.4513432e-04  -4.0874549e-04  -1.1264778e-04  -4.8998551e-04   2.2492951e-03  -4.5477657e-04  -8.8581099e-04  -1.0107203e-03   8.9500849e-05  -6.5653451e-04  -2.6657849e-03  -3.0391943e-04  -3.7853979e-04  -5.4987433e-04  -3.4093266e-04  -2.3886904e-03  -1.3671387e-03  -2.5951580e-04  -8.3457353e-04  -6.2907592e-04  -7.8314985e-04
   9.6603268e-05   9.1017000e-08  -9.4689189e-05   4.8870294e-05  -1.3709838e-04  -5.6895672e-04  -3.6247430e-04  -5.6952913e-04  -5.2510755e-04  -7.8396261e-04  -6.8012194e-04  -4.8208341e-04  -6.5501733e-04  -1.0423647e-03  -2.5858663e-04  -8.5108948e-04  -2.5515337e-04   1.4727263e-04  -3.4277665e-04  -4.5142285e-04  -9.9330246e-05   1.1131506e-04  -5.2368076e-04  -5.0363032e-04  -1.0197670e-03  -3.4760238e-04  -7.7148090e-04  -6.5660616e-04  -1.8020695e-03  -3.6087478e-04  -5.1917974e-04  -1.5006165e-04  -1.4544076e-04   1.9345124e-03  -5.8743928e-04  -1.0981003e-03  -7.0162438e-04  -7.0710007e-07  -6.6239893e-04  -4.5990772e-03  -5.8587774e-04  -4.8129956e-04  -4.9340521e-04  -5.5832970e-03   7.6879468e-03  -2.7351084e-03   1.8834633e-06  -8.1390492e-04  -1.9294185e-04  -6.0404680e-04
   2.4658191e-04   2.0865594e-04   1.4955555e-04   2.2220684e-04   7.6828852e-05  -2.8759346e-04  -6.4356864e-05  -3.4908293e-04   1.1337746e-04   2.9707592e-04  -1.1718903e-04   4.2221110e-04  -2.5557549e-04  -6.4433785e-04  -3.0538274e-04  -3.7389837e-04  -1.9450719e-04   6.4004314e-05  -5.4436332e-06  -1.3243289e-04   1.7077738e-04   3.7151124e-04  -2.4271372e-04  -1.1251045e-04  -3.9592292e-04  -3.7797078e-04  -4.0537654e-04  -5.2569073e-04  -3.1928020e-04  -1.8414615e-04  -6.2573794e-04   6.5067393e-04  -9.6562813e-05   1.6342418e-03  -3.1711528e-04  -5.6399719e-04  -6.1119650e-04  -2.0699954e-06  -1.2153414e-03  -1.9727910e-03  -1.5376465e-04  -8.3768959e-05  -4.1794853e-04  -5.8946935e-03   1.6476238e-03  -2.6658871e-03   2.7056539e-04  -5.9341511e-04  -3.2107442e-04  -4.5216575e-04
   3.1329459e-04   3.1922205e-04   2.4079075e-04   2.9885129e-04   6.9228561e-05  -2.7210810e-04  -1.3478914e-04  -1.4703559e-04  -7.2278155e-05   9.3070848e-05  -1.0948446e-04   2.7664780e-04  -3.3791215e-04  -6.1455136e-04   9.9625158e-06  -2.5456614e-04   3.0889423e-05   2.8515313e-04  -3.1096031e-04  -1.3194990e-04   1.4968896e-04   2.8395629e-04  -2.1168633e-04  -1.6437289e-04  -4.7763903e-04  -2.3000891e-04  -3.9443973e-04  -3.1726551e-04  -7.9251127e-04  -1.2304785e-04  -4.1955558e-04  -2.2028653e-04   7.5182888e-06   1.8449184e-03  -3.5467089e-04  -1.8677684e-04  -5.0855952e-04   1.1882960e-04  -8.0687221e-04  -7.9499632e-03  -2.3021900e-04  -2.4409761e-04  -1.1272718e-04  -4.4911206e-03   1.5661870e-03   3.1459148e-03  -2.7341742e-04  -9.3150232e-04  -5.0179387e-04  -5.3490425e-04
   2.5592058e-04   2.0537301e-04   1.4552170e-04   1.5563544e-04  -4.2845877e-05  -3.8668388e-04  -3.0659887e-04  -4.5583094e-04  -4.4643955e-04  -5.0407596e-04  -4.2324510e-04  -2.3441983e-04  -3.8873742e-04  -7.0027582e-04  -4.3821480e-04  -4.4563101e-04  -2.3103446e-05   2.4004423e-04  -2.8309261e-04  -2.1052001e-04  -7.9272659e-06   1.3773880e-04  -3.5370764e-04  -3.4690497e-04  -9.3525194e-04  -2.6426098e-04  -7.3191634e-04  -3.4129666e-04   2.4572288e-05  -2.2020454e-04  -6.2655675e-04   2.7032731e-05  -8.4833271e-05   1.4617217e-03  -2.5012263e-04  -8.6761219e-04  -8.0377568e-04   1.2307019e-05  -7.8436453e-04   5.3546941e-03  -2.8705093e-04  -4.7984946e-04  -5.8093376e-04   1.4057191e-03  -1.1649217e-03  -2.0420608e-04  -6.8457588e-04  -9.5211546e-04  -5.2373175e-04  -8.8750996e-04
   1.9917767e-04   1.0509440e-04   1.4907624e-04   1.6583865e-04  -9.9482695e-06  -2.9242749e-04  -2.5842650e-04  -5.0075102e-04  -2.2524770e-04   2.6453074e-04  -1.6051905e-04   3.3921743e-04  -3.6431209e-04  -5.6124915e-04   8.8995868e-05  -4.6287838e-04  -3.1782387e-05   3.5489560e-04  -1.2258891e-04  -1.1311479e-04   9.7492695e-05   2.5552549e-04  -3.5495628e-04  -6.2403742e-05  -4.3359349e-04  -3.9422486e-04  -2.3193704e-04  -2.4951372e-04  -6.9962589e-05  -1.0040731e-04  -1.2862706e-04   1.6135012e-04  -1.0007784e-05   1.7643382e-03  -2.5309299e-04  -1.0336123e-03  -8.3478837e-04   2.5258254e-05  -1.2392353e-03   1.2467613e-03  -1.0601200e-04   5.0876049e-05  -1.9157545e-04  -4.7013145e-03  -8.6288024e-03   2.6165561e-03   5.7181669e-04  -1.9936872e-04  -7.5766678e-05  -1.6769485e-04
   2.3712224e-04   3.8271322e-04   3.0417237e-04   3.6280739e-04   1.3751144e-04  -4.7702932e-05  -2.4344687e-05  -1.8225692e-04  -5.4125092e-05   5.1310268e-04   6.6841669e-05   5.1435956e-04   3.5456895e-05  -3.4401816e-04  -2.0672519e-04  -3.5185460e-04   3.7664977e-05   3.3004931e-04  -1.0121327e-05   2.9817913e-05   1.6259152e-04   3.4347648e-04  -1.3882252e-04  -6.8779977e-05  -4.4776296e-04  -3.0956606e-04  -2.7409484e-05  -9.0738722e-06   8.9278823e-04  -1.0336592e-05  -6.2573017e-05   2.2407185e-04  -1.0015535e-04   2.1293585e-03   6.7549736e-05  -7.5859617e-04  -1.2728245e-03   2.5469143e-04  -3.9045626e-04   7.2261328e-03  -1.7840165e-04  -2.2135090e-04  -2.6294522e-04   1.8809469e-02  -4.9345810e-03  -7.1579511e-03  -3.3409556e-04  -6.3813006e-04  -6.9123699e-04  -8.4913149e-04
   1.9257143e-04   2.1202135e-04   1.9845176e-04   2.3980103e-04  -3.5923638e-06  -3.2527628e-04   8.7739842e-05  -5.4749897e-05  -2.5327026e-04  -4.2825026e-04  -3.4248777e-04  -3.4859785e-04  -2.7615303e-04  -5.6731456e-04  -2.1251071e-05  -6.7220692e-04   4.1819864e-04   7.1507978e-04  -4.6471436e-05  -1.3876584e-04   8.1212911e-06  -2.5796426e-05  -2.6706012e-04  -1.8143450e-04  -6.1881397e-04   6.5387532e-05  -7.1932498e-04  -5.2741909e-04  -5.9358455e-04  -1.4032255e-04  -1.9767067e-04   3.2279280e-04  -3.5148088e-04   2.9662829e-03  -2.2640689e-04  -9.4818510e-04  -9.3926798e-04   3.3220463e-04  -5.9958530e-04   2.6371891e-03  -3.6355274e-04  -5.6684291e-04  -4.1654162e-04   1.4403144e-02   2.3950436e-03   5.6263702e-03  -1.1992584e-03  -8.3384610e-04  -7.2992995e-04  -6.7264459e-04
  -1.4672921e-05  -1.4403816e-04  -5.2180003e-05  -3.1390424e-05  -3.1577877e-04  -6.8515126e-04  -4.0767773e-04  -6.1716454e-04  -5.6033098e-04  -1.1811649e-03  -7.6562603e-04  -1.1728102e-03  -4.2154995e-04  -8.1306795e-04  -9.7055257e-05  -5.8193278e-04   5.4868299e-04   9.7597647e-04  -1.2106461e-04  -2.6898956e-04  -1.9767665e-04  -2.4398571e-04  -3.6358670e-04  -2.1779405e-04  -4.1075479e-04   6.6450229e-05  -4.1125386e-04  -1.5804742e-04   4.8501803e-05  -1.7668567e-04   2.4612516e-04   1.6844943e-04  -2.8653492e-04   2.3022981e-03  -3.6168567e-04  -8.6030789e-04  -8.7671267e-04   5.9593611e-05  -1.0456081e-03   4.8483857e-03   1.7609033e-04   1.0917816e-04  -4.6015967e-04  -1.9034456e-02   6.1657414e-04  -8.1922226e-03   7.2075636e-04  -5.9972434e-05  -4.7429270e-04  -4.3858495e-04
   1.5960621e-04   2.8429041e-04   3.0950177e-04   2.5785828e-04   9.8718039e-05   8.0417594e-05   9.0682901e-05  -3.0478503e-04   6.5627537e-05   8.9549203e-04   1.0399997e-04   4.9497257e-04   1.7375372e-04  -2.0073557e-04  -5.8429792e-05  -2.4740415e-05   1.7365268e-04   2.6586096e-04   1.5225563e-04   4.9901442e-05   4.5606805e-05   9.0236535e-05  -1.8760300e-04   6.2842933e-05  -1.7515761e-04  -2.1369154e-04  -7.8644822e-05  -1.9906425e-04   5.4379168e-04   5.9063464e-06  -2.1602881e-04   5.8804441e-04  -9.3504073e-05   3.0688494e-03  -1.0868818e-06  -7.3112827e-04  -9.1895746e-04   3.5510509e-04  -4.1832772e-04   6.2151947e-03  -4.9200407e-05   3.8271050e-05   1.3810012e-04   1.0134708e-03   8.1372430e-04   1.3508139e-03   7.1829287e-05  -3.0143315e-04  -6.0052576e-04  -7.7669258e-04
   1.1847880e-04   1.4091301e-04   1.9749941e-04   1.6070459e-04  -2.7597593e-05  -1.8702030e-04   2.9335420e-06  -6.7478453e-05  -2.1101280e-04  -3.6037829e-06  -1.8367160e-04  -2.6824174e-04  -2.7213870e-05  -2.5440560e-04  -9.0907648e-05  -3.5341509e-04   5.1462976e-04   5.4889405e-04  -2.5164042e-04  -4.0079874e-05  -1.3509492e-05  -4.2954918e-05  -3.8270952e-04  -2.5167601e-04  -5.2805692e-05   2.9320188e-04  -5.3423271e-05  -1.6266422e-04   3.7687959e-04  -7.6776800e-05  -2.8760926e-04   6.6363113e-04  -2.5929170e-04   3.5417199e-03  -1.9491324e-04  -7.8276353e-05  -5.6508469e-04   4.1726211e-04  -3.9491331e-04   1.4527480e-03  -6.4754672e-04  -3.7411842e-04  -2.3653092e-04  -9.0336362e-03  -1.6517709e-03  -6.8517979e-03  -7.7988219e-04  -9.3202572e-04  -8.2058157e-04  -1.2772996e-03
   4.3330976e-05   9.3175862e-07   6.7771383e-05  -1.3733842e-05  -1.1911584e-04  -3.2655813e-04  -4.0928106e-04  -4.8717458e-04  -4.5524960e-04  -5.9639552e-04  -5.4441940e-04  -6.9952715e-04  -2.1328185e-04  -5.4614071e-04  -7.2795337e-05  -3.9113077e-04   1.5556638e-04   4.6314541e-04  -2.8717939e-05  -1.9693471e-04  -1.6112190e-04  -1.2630962e-04  -3.7546075e-04  -4.4728193e-04  -9.5335528e-04  -1.3273579e-04   9.7134282e-05  -1.1924490e-04  -6.5581710e-04  -2.0534924e-04  -7.1028405e-04   6.5954233e-04  -4.8961735e-04   2.3682395e-03  -3.9495819e-04  -6.9553877e-04  -9.1843563e-04   1.0819377e-04  -4.9029937e-04  -2.5984582e-03  -5.1018107e-04  -8.7429056e-05  -3.1985681e-05  -9.3265008e-03   4.8984108e-03   4.0988275e-03   4.3771727e-04  -2.0775761e-04  -6.6781940e-04  -9.0065901e-04
   3.2158830e-04   2.7361323e-04   2.8971315e-04   2.1598162e-04   1.0525183e-04   6.3228537e-05   1.7485194e-04   1.4523078e-05  -2.5960387e-06   6.0736865e-04   9.5611453e-05   4.1915159e-04   7.2422758e-05  -2.6715931e-04  -9.6490643e-05  -2.8267881e-05   4.2917891e-05   2.9456959e-04   2.0233959e-04   1.0199171e-04   9.8328441e-05   2.7113035e-04  -9.2255701e-05  -8.9346751e-05  -3.3261377e-04  -2.8660210e-04  -9.9305493e-05  -1.1911501e-04   2.0094050e-04  -1.8815055e-05  -2.6968707e-04   1.0517015e-03  -2.6556678e-04   2.0059578e-03  -1.3760185e-04  -5.6625798e-04  -8.4115105e-05   5.6094450e-05  -4.9006671e-04  -2.3185875e-02  -4.0065584e-04   1.3504222e-04  -1.9263769e-04  -1.0672963e-02  -1.2636126e-03   6.3702110e-03   5.0735963e-04  -2.9362686e-04  -4.1035170e-04  -6.0185563e-04
   4.2549169e-04   3.5175413e-04   3.3449873e-04   2.2080987e-04   1.4839500e-04   1.2883362e-04   4.6270874e-05  -2.7126276e-05  -1.6261864e-04   2.6970985e-04   2.3319126e-05   2.0465085e-04   1.1490611e-04  -1.2680739e-05   1.7952044e-04  -1.6186600e-04  -1.0541033e-04  -2.0887630e-05  -1.4713708e-04   9.3163137e-05   4.6496269e-05   2.7323072e-04  -1.2301818e-04  -1.8258135e-04  -2.6683774e-04  -4.9549661e-04  -3.6858368e-05  -1.6433182e-04   2.6231169e-04  -5.6341600e-05  -3.3900910e-04   3.5032292e-04  -4.7709537e-04   1.5563701e-03  -2.6483487e-04  -2.2439397e-04  -1.1032041e-03  -9.9155128e-05  -7.3765573e-04  -3.0595940e-03  -2.0755995e-04  -3.7410915e-05  -5.5234280e-04  -2.2175261e-03  -1.2753932e-02  -3.9525251e-03   1.5740174e-04  -5.1722600e-04  -9.1894512e-04  -8.3890511e-04
   2.7602247e-04   1.9353001e-04   1.5119353e-04   4.5471643e-05   1.8790524e-05  -8.6908862e-05  -1.3637743e-05  -3.0828285e-04  -3.0580803e-04  -2.4606063e-04  -3.0073762e-04  -2.7611936e-04  -5.1490483e-06  -1.6678844e-04  -5.3231925e-04   3.5465864e-06  -2.7870631e-04   5.5052358e-05   9.6365169e-05  -3.3426721e-05  -7.1264942e-05   2.5566222e-04  -3.2978985e-04  -3.3151300e-04  -7.0126320e-04  -5.8528257e-04  -4.9347832e-04  -1.2060991e-04   5.9900922e-04  -1.2651847e-04  -5.9444748e-04   1.8833239e-04  -5.3173309e-04   1.3688169e-03  -2.2584629e-05  -9.4186998e-04  -2.1757538e-04  -3.3603102e-04  -5.9064256e-05  -4.0668473e-03  -6.2729645e-04  -3.2700421e-04  -4.3180460e-04  -2.8984500e-03  -2.3069743e-03   3.8260000e-03  -4.8044004e-04  -7.2635507e-04  -7.6398917e-04  -1.2333420e-03
   1.6691707e-04   7.5784075e-05   1.2531038e-04   3.2677843e-05   6.0150403e-05  -8.1930397e-05  -2.9919758e-05  -5.3312971e-05  -2.3580437e-04   3.9693460e-04  -1.9443905e-05   2.4287945e-04   7.9608071e-05  -8.5836822e-05  -1.8584468e-04   1.8228976e-04  -3.5427129e-04   3.6088704e-06  -6.8862777e-05   9.0795496e-05   6.6064393e-05   3.5397071e-04  -2.3510595e-04  -8.5221349e-05  -5.1947293e-04  -6.6810742e-04   3.6657471e-04   2.0733602e-04  -6.5667328e-04  -2.7784754e-05  -6.0743082e-04   3.2743445e-04  -2.9725124e-04   1.1283570e-03  -5.8545378e-05  -1.7684809e-04   1.0513401e-04  -2.6333332e-04  -8.3201990e-04  -3.3959108e-03   3.7294562e-04   2.5032923e-04  -2.6720035e-04   4.9719005e-03  -1.4388784e-05   6.6804742e-03   6.6286646e-04  -6.5108521e-05  -3.4824898e-04  -7.4552454e-04
   2.3674539e-04   2.8246024e-04   1.4318347e-04   1.2013844e-04   8.9309360e-05   8.1202321e-05  -1.5814391e-06   6.8634530e-05  -1.0908722e-04   2.4764964e-04   4.3584769e-06   1.8517808e-04   2.1453141e-04   3.2164418e-05  -3.1118956e-04   7.0871996e-05  -2.7391574e-04  -1.6805234e-04  -5.0993427e-04   9.5085721e-05   5.7691905e-05   3.0523987e-04  -1.7733649e-04  -1.3058436e-04  -4.7581521e-04  -6.9014425e-04   1.8766685e-04   1.7964716e-04  -4.8657769e-04  -3.3294098e-05  -3.3095345e-04   1.6807143e-04  -4.0811789e-04   8.8999281e-04  -2.5575055e-05   3.8314291e-05  -6.6776760e-04  -3.1137260e-04  -5.1985373e-04   7.4662622e-03  -4.4244467e-04   1.0381718e-04  -2.7112092e-04   3.2484921e-04  -1.2069362e-03  -1.3379066e-03   2.8442850e-04  -4.6979205e-04  -6.5094506e-04  -7.1325788e-04
   1.2242675e-04   1.5364970e-04   1.5662952e-05  -2.0830830e-05  -4.0156596e-05  -1.1456495e-04  -1.7601339e-04  -3.1552988e-04  -4.3411937e-04  -3.5999381e-04  -3.2351154e-04  -3.4409252e-04  -1.2067881e-05  -1.7542916e-04  -3.0921298e-04  -2.9902052e-04  -4.3577628e-04  -3.0229660e-04  -2.7469103e-04  -5.5070192e-05  -6.9751957e-05   1.7696273e-04  -3.2330473e-04  -2.9905298e-04  -4.2296975e-04  -8.6029025e-04  -3.0778439e-04   2.9438385e-04  -4.5321858e-04  -1.5586290e-04  -1.0096101e-03   4.7098518e-05  -3.6684991e-04   5.2777998e-04  -3.0708042e-04  -1.7749741e-04  -6.9873320e-04  -4.2654548e-04  -4.5287612e-04   1.6350204e-02  -1.5751664e-05  -1.4611083e-04  -5.8360345e-04  -5.5225031e-03  -1.6767882e-02  -1.5996991e-03  -2.9389566e-04  -8.2415610e-04  -9.1634365e-04  -1.0480270e-03
  -1.0099336e-04  -6.1482962e-05  -2.2549524e-04  -2.3387917e-04  -2.2052400e-04  -3.3960704e-04  -3.6459029e-04  -1.4061789e-04  -7.1030646e-04  -9.8020711e-04  -7.1185478e-04  -8.9073560e-04  -3.8182660e-04  -3.5402155e-04  -3.0882936e-04  -3.1160764e-04  -5.2075856e-04  -2.0226832e-04   9.5563490e-05  -2.1374130e-04  -1.3929242e-04   4.7406189e-05  -3.7286663e-04  -3.9733897e-04  -9.2521450e-04  -8.8913145e-04  -1.6338399e-04  -1.6229684e-04  -6.3217519e-04  -2.4883522e-04  -1.1778673e-03  -4.9212633e-04  -7.5955311e-04   9.3113485e-04  -8.7691842e-05  -5.0435169e-04  -3.4817867e-04  -3.9845952e-04  -9.9445449e-04   3.3358505e-03  -7.0637187e-05   1.3588155e-04  -4.0047031e-04   1.0247913e-03  -7.9374127e-03   2.2548940e-03   4.5641116e-04  -4.4538660e-04  -7.5387052e-04  -6.2552158e-04
  -1.5260344e-05   1.1804095e-04  -7.4896285e-05  -4.3468575e-05  -4.6954654e-05  -2.2556436e-05  -6.3109619e-05  -1.7743485e-04  -2.7124805e-04   9.2703965e-05  -1.7516399e-04   3.4466782e-06   4.6747613e-05  -1.4361525e-04  -2.6248160e-04  -1.7030777e-04  -5.0125387e-04  -2.8067065e-04  -1.1569700e-04  -6.5548273e-05  -4.3911987e-05   1.7082423e-04  -2.6512507e-04  -1.8681546e-04  -5.1568280e-04  -9.2443172e-04   2.7339064e-04   1.3506042e-05  -1.3450693e-03  -1.9894076e-04  -6.8165892e-04  -6.4212138e-05  -6.3924561e-04   7.6981494e-04  -4.0588801e-04   2.6273972e-04  -7.3972362e-04  -4.5456405e-04  -3.1259898e-04  -1.3663860e-03  -1.7761890e-04   8.2491984e-05  -5.5172632e-04  -4.7961636e-03  -6.2176408e-03  -5.3287609e-03   2.4340204e-04  -3.1388819e-04  -8.0885115e-04  -4.2648771e-04
  -1.3029188e-04   3.0241243e-05  -2.1120890e-04  -1.2896105e-04  -1.6226002e-04  -2.5714084e-04  -1.8394098e-04  -3.1915164e-04  -5.5465847e-04  -3.0306462e-04  -3.7691879e-04  -3.3255736e-04  -1.4751125e-04  -2.7113993e-04  -1.6385432e-04  -3.4534794e-04  -5.4141617e-04  -4.6406643e-04  -6.6283729e-04  -1.2476489e-04  -1.3243112e-04   8.8649605e-05  -3.4516657e-04  -2.9264708e-04  -7.9539063e-04  -8.7834109e-04  -1.9971145e-04  -8.3050289e-04  -4.6509667e-04  -2.6552772e-04  -8.5525378e-04  -1.8314830e-04  -9.6463796e-04   3.8939907e-04  -3.6650652e-04   2.0262187e-04  -1.4380714e-03  -5.1561667e-04  -2.3134029e-04   6.6231721e-04  -2.8319485e-04  -2.3043509e-04  -5.2292616e-04  -2.0960290e-03  -5.8396170e-03   2.8712149e-03  -6.1127730e-04  -8.6606666e-04  -9.3192759e-04  -6.4048369e-04
  -3.0081382e-04  -1.8236331e-04  -3.9852152e-04  -3.2418311e-04  -3.3952718e-04  -4.3331174e-04  -4.5587478e-04  -3.8704128e-04  -8.7419542e-04  -9.8676304e-04  -7.6460815e-04  -8.9001172e-04  -2.1443421e-04  -3.5998182e-04  -8.4462867e-04  -4.1445202e-04  -6.3773175e-04  -1.9486998e-04  -8.7785505e-04  -2.7240982e-04  -2.5156987e-04  -1.0746234e-04  -5.7104713e-04  -4.5954323e-04  -8.7561028e-04  -9.1532763e-04  -4.2447302e-04  -1.5046327e-04  -4.4887351e-05  -3.6374381e-04  -4.1230349e-04   1.5863158e-04  -1.0242074e-03   6.9500471e-04  -3.7967140e-04  -4.7499375e-04  -2.8492793e-04  -4.4193739e-04  -1.5206808e-03  -1.1057467e-02  -2.7607087e-04   3.1025178e-05  -7.7824027e-04  -4.9767625e-03   3.9010437e-03   1.6616049e-03   3.6206128e-04  -3.3573195e-04  -7.8629545e-04  -5.4895703e-04
  -2.2621742e-04  -2.2411899e-05  -2.5778206e-04  -1.2826195e-04  -1.9157930e-04  -1.3562852e-04  -1.4795816e-04  -6.6544926e-06  -4.3977352e-04   1.4953348e-05  -2.6679659e-04  -5.8221594e-05  -1.6468175e-04  -2.7236529e-04  -3.5133405e-04  -1.3150278e-04  -4.3484580e-04  -3.2783404e-04  -5.1187829e-04  -9.8887402e-05  -6.8942660e-05   1.1174575e-05  -3.8875354e-04  -2.3850372e-04  -8.1216468e-04  -6.6988647e-04  -2.0377357e-04  -1.7370247e-04  -2.5038648e-04  -2.3802888e-04  -8.2865730e-04  -3.7784933e-04  -8.3251076e-04   4.1600780e-04  -2.9727924e-04  -2.7281209e-04  -6.4425240e-04  -3.7162943e-04  -1.2294399e-03  -1.3384028e-02  -2.2405348e-04  -5.5328150e-05  -4.2959943e-04   3.2781865e-04   8.6314295e-04  -2.0536147e-04   5.4216154e-05  -4.7062946e-04  -5.8036170e-04  -4.0533877e-04
  -2.9397139e-04  -1.0748135e-04  -3.4419145e-04  -1.7905423e-04  -2.6105013e-04  -3.3494711e-04  -3.2329591e-04  -1.9838172e-04  -6.7670358e-04  -5.2535650e-04  -5.4341467e-04  -4.8249718e-04  -2.2265813e-04  -3.8494190e-04  -2.5676133e-04  -4.7616402e-04  -2.5358467e-04  -9.9108278e-05  -6.7952939e-04  -1.8605040e-04  -1.4017666e-04  -1.3473397e-04  -3.8315600e-04  -4.0480058e-04  -9.0036722e-04  -2.5483393e-04  -7.3689363e-05  -4.6314180e-04  -1.0746381e-03  -2.5822828e-04  -8.0372702e-04   3.5295030e-04  -9.2691340e-04   1.7531441e-03  -2.9420343e-04  -3.6193102e-04  -6.4208027e-04  -5.9848888e-05  -4.2336070e-04  -4.2381724e-03  -1.2603711e-04  -4.6432597e-04  -2.2316574e-04  -1.3730170e-02   2.5983672e-03   1.4685245e-03  -1.1154497e-03  -9.6062856e-04  -8.4120256e-04  -9.7856089e-04
  -3.7725567e-04  -4.2515501e-04  -4.8250626e-04  -3.3653455e-04  -4.9000542e-04  -7.5084734e-04  -5.3027488e-04  -9.1923203e-04  -1.0371957e-03  -1.4975169e-03  -1.0063163e-03  -1.3640113e-03  -6.4212934e-04  -7.5539027e-04  -2.3565991e-04  -4.5649739e-04  -2.5674095e-05   1.7667154e-04  -1.2107805e-04  -3.9329531e-04  -2.3854469e-04  -3.9982673e-04  -6.5467885e-04  -5.2937918e-04  -7.3297491e-04  -1.8974511e-04  -8.4609963e-04  -5.5210292e-04  -1.1506736e-03  -3.9830769e-04  -4.1729619e-04   4.0990557e-04  -8.2890235e-04   1.7294451e-03  -2.9545088e-04  -8.4842126e-05   4.9240505e-05  -1.0824013e-04  -1.2252722e-03  -4.4794702e-03  -4.2224818e-04  -1.3646652e-04  -3.8271028e-04  -1.6333606e-02  -5.1654158e-03   7.7384836e-03   7.4987138e-06  -4.3962765e-04  -5.2711339e-04  -6.9475593e-04
