  -2.3574356e-04  -7.7925011e-05  -7.1685929e-05  -7.0054164e-05  -1.4894911e-04  -1.3584206e-04  -1.3038953e-04  -1.8118607e-04  -5.8427915e-05   6.9086564e-05  -1.0304446e-04  -1.0782552e-04  -1.3995483e-04   2.7102127e-04  -6.2526081e-04  -2.1491956e-04  -1.4181536e-05  -2.6878392e-04   9.6629301e-06  -1.3086779e-04   1.3804733e-04   1.2778956e-04   1.1671403e-06  -8.9629993e-06   3.7706387e-04  -7.0781272e-04   1.2180681e-04   1.3945356e-04   1.2275859e-05  -2.0587396e-04  -5.5587734e-04  -1.6585435e-04  -4.7084355e-05   1.3163118e-03  -3.4258043e-04  -2.1393952e-04  -1.1113498e-04  -6.0084194e-04  -1.7734527e-04  -3.7686195e-04   1.7758185e-04   8.3120191e-05   1.3140000e-04   9.0259006e-03  -4.9584191e-03   1.0809220e-03   2.9918110e-05  -7.2412819e-05   1.0399503e-04   1.6825940e-04
  -2.4137484e-04  -7.4787094e-05  -7.5336473e-05  -9.1522706e-05  -1.4591881e-04  -1.3263396e-04  -1.3361774e-04  -2.0340987e-05  -5.1940933e-05  -2.1888154e-06  -1.2749218e-04  -1.6972053e-04   3.0620293e-05   1.0148553e-04  -9.3428645e-04  -3.3455639e-05  -4.9573868e-05  -3.1035839e-04   1.3008201e-04  -1.4044096e-04   1.3751892e-04   1.4436757e-04   6.5726330e-05  -1.2421634e-05   1.1041170e-04  -7.4475602e-04   5.2252792e-05   3.9224054e-05  -4.4734386e-04  -2.0914232e-04  -4.9413170e-04   4.2362419e-05   9.1851820e-05   1.6259919e-03  -2.8321956e-04  -2.8637936e-04  -1.8219168e-04  -5.8394863e-04   1.8264388e-04   3.7444604e-04   5.7953202e-06   7.5320073e-05  -1.3853217e-04  -4.7100862e-03   4.6289447e-03   3.5708206e-04   7.6541901e-06   1.5557691e-05   1.7113291e-04   4.3725984e-05
  -2.3815857e-04  -7.3704548e-05  -6.6143344e-05  -8.5699394e-05  -1.3242311e-04  -1.6482001e-04  -1.7805817e-04  -2.3108469e-04  -1.8504373e-04  -9.2999493e-05  -1.6013792e-04  -2.0858926e-04  -1.2179181e-04   1.3050869e-04  -4.7978226e-04   9.6850483e-05  -7.1441049e-05  -2.0793371e-04  -9.6116564e-06  -1.4162308e-04   1.4485895e-04   1.2837487e-04   1.1404431e-04  -7.7293780e-06   5.3625222e-04  -7.3253410e-04  -1.1225189e-04   7.2352916e-05  -1.5535751e-04  -1.9294456e-04  -5.5693323e-04  -9.7114018e-05  -7.1827686e-05   1.4152854e-03  -2.5251938e-04   2.8909781e-04  -2.1287787e-04  -6.5028394e-04  -3.1986405e-04  -1.0374563e-02   1.5362211e-04   8.9679823e-05   2.2069777e-04  -2.8969182e-03   3.2870092e-03  -1.0360060e-03   2.4885081e-05  -7.4782598e-05   1.9682202e-04  -1.3177367e-05
  -2.4554852e-04  -7.2468974e-05  -7.6413096e-05  -9.4759278e-05  -1.4581425e-04  -1.9243988e-04  -1.5662845e-04  -1.4983806e-04  -2.0114107e-04  -2.4338628e-05  -1.2876722e-04  -1.6140967e-04  -1.5956619e-04   1.3913044e-04  -5.2924571e-04  -1.2660767e-04  -4.1662457e-05  -2.3127734e-04   1.2847438e-04  -1.7064568e-04   1.4679467e-04   1.3498160e-04   9.9443305e-06  -4.0597126e-05   6.6552544e-04  -5.3010636e-04   3.1694031e-04   5.7466845e-05  -6.6855265e-04  -1.4504702e-04  -6.8330657e-05  -1.0638832e-04  -1.8332754e-05   1.0219975e-03  -1.1620462e-04  -2.1179268e-04  -6.3251040e-04  -4.5948717e-04  -3.2314094e-04   4.8194258e-03   6.6742010e-05   5.0492505e-05  -1.0512854e-04   3.9242706e-03  -1.4494383e-03  -2.6844672e-03  -2.8357017e-06  -1.8817105e-05   9.7015793e-05  -1.6943492e-04
  -2.3028761e-04  -8.1232625e-05  -6.1663879e-05  -7.6324439e-05  -1.4671580e-04  -1.2682867e-04  -1.7717967e-04  -1.5244262e-04  -1.9376293e-04  -1.5267887e-04  -1.6851648e-04  -2.7272559e-04  -2.2237467e-04   2.2694290e-04  -4.1921381e-04  -1.0778033e-04  -4.1936131e-05  -1.8966032e-04  -4.6734909e-05  -1.3469787e-04   1.4697986e-04   1.1605139e-04  -9.2943643e-05   2.9729641e-05  -1.3389632e-04  -2.4652068e-04  -1.1196262e-05   3.2629032e-04  -4.4229321e-04  -6.6583591e-05  -3.4388178e-04   8.0950667e-05   2.4323621e-04   1.3419960e-03  -9.4933042e-05  -2.8414483e-04  -8.3923223e-04  -2.5890005e-04   1.5768150e-04   1.4767782e-02  -1.0789405e-04   1.4595212e-05   9.3865812e-05  -8.6159837e-03  -5.3140675e-03  -4.9776048e-03  -5.7481498e-06   9.8950986e-05   2.7099572e-04  -1.0240338e-04
  -2.1042014e-04  -8.6601663e-05  -5.1786534e-05  -6.8697649e-05  -1.3092079e-04  -1.4361378e-04  -1.4561480e-04  -3.1084001e-05  -4.7041609e-05   2.0896770e-05  -1.0218876e-04  -1.8027595e-04  -6.4869688e-05   1.2817270e-04  -3.3388034e-04   2.1158913e-04  -1.8808072e-05  -1.3877482e-04  -4.2793105e-05  -1.3995347e-04   1.5712794e-04   1.3594460e-04  -5.2725700e-05   4.8422458e-05  -4.6654339e-05  -1.5894276e-04  -2.4109577e-04   4.8378206e-05  -5.5199704e-04  -5.8045473e-05  -3.2760983e-04   3.9746359e-05  -7.5162381e-05   1.7532670e-03  -9.8780052e-05   4.8998230e-05  -5.3439313e-04  -2.5873247e-04  -7.9783000e-04   5.0745686e-03  -7.5181226e-05   3.4863140e-05  -1.8311659e-04  -3.2132284e-03  -4.2118649e-03   2.8019855e-03   7.9123602e-05   4.8200749e-05  -1.5076037e-04  -7.4551484e-05
  -2.1154199e-04  -9.4045819e-05  -5.2754425e-05  -6.6315864e-05  -1.4383590e-04  -1.6552540e-04  -2.1924004e-04  -1.4837518e-04  -1.3846492e-04  -5.2144904e-05  -1.4130102e-04  -2.6526509e-04  -1.1269910e-04   1.2624798e-04  -2.1786566e-04  -4.8360223e-05  -3.9886050e-05  -1.3484516e-04  -1.3721375e-04  -1.4414948e-04   1.6570349e-04   8.7427848e-05  -1.0564156e-04   4.2412754e-05  -2.7209035e-05   2.0300895e-04  -1.7832084e-04  -2.3172250e-05  -4.2410920e-04   1.5167593e-05  -1.3294950e-04  -3.4741391e-04   1.3032781e-04   1.9929318e-03   1.2392117e-04   5.9506070e-04  -5.0509319e-04  -1.2895405e-04  -5.8674440e-04   3.6073753e-04  -8.2892693e-05  -3.1166292e-05   2.1640808e-05   2.4331741e-04  -6.7800027e-03   2.0959915e-03  -7.8252604e-05   1.1493478e-06   8.2798790e-05  -2.5041235e-04
  -2.1198792e-04  -1.0206460e-04  -5.8625857e-05  -6.7843626e-05  -1.4331689e-04  -1.8537651e-04  -1.6321367e-04  -3.1546032e-04  -1.4088712e-04  -1.5908648e-04  -2.0396046e-04  -3.3281348e-04  -5.6759742e-05   1.6222666e-05  -6.0801487e-04  -2.3038764e-04  -8.5011030e-05  -1.4336419e-04  -4.6030374e-04  -1.4868405e-04   1.4298043e-04   9.2975977e-05  -8.3436105e-05  -2.9748105e-06  -8.4436842e-06   5.0090639e-05  -8.6703303e-06  -2.8800190e-04  -5.0523988e-04  -1.0265563e-05  -2.0286051e-04  -1.8468020e-04  -1.2187953e-05   1.7654198e-03   1.2610049e-04  -3.1666359e-04  -8.1786944e-04  -2.0810004e-04  -8.6305017e-04   8.2748346e-03  -3.0686999e-05  -9.6069598e-06  -2.4674096e-04  -2.5644810e-03   4.1628508e-03  -7.9715755e-05   9.8483179e-05  -1.1006380e-04   8.2290178e-05  -1.3142246e-04
  -2.2829429e-04  -1.0728093e-04  -7.6153970e-05  -7.7568235e-05  -1.5681128e-04  -1.4683390e-04  -1.2221675e-04   6.9446264e-07  -2.0916048e-05   5.8647380e-05  -1.2298441e-04  -1.9083162e-04  -2.0033173e-04   4.9389138e-05   1.8588666e-04  -8.8179106e-05  -8.9520407e-05  -3.6046069e-05  -2.5118858e-04  -1.6252756e-04   1.3325391e-04   9.3027542e-05  -8.0892634e-05  -3.1083466e-05   2.0365945e-04  -6.1115621e-05  -5.3540192e-05   6.5610322e-05  -1.2712543e-03  -6.9294147e-05  -3.3002903e-04  -4.5655319e-04   3.3645134e-05   1.8880947e-03   6.1504259e-05  -2.0077007e-04  -2.4753463e-04  -2.2666353e-04  -6.1107316e-04  -5.1842369e-03   4.5777171e-05   2.1412650e-05   1.9286333e-04  -2.3712225e-03   3.8467715e-03  -1.8397407e-03  -5.5850951e-06   1.2226455e-04  -9.9543868e-05  -2.6912091e-04
  -2.1373644e-04  -1.0888960e-04  -8.0257247e-05  -8.8160072e-05  -1.5975206e-04  -2.2072828e-04  -2.0402858e-04  -1.4734270e-04  -3.3825031e-04  -3.5790013e-06  -1.3657752e-04  -2.4445125e-04  -1.9832127e-04  -4.4563330e-05  -3.9375570e-04   2.3759021e-04  -4.7214427e-05   5.5024182e-05  -3.3043536e-05  -1.7017547e-04   1.0819032e-04   1.1261891e-04  -4.7929771e-05  -1.0958032e-05   2.9428516e-05  -4.8545200e-05  -1.3928047e-04  -2.9791841e-05  -8.9026859e-04  -7.2006958e-05  -5.2916282e-04   2.6224711e-04  -6.8270114e-05   1.7398285e-03  -8.1149621e-05   9.9644263e-04  -4.3204933e-04  -2.0176827e-04  -4.2841962e-04  -4.6708137e-03  -2.5326601e-04  -7.2653878e-05  -1.5949846e-04  -5.1185745e-03   1.0154561e-04  -2.4800391e-03  -3.7285508e-06  -2.9915294e-05  -5.2974588e-05  -1.9275470e-04
  -2.0508868e-04  -1.1330788e-04  -7.6003496e-05  -8.1519502e-05  -1.5552076e-04  -1.8077658e-04  -2.3575872e-04  -2.2819696e-04  -9.5497933e-05  -9.4686773e-05  -1.8592940e-04  -2.9454628e-04  -1.2924659e-04   1.2370068e-04  -4.7741903e-04  -4.6866728e-05  -5.9988834e-05   1.4805468e-05   1.1888221e-04  -1.7846357e-04   1.1685479e-04   9.2017806e-05  -1.7345126e-04  -7.3613352e-05   9.6513919e-05  -1.6681750e-05  -2.1069844e-05  -1.3236777e-04  -1.1937551e-04  -3.0039273e-05  -8.7916560e-06  -4.8586639e-04  -2.5103337e-04   1.3451722e-03  -3.0472109e-05  -2.3086419e-04  -5.1269023e-04  -8.3514897e-05  -1.8026117e-04   3.2911000e-03  -3.5932148e-04   3.2850019e-06  -1.2155018e-04  -9.3470298e-05   1.2940153e-02   3.2438992e-03   4.6520621e-05  -1.0248070e-04  -8.6042826e-05  -3.4436380e-04
  -1.9520539e-04  -1.2054790e-04  -7.1799426e-05  -6.8029476e-05  -1.6285272e-04  -1.6615595e-04  -2.6622743e-04  -1.1673220e-04  -2.1336536e-04   3.0814728e-05  -1.0257617e-04  -2.1905822e-04  -1.6830143e-04   1.0364836e-04   1.2346903e-04  -1.5266190e-04  -9.2508935e-06   8.8506109e-05   6.9810170e-07  -1.5992679e-04   9.5793024e-05   4.8860162e-05  -1.1471393e-04  -1.8392007e-05  -1.2966775e-04   2.1882258e-04  -3.0290347e-04  -2.0526439e-05   1.2116596e-04  -3.3546556e-05   3.6898386e-05  -4.5318759e-04  -3.1959245e-04   2.1926982e-03  -4.8077982e-05   1.1429803e-04  -1.0846760e-03  -8.1799590e-05  -3.7652202e-04   2.5515095e-03  -1.1284749e-04   1.2471341e-05   1.9223384e-05  -7.2614141e-03  -5.8751914e-04  -9.5786498e-04  -1.5182351e-05  -9.2768940e-05   8.2928651e-05  -1.8745057e-04
  -1.8610456e-04  -1.2028997e-04  -6.9822629e-05  -9.1787515e-05  -1.4879965e-04  -1.2757897e-04  -1.5623181e-04  -1.2144908e-04  -2.3339574e-04  -2.4695462e-05  -1.6471026e-04  -2.6255444e-04  -3.9248498e-05   2.7754132e-04  -1.6934075e-04   3.7969141e-06  -4.5163084e-05   6.0432787e-05  -4.4953116e-04  -1.7040942e-04   8.1626618e-05   7.9319296e-05  -1.6048620e-04  -2.9456667e-05   3.5103431e-04   1.1335168e-04  -4.6022571e-05  -9.9200210e-05  -6.0809223e-04  -2.1680406e-05   1.6112867e-04  -8.4506049e-05   2.7186410e-05   2.3869621e-03   1.6823922e-05  -9.4302450e-05  -6.7105592e-04  -3.5935947e-05   9.9817131e-05  -7.9332227e-03  -4.3239252e-04  -2.2593236e-05  -1.7089458e-04   7.3770474e-04  -7.2396727e-04  -4.2509756e-04  -2.3435592e-05  -1.1444942e-04  -3.4002329e-05  -4.0976392e-04
  -1.7482144e-04  -1.3028212e-04  -7.0510090e-05  -9.7985874e-05  -1.6105447e-04  -2.1378310e-04  -1.4333303e-04  -3.6328856e-04  -1.9717481e-04  -1.2752011e-04  -2.1660791e-04  -3.4477498e-04  -2.1934713e-04   1.7306507e-04  -2.0058449e-04  -1.5738264e-04  -6.7918561e-05  -7.3257819e-05  -1.0031874e-04  -2.0602379e-04   8.1230784e-05   5.1079638e-05  -1.2399528e-04  -5.6501935e-06  -4.6007906e-05   1.5627532e-04   6.8424866e-05  -3.5015424e-04  -6.1618161e-06  -3.1029464e-05  -1.9503442e-04  -5.0001260e-04   1.9365019e-04   1.7316876e-03   7.1287095e-06  -5.8002264e-04  -2.0271905e-04  -7.6512290e-05  -6.7655049e-04  -9.3304114e-03  -3.0123626e-06  -1.3360203e-05  -4.6192607e-05   3.1810729e-03   3.0493338e-03   2.1471733e-03  -1.0740025e-04  -1.0036423e-04  -4.0181701e-05  -7.3147501e-05
  -1.8947499e-04  -1.3050526e-04  -8.2069811e-05  -1.0912265e-04  -1.5801734e-04  -1.8202749e-04  -2.3018949e-04  -1.8249496e-04  -2.4863079e-04   3.9755359e-05  -1.1205882e-04  -2.2689826e-04  -1.5071782e-04  -4.6216053e-05  -3.8855680e-05   1.5122240e-04  -3.6466576e-05  -5.5436314e-05  -3.5402086e-04  -1.5878295e-04   9.0005036e-05   4.8187732e-05  -2.3210028e-04   1.6239814e-05  -4.9592123e-05   2.2058337e-04   2.6979204e-04  -3.1254298e-04  -8.7737502e-04  -4.1407398e-05  -4.9004704e-04  -1.4049541e-04  -8.6488057e-05   1.9415199e-03   1.0873845e-04   4.8829257e-05  -8.0928206e-04  -1.3261380e-04  -4.6788948e-04   2.6085253e-03  -2.8768121e-04  -8.4111824e-05  -5.5135301e-06   9.5032416e-03  -2.0788138e-05   5.1381141e-03  -9.3028240e-05   3.0094137e-05  -3.2524837e-04  -1.9863977e-04
  -1.9091512e-04  -1.3126353e-04  -9.1297610e-05  -1.1783225e-04  -1.6275965e-04  -1.5672440e-04  -8.0744258e-06  -1.6842372e-04  -2.6302642e-04  -2.3237499e-05  -1.3485394e-04  -2.4488699e-04  -7.5091732e-05   1.2603917e-04  -6.5414155e-05  -1.4822907e-04  -1.1086113e-04   5.8568439e-05  -9.5037722e-05  -1.8928430e-04   6.0054186e-05   4.0648192e-05  -1.2323320e-04  -3.6998368e-05  -8.3132763e-06   9.0911826e-06   5.2236926e-05  -7.1208029e-05  -3.8731861e-04  -1.0649008e-04  -1.1883090e-04  -9.3348450e-07   9.5409465e-05   1.6602954e-03  -1.0976757e-06  -6.8697770e-04  -1.9430999e-04  -1.8723415e-04  -4.3033753e-05  -3.6829358e-03  -2.9978930e-04  -2.8708806e-05   1.3241330e-04  -7.6219435e-03  -1.1318452e-03  -4.1220463e-03  -1.0359140e-04  -2.6999027e-05  -2.5661613e-05  -3.1947013e-04
  -1.8808380e-04  -1.2658292e-04  -9.7752119e-05  -1.3704655e-04  -1.4764366e-04  -2.0398889e-04  -2.4799246e-04  -1.0339524e-04  -3.7601168e-04  -1.5063169e-04  -2.0603671e-04  -2.7685665e-04  -1.5885614e-04  -8.3515486e-05  -1.1878436e-05  -3.7359822e-04  -6.3604515e-05  -8.8842360e-05  -1.3884707e-04  -1.8015501e-04   5.0130508e-05   2.3324588e-05  -1.4839490e-04  -1.0206091e-04  -3.7245161e-05  -1.1139061e-04   5.4716144e-04   5.5926310e-05  -2.8946626e-04  -1.4868579e-04  -1.2157901e-04  -2.2926310e-04   5.6931185e-06   1.4782613e-03  -1.4972780e-04  -4.1087225e-04  -2.2224990e-04  -3.1031150e-04  -1.5844921e-04  -6.6971374e-03  -1.9341207e-04   2.1894077e-05  -1.2164425e-04  -1.0407381e-02   6.1240182e-03  -9.6189644e-04  -3.7582802e-05  -1.8479490e-04  -1.7973506e-04  -9.4003306e-05
  -1.9733360e-04  -1.2077421e-04  -9.8169519e-05  -1.3691683e-04  -1.5367809e-04  -1.5428010e-04  -1.4143639e-04  -2.7751998e-04  -1.4771138e-04   3.6936945e-05  -1.1710158e-04  -1.2762961e-04  -1.9721541e-04   1.5406757e-04  -4.6735266e-04  -4.5199895e-06  -5.0504721e-05   5.3080799e-05  -2.6092018e-04  -1.8584613e-04   7.0512557e-05   6.9028036e-05  -1.3131305e-04  -3.6072815e-05  -3.4244440e-05  -2.0112081e-04  -6.8011890e-05  -1.0231638e-05   4.5139270e-04  -1.2612781e-04  -1.0568852e-04  -3.9061744e-04  -2.2885642e-05   1.0761367e-03  -2.9565435e-04   1.0315516e-06  -8.9799741e-04  -4.1220919e-04  -8.0858020e-04   6.5493342e-03  -2.6500429e-04   2.7252484e-06  -1.7955224e-04   2.3141475e-03  -4.3921708e-03   4.8332321e-03   5.4879623e-05   2.3217630e-05  -1.9984931e-04  -7.9579433e-05
  -2.1147114e-04  -1.1916456e-04  -9.8696721e-05  -1.4496261e-04  -1.5249655e-04  -1.3356486e-04  -2.1916311e-04  -5.5965738e-05  -3.3704389e-04  -4.3329612e-05  -1.6910650e-04  -1.9723432e-04  -4.8867125e-05   7.8098572e-05  -3.6883520e-04  -1.4589173e-05  -5.0626099e-05  -3.1392010e-05  -1.1303716e-04  -1.7453863e-04   6.6696739e-05   7.0663773e-05  -6.7745837e-05  -3.6043763e-05   1.7264287e-04  -2.8444955e-04  -1.6158682e-04   2.9909870e-04   8.8300731e-05  -1.6002965e-04  -1.5290087e-04  -4.2190036e-04  -6.6823624e-05   1.0956024e-03  -1.6360769e-04   2.0737988e-04   4.5509700e-04  -4.1451608e-04  -4.5797072e-04  -1.3679945e-03  -2.6991207e-04  -3.1459771e-05  -2.7966849e-04  -3.1751564e-03   4.6542846e-03   1.2487345e-04  -5.2738509e-05  -1.5166360e-04   1.4562656e-04   4.5375480e-05
  -2.2251080e-04  -1.1959767e-04  -9.9415032e-05  -1.4533587e-04  -1.4419996e-04  -1.6744898e-04  -1.3620708e-04  -2.5443599e-04  -3.0230472e-04  -1.7378094e-04  -2.4155792e-04  -2.7074493e-04  -1.7699441e-04   2.5517005e-05  -2.5178527e-04   5.9898084e-05  -6.2805346e-05  -3.8904611e-05  -4.6379796e-06  -1.7556052e-04   6.7401910e-05   6.8323439e-05  -1.2161826e-04  -2.1754850e-05   1.5478466e-04  -4.0279640e-04  -1.1970106e-04  -1.7102392e-04  -2.7953193e-04  -1.6653113e-04  -2.3697250e-04  -5.6762772e-04  -2.1092146e-05   1.4829839e-03  -1.7673933e-04  -2.1296290e-04  -6.5472268e-04  -4.6143742e-04  -2.8461419e-04  -7.4638762e-03   4.1001615e-05   4.1574358e-06  -1.6376930e-06   7.2534243e-03   6.0661985e-03  -4.6529667e-03   8.9406545e-05  -1.1838788e-04  -3.7959588e-05   1.2491315e-04
  -2.3241670e-04  -1.1823324e-04  -1.0233235e-04  -1.4246315e-04  -1.3704749e-04  -1.3963421e-04  -2.3999497e-04  -2.2109924e-04  -1.9213278e-04   1.9068675e-05  -1.2795234e-04  -1.3564526e-04  -1.1210852e-04   2.1929863e-04  -7.8272610e-04   1.2805403e-04  -1.9833926e-05  -1.1448504e-04  -4.4632537e-04  -1.5505870e-04   7.2466544e-05   1.1649412e-04  -9.5678923e-05  -5.0115646e-05   1.0245541e-04  -4.0027717e-04   2.9004031e-04   2.9719266e-04  -6.6059038e-05  -1.8140566e-04  -1.2569458e-04  -4.9466430e-04   8.3072255e-06   1.6506517e-03  -1.2675246e-04  -9.1040798e-05  -1.0203130e-03  -4.3362935e-04  -5.8443379e-04  -5.5854027e-03  -3.3851434e-04  -4.5610541e-06   4.0795130e-05   2.2029190e-03   1.3807009e-03   2.5565715e-03  -4.0769414e-06  -6.8567097e-05   1.3757973e-04   8.3729363e-05
  -2.4088947e-04  -1.2075876e-04  -9.6633252e-05  -1.6432877e-04  -1.3354958e-04  -1.0776792e-04  -9.3912255e-05  -2.7776099e-04  -3.1920266e-04  -8.3540348e-05  -1.7769137e-04  -1.8931048e-04  -1.2988852e-04   3.1480216e-04  -6.4116198e-04  -1.2698458e-04  -2.3904073e-05  -2.2195315e-04  -3.6040519e-04  -1.6746855e-04   7.6960132e-05   9.0005720e-05  -4.8961665e-05  -4.2139560e-05   1.5963071e-04  -4.5708494e-04   1.2957751e-04  -4.0250077e-05  -1.0406435e-03  -2.3249148e-04  -1.8280838e-04  -4.0393035e-04  -2.0920679e-05   1.3361424e-03  -3.7691911e-04  -7.0008851e-04  -6.8882116e-05  -6.2160991e-04  -5.5078755e-04   2.4375007e-03  -3.7619942e-05  -1.2334311e-05  -1.6068260e-04   1.5499918e-03  -4.0527107e-03  -3.8772486e-03  -4.9070450e-06  -4.0052000e-05   1.6620467e-04  -2.1529925e-04
  -2.4537632e-04  -1.1727028e-04  -9.4605253e-05  -1.6753080e-04  -1.2967270e-04  -2.1134755e-04  -2.3140847e-04  -4.2114567e-05  -3.3708353e-04  -1.8949277e-04  -2.0661236e-04  -2.0494054e-04  -5.6784011e-05   7.9048201e-05  -5.9252314e-04   4.1113567e-04  -1.2485014e-05   5.2462251e-06  -1.8495497e-04  -1.3866447e-04   7.9370257e-05   5.0796287e-05  -1.5078417e-04  -6.8647161e-05   5.3600720e-06  -4.4815571e-04  -2.9203808e-04  -2.0072064e-05  -5.5257534e-04  -2.5444361e-04  -4.6615870e-04  -3.5571490e-04   9.9121375e-05   1.8403927e-03  -2.9979748e-04   1.4293859e-04  -1.0963792e-03  -7.5532490e-04  -4.0014833e-04  -7.5846394e-03  -2.0090054e-04   8.0018972e-06  -2.4385383e-05   1.4864060e-04   3.6166271e-03  -3.6217480e-03  -8.1734534e-06   7.3729527e-05   7.2642746e-05   6.6225715e-05
  -2.4320425e-04  -8.5580068e-05  -7.2532028e-05  -1.6885881e-04  -1.2499328e-04  -1.6756495e-04  -1.7875171e-04   2.9598564e-07  -2.9584701e-04  -1.8777621e-04  -1.6147575e-04  -1.0083064e-04   5.2956337e-05   9.6523829e-05  -2.6465446e-04  -1.9196504e-04   1.0097950e-05  -6.5406661e-05  -3.1039194e-04  -1.2983281e-04   1.0074435e-04   9.5789183e-05  -3.1879179e-05  -7.1609778e-05   9.8951379e-05  -4.0572757e-04   7.3127361e-05   2.1799149e-05  -1.1116613e-04  -2.0682313e-04  -3.5801774e-04   1.7460340e-04   8.6509557e-05   1.4975304e-03  -7.0266600e-05  -1.0030412e-03  -5.0489604e-04  -8.0278539e-04  -6.0531392e-04   1.4025462e-02  -1.8841989e-05   2.3177051e-06   2.1946198e-05   6.9048200e-03   4.5946972e-03  -5.4998961e-03   4.4059725e-05  -5.4583943e-05  -2.1775464e-05  -1.6261222e-04
  -2.2170116e-04  -7.2895920e-05  -7.3007366e-05  -1.1258414e-04  -1.2613482e-04  -1.5283123e-04  -8.3190600e-05  -1.6651336e-04  -4.4465013e-04  -3.5494036e-04  -2.5164770e-04  -2.0485789e-04  -4.7113372e-05   1.7458604e-04  -1.2699900e-04   1.2066555e-04  -1.0434966e-05  -1.5476659e-04  -3.8426960e-04  -1.2176273e-04   9.4926450e-05   3.0193220e-05  -5.7633020e-05  -4.0095925e-05  -1.2988098e-04  -1.9432642e-04  -1.7255383e-04   9.6137392e-06  -1.4222035e-04  -1.2110441e-04   2.0996877e-05  -4.6614569e-04   2.0609898e-05   1.4690390e-03  -5.2765648e-05   7.4905576e-05  -6.5271283e-04  -4.9900968e-04  -5.4577447e-04  -4.7439076e-03  -5.9840080e-05  -4.8413989e-05  -5.5204160e-05   7.1541821e-03  -5.2888999e-03   7.2261493e-04   2.0672701e-06  -8.3677114e-05  -1.6480064e-04  -1.3800694e-04
  -2.0227715e-04  -8.1309583e-05  -5.5992947e-05  -1.1432319e-04  -1.0464932e-04  -1.0095506e-04  -2.6180368e-04  -6.8943555e-05  -2.4785826e-04  -1.4811927e-04  -1.7993423e-04  -1.0302265e-04   5.1379917e-05   8.6312466e-05   2.6969808e-05  -8.4932610e-05  -8.4443209e-06  -1.8159856e-04  -1.5599617e-04  -1.0261264e-04   1.0541171e-04   1.7313285e-05  -8.2412247e-05  -5.3721742e-05   5.6826688e-05  -1.6421855e-04   2.6581061e-04   2.4344941e-05  -1.0198738e-03  -1.1980788e-04   7.8319405e-05  -3.8053502e-05   5.3132550e-05   1.2239707e-03   8.2063460e-05  -1.9665598e-04  -2.1978872e-04  -4.3618187e-04  -3.4222443e-04   6.1988458e-03  -1.0719535e-04  -4.3997414e-05  -2.4188355e-04   4.2253984e-03   4.8954757e-03   1.0188086e-03  -3.2644428e-05  -7.3453506e-05   4.9849161e-05  -1.0584664e-04
  -2.3278296e-04  -8.1328006e-05  -8.4167710e-05  -1.3519471e-04  -1.2842701e-04  -1.6309154e-04  -2.1047420e-04   2.4326268e-06  -2.8509117e-04  -2.0067951e-04  -1.9553305e-04  -1.6241606e-04  -5.7667006e-05   1.5450148e-04  -1.1818653e-04   1.4568002e-04   5.0055091e-06  -8.2776292e-05  -8.5084554e-05  -1.0554154e-04   7.0457354e-05   3.8226844e-05  -4.6595451e-06  -6.4408363e-05   1.6714288e-05  -2.3507356e-04   7.5765944e-05   8.7430388e-05   2.3551063e-04  -1.7212253e-04  -2.7698671e-04  -1.8937906e-05  -1.0456993e-04   1.5010058e-03  -2.0995722e-04  -2.3051168e-04  -7.9560501e-04  -4.9127586e-04  -2.6847448e-04   1.3327162e-02  -2.4491485e-04  -3.1621898e-05  -6.2207400e-05  -1.0877894e-02  -8.1274677e-03   6.7333705e-03   6.2964784e-05  -7.6898461e-05  -5.5845361e-05   1.5137099e-04
  -2.3642057e-04  -9.5847070e-05  -8.9408357e-05  -1.3792604e-04  -1.1631300e-04  -1.4610177e-04  -2.3589455e-04  -1.5980123e-04  -3.7788201e-04  -3.1628387e-04  -2.5726622e-04  -2.2097392e-04   5.7845005e-05   8.8922090e-05   1.2165090e-06  -7.5031763e-05  -2.7046835e-05  -1.6631313e-04  -3.1695788e-04  -1.2531398e-04   6.1377606e-05   4.0007933e-05  -1.6192900e-05  -3.7955844e-05   1.5583223e-04  -2.6351458e-04  -1.4124860e-04  -1.3322101e-04  -4.2778533e-04  -1.2620505e-04   9.3596660e-05  -1.5957188e-04  -7.6350516e-05   1.5665938e-03  -1.3334012e-04  -4.4600581e-04   2.3090238e-04  -4.6772877e-04   1.2449929e-04  -3.9582471e-03  -1.3301551e-04   6.9989378e-06  -1.7772682e-04  -3.6753721e-03  -7.3507386e-03   1.9367071e-03   1.3587759e-04  -6.0871196e-05  -7.0303577e-05   1.9232789e-04
  -2.3250750e-04  -8.5576547e-05  -9.1703521e-05  -1.2783305e-04  -1.1232145e-04  -1.1723721e-04  -1.5836477e-04   3.1873937e-05  -3.9388155e-04  -1.5357147e-04  -1.9178014e-04  -1.3247173e-04  -3.9188311e-05   6.0484381e-05  -1.2581030e-04   1.2120422e-04  -2.5164843e-05  -4.7988062e-05  -1.6356478e-04  -1.1444456e-04   5.8097834e-05   9.1894064e-05  -5.5601780e-05  -2.9402281e-05   1.4551566e-04  -1.6281950e-04  -4.8704031e-05  -2.2548926e-04  -2.6912332e-04  -1.1855603e-04   2.0368958e-05  -7.0018235e-05   8.8396600e-06   1.8657086e-03  -4.9665749e-05  -4.8962253e-04  -4.1608288e-04  -4.1021826e-04  -2.8875476e-04   1.2432468e-03  -5.3073297e-04  -3.0755164e-05   1.2348563e-04  -4.9737524e-03   5.4032537e-03  -7.5915512e-03   6.7231449e-05  -4.7338606e-05  -7.2235553e-06  -1.1697105e-04
  -2.2734964e-04  -8.1310907e-05  -8.0983817e-05  -1.2249022e-04  -1.1041683e-04  -1.4007633e-04  -1.7343552e-04   7.8430594e-06  -3.0845054e-04  -2.4920001e-04  -2.2706180e-04  -2.0851292e-04  -2.4859299e-05   3.6058424e-05  -7.9296558e-05  -1.5261420e-04  -1.6469376e-05  -8.7855180e-05  -6.1404076e-05  -7.6570373e-05   5.2282059e-05   4.1642066e-05  -8.6258042e-05  -4.0725345e-06   6.1025752e-05  -2.2501614e-05   1.6874839e-04  -2.8509239e-04   1.3634973e-04  -4.2382871e-05  -5.2075848e-05  -2.5507490e-04   7.3553660e-05   9.3057216e-04   4.1012914e-05  -2.0240065e-04  -4.7455309e-04  -2.3858537e-04  -1.9720896e-05   5.5124033e-03  -3.7141680e-04  -7.4760217e-05  -7.5530887e-05   3.5028844e-04   8.4944414e-03   5.4498245e-03  -2.0274554e-05  -6.1251332e-05  -8.5717824e-05  -2.7044548e-04
  -2.3093291e-04  -9.2464084e-05  -7.7249460e-05  -1.0522911e-04  -1.0127426e-04  -1.4873972e-04  -6.5089189e-05  -8.2139777e-05  -1.7606145e-04  -2.4048734e-04  -2.3865447e-04  -2.6963255e-04  -3.6084151e-05   1.2182664e-04   2.4485157e-04   9.5251278e-05  -3.9089711e-05  -3.2743770e-05   1.4562523e-05  -8.9145266e-05   6.7508976e-05   7.6989090e-06  -1.5145977e-04  -8.8416518e-06  -8.9042533e-06   2.9237880e-04  -4.3796090e-04  -1.5427539e-04  -2.4674612e-04  -2.4933879e-06  -1.2452596e-04   5.0377435e-05   1.4684400e-04   1.5740473e-03   3.9283029e-04  -2.6920653e-04  -8.0856713e-05  -1.1702407e-04  -6.8690849e-04  -3.5863377e-03  -3.4692578e-04  -1.0458623e-04  -2.5269412e-04   1.7994076e-03  -4.6253232e-03  -1.9663954e-03   1.0564780e-05   1.0898084e-05  -2.3768209e-06  -2.3285979e-04
  -2.5367070e-04  -1.0443940e-04  -9.1618989e-05  -1.0112084e-04  -1.2398565e-04  -1.0284904e-04  -1.7743871e-04  -2.2974615e-05  -3.7758876e-04  -1.6257989e-04  -2.1615358e-04  -2.8834949e-04   1.9576766e-05  -3.5681245e-05  -3.4086494e-05  -1.9607830e-04  -2.6657903e-05  -9.4908492e-06  -1.4942289e-04  -5.9962415e-05   5.3115513e-05   1.8243634e-05  -1.4368228e-04  -2.8507524e-05   5.2564556e-05   3.7312828e-04  -1.6106034e-04   4.6940935e-05  -6.9536321e-04   6.0144307e-06  -1.7171734e-04   1.6561763e-04  -1.3048979e-05   1.2525119e-03   2.2355608e-04  -2.3397469e-04  -1.4810312e-04  -1.5393550e-04  -1.9754044e-04   4.3148710e-03  -2.0104610e-04  -1.7102421e-04  -2.9413652e-04   1.4060150e-02   3.3282400e-03  -3.7969265e-04  -8.3646424e-05  -1.6241522e-04  -4.2763178e-05  -2.3212361e-04
  -2.5714579e-04  -1.0924930e-04  -9.8415854e-05  -1.2118422e-04  -1.1751876e-04  -1.4029461e-04  -1.6426908e-04  -6.3744461e-05  -1.2699957e-04  -2.3834805e-04  -2.7105809e-04  -2.8736453e-04  -1.3719930e-04  -1.1127777e-04  -8.8551787e-05   1.4709659e-04  -1.1434166e-05   1.9095289e-05   2.7632969e-04  -1.0026150e-04   1.4391238e-05   2.9957544e-05  -6.1815575e-05  -7.1503957e-05  -1.7164117e-05   9.6090938e-05  -3.2397520e-04   1.8109960e-04  -3.3228268e-04  -7.7851844e-05  -3.0526033e-05  -4.7351181e-04  -1.0749952e-04   1.2813384e-03   1.0120781e-04  -7.5415440e-04  -3.8845636e-04  -2.3731511e-04  -7.4359203e-05   5.0330516e-03  -2.8137781e-04  -9.7433171e-05  -2.2165757e-04   1.5705353e-02   2.8098705e-03  -5.6279876e-04   4.9638238e-05  -1.5693618e-04  -2.4608840e-05  -1.5186553e-04
  -2.3139788e-04  -8.7939770e-05  -7.8077275e-05  -1.1787785e-04  -9.0105430e-05  -1.2292586e-04  -2.0422232e-04  -2.9010349e-04  -5.6822709e-04  -3.4203657e-04  -2.9790666e-04  -3.0826856e-04  -2.3032224e-05  -6.0453523e-05   2.9550536e-04  -5.9205497e-05  -3.4824261e-05  -2.0364432e-04   5.2316456e-05  -1.1983509e-04   1.2639054e-05   4.5652148e-05  -1.1713747e-04  -1.1200960e-04  -2.2793894e-04  -6.8930317e-06   1.6123935e-05  -6.7241228e-05   2.7313665e-04  -7.2648465e-05  -2.7494377e-04  -5.0953939e-04  -1.3247985e-04   1.2324598e-03   7.4513919e-05   1.3430517e-04  -4.6611012e-06  -2.7054010e-04  -1.1784570e-04  -7.4861548e-03  -3.1425268e-04  -7.3102863e-05  -3.9258877e-05  -4.6979459e-03  -1.8290223e-03  -7.0796843e-04  -8.7223052e-06   2.4177496e-05   1.4612827e-05  -1.2672484e-04
  -2.1056745e-04  -7.3221752e-05  -7.2081086e-05  -1.1618972e-04  -8.7365421e-05  -9.7117481e-05  -2.3616714e-04   2.5110060e-04  -3.2442578e-04  -1.0107546e-04  -1.8053463e-04  -1.2287415e-04  -2.6201446e-05   1.3079394e-04  -1.4800695e-04  -1.3572745e-04  -2.6865750e-05  -3.0941617e-05  -2.6382211e-05  -1.0091413e-04   1.8312847e-05   9.8982578e-05  -1.5285324e-04  -7.2685085e-05  -3.5575958e-05  -7.1222297e-05   8.9541645e-05  -3.2413466e-04   1.6589594e-04  -1.1482505e-04  -3.7449019e-04  -4.3913515e-04   1.9309082e-05   1.4815461e-03  -1.5933561e-05  -4.6779841e-04  -3.6279109e-04  -3.4510213e-04  -1.0583764e-04  -7.3175696e-03  -3.3118387e-04  -6.8596375e-05  -5.6424522e-04   1.4348147e-02   1.0683367e-03   1.1207715e-03   4.3215528e-05  -8.6082537e-06  -1.7899722e-04  -1.1481690e-04
  -1.9463098e-04  -6.8739857e-05  -7.5167743e-05  -1.2404357e-04  -9.0401758e-05  -5.1409948e-05  -1.0606100e-04   1.4477924e-05  -3.1582842e-04  -1.6938968e-04  -2.0854990e-04  -1.6506927e-04   1.3307442e-05   1.8148904e-04  -1.1201587e-04   3.2003177e-04  -2.9962061e-05  -8.4975989e-05  -2.3989739e-04  -8.2284729e-05   1.6025014e-04   7.6825891e-05  -7.9558733e-05  -7.2648698e-05   1.6732977e-04  -1.2670409e-04   1.4784426e-04  -2.9668206e-05   1.0582290e-04  -1.1448198e-04  -4.7116599e-04  -3.2249317e-04   1.7996592e-04   1.7743829e-03  -1.7707123e-05  -1.1241062e-04  -7.5961236e-04  -3.3939860e-04  -2.2625572e-04  -1.5949905e-03   5.7244583e-06  -5.7637608e-05  -6.8059278e-05  -4.8746942e-03   1.9753871e-03   2.5220953e-03  -1.1887747e-04  -3.2526383e-04  -2.8105671e-05  -2.6911465e-04
  -2.1016115e-04  -6.6364220e-05  -8.3907806e-05  -1.0393402e-04  -9.5041280e-05  -9.7976590e-05  -2.0735775e-04  -1.4319227e-04  -3.0108137e-04  -3.2281209e-04  -2.7560254e-04  -2.8971778e-04   1.0423508e-05   2.8607503e-05   3.7014720e-04  -4.4210530e-05  -2.4059758e-05   1.2406067e-04  -1.7718364e-04  -3.6622663e-05   1.9324788e-04   9.0582753e-06  -1.1446686e-04  -5.1268362e-05  -7.7320496e-05   4.5379286e-04  -3.5526214e-06  -5.6015018e-05  -7.6698394e-05   4.9307379e-05   3.2037489e-05  -4.9861305e-04   2.0300018e-04   1.4830788e-03   4.4489396e-04  -8.4109273e-04  -6.2371233e-05  -1.7199569e-05  -2.5090235e-04  -1.0380206e-03  -3.0637110e-04  -8.9973342e-05  -3.3794736e-04   9.0718055e-03  -5.7465176e-04   1.6588549e-03  -4.2543638e-06  -1.6287631e-04  -8.4649335e-05  -1.4965697e-04
  -2.1914762e-04  -7.4782947e-05  -9.5302181e-05  -9.4622781e-05  -1.1691057e-04  -1.0755566e-04  -6.3681728e-05  -1.9888248e-06  -1.5317881e-04  -6.2146508e-05  -1.6679183e-04  -1.4021837e-04  -3.1107087e-05  -1.7370930e-05   1.6402111e-05   1.7611518e-04  -1.3920182e-05  -3.2286451e-05   1.7491187e-04  -4.5634126e-05   8.3803330e-05   6.0470560e-05  -1.1474238e-04  -4.1016523e-05  -2.6837800e-04   3.0695216e-04   2.3613796e-04  -1.2436548e-04  -1.0698861e-03  -3.9187908e-05  -3.1665261e-04  -3.9847492e-04  -3.1189695e-05   1.5842606e-03   6.3395848e-05  -5.2959402e-04  -8.9500420e-04  -1.6543851e-04  -2.4430655e-04   2.9487216e-03  -1.5083438e-04  -7.9960075e-05  -1.6466391e-04   5.1484769e-03  -8.8116003e-04  -1.0486396e-03   3.2503336e-05  -2.2838755e-04  -1.0388240e-04  -2.7699047e-04
  -2.1934952e-04  -8.0168873e-05  -1.0718859e-04  -1.2753652e-04  -1.1261535e-04  -9.8149067e-05  -1.6460450e-04  -3.4070265e-05  -2.4099609e-04  -1.4096973e-04  -1.8776147e-04  -1.5558074e-04  -4.2292661e-05   4.8731763e-05  -5.4695520e-05  -1.3909333e-04  -3.5101857e-05  -2.2802550e-04  -3.8556257e-04  -9.0051115e-05   2.8747596e-05   3.9858813e-05  -8.0097285e-05  -8.9661473e-05   1.0831201e-05  -5.4126482e-05   1.3630285e-05  -3.2073185e-05   4.7635840e-04  -8.5877153e-05   1.0128851e-04  -3.3870284e-04   7.6747143e-05   1.2206195e-03   3.2268326e-05   2.9509293e-04  -3.3039547e-04  -2.1132448e-04   2.5578649e-04   1.7887730e-03  -2.8701633e-04  -9.3500756e-05  -2.1998851e-04   1.9960057e-03  -1.3233376e-03  -3.4460595e-03  -8.5732863e-05  -1.9911070e-04  -2.9245525e-04  -9.9962308e-05
  -1.9739455e-04  -6.6673929e-05  -9.5351374e-05  -1.2236128e-04  -8.7480781e-05  -4.7887952e-05  -1.6258632e-04   1.7834541e-04  -2.9849910e-04  -2.4075320e-04  -2.5172072e-04  -1.9013825e-04  -1.8994217e-05  -2.8375825e-05   1.0663929e-04   1.9770826e-04  -6.2667546e-05  -2.2646412e-04   2.5149421e-07  -4.8705926e-05   2.7061527e-05   5.8144735e-05   2.6991482e-05  -4.6283185e-05  -3.4311102e-05   3.9844840e-06   3.2773957e-04  -3.6809655e-05   2.1156641e-04  -4.3426015e-05  -1.3088423e-05  -4.0700115e-04  -4.0224848e-05   1.2984213e-03   2.0672720e-05  -1.9103248e-04  -6.2814326e-04  -1.1177851e-04   7.6150871e-04   3.4728099e-04  -3.6852807e-04  -1.2907398e-05  -1.5336343e-04  -1.2309855e-04   1.2378130e-02  -1.0045638e-03   7.5505508e-05  -6.8528105e-05  -2.1189725e-04  -3.0836098e-05
  -1.5927586e-04  -5.7835372e-05  -7.3103925e-05  -1.1993716e-04  -6.8506692e-05  -7.9744597e-05  -9.2452377e-05  -7.4436954e-05  -3.8881839e-04   3.5907477e-05  -1.2675929e-04  -3.9945544e-06   8.6716005e-05   1.0941270e-04   2.4589599e-04  -2.1595022e-05  -4.9524435e-05   4.8441103e-05   6.6571505e-05  -9.0218753e-05   2.8010598e-05   1.1568306e-04  -5.6890694e-05  -3.4887242e-05  -8.0321908e-05  -2.8986555e-05  -1.1209100e-04  -9.4000561e-06  -9.3785452e-04  -5.4520107e-05  -8.2046892e-05  -3.9505979e-04   9.5401454e-05   1.0577105e-03   9.1132686e-05   2.3160761e-04  -1.5690055e-04  -6.1090162e-05  -2.6108246e-04   3.2314619e-03  -4.5394427e-05  -5.8535159e-05  -1.2870866e-04  -6.1448961e-03  -5.6095603e-03  -4.2403899e-03  -1.0299278e-05  -2.2653333e-04  -2.9570257e-04  -4.6482232e-06
  -1.5223154e-04  -5.3103111e-05  -6.6665823e-05  -1.2626406e-04  -6.2947569e-05  -7.0267408e-05  -1.8182656e-04   3.7442853e-05  -3.4439293e-04  -2.2675751e-05  -1.3780895e-04  -4.0036197e-05  -6.4870939e-05  -1.8198429e-05   6.9775953e-05  -1.3666753e-04  -4.1744275e-05  -8.0117214e-05  -8.8840243e-06  -7.0149195e-05   2.8164985e-05   1.4443173e-04  -2.4836332e-05  -2.0918431e-05   1.4838783e-04  -1.3986167e-04  -1.0185842e-04   8.4336294e-05  -8.4752165e-04  -6.0931925e-05  -1.9146831e-04  -2.6230220e-04   1.4164604e-04   1.3255371e-03   2.9021572e-05   1.7426572e-05  -4.3184162e-04  -4.1935866e-05  -2.8368842e-05  -4.9541094e-03  -2.5575838e-04  -1.2001487e-05   8.1722370e-05  -8.3780317e-03   6.6663981e-03   6.6595216e-04   3.2160344e-05  -2.0109530e-04  -1.6009087e-04  -1.4441359e-05
  -1.4070196e-04  -4.7999420e-05  -5.9853021e-05  -1.3085321e-04  -5.3386830e-05  -3.0453783e-05  -9.6224860e-05  -1.6005283e-04  -1.7571180e-04  -4.5328987e-05  -1.2737645e-04  -3.3433716e-05  -2.9068298e-05   5.8099340e-05  -3.8451064e-04   1.6238584e-04  -9.0220583e-06  -3.2143620e-05  -2.1763741e-04  -9.4348274e-05   4.1468928e-05   1.3338937e-04   7.2824150e-05  -1.0563015e-05   7.3217292e-05  -1.9102955e-04  -2.0129383e-04  -1.9448111e-04  -5.2030908e-04  -7.6387005e-05   1.1334841e-05  -4.2394525e-04   1.7227291e-04   1.4755049e-03  -4.7529255e-05  -1.4341586e-04  -1.8885912e-04  -2.8195645e-05   5.0513924e-04   9.6037047e-04  -2.4325369e-04  -1.6848498e-05  -9.9974401e-05  -1.4803297e-02  -1.4774073e-04  -1.9097676e-03   2.5155210e-05  -1.4583000e-04  -4.1930171e-04  -9.7413278e-05
  -1.2885504e-04  -3.4213957e-05  -6.2130035e-05  -1.3008551e-04  -5.7437410e-05  -4.6967190e-05  -2.0913502e-04  -1.9570449e-04  -2.2434257e-04   3.8993883e-05  -5.5963814e-05   3.1989042e-05   9.1761984e-05   1.8257818e-04  -9.4885989e-05   4.6557947e-05  -2.4868134e-05  -1.8290889e-04   9.7435848e-05  -1.0259781e-04   4.1555464e-05   1.5144625e-04   2.7930453e-05  -1.1343575e-05   2.8520395e-04  -2.1504414e-04   3.5135337e-05  -2.0803504e-04  -3.6003164e-04  -7.5988617e-05   5.3119722e-05  -4.1523407e-04  -8.9215740e-05   1.1278209e-03   1.2334266e-04  -8.6186941e-05  -1.6003485e-04  -6.9867376e-05   1.2368675e-04   4.3665417e-03  -2.9708381e-04  -4.1698400e-05  -1.0792695e-04  -5.1844027e-04  -1.0648784e-03   2.1347760e-03   2.4179357e-05  -4.8022507e-06  -8.3023617e-05  -8.0998951e-05
  -1.1437750e-04  -2.8582806e-05  -5.8448117e-05  -1.2981523e-04  -5.5271033e-05  -3.6740475e-05  -8.5171152e-05   2.0924125e-04  -2.5709489e-04  -6.1025061e-05  -1.0745015e-04  -2.7614198e-05   5.0425046e-05   7.7154371e-05  -1.3535755e-04  -6.0935021e-05  -1.5186434e-05  -1.4266762e-04  -3.4042742e-04  -7.9600650e-05   3.4483659e-05   1.7462380e-04  -2.9950546e-05   6.7712726e-06  -2.9234818e-05  -2.4913033e-04   3.8375304e-04  -2.3255136e-04   4.2576328e-04  -1.1069428e-04  -4.0664825e-05  -2.6704420e-04  -8.2250763e-06   1.2199139e-03   1.0641627e-04  -1.8230219e-05  -9.3989901e-04  -1.3236821e-04  -1.1073784e-04  -3.4885651e-03  -1.1132467e-04  -3.9373543e-05  -3.6577749e-04  -1.3713460e-02   1.1336682e-02  -1.1354135e-03  -1.6008706e-05  -2.1219728e-04  -2.3312095e-04  -3.5152255e-04
  -1.1102452e-04  -2.3143311e-05  -4.6461948e-05  -1.2859485e-04  -3.6941099e-05  -2.3301678e-05  -1.3184076e-04   6.7887806e-05  -2.3900218e-04  -2.0915078e-05  -9.2160706e-05   1.4866562e-05   1.4211942e-04   1.7739662e-04  -3.7934919e-04  -1.0255727e-04  -1.2588624e-05  -1.0689203e-04  -1.5980982e-04  -6.1141021e-05   4.3335374e-05   1.4930125e-04   3.4978282e-05  -1.5411038e-05   1.9040014e-04  -3.5498367e-04   1.7818526e-04  -7.2916882e-05  -7.9903129e-04  -8.3994943e-05  -1.0061832e-04  -4.0271325e-04   9.0482325e-05   8.5029617e-04   1.7427679e-04  -8.9229179e-05  -3.0390033e-04  -5.7737972e-05  -6.9853669e-04   3.8871770e-03  -1.9415868e-04   1.1372762e-05  -1.5987214e-04  -1.3372069e-02   7.2518811e-03   2.2842784e-03   1.0159017e-04  -2.5531699e-04  -2.0792647e-04  -1.7775346e-04
  -1.0931474e-04  -1.6503518e-05  -4.9915059e-05  -1.1697525e-04  -5.5085016e-05   3.4643992e-05  -1.0071955e-04  -4.0512514e-05  -2.5686904e-04   1.7929482e-05  -4.1939431e-05   4.1981224e-05   3.2236294e-05   1.0472646e-04  -3.7111912e-04  -2.8614701e-05   3.4387722e-06  -8.1906699e-05  -4.1597165e-04  -6.4897860e-05   3.9435479e-05   2.0602404e-04   3.8173181e-05   2.5072063e-06  -1.2921516e-04  -3.2653555e-04   1.4047505e-04  -8.2887505e-05   8.7882450e-05  -8.4072955e-05  -6.7956644e-05   4.0095210e-06   9.0018875e-06   1.2366228e-03   4.9413367e-05  -6.9110589e-05  -8.3861058e-04  -1.0369960e-04  -4.9918308e-04  -7.1327767e-04  -5.2166468e-04   1.0042894e-05  -1.6771266e-04   7.8276424e-03   1.2021663e-03  -2.7296750e-03  -4.0593295e-05  -1.9986897e-04  -2.6257310e-04  -2.2742560e-04
  -9.5968666e-05  -1.4105013e-05  -4.5667326e-05  -1.2896500e-04  -5.2714389e-05   8.7668850e-06  -3.7274218e-05  -9.7928802e-05  -2.5398273e-04  -8.0283520e-05  -8.4205843e-05  -3.5677418e-05   4.5581619e-05   2.8750399e-04   5.6324076e-05   1.2244610e-04  -4.3036157e-06  -1.9580020e-04  -2.3663102e-04  -5.3990105e-05   2.8229908e-05   1.9120234e-04  -8.1863342e-05  -1.4300055e-05   3.6339398e-04  -2.6003801e-04   2.4402242e-04   1.4210083e-04  -4.4532836e-04  -7.6091885e-05  -1.4808764e-04  -4.0551208e-04   4.2281608e-04   1.1151779e-03   2.9103940e-05  -6.6422700e-04  -6.4383890e-04   1.7863393e-05  -4.4983395e-04  -4.4074231e-03   8.3486935e-05  -8.4332249e-05  -2.8819096e-04  -5.0311591e-03   9.3289622e-04  -2.7598459e-03  -3.3902837e-05  -2.4612088e-04  -3.1000352e-04  -3.1628078e-05
  -8.6895219e-05  -1.3646909e-05  -3.3329117e-05  -1.2471240e-04  -3.4003551e-05  -2.2983804e-05  -3.5635330e-05  -1.1946607e-04  -1.9575334e-04  -2.1807131e-04  -1.5794004e-04  -1.5660081e-04   1.2306102e-04   8.2596569e-05   4.3616892e-05   1.8733539e-04   2.9860352e-08  -7.5790762e-05  -1.7912379e-04  -2.5119385e-05   3.8506609e-05   1.2481352e-04  -2.9611754e-05  -1.4260379e-05   2.5558332e-04  -4.4322455e-06   3.7110172e-04   2.9120568e-04  -3.2136979e-04  -1.6571716e-05  -1.0258567e-04  -2.4035471e-04   1.5711653e-04   1.3626028e-03   1.5158333e-04   3.7222903e-04  -5.3441385e-04   1.1252831e-05  -2.3423551e-04   1.8479841e-02  -3.0226316e-04  -3.4372952e-05  -1.3016423e-04  -8.4128594e-03   4.5437068e-03  -3.1246035e-03   1.1674132e-06  -2.1715491e-04  -3.8496379e-04  -2.5155628e-04
  -9.7520548e-05  -2.8243176e-05  -4.0506988e-05  -1.0508201e-04  -5.7280624e-05   5.2676046e-06  -5.7701902e-05   1.4266450e-04  -8.5391519e-05   9.1116226e-06  -5.0927698e-05  -7.3601565e-05   5.0066956e-05   1.0330368e-04  -1.0342355e-06  -4.6098030e-05   1.0864032e-05   2.5912985e-05   1.2562780e-04  -1.6912491e-05   5.0195114e-05   1.0628134e-04  -4.9026759e-05   1.5881946e-05  -4.6518679e-05   2.0615025e-04  -6.1624138e-05   6.1647006e-05  -1.3905019e-04   2.5031079e-05  -3.3723292e-05  -4.6784000e-04  -1.7604468e-04   1.3825838e-03   2.5331049e-04  -2.4254608e-04  -9.7313843e-04   7.9202655e-05  -3.0045921e-04   1.8688096e-03  -1.7820047e-04  -4.7626872e-05  -2.3442127e-04   4.4938028e-04   8.5522821e-03   1.3100985e-03  -1.1896415e-04  -1.6207622e-04  -3.0940570e-04  -4.4174786e-04
  -8.8860041e-05  -3.4518322e-05  -3.7841979e-05  -1.0717583e-04  -6.1777013e-05   2.3584835e-06  -1.0366137e-04  -6.4793370e-05  -2.4112138e-04  -1.0172991e-04  -1.2293976e-04  -2.0127992e-04   1.9992367e-04   1.0929061e-04   2.8540014e-04  -1.8011585e-04  -2.0455567e-05   8.1566586e-06  -1.7434986e-04  -2.2689430e-05   4.8489670e-05   1.1401573e-04  -8.4962165e-05   1.0677105e-05   3.5691541e-04   3.9385777e-04  -8.7550259e-05  -1.4121868e-04   3.0278318e-04   5.3632444e-05  -1.6873126e-04  -1.2705938e-04   2.8577549e-04   1.6891232e-03   2.5333028e-04  -9.1081047e-06  -2.6078869e-04   3.3631328e-05  -3.6517915e-04   6.6121914e-03  -3.5838876e-04  -1.8888428e-04  -1.3777662e-04  -1.0001520e-02   2.4945613e-03  -5.8079790e-03  -8.3856794e-05  -3.4482661e-04  -1.4484292e-04  -3.2587032e-04
  -9.0854846e-05  -4.3214346e-05  -3.2126682e-05  -1.1385840e-04  -5.6235920e-05  -6.2069957e-05  -2.9400795e-05  -7.8344805e-05  -3.1850528e-04  -1.8729363e-04  -1.8351342e-04  -2.6892268e-04   1.1627396e-04   1.5523045e-04   2.1037266e-04  -8.9220295e-05  -2.2682412e-05  -1.6370677e-05  -2.0860131e-04  -3.5582099e-05   2.1920338e-05   1.6919262e-04  -7.9156453e-05  -6.1567160e-05  -8.0492748e-05   1.2878509e-04  -1.3935761e-04   7.8212324e-05  -4.1169077e-04  -2.0113621e-05  -1.8477468e-04  -1.1227788e-04  -4.8499562e-05   1.0648337e-03   2.7917503e-04  -5.5109664e-05  -6.4153911e-04   6.8151669e-05  -5.2061171e-04   9.5278013e-04  -2.8805650e-04  -1.6151085e-04  -3.1204909e-04  -8.4051350e-03   3.8468656e-03   4.1166027e-03  -9.8311939e-05  -2.9378329e-04  -3.3975666e-04  -2.0709683e-04
  -6.7546927e-05  -4.2536085e-05  -2.2103603e-05  -1.1810740e-04  -3.3442993e-05  -1.2711187e-05  -2.3275903e-04  -1.7085031e-05  -2.1480728e-04   1.9272653e-05  -9.2174385e-05  -8.1392609e-05   1.2797313e-05  -5.0479743e-05   1.9962112e-04   2.3879853e-05  -1.9515208e-05  -1.1907319e-04  -2.1210559e-04  -4.1950367e-05   1.9328618e-05   1.9845575e-04  -1.0486198e-04  -2.1944255e-05   1.0782053e-05  -3.2390300e-05   2.2503491e-04  -2.4721213e-04  -4.8243778e-04  -5.5130138e-05  -2.9669140e-05  -3.2426007e-04   1.5985710e-04   1.2161677e-03   7.5228025e-05  -1.5378678e-04   2.6317232e-04  -6.0826958e-05  -2.5934659e-04  -2.5298365e-04  -1.0425195e-04  -8.8126631e-05  -3.5228027e-04   3.2081297e-03  -2.6227832e-03   1.5280752e-03  -2.7267126e-05  -1.4688695e-04  -2.2290085e-04   3.6836507e-05
  -7.5524076e-05  -3.0201076e-05  -3.0101841e-05  -1.2684987e-04  -4.3816708e-05  -1.3546256e-05  -1.7021589e-04  -4.3929354e-05  -2.4970219e-04  -2.5380039e-05  -7.6477554e-05  -9.5441734e-05   1.3365709e-04   1.4070203e-04   2.3205172e-05   1.0638343e-04   1.2006823e-05  -1.6416484e-04  -2.5027362e-04  -4.3189964e-05   1.3927474e-05   1.7065866e-04  -4.3111027e-05  -2.9508245e-05   8.6940918e-06   2.6056528e-05  -1.2401975e-04  -1.3240169e-04  -3.1623806e-04  -5.5399651e-05  -1.7945949e-04  -1.0951509e-04   6.3387481e-05   1.1575316e-03  -3.8487487e-05  -6.9776800e-04  -2.3616577e-04   1.6171873e-05  -1.1769504e-04  -9.1089513e-03  -3.1380344e-04  -1.0879942e-04  -9.2499235e-05   1.6381267e-02   1.0986982e-02   4.8794192e-03  -1.5683477e-04  -2.3761435e-04  -4.2503775e-04  -2.5154179e-04
  -5.9744591e-05  -3.0238827e-05  -1.9746354e-05  -1.2485143e-04  -2.5667352e-05   2.2036118e-05   7.6419732e-05  -2.3858291e-05  -3.6373636e-04  -1.4047080e-04  -1.2119612e-04  -1.7204329e-04   1.9760782e-04   7.0838774e-05  -1.0255999e-04   1.5377226e-04  -2.5752497e-05  -8.8609435e-05   2.7846222e-04  -4.5313674e-05   8.9050718e-06   1.6813356e-04  -9.4630508e-05  -6.0157756e-05   2.5247348e-06   3.5437894e-05   3.2793338e-04   3.9156927e-05   1.7502566e-04  -2.6499270e-05  -1.0839383e-04   7.5180920e-05  -1.9427147e-04   9.8589307e-04   1.7391838e-04  -4.5262632e-04  -3.0503230e-04  -3.4581037e-05  -2.8537383e-04  -1.4598613e-03  -3.7178094e-04  -9.1910617e-05  -4.0279955e-04   7.2232559e-03   8.9041637e-03  -6.6556956e-04  -4.3760705e-05  -7.8601013e-05  -2.1007273e-04  -2.3410881e-04
  -4.6870835e-05  -2.7451535e-05  -7.7025970e-06  -1.2487567e-04  -2.3808951e-05  -5.6304561e-05  -4.8165042e-05   1.2782698e-04  -3.3303746e-04  -2.5616057e-04  -1.7828598e-04  -2.3558451e-04   1.0818418e-04   2.6337840e-04  -3.3022694e-05   2.2112738e-04   1.0022890e-06  -4.4887875e-05  -4.9448136e-05  -1.3963601e-05   9.6151189e-06   1.7860212e-04  -5.5075296e-05  -4.9019338e-05   1.1058672e-04   3.9938209e-06   2.7465398e-04  -6.0383074e-05  -1.3986744e-04  -2.0206844e-05  -3.8885275e-05   2.4207286e-04   2.7776218e-06   9.6903532e-04   2.9957206e-05   6.6165194e-05  -3.7988194e-04   3.5961648e-07  -5.4971414e-04  -9.0797236e-03  -3.1484483e-04  -9.2312650e-05  -1.9527771e-04   1.0075960e-02  -2.7127395e-04   1.3462531e-03   3.6795329e-05   1.1878479e-05  -2.2098060e-04  -1.8694501e-04
  -3.6647551e-05  -2.3273757e-05  -6.4836372e-06  -1.1102969e-04  -2.1390639e-05  -8.1998442e-06  -8.2548388e-05  -2.2172404e-04  -2.5522153e-04  -3.6644167e-05  -7.8854100e-05  -8.4805324e-05  -1.3811456e-05   1.1646125e-04  -2.2295002e-04  -2.9051367e-05  -1.4260829e-05  -1.6230799e-04  -1.1223611e-04  -2.1131558e-05   1.2206342e-05   1.9274975e-04  -7.0276583e-05  -3.8789225e-05   2.3864262e-04  -4.4806104e-05  -1.8885591e-04  -8.8775072e-05  -8.0705236e-04  -4.6129688e-05  -1.0421961e-04  -4.0138568e-04   3.8568931e-05   7.5661350e-04   1.4035056e-04   7.6256209e-04   4.4900252e-04  -1.6975087e-05  -6.3161273e-04  -6.8065953e-03  -4.4958757e-05  -1.1843809e-04  -3.4061717e-04  -1.4773807e-02   1.5214426e-03   3.1839238e-04  -4.2020180e-05  -2.7274666e-04  -2.6565939e-04   1.8458972e-05
  -5.3383894e-05  -2.2092900e-05  -9.1972297e-06  -1.1945621e-04  -2.1760308e-05   2.2231670e-05   1.0197170e-04  -7.5829819e-05  -2.0284508e-04  -1.0556301e-04  -1.2050859e-04  -1.3578593e-04   7.6371885e-05  -1.6433536e-05   5.4208038e-05   1.3193167e-04  -1.0224921e-05  -1.2460149e-04  -3.3543669e-04  -2.0757534e-05   5.0969707e-06   2.0443571e-04   2.2350276e-05  -8.7503395e-05   1.2093117e-04  -5.2132906e-05   1.4148564e-04   1.7734326e-04  -3.5342327e-04  -2.5435587e-05   1.3268515e-04  -1.5921693e-04   1.2019443e-04   8.9882140e-04   1.7927680e-04  -2.7236994e-04  -1.0280012e-03  -4.3715940e-05  -7.8711973e-06   5.3444360e-03  -1.5544945e-04  -1.5342390e-04   6.0539154e-05  -5.3203185e-03  -8.2414681e-03   2.6584291e-03   1.1063443e-05   1.0838160e-04  -3.1676760e-04  -3.4941931e-04
  -4.2898690e-05  -2.0670905e-05  -6.0368093e-06  -1.1168774e-04  -1.3481674e-05   7.3167694e-06   4.4403536e-05  -2.5555899e-04  -2.8830490e-04  -2.0101311e-04  -1.3647995e-04  -1.9021613e-04   1.4022045e-04   1.1726169e-04   2.7989587e-04  -7.5075818e-08   6.9028906e-06  -1.0288238e-04  -4.8005706e-05  -1.6954593e-06  -1.0080788e-06   2.1398235e-04  -2.0514244e-05  -3.6330250e-05   9.6848162e-05  -3.9664072e-05   2.2322894e-04   1.9811567e-04   1.3953426e-04  -2.8216722e-05  -1.0150825e-04   7.4892196e-05   1.9566798e-04   7.2658109e-04  -3.4641860e-05  -1.6342723e-04  -6.4231904e-04  -4.8724785e-05  -1.1825180e-03   1.0595478e-03  -2.8594010e-04  -7.4349940e-05  -2.1001950e-04   1.8432143e-03  -4.0455326e-03   1.3969507e-03   1.0553141e-05  -1.2674762e-04  -5.1188411e-04  -2.1296389e-04
  -1.9286301e-05  -1.6847032e-05   3.6856309e-06  -1.0726808e-04  -5.0606116e-07   6.2035841e-05  -4.9216182e-05  -7.7873256e-06  -1.9799727e-04  -2.2578526e-05  -7.2854011e-05  -6.5186214e-05   6.7309411e-05   7.3047486e-05  -4.1175619e-05  -1.2018475e-04   3.3621220e-06  -1.9146984e-04  -2.4272762e-04   6.7774090e-06   7.8586663e-06   1.7624299e-04  -2.9375453e-05  -6.3815482e-06  -6.1307968e-05   3.9178331e-06  -6.7998917e-05   1.1612416e-04  -1.3429855e-04  -2.4210005e-05  -1.6038776e-04   1.3717708e-04   5.7219466e-05   8.7429583e-04   1.7022037e-04  -2.6506674e-04   2.0320280e-05   4.4676526e-05  -1.6696518e-04  -4.7103004e-03   2.7057938e-05  -5.6366545e-05  -2.2789491e-04   1.2446480e-02  -6.4611272e-03  -2.6956839e-03   7.2486640e-05  -1.7566413e-04  -3.1738958e-04  -7.3864183e-05
  -5.1125346e-05  -2.1102109e-05  -9.2785640e-06  -1.0457219e-04  -1.9496343e-05   4.4963679e-05  -7.3612769e-05   7.0947608e-05  -2.0851103e-04  -7.6756747e-05  -8.8537694e-05  -1.1280177e-04   1.4787739e-04   1.6460294e-04  -1.1599440e-04   2.6441590e-04  -1.4560300e-06  -1.1144446e-04  -1.8255594e-04   1.9482481e-05   2.1862888e-06   1.8602800e-04  -9.8744065e-05  -1.7672071e-05   4.5976973e-05   2.9815712e-05   5.6174755e-05   1.1654291e-04   1.9926715e-04  -1.9099803e-05  -2.9849372e-04  -2.0690328e-05   1.5105470e-04   5.9736392e-04   1.7086376e-04  -2.4796138e-04   5.6206161e-04  -4.6518791e-05  -5.2287243e-04  -5.9569986e-03  -2.3773525e-04  -9.1534595e-05   5.9025460e-06   1.4157388e-02  -2.2097879e-04  -1.1057402e-03   1.1588020e-05  -6.5951397e-05  -2.4522404e-04  -1.1020974e-04
  -4.9403439e-05  -2.3892921e-05   1.4622016e-06  -1.0173620e-04  -1.3919182e-05  -1.6613176e-05  -7.3095805e-05   1.9966130e-04  -2.9975519e-04  -1.9146896e-04  -1.1592561e-04  -1.8981728e-04   4.4314053e-05   6.8612979e-05   3.0985368e-05  -8.0312668e-05  -6.3487209e-07  -1.0032903e-04   6.5730412e-05   2.9942159e-05  -4.8409938e-06   1.6993249e-04   2.8463266e-05   2.7303102e-05   2.5589688e-04   4.3129719e-05   2.9959276e-04   6.9055095e-05  -2.4906214e-04   1.6401069e-05  -3.5433593e-05  -3.0286229e-04   2.2530983e-05   2.7145847e-04   7.0406364e-05   1.6928690e-04   6.5260881e-04  -8.6778400e-06  -1.2672400e-03  -5.3711692e-03   1.8665382e-05  -6.6147324e-05  -1.6323874e-04  -1.0039526e-02   4.3182084e-03   2.7058423e-03   4.2642085e-05  -5.5669425e-05  -4.3270690e-04  -2.3957051e-04
  -2.9294702e-05  -2.2460032e-05   1.5074845e-06  -9.4554947e-05  -2.1444737e-06   3.5854719e-05  -8.9735113e-05   1.2821027e-06  -1.3339323e-04   2.9656069e-06  -5.3928077e-05  -6.6011133e-05   2.0856813e-04   1.1691625e-04  -1.2805969e-04  -1.3933565e-04  -1.8804648e-06  -4.3605698e-05  -1.8910096e-04   2.8573799e-05   9.8559776e-06   1.8452140e-04  -2.2517284e-05   6.9885675e-05  -9.9621611e-05   1.0245075e-04  -2.9037113e-04  -1.5053147e-04  -3.1080502e-04  -6.6955777e-06  -1.5599981e-04  -7.1921648e-05   1.5005903e-04   9.1694715e-04   1.4053925e-04  -5.9337623e-04  -5.8611162e-04   2.3752547e-05  -4.0939171e-04  -3.8869104e-03  -4.8107755e-05  -1.0539277e-04  -1.7401027e-04  -1.7129551e-04  -2.4945182e-03  -4.6024872e-03   3.2648168e-05  -5.9173512e-06  -2.7795543e-04  -2.0691899e-04
  -4.9276288e-05  -2.4833022e-05  -4.6677060e-06  -9.0840760e-05  -2.3913759e-05   2.9513010e-05  -4.2035349e-06   1.2792880e-04  -2.5063431e-05  -4.9414568e-05  -6.3065185e-05  -1.0303485e-04   1.1022657e-04   5.5527365e-05  -1.6840681e-04   3.0397199e-04   3.3532229e-05  -6.1827042e-05  -2.3609051e-04   3.7778911e-05   3.7122184e-06   1.8717973e-04   5.0245835e-06   2.0726047e-05   2.0647688e-04   6.0768078e-05  -8.8578832e-05  -1.4890726e-04  -5.5118831e-04  -6.5717099e-06   8.0129845e-05   1.3306542e-04  -5.6238030e-05   1.0336707e-03   2.5195527e-04   7.4207032e-04  -3.8978364e-04  -7.0623037e-06   7.3684257e-04  -7.5940997e-03   4.2607884e-05  -6.7202003e-05  -1.3606439e-04   1.4918638e-02  -3.5843952e-03   8.3211912e-03  -6.4556257e-06  -6.1503320e-05  -1.0540975e-04  -3.0579109e-04
  -3.8974875e-05  -2.4833278e-05   7.0052856e-06  -8.5288601e-05  -6.5936924e-06   3.0526629e-05  -5.9032933e-05   4.1808406e-05  -1.2984556e-04  -1.4774420e-04  -8.8422123e-05  -1.6810435e-04   1.2995051e-04   2.3936545e-05   2.6017611e-04  -2.7159376e-05   1.0006342e-05   6.8979629e-05  -3.8878058e-04   3.4132187e-05  -1.5798810e-06   1.8518760e-04   2.1462067e-06   4.9141683e-05   4.5409761e-05   1.1991368e-04   3.5364434e-04   6.2227715e-05   2.8361750e-04   1.0581786e-05   1.0940531e-04  -6.9567875e-05   2.2174245e-04   4.1604682e-04   1.1781176e-04  -1.4564404e-04   4.2443321e-04  -5.0512294e-06  -1.3888233e-04   2.4712398e-03  -2.8235369e-04  -9.0788395e-05  -1.9480889e-04  -1.0331628e-02  -1.0859733e-03   5.6270655e-04   5.6180568e-05  -7.9593738e-05  -3.2383815e-04  -1.3094253e-04
  -1.0732489e-05  -1.6642362e-05   1.2466289e-05  -8.5774220e-05   1.0196236e-05   1.0149508e-04   7.2173934e-05  -1.2380423e-04  -1.4417122e-06   4.2386622e-05  -1.8607780e-05  -5.1723742e-05   1.6827323e-04   1.8914555e-04   6.2394618e-05   6.8750865e-05   2.0197280e-05   4.1246727e-05  -2.3207689e-05   5.4953929e-05   1.5625646e-05   1.8975156e-04  -1.3271047e-05   6.9611240e-05  -6.6949920e-05   8.4244595e-05   1.2690640e-05   1.0664821e-04  -3.3858916e-04   3.1924788e-05   3.6754218e-04  -1.3756717e-04   3.5470925e-04   4.7469861e-04   4.2824249e-06   4.8915925e-05  -5.9004739e-04  -1.1445396e-05   5.4887416e-05   4.1133147e-03  -3.5887319e-05  -4.9425333e-05  -1.9572230e-05   1.1008011e-02  -4.0675957e-05   7.1908499e-04   1.0625431e-04  -1.0059722e-04  -3.7606191e-04  -7.5287528e-05
  -2.3393522e-05  -1.6167489e-05   9.5466294e-06  -8.0144993e-05  -2.8780835e-06   7.2076953e-05  -6.5700071e-08   8.1346705e-05  -9.7562624e-05  -8.8919169e-06  -2.7777482e-05  -9.7577795e-05   1.8086594e-05   9.0524576e-05   2.0032570e-05   2.2186480e-04   1.3643320e-05  -1.5997910e-05  -7.2535164e-05   5.0058778e-05   1.9480269e-05   2.0881616e-04  -5.3420721e-05   1.0848443e-04  -3.4349945e-05   1.8667978e-04   1.4028937e-04  -3.6525964e-07   5.2409330e-05   3.9755381e-05  -3.7610713e-05  -3.1079509e-04   3.2251002e-04   9.9203002e-04  -3.6816680e-05  -2.3189283e-04   2.1996477e-04   9.7208531e-06  -4.0713520e-04  -3.9736945e-03   7.5663171e-05  -1.1291076e-04  -1.9178059e-04  -2.7810405e-03   3.1946707e-03  -1.7019312e-03   6.4097781e-05  -8.6859276e-05  -1.4773615e-04   1.3856396e-04
  -2.9394698e-06  -1.0143701e-05   2.2114753e-05  -7.5398391e-05   4.5004517e-06   6.6639004e-05  -7.9920726e-05   1.6199934e-04  -1.8423889e-04  -1.2778067e-04  -8.8392131e-05  -1.8175239e-04  -4.0483537e-06   6.2780018e-05   9.2747905e-05   1.0764986e-04   3.1069063e-05   1.3021572e-04  -2.7260112e-04   6.2199026e-05   3.2063981e-05   1.9994496e-04   3.7241109e-05   8.8196190e-05   7.6369079e-06   2.4834392e-04  -3.6020130e-05   9.5302035e-05  -8.8725006e-04   7.2989955e-05   2.5901958e-04   4.4213509e-04   4.0889313e-06   1.0965629e-03   9.1865724e-05   1.6526539e-04  -2.8959938e-04   1.1166630e-04  -1.7912756e-04  -6.3632354e-03  -1.2183440e-04  -7.6463089e-05  -8.6039785e-05   7.6766899e-03  -5.1982049e-04  -2.7459669e-03   5.1512256e-05  -2.4589905e-05  -3.0951237e-04  -1.0093748e-04
   2.4712084e-05  -8.5373031e-06   3.3559892e-05  -6.1077917e-05   9.3111503e-06   4.9322200e-05   5.9650585e-05   6.7664630e-05  -1.0861238e-05   6.9290458e-05  -2.9333387e-06  -7.4973279e-05   2.5132651e-04  -4.0732157e-05   1.8284898e-04   2.4845221e-04   1.6842021e-05  -5.2774983e-05   5.8064543e-05   8.1425700e-05   4.5377561e-05   2.4984588e-04  -4.2439829e-06   9.9787576e-05   2.9941011e-04   3.2604567e-04   3.0032475e-04  -1.2143004e-04  -1.3844761e-04   3.1627555e-05  -6.6592343e-06   3.3266499e-04   2.1480089e-04   1.0601644e-03   2.0635272e-04   1.9873089e-04   4.5077228e-05   9.4896575e-05  -1.2759006e-04  -2.5406326e-03  -1.8158589e-04  -7.1706359e-05  -4.9654183e-05  -3.3001250e-03   3.6133523e-03   4.8477766e-03   7.9397971e-05  -7.2091418e-05  -2.3213423e-04  -1.4633319e-04
   7.6184710e-07  -8.6537020e-06   2.2037513e-05  -6.7151137e-05  -1.1734836e-05   5.5648936e-05   7.1709030e-05  -4.0523220e-05  -3.2415584e-05   1.0973365e-05  -2.6541395e-05  -1.2636668e-04   4.2483462e-05   1.6806967e-04   7.5676558e-05   2.2065445e-04   3.2915530e-05   4.3615046e-06   1.4476797e-04   6.5813598e-05   3.9853458e-05   2.2440412e-04  -2.1154459e-05   1.2348749e-04   1.7197727e-04   2.8990433e-04  -2.6981058e-04  -3.4736810e-04  -9.4339828e-04   7.3566065e-05   2.5764841e-04  -7.7683697e-05   1.0693607e-04   8.1517326e-04   2.7007953e-04  -5.9034367e-04  -5.4533838e-04   1.2613476e-04  -3.3126140e-04   4.1422327e-03  -1.5620800e-04  -1.1616923e-04  -7.1278926e-05   2.6168484e-02   1.3965250e-03  -1.5976757e-03   1.9430214e-05  -6.5958033e-05  -2.5760700e-04  -1.6804819e-04
   1.0004474e-05  -3.7301309e-06   2.1092939e-05  -8.0240556e-05   2.2305221e-06  -1.1694408e-06  -6.8004024e-06  -4.1562766e-05  -1.2684993e-04  -6.4479005e-05  -6.5208093e-05  -1.7434040e-04   1.7102873e-04   9.8496799e-05   3.3620145e-04   7.5437987e-05  -1.4106699e-05   6.7842942e-05  -4.6446221e-05   7.6187556e-05   2.8617887e-05   2.4227466e-04   3.0893894e-05   1.0744886e-04   1.6229882e-04   9.5808369e-05   2.3856158e-04   3.1148878e-04  -9.5231975e-05   2.9743631e-05   1.5290259e-04  -1.6711703e-05   2.1511602e-05   6.8542780e-04  -4.2873628e-05   3.8768214e-04  -4.4516739e-04   7.1320014e-06   4.0429411e-04   9.1782231e-03  -1.7246204e-04  -9.6414034e-05   1.1921818e-04  -9.6513692e-04  -3.2448415e-03   3.0846838e-03   3.6992267e-06  -1.1591319e-04  -1.7927503e-04  -1.6597286e-04
   3.0054671e-05   1.0080532e-06   3.7569818e-05  -7.6211698e-05   2.3113524e-05   4.4137101e-05   2.4282723e-05  -2.8181263e-05  -1.6855384e-04   1.4019951e-05  -2.2945562e-05  -1.0120239e-04   4.9957125e-05   1.6883096e-04   5.6340672e-05  -7.4851727e-05   4.2713182e-06   8.7524153e-05   1.6768968e-04   9.8096833e-05   3.2431763e-05   2.5558588e-04   3.4955909e-05   5.7980888e-05   2.7762019e-04   5.7409336e-05   1.5119217e-04  -4.2081050e-05  -2.4679615e-04   2.9226785e-05   3.2153528e-04   1.5381092e-04   3.1827448e-04   8.1808981e-04   1.8841992e-04  -5.6719867e-04  -6.0647861e-05   2.1303065e-05  -1.0628826e-04   1.7821962e-02  -1.8943795e-04  -8.4587307e-05  -2.6605272e-04   1.2014628e-02  -1.0496827e-03   1.4998196e-03   9.0938709e-05  -1.1825463e-04  -2.7249657e-04  -2.3881109e-04
   4.0521714e-05   7.2296066e-06   3.6999132e-05  -6.1836261e-05   1.4389490e-05   7.3301548e-05  -2.9238236e-06   1.9528916e-04  -1.2325861e-05   6.3319087e-05   2.7423854e-05  -8.0907994e-05   7.0184316e-05   1.7277749e-04   2.2320950e-05  -5.6295474e-05   5.7301801e-05   3.0940475e-05  -1.4951059e-06   8.1504440e-05   3.4817913e-05   2.6691789e-04   2.7720229e-05   7.7578028e-05   1.6680166e-05   1.4203486e-04   1.9439864e-04   2.0355057e-04  -5.2269868e-04   5.6791981e-05  -1.4373118e-05  -6.0443468e-05   1.0821297e-04   6.6427200e-04   2.1022739e-04  -1.5940765e-04  -4.0174296e-04   6.0729701e-05   8.8639779e-04  -4.4655747e-04   1.6007954e-04  -4.6338420e-05  -1.7947593e-04  -6.6505739e-04   1.8710723e-02  -2.9952996e-03   1.3664008e-04  -7.2122173e-05  -1.7551545e-04  -4.3662358e-06
   3.6395326e-05   1.6417370e-06   3.6526642e-05  -4.6135323e-05   5.6682698e-06   2.8532711e-05   3.9789498e-05   4.5202622e-05  -8.4878673e-05  -4.6785801e-05  -1.8203644e-05  -1.6644226e-04   1.2172102e-04   2.0724568e-05   1.2679139e-04   2.8034198e-04   2.5675936e-05  -2.7249642e-05   1.1518936e-04   1.2810051e-04   2.2206204e-05   2.2308534e-04  -5.1823799e-06   7.6461503e-05   9.4603318e-05   3.2309914e-04   4.5586541e-05  -3.4393870e-05  -8.5814320e-04   5.4088061e-05  -4.6370522e-05  -8.1801714e-05   6.5820488e-05   9.8413380e-04   2.6480993e-04  -1.2759134e-04   5.5218381e-05   1.1699786e-04  -1.7750947e-04  -1.3932519e-03  -1.6846207e-04  -1.6511668e-04  -1.6585104e-04  -2.8269594e-03   9.8106766e-04  -7.4860556e-03   1.7381501e-05  -7.5132128e-05   5.6750512e-05  -2.0333040e-04
   5.8151927e-05   2.0755044e-06   4.4242013e-05  -5.5983644e-05   1.5713651e-05   6.7376575e-05   7.1047281e-05   8.5646585e-05  -6.0756825e-05  -1.2751612e-04  -7.5333235e-05  -1.9535352e-04   3.4545203e-05   2.1344908e-04  -1.9360820e-04  -1.3164112e-04   5.1526376e-06   4.8041176e-05  -9.7308199e-05   1.0893411e-04  -1.5637486e-06   2.4538615e-04  -7.0608216e-06   3.2786513e-05   8.8936322e-06  -2.6820401e-06  -1.4094978e-04   8.9738001e-05  -5.0764903e-04  -1.2294601e-05  -1.4570025e-04  -1.4718357e-06   1.5476663e-04   3.0318173e-04   3.6482841e-05   5.8206915e-05  -4.5826862e-04   1.9832854e-05   1.5360703e-05  -5.7455064e-03  -1.7003957e-04  -3.0463341e-05  -7.6141907e-05  -2.8198597e-03   3.1787753e-03  -2.3082499e-03   9.0233443e-05   2.2824988e-05  -6.8693298e-05   9.0760252e-05
   7.3102608e-05   3.9189435e-06   4.0913848e-05  -6.1522740e-05   3.1788353e-05   7.4077761e-05  -5.3750591e-05   5.3081036e-05  -2.1456848e-05   8.8066918e-05   3.4823050e-05  -3.5428428e-05   5.4753073e-05   1.6155919e-04   2.5512875e-04   4.1449699e-04   1.4388866e-05   1.1361950e-05   2.9275099e-05   1.2908882e-04   8.3344185e-06   2.6313981e-04   8.9184454e-05   2.5317657e-05   1.4638645e-04  -1.4613553e-06   7.1408474e-05   1.2565458e-04   4.3340560e-04  -2.0758829e-05   1.7385579e-04  -1.0021219e-04   2.6767204e-05   4.2875693e-04  -1.9402709e-05   1.0946158e-04  -3.2346309e-04  -9.4613097e-06   7.3519256e-04  -8.9186374e-03  -8.3835708e-05   3.5163737e-06  -1.4199292e-04   1.7753297e-02  -3.7656640e-04   2.3615211e-03   1.6857014e-04  -1.5987156e-05  -3.6680838e-05   1.1259735e-04
   5.8886202e-05   5.0764938e-06   4.1961961e-05  -5.7195532e-05   1.9967645e-05   8.0699952e-05  -3.3542387e-05  -1.4601947e-05  -7.0205046e-05   2.7053044e-05   1.7768212e-05  -6.9474525e-05   1.2155396e-04   9.0091824e-05  -2.4852541e-04   5.2830088e-05   2.2987888e-05  -5.4278789e-05   3.9590121e-04   7.6374672e-05  -7.8200983e-06   2.7694891e-04   6.1105318e-05   4.7468708e-05   3.5460442e-04  -4.7770776e-05   1.1852672e-04  -4.5884794e-04   1.1703487e-03  -3.0092286e-05   8.8995628e-05   3.1439943e-04   1.5579010e-04   5.0825498e-04   1.9135885e-05   1.3252669e-04   1.9015893e-04   7.2046105e-06   1.1107553e-04   2.2984424e-04  -3.3671357e-05  -5.6997371e-05  -2.0039277e-04   7.5270550e-04  -1.7569803e-03  -2.4559563e-03   3.8298382e-05   1.1445092e-04   3.3017048e-05  -1.2495361e-04
   6.3257685e-05   6.9448615e-06   4.4056989e-05  -6.0681388e-05   3.5422585e-05   4.0492159e-05   7.6415381e-05  -1.4197145e-05  -1.9781216e-04  -5.9433249e-05  -3.7414291e-05  -1.1369053e-04   5.9579819e-05   1.7479895e-05  -1.8711976e-04   6.9838847e-05   4.5941160e-06  -1.2369248e-05   1.0730085e-05   1.2844283e-04  -1.2247842e-05   2.8891329e-04  -1.9877303e-05   3.0033658e-05   2.6038391e-04  -1.4639928e-04  -9.2996066e-05  -6.1054139e-05   2.9938330e-05  -3.9454982e-05   9.4505529e-05  -7.6576407e-06   2.8440278e-04   3.2721899e-04   8.9806075e-05  -1.4026849e-04   5.5613615e-05   4.1513373e-05  -2.3938874e-04  -4.6837021e-04  -9.2088747e-05   3.4909390e-05   1.5558433e-04   3.4385277e-03  -2.3024278e-03  -4.3114610e-03   5.6432644e-05  -1.9201222e-04  -4.4034216e-05  -6.0019182e-05
   8.5247106e-05   7.7076065e-06   5.3936710e-05  -5.3220974e-05   5.0506384e-05   7.3978917e-05   5.2674004e-05   9.0530884e-05  -4.5062385e-05   8.9472349e-05   6.1151361e-05   2.2622538e-05   2.9550801e-04   1.3665392e-04   1.3330631e-04   9.0985035e-05   1.6218564e-05  -2.1994470e-05   5.5056913e-05   1.4309224e-04  -2.4769170e-06   2.4513350e-04   3.5464641e-06   1.1114267e-05   4.4244193e-04  -1.6649730e-04  -2.8110453e-04   2.8587672e-05  -3.3897879e-05  -3.0445359e-05  -8.8361659e-05   1.6351904e-04   2.4718256e-04   1.0094880e-04   1.8622662e-04  -4.5087197e-04   3.0982695e-04  -1.0236315e-04  -2.6245881e-04   4.8580198e-03  -5.3883352e-05   1.5891392e-05   1.2496936e-04   2.1346456e-03   6.4000982e-04  -6.7715221e-03   1.9154599e-04   1.1787381e-05  -1.9968591e-04   9.9107972e-05
   7.5184580e-05   1.2858323e-05   4.6949743e-05  -6.0294504e-05   4.7125861e-05   9.9277706e-05  -5.0771596e-05   1.2044570e-04   4.4063967e-05  -1.3455922e-07   3.9887222e-05  -1.7360309e-05   4.5997804e-05   1.7177295e-04   4.8399084e-05   2.2918146e-04   5.4032378e-05  -1.1043403e-04   1.5246213e-04   1.2505130e-04  -6.4082251e-06   2.6831898e-04   5.6225897e-05   5.0325212e-05   1.4135231e-04  -6.4239350e-05  -4.5734432e-05  -2.2180500e-06   2.1813231e-04  -8.3440129e-05   7.4798278e-05   8.3356324e-05   3.9592810e-04  -8.4097737e-05  -5.2591677e-05   1.3986717e-04  -3.7763594e-04  -8.5040054e-05  -3.1870930e-04  -9.2230020e-03   1.2352401e-04  -1.7879704e-05  -1.0293721e-05  -6.8359459e-03  -5.4807412e-03  -7.1809310e-03   9.3615956e-05   1.3207796e-04  -1.5516965e-04   2.0293378e-04
   7.3149706e-05   1.4658922e-05   4.7134345e-05  -5.3617041e-05   4.0370196e-05   6.7827707e-05   1.6733486e-05  -3.1862630e-05  -3.7232479e-05  -1.2557532e-04  -2.2773140e-05  -9.2002236e-05   8.2100611e-05   6.4523243e-05  -1.4232023e-04   3.0776544e-04   3.8935483e-05   4.4423879e-05   5.4745055e-05   1.2346050e-04  -1.2410234e-05   2.7629637e-04   3.9365197e-05   4.5822086e-05   2.3690563e-04  -6.7654226e-05   7.3008559e-05  -2.2703095e-04   3.6698885e-04  -4.0962306e-05   2.4719426e-04   4.0089560e-04  -1.4307302e-04   2.0692435e-04  -8.8925553e-06   5.0625380e-04  -3.7453679e-05  -1.0618198e-04  -2.3440018e-04  -7.5860261e-03  -2.9610313e-04  -7.1322946e-05  -2.9341927e-05  -5.0085532e-03   6.7790609e-04   6.4551816e-03   7.8085541e-05  -3.0377578e-06   1.3209805e-05  -5.0807146e-05
   8.0311132e-05   1.1095524e-05   6.2588057e-05  -4.4265613e-05   5.7922873e-05   1.0274218e-04   6.4421642e-05   1.7608053e-04  -4.5585002e-05   2.0572956e-05   3.0791583e-05   1.4773980e-05   5.6080407e-05   2.8558570e-04  -2.6739363e-04   3.9076275e-04   1.6701826e-05  -1.0492435e-04   2.9283931e-04   1.5128001e-04  -2.3706218e-06   2.5595559e-04  -3.7012767e-05   4.3144028e-05   2.0104609e-04  -1.1680556e-04  -2.4644760e-04   2.4751018e-04   3.2818134e-04  -2.3753266e-05   1.0269523e-04   1.6931293e-04   2.8933032e-04  -6.0832344e-06  -1.2413890e-04   2.3055210e-04  -7.0271657e-05  -5.9442194e-05  -3.4368422e-04  -1.1242180e-03   9.4411025e-06   2.3735660e-05  -1.9018617e-05   2.5175354e-03   3.9632557e-04  -7.0557860e-03   1.8517465e-04   3.9160874e-05   4.3289812e-05  -1.1174718e-04
   7.1237191e-05   1.3940348e-05   5.1801453e-05  -4.1516116e-05   6.1334205e-05   8.9747518e-05  -3.4035809e-05   5.9291619e-05  -8.3591891e-05  -8.5114689e-06   4.2892840e-05  -3.2895675e-06   9.4830139e-05   1.6275316e-04   1.3989111e-04   1.3499911e-04   3.9175378e-05   8.0795005e-05   2.9458359e-04   1.5170033e-04  -6.5589988e-06   2.3540547e-04   6.6929162e-05   5.2519455e-05   3.0502080e-04  -8.3612766e-05   8.1837745e-05  -1.8999775e-04  -9.4353425e-04  -6.1015220e-05  -4.5210836e-06  -8.2337130e-05   1.8283165e-04  -8.5178603e-05   4.2566160e-05  -2.5474917e-04   2.4056991e-04  -7.6599666e-05   8.2433020e-04  -2.6297737e-03  -5.4306456e-06   6.7258270e-06  -8.8166948e-05  -7.6517225e-03  -3.5411923e-03   3.7800081e-04   1.6521590e-04  -4.7967210e-06  -1.4930392e-04   9.7485819e-05
   6.1947205e-05   1.1974309e-05   5.3609001e-05  -4.6375142e-05   5.1888543e-05   6.0429036e-05   7.7713288e-05   1.0036235e-04  -2.0860236e-05  -1.1457713e-04  -1.1305466e-05  -6.8956426e-05   1.9130600e-04   1.3937372e-04   2.6070426e-04   1.4567898e-04   2.5673748e-05   3.6299116e-05   3.4993718e-04   1.4866979e-04  -1.0091658e-05   2.7113629e-04   1.1618721e-04   8.4870800e-05   3.4454538e-04  -6.9591879e-05  -1.3424275e-05   2.0853602e-04   6.8916898e-04  -4.6984147e-05   9.0509042e-05  -1.8296583e-04   3.0047380e-04   3.0616007e-04   1.0784439e-04   2.8813610e-04   1.6390796e-04  -5.1820742e-05   3.2631124e-04  -4.0218802e-03   1.4037288e-04  -2.3859733e-05  -8.8419481e-05  -8.1959721e-03   2.5996042e-03  -1.3635390e-03   3.6591446e-05   7.1036280e-05  -2.2286343e-04  -2.9976523e-04
   6.9675021e-05   8.2972392e-06   6.6103457e-05  -4.1555497e-05   6.9424401e-05   1.3241768e-04   7.5187862e-05   8.1712271e-05   2.2064052e-05   3.4910820e-05   5.2240273e-05   2.4961964e-05   7.4037591e-05   6.5262720e-05  -1.5108073e-04   1.6485671e-04   1.0620915e-05  -7.4365358e-05   2.2898115e-04   1.4271021e-04   1.9696913e-06   2.4685607e-04   7.7055709e-05   5.7146739e-05   5.7246300e-05  -1.0051057e-04   3.7975752e-04  -2.4313037e-04  -8.1435530e-05  -2.9502466e-05   1.1731779e-04   3.6310285e-04   2.3202716e-04   1.9097558e-04   8.9029825e-05  -7.7431403e-05   2.3456928e-04   8.8652114e-06   1.3235342e-03  -6.2727071e-03   4.0095671e-05   3.4205306e-05  -7.0263748e-05   3.4032464e-02   1.4764611e-03   1.0214626e-03   1.1106932e-04  -2.8453545e-05   1.0611547e-04   5.8168720e-05
   6.0581046e-05   1.6456121e-05   6.3019208e-05  -3.1773743e-05   7.0394977e-05   1.0639565e-04  -1.0410904e-04   2.1939064e-04   1.8522173e-06  -1.4767020e-05   5.1977313e-05  -8.5353431e-06   2.6149661e-04   2.1296382e-04   4.9519891e-05   2.0972619e-05   2.0863590e-05  -6.3344392e-05   4.8006255e-05   1.3925802e-04   8.7160925e-06   2.6160065e-04   1.1142881e-04   2.1312539e-05   2.1899234e-04  -9.0714006e-05   1.4048873e-05   4.7694004e-05  -7.7135628e-04  -5.0603074e-05  -2.9947312e-04   5.8976165e-04   3.7251244e-05   1.4895442e-05   2.5129175e-08   1.9314796e-04  -6.8626509e-06  -4.9482765e-05   3.0018404e-04  -2.1894497e-03  -1.2547321e-04  -3.7193513e-05  -1.2743632e-04  -3.0303292e-03  -5.3071296e-03  -7.5733080e-03   3.1963118e-05   1.6023523e-04  -1.5239042e-04   4.2776683e-05
   5.2903186e-05   1.3790253e-05   6.2434789e-05  -4.0869258e-05   6.9341302e-05   1.0341812e-04   1.7749934e-04   1.0259254e-04   2.9505323e-05  -1.1716272e-04   9.7772445e-06  -8.1915794e-05   1.9495253e-04   1.5322371e-04  -1.3695609e-04   3.4198095e-04   2.0359057e-05   2.3100949e-05   3.2132852e-04   1.5125259e-04   6.9206926e-06   2.8415563e-04   8.0238751e-06   2.8090193e-05   6.2036379e-05  -8.6010325e-05  -3.6777805e-05  -1.6486477e-04   9.0329566e-05  -3.0770298e-05   3.0306276e-04  -5.3820571e-05   3.7497154e-04  -9.6593358e-05  -2.3954903e-05  -1.9607910e-04  -1.1800443e-04  -3.2522086e-05   2.8627450e-04   8.2697002e-03  -1.2696565e-04  -4.4525921e-05  -2.2028427e-04  -9.5599806e-03   2.6025125e-03  -2.2828742e-03   1.2417677e-04  -4.0210998e-05  -3.4673667e-05  -1.4383243e-04
   5.8504047e-05   7.3218416e-06   6.7677764e-05  -2.5466539e-05   7.3372714e-05   1.3872367e-04   4.4504966e-05   4.9398801e-05   1.3618804e-04   3.1694908e-05   8.1988568e-05   1.9761526e-05   1.9674546e-04   1.3711229e-04   2.2951961e-05   6.7107270e-05   2.5878146e-05  -1.0612921e-04   1.1478568e-04   1.5573189e-04   1.5778602e-05   2.3696740e-04   3.6826586e-05   5.2188359e-05   3.2273217e-04  -8.4241066e-05   1.6522095e-04  -6.6730478e-05  -5.8924203e-04  -1.1577516e-05  -3.9267445e-05   4.7880887e-05   1.6570202e-04  -3.4043023e-05   2.3581910e-05   3.3071579e-04   4.5680694e-04  -5.7500667e-05  -7.0559856e-04   3.9210930e-04  -7.0068956e-05   2.6650796e-05  -1.1598196e-04  -9.7994483e-04   9.6996548e-04   8.8221702e-04   1.6079591e-04   1.4987602e-04  -1.5077856e-04  -8.9181965e-05
   5.3033204e-05   1.2680701e-05   6.2435654e-05  -3.4778150e-05   6.5813896e-05   1.1461430e-04   7.4754884e-05  -4.6487123e-05  -3.4665558e-05  -2.3977664e-05   7.7039418e-05  -1.7338842e-05   1.0884458e-04   4.1595718e-05  -1.7632496e-04   4.9875885e-05   2.3774361e-05   2.8729316e-06   2.6490254e-04   1.7518454e-04   9.3252684e-06   2.5504650e-04   6.2960375e-05   2.7549504e-05   1.9103012e-04  -1.2338560e-04  -2.9797580e-05  -2.9033587e-05   3.3170352e-04  -2.4171582e-05   8.6312924e-05   1.4985916e-04   1.9490997e-04   7.4820578e-05  -7.4360556e-05  -1.9908915e-04   2.3150865e-04  -1.2731334e-04   4.1754032e-04   1.3714310e-03  -1.1043246e-04   1.0639399e-05  -6.4224201e-05  -6.1905477e-05  -8.1073670e-03   3.4142537e-03   1.8866440e-05  -2.2011523e-06  -6.6180372e-05   5.1444724e-05
   4.0903309e-05   5.5711880e-06   5.4799824e-05  -3.6658759e-05   7.0259113e-05   9.9678997e-05   9.2247530e-05   1.2722502e-04   1.6847807e-05  -1.1649330e-04   3.2100059e-05  -8.1787803e-05   1.6134363e-04   1.9802926e-04   2.1172598e-05   2.5531428e-04   2.7887778e-05  -1.0632240e-04   4.9580610e-04   1.3720192e-04  -3.3548927e-06   2.2891232e-04   7.9133286e-05   2.8940607e-05   3.8885095e-04  -1.0122275e-04   7.2771418e-06  -4.5236917e-05  -3.6319482e-04  -3.4800170e-05   2.7167753e-04   1.4175745e-04   3.4147981e-04  -5.9186172e-05  -1.1644285e-04  -3.6914618e-05  -1.7443219e-04  -4.6072877e-05   5.0349341e-04  -2.3388122e-03  -1.9234204e-04  -3.5291100e-07   2.5133870e-04   8.0383783e-03   8.1229620e-03  -6.8748575e-03   4.7441175e-05  -1.0618895e-05  -1.8435801e-04   1.4295342e-04
   5.5585842e-05   3.3051479e-06   6.3288324e-05  -3.6582947e-05   7.2429953e-05   1.4200438e-04   1.4488700e-06   1.8491765e-04  -3.8618979e-05   3.3715725e-05   1.0421406e-04   2.5422867e-05   2.4200544e-04   1.3090199e-04  -2.7774466e-04   2.0689718e-06   2.3007511e-05   8.7027598e-05   4.1187121e-04   1.4579510e-04   6.9178236e-06   2.3368138e-04   5.4614891e-05   2.5754887e-05  -1.3170359e-04  -1.2031759e-04   9.8806222e-06  -2.1634967e-04   8.1639657e-05  -4.5787496e-05  -8.4758765e-05   1.5671889e-04   1.4774663e-04  -1.9183535e-05   1.3747315e-04  -1.3264529e-04  -6.3042571e-05  -3.4019591e-05   7.1250528e-05  -5.5120322e-03  -5.0913231e-06   3.2813401e-05   1.7346563e-04   4.7472520e-03   1.8403348e-02  -5.2639999e-04   7.3361865e-05  -7.0158072e-05  -2.2692088e-06  -8.3937339e-05
   3.5316774e-05   7.4916848e-06   5.1695162e-05  -4.2039854e-05   6.4708976e-05   7.2027848e-05   2.0265916e-05   7.8829828e-05  -2.3823736e-06  -1.7374098e-06   1.0178520e-04   1.6743830e-06   1.2652276e-04   1.3606645e-04  -3.3531247e-05   2.7782089e-04   1.8959339e-05  -8.5243439e-05   7.2392693e-05   1.3160214e-04  -2.3465461e-06   2.5451192e-04   1.1051345e-04   2.1375385e-05   3.0837741e-04  -1.7487517e-04   9.8128148e-05   7.3243995e-05   3.6441191e-04  -1.8094372e-05  -1.5010693e-04   2.3761461e-04   1.0625841e-04  -2.4646646e-04   6.8965841e-05  -6.6320354e-04   5.7066715e-04  -6.7808076e-05   7.0544612e-04   5.0647995e-03   9.3928276e-05  -6.2591616e-06   5.1502557e-05   5.0129052e-05   2.0954908e-04  -1.3194823e-03  -2.8260289e-05   9.5235351e-05  -1.7151822e-04   8.9860652e-05
   1.6976448e-05   2.2185814e-06   4.4289442e-05  -4.5729244e-05   5.5133132e-05   1.0104600e-04   8.2987943e-05   5.4017266e-05  -7.9073616e-05  -1.1099211e-04   6.0593240e-05  -8.1315462e-05   2.5593932e-04   5.8333269e-05   2.2623930e-04  -7.1022383e-05   1.6743721e-05   4.2246495e-05  -3.8922662e-05   1.0773636e-04  -8.1106555e-06   2.6059119e-04   8.4340463e-05  -1.5660622e-05   7.8065597e-05  -1.2560337e-04   5.6910321e-05  -5.3442098e-05  -4.3377653e-04  -6.5694844e-06   1.3405026e-04   3.9389924e-04   4.7151867e-04  -1.5337182e-04  -2.6806854e-05   3.4243849e-04  -7.5175759e-04  -4.1823667e-05  -1.1186307e-04  -1.4648095e-03  -1.5014912e-04   1.2818570e-05  -8.7738757e-05   1.9855887e-02   3.0901497e-03  -2.9207417e-03  -1.0254229e-04   8.3570187e-05  -1.6807315e-04  -1.6034461e-04
   2.7478391e-05   2.3015068e-06   4.9363567e-05  -3.9072173e-05   5.8687478e-05   9.3245420e-05   5.4348366e-06   1.2573782e-04  -5.0775856e-05  -1.3758616e-04   3.2987355e-05  -9.1276503e-05   1.4718306e-04   1.0805125e-04  -3.6392757e-04   3.1266474e-05   4.7090103e-05  -8.0495047e-05  -1.2477364e-04   1.2785409e-04  -7.1093782e-06   1.8916887e-04   1.3956142e-04   7.9774109e-05   4.9047219e-05  -9.8291006e-05  -2.7714603e-04  -2.4730951e-04  -3.9218646e-04  -3.1899319e-05   1.5751953e-04   1.5963316e-04   3.2932792e-04  -1.0222581e-04   1.4695963e-05  -2.8758892e-04   7.1047543e-04  -1.0823324e-04   3.2756070e-04  -5.3325216e-03  -1.5588330e-04   5.4608798e-05  -2.1990258e-05  -1.0635989e-03  -6.1335154e-03   2.6610328e-03   2.6225989e-05   1.4709622e-04  -1.7769386e-04   1.0677369e-04
   3.1315885e-05   1.7738937e-06   4.5209184e-05  -4.4049131e-05   5.4566768e-05   5.4016858e-05   4.3743461e-05   1.6935826e-04  -1.4594843e-04   1.3810283e-05   1.0612563e-04   8.2889173e-06   7.7500838e-05   1.2112260e-04  -1.7622414e-04   7.2584817e-06   4.4316996e-05   5.7188470e-05   4.4721804e-05   1.0688360e-04  -9.9717781e-06   2.1179246e-04   1.4619040e-04  -4.4682733e-06   2.2728335e-04  -9.1477414e-05  -2.8837897e-04  -2.1401534e-04  -1.6216392e-04  -1.2505715e-05   2.4205149e-04   2.1548102e-04   3.9552723e-04   1.4513968e-04   8.5782485e-06   3.3476949e-04   1.5918369e-04  -9.1709931e-05  -2.9025757e-04   4.0882681e-03   3.6331394e-04  -1.3002553e-05   1.8275759e-05   8.9607621e-03  -2.6484262e-03   2.0354425e-03  -6.7802917e-05   7.4381078e-06  -2.5644337e-04   2.0294428e-04
  -1.6003493e-06  -1.1532014e-06   3.3412267e-05  -4.2488045e-05   5.0179351e-05   1.0969157e-04   1.2245179e-04   4.5421446e-05  -1.7039252e-04  -5.1121006e-05   7.1002491e-05  -4.2056683e-05   1.8312651e-04   1.4489575e-04  -1.0128823e-04  -1.8127984e-04   3.3346103e-05   1.4435044e-05  -1.2203991e-04   1.2914845e-04  -1.0696866e-05   2.3012348e-04  -1.3222617e-05  -3.0667206e-06   3.0567337e-04  -7.8543540e-05  -2.5911324e-04  -1.5051087e-04  -3.2364353e-04  -6.4163232e-06  -2.5489839e-04   1.5687077e-04   1.9749041e-05  -1.3389757e-04  -9.3417166e-06   1.3071304e-04   6.5334229e-05   1.4785055e-05   3.1166722e-04   7.9837618e-03  -4.3556571e-05  -1.8122954e-06  -2.8991246e-05   5.7696863e-03  -8.6139068e-03   4.6107112e-04  -6.5537759e-05   1.3906402e-04   2.5378200e-05  -1.8459874e-05
   9.5297746e-06   3.4645343e-06   4.1631582e-05  -3.4080476e-05   4.3389624e-05   8.2699713e-05   4.3843582e-05   1.9098738e-04  -5.1651936e-05  -1.7623219e-04   2.0069276e-05  -1.4539446e-04   1.0192857e-04   4.6839374e-05  -1.1547132e-04  -4.7370017e-05   5.2606731e-05  -2.0056767e-05   1.0636026e-04   1.5704602e-04  -9.0051662e-06   1.9650934e-04   2.9945253e-05  -1.1578037e-05   2.4341089e-04   1.0410285e-04  -2.0841925e-04  -1.0218535e-04  -1.1867023e-04   7.8712874e-05   2.6276414e-04   4.5555807e-04  -8.3045081e-05   2.8085726e-04   2.4306180e-04   4.9424081e-05   4.4380609e-04   4.1223531e-05   4.4148121e-04  -1.1827942e-03   7.2514536e-05   2.2234935e-05   1.9489501e-04  -4.2980155e-03  -3.5869528e-03   1.0187775e-02  -6.2447361e-05   2.5222225e-05  -2.8643818e-04   3.4649781e-04
   1.4530539e-05  -3.0249107e-06   3.7237278e-05  -1.6333717e-05   3.8936716e-05   6.7180183e-05   7.5021722e-05   1.7251457e-05   8.2578939e-05   4.6251524e-05   1.2483794e-04  -2.2126540e-05   1.5430503e-04   1.6320676e-04  -3.5616293e-04   3.8715909e-05   7.0482572e-05  -3.1643380e-05   2.2993580e-04   1.3021786e-04   1.3359839e-06   1.4919165e-04   1.0634960e-04   2.6701478e-05   2.1530858e-04   3.1126794e-04   1.5933068e-07  -2.5916853e-04  -2.8764937e-04   1.1289986e-04   1.6425358e-05   1.6790615e-04  -3.7542653e-05   9.2725217e-04   1.8159891e-04   3.9808914e-05   2.8896835e-04   1.3409943e-04  -2.2535185e-04  -3.4901833e-03   4.5854220e-05  -4.8903505e-05   4.3727214e-05   4.5005335e-03   9.5405309e-03   5.9256288e-03  -1.0910188e-04  -1.3892123e-04  -2.7665729e-04  -6.3337284e-05
  -5.3762378e-06  -7.3115325e-06   2.4627992e-05  -1.1096462e-05   2.2615508e-05   7.3874355e-05  -5.5934310e-05  -9.1963615e-05  -2.6323189e-05  -2.0846986e-05   8.4321873e-05  -7.0668597e-05   2.8419498e-04   1.0395332e-04   5.3511998e-05   9.1001210e-05   6.1006242e-05  -9.0792455e-06   2.3827761e-04   1.3463893e-04  -2.3117271e-05   1.6434044e-04  -2.1093709e-05   3.5493216e-05   1.9148290e-04   1.5812305e-04   1.8028617e-04  -4.9731319e-05  -1.1949545e-03   3.3671415e-05   2.8681767e-04  -8.4491330e-05   7.6052987e-05   3.1231024e-04   2.5467001e-05   8.3579944e-04   5.0519209e-04   1.5711634e-05   3.9422372e-04  -3.6764820e-04  -1.2360581e-05  -5.1934854e-05   2.6767904e-05  -1.0467114e-02  -5.2910652e-03   4.2807786e-03  -1.1164540e-04   6.1054976e-05  -1.3536960e-04  -6.9083435e-05
   1.2128094e-05  -5.8953665e-06   3.0704148e-05  -1.3366212e-05   2.5200987e-05   9.3591094e-05   9.9810677e-05   9.6717631e-05   6.0625051e-05  -1.0564332e-04   5.1280680e-05  -1.2717774e-04   5.2549412e-06   7.9684251e-05   1.2806115e-04   2.5776980e-04   5.6657958e-05   1.5888580e-04   3.1078333e-04   1.4246040e-04  -2.7286274e-05   1.6738614e-04   1.0987370e-04   3.7837384e-05   1.5279149e-04   2.2132193e-04   1.2955793e-04  -1.8863237e-04   1.0996037e-03   9.1819114e-05   2.3714264e-04   2.9060253e-04   1.0956607e-04   4.9489370e-04   1.8506451e-04   1.8265627e-04  -6.8359222e-04   9.3273804e-05  -2.9350148e-04   9.4104209e-04  -1.1288749e-04  -5.2714473e-05   1.6729735e-05  -6.4187604e-03   4.4040540e-03  -2.6575883e-03  -1.4169038e-04   3.5859870e-05  -2.5714241e-04  -6.1979437e-05
   4.7397996e-05  -8.5083266e-06   4.2559885e-05  -1.8141625e-05   5.4724154e-05   5.0926603e-05  -5.9510660e-07   3.8693961e-05   6.2007457e-05   1.2715456e-04   1.2102853e-04   3.4060464e-05   1.9408367e-04   2.1260483e-04  -6.8954163e-05   1.5338893e-04   7.1594564e-05  -8.9932430e-05   2.3973234e-04   1.1665892e-04  -6.5826666e-06   1.4156861e-04   9.8452707e-05  -6.5411573e-06   8.0683334e-05  -8.0812570e-05   2.3616191e-04   1.1204091e-04   6.5229787e-04  -1.8309792e-06   4.9865463e-05   2.0894616e-04   2.6292418e-04   3.2909357e-04   1.4124910e-04   1.5083748e-04   4.3545573e-05   4.8758291e-05   3.7339098e-05   2.9814368e-04  -3.9531323e-04   4.1041050e-05  -4.7047968e-05   9.6414108e-03  -1.5399959e-04   1.5593637e-03  -1.0984176e-04   3.7883576e-05  -3.8107130e-04   3.6634479e-05
   2.9380542e-05   6.9889654e-07   3.8044211e-05  -1.0745704e-05   3.5325946e-05   7.5416843e-05   9.9833145e-05   8.0455487e-05  -2.3426977e-05   5.0579674e-05   1.3736484e-04  -6.6143907e-06   1.8988668e-04  -1.3514351e-04   9.7943856e-05   9.3961986e-05   7.4275245e-05   1.3229581e-04   6.6588640e-05   1.1482497e-04  -3.1969423e-05   1.1419985e-04   8.4749736e-05   2.8582135e-05   1.3594005e-04   1.8151238e-04  -5.3636486e-05  -2.1921556e-05  -9.1009989e-04   7.6964527e-05   2.3268516e-05  -1.6281274e-04   4.6071062e-05   6.8331871e-04   3.4723739e-04  -1.1650558e-04   5.2748725e-04   6.2535888e-05  -4.6765135e-04   8.5968600e-04  -8.7834916e-05  -1.2161876e-05   9.0857604e-05   4.6625626e-03  -1.4187236e-03   3.4563029e-03  -1.2191653e-04  -7.7847626e-06  -3.6076640e-04   1.6102553e-04
   3.3723631e-05  -1.4446902e-06   4.0377468e-05  -1.5479770e-06   3.4131332e-05   6.4660169e-05   5.4614946e-05   1.0924835e-04  -1.3005767e-05  -7.0455186e-05   8.8356312e-05  -1.0712679e-04   1.6137739e-04   1.1408619e-04   3.1886430e-04  -7.8482488e-05   6.3436200e-05   8.2751838e-05   2.5313479e-04   1.3803606e-04  -4.4579247e-05   1.2030578e-04   5.9498463e-05   1.5757814e-05   3.3853692e-04   2.0949448e-04  -3.6057003e-04   1.0501811e-04   7.1338844e-04   7.0927534e-05   9.7486947e-05   5.8639760e-04  -2.4776980e-06   4.2595746e-04   1.8950962e-04   1.6077993e-04   3.0144595e-04   8.4809282e-05  -2.1026134e-04  -6.2478459e-03  -3.8940383e-05  -6.8198133e-05   1.4611975e-04  -2.5880637e-03   9.9165540e-04   4.2538014e-03  -1.3789241e-04   4.6180005e-05  -4.0027191e-04  -2.9487359e-05
   4.6426943e-05   3.5642563e-06   4.4394361e-05  -7.8801486e-06   4.3245094e-05   7.3429299e-05  -4.0668606e-06   2.1389003e-04  -8.1433936e-05  -1.4443052e-04   2.0993575e-05  -1.3213788e-04   2.3242155e-04   9.4680086e-05   1.5186054e-04   1.1175546e-04   2.8782228e-05   6.3146108e-05  -1.9463178e-05   1.2428974e-04  -4.1769024e-05   1.5250039e-04   5.3583724e-05  -7.8240610e-06   2.1007235e-04   6.2397245e-05  -2.7267635e-04   1.0407135e-04  -6.0099823e-04   3.0946627e-05   1.6855446e-06   6.0693233e-04   1.7457345e-04   1.2635086e-04  -8.7937851e-06   5.6137244e-04  -4.0107171e-04   3.1185085e-05  -2.0662315e-04  -3.4401326e-03  -4.8133643e-05   2.0718890e-05  -4.6137757e-05   6.0573076e-03  -3.4241599e-03   3.0673747e-03  -4.6333047e-05  -4.1774706e-06  -2.7621159e-04  -9.6804899e-05
   4.7628590e-05   1.6496149e-05   4.1652096e-05  -1.0009706e-05   4.0475988e-05   7.0201982e-05  -4.8608534e-05   1.7037710e-04   2.2629027e-05   4.7864352e-05   1.4768400e-04   1.8230119e-05   2.7350977e-04   1.3567161e-04  -3.1000294e-05  -3.9679486e-05   7.8208119e-05  -6.1076760e-05  -2.2141989e-04   1.4026511e-04  -3.1175870e-05   1.7638443e-04   5.5271586e-05  -4.7127211e-05   2.3162407e-04   2.3797347e-05  -8.2557613e-05  -2.5828727e-04  -8.7805383e-04   1.5341597e-05   3.8246383e-04   2.0797295e-05   2.0716921e-04   1.5092402e-04  -1.1735950e-04  -1.3982743e-04   2.6896465e-04  -1.0290947e-05  -6.2673971e-05  -4.7773398e-03  -1.9296664e-05   3.6547495e-05  -3.3053122e-05  -1.2532434e-02  -2.0296525e-03  -4.2947922e-03  -9.2905750e-05  -3.0726289e-05  -2.3843859e-04   6.7204121e-05
   4.4419397e-05   2.1885879e-05   3.4142846e-05  -1.4894961e-05   4.7218629e-05   9.6039679e-05  -3.2009157e-05   7.0722897e-05   5.8536561e-06  -2.4827106e-05   8.2030354e-05  -2.3880113e-05   1.1297113e-04   8.5658059e-05   4.2914646e-04   2.6329616e-04   7.5730990e-05  -4.1701689e-05   2.2480066e-04   1.5526956e-04  -3.6871705e-05   1.9514145e-04   1.2441612e-04  -1.2343618e-05   1.9296315e-04   2.3883029e-05   3.0535070e-04   5.1317595e-05   6.0697907e-04  -6.6667717e-06  -2.4430765e-04   6.0787617e-04   1.9274176e-04  -7.3167766e-06   5.6625300e-05   1.6562894e-04   7.0337679e-05  -4.0043633e-05  -3.1244350e-04  -3.5107522e-03   2.3972317e-04   3.7519999e-07   1.1598403e-04  -4.7645289e-03  -5.2984743e-03  -2.6924529e-03  -8.4715728e-05   1.1495652e-04  -1.3606751e-04   1.4826318e-05
   5.5992408e-05   2.4727178e-05   3.9692346e-05  -5.3543827e-06   4.5282650e-05   8.4533996e-05   5.9238158e-05   8.1506942e-06   3.4434823e-05  -1.2677762e-04   5.7571753e-05  -9.2938033e-05   2.6214478e-04   2.2960712e-04   2.0365139e-04  -8.1232713e-05   4.1184045e-05  -5.2613109e-06   4.3159194e-04   1.6108238e-04  -3.7316502e-05   1.8751436e-04   1.0969766e-05  -4.1472420e-05   1.5377677e-04  -7.9955717e-06   8.5201355e-05   2.9972190e-04   2.8503309e-05   8.9674440e-06   3.6318168e-05   3.0237786e-04   2.0097960e-04  -9.5992655e-05   5.2372805e-05   4.2386577e-04   9.6063962e-04  -3.4445059e-06  -2.1591813e-04   5.6197420e-03   4.9856305e-04  -3.5783367e-05   3.8577629e-05  -5.3559216e-03   1.0787271e-02   8.4678158e-03  -9.4594012e-05   8.0222169e-05  -2.0218795e-04   7.7588738e-05
   7.6534518e-05   2.8929071e-05   4.8255701e-05   5.4078339e-07   7.1840637e-05   7.8595716e-05   1.6885578e-04   2.8711502e-04   8.2669503e-05   3.6658766e-05   1.3731969e-04   2.9587518e-05   1.2858026e-04   7.7890756e-05  -3.7001199e-04  -1.8583814e-04   8.5065425e-05  -7.3939453e-05   2.5724553e-04   1.5112510e-04  -2.0639727e-05   2.1397004e-04   2.2153863e-05  -2.6895574e-05   9.0542941e-05   9.0843805e-06   5.3090476e-05  -2.6443611e-05   3.2772692e-05   1.4030958e-05   5.6398916e-05  -8.1205668e-05   2.1813683e-04  -4.8443708e-05   2.1838450e-05   2.8279418e-04  -2.5890674e-04  -3.4434244e-05   7.7651421e-06  -2.3462293e-03   4.0609444e-05   2.8822415e-05  -6.2774627e-05   6.6034789e-03   5.2661885e-04  -5.3257798e-04  -3.4643046e-05  -4.5655444e-05  -2.9786237e-04   7.4435011e-05
   4.0857885e-05   3.5177804e-05   3.4313725e-05  -5.3918170e-06   4.4584183e-05   1.2541385e-04   4.1033371e-05   1.3303644e-05   1.1258095e-04  -5.8427581e-06   1.1320058e-04  -6.2941444e-06   1.8995174e-04   7.8654870e-05  -2.0425954e-04   4.6117348e-04   7.4333067e-05   2.5106812e-05   2.0166651e-04   1.7789319e-04  -2.3303257e-05   2.1014213e-04   8.6213207e-05  -2.2043252e-05   6.0629322e-05  -1.5304995e-05  -8.4884326e-05  -1.0241378e-04   9.8222634e-04  -1.7452854e-05  -1.3723724e-04   5.0061342e-04   3.1422035e-04  -2.2560074e-04  -1.1472034e-04   2.5221315e-04   2.5133748e-04   8.2041506e-06  -2.6068592e-04  -5.4086256e-03  -8.4784209e-05   1.3580028e-05  -2.9648421e-04  -1.0376011e-02   3.3406209e-04  -1.9909665e-03  -9.7887161e-05  -4.6017526e-06  -2.7926487e-04   8.5257547e-05
   4.3805674e-05   3.6626250e-05   3.8511891e-05  -8.3384239e-06   6.2103187e-05   7.1934694e-05   6.1613746e-06   2.0576817e-04  -7.7005272e-05  -1.2134570e-04   7.9417987e-05  -7.3814779e-05   2.3845928e-04   1.7711957e-04   1.3107307e-04   4.8310219e-05   4.4435885e-05   4.3515443e-05   3.9423688e-04   1.5247040e-04  -2.4572124e-05   2.2807218e-04   6.4633830e-05   1.2241278e-05  -6.0596238e-05  -2.7057864e-05   1.0061218e-04  -1.3748065e-04  -4.6132589e-04   1.0110131e-05  -2.1130127e-04   2.9792782e-05   1.6703660e-04  -1.9138191e-04   4.3828801e-05   5.9271429e-04  -1.2920830e-04  -3.5193403e-05   1.8865689e-04   1.2047977e-02  -1.8166291e-05   1.0337349e-05   1.6986798e-04  -7.8442022e-03  -1.7286030e-03  -1.1726889e-03  -1.0776486e-04  -1.6077673e-05  -3.6113354e-04   2.2033538e-04
   6.0670627e-05   3.8848437e-05   4.7615704e-05   1.5707255e-07   6.7388995e-05   8.5257467e-05   1.2885887e-04  -6.4836175e-05   1.6248999e-04  -1.6546554e-05   1.2084904e-04   1.9585297e-05   1.5427200e-04   6.9955495e-05  -1.5242949e-05   9.3934592e-05   5.6192941e-05  -1.0676733e-05   2.0403365e-04   1.5879306e-04  -1.6139475e-05   1.8729115e-04   1.3920183e-04   3.8369189e-06   2.1847118e-04  -1.9529521e-06   4.3078390e-04  -6.1650262e-06   7.0397399e-04  -1.1918726e-05   2.3090659e-04  -7.8232486e-05   9.6210075e-05  -4.7509460e-04   1.3706624e-04   5.9642148e-06   3.0685536e-04  -1.6890659e-05  -1.1996897e-04  -6.4671137e-03   1.4029918e-04   3.7281367e-05   1.0049476e-04   1.7547569e-03  -2.6947772e-03   7.4203308e-03   2.1207350e-05  -1.2153553e-04  -2.5508463e-04   1.6655746e-05
   6.4511907e-05   4.7842121e-05   5.1555304e-05   7.4855625e-06   7.0886643e-05   1.3054142e-04   1.1497983e-04   9.4550502e-05   1.4858713e-04  -3.4723907e-05   1.3660532e-04   5.8677480e-05   2.4328551e-04   1.5095364e-04   2.0597642e-04   3.1030315e-04   8.7479013e-05   4.5023546e-05  -5.5719674e-06   2.1351836e-04  -2.0685397e-05   1.6920701e-04   1.9253056e-04   3.0291680e-05   4.0163617e-05   9.4873511e-05   2.9810556e-04   8.4385094e-05  -7.9982412e-05   3.6999209e-05  -1.3522804e-04  -7.2739371e-05   1.1835267e-04   9.8602970e-05  -3.1851121e-06  -1.5175510e-04  -8.7955259e-06  -9.2158596e-05  -2.9482512e-04   4.4066729e-03   3.0184770e-04  -1.3682951e-05   2.4108186e-04  -1.5611405e-02  -1.7508224e-03  -3.5802708e-03  -4.6543737e-05  -5.3194566e-05  -1.7427708e-05  -8.1376013e-05
   9.8393677e-05   9.3076014e-05   5.9989012e-05   1.3413758e-05   5.9382994e-05   1.3526093e-04   2.0980119e-04   2.2497805e-04  -4.3852684e-05  -1.7031614e-04   9.3640658e-05   3.4415894e-05   7.1049166e-05   2.0288724e-04   5.2468422e-05  -5.2016680e-06   9.9765522e-05  -2.6601603e-05   3.6380318e-04   1.8405759e-04  -2.5389914e-05   1.4074119e-04   2.3602851e-04  -8.0593809e-06   2.4966466e-05   9.4689080e-05  -4.1312675e-04  -1.1233574e-04  -1.4883917e-04   7.1642585e-06  -2.0270190e-05   1.6414923e-04   5.5906514e-04  -4.8559057e-04   2.0052568e-04   6.4879283e-04   1.0913122e-04  -8.3539249e-05   1.5216747e-04   4.1703662e-04   5.6223169e-05  -1.8533534e-05  -2.9056733e-05  -9.2487894e-03   5.6739622e-03  -5.8303750e-04  -4.0472314e-05  -6.6941120e-06  -1.1796886e-04   1.3507427e-04
   8.2856932e-05   7.4783427e-05   5.9841866e-05   3.1635682e-05   6.8146161e-05   1.1826528e-04   7.6542099e-05   7.2775292e-06  -2.0043552e-05  -1.9540393e-04   7.4826399e-05  -4.2438562e-05   2.0389077e-04   1.8577202e-04   2.3777191e-04   3.4282930e-05   8.1286285e-05  -7.4949457e-05   3.3594170e-04   1.8931436e-04  -2.2711385e-05   1.3468797e-04   1.8608385e-04  -2.2808290e-06  -9.6233438e-05   1.1038606e-04   2.2092010e-04  -1.6265170e-04   1.3045166e-04   1.4596178e-05   2.0972594e-04  -2.4809549e-04   1.0116211e-04  -2.5144994e-04   7.6076736e-05   4.4659583e-04   4.5603211e-04  -7.3628093e-05  -2.6048304e-04  -1.5015679e-03   1.6470967e-04   3.0106643e-05   2.0257698e-04   1.1775395e-02  -2.7717979e-05   3.5855552e-04  -5.1745442e-06   1.3423178e-04  -6.0354821e-05  -1.7421647e-04
   9.6151511e-05   8.0498125e-05   5.5642879e-05   4.0853050e-05   7.3703886e-05   1.4885720e-04   8.9993679e-05   2.2081155e-04   5.5827953e-05  -6.6704728e-05   1.4897734e-04   6.2237734e-05   2.0068670e-04   1.0380241e-04  -4.6099434e-05  -2.4172253e-04   3.0309917e-05   4.8604197e-05   3.5096677e-05   1.8187922e-04  -4.3052270e-05   1.3687421e-04   1.2887134e-04   2.9697521e-06   3.7140082e-05   9.2383634e-05  -4.1019148e-04   1.7911385e-04   2.1415645e-04   1.1261769e-05   5.7397836e-05  -2.7978560e-04   2.2045027e-04  -3.0057196e-04   1.5063764e-04   5.7364046e-04  -3.5359713e-05  -6.1220722e-05   1.6693410e-04   4.9894028e-03   4.6301971e-05   5.4804284e-05   3.1858624e-04  -5.5971700e-03   4.9772086e-03   1.7466538e-03   8.7463368e-06   1.2058861e-04  -1.4927247e-04   2.8979337e-05
   1.0571577e-04   9.7956945e-05   7.0342423e-05   4.2178857e-05   8.4096944e-05   1.2990391e-04  -1.6210253e-05   1.1087253e-04   5.5071861e-05  -1.4915524e-04   1.5766687e-04   1.5768614e-04   4.5340039e-05   7.1193022e-06   2.6841604e-04   1.1357981e-05   5.8452588e-05   1.7717890e-04   2.7635301e-04   1.9435432e-04  -4.4804281e-05   1.4021904e-04   3.0353505e-04   3.7439811e-05   1.7860915e-05   7.6138436e-05   2.0525933e-04  -5.3747142e-05   5.2281353e-04   4.3452652e-05  -1.2300849e-04  -4.0262516e-05   4.1755538e-05  -2.6765995e-04   3.5974121e-04   7.8519166e-04   1.9564305e-04  -1.3165339e-05   1.3600451e-04  -4.7045569e-03   1.8685890e-04   1.8791212e-05   1.0920557e-04   1.4204051e-02  -1.5054899e-03   8.9044692e-03  -1.1935773e-06  -5.3223001e-05  -1.5407093e-04   2.3579652e-05
   1.3554819e-04   1.3431277e-04   7.5604374e-05   1.1649106e-04   8.7900546e-05   1.9056859e-04   1.2980107e-05   1.5546044e-04   1.3746289e-04  -2.7770633e-04   1.2432404e-04   1.2648571e-04   1.8095694e-04   8.7633407e-06   2.8257046e-04   4.9125338e-05   3.8561400e-05   4.5589095e-05   6.4591237e-05   2.0170800e-04  -4.2246003e-05   1.1596002e-04   1.3737810e-04   3.5621954e-06  -4.6289158e-05   1.6035101e-05   1.8957253e-04  -1.0486839e-04  -4.6816497e-04   4.6765026e-06   3.6723453e-05   1.8322551e-04  -7.0370050e-05  -2.9779968e-04   1.6479373e-04  -3.8037440e-04   5.6380103e-04  -7.9360805e-05   3.9742084e-04  -6.4474682e-04   2.2937891e-04   1.0361549e-04   1.3323588e-04   1.2747184e-03  -2.7489460e-03  -1.0684641e-03   7.9427737e-05   1.5978258e-04  -2.6424820e-04   1.0698352e-04
   1.4951856e-04   1.4485129e-04   8.0275517e-05   1.2786157e-04   1.0400762e-04   1.5166377e-04   5.8106230e-05   1.7080289e-04   4.8053182e-05  -4.6675118e-06   2.3093319e-04   3.0484088e-04   2.1809370e-04  -8.3025934e-06   1.1136912e-04  -4.5516554e-05   6.0531464e-05   6.5572334e-05   1.9805964e-04   1.7582205e-04  -3.4586403e-05   1.4833521e-04   1.7091012e-04   5.8439302e-05  -1.1411906e-04  -6.0954033e-05  -9.9384706e-05   1.7917233e-04  -4.7282616e-04   9.7596931e-06   1.7356072e-04   9.1019829e-05   3.0436981e-04  -2.0247519e-04   1.4465340e-04   4.7491901e-04   5.6542869e-04  -1.3264216e-04   4.7958753e-04   1.7777055e-03   3.4212184e-04   5.0845101e-05   2.3677298e-04  -1.1025909e-02   2.1346350e-04  -1.0254347e-03   3.8759081e-05   5.0163322e-05  -1.0982766e-04   2.4009665e-04
   1.3295826e-04   1.3747935e-04   6.6849039e-05   1.2243002e-04   9.2905182e-05   1.7980275e-04   8.1052123e-05  -6.5229760e-05   1.1140746e-04  -1.2321408e-04   1.7150244e-04   2.1175778e-04   3.2208426e-04   9.4891897e-05   4.3068459e-05   2.9815090e-04   5.8533573e-05   5.5845638e-05   4.3433020e-04   2.1993525e-04  -5.2243471e-05   1.4756330e-04   2.1600694e-04   1.6215861e-05  -9.8489945e-05  -9.2870367e-05   8.8637433e-05   2.1166363e-04   5.8427773e-04   1.9797601e-05  -1.6353042e-04   8.7473163e-05   1.6036739e-04  -3.1251510e-04   1.7700653e-04   4.7773865e-05   2.7495602e-04  -3.1391566e-05   3.1868479e-04  -2.5695546e-03   8.8190172e-05   7.7317352e-05  -4.9259943e-05  -3.5658965e-03  -6.9074230e-03  -2.7870666e-03   3.7675800e-05   1.1513309e-04  -8.3980929e-05   1.7449039e-04
   1.2679778e-04   1.3794791e-04   6.4176420e-05   1.1391306e-04   9.0641675e-05   1.8000713e-04   1.1098147e-04   1.7196120e-05   5.8278620e-05  -2.1886751e-04   1.2849135e-04   1.3338489e-04   2.5871012e-04   6.1505765e-05   1.6407618e-04   2.4914573e-04   7.8202811e-06   6.4363732e-05   3.9678358e-04   1.8001119e-04  -4.9248280e-05   1.5020225e-04   9.3449569e-05  -6.9498046e-06  -8.9463152e-05  -1.6653736e-05  -1.2351213e-04  -7.5275151e-05   8.7389162e-05   2.1504380e-05   2.6346894e-04  -1.8024521e-05   1.6436663e-04  -2.5188763e-04   2.9643782e-04   1.0576962e-03   2.2302660e-04  -1.5533959e-04  -4.1337236e-07  -8.6420245e-04  -1.7858736e-04   1.4799001e-05   2.2227252e-04  -4.0241214e-03   3.1175385e-03   8.0899446e-04  -7.7480854e-06   1.8640676e-05  -1.7583920e-04   1.7732668e-04
   1.2919150e-04   1.4063297e-04   6.6383633e-05   1.2123549e-04   9.2704606e-05   1.3253171e-04   2.1194920e-04  -5.6517045e-05   1.4582874e-05  -1.2493609e-05   2.1041077e-04   2.3156764e-04   5.0372590e-05  -1.1542587e-04   4.4900973e-04  -4.5184206e-06   6.2493797e-05  -4.5793782e-05   6.5549393e-05   1.8414299e-04  -4.0519120e-05   1.4881644e-04   1.5295106e-04   1.2742809e-05  -1.9265965e-05  -3.3012726e-05   1.6213447e-04   1.1717356e-04  -2.9699801e-04   3.0885778e-05   5.7407015e-05  -4.7544017e-05  -1.9995599e-04  -4.4232004e-04   2.5057187e-04   4.7613040e-04   3.2046487e-04  -1.4469727e-04  -1.1118744e-04   9.3373144e-03  -8.4412612e-05   4.1090971e-05   8.9669360e-05  -1.6048578e-04  -6.1071259e-03   2.9991493e-03   3.6266571e-05   1.4593669e-04  -9.0111673e-05  -8.5135121e-05
   1.0819231e-04   1.3551065e-04   5.2432926e-05   1.1700597e-04   9.6791475e-05   1.7560701e-04   1.9415582e-05   1.4706198e-04   6.3633779e-05  -7.9426587e-05   1.6578750e-04   1.7467073e-04   3.0214153e-04  -1.1942635e-04   2.7631881e-04  -2.6774331e-04   1.9412388e-05  -1.0142607e-05   2.0299213e-04   1.8041885e-04  -4.8644910e-05   1.4394442e-04   9.7262156e-05   1.1208340e-05   4.3594357e-04   3.4330085e-05   1.2953932e-04   8.2643572e-05   3.3529030e-04   4.8485505e-05   2.5351872e-04   1.5604045e-04  -1.3404462e-05   4.6531395e-06   2.0452145e-04   2.4801723e-04   1.7617585e-04  -9.4921006e-06   6.9135881e-04   1.2218347e-03   8.6706124e-05   5.1302479e-05   2.1011843e-05   8.9704841e-03   1.6705535e-04   5.8668689e-04   1.9047522e-05  -4.2648771e-05  -8.4976731e-05   1.7134889e-04
   1.1482857e-04   1.3078557e-04   5.4898686e-05   1.2806994e-04   8.7999251e-05   1.6737176e-04   8.8649926e-05   2.1552788e-04   1.4148612e-05  -1.5469833e-04   1.1827376e-04   6.5190972e-05   2.4118315e-04  -6.6257715e-05   4.3906973e-04  -2.9425621e-05   3.9655344e-05   1.0236571e-04  -8.5566062e-05   1.9656382e-04  -4.6320638e-05   1.4351757e-04   1.6809863e-04   3.0589286e-05   4.4219811e-05   2.6574056e-04   2.8307975e-04  -2.5807280e-05  -7.6806673e-04   1.4871766e-04   9.7912372e-05  -2.6378277e-04   3.6207555e-05   4.0184060e-04   4.4355763e-04   5.9666508e-04   2.3166442e-04   1.9259923e-04   3.4192656e-04   1.1487477e-02   2.2866011e-04   5.1155497e-05   1.6920059e-04   3.5414335e-03  -3.3179167e-04  -6.6245859e-03   7.1390561e-05   7.7538731e-05  -3.6930567e-05   2.7749556e-04
   1.2399908e-04   1.2034438e-04   5.8496069e-05   1.5067852e-04   9.9550685e-05   1.7453573e-04   1.1581461e-04   2.6809424e-04   3.3643235e-05   9.3621857e-05   2.2715548e-04   2.0301474e-04   2.5792126e-04   8.1434468e-05   5.6096714e-04   1.0316987e-06   5.1937608e-05   1.0936369e-04   1.5401504e-04   1.6053148e-04  -7.4990006e-05   1.1861519e-04   1.2773239e-04   3.5537170e-05   1.2872044e-04   1.1505796e-04  -5.6437699e-07  -6.5286367e-05  -5.9426664e-05   1.0990335e-04   1.3388171e-04   3.2852401e-04  -5.1995634e-05   5.6087389e-04   3.8847930e-04   1.3855837e-04  -2.4599593e-05   9.1956870e-05   7.4090123e-05  -7.0470379e-04   9.8569421e-05   3.4932327e-05   4.6123643e-04   7.6129677e-04   3.7886144e-03  -2.3252566e-03   4.2614476e-05   1.2866275e-04  -1.1784143e-04   1.1804265e-04
   6.8626316e-05   1.1085424e-04   3.3980272e-05   1.3331059e-04   5.3801552e-05   1.3610210e-04   1.2369492e-04  -1.9880077e-05   1.0243876e-04   3.3845525e-05   1.8211760e-04   1.5625301e-04   2.2018196e-04  -8.2060818e-05   4.0355572e-04  -5.7511490e-05   3.2363499e-05   1.8455026e-04   2.4544433e-04   1.4079406e-04  -9.1973743e-05   1.1383108e-04   1.5919255e-04  -1.0006889e-06   4.1442774e-05   3.4083030e-05  -1.8940572e-04  -1.4146559e-04   3.5234334e-04   8.1283753e-05   1.7836773e-04   2.9782715e-04   2.5357053e-04  -1.2437874e-06   2.5872380e-04   3.9719380e-04   3.2975840e-05   1.6166347e-04  -1.7219507e-04   2.0772931e-03  -1.2515119e-04   2.5941763e-05   1.3289228e-04   6.0450356e-03   6.8848237e-04   2.2020368e-03  -1.1042348e-04   2.2073353e-05   1.1071032e-04   1.9236631e-04
   8.0387916e-05   1.2104504e-04   4.9765986e-05   1.3824574e-04   7.2439019e-05   1.9213898e-04   2.5697338e-05   3.2527339e-05   5.8123980e-05  -5.2905816e-05   1.5321352e-04   1.1584814e-04   1.5698087e-04  -5.0908169e-05   4.9602641e-06   9.2648828e-05   8.5182846e-06   1.8033966e-04   1.0528266e-04   1.4849193e-04  -8.8306282e-05   1.4949127e-04   1.5320531e-04   1.4084467e-05   2.3712782e-04  -1.8279477e-05   2.9600531e-04   1.5950472e-04   4.8215935e-04   1.0820508e-04  -3.3664266e-05   3.7402101e-04  -2.0896625e-05   1.0248125e-04   3.1129003e-04   4.0802435e-04  -3.5209127e-04   1.3174189e-04   3.9889052e-05   5.0291400e-03   7.4426702e-05  -3.4801408e-07   8.0123828e-05   1.0029128e-02  -6.9129285e-03   3.0526053e-03   2.2252121e-05  -7.6625465e-06  -1.9341841e-04   2.3484993e-04
   1.1419382e-04   1.3405083e-04   6.0598970e-05   1.3109733e-04   8.3311628e-05   1.9061643e-04  -7.7451141e-06   1.5276410e-04   8.4882900e-05   1.2643596e-04   2.4152327e-04   2.3157256e-04   9.6263640e-05  -7.4186864e-05   2.6306880e-05   6.5203170e-07   6.1718405e-05   2.0552031e-04   9.9392550e-05   1.4727615e-04  -5.4276981e-05   1.6663637e-04   1.7617086e-04  -5.0130102e-06   7.6061624e-05  -7.8214456e-05  -3.9820712e-05   1.8776537e-04  -3.1904777e-04   9.3222108e-05   4.0938685e-04  -1.7271770e-04   5.2386480e-05   2.8988675e-04   1.7499134e-04   1.3978351e-04  -2.6595846e-05   1.1145222e-04   1.2854456e-04  -3.1142021e-04  -3.9910421e-05   6.3818392e-05   9.2411894e-05   2.1404913e-03  -4.7260968e-04   1.8022999e-03   8.1280479e-05   1.0792977e-04   5.9756738e-05   2.1869168e-04
   8.1573133e-05   1.3292884e-04   4.1443134e-05   1.2582488e-04   6.4548454e-05   1.9271961e-04   1.0039185e-04  -3.9749419e-05   2.2172341e-04   7.4521711e-05   2.3222073e-04   1.9192001e-04   3.0238740e-04   2.8973462e-05  -5.2073745e-05  -3.2799715e-05   5.1823481e-05   1.7546162e-04   4.4552478e-04   1.8531336e-04  -6.0312912e-05   1.5661876e-04   1.7010763e-04   3.0923315e-05   2.4446269e-04  -3.2836935e-05   7.0172704e-05  -7.6730757e-05   5.8196450e-04   7.6049160e-05   1.8149869e-04   5.2046881e-04   6.9810929e-05   2.6903415e-04   1.8980898e-04  -2.0030404e-04  -1.6619290e-04   5.9443173e-05  -3.6685297e-04   5.7814103e-03  -4.3598531e-05   9.1354232e-06  -7.6439013e-05   5.2223764e-03  -4.0294603e-03  -3.1405394e-03  -2.4433863e-05   2.1694106e-04   3.0502508e-05   8.9962916e-05
   8.3719475e-05   1.3353112e-04   3.8735496e-05   1.2507390e-04   5.9236605e-05   1.6305859e-04   1.1728308e-04   1.0366161e-04   1.9375343e-04  -2.4618741e-05   1.7803548e-04   1.2240601e-04   2.0613256e-04  -7.9397112e-05   1.2980992e-04  -1.1923860e-04   3.5264835e-05   1.0744340e-04   4.3523491e-05   1.5694628e-04  -7.1623639e-05   1.4531967e-04   1.4836318e-04   2.6756854e-05   5.0806545e-04  -3.3117489e-05   3.0574147e-04   3.6549616e-05  -1.5163895e-04   7.9628080e-05   3.7370989e-04   4.4289717e-04  -5.8279861e-06   3.7062680e-04   1.3681974e-04   5.4180581e-04   4.4047541e-04   1.5390301e-04  -1.2685407e-04  -6.6007865e-03  -8.5233896e-06   4.8308568e-05   2.3176991e-04  -1.6130293e-03  -3.5755595e-04  -8.8809780e-04  -9.5261756e-05   6.0424696e-05  -2.2745293e-05   1.4058821e-04
   1.0490588e-04   1.3336629e-04   5.2855390e-05   1.3563536e-04   8.5345018e-05   1.6826659e-04   5.5093013e-05   2.5211531e-04   2.6894236e-04   1.1894661e-04   2.4873213e-04   2.0572105e-04   2.3510143e-04  -6.0926905e-05  -2.9621241e-04   1.8208081e-04   5.9404450e-05   4.4723260e-05   4.0416172e-04   1.7659325e-04  -6.6318054e-05   1.4284089e-04   2.8771904e-04   3.0359504e-05   3.2276267e-04  -1.0082824e-04  -1.5514978e-04  -1.5592173e-04   3.6859766e-04   4.5393361e-05   6.9901202e-05   2.0829715e-04   1.3141912e-04   6.4234402e-05   1.9460991e-04   6.3250971e-04  -3.1430540e-05   8.0297563e-05   4.3904068e-04  -9.7703727e-05   6.8436202e-05   9.9391116e-05  -1.2809578e-04   4.3050139e-03   1.0589982e-02  -2.3262431e-03   1.1362482e-05   8.1220431e-05  -2.5890028e-04   1.0304603e-04
   6.0115653e-05   1.2128236e-04   4.1081745e-05   1.2890843e-04   5.3029853e-05   1.3835677e-04   3.4166696e-05   5.5513177e-05   2.9610805e-04   1.3362718e-04   2.7884095e-04   2.0246724e-04   1.6723464e-04   4.4564465e-05  -3.3207496e-05   1.4361543e-04   5.6062046e-05   9.0214737e-05   1.6672247e-04   1.7636546e-04  -5.9604889e-05   1.2050995e-04   2.5076393e-04   8.7107837e-05   2.8168075e-04  -5.9152761e-05  -1.7307040e-04  -2.1863934e-05  -4.8862683e-04   9.5901894e-05   2.8007090e-04   5.6618691e-04   7.2271243e-05   5.5734272e-04   1.4591929e-04   3.6573576e-04   6.7190925e-04   1.4470806e-04  -2.2014452e-04  -5.4191137e-03   1.0352647e-05   6.7604051e-05   2.7447112e-04  -8.9548491e-03   7.3344577e-03   9.3251001e-03  -4.7069392e-05   1.5897260e-04   1.6293343e-04   2.6218157e-04
   5.6325895e-05   1.1154726e-04   4.4966688e-05   1.4856673e-04   5.0102532e-05   1.9023236e-04  -1.5142346e-04  -6.8302164e-05   1.5787128e-04  -2.7283055e-05   1.9226409e-04   4.4407057e-05   2.7160285e-04   5.8013884e-05  -9.6848016e-05   2.7712420e-04   8.1557911e-05   1.0039111e-04   1.2018643e-04   1.8005959e-04  -6.0454975e-05   1.3000489e-04   1.4097629e-04  -2.9074297e-06   2.2997227e-04   1.6435105e-04   2.2333492e-04  -1.6997727e-05   8.9529209e-04   1.3085234e-04   8.6530541e-05   6.3569867e-04   2.1010549e-04   9.4573828e-04   2.4019780e-04   4.6087135e-04   8.8282606e-05   1.3061744e-04  -1.7943498e-04  -1.1719231e-03  -7.9230776e-05   9.5949345e-06   1.7159965e-04   1.1871584e-03  -2.3206775e-03  -2.6386422e-03  -7.0675283e-05   2.3596731e-05   7.6960396e-06  -1.9344245e-04
   6.4371059e-05   8.5977270e-05   3.1711188e-05   1.7926029e-04   3.1619846e-05   1.3837923e-04   1.5308753e-04   5.1322957e-05   1.4271258e-04  -1.5141230e-04   1.4710074e-04  -9.5166361e-05   1.3041632e-04   1.5647289e-05   1.6147149e-04   2.4746831e-05   7.8055935e-05  -8.7110220e-07   1.6771966e-04   1.5980902e-04  -1.1158822e-04   5.3013871e-05   1.2028214e-04   1.5936030e-05   9.2734153e-05   2.0149953e-04   6.7208319e-05   1.1734372e-05  -5.2925403e-04   9.7551791e-05  -2.2805910e-04   5.1657867e-04   5.7933325e-06   7.7144831e-04   1.6855585e-04   7.0332503e-04  -1.3915954e-04   1.3021335e-04   2.0164250e-04  -4.5824163e-03  -2.9481910e-04   9.2677947e-05   1.4747775e-04   1.5654065e-02  -3.2315121e-03   6.1264751e-03   3.2272132e-05   1.0277339e-04  -2.1341625e-06   2.5033436e-04
   8.9673296e-05   8.0120190e-05   3.7530895e-05   1.0783625e-04   5.6313300e-05   1.5406711e-04   5.8968053e-05   1.4268517e-04   2.5686357e-04   1.8988058e-04   2.7216019e-04   1.5734510e-04   9.3105009e-05  -3.1407956e-06   4.7183530e-05  -4.0221148e-05   6.1223502e-05   1.6589496e-04   9.6378775e-05   1.2503743e-04  -8.8236491e-05   5.8584668e-05   2.1930190e-04   7.2024872e-05   1.3456758e-04   4.8360380e-06   8.2407219e-05   1.7629091e-04   3.1056901e-04   9.4936921e-05   3.5582078e-04   5.1946874e-04  -3.1423657e-05   8.6549547e-04   8.3909610e-05   5.5836188e-04   1.9809714e-04   1.6673472e-04   2.2239693e-04  -1.3422122e-03   1.3278220e-05   7.0889284e-05   5.5606681e-05  -6.3303956e-03  -1.2716237e-03  -5.0764359e-03  -8.1989245e-05   8.2950835e-05   3.5698920e-06   1.7274810e-04
   6.8860965e-05   7.5667667e-05   3.0777370e-05   1.3317751e-04   3.5412362e-05   1.6691348e-04   3.0158781e-05   2.3848328e-05   2.5673199e-04   4.6814093e-05   2.1397849e-04   1.5991802e-05   2.1095973e-04  -5.9827737e-05   1.5269681e-04   1.6280652e-04   6.7275309e-05   2.7946633e-04   3.5939069e-04   1.2607143e-04  -7.1990544e-05   7.0260125e-05   2.2449637e-04   8.9708730e-05  -1.4797470e-04   2.5735519e-04  -1.6423703e-04  -1.6534999e-04   2.1775752e-06   1.4281590e-04   5.3776595e-05   4.9232505e-04   8.9936868e-05   9.2348864e-04   2.8788063e-04  -2.5123399e-04  -4.0146767e-04   1.2138635e-04  -3.9744744e-04  -4.2986600e-03   4.6018697e-04  -3.0870131e-05   1.3348256e-04   7.7490183e-03  -3.6217822e-03   7.5689256e-03  -5.8441608e-05   2.2613931e-04   3.1708416e-05   2.6038699e-04
   6.8296918e-05   8.0381105e-05   3.6603062e-05   1.2478330e-04   4.4035169e-05   1.4774555e-04   2.6482422e-04   1.1937690e-04   1.7059536e-04  -6.5713240e-05   1.8050915e-04  -9.7785696e-06   1.2299127e-04   1.7978760e-04   3.5148205e-05  -3.1473723e-05   3.7701240e-05   1.1952389e-04  -1.0998821e-04   1.4203710e-04  -7.9720907e-05   1.1546305e-04   1.3187338e-04   4.2769756e-05   4.3236752e-04   1.0521631e-04  -3.5185512e-04  -1.4092089e-04   5.5405463e-04   8.2042803e-05   3.7884229e-04   3.1821738e-04   3.1115700e-04   4.2692956e-04   2.6264726e-04   3.4956355e-04   5.2023615e-04   6.1854349e-05  -3.4943898e-04   7.1290326e-03   1.5052829e-04   5.4859731e-05  -2.8058307e-04   1.0008933e-02  -4.3210527e-03  -5.2351865e-04   7.1429356e-05   9.8225748e-05   8.7249231e-05   1.9718659e-04
   8.7612796e-05   9.7882184e-05   4.5603167e-05   1.2781516e-04   5.5890003e-05   1.5008231e-04  -2.4896397e-05   8.8778552e-06   2.2999973e-04   1.4471216e-04   2.7811236e-04   1.7018328e-04   2.5985678e-04   9.3449096e-05   1.6809687e-05   1.5464889e-04   6.6283064e-05   4.0697773e-06   1.3465702e-04   1.6053188e-04  -6.3217332e-05   1.3277649e-04   1.6136863e-04   2.9681618e-05   2.2734821e-04  -4.2349391e-05   5.7125413e-05   1.1342695e-04  -4.5514738e-05   5.4094384e-05   5.5664317e-05  -7.0282535e-05   1.7005021e-05   2.8671275e-04   1.0677490e-04   4.5352068e-04  -2.9216093e-04   5.9444137e-05  -3.9477025e-05   2.5227269e-02   4.4428784e-04   8.4181302e-05   9.4654286e-05   1.1935549e-02   5.1821000e-04  -5.4864185e-03   2.7154296e-05   1.5411033e-04  -3.5380217e-06   2.7185457e-04
   8.0785081e-05   1.0876602e-04   4.7685469e-05   1.2443455e-04   5.6311004e-05   1.3310328e-04   7.6094060e-05   4.1439343e-05   2.7048873e-04   7.2271047e-05   2.5490767e-04   1.3829159e-04   1.9507752e-04   4.3263437e-05  -3.7658008e-04   3.1671635e-04   6.9719783e-05   1.4333428e-04   1.9675684e-04   1.8733148e-04  -7.0183880e-05   1.5329974e-04   2.5034012e-04   3.8044815e-05   9.2059301e-05  -1.6529424e-04   3.4062497e-05   1.6131025e-04   6.7963505e-05   2.8790097e-05  -1.4235890e-04   4.7325146e-05   3.1527030e-04  -3.3675323e-04   9.3234383e-05  -1.3547891e-04   4.6734448e-04  -4.7350210e-07   4.4958474e-04   2.7191145e-03   9.7367832e-05   8.1201484e-05   3.9303023e-04   4.9325009e-03   1.6073981e-02   6.3694185e-03  -4.2044216e-05   2.4828964e-04   3.1873732e-04   2.3368347e-04
   8.1592596e-05   1.0967215e-04   4.9831338e-05   1.2507327e-04   6.7639150e-05   1.6174270e-04   4.4781656e-05   1.1929322e-04   1.8136526e-04  -1.2597458e-05   2.1828443e-04   7.4679287e-05   1.0320996e-04  -2.0018108e-05   2.6110982e-04   2.5941546e-05   5.8328416e-05   3.0755902e-05  -2.3313992e-04   1.7338945e-04  -6.6797671e-05   1.3767432e-04   2.3514620e-04   5.7873509e-05   3.0084566e-04  -1.8439387e-04   2.9750037e-04   1.5551881e-04  -2.5141300e-04   2.2213958e-07   3.0947725e-05   3.1488971e-04   2.2415257e-04  -2.9714391e-04  -1.7214000e-04   6.7948358e-04  -1.1078618e-04   4.3443943e-05  -1.9458545e-04   1.3481206e-03   4.9575779e-04   9.6578711e-05   1.4973996e-04   2.4663482e-03  -2.0076106e-04  -6.1885747e-03  -6.8043148e-05   1.0980930e-04   6.2423816e-05   2.8331613e-04
   1.0009091e-04   1.0885634e-04   6.0884278e-05   1.3192257e-04   8.0444086e-05   1.9812882e-04   9.7369266e-05   1.3811134e-04   3.3012021e-04   1.1466617e-04   2.5369425e-04   1.7355714e-04   1.3495880e-04   7.6538796e-05  -2.9908345e-04  -1.5141188e-04   7.8575067e-05  -1.3770592e-04   2.1155050e-04   1.7669462e-04  -5.2296018e-05   1.7173735e-04   2.1417407e-04   2.0322130e-05   4.0225891e-04  -2.2204749e-04  -3.3779151e-04  -1.4064854e-05   6.0078833e-04  -1.2649934e-05   1.3181167e-04  -6.6688983e-05   5.3455500e-05  -1.7074856e-04  -8.9435314e-05   3.7680048e-04  -3.9466206e-04   3.1935782e-05   3.4104893e-04   8.7983394e-03  -2.3632310e-04   5.9674625e-05   1.7188610e-04  -3.4057675e-03  -2.2940044e-03  -7.8486726e-03  -2.8810220e-05   6.6686611e-05  -1.9046151e-05   3.7681032e-04
   6.7311899e-05   1.1142041e-04   5.0304316e-05   1.3066838e-04   4.9909995e-05   1.3566656e-04   1.7239279e-04   1.1484296e-04   3.1463653e-04   5.9500897e-05   2.6923631e-04   1.4708104e-04   1.7368692e-04   1.0798157e-04   2.2730334e-05   1.2280219e-04   6.9466296e-05   8.1843900e-05   5.0572498e-04   2.0338743e-04  -6.1158898e-05   1.3657137e-04   2.0940686e-04   4.3140513e-05   1.2525942e-04  -2.3413786e-04  -1.6416645e-05  -2.4451558e-05   2.4398905e-04  -7.8988860e-06  -9.1684487e-05   5.3509179e-05   4.7790913e-05  -1.5889898e-04  -4.9966333e-05   1.2964399e-04   1.2404994e-04   2.3967730e-05  -4.8010916e-05   1.6350815e-03   5.4637808e-04   4.8495785e-05   7.1780523e-05   6.0222819e-03   1.3362620e-03   9.1438042e-04  -7.4301533e-05   2.3176576e-04   1.3842486e-04   2.7056554e-04
   6.5049608e-05   1.1190076e-04   4.9027112e-05   1.2922513e-04   6.1477200e-05   1.1600613e-04   1.8449139e-04   1.8275894e-04   2.2140564e-04  -5.7743047e-05   2.1809810e-04   7.8081583e-05   1.6780017e-04   9.3787196e-05  -1.8823146e-05   2.6368894e-04   9.9779798e-05   6.3305575e-05   2.5053805e-05   2.0470377e-04  -6.6092383e-05   1.6019598e-04   2.2139611e-04   1.6070600e-05  -2.3366181e-05  -2.8229697e-04   3.9333274e-04   2.8638762e-05   5.8970699e-04  -3.8966948e-05   2.4943255e-04  -6.7967057e-06  -1.8739974e-04  -2.0343854e-04   2.0171494e-05   1.4960002e-04   6.2038552e-04  -3.0043460e-05   3.3120878e-04  -6.9627068e-03   1.4551848e-04   7.4419535e-05   2.0659478e-04   2.9521992e-03   2.2757025e-02   2.1615787e-03  -9.8803110e-05   2.9063292e-04   2.6682552e-04   2.7296078e-04
   6.1564402e-05   1.0762121e-04   5.6060413e-05   1.2861322e-04   5.7440666e-05   1.3129461e-04   1.9142174e-04   9.0334361e-06   2.0246441e-04  -1.6521872e-04   1.7507594e-04  -4.4495232e-06   1.4306586e-04   7.1290546e-05  -4.1350294e-04   1.7397964e-04   7.5885342e-05   8.1795377e-05  -3.0701837e-04   2.2344643e-04  -6.1649072e-05   1.4860359e-04   1.9848974e-04   3.3667922e-05   2.4251730e-04  -2.7166694e-04   2.2057458e-04   2.0940408e-04   1.0344548e-03  -1.3144295e-05   3.1526911e-04   1.2719733e-04   2.5777947e-04  -6.5207743e-04  -2.1853980e-04   3.9644589e-04   3.3525974e-04  -5.6263860e-05   4.3979543e-04  -1.9805355e-03   9.4849798e-05   9.1239461e-05   1.5747546e-04   2.0770668e-03   5.0213845e-03  -2.4493660e-03   4.4460128e-05   2.5740030e-04   2.7598118e-04   2.6959667e-04
   6.7052504e-05   1.0537508e-04   5.3691172e-05   1.3365516e-04   6.4954904e-05   1.5036161e-04   7.7595425e-05   1.2853797e-04   2.8606207e-04   3.8495975e-05   2.6319819e-04   1.3127539e-04   8.9674919e-05   7.0426380e-05  -3.0948163e-04   2.1888966e-04   9.3260875e-05   1.3192229e-05   2.2251723e-05   2.0746927e-04  -6.5640634e-05   1.5076582e-04   2.1510618e-04   4.9931172e-05   1.4813998e-04  -3.2053093e-04  -3.5611560e-04   1.4859371e-04   9.1529038e-04  -1.6552251e-05   4.9477963e-05   1.7529838e-04   2.0522634e-04  -5.1981554e-04   1.1065791e-04  -3.4508345e-04   5.7697855e-04  -4.0408107e-05  -3.8964377e-04  -1.8832691e-04   2.7678048e-04   8.5432694e-05   3.2067494e-04   4.5262007e-03   9.3168290e-03   7.0474735e-03   2.8501530e-05   1.6428428e-04   2.9639961e-04   1.6625813e-04
   3.9617396e-05   1.0297506e-04   4.8227292e-05   1.2890654e-04   6.3157764e-05   1.8991347e-04   1.8398062e-04   2.2461561e-04   2.3761510e-04  -3.9644015e-05   2.2900841e-04   9.0175912e-05   1.3523006e-04   1.2205082e-04  -5.7352992e-04   2.9111039e-04   7.1052629e-05   1.6440531e-04   3.0051242e-04   2.1102581e-04  -7.6568569e-05   1.1984768e-04   1.9568276e-04   1.3965454e-05   2.7226232e-04  -3.0275580e-04   2.1007888e-04   6.3579477e-04   1.3090369e-04  -1.2163348e-05  -3.9606675e-05   8.0948535e-05   4.0586025e-04  -2.9300179e-04   8.8722700e-05  -4.4908433e-04   1.1632943e-03  -2.7963189e-05  -1.0048166e-04  -2.7725957e-03   2.7133760e-04   7.4496224e-05  -2.2153485e-05   2.6271788e-03   3.6779516e-03  -6.4153154e-03   3.6507685e-05   2.3303760e-04   3.2670581e-04   4.5609129e-05
   4.4626559e-05   9.5016621e-05   5.2491250e-05   1.3409775e-04   5.9053098e-05   1.4215655e-04   1.7433705e-04   1.0254707e-04   2.7256363e-04  -1.5369171e-04   1.8002918e-04   1.3490331e-05   7.4110416e-05   1.5452161e-04   6.4202548e-05   2.2304682e-04   1.0279234e-04   2.1433154e-06   4.5000648e-04   2.1009574e-04  -7.8229350e-05   9.7929857e-05   2.2731682e-04   3.0955081e-05   5.2755087e-05  -2.6324828e-04   3.0668458e-04   3.7020029e-05  -2.5801719e-04  -4.6248911e-06  -1.5412242e-04  -2.8168238e-04   3.2013125e-04  -7.7779283e-04   6.0828021e-05   2.1119733e-04   2.7648243e-04  -8.9964597e-05   9.3210902e-04   1.2145043e-02   1.1784862e-04   1.1929290e-04   2.9925629e-04   6.4670485e-03  -6.2934990e-04  -1.7830137e-03  -7.9750089e-06   1.3272819e-04   2.5897764e-04   3.5038294e-04
   5.0018854e-05   9.5351723e-05   4.8609792e-05   1.3415533e-04   6.7657893e-05   1.2746901e-04   1.5903513e-04  -3.1276570e-05   2.8090557e-04   2.4746230e-05   2.5795886e-04   1.4140159e-04   1.8917405e-04   1.9588249e-04  -2.4977874e-04   7.3188319e-05   1.0913804e-04   4.5305591e-05   2.6921328e-04   2.1075948e-04  -7.1063761e-05   9.9895726e-05   2.5206877e-04   3.8551862e-05   2.5829638e-04  -1.7961790e-04   1.5662216e-04   1.4046702e-05   1.4914612e-04  -8.8717354e-07   1.0703968e-04   2.3835270e-04   1.7868052e-04  -1.1646131e-04   7.1953080e-05   5.6512450e-04   5.5714004e-04   4.9601731e-06   6.5619079e-04   1.8758291e-02   2.4186212e-04   8.9748697e-05   1.3185025e-04  -2.8744370e-03  -5.3274829e-04  -3.8815990e-05   8.9560535e-06   2.6470772e-04   1.8218186e-04   2.0447365e-04
   2.7974513e-05   8.8294299e-05   3.8191713e-05   1.3997786e-04   4.6758956e-05   1.7546809e-04   9.8922566e-05   4.9623311e-05   3.2722537e-04  -5.7773068e-05   2.3839939e-04   6.4258580e-05   1.9216081e-04   1.4488396e-04   3.0663785e-05   2.1535657e-04   9.8051707e-05   8.7361070e-05   3.8650405e-04   2.1655232e-04  -7.6071752e-05   6.5797998e-05   9.8773467e-05   5.8272053e-05   2.2806584e-04  -1.0169345e-05  -1.1461669e-04   1.4428048e-04   9.5965603e-04   6.6072367e-05   2.8615701e-04  -1.5224665e-04   1.7432404e-04   1.6542053e-04   2.6662202e-04  -6.0685004e-05   2.9962236e-04   1.6079914e-04   1.4336451e-04   2.1484427e-03   7.5018201e-05   5.1211904e-05   1.3668016e-04   1.2163021e-02   7.3651463e-04   4.3544252e-04  -2.0796770e-05   8.9096124e-05   1.8371442e-04   2.4901429e-04
   5.2498839e-05   7.5540847e-05   5.9676375e-05   1.6945701e-04   6.7983048e-05   1.6250185e-04   2.0699407e-04   2.9352342e-04   3.3455307e-04  -2.0298394e-04   1.7858528e-04  -6.5424007e-05   1.8362577e-04   9.8493059e-05   8.7652857e-05   5.6688094e-07   7.9821846e-05   5.8670303e-05   1.7722050e-05   2.1327726e-04  -7.8568577e-05   4.1110088e-05   1.7684361e-04   2.2039803e-05   1.7334571e-05   7.7177428e-05   3.7705948e-04   6.2884603e-05   3.4938956e-05   9.6116004e-05  -1.5295247e-05  -4.7350859e-05   1.1785472e-04   2.5303353e-04   1.7167044e-04  -2.7581773e-04  -4.7497099e-04   1.4902627e-04   4.5601424e-04   8.7196945e-04   2.7836219e-04   6.1309162e-05   3.0234386e-04   1.4939412e-02   1.1179361e-02  -5.4381709e-03   1.3854749e-04   2.1869216e-04  -6.8652676e-06   2.6421741e-04
