  -2.0497134e-03  -1.1600066e-03  -1.4641398e-03  -1.2479094e-03  -1.4084671e-03  -8.1271416e-04  -8.8973739e-04  -5.1241234e-04  -9.6169679e-05   1.8745979e-04   2.0776926e-04  -5.1000813e-04  -4.5327880e-04  -7.3194812e-04  -1.1140157e-03  -6.0165831e-04  -1.2339051e-03  -9.0401986e-04   4.5996727e-04   3.2422708e-05  -1.8005927e-04  -8.7793899e-04  -3.4388120e-04  -5.2351074e-04  -8.7296736e-04  -8.4562285e-04  -6.0801249e-04  -1.0990078e-03  -7.3268835e-04  -3.8031477e-04  -8.3186204e-04  -4.4792096e-04  -2.0651240e-04  -5.9870619e-04  -9.6812064e-04  -4.3518323e-04  -3.9728428e-04  -1.0125512e-03  -7.7973236e-04  -3.9215531e-04   5.9130054e-04   5.0755101e-04   6.8226014e-04   9.9083816e-05  -6.2210995e-05   7.3314895e-04  -3.3775874e-04   1.1566421e-03   4.8660630e-04   1.3847296e-03
  -1.8226092e-03  -1.2629877e-03  -1.4922079e-03  -1.3220328e-03  -1.6059078e-03  -9.9832180e-04  -9.7780500e-04  -7.5173762e-04  -3.9633762e-04   1.2752901e-04   1.2327876e-04  -5.9246435e-04  -5.2172004e-04  -8.2726486e-04  -1.2791872e-03  -6.6554866e-04  -1.3228427e-03  -9.2897704e-04   4.4215136e-05  -5.9980197e-05  -3.1582839e-04  -1.0133969e-03  -3.5241229e-04  -6.8179966e-04  -9.7424106e-04  -1.0126070e-03  -7.5217878e-04  -1.1588798e-03  -7.2112941e-04  -4.8524266e-04  -8.3735352e-04  -4.1947537e-04  -4.0600065e-04  -6.6748878e-04  -1.2026313e-03  -5.0139811e-04  -5.3142343e-04  -1.0445468e-03  -8.6996960e-04  -8.7944907e-04   3.9006339e-04   3.5571202e-04   6.0417521e-04  -3.3063538e-04  -1.2300922e-04   5.6386070e-04  -5.4184278e-04   7.8480685e-04   2.0970579e-04   9.9817186e-04
  -2.1374964e-03  -1.6827029e-03  -1.6647467e-03  -1.6402409e-03  -1.9002875e-03  -1.4582808e-03  -1.3221798e-03  -1.0698724e-03  -7.1993808e-04  -1.8261786e-04  -1.3933697e-04  -9.0181699e-04  -7.1843766e-04  -1.0518973e-03  -1.5962909e-03  -9.0794853e-04  -1.5416805e-03  -1.0620373e-03  -2.6881849e-04  -3.5068826e-04  -5.2552245e-04  -1.1546143e-03  -7.9748669e-04  -1.4416289e-03  -1.4914889e-03  -1.5350184e-03  -8.7940943e-04  -1.3753747e-03  -1.0026644e-03  -6.9165294e-04  -1.1068897e-03  -8.1816351e-04  -4.8447249e-04  -1.0602549e-03  -1.5585322e-03  -8.7891123e-04  -7.8614021e-04  -1.2901449e-03  -1.1576321e-03  -1.1685991e-03   2.0989669e-04   1.9116975e-04   3.7252597e-04  -5.9223053e-04  -6.6727068e-04   4.5488714e-04  -5.3980603e-04   8.8981626e-04   4.3779131e-04   1.4041852e-03
  -1.9822097e-03  -1.4469922e-03  -1.5988045e-03  -1.2931240e-03  -1.5392202e-03  -8.8411558e-04  -1.0313672e-03  -6.6637323e-04  -3.5961304e-04  -6.6466317e-05  -5.9745585e-06  -6.1871333e-04  -6.0983491e-04  -9.0099475e-04  -1.3890613e-03  -7.0808420e-04  -1.4984007e-03  -9.0745202e-04   9.8649245e-05  -3.5936682e-05  -1.3123265e-04  -9.0639776e-04  -4.2128190e-04  -1.1504620e-03  -4.1326007e-04  -1.0485623e-03  -7.6742412e-04  -1.4155918e-03  -1.0125618e-03  -4.9381366e-04  -7.1265770e-04  -5.2180508e-04  -4.3493776e-05  -4.7819008e-04  -1.1780849e-03  -4.3846510e-04  -5.1170483e-04  -1.1411274e-03  -9.3717291e-04  -4.8634358e-04   2.8563981e-04   3.4568793e-04   4.0031888e-04  -5.3064432e-05   1.9181125e-04   5.8122631e-04  -4.7756694e-04   6.3959823e-04   6.3069194e-04   1.1923555e-03
  -1.8366573e-03  -1.2878574e-03  -1.5837811e-03  -1.3073655e-03  -1.3919587e-03  -1.0308897e-03  -1.0693485e-03  -8.0077595e-04  -5.9873203e-04  -3.9087907e-05  -7.4623968e-05  -7.9661567e-04  -8.7897165e-04  -1.1316977e-03  -1.5552922e-03  -7.2087412e-04  -1.5017355e-03  -9.4852608e-04   2.5281726e-04  -1.5963751e-04  -1.2389362e-04  -1.0417759e-03  -6.8348076e-04  -4.5085791e-04  -9.4344217e-04  -1.3134712e-03  -7.9371000e-04  -1.4867639e-03  -1.0896485e-03  -7.8113202e-04  -9.3890814e-04  -8.0328085e-04  -2.9426426e-04  -7.1726751e-04  -1.3376721e-03  -9.3580107e-04  -8.7004277e-04  -1.3134547e-03  -1.3043741e-03  -9.6646819e-04  -2.6862446e-04  -1.0182538e-04  -5.8681955e-05  -6.8378146e-04  -5.3482341e-05  -2.8013058e-06  -9.7066874e-04   4.9434014e-04   2.6325861e-04   8.7650050e-04
  -1.7794601e-03  -1.5057151e-03  -1.2179505e-03  -1.2702093e-03  -1.3088471e-03  -1.1943679e-03  -1.2496399e-03  -1.1708401e-03  -8.9724053e-04  -5.4318184e-04  -7.1392342e-04  -1.3873857e-03  -1.5159481e-03  -1.7552054e-03  -1.9529471e-03  -1.1744463e-03  -2.1298160e-03  -1.1350084e-03  -9.3130802e-04  -8.2417222e-04  -4.8534790e-04  -1.1085448e-03  -1.1180865e-03  -1.8141159e-03  -1.9668390e-03  -1.5582490e-03  -8.7459426e-04  -1.7745080e-03  -1.4487687e-03  -9.9688175e-04  -1.3032455e-03  -1.2256559e-03  -6.9949561e-04  -7.1267009e-04  -1.5746462e-03  -1.1459026e-03  -1.1939147e-03  -1.6929826e-03  -1.7130872e-03  -1.1330161e-03  -6.7657355e-04  -2.4957772e-04  -2.6938086e-04  -1.1450205e-03   4.0349390e-05  -1.1577993e-03  -1.1941042e-03   3.9419800e-05  -2.8737102e-04   1.5137742e-04
  -1.1480217e-03  -9.0730912e-04  -8.3558925e-04  -8.5682864e-04  -6.5520371e-04  -3.0637873e-04  -5.8321614e-04  -7.5093441e-04  -1.6840170e-04  -1.0753176e-04  -7.0617034e-04  -7.7355257e-04  -1.4353656e-03  -1.5602764e-03  -1.6726609e-03  -9.3528413e-04  -2.2881641e-03  -1.0069826e-03  -6.5285712e-04  -6.9208012e-04  -1.5265470e-04  -9.9599839e-04  -4.6827429e-04  -1.0385306e-03  -1.3134271e-03  -4.3139808e-04  -5.2519015e-04  -1.7644265e-03  -1.3206784e-03  -8.0647459e-04  -1.2773330e-03  -9.3247724e-04  -4.9498421e-04  -8.9518857e-05  -1.0367342e-03  -7.4880163e-04  -1.0567405e-03  -1.4216769e-03  -1.2909754e-03  -5.7802559e-04  -4.0619358e-04   1.1680868e-04  -1.4961367e-04  -1.1667582e-03  -2.5486902e-04  -1.3325150e-03  -1.1036122e-03   1.5150203e-04  -1.4740115e-04   5.8716731e-05
  -3.2667504e-04  -4.8235361e-04  -5.7487501e-05  -5.0108886e-04  -3.8673831e-04  -2.3403972e-04  -5.3484732e-04  -8.4915222e-04  -2.2311720e-04  -4.5460800e-04  -9.4023376e-04  -6.2669505e-04  -1.4608091e-03  -1.5824770e-03  -1.6759373e-03  -9.8985655e-04  -2.2971090e-03  -9.7708148e-04  -5.7057117e-04  -1.2159464e-03  -5.6148018e-04  -7.0573611e-04  -6.9897319e-04  -1.0371801e-03  -1.2339653e-03  -4.5529165e-04  -4.9376948e-04  -1.6664871e-03  -1.1858344e-03  -8.0386992e-04  -1.0950501e-03  -8.8092615e-04  -5.1403919e-04  -2.4620665e-05  -9.5170748e-04  -5.2357622e-04  -1.1011447e-03  -1.1057090e-03  -1.1691530e-03  -4.5881071e-04  -4.4405722e-04  -9.6593896e-05  -3.4327232e-04  -5.6496548e-04   3.1653039e-05  -1.3918831e-03  -1.2039582e-03  -7.0648302e-06  -1.4039870e-04  -6.9114508e-06
  -1.6598098e-04  -6.3758739e-04  -2.8636985e-04  -5.2831142e-04  -2.7071338e-04  -4.6227695e-04  -8.5139822e-04  -1.0572001e-03  -5.3138356e-04  -8.1285462e-04  -1.1882727e-03  -7.9751253e-04  -1.6623527e-03  -1.7212156e-03  -1.7389109e-03  -1.1460574e-03  -2.3558806e-03  -9.4885094e-04  -9.9527312e-04  -1.4780072e-03  -8.3200657e-04  -7.3221239e-04  -1.3737680e-03  -1.4143717e-03  -1.2759080e-03  -8.6716574e-04  -6.1991659e-04  -1.5708590e-03  -1.1182072e-03  -9.5398433e-04  -1.1632994e-03  -1.1514733e-03  -5.1128352e-04  -2.8194155e-04  -1.1643241e-03  -9.7371632e-04  -1.2948102e-03  -1.1908800e-03  -1.3113664e-03  -5.6152587e-04  -5.4431829e-04  -1.7410837e-04  -4.9709465e-04  -2.2943538e-04   1.6382340e-04  -1.4437571e-03  -1.0659822e-03  -1.1006459e-04  -7.9954094e-05   4.2385975e-04
  -2.0349305e-04  -3.9974827e-04  -1.2859434e-04  -3.6496841e-04  -3.8731759e-04  -1.1304638e-04  -4.2417768e-04  -6.5435085e-04  -1.9639682e-04  -5.2227383e-04  -9.4512460e-04  -4.9327797e-04  -1.3541041e-03  -1.3479022e-03  -1.5095577e-03  -9.2265691e-04  -2.0178868e-03  -8.0680917e-04  -5.5024331e-04  -1.0762836e-03  -4.1684232e-04  -4.6407458e-04  -5.6860474e-04  -9.8200794e-04  -1.4188848e-03  -3.7023661e-04  -4.5161470e-04  -1.4041675e-03  -8.6990121e-04  -7.4760336e-04  -7.2670582e-04  -5.9412967e-04  -4.9761258e-04  -2.1933434e-05  -7.6901505e-04  -5.8442861e-04  -1.0397214e-03  -8.6623209e-04  -1.0735667e-03  -2.6855955e-04  -3.0270734e-04  -2.1292685e-04  -9.2108392e-05  -6.3034735e-04  -2.3092955e-04  -1.1122320e-03  -9.7124779e-04  -1.9533515e-04  -2.2880347e-04   3.4566649e-04
  -8.7163068e-04  -6.3277269e-04  -7.0376368e-04  -4.9692288e-04  -7.7500037e-04  -5.1080273e-04  -6.5862527e-04  -7.4801181e-04  -4.4279202e-04  -7.0182869e-04  -9.7300328e-04  -5.1649299e-04  -1.4349425e-03  -1.3013355e-03  -1.5570277e-03  -9.0291572e-04  -1.8700028e-03  -7.7241653e-04   4.3453646e-04  -1.0789342e-03  -6.0255791e-04  -4.2948179e-04  -6.4359180e-04  -9.2571520e-04  -1.7215137e-03  -8.6446619e-04  -5.9583987e-04  -1.2546084e-03  -9.0380205e-04  -7.4120372e-04  -8.9129154e-04  -9.1657939e-04  -3.2335063e-04  -2.2361147e-04  -8.5739733e-04  -7.4463570e-04  -1.0609681e-03  -8.5509650e-04  -1.0351904e-03  -6.0663081e-04  -2.8552854e-04  -1.0518308e-04  -1.5801397e-04   7.2920426e-05  -3.5913807e-04  -9.6950255e-04  -1.0359766e-03  -3.6067388e-04  -1.8142418e-04   5.2416592e-05
  -1.6059791e-03  -1.1002163e-03  -1.0303010e-03  -8.4076927e-04  -1.3051681e-03  -9.5446222e-04  -9.4841205e-04  -1.0657475e-03  -7.5071317e-04  -1.0631790e-03  -1.3020984e-03  -8.6380064e-04  -1.6479988e-03  -1.5635580e-03  -1.6575760e-03  -1.0677913e-03  -1.9190917e-03  -8.9291064e-04  -6.7928236e-04  -1.2012273e-03  -6.8789907e-04  -6.5477961e-04  -8.5800799e-04  -9.3100760e-05  -1.3753884e-03  -6.1050715e-04  -5.7226728e-04  -1.1642105e-03  -7.5984746e-04  -6.5608654e-04  -7.2157331e-04  -5.8347464e-04  -4.3440491e-04   2.7730212e-06  -6.7488535e-04  -3.3422979e-04  -7.5919321e-04  -6.6685863e-04  -8.4123155e-04  -1.3860005e-04   5.7485686e-05   1.6646287e-04  -2.9202670e-04  -2.0572433e-04   2.8852749e-04  -5.2826572e-04  -7.0303283e-04   5.7665445e-04  -2.7045433e-04   7.0037227e-04
  -1.2547467e-03  -5.3183385e-04  -1.0485465e-03  -4.4965040e-04  -7.4142753e-04  -1.6817950e-04  -4.6308854e-04  -5.7862489e-04  -2.5168626e-04  -5.7130062e-04  -8.6160441e-04  -3.5173216e-04  -1.2619764e-03  -1.1212963e-03  -1.3352772e-03  -6.9963839e-04  -1.5623039e-03  -6.3663803e-04  -3.9667016e-04  -9.6885138e-04  -3.8538684e-04  -4.2499549e-04  -4.7586570e-04  -1.5428635e-04  -7.5737806e-04  -5.0522253e-04  -4.3727976e-04  -1.2405822e-03  -6.1558461e-04  -4.8896467e-04  -5.3203647e-04  -4.5020491e-04  -2.7392065e-04   1.1257987e-05  -6.3866825e-04  -2.7099159e-04  -7.3859282e-04  -6.0953834e-04  -7.1896910e-04  -1.5474750e-04   7.5791053e-05   2.6187449e-04  -4.0224803e-04  -8.7469911e-05  -1.9560980e-04  -7.9487934e-04  -7.1948540e-04  -1.0221794e-04  -1.0669090e-04   4.1859702e-04
  -1.3515799e-03  -7.3461008e-04  -1.0367074e-03  -6.0303678e-04  -8.7699865e-04  -4.0235370e-04  -5.5295520e-04  -5.5445166e-04  -3.9929347e-04  -6.8376854e-04  -1.0157329e-03  -4.5997696e-04  -1.3670835e-03  -1.1513326e-03  -1.4183337e-03  -7.7533571e-04  -1.6003471e-03  -6.2812318e-04  -9.8785106e-04  -1.0645955e-03  -5.2947045e-04  -3.5961720e-04  -6.4422743e-04  -8.1423012e-04  -6.3826283e-04  -7.9103257e-04  -5.2735163e-04  -1.0103423e-03  -6.7788706e-04  -5.4829853e-04  -9.3482720e-04  -5.6490261e-04  -3.8536717e-04  -1.7959770e-04  -8.4937754e-04  -5.8674387e-04  -8.2453550e-04  -6.7382422e-04  -8.6721370e-04  -5.4708374e-04  -2.3177492e-04  -8.6991909e-05  -1.7685927e-05  -3.0023721e-04  -2.5293519e-04  -5.5242906e-04  -9.3392213e-04  -1.9842407e-04  -7.9667062e-04   2.0694202e-04
  -1.8625930e-03  -1.1436630e-03  -1.2307453e-03  -8.3874055e-04  -1.0727769e-03  -4.4095784e-04  -6.3838519e-04  -6.8902620e-04  -1.3583693e-04  -5.1581720e-04  -9.4190240e-04  -3.4526738e-04  -1.1837237e-03  -9.8954688e-04  -1.1301039e-03  -6.2361691e-04  -1.4667240e-03  -5.1027088e-04   1.0255328e-04  -8.4274064e-04  -1.3396096e-04  -9.0797155e-05  -3.1873194e-04  -9.5211966e-05  -1.5527478e-03  -1.5570699e-04  -2.5492182e-04  -9.8380400e-04  -3.9514134e-04  -2.3696439e-04  -5.8504741e-04  -3.5338299e-04  -1.1795104e-04   2.7239174e-04  -2.9421822e-04   7.8785124e-06  -4.2087343e-04  -3.4193814e-04  -4.5365139e-04  -2.1295441e-06   3.0408759e-04   2.9269452e-04   1.4418813e-04   5.0269801e-04   3.8856702e-05  -5.6055062e-05  -5.0257542e-04   5.2816106e-04  -2.5361853e-05   7.2138326e-04
  -1.4764859e-03  -5.8179471e-04  -1.1223063e-03  -4.3459909e-04  -7.5182802e-04  -2.1280810e-04  -2.8301010e-04  -3.4978954e-04  -1.2076835e-04  -3.8912045e-04  -8.0781977e-04  -2.2958752e-04  -1.0284440e-03  -8.6105912e-04  -1.0167221e-03  -5.4080953e-04  -1.3859383e-03  -4.0497576e-04  -3.0526731e-04  -8.4045139e-04  -1.7151603e-04  -1.0716839e-04  -2.9112541e-04   1.0927824e-04  -2.3496276e-04  -2.6993139e-04  -3.4452038e-04  -9.3769946e-04  -4.6827749e-04  -2.3352915e-04  -4.9922417e-04  -1.7974783e-04  -7.6577817e-05   2.0984981e-04  -3.8372650e-04  -6.2711777e-05  -4.6815953e-04  -3.3346511e-04  -4.7038172e-04   4.3724882e-05   3.1490574e-04   3.9566844e-06   2.6933238e-04   3.7810850e-04  -3.2005257e-05  -2.5129324e-04  -5.2515848e-04   1.1770562e-04  -3.6251562e-04   5.9721450e-04
  -1.8848581e-03  -7.9596747e-04  -1.2742181e-03  -6.1674486e-04  -9.8489749e-04  -3.8289936e-04  -4.9544801e-04  -4.6381558e-04  -4.4538395e-04  -5.6874455e-04  -1.0059078e-03  -3.7380928e-04  -1.2102999e-03  -9.9656172e-04  -1.1664489e-03  -6.4428360e-04  -1.4663184e-03  -5.1030953e-04  -9.1983541e-04  -1.1015771e-03  -4.6700650e-04  -1.3380111e-04  -2.4970583e-04  -8.5964840e-04  -7.7848521e-04  -6.5318152e-04  -3.6676822e-04  -8.3143089e-04  -4.7608756e-04  -4.1979356e-04  -7.8135787e-04  -4.4564923e-04  -3.3213245e-04  -9.6736578e-05  -7.2735705e-04  -4.1885063e-04  -6.8412733e-04  -4.5751146e-04  -6.6312304e-04  -2.5155584e-04   1.3719098e-05  -1.7303684e-05   1.0952957e-04  -4.0098984e-04  -2.9642191e-05  -3.7982099e-04  -5.7702203e-04   4.3538297e-04  -2.9915455e-04   6.8458111e-04
  -1.7905569e-03  -6.1945786e-04  -1.2599453e-03  -4.7717249e-04  -6.4545014e-04  -2.0799271e-05  -1.8297028e-04  -1.5260246e-04   2.0465424e-04  -2.0357870e-04  -6.9147558e-04  -2.7422206e-05  -9.1036770e-04  -6.0957571e-04  -8.7507413e-04  -3.7924686e-04  -1.2657434e-03  -3.2429936e-04   1.7418803e-05  -7.0565549e-04   1.0223821e-04   2.1102246e-04   3.0765503e-05   5.2215683e-04  -4.7540051e-04  -5.3934164e-05  -1.1892053e-04  -7.9042383e-04  -2.9926957e-04  -1.5544651e-05  -4.3365828e-04  -6.3429259e-05   1.7808467e-04   4.9311179e-04  -6.7319270e-05   4.8970207e-05  -1.8465138e-04  -8.8690314e-05  -1.7763724e-04   2.8532842e-04   5.4667745e-04   4.6967471e-04   7.5919474e-05   6.1266037e-04   2.9535231e-04   1.2137978e-04  -2.0555916e-04   6.7359762e-04  -3.7567625e-05   9.7398978e-04
  -1.4181545e-03  -5.3320278e-04  -1.2679831e-03  -4.3643115e-04  -6.7665399e-04   5.4258009e-05  -1.5174755e-04  -1.7567568e-04   7.4423217e-05  -1.9928280e-04  -6.9379481e-04  -6.4219785e-05  -8.3611096e-04  -5.9459126e-04  -6.8500364e-04  -3.4312086e-04  -1.1966093e-03  -3.0506853e-04  -4.4121043e-04  -7.3240156e-04   3.0611152e-06   1.6096767e-04  -2.7205874e-04   3.7649999e-04  -1.3481537e-04  -2.3351205e-04  -7.8142708e-05  -6.3368009e-04  -2.0443214e-04  -4.5381101e-05  -5.3357013e-04  -2.0500140e-04   3.8846521e-04   3.3333161e-04  -1.5318638e-04   4.0783470e-06  -2.5938472e-04  -1.2971464e-04  -2.5931688e-04   2.5920485e-04   4.2782584e-04   3.6459332e-04   4.4808668e-04   5.9577182e-04   5.2725489e-04  -1.5065174e-04  -3.2895929e-04   4.8836839e-04   1.3344829e-05   7.3665130e-04
  -1.7559952e-03  -8.0098677e-04  -1.4398671e-03  -7.0997857e-04  -8.9553854e-04  -4.0647169e-04  -4.4042672e-04  -4.2264184e-04  -2.4870649e-04  -5.0531351e-04  -9.6428930e-04  -3.1344173e-04  -9.9140673e-04  -7.4941927e-04  -9.2878687e-04  -5.4662104e-04  -1.3442808e-03  -4.1235506e-04  -4.9271923e-04  -9.9812413e-04  -3.9822343e-04  -1.7244853e-04  -5.3202163e-04   4.5507844e-04  -9.7792898e-04  -4.5337691e-04  -3.2226392e-04  -7.1808073e-04  -3.4734234e-04  -2.4026437e-04  -6.4363593e-04  -3.6784846e-04  -2.9265712e-04   1.1366376e-05  -4.5421653e-04  -2.7177949e-04  -4.8072037e-04  -3.4006621e-04  -4.7578424e-04  -3.9189862e-04   1.8364220e-04   9.3380004e-05   1.3305194e-04  -2.4876977e-05   1.2198243e-04  -1.9254675e-04  -5.7895179e-04   2.1340734e-04  -4.6570611e-04   5.0522457e-04
  -2.1626470e-03  -9.7947742e-04  -1.5756882e-03  -7.0380961e-04  -7.7622780e-04  -1.6204697e-04  -2.3411501e-04  -1.8805833e-04   1.9446319e-05  -2.7471775e-04  -7.5579289e-04  -1.1205600e-04  -8.0025411e-04  -5.0149555e-04  -5.6475255e-04  -3.8727582e-04  -1.2167039e-03  -3.9515921e-04  -6.0494269e-05  -6.9484790e-04   8.9622685e-05   1.2240015e-04   3.2206508e-04   1.0494319e-03  -3.0092208e-04   2.5830453e-04  -1.2303748e-07  -5.3131254e-04  -2.8228553e-04   8.3331499e-05  -4.2237440e-04  -3.0699996e-06   3.7481220e-04   4.5803160e-04   3.9799511e-06   2.7604742e-04  -3.9969054e-05  -7.7731915e-05   1.4387168e-06   5.1067269e-04   7.4420351e-04   4.7277211e-04   8.0928003e-04   9.1873063e-04   2.1207510e-04   3.4590409e-04  -1.5066483e-04   2.9037814e-04   1.8582084e-04   9.8570983e-04
  -1.8725010e-03  -5.8348227e-04  -1.5115781e-03  -5.5717799e-04  -8.4665878e-04  -1.1525919e-04  -1.9835796e-04  -2.5288327e-04   1.9907919e-05  -3.0283807e-04  -7.0098962e-04  -1.7649302e-04  -7.7396224e-04  -4.2306111e-04  -6.0074939e-04  -3.5212238e-04  -1.1910263e-03  -3.8272236e-04  -3.3415842e-04  -7.5272447e-04   2.3917357e-05   3.2003853e-05  -5.2773819e-05   2.9256553e-04  -7.8692264e-04   7.0105372e-05  -1.1983750e-04  -3.6613856e-04  -2.7590070e-04   3.6976093e-05  -4.4185511e-04  -1.9631870e-04   3.6828038e-05   3.1839989e-04  -9.9708239e-05   5.0679544e-05  -1.7305985e-04  -1.2222520e-04  -7.9758211e-05   3.8879461e-04   5.4009398e-04   3.2376451e-04   5.5744487e-04   2.3367735e-04   2.3681732e-04   2.6725422e-04  -2.6606568e-04   8.8595127e-04  -2.6609222e-04   7.6352555e-04
  -1.9806908e-03  -8.4331789e-04  -1.6282833e-03  -7.9085713e-04  -1.0697560e-03  -4.0639701e-04  -4.3151813e-04  -3.5065869e-04  -1.9664853e-04  -6.1956042e-04  -9.6398761e-04  -4.7315579e-04  -1.0176190e-03  -6.9245341e-04  -7.7408476e-04  -5.5084913e-04  -1.3739968e-03  -5.0668168e-04  -7.9047022e-04  -9.7252004e-04  -3.4912041e-04  -2.9300101e-04  -5.7659857e-04  -1.9829861e-04  -6.9379684e-04  -4.8217323e-04  -2.8957118e-04  -5.2188645e-04  -3.8785121e-04  -1.9856327e-04  -7.7249564e-04  -4.7815917e-04  -1.9009746e-04  -5.1883133e-05  -5.2492088e-04  -2.5706389e-04  -4.1279817e-04  -3.5763375e-04  -3.6567205e-04  -2.9701821e-04   2.5396579e-04   8.9572859e-05   3.1144245e-04   8.5235079e-04  -6.4173713e-05   1.1304540e-04  -5.3165545e-04   3.5165076e-04  -5.4901460e-04   5.0998502e-04
  -2.3441091e-03  -1.2593963e-03  -1.9713456e-03  -1.2498385e-03  -1.3968927e-03  -7.7377609e-04  -8.5556961e-04  -7.3446071e-04  -6.6112616e-04  -9.2328835e-04  -1.2716338e-03  -7.8390160e-04  -1.2364140e-03  -9.9924917e-04  -9.8361645e-04  -7.7657826e-04  -1.5487133e-03  -6.8319088e-04  -3.0163649e-04  -9.9106610e-04  -2.6505382e-04  -3.7202908e-04  -4.7202429e-04  -2.7991433e-04  -6.9164700e-04  -2.8473150e-04  -1.5129107e-04  -4.9301836e-04  -4.2740410e-04  -6.7310117e-05  -6.7370327e-04  -4.2518429e-04   1.3222196e-04   1.8137944e-04  -2.0972977e-04   1.0082724e-04  -9.9119701e-05  -2.8997197e-04  -9.4414150e-05   4.5192329e-04   5.2881584e-04   3.1071075e-04   3.4816019e-04  -4.4025065e-04   2.8000693e-04   1.6809511e-04  -2.3039716e-04   6.7400828e-04   6.8293921e-05   8.7283988e-04
  -2.0686302e-03  -5.9495564e-04  -1.5839249e-03  -7.3414919e-04  -9.4914355e-04  -1.3348651e-04  -2.1770594e-04  -1.6640621e-04  -1.2595627e-04  -4.5786184e-04  -7.5612974e-04  -3.0063846e-04  -8.5716811e-04  -5.1058352e-04  -7.0801564e-04  -4.6502560e-04  -1.3074763e-03  -5.7511614e-04  -4.8104496e-04  -7.8613026e-04  -1.2225909e-04  -1.6551332e-04  -2.3622175e-04  -2.7020875e-04  -2.3699558e-04   1.4308684e-05  -1.1200252e-04  -4.8258627e-04  -4.0620574e-04  -2.7259573e-05  -7.5175555e-04  -2.9500626e-04  -2.2952049e-04   9.9071753e-05  -2.6918421e-04   1.6327800e-04  -1.5619863e-04  -2.9531127e-04  -1.0508942e-04   1.7373625e-04   4.8866798e-04   2.2892455e-04   5.8644777e-04   6.2332593e-04   9.9030956e-05   3.3191944e-04  -2.3627633e-04   9.7619573e-04  -4.1970046e-04   7.3315483e-04
  -2.0261914e-03  -7.8663975e-04  -1.7408547e-03  -8.3332963e-04  -1.1020642e-03  -3.4026185e-04  -4.0350494e-04  -2.6777404e-04  -1.8469649e-04  -5.9376424e-04  -8.3312340e-04  -3.9119652e-04  -8.6969783e-04  -5.9256773e-04  -6.9468835e-04  -5.8942923e-04  -1.3106836e-03  -5.7347183e-04  -5.8988144e-04  -8.4115553e-04  -3.3337399e-04  -3.6483945e-04  -3.6111000e-04  -3.7231453e-04  -9.5838046e-04  -5.7220913e-04  -2.4151641e-04  -4.3835861e-04  -4.7145502e-04  -1.3871284e-04  -7.4681081e-04  -6.2108826e-04  -2.9216916e-04  -1.7986466e-04  -3.8335822e-04  -2.7788160e-04  -2.9141217e-04  -4.4956684e-04  -3.2514177e-04  -1.3781304e-04   2.6573957e-04   1.4749257e-04   4.6706808e-04   4.4541966e-04   1.8008451e-04  -1.2941261e-05  -4.9625686e-04   1.8605699e-04  -9.6926007e-05   4.9577351e-04
  -2.2650149e-03  -1.1697768e-03  -1.7919077e-03  -1.1900752e-03  -1.3778182e-03  -7.7750813e-04  -8.4749609e-04  -6.8665476e-04  -7.5341534e-04  -9.1891398e-04  -1.0556295e-03  -6.8179733e-04  -1.1053979e-03  -8.3625189e-04  -8.3761447e-04  -8.0200704e-04  -1.3975309e-03  -7.7050657e-04  -7.5646880e-04  -1.0528542e-03  -5.8073917e-04  -4.8905116e-04  -9.2987443e-04  -3.6830391e-04  -1.0404153e-03  -6.9311028e-04  -3.2241229e-04  -4.2247688e-04  -4.0416617e-04  -2.7482078e-04  -7.5774780e-04  -4.1955427e-04  -2.7604171e-04  -1.7071672e-04  -3.7814322e-04  -2.3440494e-04  -1.8805158e-04  -4.1284368e-04  -1.6729839e-04   3.7399182e-04   5.7180313e-04   1.5599847e-04   5.9008464e-04   4.2387852e-04   3.8894496e-04   3.8022359e-04  -1.9670218e-04   5.8407342e-04  -2.2361068e-04   8.2303269e-04
  -2.0317363e-03  -6.3346565e-04  -1.6200206e-03  -6.9845474e-04  -1.0373512e-03  -1.5414449e-04  -4.2739025e-04  -2.1861128e-04  -2.5690318e-04  -4.6245847e-04  -5.9809088e-04  -2.2893766e-04  -7.1521429e-04  -4.6307396e-04  -5.9965055e-04  -5.3815101e-04  -1.1943568e-03  -5.9676892e-04  -1.8874116e-04  -6.8361370e-04  -1.8778910e-04  -2.3814422e-04  -3.8335964e-04   5.7041369e-05  -6.5055653e-04  -2.9663331e-04  -2.8837938e-04  -4.9699680e-04  -4.6098957e-04  -8.6405562e-05  -6.0831255e-04  -5.2049442e-04  -3.5881149e-04  -2.0308414e-04  -2.9725686e-04  -1.3877683e-04  -2.0132923e-04  -4.4615235e-04  -1.3902682e-04   6.2276304e-05   4.2101450e-04   2.1847336e-04   7.7444565e-04  -2.5535293e-05   1.0043805e-04   4.6369381e-04  -2.7355709e-04   8.3029550e-04   1.2542876e-06   6.4057042e-04
  -1.9608904e-03  -7.6498516e-04  -1.7297958e-03  -8.0027996e-04  -1.2314577e-03  -4.5312263e-04  -5.5061124e-04  -4.2314670e-04  -2.7561467e-04  -6.3615607e-04  -6.8255066e-04  -3.6916474e-04  -8.2224165e-04  -6.0501765e-04  -7.2406238e-04  -6.1694469e-04  -1.2029581e-03  -6.5426389e-04  -2.2415590e-05  -7.4240548e-04  -3.3974586e-04  -4.6987535e-04  -8.0658833e-04  -4.7631495e-04  -9.5582934e-04  -7.5156870e-04  -4.4953605e-04  -4.9068470e-04  -5.9159455e-04  -1.9347679e-04  -8.5426139e-04  -6.8920152e-04  -5.8140996e-04  -3.8137112e-04  -6.4025575e-04  -2.7752563e-04  -3.6276161e-04  -6.0887798e-04  -3.4890039e-04  -3.8804376e-04   1.8277318e-04   6.7616660e-05   2.1624788e-04   8.9728397e-05  -4.4647788e-04   1.9401363e-04  -4.8549272e-04   6.5045879e-04  -3.9705820e-04   5.8529503e-04
  -2.3140765e-03  -1.1528184e-03  -1.7611020e-03  -1.1269073e-03  -1.4885372e-03  -9.3902234e-04  -9.1980322e-04  -8.3630905e-04  -7.2840304e-04  -9.4256719e-04  -9.6214440e-04  -7.3521899e-04  -1.0947592e-03  -9.1163319e-04  -1.0226521e-03  -8.7231438e-04  -1.3885470e-03  -8.3128404e-04  -1.1720554e-03  -9.3934871e-04  -6.1739492e-04  -7.5098017e-04  -5.7705853e-04  -1.1347965e-03  -1.0800487e-03  -1.1239527e-03  -3.7953479e-04  -5.6953332e-04  -6.2912720e-04  -3.4187917e-04  -6.7706255e-04  -7.1654917e-04  -4.1280579e-04  -3.0871376e-04  -5.8263604e-04  -3.1500525e-04  -2.9837579e-04  -5.9440028e-04  -2.5441675e-04   1.8222538e-05   4.1425263e-04   2.8511923e-04   3.6508002e-04   2.0138627e-04  -1.4148036e-04   3.3126096e-04  -2.0429838e-04   3.5244666e-04  -2.3483719e-04   9.2012685e-04
  -2.0592452e-03  -5.2938354e-04  -1.3710691e-03  -6.3075253e-04  -1.0722583e-03  -2.0136283e-04  -3.3591883e-04  -3.4889739e-04  -1.6909726e-04  -4.1635527e-04  -4.6033270e-04  -1.7591020e-04  -6.8872381e-04  -5.1031029e-04  -5.6284055e-04  -5.3279690e-04  -1.0256898e-03  -6.3532440e-04  -6.7255140e-04  -5.1794603e-04  -1.6750213e-04  -3.5032580e-04  -2.0281511e-04  -3.8565739e-04  -8.8782946e-04  -3.6930770e-04  -3.4121514e-04  -8.3432428e-04  -7.0448290e-04  -1.1386618e-04  -6.7118322e-04  -5.6357286e-04  -9.2784518e-05  -2.8519880e-04  -4.0280237e-04  -1.3730256e-04  -2.3669119e-04  -5.5263721e-04  -2.7862418e-04  -2.6430213e-04   3.7513024e-04   2.5660504e-04   4.5509954e-04   1.2170335e-04  -4.0977777e-04   3.5015697e-04  -2.0096527e-04   4.9910863e-04   2.3233280e-05   8.9014688e-04
  -1.9887316e-03  -5.9588387e-04  -1.1760340e-03  -5.6372373e-04  -1.1730583e-03  -3.9399893e-04  -3.9620086e-04  -5.2937935e-04  -3.1242057e-04  -4.9356360e-04  -5.2028475e-04  -4.5576261e-04  -7.4954412e-04  -6.7882327e-04  -7.9761964e-04  -6.2968093e-04  -1.1854543e-03  -7.0049532e-04   5.5008204e-05  -5.5235618e-04  -1.4384509e-04  -5.1868375e-04  -1.0911734e-03  -7.8702229e-04  -9.1915776e-04  -6.3116621e-04  -4.5806836e-04  -1.2687597e-03  -9.1218122e-04  -2.7751751e-04  -7.0990511e-04  -7.1192562e-04  -3.5038419e-04  -3.8314809e-04  -6.1284262e-04  -5.7246565e-04  -5.2700244e-04  -8.6879090e-04  -5.1077391e-04  -3.3209499e-04   5.9290778e-05   1.3179266e-06   3.0041786e-04  -5.7955924e-04  -1.8054637e-04  -1.0438241e-04  -4.3319038e-04   1.2166044e-04  -2.3325694e-04   4.6782146e-04
  -2.1999215e-03  -1.0616223e-03  -1.5019723e-03  -9.4409764e-04  -1.4129929e-03  -8.7525300e-04  -7.7573041e-04  -8.1134663e-04  -6.7491102e-04  -7.0757320e-04  -7.8739226e-04  -8.7234954e-04  -1.1513655e-03  -1.0144630e-03  -1.0755627e-03  -8.8090153e-04  -1.3927345e-03  -8.3102391e-04  -7.9296622e-04  -6.6710880e-04  -2.3427687e-04  -7.8921980e-04  -8.2060462e-04  -1.0887911e-03  -7.7457289e-04  -7.3076360e-04  -5.7659228e-04  -1.3638269e-03  -1.0270241e-03  -3.9602080e-04  -7.3342741e-04  -4.6727865e-04  -5.7441415e-05  -2.1004498e-04  -5.4627837e-04  -3.4442247e-04  -4.5210982e-04  -8.3622464e-04  -4.0877456e-04  -7.7492987e-05   3.3313033e-04   7.0300484e-05   2.5971929e-04  -4.1482763e-06   1.8808337e-04   4.3759836e-04  -1.3858390e-04   1.0902986e-03   8.2470935e-05   9.2230848e-04
  -1.7067480e-03  -3.7030943e-04  -9.0461288e-04  -4.1495505e-04  -9.2478917e-04  -7.8060810e-05  -1.5277331e-04  -1.7745612e-04   8.7841172e-06  -7.7764234e-05  -1.2460366e-04  -1.8575389e-04  -6.4594444e-04  -6.1019562e-04  -6.1083311e-04  -5.0718489e-04  -9.5185934e-04  -5.3831626e-04  -3.3506218e-05  -2.4103776e-04   1.9250799e-04  -3.2014181e-04  -4.2676250e-04  -3.5288074e-05  -7.2487228e-04  -3.4474835e-04  -4.8001282e-04  -1.2986052e-03  -8.3071057e-04  -1.5895898e-04  -3.1594170e-04  -3.3579918e-04  -9.9945908e-05  -1.5015084e-05  -5.3703546e-04  -3.0792762e-05  -3.6951885e-04  -5.9529714e-04  -3.0360214e-04   6.4542910e-06   2.8880022e-04   2.8583163e-04   4.9774256e-04  -9.2649763e-04   1.6702896e-04   4.5457465e-04  -4.5368197e-05   5.7410385e-04   3.1077609e-04   9.9584344e-04
  -1.3475040e-03  -2.6888354e-04  -9.2549442e-04  -8.3272207e-05  -7.9024502e-04  -1.4372158e-04  -1.8720368e-04  -2.1384431e-04   1.0471958e-04  -2.0261902e-04  -6.3039857e-05  -3.9189887e-05  -4.7337482e-04  -5.0321361e-04  -6.5255514e-04  -4.3166947e-04  -7.6951965e-04  -4.2290025e-04   6.9846259e-04  -2.1258455e-04   5.2452324e-05  -2.0733579e-04  -9.4601401e-06  -5.7860301e-04  -7.0980267e-04  -5.3112733e-04  -4.8256665e-04  -1.1585869e-03  -7.9643383e-04  -1.6010817e-04  -2.1259510e-04  -1.6473906e-04  -6.7300989e-06  -1.1981238e-04  -5.4872723e-04  -2.9817442e-04  -4.1866806e-04  -5.3342077e-04  -3.5593892e-04  -9.8490840e-05   8.1390332e-05   1.0928903e-04   3.3607366e-04   1.4261618e-03   2.3298230e-04   6.6651963e-05  -1.2765825e-04   7.0690020e-04   2.0974074e-04   7.3231000e-04
  -1.3540827e-03  -4.5816641e-04  -6.3712423e-04  -2.1679113e-04  -7.9350837e-04  -4.6263917e-04  -3.6405024e-04  -3.9935228e-04  -1.7193521e-04  -4.5652679e-04  -2.3944447e-04  -2.0430129e-04  -5.5974035e-04  -6.5904821e-04  -6.3430518e-04  -5.2484265e-04  -8.1682665e-04  -5.4150162e-04  -1.2334228e-04  -3.4371129e-04  -1.8098095e-04  -3.8174907e-04  -4.6484263e-04  -1.6252132e-03  -8.1681757e-04  -6.2201434e-04  -6.3083490e-04  -1.0468727e-03  -6.9821003e-04  -2.7379359e-04  -2.2961809e-04  -2.3281896e-04   7.1011814e-06  -2.0167300e-04  -5.6344375e-04  -3.1583372e-04  -3.8962532e-04  -4.2634894e-04  -2.8099079e-04   9.2032831e-05   3.6911218e-04   2.5661971e-04   2.1402643e-04  -9.8616889e-05   9.4390685e-05   5.1594281e-04   1.0963737e-04   4.9038092e-04   4.5943854e-04   1.1440037e-03
  -7.0400152e-04   1.0297994e-04  -1.6680590e-04   3.5534552e-04  -1.8705553e-04   1.2657668e-04   1.7800582e-04   5.5095483e-05   5.0023320e-04   1.0540269e-04   3.1302770e-04   3.5749518e-04  -5.6942222e-06  -1.6147873e-04  -2.3630778e-04  -1.0847532e-04  -3.0676581e-04  -1.6028257e-04   2.5523035e-04   2.3505437e-04   4.7878595e-04   2.3393375e-04   2.7201278e-04   2.6226119e-04  -2.7430450e-04   1.8909661e-04  -2.0053695e-04  -8.4730540e-04  -4.3743462e-04   1.1344933e-04   1.8257835e-04   1.3916653e-04   3.6751555e-04   2.6186852e-04  -6.8190726e-05   1.3536319e-05  -2.5494013e-05  -1.4972824e-04  -1.0632640e-04   3.1071465e-04   3.8787368e-04   4.6861765e-04   5.5193313e-04   4.7815399e-04   3.5559362e-05   7.5454207e-04   3.3172971e-04   9.0641045e-04   4.4448490e-04   1.1412760e-03
  -3.6980660e-04   2.2711053e-04   6.1999337e-05   5.2809657e-04  -9.1890783e-05   2.4903374e-04   2.2054689e-04   1.2235589e-04   6.4199202e-04   9.6496420e-05   4.5456062e-04   3.4199504e-04   1.2009618e-04  -5.1060048e-05  -1.2477086e-04  -4.0120878e-05  -2.1709682e-04  -6.3477288e-05   1.8850841e-04   3.1083403e-04   4.4882795e-04   1.5390974e-04  -4.2547366e-05   2.8556972e-04  -3.5580533e-04  -1.6295232e-04  -2.1362874e-04  -6.0320110e-04  -3.6803022e-04   5.9690345e-05   1.7100136e-04   2.7607265e-04   5.4369197e-04   1.2472499e-04  -2.9612772e-04  -1.4030265e-04  -6.5075634e-05  -1.4739254e-04  -8.8188361e-05   1.2403063e-05   1.3801613e-04   3.3721430e-04   2.1836547e-04   4.3043803e-04   3.0392914e-05   5.9136405e-04   1.7903575e-04   3.8173315e-04   6.3979148e-04   8.5981615e-04
  -3.2526936e-04  -1.1903134e-04   5.5269229e-06   2.3816970e-04  -2.2829577e-04  -2.0293868e-04  -1.2054703e-04  -1.1944064e-04  -1.2929911e-04  -2.5117796e-04   2.3032169e-04  -1.0739036e-04  -5.4339416e-05  -2.2926895e-04  -2.8216338e-04  -2.2196291e-04  -4.0970300e-04  -1.9979167e-04   7.8806758e-04   1.1281002e-04   1.8698363e-04  -2.4314536e-04  -6.5595924e-04  -1.1090481e-03  -5.5928598e-04  -6.7890389e-04  -3.1915834e-04  -5.1476446e-04  -4.2241198e-04  -1.7298358e-04   2.6764279e-05  -3.5783229e-05   1.8470372e-04  -1.6630413e-04  -5.3869968e-04  -4.8876478e-04  -2.7402554e-04  -3.2020660e-04  -3.5509458e-04  -4.3727731e-04  -9.5936033e-05   2.0081394e-04   1.5520559e-04  -7.1823539e-04  -1.0702736e-04   6.6697143e-04  -1.3622368e-04   2.3904191e-04   3.8328208e-04   5.8459467e-04
  -5.9244561e-04  -4.3443186e-04  -3.5746573e-04  -1.0899626e-04  -5.2833604e-04  -5.0570932e-04  -3.1676455e-04  -3.5048646e-04  -2.8806887e-04  -5.4159603e-04  -7.4914300e-05  -4.0646669e-04  -3.1124891e-04  -4.2562981e-04  -5.8986672e-04  -4.1612159e-04  -5.2467361e-04  -3.9612147e-04   1.7730684e-04  -1.1403069e-04  -2.9165971e-05  -4.0553056e-04  -4.1471832e-04   1.0183077e-04  -5.0538109e-04  -7.8072882e-04  -2.6663771e-04  -2.3875976e-04  -4.5659312e-04  -1.4944107e-04  -4.6727586e-05   3.9727467e-05   2.8503241e-04   6.7034154e-05  -3.8831530e-04  -2.4230062e-04  -5.5206008e-05  -1.9126109e-04  -1.5735804e-04   2.3221543e-04   2.2422595e-04   3.2465806e-04   3.4102773e-05  -1.1511660e-04  -1.2487418e-04   6.7693915e-04   6.7245834e-05   3.0051026e-04   4.8323354e-04   1.0687655e-03
  -1.9064208e-05   2.5067828e-04   2.2494400e-04   4.4779415e-04   9.0539361e-05   2.9100245e-04   3.3455665e-04   2.3202341e-04   7.7331693e-05   2.3825654e-05   4.6610681e-04   1.5994755e-04   2.9976742e-04   8.3437437e-05  -5.7538527e-05   2.5595822e-05  -1.6857464e-04  -6.1612467e-05   5.7889597e-04   3.7046749e-04   4.4534958e-04   1.1326231e-04   1.8480854e-04   8.9128043e-05   1.7910256e-04  -3.7897029e-04  -1.5403419e-04  -1.6881642e-04  -2.2727279e-04   1.0318236e-04   2.8367751e-04   1.7104149e-04   3.7279059e-04   1.5823472e-04  -2.0973978e-04  -2.7810724e-04   5.2467934e-05  -1.9537983e-05  -4.4309218e-05   2.9175266e-04   2.2567328e-04   1.7978117e-04   2.5248670e-04  -5.6533623e-05   4.7638867e-04   7.3587196e-04   1.5414764e-04   3.2166266e-04   5.7218201e-04   9.9509349e-04
   3.8041666e-04   2.0682167e-04   2.2104209e-04   5.3578248e-04   3.4150642e-05   2.0330258e-04   2.7829458e-04   1.7549688e-04   1.7894787e-04  -7.4492680e-05   4.0848713e-04   3.0605388e-05   3.0422947e-04   1.2464939e-04   1.6287137e-04   8.0946513e-05  -5.4660421e-05  -4.5535853e-05  -2.3459786e-04   2.9435204e-04   3.2745855e-04   1.0751067e-04  -4.1385219e-04   1.2973216e-04  -3.8744602e-05  -6.5442151e-04  -1.4889188e-04  -1.8499307e-04  -2.4689350e-04   2.0440028e-05   9.0324429e-05   9.6790784e-05   2.7715942e-04  -4.5467282e-06  -4.6713933e-04  -4.6437612e-04  -8.4329709e-05  -5.6144519e-05  -1.5137477e-04  -4.6455778e-05  -1.0330974e-04   1.0263555e-04   5.1629053e-05   2.1469528e-04  -2.1207727e-04   8.6961000e-04  -1.1409941e-04  -6.1772212e-06   3.6987939e-04   7.4001268e-04
   1.8901542e-04  -1.0698447e-04   2.7518510e-05   2.3656056e-04  -3.3254091e-05  -1.2261928e-04  -1.0758607e-05  -1.2990611e-04  -2.1300878e-04  -3.6461029e-04   1.4657203e-04  -2.1811335e-04   1.8386195e-04  -4.6746525e-05  -1.1740612e-04  -8.6224652e-05  -1.7337542e-04  -2.3352202e-04  -1.2307153e-04   9.3179951e-05   6.4733365e-05  -7.4398296e-05  -5.4198847e-04  -5.3359487e-04  -6.1892049e-04  -9.6202333e-04  -1.8735619e-04  -2.2169962e-04  -4.2545688e-04  -1.4044404e-04   6.1632789e-05  -5.9020927e-05  -1.1154786e-04  -2.3763522e-04  -5.5978808e-04  -6.7736837e-04  -3.3570308e-04  -1.8043362e-04  -4.0488294e-04  -3.8999203e-04  -2.8533317e-04  -1.3244512e-04  -2.7465957e-04  -7.8893767e-04  -4.9855921e-04   5.5981852e-04  -2.6952187e-04   2.7966908e-05   4.5478510e-04   5.0229294e-04
   9.6945245e-05  -1.9054409e-05   1.2825509e-04   4.1009430e-04   1.3048983e-04   1.7013431e-04   2.3988874e-04   1.8474653e-04   1.8672433e-04  -1.7236647e-05   3.5434842e-04   2.0904951e-04   3.7366018e-04   1.8180677e-04   1.3625322e-04   1.1567987e-04   8.3867730e-05  -9.4519375e-05   3.3142566e-04   4.4175857e-04   4.8020229e-04   3.2104476e-04   2.5650309e-04   1.8164502e-04  -4.4775450e-05  -3.0159499e-04  -7.5970551e-05  -5.1027688e-05  -1.9601062e-04   1.5821430e-04   3.5973330e-04   2.8235305e-04   2.3105829e-04   1.9393465e-04  -1.6075333e-04  -1.1464084e-04   7.5868811e-05   6.9554160e-05   2.9259199e-05   4.3529394e-04   1.3254854e-04   3.4464936e-04   1.4919972e-04  -6.2042242e-04   3.5852548e-07   1.0273589e-03  -3.4346336e-05   7.6261123e-05   4.3189738e-04   7.6915516e-04
   9.9266290e-05   5.3663993e-05   2.5067950e-05   3.7256116e-04  -1.0925805e-04   1.9507518e-04   1.9741716e-04   9.7268567e-05   1.0817927e-04  -3.5749410e-05   2.0426119e-04  -7.6516124e-05   2.0089332e-04   7.8000376e-06   9.3113122e-05   4.9845454e-05  -1.2367984e-04  -1.6998811e-04   3.3164868e-04   3.2179942e-04   3.2944474e-04  -8.5963213e-05  -6.6030090e-04  -3.2181726e-04  -4.4192985e-04  -2.1467528e-04  -8.8852794e-05  -5.3477567e-04  -4.4277310e-04   1.6594895e-05   1.3096284e-04   1.3841642e-04   2.9230307e-04   4.5292942e-05  -3.2371035e-04  -3.1347232e-04  -1.2220674e-04  -1.5340930e-04  -1.5425518e-04   2.1102844e-04   1.2835264e-04   7.2094648e-05  -2.8953091e-05   4.0367636e-04  -5.5516521e-06   3.7663701e-04  -3.7422133e-04   7.7840366e-04   3.5438416e-04   9.0199703e-04
  -1.1087059e-03  -5.2381220e-04  -6.0084293e-04  -3.9309615e-04  -7.7838107e-04  -2.0510158e-04  -4.1605981e-05  -3.3899513e-04  -2.0066246e-04  -2.1654382e-04  -3.8785068e-04  -6.6233991e-04  -4.4296173e-04  -5.0236995e-04  -5.9828750e-04  -3.0916568e-04  -6.3412410e-04  -3.6407119e-04  -3.7388625e-05  -1.0792276e-04  -2.0356907e-04  -7.1579183e-04  -8.8261918e-04  -8.4681844e-04  -8.5315836e-04  -8.9624140e-04  -4.1708132e-04  -8.6061226e-04  -7.1549352e-04  -2.7192826e-04  -4.4341580e-04  -2.4739068e-04  -4.4437553e-04  -1.7825443e-04  -5.5819278e-04  -5.2323932e-04  -3.7872043e-04  -3.9791511e-04  -3.1903727e-04  -2.1842725e-04  -1.8100264e-04   1.4900812e-05   5.3157142e-05  -1.6858670e-04  -7.2432921e-04   7.8716199e-05  -5.0078216e-04  -1.0074954e-04  -2.5330321e-05   4.6699381e-04
  -1.5193769e-03  -9.3212188e-04  -1.1388195e-03  -7.9988025e-04  -1.0554085e-03  -6.3658209e-04  -4.4336915e-04  -7.4758031e-04  -7.5342000e-04  -6.2697346e-04  -7.6781702e-04  -8.9267502e-04  -7.6282577e-04  -7.7323063e-04  -7.1214151e-04  -4.7606355e-04  -7.7871059e-04  -5.2707031e-04   4.0959676e-05  -3.4515373e-04  -3.7298110e-04  -5.6251523e-04  -7.2385068e-04  -5.9624406e-04  -2.4644393e-04  -7.2499731e-04  -3.5604736e-04  -7.8115991e-04  -6.3162978e-04  -2.0250723e-04  -1.9957457e-04  -1.9751186e-04  -1.6822183e-04   5.4491502e-06  -4.8145285e-04  -3.2968042e-04  -2.5250833e-04  -3.0357423e-04  -1.7165343e-04   7.7089411e-05   1.0886796e-04   4.2057050e-05   2.9373696e-04  -1.9610355e-04  -2.1950867e-04   1.6363902e-04  -3.5614130e-04   2.9357331e-04   1.9203906e-04   4.4748266e-04
  -1.2346082e-03  -4.2794357e-04  -9.1822463e-04  -4.0796649e-04  -7.1437994e-04  -1.8446219e-04  -2.1445258e-04  -2.6766735e-04  -4.3203321e-04  -5.0193846e-04  -5.8551307e-04  -5.1178515e-04  -5.9881253e-04  -4.8450244e-04  -5.5136962e-04  -2.8065348e-04  -5.6217820e-04  -3.8556807e-04   2.7776413e-04  -3.1490653e-04  -4.1961166e-04  -5.1078683e-04  -6.4327009e-04  -1.2570802e-03  -2.0835552e-04  -6.0677208e-04  -3.2270383e-04  -6.1157078e-04  -4.3206161e-04  -1.8062547e-04  -3.3237727e-04  -3.6587636e-04  -3.6263809e-04  -1.7849797e-04  -5.3367298e-04  -4.8103908e-04  -3.3558815e-04  -3.4354979e-04  -2.9226064e-04  -1.1107107e-04  -6.2638508e-05  -1.5738852e-04   1.2513115e-04  -7.9406938e-04  -4.6231298e-04   1.1379876e-04  -5.4526568e-04   2.3702426e-04   5.5647928e-05   5.2396092e-04
  -1.2416906e-03  -5.7723204e-04  -8.9172309e-04  -5.1496760e-04  -8.4365759e-04  -2.8792891e-04  -2.9927719e-04  -4.4517493e-04  -5.1237771e-04  -6.7908817e-04  -8.0498977e-04  -5.8971200e-04  -6.9551001e-04  -6.3072087e-04  -6.6575856e-04  -4.0295644e-04  -6.8292429e-04  -4.7301647e-04  -8.5744140e-04  -4.8872520e-04  -6.4198335e-04  -5.6927436e-04  -5.6153355e-04  -1.1033519e-03  -9.8146417e-04  -9.7678194e-04  -4.9443200e-04  -1.0623146e-03  -6.6055189e-04  -3.0100023e-04  -4.1000274e-04  -3.5517410e-04  -6.6319742e-04  -3.8689811e-04  -7.0914929e-04  -5.1903672e-04  -5.8780151e-04  -5.0376408e-04  -5.4118247e-04  -5.5687199e-04  -2.1834399e-04  -4.6363124e-04   8.2434097e-05   5.8571569e-04  -9.0593135e-04  -1.7355746e-04  -8.5252500e-04  -3.7615412e-04  -2.5829385e-04   3.0403933e-04
  -1.7588149e-03  -1.0805993e-03  -1.4326453e-03  -1.0158005e-03  -1.2503440e-03  -7.6105393e-04  -6.1271316e-04  -9.1533118e-04  -8.5064879e-04  -9.1411686e-04  -1.1708548e-03  -9.9376275e-04  -1.0675000e-03  -9.5251889e-04  -9.6385553e-04  -5.8095204e-04  -9.8745013e-04  -6.8025861e-04  -3.9022093e-04  -5.4370461e-04  -4.2829357e-04  -5.8867375e-04  -5.8316125e-04  -4.0511301e-04  -3.8369311e-04  -6.4392883e-04  -5.4268161e-04  -1.2851562e-03  -7.9775858e-04  -2.2019140e-04  -4.2126223e-04  -2.5601653e-04  -9.9539997e-05  -1.4745229e-04  -4.8232981e-04  -3.5367106e-04  -3.6305451e-04  -5.5457820e-04  -3.8307134e-04  -4.4258359e-05   1.1874123e-04  -1.5744516e-04   8.9507495e-07   4.2141398e-04  -1.9614953e-04   3.9220722e-05  -5.8265787e-04   4.3089527e-05  -7.3542877e-05   5.6028378e-04
  -1.7653788e-03  -4.4689825e-04  -1.3529588e-03  -5.2556850e-04  -9.1259228e-04  -9.3063296e-05  -2.2470533e-04  -2.5873884e-04  -5.3943187e-04  -4.7382500e-04  -7.4089319e-04  -4.6443412e-04  -7.0011808e-04  -6.5083453e-04  -6.8919081e-04  -4.3215774e-04  -8.7409961e-04  -5.5515527e-04  -6.2657089e-04  -4.8943283e-04  -3.7691093e-04  -4.0298243e-04  -6.4427528e-04  -3.7063524e-04  -5.3875457e-04  -4.3722938e-04  -4.7545639e-04  -1.2132057e-03  -6.2459474e-04  -1.8004845e-04  -3.5626808e-04  -4.5875291e-05  -3.7161419e-05  -1.0700641e-04  -5.1181018e-04  -2.4754016e-04  -3.8394815e-04  -5.0076761e-04  -3.3590829e-04  -2.3459776e-04   9.1424681e-06  -1.1152415e-04   1.6548675e-04  -1.4757788e-04  -6.6166453e-04   2.3659121e-04  -5.0097547e-04   2.4172146e-04  -1.0330240e-04   4.9067143e-04
  -1.5782878e-03  -5.8267027e-04  -1.3218868e-03  -5.0889852e-04  -9.5025881e-04  -2.8492688e-04  -4.2722450e-04  -4.1495010e-04  -5.0593837e-04  -5.1559601e-04  -7.1369106e-04  -3.9273265e-04  -7.7998172e-04  -7.0942851e-04  -7.2693813e-04  -4.9483689e-04  -8.9261995e-04  -5.3492730e-04   8.3625724e-05  -5.5919809e-04  -5.1682867e-04  -3.2766091e-04  -4.9700786e-04  -5.8725302e-04  -4.5572911e-04  -8.7867078e-04  -5.1337993e-04  -1.1363260e-03  -7.9394481e-04  -2.9784674e-04  -4.5938519e-04  -2.7925536e-04  -5.3496665e-04  -2.8045499e-04  -7.4414507e-04  -5.9691363e-04  -5.5911962e-04  -6.0705747e-04  -5.7104387e-04  -3.4850099e-04  -2.3454777e-04  -3.4829232e-04  -2.4074454e-04  -6.3655525e-04  -5.8666855e-04  -2.3638536e-04  -7.6438137e-04   1.2930168e-05  -2.7114054e-04   2.4085837e-04
  -1.5099056e-03  -8.6158753e-04  -1.2911528e-03  -5.8330561e-04  -1.0645220e-03  -3.1894646e-04  -3.0559255e-04  -4.1257075e-04  -1.3829442e-04  -2.8354730e-04  -5.2095117e-04  -2.1792921e-04  -6.4301258e-04  -5.7218480e-04  -6.8685779e-04  -3.9894963e-04  -8.3580607e-04  -4.7225386e-04  -4.7241738e-05  -2.8648713e-04  -7.1594804e-05  -1.5365830e-04  -4.0545975e-04  -2.0895059e-04  -5.6028902e-04  -2.7305863e-04  -4.4785228e-04  -1.1418607e-03  -6.8952225e-04  -7.8219244e-05  -1.6823622e-04  -1.9824626e-04   2.9755165e-04   1.2471635e-04  -3.8820304e-04  -9.6757780e-05  -2.4182949e-04  -4.2025832e-04  -2.7460651e-04   2.2122999e-04   1.8158519e-04   1.1748156e-04   4.8887444e-04  -1.7273700e-04   1.2437174e-04   3.4525088e-04  -3.7901034e-04   1.9583922e-05   2.6667182e-04   5.8249378e-04
  -1.1879390e-03  -3.0515168e-04  -1.0586900e-03  -2.4572082e-04  -7.0608576e-04  -1.7143325e-04  -1.5897160e-04  -3.4989184e-04  -1.1859633e-04  -1.0049083e-04  -3.7084430e-04  -1.5820890e-04  -5.8196741e-04  -5.3763232e-04  -6.5865566e-04  -3.6961451e-04  -8.0748583e-04  -3.8146766e-04   3.9085936e-07  -2.0638028e-04  -7.9623554e-05  -1.7821573e-04  -2.7334786e-04  -1.1960327e-03  -1.1081738e-04  -4.2160205e-04  -3.3778028e-04  -9.0830284e-04  -6.3685118e-04  -1.4820002e-04  -1.9493311e-04  -6.8010668e-05   1.0877124e-04   1.0188507e-04  -3.8806003e-04  -2.5772353e-04  -2.6579844e-04  -4.1771599e-04  -3.6773004e-04   2.3817471e-05   3.1848605e-05  -7.0847280e-05   3.0428279e-04  -2.6658772e-05  -2.5772880e-04   2.1888883e-04  -4.0318177e-04   1.0199956e-04   1.9070275e-04   4.6358866e-04
  -1.3216325e-03  -3.8716497e-04  -1.0378474e-03  -3.1678425e-04  -8.5218990e-04  -3.4256978e-04  -3.4603404e-04  -4.9623213e-04  -3.2630083e-04  -2.0673354e-04  -4.4002818e-04  -2.8174385e-04  -7.4165966e-04  -7.0196530e-04  -6.3605112e-04  -4.8705286e-04  -8.5439312e-04  -4.5022377e-04  -1.8663039e-04  -3.7033088e-04  -3.0151699e-04  -1.9710486e-04  -5.5894337e-04  -9.4964216e-04  -7.9503929e-04  -9.2734944e-04  -6.2057917e-04  -8.9375675e-04  -5.8717892e-04  -3.7123184e-04  -4.5674897e-04  -6.7834721e-05  -2.2559109e-04  -2.2236635e-04  -7.0755708e-04  -5.0612906e-04  -6.2027789e-04  -5.9367029e-04  -6.4677640e-04  -4.0457063e-04  -1.8329163e-04  -2.6448024e-04   1.1691247e-04  -3.3112321e-04  -2.1013714e-04  -1.7177157e-05  -4.0682996e-04  -1.4598492e-05   3.1636399e-04   5.2443828e-04
  -9.0787298e-04  -6.5669883e-05  -8.4729202e-04   7.6704991e-06  -4.8299404e-04   1.1450881e-04  -1.3496086e-05  -2.3366870e-04   1.7744216e-05   2.2420818e-04  -3.8748760e-05   1.4639758e-04  -4.3767999e-04  -4.3130017e-04  -3.9497952e-04  -2.3312807e-04  -5.8779703e-04  -2.5903084e-04   7.4472860e-04   8.7855966e-05   1.9050471e-04  -1.7046039e-05  -3.4187140e-04  -2.1205323e-04  -9.2314200e-05  -7.5808464e-05  -3.5396428e-04  -8.2666019e-04  -5.5334507e-04  -5.5216013e-05   2.5934953e-05   1.7679750e-04   3.4042151e-04   2.7478859e-04  -2.5110372e-04  -3.2246407e-05  -2.2638556e-04  -2.8946166e-04  -2.8398901e-04   3.2344018e-04   1.6156594e-04   1.7136626e-04   1.4832796e-04  -4.4185313e-04   1.1881002e-04   3.6285081e-04  -2.1956947e-04   7.1105495e-04   4.0479924e-04   7.0358370e-04
  -8.4954116e-04   6.0622668e-05  -5.2686705e-04   1.3136551e-04  -5.4727914e-04   1.1910407e-04   3.4374560e-05  -1.3456254e-04   6.7269400e-05   2.7973129e-04   1.2585591e-04   1.9149492e-04  -3.0640821e-04  -3.7793038e-04  -4.3468954e-04  -2.2176105e-04  -4.1495089e-04  -2.5456210e-04   2.8485488e-04   1.1891495e-04   1.5085118e-04   3.0214389e-05  -2.2682593e-04   7.8528370e-05   1.7428996e-04  -5.4239103e-04  -4.3687865e-04  -8.3889160e-04  -5.5268034e-04  -1.3982524e-04   1.2662755e-04  -1.1380066e-04   3.2758198e-04   1.9599199e-04  -3.5195830e-04  -2.6025524e-04  -2.8378205e-04  -2.9758841e-04  -2.7238941e-04   1.3162960e-04   3.3169977e-06   1.7900964e-05   5.3580643e-05  -5.0226419e-04  -6.7971596e-05   2.9003230e-04  -2.6548386e-04   5.9029594e-04   1.8309223e-04   3.3371017e-04
  -8.4446330e-04  -1.5027047e-04  -7.1160519e-04  -6.9862203e-06  -7.7439623e-04  -2.2118213e-04  -2.9065248e-04  -4.4255302e-04  -5.8703667e-05   6.0788629e-05  -5.9437923e-05  -5.2686326e-05  -5.0141284e-04  -6.0449156e-04  -6.6306046e-04  -3.7936703e-04  -5.2367296e-04  -3.1959367e-04  -4.6162991e-04  -8.0938880e-06  -9.6290983e-05  -1.9631892e-05  -5.2442559e-04  -1.0954150e-04  -6.2693557e-04  -6.2924280e-04  -5.2850979e-04  -8.2854461e-04  -6.0202810e-04  -3.3188355e-04   1.2642576e-04  -6.9620102e-05   1.6089897e-04  -9.0595044e-05  -6.7576003e-04  -5.1240012e-04  -4.8183277e-04  -4.1637605e-04  -4.9704866e-04  -1.1335343e-04  -1.2099542e-04   4.8037318e-06  -2.4188393e-04   3.9951401e-04  -3.5207302e-04   8.4659623e-05  -1.8485224e-04   7.9019781e-05   5.0690171e-04   7.4743916e-04
  -2.6190886e-04   2.4780093e-04  -2.0951081e-04   3.6993474e-04  -3.4847556e-04   1.9034531e-04   2.1250070e-04  -1.7523203e-05   4.2577795e-04   5.2879349e-04   4.0682618e-04   4.4316877e-04  -5.4811138e-05  -2.1844944e-04  -2.0033751e-04  -9.6811797e-05  -1.8000817e-04  -1.3542084e-04   6.3880594e-05   4.7523374e-04   5.0227012e-04   2.8149836e-04   1.3502486e-04   5.3960440e-04   4.3589159e-04   2.8616651e-05  -3.5910585e-04  -7.6672615e-04  -4.3515128e-04   4.7262070e-05   4.1459402e-04   4.8558545e-04   6.8248273e-04   3.8400103e-04  -1.0619975e-04   6.6972105e-05  -2.2069109e-05  -1.0253921e-04  -8.1450555e-05   4.5933391e-04   2.0935401e-04   1.9104293e-04   4.2382604e-04   9.4335899e-04   5.1222951e-04   4.3960978e-04  -2.8842749e-06   5.9125875e-04   4.9389701e-04   7.9661340e-04
  -1.6305687e-04   3.7455457e-04  -1.5369679e-04   5.2391877e-04  -2.0672109e-04   2.4983272e-04   2.5911705e-04   2.4864867e-05   8.2242413e-04   5.5288116e-04   5.7460420e-04   5.0655479e-04   1.1086072e-04  -1.9317487e-04  -2.5136236e-04  -2.3608081e-05  -4.6285481e-06  -4.4421544e-05   8.1766449e-04   5.1231321e-04   4.4766572e-04   3.7663235e-04  -2.1327194e-04   2.8989057e-04   2.4890136e-05  -1.9885562e-04  -2.7619413e-04  -7.0219557e-04  -2.9589495e-04  -7.5542598e-06   4.3580565e-04   2.2024623e-04   4.5484729e-04   3.1689843e-04  -1.4872049e-04  -8.0808168e-05  -8.9218724e-05  -4.3883771e-05  -1.2138914e-04   2.1004720e-04   1.1099814e-04   2.4631133e-04  -2.0691854e-05   9.0285740e-04   4.1187438e-04   4.5707123e-04  -3.6202087e-05   6.4749649e-04   6.3631037e-04   6.9675932e-04
  -3.1366115e-04   1.3647592e-04  -2.2106248e-04   2.8698504e-04  -1.9501870e-04  -9.9665504e-06  -4.8685386e-05  -1.5001632e-04   4.1145767e-04   2.8509027e-04   3.6496148e-04   2.7173490e-04  -3.5220757e-05  -3.2672181e-04  -3.0469216e-04  -1.1828472e-04  -6.8461275e-05  -9.9347657e-05   6.0907268e-04   3.4171453e-04   1.7807460e-04   1.8351975e-04  -1.9257748e-04  -7.3564981e-05  -5.1144627e-04  -6.4614363e-04  -3.4586765e-04  -6.5685698e-04  -4.7734004e-04  -1.7464071e-04   3.0206281e-04   2.6798871e-04   3.8811684e-04   1.0696128e-04  -4.0855000e-04  -3.1035228e-04  -2.5115360e-04  -2.0327371e-04  -3.1217467e-04   1.4074380e-04  -2.3466763e-04  -3.5979527e-05   6.7055735e-05   3.5372825e-04  -9.9909026e-05   3.3424533e-04  -3.8175899e-04   2.2171899e-04   4.3573682e-04   3.1418988e-04
  -5.1310932e-04  -1.3145844e-04  -1.6335453e-04   2.0174588e-04  -3.2585065e-04   1.4763232e-05   4.6153789e-05  -2.2202349e-04   2.7252044e-04   4.4807853e-04   4.6509699e-04   3.5146516e-04   1.4858930e-04  -1.2892010e-04  -5.2936532e-05   3.7113517e-05   2.2041928e-05  -3.1887448e-05   4.6470881e-04   6.0683320e-04   5.2995654e-04   4.9624330e-04   6.2479347e-05   2.6741630e-04   1.2863253e-04  -2.2476459e-05  -1.9226324e-04  -6.0000771e-04  -2.5439024e-04   9.3850926e-05   7.1306020e-04   4.6517490e-04   5.9325446e-04   4.7435594e-04   1.0356095e-04   4.7451940e-05   1.2046731e-04   8.1791557e-05   7.6557102e-05   5.7310611e-04   3.0667020e-04   2.6718972e-04   2.8990192e-04   3.6994426e-04   6.4582570e-04   9.6586125e-04   7.2476374e-05   9.3911000e-04   9.7662222e-04   9.2675671e-04
   4.0982536e-04   4.6145098e-04   2.0904113e-04   6.9869478e-04   1.6777251e-04   3.4311455e-04   3.7675427e-04   1.1029434e-04   5.2646972e-04   5.6359457e-04   7.0549443e-04   4.9655460e-04   3.0623749e-04  -5.0459621e-06   1.8015676e-04   1.5112280e-04   1.6149387e-04   1.3398308e-04   3.9941189e-04   6.8686932e-04   5.6062784e-04   6.9294445e-04   2.6588698e-04   8.6527172e-04   2.1531474e-04   3.3562126e-05  -9.2610826e-05  -3.7310505e-04  -1.9360360e-04   1.0533014e-04   7.4894988e-04   5.5063202e-04   8.2930794e-04   5.3509208e-04   2.5907229e-05   6.0527778e-05   6.7658359e-05   1.7262227e-04   8.7370157e-05   5.3408422e-04   1.1590101e-04   2.4830707e-04   2.2589126e-04   8.9477404e-04   4.3230577e-04   9.0894982e-04   2.5641268e-05   5.0174975e-04   8.0924464e-04   9.9957036e-04
   2.5961697e-04   3.1553567e-04   2.4503187e-04   5.9814553e-04   3.0707168e-05   1.7677614e-04   1.2626249e-04  -9.9482619e-05   3.7607303e-04   3.0973606e-04   4.8132750e-04   1.8309650e-04   2.0428402e-04  -1.1335419e-04  -4.0992789e-05  -3.0735868e-07   3.0631130e-05   2.6248013e-05   3.6349607e-04   4.3870148e-04   2.7503492e-04   2.4138336e-04   4.9998931e-04  -1.6540395e-04  -1.3082306e-04  -3.8604339e-04  -1.8684179e-04  -3.0350115e-04  -3.7653881e-04  -1.0785847e-04   4.8335289e-04   3.1538928e-04   4.4894221e-04   2.0598236e-04  -2.0684770e-04  -3.8670527e-04  -1.2950962e-04  -7.4806535e-06  -1.6213355e-04   1.1620462e-04  -1.1612101e-04  -1.0183126e-04  -1.1629370e-04  -2.4892902e-04   4.4844041e-04   4.8351445e-04  -2.1445962e-04   2.1822000e-04   4.7907428e-04   7.0477085e-04
  -1.6813244e-04  -1.0910621e-05   2.0971168e-04   3.4732322e-04  -2.9124506e-04  -2.0307861e-04  -7.4668278e-05  -1.7311687e-04   1.8411098e-04   2.4401970e-05   1.9204455e-04  -7.7073440e-05  -3.8005921e-05  -2.8249013e-04  -3.5837563e-04  -1.6635889e-04  -1.7071074e-04  -1.3497255e-04   5.2286539e-04   1.2219640e-04  -4.9533861e-05   2.0886335e-04  -5.2532152e-04  -1.8230075e-04  -6.7604438e-04  -5.6825258e-04  -2.7097276e-04  -3.0662894e-04  -3.7997251e-04  -2.7143632e-04   3.2441854e-04   1.5047184e-04   2.6220980e-04   3.5991147e-07  -5.0602999e-04  -6.1118911e-04  -2.3734230e-04  -1.2095804e-04  -3.0359495e-04  -2.4693192e-04  -4.3303717e-05   2.1489276e-04   1.2586935e-04   7.4109994e-04   4.8029626e-04   4.9940043e-04  -1.1289627e-04   3.6026290e-04   6.1862695e-04   1.0739401e-03
   3.7624314e-04   4.3920698e-04   2.7424868e-04   7.5387326e-04   2.3507277e-04   4.3698755e-04   2.9606308e-04   2.1565062e-04   5.8986788e-04   4.6854417e-04   5.5649551e-04   4.2501578e-04   3.7208051e-04   6.0072362e-05   1.0927742e-04   1.6940419e-04   1.3717597e-04   8.1966173e-05   6.9274555e-04   5.8189710e-04   5.1716832e-04   5.1465060e-04   2.5219386e-04  -6.5614055e-05   2.3049425e-04  -2.7848193e-05  -7.4137643e-05  -1.9522780e-04  -2.7025549e-04   1.1670831e-04   6.3376495e-04   3.2141551e-04   6.3553615e-04   5.8164814e-04   6.9158421e-05  -9.8330951e-05   1.5835740e-04   1.5474192e-04   1.1240878e-04   4.5697053e-04   1.6003834e-04   1.8268431e-04   1.8254334e-04   7.0778379e-04   1.9980165e-04   1.0179145e-03  -2.5644176e-05   7.9674768e-04   7.2974304e-04   1.0230107e-03
   3.9469442e-04   4.7136532e-04   4.0524077e-04   7.7225250e-04   2.3929121e-04   3.4842297e-04   3.6820024e-04   1.5785100e-04   3.0685790e-04   4.3323450e-04   5.7123567e-04   4.3677801e-04   4.2850460e-04   1.0233979e-04   1.9071624e-04   2.0884984e-04   1.9672983e-04   1.2722953e-04   3.7238080e-04   5.3198845e-04   3.8797536e-04   7.0373685e-04  -1.2399961e-04  -3.0664934e-04  -4.7445935e-04  -1.0880227e-04  -4.7148682e-05  -8.1981991e-05  -2.3702388e-04   7.4078780e-05   7.0982386e-04   4.8556770e-04   5.9322192e-04   5.3598697e-04  -1.0307602e-04  -2.0459565e-04   1.0736503e-04   1.8431291e-04   5.4236894e-05   4.5449921e-04  -1.3630151e-05   1.3368138e-05   3.7084850e-05   1.0138122e-04   2.2153657e-04   8.8532572e-04  -1.7965224e-04   2.2557024e-04   5.5117381e-04   8.1064622e-04
   4.9756310e-04   1.8225292e-04   3.3424271e-04   5.9107115e-04   6.6654167e-05   2.5062580e-05   1.1413985e-04  -5.8867648e-05   8.0072226e-05   1.3945243e-04   2.5311249e-04   1.6149700e-04   2.0778427e-04  -1.1359544e-04   7.0558257e-05   6.0738553e-06   9.2909737e-05  -8.1446000e-05  -9.8913857e-05   2.4245736e-04   6.1916711e-05   2.4507480e-04   1.0407693e-04  -1.0021971e-04  -4.1578652e-04  -5.1695784e-04  -2.1428624e-04  -1.5121498e-04  -3.1020390e-04  -1.1865298e-04   3.5530661e-04   2.2891027e-04   6.0130190e-04   1.6437082e-04  -3.6752343e-04  -3.9077891e-04  -1.3633775e-04   1.8805518e-05  -1.7561574e-04   4.0455601e-05  -2.4510414e-04  -2.3556285e-04  -1.6385438e-04   2.9359653e-04  -1.1004126e-04   6.7007035e-04  -4.5370302e-04  -1.5538360e-04   4.2173915e-04   3.6986428e-04
   2.6494151e-04  -2.0795004e-04   1.4842728e-04   2.1296190e-04  -1.7708511e-04  -3.0688563e-04  -1.9343426e-04  -4.4270733e-04  -9.7333796e-06  -3.5456877e-05  -3.4345885e-05  -1.1176937e-04  -4.2330510e-05  -2.6559553e-04  -2.9113027e-04  -1.9559806e-05  -1.7764860e-05  -7.4094751e-05   5.1107223e-04   3.4478150e-04   2.8698615e-04   4.8286497e-04   2.6555694e-04   4.6314590e-04  -2.6554780e-04  -1.0289432e-04  -1.1293833e-04  -7.5042568e-05  -2.7197221e-04   7.3271556e-05   6.8518432e-04   3.0672102e-04   7.7881099e-04   5.6239817e-04   1.0137524e-04  -6.5974797e-05   1.7535848e-04   1.5829892e-04   1.1318023e-04   4.5738800e-04   1.3501680e-04   1.9643099e-04   2.7234206e-04   6.9330243e-04   2.4214198e-04   7.2569912e-04  -8.4600200e-05   5.5124966e-04   9.3894365e-04   8.6348644e-04
   6.9115066e-04   3.5312137e-04   3.1660812e-04   6.7462574e-04   1.8826075e-04   2.3303546e-04   2.9138912e-04   4.9272941e-05   2.7435913e-04   3.2969064e-04   2.4073217e-04   2.9639297e-04   2.1010826e-04  -1.3898978e-05   7.8538680e-05   1.2647353e-04   8.2663209e-05   2.4398365e-05   2.1897742e-04   3.6017178e-04   2.4404349e-04   4.8328828e-04   5.3846207e-04   5.2531803e-04   3.9916779e-04   1.1293466e-04  -9.1996459e-05  -1.0440723e-04  -2.0418447e-04   3.2287488e-05   6.0320873e-04   3.2903050e-04   7.1255449e-04   5.4182584e-04  -7.8370824e-05  -2.0920584e-04   6.6022381e-05   1.4079973e-04   2.9132749e-05   3.9428624e-04  -3.9595011e-06   2.0315852e-04  -9.2851420e-05   1.0807093e-04   2.5236842e-04   6.1412557e-04  -2.1071844e-04   8.0365126e-06   7.7103754e-04   5.5360852e-04
   5.3057115e-04   1.8519389e-04   9.8109689e-05   4.9158442e-04   8.8337802e-05   2.0805342e-04   2.1424954e-04  -5.8484089e-05   1.1006841e-04   1.6061196e-04   4.1950745e-05   9.4034825e-05  -4.7414273e-05  -1.2870820e-04  -1.6184978e-04  -7.0356573e-06   2.1229867e-05  -1.3911749e-04   1.3160829e-04   1.4464685e-04  -4.0450926e-05   1.4090880e-04   1.8147804e-04   1.3418031e-04  -4.5661649e-04  -5.0426950e-04  -1.8932956e-04  -1.8867540e-04  -3.1841447e-04  -1.6499552e-04   3.3368394e-04   3.3590477e-05   3.0093768e-04   1.3112136e-04  -3.1140793e-04  -3.9481532e-04  -1.6374126e-04  -7.0572773e-05  -1.7208481e-04   1.3234709e-05  -2.5267896e-04  -1.5289195e-04   6.7697809e-05   5.3540326e-04  -8.7122280e-05   4.1745554e-04  -5.0238339e-04  -2.6195563e-04   2.4769932e-04   2.5740592e-04
   1.7812186e-05  -2.5018718e-04  -3.1278780e-04   5.0514242e-05  -5.4299457e-05  -2.4323830e-04  -1.3622698e-04  -4.1058473e-04  -2.9897474e-04  -1.6773246e-04  -3.3074041e-04  -2.6156369e-04  -2.9948883e-04  -4.8191586e-04  -4.2674885e-04  -2.3818930e-04  -2.5048282e-04  -3.5110686e-04  -2.9795061e-04  -1.5373941e-04  -2.9287950e-04  -3.5695506e-05  -4.1466817e-04  -7.8862277e-04  -6.8861025e-04  -8.8359852e-04  -3.4547370e-04  -3.9953450e-04  -5.1292608e-04  -3.6576315e-04  -2.5501417e-05  -3.1748594e-05  -1.5634423e-04  -1.8687655e-04  -6.0593075e-04  -6.3035812e-04  -4.3561548e-04  -2.6723070e-04  -4.3009163e-04  -4.6492388e-04  -3.8234505e-04  -2.1839059e-04  -7.6390643e-05   4.3667288e-04   9.2451017e-05   9.7414399e-05  -4.5032584e-04  -9.8386765e-05   5.9521536e-04   6.3279102e-04
   8.9599409e-05   1.4931761e-04  -7.2105206e-05   4.0392409e-04   1.3441432e-04   2.2664234e-04   2.5645949e-04  -1.6930691e-05   3.3653260e-04   2.8945410e-04   5.2002983e-05   1.4217322e-04   4.8272421e-05  -1.6126510e-04  -5.3466279e-05   1.1843821e-05  -2.0350512e-06  -1.2873045e-04   3.3990567e-04   1.9362209e-04   2.0694807e-04   3.0355144e-04   2.8234115e-04   5.9886061e-04  -1.2323512e-04  -2.1453851e-04  -8.2530678e-05  -3.1204388e-04  -1.7179677e-04   1.9807092e-05   4.0048221e-04   2.3581817e-04   3.6040175e-04   3.8119516e-04  -3.0983578e-05  -6.5737004e-05  -4.3200740e-05   4.8159159e-06   4.3560380e-05   3.4283611e-04   1.6719474e-05   2.3756129e-05   6.1892279e-05   2.7964480e-04   1.2651237e-04   5.9753982e-04  -2.8940081e-04   1.9294687e-04   6.7236635e-04   6.3700351e-04
   3.2323325e-04   1.4379843e-04  -2.6391062e-04   3.7877352e-04   1.4707823e-04   1.4853527e-04   2.4551083e-04  -6.4350628e-05   1.4943970e-04   2.4906444e-04  -2.1652068e-06   1.3766417e-04  -3.4554119e-05  -1.6035601e-04  -1.0012256e-05  -1.5311418e-05  -1.4971782e-05  -1.4638212e-04   3.6395744e-05   1.7452476e-04   5.8217043e-05   2.8227613e-04  -4.1638363e-05  -7.9345846e-05  -1.3332537e-04  -3.0988961e-04  -1.9121626e-04  -2.3478265e-04  -2.2218551e-04  -6.6783439e-05   2.9715203e-04   1.6095760e-04   2.0528978e-04   2.3159482e-04  -2.3861762e-04  -2.8188870e-04  -1.6506303e-04  -2.2574923e-05  -6.3903470e-05   5.1162773e-05  -6.9410868e-05  -4.4793531e-05   2.8215384e-04   6.8040623e-05   2.4202417e-04   4.8080363e-04  -4.7536846e-04   1.6689934e-04   5.5869232e-04   3.5684247e-04
  -5.3549771e-05  -1.9601698e-04  -2.3660035e-04   9.1846319e-05  -2.8535948e-04  -2.8448371e-04  -1.1544459e-04  -2.8808042e-04  -1.6347380e-04  -5.2492964e-05  -2.9763396e-04  -1.8235209e-04  -2.8536998e-04  -4.3879729e-04  -2.0064534e-04  -2.2440060e-04  -2.5859775e-04  -2.5924924e-04  -1.1674303e-04  -1.3074746e-04  -2.8785458e-04  -7.9950179e-05  -7.6171808e-04  -6.9671607e-04  -7.2291045e-04  -7.2904478e-04  -3.4590880e-04  -3.1870700e-04  -4.1463439e-04  -2.8788013e-04   5.4859633e-05  -1.4460181e-04  -1.1735944e-04  -1.6401811e-04  -5.7702523e-04  -5.1350333e-04  -3.5401480e-04  -2.3771760e-04  -3.4451438e-04  -1.2159455e-04  -3.8050255e-04  -1.9080000e-04  -2.9694729e-05  -1.0294717e-04  -2.6281521e-04   1.4839740e-04  -7.4461231e-04  -4.2138674e-04  -1.2458129e-04   1.7721797e-04
  -5.2622554e-04  -5.8391923e-04  -4.8123754e-04  -2.9533773e-04  -6.3634972e-04  -6.5501546e-04  -5.8388588e-04  -8.7030302e-04  -5.0971535e-04  -2.7788681e-04  -5.4548163e-04  -4.3187701e-04  -5.1244319e-04  -6.2944269e-04  -4.3838655e-04  -3.4106444e-04  -3.8790438e-04  -3.8449382e-04   3.4791173e-04  -3.5316731e-05  -8.0416023e-05   5.1529649e-05  -2.0527830e-05   4.4267223e-04  -1.8020300e-04  -3.0471652e-04  -2.8855307e-04  -2.5221481e-04  -3.8245195e-04  -1.1932520e-04   1.5059990e-04   2.2509237e-04   1.2008035e-04   2.3420333e-04  -7.6546879e-05  -2.1424645e-04  -2.7596285e-05  -6.9716290e-05  -2.2086475e-05   6.9777932e-05   7.6092103e-05   1.4876942e-04   2.9676296e-05  -3.8685047e-04   5.1280385e-04   2.8242127e-04  -3.3315420e-04   1.2372990e-04   4.6450697e-04   5.8445462e-04
  -1.0597268e-04   8.1147766e-05  -1.4894729e-04   2.6585447e-04  -1.6383169e-04  -6.5244800e-05   6.7860034e-05  -1.9720846e-04   7.4061581e-06   2.2746380e-04  -5.8584552e-05   5.6362172e-05  -1.0956545e-04  -2.5569959e-04  -2.0639480e-04  -1.8702893e-04  -1.8424094e-04  -2.4992309e-04   2.7702344e-04   7.9359794e-05  -2.3800667e-06   4.6885587e-05  -6.5223765e-05  -6.2968628e-04   2.9458798e-04  -4.1470357e-04  -3.0378162e-04  -2.9417383e-04  -2.6688015e-04  -1.0541254e-04   2.2255174e-04   5.7118457e-05   1.2719384e-04   1.5922147e-04  -2.8966958e-04  -1.8826502e-04  -9.5789350e-05  -8.8269036e-05  -6.2193016e-05   3.8910290e-05  -9.7050877e-05  -3.8223810e-05  -1.5558912e-04   1.0335360e-04   1.0513028e-05   3.7812680e-04  -3.8211650e-04   2.6050609e-04   4.7516086e-04   4.7627650e-04
  -2.0065677e-04  -8.2959603e-05  -1.9602531e-04   1.5735917e-04  -2.5312306e-04  -1.9390436e-04  -1.7339778e-04  -3.3738127e-04  -4.7060090e-05   1.1929946e-04  -1.5555072e-04  -7.1225288e-05  -2.9597813e-04  -4.0589750e-04  -1.7145142e-04  -2.8114495e-04  -2.8659787e-04  -3.2500690e-04   2.6919998e-04  -8.5522202e-05  -1.7167149e-04   1.5064606e-06  -4.2618215e-04  -1.3056881e-04  -2.8938797e-04  -4.2345625e-04  -4.7806939e-04  -3.4152612e-04  -3.0326343e-04  -2.7409676e-04   6.2847197e-05  -6.5976368e-05  -2.3566744e-04  -2.1870142e-04  -5.7960575e-04  -5.3942623e-04  -3.2487611e-04  -2.2005841e-04  -3.0787472e-04  -2.3703100e-04  -3.3952342e-04  -3.3638859e-04  -3.7464395e-04  -6.2261947e-04  -2.7602044e-04   4.7584082e-05  -6.4689567e-04  -4.1748572e-04  -1.6180735e-05   1.4607025e-04
  -5.0361687e-04  -5.2839145e-04  -6.2616001e-04  -2.4840145e-04  -6.7061972e-04  -6.4567209e-04  -5.2938185e-04  -7.2384742e-04  -3.1134606e-04  -1.8129307e-04  -4.3384414e-04  -3.7751134e-04  -5.7951960e-04  -6.4739020e-04  -4.8659768e-04  -5.3476129e-04  -5.1264552e-04  -5.4543151e-04  -2.8298714e-04  -3.2186098e-04  -4.4521270e-04  -2.1263142e-04  -7.9096708e-04  -9.9881156e-04  -9.3859009e-04  -1.0539370e-03  -5.2688143e-04  -4.8599791e-04  -5.2233401e-04  -5.2411389e-04  -2.1986914e-04  -2.0745504e-04  -3.0695187e-04  -4.9950730e-04  -7.3480030e-04  -7.0771994e-04  -5.3306884e-04  -4.1437455e-04  -5.6665589e-04  -4.1717474e-04  -4.3161304e-04  -1.9793115e-04  -3.6412163e-04   1.8975670e-04  -4.1017809e-04   2.5106175e-04  -4.8457843e-04   4.6552662e-04   4.1827888e-04   4.2363859e-04
  -3.8573882e-04  -4.7471378e-05  -3.3143294e-04   1.7059439e-04  -3.3650207e-04  -4.4371351e-05  -4.7333193e-05  -1.9436229e-04   3.7610505e-04   2.9835934e-04  -3.8929124e-06   7.9364909e-05  -1.9738954e-04  -3.4092684e-04  -1.8940298e-04  -2.6281746e-04  -3.1075359e-04  -3.2269783e-04   4.9704609e-05   3.9802952e-05   1.0436642e-04   1.4586443e-04  -4.2485910e-05  -3.6812042e-05  -2.5171143e-04  -3.3496442e-04  -3.3058101e-04  -2.2158139e-04  -3.8293263e-04  -1.5584198e-04   1.7927215e-04   1.9401365e-05  -1.1225684e-04   3.4703506e-05  -3.9546113e-04  -3.4028522e-04  -1.5189350e-04  -1.3783503e-04  -2.1217960e-04   5.9146616e-05  -2.2844212e-04  -2.4031035e-05  -4.6932964e-05   2.0838635e-04   1.4709393e-04   3.6221324e-04  -3.6490231e-04   3.8299116e-04   4.6249577e-05   4.2950152e-04
  -3.0277047e-04  -4.2036121e-05  -1.6618782e-04   1.4775488e-04  -3.1801287e-04  -2.3531672e-04  -1.9046274e-04  -3.8974817e-04  -4.4456661e-05   2.9141936e-04   5.0862112e-05   1.5339053e-04  -1.2582965e-04  -3.5331622e-04  -2.4973007e-04  -2.7814563e-04  -3.6093825e-04  -3.2651215e-04   1.9004784e-04   4.0834995e-05  -3.9649908e-06   1.0611397e-04  -1.6081217e-04  -2.0880232e-04  -2.5180107e-04  -4.5736373e-04  -3.9035940e-04  -2.9328172e-04  -3.2238409e-04  -2.2570862e-04  -4.2219735e-06  -8.2038190e-05   5.7886315e-05  -7.0546186e-05  -4.2348308e-04  -5.6019973e-04  -2.6746548e-04  -2.7579718e-04  -3.3767559e-04  -3.8244037e-04  -3.0063890e-04  -2.2259276e-04  -9.4036288e-05  -3.6071500e-04   9.4561896e-05   5.1514537e-05  -5.3949252e-04  -3.3347294e-04  -1.5007005e-04   1.0173210e-04
  -5.4028514e-04  -4.0058486e-04  -3.8635934e-04  -1.8450231e-04  -7.2198617e-04  -5.8624247e-04  -4.9001130e-04  -6.3774578e-04  -3.3893515e-04  -4.6992889e-05  -2.2187541e-04  -2.7613988e-04  -5.2383286e-04  -6.2914769e-04  -5.4363627e-04  -5.1936187e-04  -5.4861727e-04  -4.6552747e-04  -4.4999077e-04  -2.3005944e-04  -3.2572413e-04  -2.7273636e-04  -4.1896902e-04  -9.2752496e-05  -4.9039128e-04  -1.0756960e-03  -5.3092052e-04  -4.4006750e-04  -5.3821050e-04  -4.6271784e-04  -2.3673160e-04  -3.1991320e-04  -3.8667538e-04  -3.8418660e-04  -6.1932142e-04  -7.5722235e-04  -4.8447005e-04  -4.3736160e-04  -5.5511075e-04  -6.3684140e-04  -6.5292016e-04  -3.8317640e-04  -4.0340886e-04  -2.3010194e-04  -1.8255741e-04  -4.8283324e-05  -8.8015478e-04  -3.9029724e-04  -3.3794882e-04   2.3052140e-05
  -6.1358721e-04  -5.2934099e-04  -5.2164268e-04  -2.2236789e-04  -6.1720953e-04  -3.0365397e-04  -2.6599073e-04  -4.9914635e-04  -4.8823538e-05   2.5084979e-04  -7.7850600e-06   6.2176754e-05  -2.6703806e-04  -3.9997234e-04  -1.7453944e-04  -3.0257186e-04  -4.6761110e-04  -3.6266670e-04   7.3724473e-04   1.0538404e-04   1.2209748e-04   2.1075582e-04   2.1675328e-04   9.4861252e-04   1.5450787e-04  -3.7415064e-04  -3.9913677e-04  -4.1103581e-04  -3.9080883e-04  -1.7969891e-04   2.1274683e-04   1.4663833e-04   1.9683182e-04   1.0930609e-04  -2.3652837e-04  -2.5464105e-04  -1.6702991e-04  -1.7043402e-04  -2.0430994e-04  -8.6863474e-05  -1.4909983e-04  -1.9371134e-04  -1.1159405e-04   4.2031359e-04   1.2601513e-05   2.3727876e-04  -4.1809279e-04   3.2146345e-05   2.6027922e-04   5.3252728e-04
  -4.2302653e-04  -3.2377680e-05  -1.3842479e-04   3.6299443e-05  -3.9625177e-04  -1.9569823e-04  -1.9344251e-04  -2.6379540e-04   3.3814376e-04   3.1666356e-04   1.2148816e-04   6.5378619e-05  -1.4119803e-04  -3.8514621e-04  -1.6900049e-04  -2.8236667e-04  -3.7037383e-04  -2.7105340e-04   1.9342521e-04   1.3690605e-04   1.1257264e-04   2.1031797e-04   3.9203955e-05   3.5139432e-04  -3.0847561e-05  -4.8466635e-04  -2.7249497e-04  -3.9612854e-04  -3.9985805e-04  -1.7690900e-04   1.6796381e-04   8.5110602e-05   1.9835278e-04   9.4669085e-05  -3.0228906e-04  -3.3063730e-04  -1.9262210e-04  -1.3285052e-04  -1.8445334e-04  -2.7192615e-05  -1.9844831e-04  -1.2093188e-04  -7.8878053e-05  -6.4887758e-04  -1.1890670e-04   5.9626770e-04  -4.5146522e-04   2.6848583e-04   4.1382766e-04   5.4487691e-04
  -3.9463534e-04  -1.1533113e-04  -3.1801467e-04   1.6773351e-05  -3.4341207e-04  -2.9724749e-04  -2.4133518e-04  -4.5098810e-04   4.2654474e-06   1.2446372e-04  -9.7469410e-06  -1.0323992e-04  -3.1399928e-04  -4.8905425e-04  -3.0531481e-04  -3.9123456e-04  -4.5457753e-04  -3.5994386e-04  -5.5794045e-04  -4.9530023e-05  -1.3068262e-04  -1.4391713e-04  -7.0339098e-04  -2.9772965e-04  -5.7528564e-04  -6.5215124e-04  -4.5550283e-04  -4.3605114e-04  -4.6447697e-04  -3.4401254e-04  -2.8589941e-06  -1.2014835e-04  -3.1979824e-05  -1.7492886e-04  -4.4409311e-04  -5.7173095e-04  -3.3823831e-04  -2.7745048e-04  -4.1393217e-04  -2.1200920e-04  -4.2731487e-04  -3.3381296e-04  -3.6915130e-06   1.5891826e-04  -1.5488485e-04   1.1281037e-04  -6.3598936e-04  -2.5631909e-04  -1.8381339e-04   2.0665006e-04
  -5.2921713e-04  -4.1261289e-04  -5.5945641e-04  -1.1057794e-04  -6.4468995e-04  -4.0476504e-04  -3.6467784e-04  -4.7295028e-04   1.4600814e-04   2.6226707e-04   4.9884555e-05   5.4181590e-05  -1.9074850e-04  -3.5885879e-04  -1.2359196e-04  -2.6269228e-04  -3.2061315e-04  -2.4095352e-04   1.0738790e-04   2.5088480e-04   2.6710416e-04   2.9967428e-04   4.9335678e-04   1.4281303e-04   2.9827192e-04  -1.2587468e-04  -2.7832857e-04  -4.8068044e-04  -2.5984272e-04  -4.5935372e-05   3.1190383e-04   2.4558706e-04   3.4207816e-04   3.2191645e-04  -5.3689757e-05  -6.1105478e-05   1.4525044e-05  -7.3927590e-06  -2.5637393e-05   3.5728628e-04   1.3922674e-04  -2.3892931e-05   6.1986575e-05   5.1580672e-04   4.7263532e-04   5.6466484e-04  -2.0783636e-04   3.9830402e-04   2.2670475e-04   7.7546784e-04
  -2.2134079e-04   2.1979747e-04  -1.0955215e-04   3.6436497e-04  -1.8722813e-04   5.0473343e-05   9.3532377e-05  -7.3515555e-05   1.9760325e-04   4.4641655e-04   3.1710777e-04   2.4268546e-04   5.6469846e-05  -2.1492377e-04   6.6741013e-05  -1.1192243e-04  -1.6083554e-04  -9.4512608e-05   6.7367619e-05   3.2476592e-04   2.7143900e-04   3.3602511e-04   3.8254520e-04  -3.0138207e-04   2.4218076e-04  -1.3697280e-04  -2.4807709e-04  -2.7977698e-04  -3.2514596e-04  -1.7178343e-06   4.5378137e-04   3.3065333e-04   2.6794369e-04   3.0686139e-04  -1.0244003e-04  -8.8173365e-05  -4.3559608e-06   7.3062067e-05  -1.8149491e-05   4.3899487e-04  -1.6232914e-05  -6.2962674e-05   6.0230574e-05  -3.9737017e-04   1.5677909e-04   7.0050056e-04  -1.8019207e-04   4.7311332e-04   5.6029554e-04   8.2347507e-04
  -1.0125220e-04   1.5833366e-04   5.2704032e-05   3.2764007e-04  -2.3430883e-04  -1.1816657e-04   3.7466129e-05  -2.2398705e-04   4.4737966e-04   2.9958962e-04   2.0922498e-04   4.9036225e-05  -6.1694504e-05  -2.7539732e-04  -1.9493556e-04  -1.9841010e-04  -1.9125814e-04  -1.2289528e-04   4.4560729e-04   1.2081277e-04   1.1049538e-05   2.6556832e-04   2.2347651e-04  -2.1539267e-06   5.4990477e-04  -4.7896607e-04  -2.2153459e-04  -3.6916454e-04  -2.5189272e-04  -1.5816346e-04   2.5724171e-04   8.0186073e-06   8.5804233e-05   1.1488654e-04  -2.4073303e-04  -3.3377760e-04  -1.5719357e-04  -4.0137162e-05  -1.6682292e-04  -7.4099808e-05  -1.6696296e-04  -1.1080559e-04  -1.3601939e-04  -1.8451877e-04   5.7115732e-05   6.0945255e-04  -3.7008728e-04   3.0456463e-04   1.6363231e-04   6.1314506e-04
  -2.9728291e-04  -1.1550223e-04  -1.6850251e-04   1.2905036e-04  -3.1322482e-04  -2.6097626e-04  -2.0437418e-04  -4.7498138e-04  -1.4779040e-04   2.6620901e-05  -5.3554020e-05  -1.8936137e-04  -2.6653273e-04  -4.7798094e-04  -2.0031564e-04  -3.2929552e-04  -3.1216082e-04  -2.2421095e-04   5.0189177e-05   1.2894004e-04   7.5286625e-05   2.0114967e-04   1.7568447e-04   7.4305208e-05   2.1706651e-04  -2.3818300e-04  -2.7718418e-04  -1.3786077e-04  -2.8042519e-04  -5.7572044e-05   4.6959959e-04   3.3443817e-04   5.7225360e-04   4.6718583e-04   1.2368607e-04   7.5483025e-05   1.7494518e-04   2.0282180e-04   1.3604992e-04   5.9149583e-04   2.2471942e-04   1.9186140e-04   2.7374364e-04   8.6419977e-04   8.9427677e-04   7.7578233e-04   1.0276540e-04   4.8354859e-04   7.6474919e-04   1.0243726e-03
   6.5207150e-04   6.3033181e-04   3.2711602e-04   8.2406739e-04   3.0055834e-04   5.3440552e-04   5.3317525e-04   2.9149660e-04   6.2306883e-04   7.2452525e-04   6.9109083e-04   5.7901809e-04   4.7297278e-04   1.7749655e-04   3.0171935e-04   1.8617297e-04   2.9604672e-04   1.8772237e-04   6.3006044e-04   6.6380145e-04   5.4292305e-04   7.0717721e-04   7.1824994e-04   1.0411718e-03   1.0265245e-03   3.2327138e-04  -1.5632762e-04  -9.1369082e-05   3.9647794e-06   1.9828296e-04   8.6945225e-04   7.3730230e-04   7.4399571e-04   6.4770965e-04   2.7062153e-04   2.1654789e-04   3.1756426e-04   3.8858238e-04   2.5576795e-04   6.5004634e-04   3.0167869e-04   4.1020432e-04   4.3538446e-04  -5.4080865e-05   8.6823670e-04   1.0998178e-03   2.5378086e-04   9.2847319e-04   1.1661517e-03   1.0375793e-03
   5.8811961e-04   7.1598665e-04   5.8278459e-04   8.8162301e-04   4.8886560e-04   4.5611855e-04   4.9663265e-04   2.6772980e-04   5.2518828e-04   6.5718830e-04   6.8227586e-04   5.7114672e-04   5.5385527e-04   1.7366353e-04   2.3565661e-04   2.8811774e-04   4.2360686e-04   2.6398778e-04   8.3183864e-04   6.7609694e-04   4.3942916e-04   5.7668734e-04   4.5791452e-04   5.1029021e-04   3.9063973e-04   1.4141308e-04  -6.5076019e-05  -1.8078518e-04  -7.8854682e-05   1.4401715e-04   7.1354531e-04   7.0460333e-04   5.5183889e-04   6.1996107e-04   1.9856126e-04  -1.5664486e-05   1.6562808e-04   3.8267361e-04   2.1894554e-04   3.4137105e-04   1.0259615e-05   2.6429203e-04   4.7844058e-04  -9.3757708e-06   5.3377019e-04   8.7209203e-04   7.4760617e-05   4.3675894e-04   5.8010110e-04   8.8096270e-04
   6.8092137e-04   4.7324400e-04   2.9637729e-04   6.6479202e-04   1.9403527e-04   1.0849723e-04   3.5452330e-04   1.4530100e-05   3.4427588e-04   3.8343185e-04   4.4111433e-04   3.3421343e-04   3.3426014e-04   2.5891180e-05   9.3323666e-05   1.4201165e-04   3.2558170e-04   2.1609227e-04  -2.8780912e-04   5.0458481e-04   1.9089568e-04   3.5625478e-04   2.6393900e-04  -9.1981028e-06   2.7905017e-04  -1.6054435e-05  -1.6507320e-04  -1.6215065e-04  -1.7558401e-04  -1.2041472e-05   6.4990163e-04   3.5336407e-04   3.8557066e-04   2.8609450e-04   4.5576744e-05  -1.0144881e-04   3.7750709e-05   2.7537177e-04   5.5368797e-05   3.6913247e-04   4.3529162e-05   2.8967296e-04   1.2876146e-04   1.4189922e-03   1.8793500e-04   1.1151456e-03   2.0296144e-04   6.6690054e-04   7.2538015e-04   1.1760594e-03
   1.0618472e-03   8.7317568e-04   5.8513402e-04   1.0255721e-03   7.2582712e-04   7.0489745e-04   7.0456322e-04   5.5788801e-04   9.9048810e-04   8.0404727e-04   8.2042604e-04   7.7636464e-04   8.2743715e-04   4.9158558e-04   5.7623582e-04   5.2536209e-04   7.3343253e-04   4.6385048e-04   7.6418911e-04   1.0645917e-03   8.3126879e-04   9.5430738e-04   9.9957839e-04   1.1533581e-03   1.0941604e-03   8.8385103e-04   1.8711621e-04   1.9825726e-05   1.8775948e-04   4.6165320e-04   1.1885272e-03   1.1192352e-03   9.8912336e-04   1.0820192e-03   7.2850287e-04   6.6111417e-04   6.3704717e-04   6.8746851e-04   5.3480524e-04   1.0304188e-03   6.0687098e-04   4.3982017e-04   7.0066703e-04   1.3994061e-03   1.2291860e-03   1.1766710e-03   5.1567779e-04   1.1022466e-03   1.2173504e-03   1.4658507e-03
   1.2229629e-03   1.1154438e-03   9.0340717e-04   1.3175014e-03   8.4479921e-04   8.8338956e-04   9.6762885e-04   5.8422901e-04   1.0439946e-03   8.6136517e-04   9.5242076e-04   8.3742267e-04   9.8996551e-04   5.7067204e-04   7.0238003e-04   6.4708077e-04   8.9111307e-04   5.8965973e-04   1.2337089e-03   1.1589568e-03   7.9699158e-04   1.0274103e-03   1.0878076e-03   8.6639065e-04   8.4304641e-04   8.1835972e-04   1.6665862e-04   2.1389921e-04   2.9652394e-04   4.7218002e-04   1.1204691e-03   8.8257709e-04   9.5998403e-04   1.0100907e-03   6.8970537e-04   5.0404260e-04   6.0363545e-04   7.8084035e-04   6.1222853e-04   1.0552478e-03   5.1887543e-04   5.5597082e-04   8.6440839e-04   8.6226733e-04   5.7615299e-04   1.2612784e-03   4.6806553e-04   1.5477382e-03   1.2202687e-03   1.2592013e-03
   1.2007196e-03   8.6429203e-04   8.5285184e-04   1.0777108e-03   6.2956772e-04   5.6579162e-04   6.7933433e-04   3.3513675e-04   7.4366981e-04   5.7969580e-04   7.2136935e-04   5.7294068e-04   7.9523330e-04   3.9396124e-04   7.4997463e-04   5.1195652e-04   7.7566708e-04   4.7019144e-04   7.6348154e-04   9.0695109e-04   4.7359403e-04   8.7692088e-04   7.7416637e-04   6.8641314e-04   1.2195775e-03   4.7685002e-04   9.4850104e-05   1.1480776e-04   2.7993537e-04   3.3483285e-04   1.0558746e-03   8.3328708e-04   5.8921322e-04   7.7982392e-04   4.7804904e-04   3.9300666e-04   4.2741880e-04   6.6505920e-04   4.3734736e-04   7.7308499e-04   2.8421983e-04   3.2210001e-04   1.1292415e-03   7.9630374e-04   8.0786413e-04   1.0855729e-03   2.6570918e-04   8.6123362e-04   6.8597606e-04   9.5054507e-04
   8.1682479e-04   5.4610084e-04   6.2499254e-04   8.1790966e-04   4.4869588e-04   4.4097999e-04   3.9762355e-04   9.0609959e-05   3.7150120e-04   2.7668301e-04   4.0139630e-04   2.5038377e-04   5.3049612e-04   2.1500661e-04   3.5735397e-04   2.9364743e-04   5.5273483e-04   3.2825259e-04   5.1584077e-04   6.5690797e-04   2.2515026e-04   6.2997919e-04   3.6442533e-04   4.6681997e-04   9.6446427e-04   4.5228744e-04   3.1897951e-05   2.3788496e-04   5.6854300e-05   2.2897658e-04   1.0619618e-03   9.8428642e-04   8.1382279e-04   8.9315145e-04   7.3672552e-04   6.0736277e-04   6.2891765e-04   7.9283130e-04   6.8182062e-04   1.1147803e-03   6.9604989e-04   6.9650164e-04   1.0819606e-03   1.1475595e-03   1.1135885e-03   1.5076560e-03   6.1896344e-04   1.2568249e-03   1.1888174e-03   1.3461600e-03
   1.5061141e-03   1.1629546e-03   1.2113431e-03   1.3267191e-03   1.0214755e-03   1.0329488e-03   1.0026320e-03   7.6059502e-04   1.1300648e-03   9.4025303e-04   1.0218614e-03   9.6376293e-04   1.1941810e-03   8.2855456e-04   9.9827605e-04   7.9400727e-04   1.0546556e-03   7.4356713e-04   1.0225014e-03   1.2616740e-03   8.9408748e-04   1.2030475e-03   1.4632212e-03   1.3512529e-03   1.5445900e-03   1.1069721e-03   2.2248671e-04   3.5657239e-04   3.5509170e-04   6.3517579e-04   1.2774792e-03   1.0996376e-03   1.3011635e-03   1.1574812e-03   9.8946935e-04   8.6450030e-04   9.1013371e-04   1.0226343e-03   9.0030744e-04   1.3409691e-03   8.1506802e-04   6.6774932e-04   9.3332387e-04   1.2644308e-03   1.0836474e-03   1.5428045e-03   7.8123680e-04   1.8572817e-03   1.6987870e-03   1.5196063e-03
   1.5201576e-03   1.1594626e-03   1.1319501e-03   1.3728674e-03   1.1276226e-03   1.0559839e-03   1.0397395e-03   7.1578298e-04   1.0045884e-03   8.0725818e-04   9.7260968e-04   8.3034899e-04   1.1657396e-03   7.6337380e-04   1.0431348e-03   7.7556609e-04   1.0565959e-03   6.9369772e-04   9.4276632e-04   1.2010940e-03   7.2030351e-04   1.0998957e-03   1.3210933e-03   9.1440504e-04   1.3670692e-03   8.1725162e-04   2.3900735e-04   3.7159384e-04   3.6947857e-04   5.9197791e-04   1.3245828e-03   1.0564780e-03   1.0468495e-03   1.0047910e-03   8.9530356e-04   6.3080323e-04   8.2684407e-04   9.4514951e-04   7.8098336e-04   1.2184092e-03   5.5089849e-04   5.0718628e-04   7.0653140e-04   1.1871125e-03   9.6599560e-04   1.5748817e-03   5.1820034e-04   1.1663340e-03   1.1515997e-03   1.2170390e-03
   1.2867489e-03   8.2246476e-04   6.8381184e-04   1.0746387e-03   6.6403870e-04   6.3385192e-04   8.2843925e-04   4.3636063e-04   7.1177050e-04   4.9305084e-04   6.6423859e-04   5.3738349e-04   9.4848679e-04   5.5374490e-04   7.7299308e-04   6.0511904e-04   8.7869086e-04   4.8147875e-04   7.0642901e-04   9.9056202e-04   4.5009627e-04   8.3589071e-04   8.7883946e-04   5.4154271e-04   3.3606470e-04   6.5265945e-04   2.5275600e-04   2.9861694e-04   3.3868779e-04   4.1342445e-04   1.1549098e-03   9.7256521e-04   5.4370676e-04   7.7599811e-04   5.4989167e-04   4.5419091e-04   6.0422713e-04   7.4188237e-04   6.4518768e-04   9.2814671e-04   3.0827176e-04   3.9855269e-04   4.6345079e-04   8.0590771e-04   8.5078098e-04   1.2600722e-03   1.7620367e-04   8.9907215e-04   1.1049085e-03   8.5594202e-04
   1.0011563e-03   4.6911236e-04   4.7129509e-04   7.2339253e-04   3.4152105e-04   2.8489926e-04   5.1581615e-04   1.9898011e-04   5.0244533e-04   3.9587487e-04   5.1288487e-04   4.2449392e-04   8.5923087e-04   4.8019644e-04   7.5399037e-04   6.0602318e-04   8.1346213e-04   4.9571687e-04   3.1792201e-04   1.0496486e-03   7.0797716e-04   9.8618330e-04   1.3181594e-03   1.2638258e-03   1.2493544e-03   1.0188260e-03   2.6618628e-04   3.8247157e-04   2.9504599e-04   6.2941329e-04   1.2279019e-03   1.2937632e-03   9.3787711e-04   1.0274178e-03   1.0624467e-03   8.1824994e-04   9.3720510e-04   9.0942939e-04   9.2256244e-04   1.4128470e-03   8.5918757e-04   8.0086174e-04   1.0722642e-03   1.5740955e-03   1.2905538e-03   1.6101844e-03   6.5174291e-04   1.5225298e-03   9.7384601e-04   1.3271824e-03
   1.2185539e-03   1.0543871e-03   9.2149549e-04   1.2106842e-03   1.0129045e-03   9.5724507e-04   9.3943207e-04   7.4122119e-04   9.3740615e-04   7.3692127e-04   8.3891180e-04   7.1570638e-04   1.0748862e-03   7.3918176e-04   9.8059513e-04   7.0246146e-04   8.9024549e-04   5.5649754e-04   8.0803072e-04   1.1085090e-03   7.2946522e-04   1.1097486e-03   9.9895697e-04   2.4725460e-03   1.4411554e-03   8.5435191e-04   3.4330800e-04   4.1193582e-04   3.6356592e-04   6.6760072e-04   1.2720652e-03   1.2398590e-03   9.8529854e-04   1.0087716e-03   9.1511459e-04   8.9713588e-04   8.9778751e-04   8.7794539e-04   9.0744958e-04   1.1018498e-03   6.9109397e-04   6.3039939e-04   1.1328628e-03   1.2336110e-03   6.0658302e-04   1.2620565e-03   5.6086498e-04   1.2601415e-03   1.0851793e-03   1.2009058e-03
   1.2491752e-03   8.6810603e-04   8.0985000e-04   1.0955213e-03   7.2019082e-04   7.3617155e-04   7.7317999e-04   4.6239802e-04   9.2256546e-04   5.8427046e-04   6.8874593e-04   5.9722940e-04   8.8407518e-04   5.4563594e-04   8.3582295e-04   5.2951236e-04   7.9102925e-04   4.3980798e-04   4.7641527e-04   9.1242249e-04   4.7724938e-04   7.7983271e-04   5.0460623e-04   5.6982896e-04   1.1059956e-03   3.5169700e-04   2.1538926e-04   4.3190029e-04   2.9770308e-04   4.4383938e-04   9.0029428e-04   8.8182039e-04   7.1025611e-04   6.6966022e-04   5.9624185e-04   4.7355730e-04   6.9034955e-04   7.0273428e-04   6.4910267e-04   9.1886154e-04   4.1555564e-04   3.8975154e-04   3.8089327e-04   1.1617318e-03   7.3700782e-04   1.1314671e-03   3.0381847e-04   1.1994696e-03   8.6985418e-04   8.3477830e-04
   6.2939315e-04   4.7335550e-04   3.7363078e-04   6.6276471e-04   3.5829042e-04   3.4230531e-04   4.1929295e-04   3.0651793e-04   4.7255130e-04   2.8829265e-04   3.7108280e-04   3.0303875e-04   4.9816578e-04   3.0149258e-04   6.8336522e-04   2.8284700e-04   4.6886320e-04   2.2133104e-04  -5.8757060e-04   6.1275100e-04   2.0306211e-04   6.4007135e-04   5.5856985e-04   4.4602042e-04   7.6130085e-04  -4.3518376e-05  -1.2344241e-05   3.7685357e-04   2.9664823e-05   2.2638301e-04   5.7856907e-04   7.1467401e-04   4.6576865e-04   3.3351258e-04   3.1212592e-04   1.6447733e-04   4.4963293e-04   4.1474553e-04   3.9361577e-04   4.4546646e-04   2.0168674e-04   2.4647903e-04   4.4239635e-04   2.2127049e-04   3.6042911e-04   8.6396601e-04  -8.9535060e-05   4.6808625e-04   3.4975237e-04   4.4406284e-04
   2.9958991e-04   2.3117033e-04   2.0645051e-04   5.5765029e-04   4.7819098e-04   4.9419928e-04   4.4248931e-04   3.4808947e-04   6.6053431e-04   5.5644038e-04   5.4013485e-04   6.1332964e-04   5.9010804e-04   4.6227730e-04   7.4688398e-04   4.2119491e-04   5.4133270e-04   2.7995868e-04   1.0852253e-03   8.4328750e-04   6.1019906e-04   8.1815658e-04   5.0189556e-04   1.6841260e-03   1.1944564e-03   7.9527497e-04   2.3935255e-04   4.1512959e-04   1.5539610e-04   5.2079628e-04   8.9905190e-04   8.6947385e-04   7.5757731e-04   7.2557415e-04   7.9423998e-04   7.0087082e-04   7.1691896e-04   6.0293515e-04   7.8169361e-04   1.2786344e-03   6.6640653e-04   6.3209288e-04   5.8286614e-04   1.1670657e-03   7.0751557e-04   1.1378450e-03   4.0720284e-04   1.3145183e-03   9.1461802e-04   1.0110602e-03
   7.2679739e-04   7.5588655e-04   3.5626668e-04   8.6719508e-04   5.6403875e-04   6.6208548e-04   6.3094351e-04   4.4747491e-04   8.3398545e-04   6.6895847e-04   6.5746106e-04   6.5039709e-04   7.0365315e-04   4.4162851e-04   7.9623825e-04   4.0434298e-04   4.8799475e-04   2.4428533e-04   1.3483121e-03   8.1705971e-04   6.2655157e-04   8.2725566e-04   1.2793724e-03   4.2517291e-04   1.0251828e-03   6.9093209e-04   1.6961555e-04   3.7692059e-04   1.7877635e-04   4.6742614e-04   9.2598586e-04   8.0897089e-04   3.8909464e-04   5.9789489e-04   8.0374640e-04   6.4560893e-04   7.1661000e-04   5.2082143e-04   6.4318674e-04   8.6259202e-04   5.2973052e-04   5.3996110e-04   4.7903429e-04   7.6766324e-04   7.1214524e-04   9.2015095e-04   1.8543024e-04   6.4332841e-04   8.1128738e-04   9.2623831e-04
   5.4354576e-04   5.4666435e-04   2.9541171e-04   6.7038718e-04   2.7906880e-04   3.5663776e-04   4.8584561e-04   1.8013040e-04   6.9599535e-04   4.6307189e-04   5.1610259e-04   5.1839399e-04   4.9251376e-04   2.3184139e-04   5.5766373e-04   1.5722465e-04   2.9378760e-04   1.4338938e-04   5.4297160e-04   5.4548134e-04   3.0284849e-04   6.9290225e-04   4.5294571e-04   5.0344947e-04   5.3028535e-04   3.7236491e-04   8.0223399e-05   2.4781667e-04   6.2312356e-06   2.0731312e-04   5.5875542e-04   5.1962107e-04   3.6363050e-04   3.4294935e-04   3.6240736e-04   2.8664156e-04   4.5480524e-04   2.8920025e-04   3.6424588e-04   5.4683554e-04   2.3522404e-04   3.3546879e-04   3.1630389e-04   4.4143407e-04   6.0805705e-06   6.5752346e-04  -3.2392647e-05   4.2059110e-04   3.2375407e-04   4.3151880e-04
   2.9015954e-04   1.6686696e-04   1.4304872e-04   3.3143599e-04   1.4400129e-04  -5.1305789e-05  -1.4550202e-06  -1.6029904e-04   3.2145579e-04   1.7314650e-04   2.0178095e-04   1.6818562e-04   1.9184125e-04  -3.4136363e-05   3.9605206e-04  -8.0924488e-05   5.3895754e-05  -8.7375505e-05  -9.0045425e-05   2.6123325e-04   2.7592301e-05   3.6138415e-04  -5.1059683e-06  -1.0059417e-04   3.4554242e-04  -3.5622629e-04  -1.4068931e-04   8.5342108e-05  -1.5257721e-04  -3.8328708e-05   2.6721923e-04   2.5378447e-04   5.3803935e-05  -6.1977167e-05   6.1120154e-05  -1.1936743e-04   2.1505823e-04   4.7464004e-05   7.4201154e-05  -8.7907676e-05  -1.0240477e-04  -8.4257677e-05  -1.5046173e-05   6.2327582e-04   1.5304403e-04   2.1687061e-04  -3.2963639e-04  -1.2142708e-04   1.1960805e-04   3.0583289e-04
   2.5573224e-04   2.2835482e-04  -8.4967061e-05   3.8707186e-04   2.3353909e-04   2.6895863e-04   2.4711009e-04   1.9172879e-04   4.4821831e-04   5.2287790e-04   4.4971603e-04   5.3460727e-04   3.5597821e-04   1.7009475e-04   5.8678031e-04   4.4720542e-05   1.0510680e-04  -4.5278184e-06   2.1877891e-04   5.0907372e-04   4.9662014e-04   5.0066004e-04   6.5489183e-04   7.3954405e-04   1.1359612e-03   4.0179599e-04  -7.0167821e-06   2.0989309e-04  -8.3946477e-05   2.8137059e-04   4.3006527e-04   4.3679689e-04   5.1942049e-04   3.5798701e-04   5.3307653e-04   4.9259450e-04   5.7042856e-04   2.3381214e-04   4.3126396e-04   6.0138688e-04   4.1214429e-04   4.4150205e-04   3.7305435e-04   1.1011017e-03   3.7206145e-04   8.4885373e-04   4.9171409e-05   2.1690385e-04   4.0818803e-04   6.4778683e-04
   2.7342603e-04   4.6646979e-04   2.0443005e-04   4.7717142e-04   2.5240067e-04   2.4471729e-04   2.1374559e-04   2.1509518e-04   4.8260461e-04   5.4680242e-04   5.3062913e-04   4.3051629e-04   3.7579070e-04   1.3552653e-04   4.3986991e-04   2.6045373e-06   7.5092234e-05  -1.9875826e-05   3.4242083e-04   4.3779574e-04   4.3277699e-04   6.1881827e-04   3.9951806e-04   8.2994852e-04   8.9892192e-04   3.1825522e-04  -1.1966444e-04   1.4066545e-04  -4.1033978e-05   1.9308021e-04   3.8011395e-04   3.6992037e-04   3.6228943e-04   1.5464636e-04   3.8557482e-04   1.4264342e-04   4.1711386e-04   1.3204565e-04   3.3170945e-04   4.6488404e-04   2.1433833e-04   6.4269203e-05   2.7280793e-04   4.3900209e-04   2.4595918e-04   5.2280631e-04  -1.2591790e-04   5.0127157e-04   4.1504117e-04   5.4313225e-04
   7.4400145e-05   2.5030860e-04  -2.1429129e-05   2.7350697e-04  -3.9453076e-05  -6.1410617e-05   8.7367560e-05  -1.7654910e-04   1.5278951e-04   2.7425820e-04   3.0692870e-04   1.3881658e-04   1.5494940e-04  -1.1484178e-04   1.6071214e-04  -2.2626942e-04  -1.0187650e-04  -1.2045803e-04   7.5528614e-04   1.7281951e-04   7.4610507e-05   3.1264979e-04  -1.4839620e-04   2.6101031e-04  -2.2566406e-04  -1.9592559e-04  -2.2037298e-04   5.8280708e-05  -2.6818257e-04  -7.3167517e-05   6.4712469e-05   6.9071735e-05  -6.5108914e-05  -1.3028673e-04  -4.8606013e-05   2.7836335e-05   1.3420571e-04  -7.4393465e-05   5.8517012e-06   4.6051511e-05  -8.8620342e-05  -4.2589116e-05   1.0136918e-04  -8.6015745e-05   4.0113077e-06   9.5772964e-05  -3.9625666e-04   1.9698590e-04   2.7320773e-04   2.3900364e-04
  -5.3948956e-04  -1.7378113e-04  -2.7993330e-04  -1.0386476e-04  -4.7877984e-04  -5.3910038e-04  -3.3793392e-04  -4.7479646e-04  -1.4476934e-04  -6.3731801e-05  -6.6558714e-05  -2.1382874e-04  -2.7522747e-04  -4.4846290e-04   6.9746209e-05  -4.8213819e-04  -4.2353835e-04  -4.0814682e-04   1.2130249e-04  -1.6983121e-04  -1.9779817e-04   1.0631505e-04  -4.9444841e-04  -6.1428000e-04  -2.6431124e-04  -8.3052536e-04  -3.3022778e-04  -3.9306473e-05  -4.4668271e-04  -3.3744867e-04  -3.6830825e-04  -2.1652375e-04  -3.8163282e-04  -5.1020167e-04  -3.4734895e-04  -3.5392048e-04  -8.8181478e-05  -3.5218251e-04  -2.5439580e-04  -5.8687542e-04  -2.6006089e-04  -2.7023730e-04  -2.2888518e-04  -4.8550856e-04  -2.4606279e-04   9.0984176e-05  -4.0807482e-04   1.4096359e-04   1.4415341e-04   2.8747437e-04
  -2.7281346e-04   1.5602483e-04  -9.6052267e-05   8.5045845e-05  -2.4444342e-04   6.4936357e-05  -1.4936649e-05  -8.3670588e-05   3.8015595e-04   3.1747451e-04   2.1193203e-04   6.2591411e-05  -3.9080456e-05  -2.3751457e-04   1.7021969e-04  -2.9002517e-04  -2.8160532e-04  -2.1869177e-04   2.3463664e-04   1.1572064e-04   3.2452290e-04   2.8281257e-04   2.7873792e-04   6.7866995e-04  -1.7311566e-05  -8.0959391e-05  -2.3325143e-04  -4.2621574e-05  -3.1412090e-04  -2.1161264e-05   6.0900555e-05  -5.4314816e-05   1.0877787e-05   5.5426193e-05   1.9185133e-04   4.1383162e-05   2.8231484e-04  -1.1603966e-04   3.2569329e-05   1.1801362e-04   2.3833395e-06   1.6049216e-05  -3.6456458e-05  -1.8384721e-04  -1.5425551e-04   1.9363264e-04  -2.8737320e-04   3.6688929e-04   2.3998698e-04   2.9360561e-04
  -3.8001029e-04   1.6694146e-04  -1.0475119e-04   1.1612790e-04  -2.6259429e-05  -2.5513724e-05  -5.4586784e-05  -2.2792183e-04   2.8443297e-05   2.8956108e-04   2.1561835e-04   7.0382754e-05  -2.2964890e-05  -2.3974714e-04   1.6807187e-04  -2.9003533e-04  -2.8809457e-04  -2.1493528e-04   7.3561052e-05   5.9748600e-05   1.7831408e-04   2.8964630e-04   3.2298456e-04  -3.2431628e-05   2.3151192e-04  -1.0435649e-04  -2.6657528e-04   1.3810482e-04  -1.8442589e-04  -1.3891282e-04  -8.7551191e-05   2.9627885e-05   3.7540089e-05  -5.3104010e-05  -1.2035068e-05  -1.0551954e-04   1.2251749e-04  -1.2918680e-04  -4.6974976e-05  -1.6843076e-04  -3.4892319e-06   1.0567996e-05   1.7881069e-04  -5.5781926e-04  -3.8112074e-04   1.3390335e-04  -4.4339991e-04   2.5428264e-04   9.7262950e-05   1.8548887e-04
  -3.5597367e-04  -1.1373730e-04  -1.4987790e-04  -1.2095056e-04  -3.6420347e-04  -3.9010026e-04  -3.5538207e-04  -4.2569370e-04  -1.1935048e-04  -2.9115485e-05  -6.7317007e-05  -2.4756414e-04  -2.9055832e-04  -4.8719425e-04  -1.2920138e-04  -4.6174691e-04  -4.3189689e-04  -2.9647417e-04  -2.6524166e-04  -2.1232342e-04  -1.4469569e-04  -7.4691707e-05  -7.2232709e-04  -8.5236609e-04  -4.8424640e-06  -6.2128197e-04  -3.4075364e-04   8.5270667e-06  -3.5982422e-04  -3.6129556e-04  -2.3139377e-04  -1.2039956e-04  -2.2879300e-04  -4.2058132e-04  -2.3186300e-04  -2.8646601e-04  -1.1927495e-04  -3.0920075e-04  -3.5094659e-04  -5.2167481e-04  -3.5375019e-04  -4.1681409e-04  -3.0001154e-04  -7.5179618e-05  -5.4730260e-04   1.7266160e-05  -6.9384224e-04   3.2223450e-04   8.1103753e-06  -9.0352580e-05
  -3.3891911e-04  -4.8284442e-04  -3.4189699e-04  -4.1436646e-04  -6.7346630e-04  -8.1530260e-04  -6.3438161e-04  -7.6706224e-04  -6.1576813e-04  -3.3178341e-04  -3.8484810e-04  -5.2372413e-04  -5.1736948e-04  -6.7830563e-04  -2.3031561e-04  -6.4021628e-04  -5.8809499e-04  -4.2358221e-04   9.7960292e-05  -3.1950674e-04  -1.4115739e-04   3.8855764e-05  -2.5207057e-04  -1.1430150e-04   9.3384013e-05  -5.7046150e-04  -3.6668437e-04   2.1556320e-05  -3.9188651e-04  -2.8053968e-04  -2.6908939e-04   6.6229557e-05  -5.7528399e-05  -1.6667129e-04  -7.6649967e-06  -1.3569176e-04   1.3117606e-04  -1.5872305e-04  -1.2930525e-04   1.4197049e-04  -1.4834068e-04  -3.0261530e-05  -1.8404248e-04  -2.6738495e-04  -2.9709301e-04   2.5950803e-04  -2.4915891e-04   2.1354963e-04   2.1201825e-04   3.3489798e-04
   4.1924643e-05   1.1223311e-04  -1.4139603e-04   2.1963886e-06  -2.0831799e-04  -1.4718503e-04  -7.7946985e-05  -1.7360639e-04  -1.0061036e-04   1.4779657e-04   6.2180326e-05  -4.9759434e-05  -1.0876266e-04  -3.3966731e-04   4.8274746e-06  -3.3119915e-04  -3.7637143e-04  -2.4362291e-04   9.7792356e-05  -1.5105846e-04   8.2156046e-05   1.3845252e-04  -2.6762222e-05  -6.5483275e-04   3.6664199e-04  -2.6995028e-04  -3.0162532e-04   3.2243570e-05  -2.7893914e-04  -1.8879326e-04  -2.8264950e-04   1.5658997e-04  -2.6304461e-04  -1.4636850e-04  -2.5475825e-05  -1.3191075e-04   1.2083150e-04  -1.2413820e-04  -1.5344730e-04  -2.5573187e-04  -1.7817297e-04  -1.0872334e-04   1.6418209e-04  -1.7963414e-04   1.5009267e-04   7.9527090e-05  -3.1099553e-04  -9.5731730e-06   1.9420480e-04   2.0899868e-04
  -8.1902996e-05   1.0069065e-05  -7.2309034e-05  -3.5995607e-05  -1.5477656e-04  -3.2616250e-04  -2.6397660e-04  -2.6190915e-04  -3.4773335e-04   4.4738616e-05   1.4177027e-05  -1.1383389e-04  -2.0377825e-04  -3.3016442e-04   2.5449826e-05  -3.4039438e-04  -2.8455505e-04  -2.0682714e-04   1.4026430e-04  -2.0427472e-04  -5.7733690e-05   9.3594790e-05  -3.5499697e-04   1.6174529e-04  -3.5467633e-04  -5.9305620e-04  -3.4539332e-04  -2.7541069e-05  -2.6559344e-04  -2.8422332e-04  -1.5866449e-04  -6.8986650e-05  -1.6281313e-04  -3.1147193e-04  -2.1918124e-04  -3.0600975e-04  -6.0805229e-05  -2.4632679e-04  -2.8704264e-04  -3.9973116e-04  -3.9286178e-04  -2.7687478e-04  -3.1887621e-04  -3.7865670e-04  -3.7676009e-04  -5.0942558e-06  -5.3830049e-04   7.3554555e-05   4.1034145e-05  -2.1711005e-05
  -2.4334066e-04  -3.4930682e-04  -2.9735354e-04  -2.5870246e-04  -3.4512609e-04  -6.7045429e-04  -4.8942637e-04  -6.8962941e-04  -3.5857011e-04  -2.4186043e-04  -2.7106184e-04  -4.2170807e-04  -3.6573468e-04  -5.6049932e-04  -1.2820674e-04  -4.8518062e-04  -4.4585936e-04  -3.0258321e-04  -5.4373994e-04  -4.9183908e-04  -3.3172674e-04  -1.1899131e-04  -3.1983975e-04  -1.3712089e-03  -1.0474784e-03  -1.0768638e-03  -4.9748697e-04  -9.0201584e-06  -4.1789221e-04  -4.5444292e-04  -4.9865671e-04  -3.1781686e-04  -6.3365977e-04  -5.7930115e-04  -3.2392255e-04  -4.8171388e-04  -1.7570425e-04  -3.0341576e-04  -3.7896770e-04  -3.4061586e-04  -3.1025000e-04  -2.2147140e-04  -9.4302974e-05  -3.4335486e-04  -1.4894801e-04   1.5925374e-04  -3.3662983e-04   9.6436677e-05   2.0943559e-04   4.4331074e-04
   1.6184502e-05   1.3137716e-04  -6.0040511e-05   1.2145621e-04   5.4159849e-05  -1.4117395e-04  -8.4405496e-05  -6.9125825e-05   1.0859664e-04   1.8084927e-04   8.8620960e-05  -1.7600336e-05   1.7260094e-05  -1.8144849e-04   2.5983481e-04  -1.7012321e-04  -1.8531497e-04  -7.5217540e-05   3.1256987e-04  -5.3501430e-05   1.5409132e-04   2.3954328e-04   1.3768149e-04  -5.8453507e-04   6.7367288e-04  -1.6695639e-04  -2.8526143e-04  -5.8923324e-05  -2.2211668e-04  -9.7473923e-05  -2.6946425e-04  -2.4969029e-05  -4.4093213e-06  -4.4828139e-05   9.5394134e-05  -1.6310691e-05   1.9816514e-04  -6.5334840e-05  -7.2346978e-05  -1.0455314e-04  -1.7237596e-04  -1.2312630e-04  -8.6026841e-05  -9.6979272e-04   3.8767390e-05   2.3683885e-04  -2.3750489e-04   2.8113017e-04   2.8683307e-05   5.0991710e-04
   3.8063884e-04   1.6502477e-04   1.8782573e-04   1.7686367e-04   8.7838314e-05  -8.9828063e-05   6.2789470e-05  -1.4928970e-04  -5.6962865e-05   1.5258387e-04   1.0520495e-04  -8.6274122e-06   4.9750917e-05  -1.8080886e-04   2.0169620e-04  -1.3988106e-04  -3.6562276e-05  -1.1097580e-05   5.3257623e-04  -5.5655419e-05   6.3731364e-05   3.2690636e-04  -3.1680735e-05  -1.3225571e-04   2.8073171e-04  -2.5287762e-04  -2.9739283e-04   3.7142836e-05  -1.7311287e-04  -1.2684139e-04  -1.0438159e-04   6.1006645e-05   4.7325291e-05  -6.0862989e-05   7.5405602e-05  -1.5348307e-04   6.8662303e-05  -2.2843456e-06  -1.0157481e-04  -2.5104763e-04  -2.4109239e-04  -6.6684377e-05  -3.6379078e-04   2.2984190e-04  -6.5045191e-05   3.1628247e-04  -2.6772686e-04   1.1762465e-04   2.8578876e-04   3.0401276e-04
   2.1213845e-04  -9.7085460e-05   2.8328336e-04  -5.1141611e-05  -9.2633099e-06  -3.5480541e-04  -2.0758528e-04  -3.0170279e-04  -3.6841995e-04  -8.2381404e-05  -1.1385696e-04  -2.4874098e-04  -9.6150172e-05  -2.9097733e-04  -2.1221518e-05  -2.3874437e-04  -1.4096162e-04  -6.5002132e-05  -3.6024838e-04  -2.2440251e-04  -1.6629847e-04   1.1161534e-05  -2.6074139e-04  -6.7866646e-04   1.5277865e-04  -3.3221915e-04  -4.2866162e-04  -1.6828268e-05  -2.5631188e-04  -2.6629859e-04  -2.6879541e-04  -8.2986968e-05  -5.0478330e-04  -3.5983764e-04  -1.4775524e-04  -3.4457885e-04  -8.3769482e-06  -1.1812479e-04  -2.2814531e-04  -3.4298186e-04  -3.9698696e-04  -2.9204658e-04  -2.8878634e-04  -5.5973779e-04  -4.2090841e-04  -8.8038876e-05  -3.1920464e-04  -9.4249714e-05   1.7756382e-05   3.7557355e-04
   2.0673970e-04   7.6390395e-05   1.6015084e-04   1.9863881e-04   2.6516753e-04   1.0012052e-04   8.6538195e-05  -8.1288686e-05   2.2140940e-04   2.7896717e-04   2.0014349e-04   1.9473291e-04   2.4359195e-04   1.7232498e-05   2.8145825e-04   6.1831015e-05   1.3002391e-04   1.3657878e-04   8.6235414e-05   1.6180972e-04   3.0848556e-04   3.7034290e-04   3.2459007e-04   1.9966236e-04   8.6013391e-04   3.1554219e-04  -1.9841576e-04  -1.0896985e-05  -1.7445693e-05   1.1408742e-04   2.0963220e-04   2.4726754e-04   2.5065252e-04   1.7586445e-04   3.8996912e-04   1.8570213e-04   4.0964517e-04   2.6964818e-04   2.1263787e-04   4.7855117e-04   9.5208961e-05   1.8914956e-04   2.2509528e-04   3.2463105e-04   1.8487369e-04   5.7553715e-04   1.3478370e-04   4.3437589e-04   6.0247100e-04   7.8966131e-04
   5.8702158e-04   4.6351305e-04   5.3339044e-04   4.6281170e-04   5.2216003e-04   2.5866917e-04   4.0071621e-04   1.1326524e-04   2.7669541e-04   3.8363205e-04   3.9303117e-04   2.5706616e-04   4.8975495e-04   2.0254441e-04   4.4612758e-04   2.4634894e-04   3.4653427e-04   3.2567346e-04   5.8019999e-04   3.2146362e-04   3.1870505e-04   5.8841758e-04   2.1151223e-04   4.0592215e-04   9.0361288e-04   3.5797225e-04  -2.0682269e-04   2.0563859e-04   7.8532546e-05   1.7022944e-04   2.5049495e-04   3.5661404e-04   4.1388517e-04   2.3127902e-04   4.3371017e-04   2.1921373e-04   4.8972399e-04   3.7467224e-04   1.9933254e-04   2.2747941e-04   1.4907047e-04   1.6216132e-04   4.8413494e-04  -1.0151875e-03   1.8006824e-04   5.7799509e-04   1.5887758e-04   5.3183397e-04   7.0895115e-04   8.0665085e-04
   9.6845743e-04   3.1397972e-04   6.3244166e-04   3.9043083e-04   4.1300798e-04   8.1980550e-05   2.5463512e-04  -2.5636038e-05   6.2222520e-05   1.6828543e-04   2.0551079e-04   7.8416946e-05   3.4365361e-04   1.2855265e-04   3.3536693e-04   1.8877242e-04   3.4205572e-04   2.8753155e-04   9.0795814e-04   2.0847477e-04   1.4840900e-04   3.3810211e-04   1.8224354e-04   1.7854451e-04  -3.1910284e-04   1.4160689e-05  -1.2022210e-04   1.4019679e-04   5.5667351e-06   4.1503416e-05   9.2814946e-05   2.8393060e-04   2.1291214e-04   1.0538304e-05   4.0452660e-04   1.2351896e-04   2.9329269e-04   2.6134754e-04   5.8069869e-05   6.9484640e-06  -9.6725373e-05  -5.2846950e-05   3.3154665e-04   2.1347338e-04  -1.6013324e-05   6.3704554e-04  -2.5049058e-05   3.9136285e-04   6.3077378e-04   5.1301933e-04
   4.0819964e-04   4.8165264e-05   3.9422585e-04   1.7366830e-04   2.5231254e-04  -8.3519582e-05  -1.6192769e-05  -1.5682795e-04   7.8923236e-05   7.9725345e-05   6.6373374e-05  -1.5311018e-05   3.6465033e-04   6.1758321e-05   4.2499718e-04   2.2554690e-04   3.2344309e-04   2.7042651e-04   5.7521509e-04   3.4217729e-04   3.9258483e-04   5.2957173e-04   5.8805296e-04   1.2382832e-03   1.2873869e-03   2.8278475e-04  -4.0025971e-06   1.7719502e-04   1.0190348e-04   2.7723348e-04   3.2720098e-04   5.6890305e-04   7.6041732e-04   3.9893115e-04   6.6492509e-04   4.5061187e-04   6.6377362e-04   4.9234217e-04   4.3458916e-04   6.7386031e-04   4.3638784e-04   4.2333835e-04   4.9935275e-04   1.8290636e-03   4.6095037e-04   9.9418208e-04   5.3379632e-04   5.4206577e-04   8.3945435e-04   1.0896617e-03
   1.0774473e-03   7.4991526e-04   8.5285562e-04   8.8362006e-04   9.1761741e-04   6.2248937e-04   6.4830686e-04   4.9258984e-04   5.4800208e-04   5.1792967e-04   5.6750746e-04   4.4251635e-04   7.8374491e-04   5.3053611e-04   7.3054060e-04   5.6542543e-04   6.8004412e-04   5.6224049e-04   6.3113560e-04   6.0669793e-04   6.0625846e-04   7.7749148e-04   6.6555303e-04   1.1339324e-03   6.6905963e-04   5.5023743e-04   1.4733971e-04   3.0710810e-04   2.1889759e-04   4.1003077e-04   5.3369062e-04   4.9647386e-04   4.9777265e-04   5.0843577e-04   8.2736503e-04   5.8953598e-04   7.8522973e-04   6.5112178e-04   4.8083850e-04   8.1712153e-04   4.1239811e-04   4.8910407e-04   6.3436379e-04   4.3251499e-04   6.4232183e-04   1.2138576e-03   6.5419695e-04   9.4669365e-04   9.0034382e-04   1.1085832e-03
   1.2852558e-03   6.9385988e-04   9.5987477e-04   7.7977107e-04   8.6916139e-04   5.1101577e-04   5.5708608e-04   3.5467767e-04   3.9967053e-04   4.0209465e-04   4.7753094e-04   3.6515642e-04   7.5887522e-04   4.7911453e-04   5.8797916e-04   5.4567482e-04   6.5072038e-04   5.5557053e-04   4.2774866e-04   4.7794476e-04   3.7136528e-04   5.0678669e-04   6.8639859e-04  -5.7025187e-05   1.1266961e-03   2.9716527e-04   5.3134168e-05   2.1496246e-04   2.3556416e-04   2.9332426e-04   5.7799404e-04   7.0394779e-04   6.9725089e-04   2.7535923e-04   5.8995857e-04   3.5850139e-04   5.7662750e-04   5.6556426e-04   3.8643522e-04   3.3771040e-04   2.4313961e-04   3.4470836e-04   4.8263426e-04  -1.5640729e-04   1.2589585e-04   9.4303803e-04   3.9145214e-04   9.8032213e-04   5.9873064e-04   8.7716180e-04
   8.9085987e-04   4.0941540e-04   6.6378032e-04   4.7568462e-04   6.7659729e-04   2.4743818e-04   4.0018591e-04   1.7730078e-04   7.1062874e-05   1.4463594e-04   2.4565411e-04   1.0051390e-04   4.8065573e-04   3.3071803e-04   4.7536992e-04   4.1106861e-04   4.5846004e-04   3.6005792e-04   4.3342871e-04   2.7418623e-04   1.7404578e-04   3.8170264e-04   3.9081901e-04   3.4179696e-04   5.1031564e-04  -4.1037623e-05  -3.7960228e-05   2.9104628e-04   1.9445913e-04   1.6512393e-04   3.5533926e-04   3.1217202e-04   2.8660352e-04   3.5554684e-05   4.7272534e-04   2.8565654e-04   4.6040988e-04   5.2963942e-04   2.7333046e-04   4.7873610e-04   2.6302290e-04   3.6871966e-04   5.3208350e-04   1.7321935e-04   4.4151870e-04   1.1036943e-03   5.4995401e-04   5.0895830e-04   1.0044826e-03   1.1579606e-03
   1.4862005e-03   8.0905261e-04   6.9604424e-04   9.2067948e-04   1.0143080e-03   7.4184197e-04   7.5067329e-04   6.4909720e-04   6.5447169e-04   6.3341710e-04   6.5565697e-04   5.7868793e-04   8.7972899e-04   7.4072875e-04   9.3263394e-04   7.4036809e-04   7.8028702e-04   6.7413819e-04   9.5795444e-04   7.3945645e-04   7.7906635e-04   1.0302393e-03   8.8929612e-04   7.1003899e-04   1.5018774e-03   9.8572474e-04   3.3557208e-04   3.7948813e-04   3.4835108e-04   5.9950893e-04   7.7447161e-04   8.0614915e-04   6.9983187e-04   5.8688771e-04   1.0348958e-03   8.1234908e-04   8.9738437e-04   8.4977085e-04   7.2934164e-04   7.7389454e-04   6.6847022e-04   6.0450536e-04   8.0047629e-04   8.2943792e-04   9.4154861e-04   1.3858296e-03   8.6945941e-04   1.4133077e-03   1.2149063e-03   1.2553295e-03
   1.4230388e-03   9.7458338e-04   1.1817218e-03   1.0773960e-03   1.1692767e-03   8.1772311e-04   8.1751280e-04   7.8759913e-04   1.0134148e-03   6.6312938e-04   7.8192068e-04   6.5678894e-04   1.0845183e-03   8.5008109e-04   9.4336632e-04   8.3925680e-04   8.9462986e-04   7.7006005e-04   5.2914472e-04   7.9768547e-04   6.9166697e-04   9.5579558e-04   9.2825328e-04   1.1235893e-03   7.7949720e-04   6.2904629e-04   3.9800064e-04   4.8460203e-04   5.0572155e-04   6.0444779e-04   7.1844546e-04   9.9717709e-04   9.0240443e-04   5.1114737e-04   1.0571338e-03   7.3926063e-04   9.6693507e-04   8.8141020e-04   7.6057512e-04   8.0957264e-04   6.7334250e-04   5.9718994e-04   9.0451044e-04   8.3490205e-04   1.1871313e-03   1.2316875e-03   7.5328321e-04   1.2150031e-03   1.0668503e-03   1.0828387e-03
   1.5779728e-03   7.6097000e-04   9.4006216e-04   8.8728365e-04   8.6679216e-04   6.3783495e-04   6.7570113e-04   5.6079403e-04   4.6709256e-04   4.4808481e-04   6.1559444e-04   4.8088818e-04   9.3329378e-04   7.1488169e-04   8.6078577e-04   7.1892998e-04   7.8820216e-04   5.9003505e-04   2.2592157e-04   5.7885656e-04   4.8346011e-04   6.4369448e-04   7.5626501e-04   2.6424826e-04   9.8253204e-04   4.2040512e-04   3.1004020e-04   5.3744507e-04   3.9390865e-04   4.9552834e-04   6.4225728e-04   6.4926228e-04   3.6857906e-04   2.6001292e-04   8.3183945e-04   5.6973624e-04   8.0493389e-04   7.7851472e-04   5.3492707e-04   6.5536209e-04   3.7654358e-04   4.6162112e-04   9.3064323e-04   1.2528185e-03   4.7701769e-04   1.0525036e-03   5.0410785e-04   9.0206420e-04   1.0307187e-03   7.3176058e-04
   1.4193160e-03   4.8520471e-04   6.5105647e-04   6.9958804e-04   6.9721526e-04   3.0482066e-04   4.1660806e-04   4.1362864e-04   5.0799549e-04   3.5112601e-04   4.8280534e-04   3.3985468e-04   8.7332557e-04   6.1623420e-04   8.3200552e-04   7.0349191e-04   7.0096063e-04   6.2409701e-04   3.7343169e-04   7.0239301e-04   7.3173200e-04   9.6597738e-04   9.1191492e-04   4.4669060e-04   1.2847886e-03   8.4644341e-04   3.2365535e-04   5.6206557e-04   4.7455044e-04   6.8558019e-04   7.9482270e-04   9.3942805e-04   8.2345115e-04   5.4821541e-04   1.2561230e-03   9.4750809e-04   1.0935252e-03   8.9686603e-04   9.1187510e-04   1.0026145e-03   8.0642378e-04   7.8668282e-04   8.2950940e-04   1.9531946e-03   7.9411571e-04   1.4973859e-03   9.3212764e-04   1.4763037e-03   1.2047084e-03   1.3131410e-03
   1.8501206e-03   1.1220371e-03   1.1449123e-03   1.1552151e-03   1.1271223e-03   9.3637028e-04   9.9741027e-04   9.3283679e-04   1.0497710e-03   7.7730435e-04   9.3369215e-04   7.3093263e-04   1.1509816e-03   9.3250384e-04   1.1520883e-03   9.1133150e-04   9.0917910e-04   6.9861929e-04   1.0077148e-03   8.5768406e-04   8.8915246e-04   1.1036777e-03   1.0828391e-03   1.5262011e-03   1.5714125e-03   1.1863180e-03   6.0840911e-04   7.0500403e-04   6.3604349e-04   8.1293774e-04   8.7480422e-04   1.0545016e-03   9.0534432e-04   5.5717380e-04   1.2056916e-03   9.2632946e-04   1.1878958e-03   1.0002218e-03   9.7962620e-04   1.0902799e-03   7.8254822e-04   6.9939031e-04   1.0254206e-03   1.2635849e-04   1.0430114e-03   1.5377387e-03   9.4577525e-04   1.3187609e-03   1.1272532e-03   1.1816018e-03
   1.3971939e-03   1.0151453e-03   1.0389156e-03   1.0941683e-03   1.1519956e-03   8.0878497e-04   7.7603193e-04   8.5689547e-04   7.2831288e-04   6.4764178e-04   8.8547566e-04   6.3736277e-04   1.1052507e-03   8.4767438e-04   8.9152157e-04   8.1962015e-04   7.6461607e-04   6.3265889e-04   1.1071045e-03   6.9107459e-04   7.0403842e-04   9.3152752e-04   5.8995851e-04   6.5631792e-04   1.3816881e-03   8.3668093e-04   4.4796980e-04   6.3236878e-04   4.8710301e-04   6.5788097e-04   6.8836729e-04   7.5915694e-04   8.5144135e-04   3.8004332e-04   9.7080373e-04   8.0222014e-04   9.2203944e-04   8.3832530e-04   7.9826184e-04   8.1356714e-04   5.5021886e-04   5.6476117e-04   5.6843908e-04   5.2376458e-04   8.0633792e-04   1.0630878e-03   7.2855689e-04   1.3864720e-03   8.6846680e-04   8.9778693e-04
   1.2394277e-03   6.9879810e-04   7.5476919e-04   7.2768447e-04   9.2029211e-04   5.3046533e-04   5.7262211e-04   5.6555175e-04   5.3666957e-04   3.6765204e-04   6.5781077e-04   4.0864642e-04   8.0298749e-04   5.9371837e-04   6.3510984e-04   5.9973414e-04   5.7482463e-04   4.1241368e-04   4.1546690e-04   4.1416564e-04   4.1034719e-04   7.8337279e-04   6.4445013e-04   7.0328685e-04   6.3766877e-04   3.9038135e-04   2.7640161e-04   6.3299830e-04   3.5911406e-04   4.8060904e-04   4.9780594e-04   5.1012472e-04   4.7572024e-04   1.0287272e-04   7.1372482e-04   4.2671603e-04   8.3907583e-04   6.3274329e-04   5.4572482e-04   5.3137774e-04   4.3034644e-04   2.6359444e-04   3.5480576e-04   1.9584346e-04   6.5757998e-04   1.0062729e-03   3.3348284e-04   6.2813633e-04   4.6275722e-04   5.6835153e-04
   8.3407474e-04   3.2411783e-04   3.8610477e-04   4.3795962e-04   5.7476416e-04   1.9327026e-04   1.4352820e-04   2.8812009e-04   3.8317355e-04   2.4878740e-04   4.6066137e-04   2.3468130e-04   5.7398400e-04   4.3033235e-04   5.1111414e-04   5.4796581e-04   4.3841032e-04   3.7181820e-04   7.1722589e-04   4.8148475e-04   6.7775400e-04   8.2457706e-04   9.8075683e-04   3.4026321e-04   1.0739272e-03   7.2570029e-04   3.8170457e-04   6.2188983e-04   3.8009536e-04   6.8593345e-04   6.1977602e-04   6.1909185e-04   5.7735253e-04   4.1055083e-04   1.1577487e-03   8.9672895e-04   1.1126461e-03   7.3517923e-04   9.4426057e-04   9.1318937e-04   8.4934640e-04   7.7059888e-04   9.1115403e-04   2.1180699e-03   6.9878751e-04   1.3175313e-03   7.7275839e-04   6.8886857e-04   9.8548562e-04   9.5300918e-04
   1.1320746e-03   1.0670754e-03   8.8437594e-04   1.0131791e-03   1.0140280e-03   9.1461622e-04   7.6570606e-04   8.0831069e-04   1.0763489e-03   7.5815141e-04   9.7516127e-04   7.5449684e-04   9.7555900e-04   7.8874384e-04   7.7104685e-04   7.6140289e-04   5.9780118e-04   4.5311460e-04   7.1845599e-04   6.4916105e-04   8.5018139e-04   1.0795994e-03   8.4693305e-04   5.4703653e-04   8.5584045e-04   8.6211972e-04   4.6078287e-04   7.1660563e-04   4.7599251e-04   7.6603505e-04   4.9909513e-04   6.9497741e-04   6.6957669e-04   3.3283725e-04   1.0960884e-03   1.0385080e-03   1.1696377e-03   7.9050433e-04   9.3798479e-04   9.8706689e-04   7.7231106e-04   6.4117060e-04   8.5779885e-04   7.3450887e-05   1.0117596e-03   1.2823504e-03   7.5250538e-04   1.1766022e-03   1.1467852e-03   1.0754943e-03
   1.3559760e-03   9.5192919e-04   5.1397871e-04   8.4099371e-04   8.7846309e-04   7.6340669e-04   7.3582446e-04   6.5513322e-04   7.3460920e-04   5.9197837e-04   9.0144784e-04   5.5947906e-04   8.6160528e-04   6.0309039e-04   7.1283308e-04   6.1040052e-04   4.9935753e-04   4.1436779e-04   8.8724168e-04   5.4743700e-04   6.1444507e-04   9.7784132e-04   6.9266476e-04   1.2925710e-04   1.4973717e-03   4.5865303e-04   3.3820502e-04   6.8981311e-04   5.6945125e-04   6.1086228e-04   5.6994177e-04   6.8232242e-04   4.3214671e-04   6.3101048e-05   8.7714731e-04   7.2515750e-04   9.2555332e-04   5.9863023e-04   7.1472942e-04   6.2806439e-04   4.5359385e-04   4.8314847e-04   6.5160211e-04   1.7683144e-04   6.1760709e-04   1.0690229e-03   4.8174890e-04   6.9037924e-04   5.8876368e-04   5.5717787e-04
   7.5771793e-04   6.1480241e-04   5.0716742e-04   5.0154229e-04   6.1557401e-04   3.5328735e-04   3.6069521e-04   4.2068795e-04   4.0413087e-04   2.9735474e-04   6.1627483e-04   2.8566679e-04   5.3392915e-04   3.3474041e-04   4.3089775e-04   3.6052315e-04   2.3750168e-04   1.8280128e-04  -1.9663864e-06   2.6349779e-04   3.3020912e-04   6.5345695e-04   3.1157362e-04  -4.0170493e-05   1.8887634e-04   2.5524979e-04   3.2528912e-04   7.1968068e-04   2.5571810e-04   3.8027903e-04   2.4848079e-04   3.2686294e-04   2.7898481e-04  -1.7068286e-04   5.9993879e-04   3.8814178e-04   6.6604675e-04   3.8740606e-04   5.1007146e-04   1.3084196e-04   3.0968187e-04   1.7080813e-04   3.9903319e-04   8.6723920e-04   1.7200827e-04   4.0561182e-04   1.0302444e-04   3.2246808e-04   3.0936184e-04   2.4479837e-04
   6.2905566e-04   2.3205718e-04   5.1777071e-05   1.5584740e-04   1.6801705e-04  -8.1934857e-05   2.3852521e-05   6.9009926e-05   3.4945062e-04   1.3477959e-05   3.0046926e-04   5.9661328e-05   2.3608148e-04   2.6163420e-05   2.0426662e-04   1.9785186e-04   8.6272063e-05   4.9024973e-05   6.9018643e-05   2.2731441e-04   4.6550852e-04   6.4748345e-04   6.5841287e-04   8.5926580e-04   5.8871886e-04   3.6328324e-04   2.5685551e-04   6.2597805e-04   2.4780133e-04   4.9762317e-04   2.4139002e-04   5.0498376e-04   4.8193528e-04   7.4169875e-05   8.1427977e-04   7.3855201e-04   9.1921678e-04   4.3926670e-04   7.5719203e-04   7.9963746e-04   5.4314663e-04   5.2201189e-04   5.8774458e-04   6.0624321e-04   3.4514564e-04   9.2208566e-04   4.3433599e-04   6.2465685e-04   6.9040386e-04   7.7436987e-04
   7.8388466e-04   8.7191525e-04   4.2662426e-04   7.1590976e-04   7.9975132e-04   6.2774238e-04   5.9982698e-04   6.9078914e-04   8.0397783e-04   5.8637006e-04   8.5200905e-04   5.8953121e-04   6.3478202e-04   3.3394201e-04   5.0365017e-04   4.2993863e-04   2.3953352e-04   2.1760877e-04   7.2538032e-04   4.1695018e-04   6.7182741e-04   8.2950562e-04   6.9306273e-04   3.9391217e-04   1.0197619e-03   5.1815028e-04   3.1351307e-04   5.4916285e-04   2.9295241e-04   5.4395030e-04   2.6052987e-04   3.6725364e-04   6.4762036e-04   8.1532860e-05   7.5142883e-04   8.2402932e-04   9.4012666e-04   4.3901714e-04   6.8051647e-04   5.9814018e-04   6.4474717e-04   4.5664847e-04   3.4552350e-04   9.7611919e-04   3.1752346e-04   9.5738447e-04   3.8220873e-04   5.2051153e-04   4.7356315e-04   5.4847932e-04
   8.1591913e-04   7.2975614e-04   3.4161453e-04   5.1235216e-04   5.7923113e-04   5.0574256e-04   3.1867792e-04   4.4521361e-04   4.2883333e-04   4.0510835e-04   6.9366558e-04   4.1132423e-04   4.3075695e-04   1.8992927e-04   3.4234585e-04   2.1619488e-04   1.0837369e-04   6.6599372e-05   3.8306409e-04   2.6287109e-04   3.8488800e-04   6.5542833e-04   3.1009145e-04   4.0513635e-04   5.0668605e-04   1.0714117e-04   1.6595174e-04   5.2279799e-04   2.7930061e-04   2.9549160e-04   1.3196107e-04   2.7834627e-04   9.9108547e-05  -1.5886192e-04   4.2893930e-04   4.8307457e-04   6.2946323e-04   2.1163601e-04   3.7289265e-04   3.3307777e-04   2.3556217e-04   1.8085630e-04   5.9676479e-04  -4.5029381e-05   4.5667953e-04   4.6812111e-04   5.5806828e-05   6.2944851e-04   5.1330216e-04   3.3422420e-04
   4.7467227e-04   2.8232631e-04  -4.2051077e-05   1.2702998e-04   2.0957727e-04  -4.0167874e-06   2.4512026e-05   7.1925766e-05   1.7424325e-04   3.9205454e-05   2.4685054e-04  -2.2085631e-05   4.1977910e-05  -2.3141295e-04   4.9898161e-05  -2.7583072e-05  -1.6229505e-04  -8.2220868e-05   8.9365152e-05  -1.1041953e-04   6.2588129e-05   4.3702454e-04  -2.2412902e-04  -5.2956527e-04   3.3806122e-04  -6.0844046e-05   6.9486698e-05   5.1578559e-04   7.5368669e-05   3.9636674e-05  -2.2094457e-04  -1.1348980e-04  -2.0576743e-05  -4.9481902e-04   2.5238344e-04   1.5762952e-04   3.3828555e-04  -2.3174585e-05   1.2989125e-04  -3.6969803e-05  -6.2872408e-05  -1.3338104e-04   7.7209945e-05  -3.7160478e-04   1.3586898e-04   7.4755553e-05  -3.1071473e-04   6.6212198e-04  -1.8761550e-04  -6.7193272e-05
   2.5700379e-04  -1.3061932e-04  -1.1447955e-04  -2.9683163e-04  -6.5573229e-05  -4.5451126e-04  -3.3777062e-04  -3.4582458e-04  -2.7107770e-04  -3.0390589e-04  -1.5765458e-04  -3.4844494e-04  -3.6177601e-04  -5.9032976e-04  -3.1352922e-04  -2.8679616e-04  -4.4014255e-04  -2.4779147e-04   4.6082441e-04  -2.6133988e-04  -2.3844001e-05   2.4107222e-04   2.2557606e-04  -7.7916298e-04   5.6318731e-05   1.0228816e-04   8.6085187e-05   4.9098016e-04   8.0760983e-05   7.2535287e-05  -2.8029489e-04  -2.9752927e-04   8.0320475e-05  -2.8851346e-04   4.1294811e-04   3.4621451e-04   4.4390996e-04   5.9192422e-05   3.1265535e-04   2.0891945e-04   3.0618362e-04   2.6921047e-05   2.1623790e-04  -9.3941118e-05   1.0690158e-04   3.1893389e-04  -6.4685504e-05   6.2569376e-04   3.1445030e-04   1.9742596e-04
   4.8176583e-04   4.7643387e-04   1.1683389e-04   1.9289419e-04   2.2267457e-04   3.2607219e-04   2.6609277e-04   1.9665838e-04   4.2131360e-04   2.4184605e-04   3.4636646e-04   1.7383620e-04  -5.4650722e-05  -2.4895903e-04  -3.2452139e-05  -2.5940561e-05  -1.9222929e-04  -6.3278392e-05  -1.9059121e-04  -1.5296017e-07   2.5904260e-04   4.6501047e-04   2.1912222e-04   4.0802063e-04  -1.4852613e-04   1.5681268e-04  -1.1007601e-05   3.7455244e-04   1.1390287e-04   1.6881946e-04  -7.0748603e-05   3.7634596e-05   1.9231850e-04  -2.7635985e-04   3.6337646e-04   2.9697776e-04   4.1029858e-04   4.3726697e-05   2.4853792e-04   2.0262579e-04   2.1425451e-04   4.6003810e-05   5.2920473e-04  -3.3477350e-04   9.0422174e-05   3.3566213e-04   1.0850456e-05   7.8944559e-04   1.9037163e-05   1.9904596e-04
   4.7086042e-04   3.5835820e-04   3.8371651e-05   6.4660657e-05   3.5198379e-04   2.0512230e-04   1.2593508e-04   1.2189239e-04   4.2340945e-04   9.8741351e-05   2.6265832e-04   7.4963209e-05  -1.3690938e-04  -3.7305057e-04  -1.8349446e-04  -6.1054408e-05  -1.3981338e-04  -7.9411358e-05   3.8860893e-04  -5.4179767e-05   7.5287448e-05   2.0546316e-04   1.8391885e-04  -3.0780092e-04   6.0778658e-04  -4.1690782e-05  -3.3535896e-06   2.7341998e-04   8.0641767e-05   2.4837458e-05  -2.3783812e-04  -2.0654076e-04  -2.2004471e-05  -3.6920820e-04   1.8104467e-04   4.5647383e-05   2.6400792e-04  -8.5318767e-05   9.1464346e-05  -4.1221513e-04  -3.1116320e-05  -1.1977318e-04   6.4672538e-05   1.7172159e-04  -1.9580212e-04  -6.9939415e-05  -2.7143839e-04   2.7606450e-04   3.4677370e-05  -1.4010516e-04
   2.7348479e-04  -1.1887255e-05  -1.2690785e-04  -1.2877915e-04   2.7301432e-05  -3.2484785e-04  -2.0512100e-04  -2.3392087e-04  -1.3313048e-04  -1.7807590e-04  -3.3761913e-05  -1.8512976e-04  -3.0935282e-04  -6.3782407e-04  -3.3786771e-04  -2.3214934e-04  -3.3617017e-04  -1.8524397e-04  -8.8043214e-04  -3.1539262e-04  -2.1260612e-04  -3.6054404e-05  -3.9947187e-04  -8.7623642e-04   5.0313365e-06  -3.1016237e-04  -1.4204206e-04   2.9690124e-04  -1.4442319e-04  -1.9662817e-04  -6.4430607e-04  -1.6819825e-04  -2.2586153e-04  -7.2268292e-04   1.7050654e-06  -1.9639949e-04   8.4741951e-05  -2.4537233e-04  -1.7685779e-04  -6.7715580e-04  -2.7561767e-04  -2.7637728e-04  -2.0855118e-04  -6.2131538e-04  -2.4923423e-04  -1.8229663e-04  -4.6126725e-04  -2.5503815e-04  -2.0444978e-04  -2.4077263e-04
   1.0250186e-04  -3.6867546e-05  -1.9984089e-05  -1.2938808e-04   1.4814339e-04  -4.9693914e-05   8.7701310e-06  -6.0166432e-05   2.7188641e-04   9.1954185e-05   1.5233651e-04   7.9836573e-05  -1.6824309e-04  -5.6887174e-04  -3.1372177e-04  -1.0818593e-04  -2.2017850e-04  -1.0602637e-04   3.9352218e-04  -4.7253205e-05   1.3543146e-04   2.7714687e-04   3.0506263e-04   3.9398693e-04   1.0547007e-04   9.6357362e-05  -4.7910024e-05   3.0503463e-04  -1.2471588e-07   7.1377937e-05  -1.3972119e-04  -1.9695630e-04   1.1133045e-04  -3.2494430e-04   2.3710896e-04   1.9275940e-04   3.1084794e-04  -2.6292018e-05   1.5999938e-04  -4.1240004e-05   8.3185361e-05  -3.4037192e-05   4.6796315e-05  -5.7585727e-05   7.7569195e-05  -2.5159497e-06  -1.1030156e-04   4.5356594e-04   2.0597030e-04   1.0786801e-04
   1.8124488e-04   1.9686046e-04   1.5748061e-04  -7.1970549e-06   1.2493087e-04  -5.2813375e-05  -1.7864611e-05  -8.3514191e-05   1.7653953e-04   7.7744771e-05   1.5176872e-04   4.2770251e-05  -1.3769483e-04  -5.3407165e-04  -2.5776136e-04  -8.4546678e-05  -1.2891313e-04  -8.8544606e-05   7.8773810e-05  -8.3395389e-05   1.5664500e-05   1.9273706e-04   1.5922775e-04  -7.1722129e-04   1.6236957e-04   2.1703634e-05  -9.4283503e-05   3.1827693e-04  -3.2191540e-05  -1.8806722e-05  -3.9403586e-04  -1.8103445e-04  -4.2135343e-05  -4.5890501e-04   1.6328230e-04  -1.2222290e-05   2.1446792e-04  -8.1326783e-05  -1.2474385e-05  -1.7770109e-04  -1.1107194e-04  -1.0935536e-04   1.4537734e-05  -2.7901054e-04  -1.2475943e-04   1.1745613e-04  -2.3196402e-04   1.5424321e-04   7.9419668e-05   8.9638925e-05
