   1.7753936e-04  -3.7486473e-04   2.8575075e-04  -8.5536187e-04   2.5008374e-04  -4.3606466e-05  -1.5190011e-04  -1.6359918e-04   5.7682564e-04   2.4526017e-03   3.3710775e-04   1.1316898e-03   1.2749502e-03   6.5059133e-04   2.4300836e-04   1.1036618e-03   2.3783725e-03   6.8844325e-04   3.3172825e-04   1.2578272e-03   8.6186989e-04  -1.2139220e-03   3.6233221e-04   1.1480273e-03   5.1256141e-04  -6.3959000e-05  -5.5447739e-04  -2.6429698e-05   9.9305587e-04   7.0249225e-04   3.3229127e-04   8.9209410e-04  -7.7602730e-05  -5.4318749e-04   8.9066525e-05   7.0721062e-04   1.6962808e-03   6.6200265e-04   1.1322334e-03   2.4221516e-04   1.7915548e-04   1.6784605e-04   5.5749348e-04  -1.0801144e-03   1.7823123e-04  -1.5499420e-03   3.8399803e-04   1.9406305e-04  -1.4314207e-04  -4.2671821e-04
   8.0379361e-04   8.1116603e-05   7.6867332e-04  -4.1060519e-04   6.7214074e-04   1.2649647e-04   2.2412753e-05  -8.8189663e-05   8.6942216e-04   2.2984080e-03   3.8002941e-04   1.1031524e-03   1.4294010e-03   7.3145889e-04   4.2557248e-04   1.2011380e-03   2.4829423e-03   7.9255912e-04   1.5391961e-03   1.2849079e-03   8.4990548e-04  -1.1134518e-03   5.1480386e-04   2.7006462e-03   8.8702148e-04   1.7283230e-04  -4.4039908e-04  -3.6419911e-05   1.0564169e-03   7.9989026e-04   7.2659843e-04   8.5594191e-04  -2.6078228e-04  -5.4470875e-04   6.7106848e-05   5.9503404e-04   1.7034615e-03   8.3441439e-04   1.1831394e-03   1.8688463e-04   1.9258285e-04   1.7565147e-04   1.1735169e-03  -1.1446263e-03   2.8781590e-04  -1.0359931e-03   3.4049590e-04   4.1717064e-04  -1.1373736e-04   5.6317633e-05
   6.1195350e-04  -1.3420056e-04   7.7484932e-04  -5.5787485e-04   5.8214075e-04  -1.0321483e-04  -1.6427139e-04  -4.8668560e-05   4.9374247e-04   2.0203644e-03   1.3981151e-04   9.3093287e-04   1.3319876e-03   6.6548103e-04   3.2037648e-04   1.1880550e-03   2.4475171e-03   7.6198118e-04   2.5827094e-04   1.3156943e-03   6.7429547e-04  -1.0837412e-03   4.1961489e-04   3.3891401e-03   1.8153392e-03   6.1526010e-04  -4.2725544e-04   2.0512944e-04   1.0754078e-03   9.5556671e-04   8.3216478e-04   1.2117558e-03   2.0314133e-04  -1.8064144e-04   5.8665487e-04   1.2365447e-03   2.0902711e-03   1.0290075e-03   1.6343085e-03   8.4606867e-04   6.7243102e-04   5.7187554e-04   9.1066631e-04  -3.4154844e-04   7.3595130e-04  -6.7918602e-04   9.0446550e-04   1.2960810e-03   3.6661708e-04   1.7902981e-04
   1.3183668e-03   7.7307317e-04   1.4733125e-03   1.8720290e-04   1.3069408e-03   7.9619675e-04   5.8431108e-04   5.3616450e-04   1.1097597e-03   2.5986708e-03   8.0872735e-04   1.4580002e-03   1.9433642e-03   1.1696205e-03   7.2519731e-04   1.6747629e-03   2.9192932e-03   1.0920272e-03   9.7218499e-04   1.9366398e-03   3.9574920e-04  -1.0660796e-03   9.8102074e-04   1.2960481e-03   1.6099296e-03   7.2303135e-04  -2.0587702e-04   1.5321778e-04   1.2578467e-03   1.1082636e-03   1.0175565e-03   1.5877229e-03   2.0847745e-04  -1.5411722e-04   5.0093641e-04   1.1125403e-03   2.3070993e-03   1.1734901e-03   1.8249654e-03   9.8272110e-04   5.5600941e-04   4.7906631e-04   1.4363284e-03  -2.1029172e-04   5.3617283e-04  -9.3530235e-04   8.6836191e-04   6.1018689e-04   1.7405048e-04  -2.0103715e-04
   1.4874259e-03   6.2144711e-04   1.4891662e-03   1.0609985e-04   1.3881442e-03   6.9615967e-04   6.3831388e-04   5.2483799e-04   1.2763962e-03   2.4443651e-03   6.8391196e-04   1.1627614e-03   1.9780621e-03   1.1471111e-03   7.3225592e-04   1.7258280e-03   3.0529127e-03   1.0413367e-03   1.0538654e-03   1.9331472e-03  -9.8929813e-05  -1.3770169e-03   6.1263790e-04   1.6262017e-03   1.5888016e-03   2.0860617e-04  -1.5659386e-04   1.0385560e-04   1.3178053e-03   1.0575637e-03   8.8817737e-04   1.4450174e-03  -2.1543102e-04  -3.3884903e-04   3.1301298e-04   9.8911230e-04   2.2518674e-03   1.1786815e-03   1.8199359e-03   6.8877917e-04   4.1622482e-04   3.7207993e-04   1.0167875e-03  -4.0010427e-04   2.2384904e-04  -1.1384976e-03   7.5294648e-04   1.3154246e-03   4.9075042e-04   5.3094496e-05
   1.7850799e-03   9.8328665e-04   1.7208753e-03   4.2095635e-04   1.7188613e-03   1.2446392e-03   9.6181966e-04   9.6758665e-04   1.7319989e-03   2.8101306e-03   1.1294845e-03   1.6434932e-03   2.4060456e-03   1.5112739e-03   1.0661781e-03   2.0883167e-03   3.3088163e-03   1.3784894e-03   1.0201075e-03   2.2573273e-03   5.5691873e-04  -9.1073016e-04   1.2061679e-03   2.6708273e-03   2.2593047e-03   9.1158727e-04   2.0769644e-04   4.6359526e-04   1.5743946e-03   1.5860352e-03   1.2693796e-03   1.9747810e-03   4.9976283e-04   2.8976859e-04   1.0691034e-03   1.6391956e-03   2.8443930e-03   1.6905548e-03   2.3501804e-03   1.5111159e-03   8.4298040e-04   7.1107055e-04   1.1861068e-03   2.7873792e-04   9.7609055e-04  -7.6210493e-04   1.0433304e-03   1.2369225e-03   4.8312964e-04   1.4804967e-05
   2.1084303e-03   1.0879439e-03   1.8583779e-03   6.3651218e-04   1.9584361e-03   1.2596932e-03   9.9070289e-04   1.1159898e-03   1.6732926e-03   2.6882896e-03   1.1468934e-03   1.4901228e-03   2.4641147e-03   1.5839610e-03   1.1850059e-03   2.1128776e-03   3.2530271e-03   1.3986169e-03   9.1301731e-04   2.0761241e-03   5.1791378e-04  -6.6050270e-04   1.1538359e-03   2.1897999e-03   1.5280626e-03   7.8144547e-04   2.3597007e-04   5.6192849e-04   1.5166487e-03   1.5531617e-03   1.3559136e-03   1.9703787e-03   3.4752500e-04   1.7019053e-04   1.0104518e-03   1.5799938e-03   2.7594147e-03   1.6892649e-03   2.2782378e-03   1.4071469e-03   7.9081266e-04   6.5764436e-04   1.3809972e-03   5.8284251e-04   7.1220263e-04  -5.5572862e-04   8.2738383e-04   1.2916421e-03   2.4601570e-04  -1.1206340e-04
   1.7385940e-03   8.0048421e-04   1.7797528e-03   4.2633704e-04   1.7879857e-03   9.6593949e-04   6.9068978e-04   8.8185805e-04   1.3896405e-03   2.2346864e-03   8.8995596e-04   1.0782260e-03   2.1631673e-03   1.4217010e-03   1.0801085e-03   1.9103142e-03   2.8422368e-03   1.2700727e-03   1.0476868e-03   1.5747400e-03   5.8604003e-04  -5.0218735e-04   1.2569738e-03   2.0423792e-03   1.4463259e-03   3.7590164e-04   2.5702463e-04   4.8901932e-04   1.4207009e-03   1.4204998e-03   1.0931378e-03   1.7269686e-03   5.0591782e-04  -1.6781485e-04   8.1621081e-04   1.1940402e-03   2.5192073e-03   1.5700737e-03   1.9542477e-03   9.4046223e-04   4.6054533e-04   5.0093880e-04   6.7941251e-04   9.1914012e-04   5.7114154e-04  -6.0316408e-04   5.9493032e-04   3.7695107e-04   1.4348452e-04  -5.7897836e-05
   1.8886680e-03   9.5843867e-04   1.8133442e-03   6.8340474e-04   2.1134068e-03   1.3916279e-03   1.0394814e-03   1.1432429e-03   1.7120991e-03   2.5068410e-03   1.2342386e-03   1.5525852e-03   2.3939903e-03   1.6943344e-03   1.3045795e-03   2.0292054e-03   2.9559643e-03   1.4241466e-03   1.0026597e-03   1.7219671e-03   1.1323306e-03   2.2088322e-04   1.8521390e-03   1.9482510e-03   2.6441975e-03   1.2668106e-03   6.0511776e-04   8.6511375e-04   1.5180786e-03   1.7562067e-03   1.4795603e-03   2.3335742e-03   1.0897167e-03   4.9808447e-04   1.4840078e-03   1.9210457e-03   2.9610503e-03   1.8330470e-03   2.2551375e-03   1.8489792e-03   1.0154421e-03   8.5987319e-04   1.3739963e-03  -3.1946631e-04   8.3099451e-04   1.7083586e-04   1.0558343e-03   1.1210634e-03   3.6746569e-04   5.7453196e-04
   2.1596625e-03   1.3510025e-03   2.0285321e-03   1.0444967e-03   2.2688156e-03   1.4414933e-03   1.2071250e-03   1.3030556e-03   1.8502445e-03   2.4959121e-03   1.3586468e-03   1.5430761e-03   2.4484023e-03   1.7449735e-03   1.3796003e-03   2.0960779e-03   2.9090936e-03   1.4286032e-03   1.1482656e-03   1.7012707e-03   1.0563909e-03   2.3769098e-04   1.5457622e-03   1.5592090e-03   1.5334134e-03   1.1923643e-03   5.4311578e-04   9.8032469e-04   1.5757602e-03   1.7181596e-03   1.5443886e-03   2.0699806e-03   9.7392278e-04   4.2541762e-04   1.3660548e-03   1.7919793e-03   2.7516710e-03   1.7478553e-03   2.2101041e-03   1.7403713e-03   9.5547776e-04   7.2241272e-04   1.0932015e-03   1.3878862e-03   6.5977522e-04   3.2179753e-04   9.5113064e-04   6.6995405e-04   5.8876164e-04   2.3812798e-04
   2.0060993e-03   1.0999009e-03   1.8031658e-03   8.5327314e-04   2.0942648e-03   1.1514780e-03   8.4885961e-04   1.1599661e-03   1.4778874e-03   2.1572709e-03   1.1580600e-03   1.1861607e-03   2.2061144e-03   1.5692796e-03   1.2633471e-03   1.8747700e-03   2.6791652e-03   1.2494845e-03   3.0508998e-04   1.4271385e-03   7.9948996e-04   1.2824798e-04   9.9849037e-04   1.3391416e-03   1.5399212e-03   6.7908294e-04   5.1181752e-04   7.8518235e-04   1.5734530e-03   1.4693829e-03   1.5116499e-03   1.8820780e-03   8.6587906e-04   2.1052350e-04   1.0413724e-03   1.3983218e-03   2.5460450e-03   1.5362287e-03   1.8959679e-03   1.3069962e-03   7.1450713e-04   5.7403464e-04   7.4225251e-04   2.2441297e-04   7.7172427e-04   5.0640185e-05   7.5042044e-04   5.7799806e-04   1.3635861e-04  -1.7494381e-04
   1.7308468e-03   7.9929311e-04   1.5820317e-03   5.9195055e-04   1.9007132e-03   7.6409761e-04   5.8277824e-04   8.4742391e-04   8.7772409e-04   1.8148259e-03   8.9753798e-04   8.3477510e-04   1.8820899e-03   1.3304730e-03   1.0592485e-03   1.5966343e-03   2.4810161e-03   1.0417416e-03   5.8842200e-04   1.2259718e-03   4.7495714e-04   6.5152703e-06   4.4412565e-04   1.3198343e-03   1.3308134e-03   3.5998531e-04   4.3785037e-04   9.8286860e-04   1.4815187e-03   1.3027064e-03   1.2303715e-03   1.7549240e-03   8.1155542e-04   2.1956905e-04   1.2075219e-03   1.6581506e-03   2.5615313e-03   1.5137758e-03   1.9241212e-03   1.5922644e-03   9.9646894e-04   7.6030596e-04   1.0328763e-03   2.7691340e-04   8.2789100e-04   1.8576317e-04   9.8671450e-04   6.0894695e-04   1.3509968e-04   3.2031149e-04
   2.1303277e-03   1.3894524e-03   1.8245998e-03   1.1050387e-03   2.0920618e-03   1.3237145e-03   1.1277711e-03   1.3039667e-03   1.5922177e-03   2.3602131e-03   1.5083811e-03   1.5251144e-03   2.2588749e-03   1.6852986e-03   1.2630798e-03   1.8803236e-03   2.6948317e-03   1.2665497e-03   9.3175960e-04   1.6662495e-03   9.9286938e-04   3.8179127e-04   1.5660444e-03   1.2579320e-03   1.6689848e-03   8.8469684e-04   5.7555252e-04   1.0332249e-03   1.5814155e-03   1.5464292e-03   1.5102935e-03   1.9365607e-03   1.1802235e-03   4.6233664e-04   1.2115128e-03   1.5381067e-03   2.6683828e-03   1.5466936e-03   1.9957570e-03   1.5329054e-03   9.5121673e-04   8.1146706e-04   9.0115028e-04   3.2283188e-04   9.7642513e-04   3.6159501e-04   1.0604037e-03   7.9648610e-04   3.4422032e-04   4.3672434e-04
   1.9932494e-03   1.3188584e-03   1.6995494e-03   1.0314556e-03   1.9418413e-03   1.2422126e-03   9.1386400e-04   1.1279989e-03   1.3869698e-03   2.2105998e-03   1.4371179e-03   1.3329481e-03   2.1396670e-03   1.4943946e-03   1.2004004e-03   1.7020642e-03   2.5924109e-03   1.0970235e-03   1.2167669e-03   1.5850259e-03   8.7345031e-04   2.7312810e-04   1.2278520e-03   1.1496702e-03   1.9001447e-03   6.8500906e-04   5.6076894e-04   1.0030722e-03   1.4667577e-03   1.3332982e-03   1.3076547e-03   1.8002394e-03   9.2216971e-04   2.2040267e-04   9.4220170e-04   1.2958251e-03   2.2473587e-03   1.3119143e-03   1.7637061e-03   1.3367186e-03   6.5003475e-04   5.0025183e-04   7.0555101e-04   2.4788568e-04   4.3321634e-04  -1.2302175e-04   8.1517379e-04   6.8017881e-04  -8.4879815e-05  -2.7858121e-05
   1.6757759e-03   9.3976333e-04   1.5301147e-03   6.4592110e-04   1.5923189e-03   8.5667550e-04   6.8104680e-04   8.4188796e-04   8.2543382e-04   1.8476872e-03   1.1234914e-03   1.0594218e-03   1.7768714e-03   1.2061085e-03   8.8456739e-04   1.4182921e-03   2.3286284e-03   8.5638877e-04   9.6355134e-04   1.3427832e-03   5.7965016e-04   1.3367166e-05   8.4179081e-04   1.0408559e-03   6.9350103e-04   2.9033562e-04   3.3757533e-04   9.0822671e-04   1.3356874e-03   1.0140899e-03   1.2302580e-03   1.2763372e-03   5.2880205e-04  -8.2698083e-05   6.2553654e-04   8.2432403e-04   1.9722797e-03   1.0706558e-03   1.3580543e-03   7.6092762e-04   3.8540285e-04   2.3615782e-04   4.1310667e-04  -7.9355901e-04   1.7099580e-04  -5.7316746e-04   6.7883875e-04   2.7310192e-05   4.7097765e-05  -4.7502770e-05
   1.5728713e-03   1.0758598e-03   1.4748339e-03   8.2784641e-04   1.6855287e-03   1.1680281e-03   8.1318925e-04   9.8178594e-04   1.1916981e-03   2.1182329e-03   1.4004748e-03   1.3324367e-03   1.8617463e-03   1.2817520e-03   1.0746479e-03   1.4282576e-03   2.2782674e-03   9.3510206e-04   8.2596677e-04   1.6081181e-03   1.0334484e-03   4.5670068e-04   1.1276889e-03   1.6645778e-03   1.7302113e-03   8.8618486e-04   5.6331162e-04   1.1143497e-03   1.4784151e-03   1.2117728e-03   1.4272527e-03   1.8824509e-03   9.8364067e-04   2.4292713e-04   1.0156577e-03   1.4699891e-03   2.2341022e-03   1.2096980e-03   1.5522186e-03   1.4030895e-03   7.3258049e-04   6.2348694e-04   4.3385520e-04  -6.4235646e-05   5.8705738e-04   7.3950752e-05   9.6254161e-04   7.1564550e-04   2.5296977e-04   5.0850061e-04
   1.7816167e-03   1.2773952e-03   1.6310713e-03   8.9245324e-04   1.7885426e-03   1.0831686e-03   7.8455318e-04   9.3052088e-04   1.3219025e-03   2.1407760e-03   1.5825817e-03   1.3590544e-03   1.8393421e-03   1.2454434e-03   1.0413688e-03   1.3975656e-03   2.2107337e-03   8.7283755e-04   1.4434112e-03   1.5284672e-03   9.6715655e-04   3.9400291e-04   7.6781475e-04   7.6081988e-04   1.3760411e-03   5.0844724e-04   6.0689281e-04   8.9074596e-04   1.2616505e-03   1.0707151e-03   1.2324832e-03   1.7553122e-03   7.8160374e-04   1.8350384e-04   9.2991849e-04   1.1425795e-03   2.0757366e-03   1.0644466e-03   1.3412751e-03   8.6643646e-04   5.4964644e-04   4.5640179e-04   5.6823960e-04   4.5473097e-04   2.9081563e-04  -3.1494643e-04   8.7544200e-04   6.3669693e-04   2.1688816e-04   2.5517083e-04
   1.5049514e-03   9.6092944e-04   1.3611438e-03   6.4630370e-04   1.4859445e-03   6.5553869e-04   4.8031588e-04   5.5358710e-04   7.1812927e-04   1.7594022e-03   1.2471193e-03   9.8597049e-04   1.5550826e-03   9.6756226e-04   7.3110219e-04   1.0994493e-03   1.9860475e-03   7.2645192e-04   2.7237431e-04   1.2633930e-03   5.5356370e-04   7.7772138e-06   7.9164229e-04   5.4082711e-04   6.8502710e-04   7.5454489e-05   3.5558030e-04   8.3695992e-04   1.1796219e-03   7.7118014e-04   9.9252223e-04   1.2454822e-03   3.1519440e-04  -1.4592771e-04   5.1479170e-04   8.9452829e-04   1.7441541e-03   8.6124521e-04   1.0416210e-03   4.3680437e-04   2.0137687e-04   1.7604702e-04   8.3012084e-05  -3.2686652e-04   3.5423742e-04  -3.6627517e-04   5.5391784e-04  -3.1880065e-04  -1.8513392e-04  -9.6648830e-05
   1.0119608e-03   5.6946086e-04   1.0634662e-03   3.1302738e-04   1.0352813e-03   2.7989701e-04   1.6214258e-04   2.0139450e-04   4.9843598e-04   1.5985790e-03   1.0799882e-03   7.4523746e-04   1.2770341e-03   7.8992639e-04   5.2769901e-04   9.8862767e-04   1.8503689e-03   6.8061979e-04   3.7343649e-04   1.3335776e-03   7.8533590e-04   2.3712985e-04   8.5836509e-04   1.4770307e-03   2.0690870e-03   5.3393107e-04   3.6714270e-04   9.5684477e-04   1.2239645e-03   8.5912755e-04   1.2260833e-03   1.4974673e-03   5.1021756e-04   1.2581584e-04   9.1287703e-04   1.2279920e-03   1.8999578e-03   9.1064704e-04   1.1125492e-03   9.3379646e-04   5.6195800e-04   4.1476352e-04   7.7453593e-04   3.7585490e-04   2.2984071e-04   2.0613874e-05   9.5680822e-04   4.5770011e-04   4.0240519e-04   4.1980622e-04
   1.5899523e-03   1.3488163e-03   1.3534463e-03   1.0076427e-03   1.4697732e-03   8.9689629e-04   6.6414592e-04   7.4182806e-04   1.1685451e-03   2.0605975e-03   1.6762969e-03   1.3476263e-03   1.6798463e-03   1.0705797e-03   8.2380744e-04   1.1920958e-03   2.0935652e-03   8.0495561e-04   1.1709589e-03   1.5690484e-03   9.2452829e-04   3.6900130e-04   8.1775460e-04   1.8552312e-03   1.0083902e-03   4.4917662e-04   4.2748876e-04   9.6042722e-04   1.1464255e-03   8.7609666e-04   1.2002338e-03   1.4815843e-03   8.8119344e-04   1.1090250e-04   7.9370261e-04   1.0620359e-03   1.8372047e-03   9.0098864e-04   1.1173150e-03   8.7675289e-04   3.0629680e-04   3.9519381e-04   2.6035612e-04   3.4939693e-04   6.0983346e-04   1.2581138e-05   8.9560403e-04   1.6227986e-04   2.8665597e-04   2.9094142e-04
   1.4562568e-03   1.0856516e-03   1.3915412e-03   8.1062125e-04   1.3052702e-03   6.6186843e-04   4.9546693e-04   4.5639562e-04   9.5690083e-04   1.7593761e-03   1.4248508e-03   1.0056344e-03   1.4231011e-03   8.8037789e-04   7.8862527e-04   1.0068163e-03   1.8733972e-03   6.8388245e-04   4.4356624e-04   1.3422054e-03   5.8045954e-04   9.0576803e-05   4.7791697e-04   1.0916519e-03   8.0956577e-04   1.0521608e-04   3.2555751e-04   7.8702555e-04   8.9308462e-04   6.0381729e-04   9.3721610e-04   1.3614163e-03   5.8718945e-04  -2.0134266e-04   3.5486594e-04   6.0785073e-04   1.4851725e-03   7.1090454e-04   8.1110158e-04   1.1405596e-04   3.9045324e-05   1.1294960e-04   4.1018310e-04   5.2970869e-04   6.1107846e-04  -1.9201287e-04   6.3893799e-04  -7.6115067e-04  -3.1703658e-04  -1.8375998e-04
   1.0451094e-03   6.8231171e-04   1.1927981e-03   5.7431031e-04   8.8660198e-04   3.6558043e-04   1.4097668e-04   1.9937749e-04   4.9846008e-04   1.4466750e-03   1.1153710e-03   6.1677594e-04   1.2251621e-03   6.9059036e-04   5.6147348e-04   8.0790912e-04   1.6880330e-03   5.4242567e-04   1.1362131e-03   1.0290138e-03   2.8870979e-04  -1.7943325e-04   3.9715803e-04   5.7520770e-05   2.5512913e-04  -3.8260294e-04   1.4121192e-04   7.5792533e-04   8.4139436e-04   3.7660042e-04   8.1855181e-04   1.0022586e-03  -1.2079311e-04  -4.6510843e-04   2.2312802e-04   2.2637691e-04   1.2472904e-03   5.4734829e-04   5.6848000e-04  -9.2465125e-05  -2.0325082e-04  -1.2080462e-04  -1.2663462e-04   2.1174860e-04   3.3455441e-04  -3.6997237e-04   5.6073786e-04   4.6001657e-04  -1.5502521e-04   1.5652874e-04
   1.3387261e-03   1.0583277e-03   1.1718273e-03   8.4702956e-04   1.1915162e-03   8.1756059e-04   4.9931713e-04   5.9375720e-04   8.3944265e-04   1.7454923e-03   1.3818976e-03   1.0540724e-03   1.4255724e-03   8.9631451e-04   8.9765777e-04   1.0019568e-03   1.8436166e-03   7.1707822e-04   1.4015670e-03   1.3912016e-03   8.3882350e-04   1.6596510e-04   7.9035060e-04   7.2733470e-04   9.0429024e-04   3.1943282e-04   3.4798693e-04   9.8234648e-04   1.1061087e-03   6.4700772e-04   9.5318246e-04   1.3707351e-03   5.4694456e-04   1.2750754e-05   5.9412135e-04   8.3047524e-04   1.5362706e-03   7.3899055e-04   8.4017368e-04   4.5991634e-04   1.5206022e-04   1.4042122e-04   5.7403620e-05   2.1759949e-04   5.6287047e-04   5.3570540e-05   7.4194249e-04   2.3914521e-04   2.9327301e-04   1.4550808e-04
   1.6428480e-03   1.1432262e-03   1.3588606e-03   1.0145165e-03   1.2473068e-03   7.2237343e-04   4.9884099e-04   5.8332441e-04   9.9334435e-04   1.6677340e-03   1.4454667e-03   1.0094902e-03   1.4646518e-03   9.1589114e-04   8.5603847e-04   1.0621028e-03   1.9290082e-03   7.6954963e-04   6.8769144e-04   1.2847523e-03   6.3977164e-04   2.5212069e-04   3.3468296e-04   1.0627841e-03   8.8470877e-04   1.4411513e-04   2.5724710e-04   9.4657153e-04   8.9926890e-04   6.0825265e-04   1.0760993e-03   1.0990798e-03   5.3842325e-04  -1.3962490e-04   5.8762543e-04   7.0743455e-04   1.4070204e-03   7.8311603e-04   8.1528618e-04   1.8186247e-04  -1.6560576e-05  -8.9738351e-05   7.3569150e-05  -3.9155295e-04   9.4121693e-05  -7.8989033e-05   5.4318912e-04  -2.2364229e-04   9.1373549e-05  -1.1638727e-04
   1.3827800e-03   7.7487936e-04   1.3083938e-03   6.9137779e-04   1.1099277e-03   3.2398824e-04   2.0417114e-04   2.1217116e-04   5.4123288e-04   1.3298530e-03   1.0648258e-03   6.2930404e-04   1.2226967e-03   7.2558125e-04   6.3465757e-04   8.8823069e-04   1.7335903e-03   6.2764058e-04   8.3446517e-05   9.5076580e-04   2.7477773e-04  -1.5052660e-04   4.5525147e-07   2.5722844e-04   1.2403306e-04  -1.9446851e-04   9.1428243e-05   7.6849305e-04   9.3171350e-04   3.7264277e-04   6.4836588e-04   1.1749458e-03  -3.5213085e-05  -5.1874912e-04   1.5914116e-04   3.3521964e-04   1.1851160e-03   5.9694995e-04   4.6571626e-04  -3.0062563e-04  -3.0877610e-04  -2.0090566e-04   1.3146175e-04  -9.1399404e-04   2.7881537e-04  -2.6519693e-04   1.6505561e-04  -3.5834665e-04  -6.8394706e-04  -2.2456808e-04
   9.6271938e-04   3.4574658e-04   8.5248682e-04   3.6715542e-04   8.1256812e-04  -4.8960013e-05  -1.7128334e-05  -1.3226234e-04  -7.5417003e-05   9.3638443e-04   6.3101796e-04   1.3674775e-04   8.1781182e-04   4.8067764e-04   4.0298604e-04   6.4414146e-04   1.4452207e-03   4.3232102e-04  -6.0927948e-07   4.9574149e-04  -1.3685334e-04  -3.3741366e-04  -3.5508073e-04  -3.3256921e-04  -2.5659922e-04  -7.5968611e-04   1.0358576e-05   6.6612026e-04   7.9522812e-04   1.7430168e-04   5.7180499e-04   8.6990127e-04  -3.5014895e-05  -5.9310970e-04   2.8962380e-04   2.6607697e-04   1.0641642e-03   6.0828921e-04   4.7455032e-04   3.3445871e-05  -1.0266638e-04  -6.5567983e-05   3.7572187e-05  -5.4340530e-04   6.8379065e-04  -1.1058617e-04   4.0029056e-04  -3.1074753e-04  -4.3768156e-05   8.6520733e-05
   1.3601767e-03   1.0358036e-03   1.3760773e-03   9.5919694e-04   1.3156803e-03   6.7115703e-04   5.7789788e-04   4.6837694e-04   7.2791678e-04   1.5051477e-03   1.1468385e-03   8.7227579e-04   1.2963820e-03   8.8250899e-04   7.3169364e-04   1.0303607e-03   1.7764224e-03   7.9510035e-04   7.0292148e-04   9.2238688e-04   5.4858252e-04   6.3093386e-05   6.2544126e-04  -2.1439523e-04   3.6140054e-04  -3.5709912e-05   1.8162384e-04   1.0312301e-03   9.7266829e-04   5.6268211e-04   9.1702514e-04   1.1248256e-03   2.5077155e-04  -1.9873236e-04   5.3128123e-04   5.0645205e-04   1.3254667e-03   7.6802459e-04   7.0233725e-04   2.5131353e-04  -6.4482636e-05  -1.9302433e-04   6.7399153e-05  -2.0192465e-04   1.1970050e-04   2.1439668e-04   3.6104221e-04   1.7811610e-05  -2.4240954e-04   4.4057797e-05
   1.6266282e-03   9.5799583e-04   1.4296621e-03   9.2106895e-04   1.3107295e-03   5.2418176e-04   4.3105407e-04   4.2511974e-04   6.1465811e-04   1.3266202e-03   1.0421291e-03   6.5860408e-04   1.3101222e-03   8.7151106e-04   7.2581286e-04   1.0132801e-03   1.7299089e-03   7.3577213e-04  -1.8358750e-04   7.5101317e-04   3.0925201e-04   1.9631795e-04   1.0196252e-04  -5.3883606e-04   5.2105397e-04  -1.5307619e-04   2.1819382e-04   9.1214181e-04   9.9037564e-04   5.0066016e-04   8.5865031e-04   1.1419194e-03   2.5979191e-04  -3.6020626e-04   2.8043200e-04   4.2603689e-04   1.1469418e-03   7.2120532e-04   5.5021950e-04  -2.9991614e-04  -3.2493635e-04  -1.2339986e-04   3.2880867e-04  -6.6430017e-04   4.6787751e-04   1.5306927e-04   1.9730825e-04  -5.7414774e-04  -3.4928790e-04  -2.5053092e-04
   1.2098331e-03   4.4307951e-04   1.3564384e-03   4.9678225e-04   9.7770360e-04   3.0685311e-05   4.7070644e-05   1.2741863e-05   5.1870833e-05   9.0769248e-04   5.6301162e-04   1.6317671e-04   9.0282795e-04   5.7121931e-04   4.5088277e-04   7.9263438e-04   1.4424792e-03   5.6339329e-04  -6.0032093e-05   3.5891210e-04  -1.3033522e-04  -2.3379683e-04  -6.3008134e-05  -7.7323971e-04  -1.8110077e-04  -5.8973191e-04   5.3382184e-05   8.9306053e-04   8.4535679e-04   2.6979425e-04   3.9741540e-04   7.6983927e-04   1.0090773e-05  -6.7825295e-04   1.3874093e-04   8.7334869e-05   8.8741991e-04   4.8473570e-04   3.7546485e-04  -5.4837682e-04  -4.8318430e-04  -5.9805339e-04  -1.7806234e-04  -1.4773374e-03  -3.3339081e-04  -1.6951931e-04  -2.8749337e-04  -1.2558493e-03  -7.0654292e-04  -3.4811778e-04
   8.6372619e-04  -1.6152377e-04   6.4089813e-04  -2.1933962e-05   5.4403354e-04  -5.6638295e-04  -3.9988459e-04  -4.3213833e-04  -1.8755696e-04   5.7851471e-04   9.1535534e-05  -2.6578316e-04   5.5471680e-04   3.1743982e-04   2.1930227e-04   5.8267440e-04   1.0877190e-03   4.7298192e-04   6.4525689e-04   2.6845178e-04   9.9506069e-05  -3.5421061e-04   3.1765565e-04   2.7758008e-04  -3.7884325e-05  -1.8144176e-04   2.1071975e-04   8.8122347e-04   8.2324777e-04   3.8979328e-04   3.9787311e-04   7.1106787e-04   4.7769607e-04  -3.3557013e-04   4.2864497e-04   3.7421039e-04   1.1067719e-03   5.8365351e-04   5.3775159e-04  -7.1062612e-05  -2.0705244e-04  -2.9856293e-04  -1.7784149e-04   5.3141353e-04   5.9701438e-04   6.2790641e-05   9.9021076e-05  -1.8520621e-04  -6.2689406e-04   8.6211789e-05
   1.0276815e-03   5.4036302e-04   1.0711052e-03   4.8346579e-04   9.8214298e-04   3.8496187e-04   2.2030558e-04   3.2860195e-04   2.3744238e-04   8.7682036e-04   4.2591040e-04   1.1573860e-04   7.1055302e-04   5.6426262e-04   4.4803729e-04   7.3248311e-04   1.0421218e-03   5.2931573e-04  -4.7558750e-04   1.9952029e-04   1.7446377e-04  -5.1490165e-04   1.8429357e-04   3.5966208e-04   1.5662595e-04  -4.1658932e-04   2.2375316e-04   7.8897731e-04   7.1862544e-04   3.5915611e-04   4.1773848e-04   8.8692154e-04   5.4908029e-05  -4.0213918e-04   3.0821591e-04   2.9851845e-04   9.7223435e-04   5.2807177e-04   4.9908401e-04  -3.6001252e-04  -3.4096860e-04  -4.8293525e-04   1.0225258e-04  -1.0890042e-03   2.1502863e-04   2.4121310e-04  -1.2122776e-04  -5.1778951e-04  -7.1414298e-04  -3.0498046e-05
   8.3958660e-04   1.4090913e-04   9.7710046e-04   1.7984363e-04   7.5889379e-04   3.4523466e-05   2.2161077e-05   5.4114858e-05  -3.7655071e-05   6.2325102e-04   9.2380789e-05  -2.3857346e-04   4.1576321e-04   3.1069844e-04   2.7656302e-04   5.3663715e-04   8.5236790e-04   3.5157392e-04   4.3069625e-07  -1.4418311e-04  -2.0036966e-04  -6.5520825e-04  -1.9403477e-04  -1.2339082e-03  -6.4609380e-04  -6.1777938e-04  -1.1864037e-05   6.3569495e-04   5.8050663e-04   1.7326095e-04   1.8455497e-04   4.5478772e-04  -3.4484171e-04  -7.3795125e-04  -8.3561179e-05  -9.9038698e-05   6.8991835e-04   3.1519865e-04   2.3811076e-04  -6.1829330e-04  -5.6702562e-04  -7.0465571e-04  -1.9072897e-04  -7.9009950e-04  -5.4678885e-04  -1.2578972e-04  -4.8651121e-04  -1.2885979e-03  -1.0935040e-03  -3.3562371e-04
   5.8703212e-04  -4.2353710e-04   5.4121349e-04  -3.0251773e-04   3.7558540e-04  -4.7504273e-04  -4.1148945e-04  -3.2014758e-04  -5.7797093e-04   2.4555967e-04  -3.4739077e-04  -7.4177323e-04   5.0562994e-05   2.5599711e-05   6.6282577e-05   2.8574318e-04   4.5750369e-04   1.4415567e-04  -6.8903115e-04  -3.7255391e-04  -2.2913527e-04  -9.2710275e-04  -4.5515745e-04  -1.1104350e-04  -4.0243182e-04  -7.0731627e-04  -6.9732807e-05   6.0565304e-04   5.1750737e-04   4.0149989e-05   1.8505030e-04   6.8267243e-04  -2.7346889e-05  -5.4703734e-04   1.3559501e-04   2.4301207e-04   7.0120482e-04   3.1862964e-04   3.0314343e-04  -3.1525220e-04  -3.9750751e-04  -5.5370969e-04  -5.4979198e-05  -7.6084910e-04  -1.5593544e-04  -8.8840316e-05  -2.5270801e-04  -6.3005951e-04  -7.8702654e-04  -1.5508790e-04
   7.8526326e-04   1.2544711e-04   8.1120414e-04   1.1751157e-04   7.2508183e-04   2.0477000e-04   1.5171139e-04   2.1198794e-04  -4.0374820e-05   6.4622902e-04  -5.8208825e-06  -2.8672846e-04   1.9862530e-04   2.5138143e-04   1.1861052e-04   4.5263601e-04   5.7210930e-04   2.9194177e-04   1.5450281e-04  -1.7552383e-04  -4.0693150e-05  -7.0238253e-04   9.6166274e-05  -1.2243384e-03   1.5659776e-04  -3.8099248e-04   3.2183027e-05   3.5902479e-04   3.4263678e-04   1.1597001e-04   1.2266237e-04   7.3470303e-04  -1.4041894e-04  -5.8051961e-04   1.4158749e-04   1.1209986e-04   6.0823432e-04   2.7396230e-04   2.2754593e-04  -4.3941665e-04  -4.5291666e-04  -4.0675030e-04  -1.7040473e-04  -2.5778398e-04  -3.5580737e-04  -5.9906888e-05  -3.5452243e-04  -9.0712414e-04  -6.6877593e-04  -2.3159689e-04
   5.3547032e-04  -1.2126064e-04   7.3542539e-04  -6.9343245e-05   7.3151774e-04  -3.7606147e-05  -1.0845721e-04  -3.3772845e-05  -3.4735262e-04   4.3485287e-04  -2.3888213e-04  -3.8985975e-04   5.4236763e-05   1.2960825e-04   1.5547501e-04   3.8767915e-04   5.9249060e-04   2.0863743e-04  -5.2574795e-04  -2.9722080e-04  -3.6439902e-04  -8.9363597e-04  -7.0674159e-04  -7.5593521e-04  -5.9393392e-04  -5.8675499e-04   1.1553546e-05   4.1727105e-04   4.8979383e-04   7.6591001e-05   3.7915259e-05   4.7328806e-04  -5.6197314e-04  -7.0911407e-04  -9.8577504e-05   1.3266045e-04   5.1996880e-04   1.5523069e-04   5.7337980e-05  -9.3050470e-04  -7.5669866e-04  -6.4870779e-04  -5.2039552e-04  -1.6292141e-04  -4.8793064e-04  -1.1458873e-04  -6.1597279e-04  -1.0666423e-03  -9.0887147e-04  -4.0260298e-04
   1.2953083e-04  -6.5923156e-04   1.5941040e-04  -5.4343703e-04   2.9535190e-04  -5.4879248e-04  -5.5670354e-04  -4.9586140e-04  -9.1432722e-04   1.8406991e-04  -5.1991892e-04  -5.4077804e-04   4.5135126e-05   9.6428876e-06   2.9734640e-05   4.0598071e-04   6.2763511e-04   2.8806058e-04  -3.6653884e-05  -1.4651471e-04  -1.6264812e-04  -6.1950675e-04   2.9799205e-04  -1.4412764e-04  -1.7529035e-04  -2.6928700e-04   2.4554834e-05   6.0939236e-04   7.3868054e-04   2.5099984e-04   3.4247723e-04   9.4552134e-04  -4.3404680e-06  -3.4857509e-04   2.1665511e-04   3.0500186e-04   7.5493380e-04   4.0208665e-04   4.0096391e-04  -9.5702773e-05  -2.7095005e-04  -3.3906987e-04  -5.1833667e-06  -3.8216441e-04   1.4858662e-04   3.2196988e-04  -2.7381646e-04  -7.9105300e-04  -6.0646498e-04  -3.2041960e-05
   6.6977955e-04   2.0683818e-05   5.6891138e-04   8.4311643e-05   7.4045645e-04   8.7918859e-05  -8.9966234e-06   4.2192944e-05  -9.7010896e-05   5.0229143e-04  -8.8266417e-05  -1.4587233e-04   2.9398900e-04   3.8385767e-04   2.0841259e-04   5.9586356e-04   7.5153064e-04   4.5611055e-04  -5.0970056e-04  -6.9660025e-05  -1.5490941e-05  -4.0754821e-04   2.3576380e-05  -1.3049050e-04   1.4631724e-04  -3.4626693e-04   2.3362348e-04   7.1294274e-04   8.9697400e-04   2.9840934e-04   5.1258109e-04   1.0125655e-03   2.5557438e-04  -4.1222712e-04   1.1987185e-04   2.3127579e-04   7.5480645e-04   3.7811918e-04   3.7630089e-04  -6.4276211e-04  -5.2147184e-04  -5.5817101e-04  -3.7135644e-04   1.1060910e-03  -1.5771083e-04   5.5403961e-04  -4.2948901e-04  -8.9762599e-04  -6.9841312e-04   4.7637779e-05
   5.4926804e-04  -2.5706683e-04   5.7518564e-04  -9.0695299e-05   5.6851603e-04  -1.2266474e-04  -1.6993772e-04  -6.4717926e-05  -5.8511877e-04   3.4117163e-04  -2.9488839e-04  -3.4539372e-04   7.3388976e-05   2.1729639e-04   1.4814000e-04   4.3860541e-04   6.6985423e-04   3.0453558e-04  -1.8352835e-04  -2.3268875e-04  -3.0849158e-04  -6.3800236e-04  -4.5778908e-04  -1.3446531e-03   3.2080433e-04  -7.7607209e-04  -7.9183534e-05   5.7156081e-04   6.9625542e-04   1.1221651e-04   2.0902438e-04   4.9348007e-04  -2.1909609e-04  -7.5348158e-04  -1.6136274e-04  -1.2700311e-04   5.4221693e-04   1.0445351e-04   7.2477356e-05  -8.2394632e-04  -5.8640691e-04  -7.0190470e-04  -3.6305448e-04  -5.3738186e-04  -2.3147733e-04   1.1019891e-04  -4.2359304e-04  -6.2006473e-04  -4.1888352e-04   1.1261810e-04
   6.0007209e-04   8.2721410e-05   6.2724150e-04   2.0995789e-04   7.5589522e-04   3.6015690e-04   2.0610505e-04   1.7533188e-04  -1.6095459e-05   6.9675880e-04  -4.8017289e-05   7.7012235e-05   3.3607872e-04   4.5581776e-04   3.4959763e-04   6.7087845e-04   9.1517932e-04   5.0267216e-04  -4.0255027e-04   1.6181439e-04   9.9583676e-06  -3.9714712e-04   1.1088029e-04   3.1778699e-04   4.7908822e-04  -8.0991711e-05   1.6062560e-04   6.2986306e-04   7.6175062e-04   3.6330032e-04   4.9614115e-04   9.3697367e-04   1.6284554e-04  -2.5177645e-04   2.5681459e-04   3.7777235e-04   8.2101568e-04   3.6634653e-04   3.3845694e-04  -2.8529187e-04  -1.4621089e-04  -2.9812654e-04   2.0709907e-05   4.5775090e-04  -2.0196054e-05   5.2317284e-04  -1.0662352e-04  -3.2681369e-04  -4.5167140e-04  -1.8996094e-05
   7.9238263e-04   7.1222777e-05   5.3826137e-04   2.0892601e-04   7.6610513e-04   2.1538914e-04   2.1072464e-04   1.3093004e-04  -3.5064722e-06   6.5700570e-04  -2.8761244e-05  -2.4906414e-05   3.9924597e-04   4.5199227e-04   2.8914999e-04   6.2879897e-04   9.1319613e-04   4.5304938e-04   6.5234595e-04   1.1196765e-04  -1.5361719e-04  -5.1529292e-04   4.1272448e-05  -3.0216895e-04   3.6172918e-04  -3.9435588e-04   1.2787011e-04   6.7200459e-04   7.3187926e-04   2.9289292e-04   3.4963121e-04   7.2579586e-04   2.2649949e-05  -3.8633685e-04   7.7666409e-05   2.0655744e-04   6.9743639e-04   3.2991232e-04   2.6545799e-04  -1.7108496e-04  -3.4160868e-04  -3.9771548e-04  -2.7942151e-04   6.6252350e-04  -3.1680663e-04   8.7370179e-05  -2.2518300e-04  -4.9958163e-04  -7.2328758e-04  -1.7214175e-04
   3.7691853e-04  -2.8864192e-04   3.9228887e-04  -5.1971558e-05   5.0226942e-04  -1.4812156e-04  -2.4479302e-04  -1.5441017e-04  -5.3807016e-04   3.4477946e-04  -3.2029735e-04  -3.7220604e-04   1.1953642e-04   1.6421457e-04   8.7065375e-05   4.1594150e-04   7.1567250e-04   3.9081322e-04  -2.4811857e-04   3.7916605e-05  -2.1083263e-04  -6.1600871e-04   2.0860764e-04  -5.1112223e-04   4.0572678e-04  -3.6901815e-04   1.2574815e-04   7.2294520e-04   9.6538651e-04   2.8452114e-04   5.3817342e-04   9.0270431e-04   3.6241510e-04  -1.8478355e-04   2.7387464e-04   4.1454492e-04   8.7326841e-04   4.5752461e-04   4.0238339e-04  -1.0387941e-04  -9.2032729e-05  -1.3150707e-04   2.0828808e-04  -1.0473399e-03  -2.0944163e-04   6.2589505e-04   8.9877394e-05  -3.7699923e-04  -3.4589192e-04   1.0454559e-04
   7.6716597e-04   3.3708860e-04   9.4220875e-04   4.2520085e-04   8.1581890e-04   4.6746430e-04   3.4340305e-04   3.0900535e-04   1.6361655e-04   8.5218361e-04   2.1546663e-04   2.1355809e-04   6.3234812e-04   5.9071038e-04   4.7973520e-04   7.1417703e-04   9.7821350e-04   5.9769582e-04   2.6288879e-04   3.6637817e-04   1.4206018e-04  -3.3532723e-04   6.3560283e-06   7.9612707e-04   8.2286424e-04  -7.9329388e-05   1.8027282e-04   6.3499721e-04   9.5089461e-04   4.0787985e-04   5.9559575e-04   1.0349291e-03   5.2842143e-04  -1.3197211e-04   1.7836911e-04   2.9009292e-04   8.9426071e-04   5.2306097e-04   4.2585190e-04  -1.0670866e-04  -2.0175650e-04  -1.4950895e-04   6.0477028e-05   5.0843187e-04  -1.2183037e-04   2.0738905e-04   6.1323917e-05   4.5667213e-05  -3.4316169e-04  -9.1873553e-05
   6.0132932e-04   7.5656702e-05   6.8059965e-04   2.0833639e-04   6.0942734e-04   1.3079120e-04   1.2848598e-04   2.0404971e-04   1.6049817e-04   6.7579682e-04   7.6519522e-05   7.3494016e-06   4.6709084e-04   4.8665304e-04   3.0300877e-04   6.1083812e-04   9.0402272e-04   4.6015810e-04   2.0637256e-04   1.8570742e-04  -9.6267453e-05  -3.8896324e-04  -5.4076034e-05  -9.2022860e-04   3.6034620e-04  -4.3290644e-04   1.3119700e-04   7.2913367e-04   9.3378371e-04   2.5997974e-04   6.4382824e-04   8.6894393e-04   2.8377387e-04  -3.9488770e-04   2.3134580e-05   1.5744021e-04   7.1514188e-04   3.1231419e-04   2.2368666e-04  -3.2459298e-04  -3.7487369e-04  -2.9088158e-04  -3.3027786e-04  -9.6320361e-04  -3.9714028e-04  -3.3735705e-05  -2.7759973e-04  -7.7689724e-04  -5.2087219e-04  -2.1695012e-04
   5.5982923e-04  -1.4437824e-04   7.0034759e-04   2.6166104e-04   7.7233283e-04   3.9016650e-04   2.9447969e-04   2.3782434e-04   2.1619179e-04   9.3058619e-04   3.3390406e-04   3.3673574e-04   7.9826091e-04   7.2393741e-04   5.3323910e-04   7.5717404e-04   1.0559302e-03   6.9654040e-04   7.8338839e-04   5.1859126e-04   3.6292599e-04  -1.7896385e-04   1.7624801e-04   7.2811032e-04   1.0119331e-03   5.4489949e-05   3.4321652e-04   7.5111911e-04   1.0346542e-03   5.2201428e-04   8.6491217e-04   1.3482121e-03   6.6034705e-04   2.5653029e-05   3.6025519e-04   5.8661844e-04   1.0561009e-03   5.6342431e-04   5.4423517e-04   7.4238545e-05   1.5197993e-05   1.0500178e-04   2.5398485e-04   3.0184010e-04  -8.3671175e-06   5.1477918e-04   8.2983737e-05   2.5885060e-04  -1.0295219e-04   1.4848613e-04
   5.8713392e-04   2.2857450e-04   7.1418285e-04   4.3364425e-04   8.0910674e-04   4.2744231e-04   2.7745834e-04   3.6518942e-04   3.2564453e-04   9.6890022e-04   4.1495910e-04   2.8672171e-04   8.0836064e-04   7.3585106e-04   6.4661528e-04   7.7492191e-04   1.0729028e-03   6.4692396e-04  -1.2922996e-04   4.6514184e-04   2.5936612e-04  -2.0490607e-04  -1.2581718e-04   5.8827613e-04   2.7761929e-04  -1.8179308e-04   2.1486475e-04   7.5398042e-04   9.8844315e-04   4.7215028e-04   6.9214148e-04   1.0248345e-03   3.4670634e-04  -1.3806652e-04   2.3881395e-04   3.0680883e-04   9.7437995e-04   4.9789879e-04   4.7881636e-04  -1.6220172e-04  -1.0566627e-04  -1.4821661e-04   7.9166775e-06   3.7844977e-04   1.8820746e-04   3.9910708e-04  -4.9328690e-05   3.1372343e-05  -3.4990779e-04   1.2563984e-05
   5.1580544e-04  -4.6607332e-05   5.9214997e-04   1.4180296e-04   5.1019626e-04   1.0857472e-04   1.2447299e-05   9.2375907e-05  -3.4854296e-04   6.4544950e-04   1.0889730e-04  -4.8849131e-05   5.3948542e-04   5.5488944e-04   2.9471630e-04   6.1896211e-04   9.1324869e-04   5.0953677e-04  -2.0756453e-04   2.5200314e-04  -1.3555729e-04  -4.6869009e-04   6.3830783e-05  -1.3660923e-04  -9.2583949e-05  -5.5925187e-04   4.0225739e-05   6.5374508e-04   8.9817820e-04   2.8071686e-04   6.2731112e-04   7.5551652e-04   6.8057765e-05  -5.3946965e-04  -2.2304362e-04   1.7424769e-04   7.1957818e-04   2.9583526e-04   2.8148131e-04  -5.4755621e-04  -1.6835185e-04  -1.5851985e-04  -4.1956861e-05   9.0129126e-04   1.8089416e-04   6.0404779e-04   7.0704293e-05   2.7992012e-04  -8.4811927e-06   6.3440035e-05
   7.2573958e-04   3.9370923e-04   8.2959118e-04   5.4977665e-04   8.8960823e-04   5.7138398e-04   3.9726030e-04   4.6429766e-04   5.1786739e-04   1.0918906e-03   5.4301182e-04   5.1974680e-04   9.4769814e-04   9.0654579e-04   7.2491867e-04   8.9546351e-04   1.2385853e-03   7.1394420e-04   4.5115474e-04   6.9292582e-04   4.2523872e-04  -2.9024655e-05   6.4460916e-04  -1.0251827e-04   1.6936455e-04  -7.7110461e-05   4.0562716e-04   8.9381979e-04   1.0592717e-03   6.1891857e-04   1.0436419e-03   1.1448985e-03   5.8398396e-04  -7.7561890e-06   3.1766636e-04   4.7245598e-04   1.0849804e-03   6.1207794e-04   6.3449057e-04  -1.3778324e-04   2.6533915e-05  -9.5751966e-05   3.1953224e-04   8.9071435e-04   7.4895557e-05   6.5764290e-04   1.6961621e-04  -1.5553358e-04   1.2861106e-04   3.1192301e-04
   6.1203376e-04   3.1886250e-04   7.6321652e-04   5.6669308e-04   7.9786323e-04   3.8782417e-04   3.6603937e-04   3.7710043e-04   1.3419279e-04   1.0059697e-03   6.0203148e-04   4.7539486e-04   1.0053016e-03   8.3509728e-04   7.5949042e-04   9.0811012e-04   1.3433092e-03   7.4662821e-04   4.3626683e-04   6.4944680e-04   2.8511311e-04   6.8115223e-05   2.6076721e-04   5.0006322e-05   6.1793509e-04  -1.4081133e-04   2.5488061e-04   8.8232715e-04   1.0569360e-03   5.1652954e-04   9.2078786e-04   1.1475052e-03   5.5518170e-04  -1.6645012e-04   1.5432690e-04   3.0174706e-04   1.0319975e-03   5.2004872e-04   5.3606543e-04  -2.7181485e-04  -1.7695423e-04  -8.3635401e-05  -5.1065505e-05  -7.7554374e-04   2.6073479e-04   5.9484644e-04  -4.5174555e-05  -4.6770246e-04  -2.8330917e-04  -2.8246479e-05
   6.9682114e-04  -6.6999513e-05   5.7720637e-04   2.1078199e-04   3.9893453e-04   4.2852793e-05   3.5165707e-05   2.0426949e-05  -8.7810440e-05   6.4442179e-04   2.6151401e-04   6.5006469e-05   7.6384167e-04   5.8688829e-04   3.5499179e-04   6.7944877e-04   1.1236975e-03   5.8494182e-04  -7.8217156e-05   3.6984184e-04  -1.1991434e-04  -3.6517894e-04  -1.6401696e-04  -2.8620326e-04  -1.8149245e-04  -5.5432454e-04   1.8564159e-04   6.8214053e-04   9.5488597e-04   3.1392035e-04   8.6565292e-04   7.3482346e-04   9.6866934e-05  -4.8696331e-04  -2.8983061e-04   5.4616743e-05   7.9283479e-04   2.9776528e-04   2.8372896e-04  -7.9229340e-04  -3.5062435e-04  -4.5627746e-04  -2.7137785e-06  -2.0692019e-05  -3.8370711e-04   5.6279113e-04  -8.7066801e-05  -1.7688620e-04  -1.1049766e-04   2.0930139e-04
   6.2804727e-04   3.1690788e-04   7.6367252e-04   5.3013902e-04   7.5036945e-04   5.3214410e-04   3.2364216e-04   3.3410682e-04   2.1262815e-04   1.0874885e-03   6.4556411e-04   4.9993157e-04   1.0189525e-03   8.9056441e-04   6.7576242e-04   8.6135737e-04   1.3261134e-03   7.9155387e-04   7.7392359e-04   7.6811097e-04   3.8211382e-04   1.0924580e-04   8.0864009e-04   1.2443194e-03   1.9686429e-04   1.0223986e-04   3.3211670e-04   9.4940455e-04   1.1489852e-03   5.7521573e-04   1.0048973e-03   9.6043933e-04   6.6439604e-04   1.2256657e-05   2.2726688e-04   5.3218327e-04   1.0816155e-03   5.5330305e-04   5.5046461e-04  -3.5749174e-05   9.0808629e-05   2.7051634e-05   1.6483146e-04   8.8846206e-04   1.8408355e-04   6.0861511e-04   1.2028898e-04   5.2212108e-05   1.4487015e-04   3.8438549e-04
   7.4994302e-04   2.9994443e-04   7.7911542e-04   5.8270391e-04   6.2216993e-04   3.6807667e-04   1.9853414e-04   3.6189315e-04   2.1773022e-04   9.9703495e-04   5.3901831e-04   3.9032768e-04   9.4708119e-04   7.9570164e-04   6.4351084e-04   8.0433860e-04   1.1965199e-03   6.8207533e-04   7.8761304e-04   6.2447443e-04   1.9115626e-04  -3.1276298e-04   4.1609688e-04  -5.4820739e-05   7.2926027e-04  -3.8734308e-04   2.7895556e-04   7.0072868e-04   1.0016892e-03   4.4422844e-04   8.0764160e-04   8.5641956e-04   5.3208543e-04  -2.2793001e-04   3.1019135e-05   2.5809041e-04   8.6694618e-04   3.8539674e-04   4.4536908e-04  -3.1016703e-04  -2.4799962e-04  -3.1646347e-04  -1.4330780e-04   5.0225295e-05  -5.2459218e-04   6.5106113e-04  -1.1671326e-04  -1.3205600e-04  -4.0642865e-04   2.2972026e-04
   4.4032454e-04  -1.8038109e-04   5.1936711e-04   1.2338175e-04   3.3375673e-04  -1.9856184e-04  -1.4256446e-04  -2.4925769e-04  -2.5311843e-04   6.8754685e-04   1.2982004e-04  -2.6870851e-04   3.3230288e-04   3.2505387e-04   2.7780473e-04   4.5158304e-04   7.0193206e-04   4.1956597e-04  -4.3193900e-04   2.6716970e-04  -1.7319842e-04  -5.9776969e-04  -3.9409945e-04  -6.8915437e-04  -4.8290440e-05  -7.1130221e-04  -1.0013321e-04   2.0393693e-04   5.7564420e-04   5.6933732e-05   4.3628798e-04   4.2062087e-04  -1.4731460e-04  -6.4605207e-04  -4.2506526e-04  -1.6148080e-04   4.9403904e-04   2.0381423e-05  -4.2090607e-05  -8.9913839e-04  -4.9886468e-04  -6.5747375e-04  -1.2936646e-05  -7.3520688e-04  -3.7226928e-04   3.5218714e-04  -4.1222846e-04  -7.6095789e-04  -2.8710018e-04  -1.5506016e-04
   4.2065058e-05  -2.6694077e-04   5.1301403e-04   2.5771119e-04   4.3845063e-04   2.4823859e-04   8.3691732e-05   9.8844452e-05   3.5498798e-04   9.3824102e-04   4.4674645e-04   2.2776962e-04   6.4273528e-04   5.7121663e-04   4.3323732e-04   6.1739335e-04   9.7012549e-04   5.3799083e-04   3.2209020e-04   6.4639642e-04   2.5570934e-04  -2.8242599e-04   4.9486593e-04   3.7618240e-04   1.9946317e-04  -3.0340592e-05   7.8922414e-05   3.6939851e-04   7.1396341e-04   2.9274111e-04   9.6761720e-04   1.0219414e-03   6.8530161e-04  -1.3334004e-04   4.7465863e-05   4.1059550e-04   7.7526417e-04   3.6873313e-04   3.9466764e-04   3.5780944e-05  -8.3893312e-05  -2.0041272e-04   8.3028615e-05   7.0065301e-04   1.5026465e-04   8.2551059e-04  -1.2816306e-05   2.8899021e-04  -2.4281186e-05   7.4161630e-04
   5.9737865e-04   1.7212045e-04   8.1379846e-04   5.2621838e-04   4.3843835e-04   2.5418031e-04   1.3072178e-04   1.3870856e-04   3.2793122e-04   9.9859177e-04   5.2334135e-04   3.9413481e-04   8.1654545e-04   6.3400425e-04   4.9454492e-04   7.7199657e-04   1.0508187e-03   6.2363443e-04   5.8758259e-04   7.1005849e-04   7.2759663e-05  -2.0233799e-04   4.4988130e-05   3.3875575e-04   5.6349504e-04  -2.2570966e-04   2.8790816e-04   5.3279795e-04   8.7985158e-04   3.5608740e-04   9.8839065e-04   8.6935196e-04   5.2705442e-04  -2.3408158e-04   5.5947285e-06   1.7485362e-04   7.4055971e-04   3.3941120e-04   4.2489124e-04  -4.8548705e-04  -2.1513528e-05  -2.3342711e-04  -4.0671202e-05  -8.7889971e-04   1.3629494e-05   9.5415796e-04  -7.5942830e-06   2.4287488e-04  -2.2735560e-04   8.4434485e-04
   4.8029673e-04  -2.2061206e-04   7.3282624e-04   1.5244201e-04   5.6521072e-05  -3.0309643e-04  -3.1384811e-04  -2.8009713e-04  -2.6632918e-04   7.7606051e-04   1.9299665e-04  -1.1353926e-04   5.3233170e-04   3.9914888e-04   2.6098063e-04   5.7547382e-04   8.7349978e-04   4.6198041e-04  -2.6047843e-05   3.8945337e-04  -2.7189744e-04  -6.0806045e-04  -3.7138164e-04  -1.4924535e-03  -1.9871579e-06  -9.1262715e-04  -3.9200149e-05   3.2433186e-04   8.6941861e-04   1.2249117e-04   5.6209753e-04   5.8566133e-04   4.0286493e-05  -7.4689928e-04  -4.9172028e-04  -6.5783155e-05   5.2865047e-04   5.3103442e-05   1.2712335e-04  -9.6413406e-04  -5.2696461e-04  -5.6125049e-04  -4.0497980e-04  -9.9308987e-04  -5.4864417e-04   7.4629841e-04  -3.9846517e-04  -2.1524745e-04  -5.2384119e-05   6.0713937e-04
   1.3401048e-04  -6.2109216e-04   4.8510026e-04   3.1045558e-05   1.6853226e-04  -1.3823915e-04  -1.7811925e-04  -1.4825648e-04   3.6462647e-05   1.0906449e-03   3.3177767e-04   1.6143103e-04   6.9637474e-04   5.3179113e-04   3.6541789e-04   6.8886817e-04   8.4222213e-04   5.8018789e-04   7.6328812e-04   6.2945526e-04   1.5715051e-04  -4.0044452e-04   6.5375835e-04   8.1364211e-05   2.9721507e-04  -3.8631959e-04   1.1834627e-04   3.4199757e-04   8.0459734e-04   2.4900993e-04   8.8898378e-04   8.4181933e-04   6.0828350e-04  -3.1715329e-04  -1.3698066e-04   1.5805413e-04   7.0689089e-04   2.2594209e-04   3.2528606e-04  -2.1306354e-04  -2.2278278e-04  -2.8531987e-04  -1.5789006e-04  -3.6594630e-04  -2.9574186e-04   1.0496818e-03  -1.8830143e-04   3.1131203e-04   1.9630522e-04   1.0147200e-03
   3.7867579e-04  -1.9590170e-04   6.2724063e-04   2.8663641e-04   1.9590455e-04  -1.9479106e-04  -1.5735610e-04  -1.5491537e-04  -1.7640021e-05   9.5895800e-04   2.9057640e-04   3.6066111e-05   5.3553184e-04   4.6907889e-04   2.4777488e-04   6.1337359e-04   7.9436984e-04   4.9571163e-04   1.5916491e-04   5.3512410e-04   3.6597892e-05  -4.2450440e-04   1.0922784e-04  -5.8501086e-04  -7.7919794e-05  -6.5307214e-04   3.4563120e-05   3.5730109e-04   8.1252423e-04   1.7414510e-04   6.9400063e-04   5.6836323e-04   2.9055899e-04  -4.6269633e-04  -3.7218680e-04   1.6470154e-05   5.7293801e-04   1.5703142e-04   2.2677078e-04  -5.6871813e-04  -3.3642599e-04  -5.8041228e-04  -3.7847707e-04  -8.3254132e-04  -2.8333647e-04   9.3714870e-04  -2.9722005e-04  -5.9689081e-04  -7.6955894e-06   8.7395078e-04
   2.9443184e-04  -4.8965879e-04   4.9012847e-04   4.8982041e-05  -2.2087013e-04  -5.5030372e-04  -4.1185730e-04  -3.5239247e-04  -2.0741565e-04   6.3917291e-04  -1.3727186e-05  -4.1216402e-04   3.5643793e-04   2.6498578e-04   1.5716512e-04   4.2906852e-04   6.8036292e-04   3.3134414e-04   3.3216676e-04   2.3572435e-04  -3.3034824e-04  -6.7948451e-04  -8.1411935e-04  -1.2738686e-03  -5.4396840e-04  -1.0897977e-03  -1.2076450e-04   3.3163736e-04   7.2849460e-04  -1.1598277e-05   5.8841391e-04   3.8909243e-04   2.4450721e-05  -8.4874575e-04  -5.8672507e-04  -2.8418354e-04   3.3966266e-04  -1.2243584e-04  -3.1571872e-05  -1.0501766e-03  -6.1278994e-04  -7.2705408e-04  -2.3689386e-04  -1.1913693e-03  -4.0090503e-04   8.2259328e-04  -4.9113622e-04  -3.7886147e-04  -9.4957613e-06   9.5166714e-04
   4.4181960e-04  -2.8976917e-04   5.3532125e-04   4.0067034e-04   1.4392196e-04   3.8770861e-05  -1.0569215e-04  -5.2945317e-05   2.7821472e-04   9.2529156e-04   2.1885717e-04   2.1711880e-05   5.4492225e-04   5.4507423e-04   3.8614689e-04   5.8879406e-04   9.2587102e-04   5.2877067e-04   7.5751846e-04   5.7516014e-04   9.6347831e-05  -3.1543788e-04  -1.0980290e-04  -3.6262107e-04   2.9335837e-04  -5.2236201e-04   1.1294924e-04   4.9368985e-04   7.0021290e-04   1.3860203e-04   9.0300618e-04   8.8143820e-04   3.6096945e-04  -3.5979421e-04  -2.4958194e-04   6.3118285e-05   4.8637082e-04   8.2769220e-05   1.6063766e-04  -5.0468493e-04  -2.5050953e-04  -4.0426405e-04   8.8724839e-05  -1.1850481e-03  -2.0159934e-04   8.7974704e-04  -2.7678025e-04  -1.7404658e-05  -1.4374707e-05   7.7523926e-04
   3.2338590e-04  -2.0686259e-04   5.0913071e-04   4.0057494e-04   2.6737852e-04  -2.4408662e-04  -2.2482531e-04  -2.5496056e-04  -1.5955782e-04   7.3851272e-04   3.1117826e-05  -1.3876593e-04   2.3109840e-04   2.6770672e-04   2.1583265e-04   4.1548538e-04   7.8042794e-04   4.4064244e-04  -1.4410548e-04   3.2144430e-04  -2.1914084e-04  -4.1917185e-04  -2.5543501e-04  -9.7100058e-04  -8.0466249e-05  -6.3810748e-04   7.4023410e-06   1.5650480e-04   5.8212056e-04  -7.1635055e-05   6.4053584e-04   5.1188999e-04  -5.0104169e-05  -4.1748505e-04  -4.4960409e-04  -2.3274687e-04   1.9319754e-04  -9.5675932e-05  -1.7731379e-04  -8.9299621e-04  -6.4750807e-04  -6.8325293e-04  -3.4551427e-04  -1.5350597e-03  -6.0332735e-04  -1.6436901e-05  -5.1712000e-04  -2.7883856e-04  -4.8774242e-04  -2.0238667e-04
   8.9763271e-05  -6.9569098e-04   3.9200456e-04   6.1951650e-05   2.1007718e-05  -8.1837992e-04  -5.0353695e-04  -7.5700355e-04  -8.2063465e-04   5.3402578e-04  -3.2207920e-04  -8.5507345e-04  -3.9840306e-04  -3.9069177e-04  -3.5517125e-05  -1.7409369e-04   5.7623576e-05   1.3063908e-04  -1.4641558e-04  -2.2751096e-04  -6.9670822e-04  -9.4692264e-04  -7.7302381e-04  -2.3190698e-03  -8.6696103e-04  -9.4591582e-04  -1.3195723e-04   2.2221875e-04   1.4407298e-04  -4.6779116e-04   2.3667929e-04   1.0771048e-04  -2.6314845e-04  -7.8778371e-04  -6.9132209e-04  -5.9047021e-04  -2.4135596e-04  -4.0936173e-04  -6.0576008e-04  -1.1867712e-03  -6.8342767e-04  -6.8020821e-04  -7.5204019e-04  -7.1523956e-04  -3.3155183e-04  -4.9253099e-04  -4.7015015e-04  -1.8387704e-04  -2.3866397e-04  -4.8197550e-04
   3.9913054e-04  -1.4756795e-04   7.4811641e-04   4.9961184e-04   4.1357643e-04  -8.1364335e-05   1.4674979e-05  -2.1069396e-04  -5.4059579e-05   1.0650606e-03   6.1199054e-05  -1.4558404e-04  -3.1649794e-05  -6.6441724e-05   9.7592150e-05   1.2223089e-04   3.2859444e-04   2.8902912e-04   1.0166450e-04   1.2983018e-04  -1.3353066e-04  -5.4912060e-04   3.3395371e-04  -5.1159289e-04  -1.2927163e-04  -3.2551427e-04  -1.1020323e-04  -6.6823202e-05   3.1161518e-04  -2.9558525e-04   3.3950366e-04   4.7032273e-04  -5.9624570e-05  -2.0311703e-04  -3.8099714e-04  -3.3944135e-04  -1.0937342e-04  -1.9916792e-04  -4.9722404e-04  -7.0210139e-04  -5.4490846e-04  -7.2049460e-04  -4.3046169e-04  -9.3636115e-04  -5.1079981e-04  -6.8538683e-04  -5.7965860e-04  -7.2914752e-04  -6.7951874e-04  -9.2255656e-04
   4.4385891e-04  -3.0053008e-04   5.7197595e-04   2.8281266e-04   1.6166462e-04  -3.4526081e-04  -1.3353887e-04  -5.0609792e-04  -3.6169749e-04   8.7753934e-04  -1.8945184e-05  -3.0349218e-04  -1.5163761e-05  -1.4089090e-04  -6.9143680e-06   5.0932500e-05   3.5210175e-04   3.1870152e-04   6.3871688e-05   5.4195825e-05  -3.4089372e-04  -5.7806261e-04  -2.9229195e-04  -1.0746886e-03  -6.5061531e-04  -6.6088059e-04  -1.1882743e-04  -4.9015107e-05   2.6427445e-04  -3.4763906e-04   6.5597869e-04   3.4571576e-04  -2.8442804e-05  -4.1499760e-04  -5.4155046e-04  -3.7184168e-04  -1.7591607e-04  -2.6963119e-04  -5.3872290e-04  -9.5890480e-04  -7.4486365e-04  -7.2670286e-04  -7.8299368e-04  -9.2854904e-04  -8.1399170e-04  -6.6336151e-04  -7.7477994e-04  -8.7283581e-04  -1.1009540e-03  -1.2097387e-03
   2.3913251e-04  -7.9991185e-04   4.7058420e-04  -2.6771452e-04  -1.6176273e-04  -9.2873839e-04  -6.3336705e-04  -8.2392374e-04  -6.9084851e-04   4.7457530e-04  -3.0537715e-04  -8.1901584e-04  -1.6963514e-04  -4.5148161e-04  -1.3584347e-04  -1.5063306e-04   1.3484785e-04   6.4342195e-05  -6.9135282e-04  -2.4276722e-04  -5.8839010e-04  -7.7565107e-04  -2.1085229e-04  -6.4582250e-04  -1.6092033e-04  -1.0438578e-03  -9.4033123e-05  -5.4188195e-07   3.3075185e-04  -4.3520375e-04   4.3482607e-04   4.6752160e-04   3.6818965e-05  -3.7224602e-04  -4.3245798e-04  -2.6117417e-04  -8.8117413e-05  -1.4461007e-04  -2.6209268e-04  -6.2981364e-04  -4.5164040e-04  -5.4202566e-04  -7.2614284e-04  -8.1367779e-04  -6.5698178e-04  -4.5431592e-04  -5.7685783e-04  -4.0903394e-04  -6.1263307e-04  -6.5937696e-04
   4.2915411e-04  -2.1010201e-04   7.5913983e-04   2.1397763e-04   1.5703999e-04  -2.1507373e-04  -2.0106787e-04  -2.6450361e-04  -3.6895066e-04   9.0480997e-04   5.5809345e-05  -2.8584848e-04   1.7810539e-04   5.3647273e-05   3.9427592e-05   1.5179325e-04   3.5731131e-04   2.9672682e-04   5.2817777e-05   4.4339933e-05  -1.7942434e-04  -4.7307945e-04  -2.2929971e-04  -3.9233285e-04  -3.5763290e-04  -6.3679513e-04  -3.3944147e-05   5.8408310e-05   4.7120455e-04  -2.5993938e-04   6.7878485e-04   3.6715349e-04   1.1999514e-04  -3.7789854e-04  -4.9685669e-04  -2.5649572e-04   1.1530517e-05  -1.7971997e-04  -2.9524867e-04  -8.3127531e-04  -6.8072294e-04  -6.5414543e-04  -7.0349651e-04  -7.0164853e-04  -2.9504587e-04  -3.2936738e-04  -6.5446529e-04  -7.3997500e-05  -9.1544254e-04  -7.3261227e-04
   4.4888546e-04  -5.2664406e-04   6.0469616e-04  -1.2819456e-05  -9.3984607e-05  -5.1457516e-04  -4.7793359e-04  -4.9226556e-04  -6.2266376e-04   6.8178755e-04  -1.4652582e-04  -5.5551308e-04   9.4039577e-05  -6.9097252e-05  -7.2385381e-05   1.2137338e-04   2.9209798e-04   2.4014023e-04  -5.7353178e-04  -6.8141380e-05  -3.5854770e-04  -5.9335318e-04  -7.3927303e-04  -1.0411236e-03  -5.6662370e-04  -9.9790294e-04  -1.7718220e-04  -2.6058207e-05   3.8046649e-04  -3.2893446e-04   4.3727132e-04   1.7046031e-04   5.3121254e-05  -6.7375362e-04  -7.5467158e-04  -4.9788458e-04  -1.5980061e-04  -3.8903873e-04  -4.9280265e-04  -1.4206440e-03  -8.2037231e-04  -8.4005063e-04  -9.8979007e-04  -1.6078330e-03  -4.4673233e-04  -3.8993362e-04  -9.8842836e-04  -1.0746754e-03  -5.5435399e-04  -8.5483934e-04
   6.9227761e-05  -1.1243831e-03   2.8803645e-04  -4.9437315e-04  -2.9964151e-04  -7.5252674e-04  -7.3195290e-04  -7.1079785e-04  -4.1245035e-04   7.9313415e-04  -1.1937577e-04  -5.0199864e-04   2.2845407e-04   1.0934586e-04   3.0266769e-05   2.5122811e-04   4.2325380e-04   2.8756051e-04  -5.1340769e-04   2.8574205e-04   1.0632848e-04  -3.0788433e-04   4.7900769e-05  -1.5246286e-04  -5.2111666e-04  -7.1993994e-04  -1.3775057e-04   1.3517494e-04   3.7375541e-04  -7.6308810e-05   6.8973296e-04   5.4429082e-04   2.2861260e-04  -2.9260915e-04  -3.6617822e-04  -1.1060361e-04   3.3869335e-04  -1.1052579e-04  -1.3870232e-04  -8.6889340e-04  -4.8421844e-04  -5.8494491e-04  -6.3411414e-04  -4.9065257e-04  -4.3808160e-04   2.2146558e-04  -5.9056102e-04  -3.1875219e-04  -3.7050864e-04  -2.1324180e-04
   4.2114450e-04  -4.8357528e-04   6.5473415e-04  -2.4316792e-05   5.6179855e-05  -3.8036174e-04  -3.4625633e-04  -3.1318318e-04  -2.3513568e-04   7.5273326e-04  -1.1372560e-04  -4.6768473e-04   2.9719176e-04   1.9640895e-04   1.5826932e-04   3.0061076e-04   4.7197501e-04   2.9160178e-04   2.8891847e-04   1.8115269e-04  -3.7767324e-05  -2.8937645e-04  -3.6236396e-04  -7.5336825e-04   1.0001677e-04  -9.5625891e-04  -1.6269443e-04   1.0405844e-04   4.1637989e-04  -5.8299767e-05   4.5602291e-04   3.6453834e-04   1.7388264e-04  -5.0394074e-04  -4.3462942e-04  -1.4627114e-04   2.0770515e-04  -1.3448295e-04  -1.5234049e-04  -9.0945995e-04  -6.6144805e-04  -7.4395159e-04  -9.5846120e-04  -4.5161371e-04  -2.3250942e-04   4.1150095e-04  -7.3311228e-04  -6.4288976e-04  -2.3347313e-04  -1.8013983e-05
   1.2838341e-04  -7.1156118e-04   3.6777084e-04  -1.6118465e-04  -1.6843317e-04  -6.3766539e-04  -5.8511138e-04  -4.4185284e-04  -6.1459333e-04   4.1377303e-04  -3.4755436e-04  -7.3050539e-04   1.4799729e-04   1.4528273e-04  -7.8400219e-05   1.6920676e-04   3.1778068e-04   1.4203254e-04  -3.3170861e-04  -1.7763722e-04  -4.2775765e-04  -6.2156405e-04  -9.7843283e-04  -1.8500380e-03  -8.7645976e-04  -1.1965223e-03  -1.8551425e-04   1.0270168e-04   3.5220818e-04  -1.9567992e-04   2.9514910e-04   2.3390241e-04  -5.8855923e-05  -9.5086690e-04  -8.0528355e-04  -3.8603865e-04   9.5151059e-05  -3.0136204e-04  -2.6470798e-04  -1.4227702e-03  -7.0462876e-04  -7.9405814e-04  -5.6461332e-04  -4.4914323e-04  -1.4253642e-06   3.6741974e-04  -6.4707448e-04  -4.1447853e-04  -1.5937605e-04   5.3015788e-04
   1.8284074e-04  -2.5203137e-04   4.9085857e-04   2.9004342e-04   2.4547594e-04   1.7271319e-05  -1.9710575e-04  -8.1202779e-05  -7.7913981e-05   8.2141126e-04  -1.9208082e-05  -1.9602217e-04   4.9811066e-04   4.2085937e-04   2.2435795e-04   4.3537078e-04   5.8516266e-04   4.1199860e-04   2.3338152e-04   2.2644644e-04   1.6883948e-04   1.6549060e-05   6.7590823e-05  -3.8632355e-04  -2.9504969e-04  -6.5246015e-04   7.4632444e-06   2.8330731e-04   5.0254533e-04   1.5808050e-04   7.1054918e-04   5.1022402e-04   3.4847276e-04  -4.4492626e-04  -3.2207806e-04  -2.0612370e-04   4.4302453e-04   4.1535477e-05   5.8364923e-05  -8.4933458e-04  -5.3527293e-04  -5.6437240e-04  -2.7164276e-04  -5.0619076e-04   5.7765272e-05   8.0187380e-04  -6.0579396e-04  -2.6345058e-04  -8.3720424e-06   6.0888450e-04
   2.0539523e-04  -4.2736568e-04   3.2930949e-04   1.8322469e-04   1.0230364e-04  -2.6738818e-04  -2.5100089e-04  -1.9334040e-04  -2.1641675e-04   7.0342992e-04  -1.2941222e-04  -3.1988381e-04   3.2748940e-04   3.9581410e-04   2.5581211e-04   4.0376466e-04   4.9958570e-04   3.7217044e-04   4.4203905e-04   1.2224517e-04  -2.3586563e-05  -2.1604697e-04  -4.6529676e-04  -8.0783304e-04  -4.1276723e-04  -9.1006217e-04  -5.4164584e-06   2.9955761e-04   6.4795435e-04   1.3043509e-04   6.6252175e-04   5.2784971e-04   1.4725438e-04  -4.9760717e-04  -4.1072493e-04  -1.8920570e-04   2.9711533e-04   1.1060845e-05  -8.0005930e-06  -7.8492844e-04  -6.6347286e-04  -6.6586974e-04  -3.0539191e-04  -2.8322984e-05  -9.2667260e-06   6.6355045e-04  -7.7645812e-04  -5.5088924e-05  -2.1481571e-04   6.1836757e-04
   1.7279934e-04  -8.7831332e-04   2.3496767e-04  -1.8464614e-04  -1.3108723e-04  -8.3289179e-04  -6.3558121e-04  -5.2164576e-04  -9.5355080e-04   3.6336915e-04  -5.5178802e-04  -8.3444396e-04  -1.1831115e-04   6.9586436e-05   3.8985461e-05   1.6146597e-04   2.4512431e-04   2.6574748e-04   1.0990606e-04   8.5957719e-05   5.4957382e-05  -1.1724899e-04  -1.9880426e-04   3.3101186e-04  -2.1927535e-04  -4.6206723e-04   2.1810391e-05   2.4192299e-04   4.6593821e-04   1.4927769e-04   7.5865525e-04   7.0954277e-04   7.3762622e-04  -1.8666615e-04  -1.2080587e-06   7.5753574e-05   4.6580654e-04   1.8146755e-04   1.6387813e-04  -4.3180722e-04  -4.4920773e-04  -3.8830240e-04  -2.1576058e-04  -2.9131811e-04   2.1587424e-05   1.5133662e-03  -5.0313235e-04   3.5687763e-04   2.8094853e-04   1.3279620e-03
   3.8127016e-04  -2.0753920e-04   5.1686639e-04   4.0687909e-04   3.6846273e-04  -1.5874766e-04  -6.2831117e-05  -5.7118199e-05  -1.1617476e-04   7.1818614e-04  -1.1175981e-04  -1.3090565e-04   2.4081173e-04   4.5777703e-04   2.9781001e-04   4.0232760e-04   5.6950870e-04   4.7656742e-04  -1.5166592e-04   1.6055202e-04   2.2878926e-04   1.5476641e-04   2.1344480e-04   1.5191792e-04   4.8011992e-04  -4.8802741e-04   7.8813187e-05   2.5117453e-04   5.3063640e-04   2.1225087e-04   7.2134443e-04   7.7039289e-04   5.1370577e-04  -1.4277533e-04  -2.6585019e-04   8.2283157e-05   4.5212015e-04   1.9615679e-04   1.4287785e-04  -4.2019508e-04  -3.8471847e-04  -4.0718660e-04   1.5070483e-04   2.1695213e-04   4.5827201e-05   1.2639998e-03  -2.8308042e-04   3.6506713e-04   8.9163419e-05   1.1997616e-03
   3.8712556e-04  -3.8082982e-04   4.6944345e-04   3.2185475e-04   2.4873010e-04  -4.1832530e-04  -2.4120476e-04  -1.9459917e-04  -2.8209246e-04   6.1104703e-04  -1.6549919e-04  -2.5594654e-04   2.1916344e-04   3.1119416e-04   2.0784880e-04   3.0479510e-04   4.5646436e-04   4.2114372e-04   1.8231922e-05  -1.5473113e-06  -1.2428621e-04  -1.7844916e-04  -2.5021381e-04  -9.2612451e-04  -6.0467026e-04  -6.8199821e-04  -1.0495799e-04   4.7335132e-05   5.0064427e-04   2.2192689e-05   6.1254582e-04   4.7393638e-04   1.7389340e-05  -5.1789061e-04  -4.2537085e-04  -2.2155198e-04   2.0792190e-04   4.1262396e-05  -9.4917363e-05  -9.8178315e-04  -7.1565434e-04  -4.8995647e-04  -1.3452584e-04   3.2370153e-05  -4.3118131e-04   7.2382332e-04  -4.8645222e-04   4.9102871e-04  -5.5089913e-05   1.3256388e-03
   3.6532592e-04  -1.7501949e-04   6.9087191e-04   5.9587607e-04   5.2758289e-04   1.5898817e-05   7.6823446e-05   4.5687644e-05   2.2834374e-04   9.8248583e-04   2.0564995e-04   2.6774086e-04   5.7775044e-04   6.1223563e-04   5.0702895e-04   4.9690431e-04   6.3295534e-04   5.9744460e-04   2.8480263e-04   3.7780523e-04   3.5409100e-04   2.3799766e-04   1.5930770e-04   7.3991186e-04   3.8506399e-04  -2.4068309e-04   1.6394458e-04   3.0763535e-04   6.8232312e-04   3.1841168e-04   8.4412971e-04   7.7296927e-04   4.0262766e-04   5.7405370e-05   3.8314411e-05   1.4249241e-04   4.8894237e-04   3.5370476e-04   2.5005979e-04  -5.2408047e-04  -2.5717361e-04  -3.0977812e-04  -1.7266117e-05   3.1240744e-04   1.6416941e-04   1.3503534e-03  -9.3294024e-05   6.3970435e-04   2.6501497e-04   1.4807041e-03
   5.1242317e-04  -1.3589273e-04   7.3929894e-04   6.1706163e-04   4.3625981e-04  -1.3322884e-04   3.1985226e-06  -1.3038755e-05  -5.5281213e-05   9.5132797e-04   2.6576794e-04   1.1030554e-04   4.7455303e-04   5.0920126e-04   4.9302977e-04   4.0690461e-04   4.9646973e-04   5.5503304e-04   2.3335977e-05   3.7430541e-04   3.8093765e-04   1.1122226e-04   3.7988398e-04  -3.9800332e-04  -2.3999842e-06  -3.7905620e-04   3.2185086e-05   2.7516426e-04   4.3295047e-04   1.0538252e-04   7.5546227e-04   6.3566450e-04   4.1936169e-04  -3.6800720e-05  -1.8708610e-04  -1.5125261e-04   2.3544372e-04   1.9061979e-04   1.2756174e-05  -7.3320651e-04  -4.4385667e-04  -5.4447929e-04   3.9590039e-05  -4.4871794e-04   3.8591464e-04   9.1763015e-04  -2.6801124e-04   3.4020617e-04   1.0377055e-04   1.0838629e-03
   1.6364701e-04  -4.6624639e-04   5.4262037e-04   2.7845177e-04   2.3931156e-04  -5.8778457e-04  -3.4026374e-04  -3.3830057e-04  -3.6714764e-04   6.8223075e-04   7.6649711e-05  -2.6892696e-04   1.6367019e-04   2.3718012e-04   2.0284909e-04   1.7882758e-04   3.5484217e-04   3.5643845e-04   2.4763364e-04   3.5604183e-04   2.2415133e-04  -1.0977055e-04   2.2738401e-04  -4.9231510e-04   3.2430660e-04  -2.2933765e-04   9.3283379e-05   1.8371697e-04   4.1370103e-04   1.0798264e-04   8.2565652e-04   8.2750421e-04   4.9568759e-04   1.1817204e-04   1.6686949e-05   8.7509106e-05   4.9508404e-04   2.8010193e-04   1.3423277e-04  -1.4960901e-04  -1.1343072e-04  -2.1237427e-04   4.7392873e-04   4.4448400e-04   3.6170750e-04   1.1534113e-03   2.4564870e-04   8.8822906e-04   5.1103410e-04   1.3133334e-03
   7.2183955e-04   1.4665305e-04   1.1399400e-03   7.3289598e-04   6.5122644e-04   1.1161764e-04   1.4136104e-04   1.4510886e-04   1.5392996e-04   1.3711775e-03   6.9446792e-04   3.3628300e-04   6.1727932e-04   5.4517714e-04   4.8968580e-04   4.1619109e-04   5.2087678e-04   5.3249591e-04   3.0554147e-04   7.3498534e-04   5.2085635e-04   3.9791226e-05   5.1096210e-04   1.2920122e-04   5.7214894e-04  -3.9401909e-04  -7.3447089e-05   2.0089665e-04   5.3490914e-04   1.2853566e-04   8.4318517e-04   7.2938518e-04   5.6943827e-04   2.5960944e-05   2.4797808e-05   1.5275988e-04   4.5079261e-04   2.7313628e-04   1.5864841e-04  -1.9317123e-04  -1.9833483e-04  -8.0003527e-05   4.7532591e-04   1.0089268e-05   2.3148031e-04   1.3088755e-03   3.0554767e-04   1.0530597e-03   4.9951649e-04   1.3056808e-03
   6.9947587e-04   1.9471392e-05   9.0213603e-04   6.3184754e-04   5.3088705e-04  -7.0459129e-05  -2.5158490e-05  -1.1522535e-05   3.2525542e-04   1.1783689e-03   7.5296318e-04   2.4145558e-04   6.9990347e-04   4.7183243e-04   4.0648284e-04   3.7635796e-04   6.0929084e-04   4.3776911e-04   1.7038075e-04   6.0213817e-04   3.4526960e-04  -1.2433222e-04   2.6854727e-04   7.2696980e-04   3.2284521e-04  -3.6359578e-04  -1.2932128e-04   1.1205861e-04   3.2668869e-04  -6.5374988e-05   7.0348097e-04   6.1575841e-04   1.8897442e-04  -2.1638065e-04  -2.2785753e-04  -1.3467300e-04   2.5359055e-04   4.5990051e-05  -1.2640364e-04  -8.7988493e-04  -3.8461952e-04  -4.4284717e-04  -4.4031625e-05  -5.3469557e-04  -6.3244501e-05   5.4099166e-04   2.3677376e-04   6.9896312e-04   4.2597164e-04   8.3385577e-04
   6.5785123e-04   1.9644854e-04   1.1796125e-03   8.4304070e-04   5.8747845e-04   3.2166010e-04   2.8703193e-04   1.8541353e-04   5.3755537e-04   1.5889347e-03   1.0977368e-03   6.2664039e-04   9.7029307e-04   7.0000923e-04   6.5656682e-04   5.1492197e-04   8.3399646e-04   6.3362985e-04   5.0408923e-04   1.1294208e-03   8.1007666e-04   1.5731067e-04   8.0205384e-04   7.9417159e-04   9.2554453e-04   1.7024830e-04  -6.6175424e-05   4.7888152e-05   4.3083398e-04   1.2697953e-04   1.0260481e-03   1.0047394e-03   4.5998013e-04   2.2697305e-04   9.1487374e-05   2.3773967e-04   4.9503805e-04   2.5812120e-04   1.2785316e-04  -2.2006028e-04  -3.5283225e-05   2.5359382e-06   2.9807436e-04  -1.9366336e-04   3.6593119e-04   8.4394694e-04   7.5180270e-04   1.1846232e-03   7.5902883e-04   1.0983754e-03
   7.3765637e-04   4.5621127e-04   1.2708949e-03   8.9367852e-04   8.2972943e-04   2.4279162e-04   3.2233942e-04   1.7336117e-04   8.1791752e-04   1.5775737e-03   1.2597031e-03   7.0401846e-04   1.1137641e-03   6.9163326e-04   6.5410166e-04   6.1626249e-04   9.9360012e-04   6.3825917e-04   1.5323344e-03   1.1517106e-03   6.7189074e-04   1.5820967e-04   8.0620666e-04   8.7124290e-04   1.5551645e-04  -7.7513560e-06  -1.3901860e-05   1.4142213e-04   4.5939820e-04   7.3450115e-05   1.1242782e-03   7.7570666e-04   3.0504417e-04   1.0263752e-04  -8.0026432e-05   4.3657790e-05   4.2476371e-04   2.7225446e-04   8.6632564e-05  -2.7557369e-04  -1.7722721e-05  -3.8270031e-05   5.1396521e-04  -3.7355765e-04   1.9698055e-04   1.0934216e-03   6.9713907e-04   1.5777106e-03   6.4128276e-04   9.7382278e-04
   6.2032964e-04   1.5236143e-04   1.1856024e-03   6.3979340e-04   4.4970689e-04  -1.0419760e-04   6.7802524e-05  -6.3936932e-05   3.1522475e-04   1.2292735e-03   1.0041686e-03   3.4781673e-04   9.1526966e-04   5.4147519e-04   5.1154988e-04   4.6840837e-04   8.6885702e-04   5.3224264e-04   5.1948626e-04   1.0391298e-03   5.3074461e-04  -4.4763550e-05   4.4543186e-04   4.8353893e-04  -7.8906305e-05  -1.2491808e-04   1.1008969e-05   2.8447647e-04   5.3622999e-04   8.8595196e-05   1.2020592e-03   1.0481814e-03   6.2312948e-04   2.9870417e-04   2.7991526e-04   3.4467183e-04   6.0617522e-04   3.9590619e-04   2.5914435e-04   1.1670584e-04   1.2515683e-04   3.2388710e-04   5.6561147e-04   2.3129280e-04   7.5216120e-04   1.0847204e-03   9.8688400e-04   1.4151573e-03   1.1895326e-03   1.6010351e-03
   1.1633178e-03   7.3962490e-04   1.6344879e-03   1.2354451e-03   8.4060489e-04   4.8877182e-04   4.0469112e-04   4.0426161e-04   9.4623369e-04   1.6647625e-03   1.5890497e-03   8.7215577e-04   1.4030765e-03   9.0813194e-04   7.6823169e-04   7.3984824e-04   1.2354463e-03   7.3663169e-04   8.6710026e-04   1.4313804e-03   9.9499675e-04   4.3779373e-04   1.1176597e-03   1.1154360e-03   1.3704682e-03  -2.2521939e-05   8.9359128e-05   3.2884994e-04   5.3761393e-04   2.2898814e-04   1.2951080e-03   1.1397117e-03   7.1003952e-04   3.8131740e-04   2.0442944e-04   3.9999746e-04   6.2412914e-04   4.4423708e-04   3.4478039e-04   5.2254003e-05   2.8028487e-06   1.8540425e-04   4.4100714e-04   2.1335699e-04   4.5106551e-04   1.4373594e-03   9.9038403e-04   1.0704333e-03   1.2164812e-03   1.6258180e-03
   1.0955156e-03   5.3042488e-04   1.4573275e-03   1.1219084e-03   7.1561651e-04   2.3696036e-04   3.0412237e-04   2.9376880e-04   5.7871226e-04   1.4356379e-03   1.4377604e-03   6.9520588e-04   1.3283462e-03   8.4347621e-04   6.9754943e-04   6.5231876e-04   1.1251462e-03   6.8026647e-04   4.1273658e-04   1.2448552e-03   8.2692940e-04   4.4704077e-04   6.2498497e-04   3.2314155e-04   7.3710107e-04  -4.2714451e-05   6.1389474e-05   3.2458373e-04   6.1882974e-04   1.3568836e-04   1.3027119e-03   9.2722749e-04   6.0099474e-04   1.2666338e-04  -1.0475644e-04   7.3442927e-05   5.1179336e-04   3.3350725e-04   1.7946918e-04  -3.2602495e-04  -2.5584860e-04   3.6534169e-05   3.6646266e-04   8.9960196e-04   1.5717278e-04   1.3388926e-03   6.7762821e-04   9.5732341e-04   7.2361919e-04   1.3752690e-03
   9.9993695e-04   2.0851349e-04   1.3328139e-03   1.0776087e-03   8.5211685e-04   4.6237514e-04   4.1977433e-04   3.7755063e-04   1.1497468e-03   1.5629466e-03   1.5479088e-03   1.0320509e-03   1.4927905e-03   1.0878538e-03   1.0495201e-03   7.9511671e-04   1.2418830e-03   7.7144848e-04   9.8567759e-04   1.4827038e-03   1.2037390e-03   9.7529293e-04   9.9008100e-04   9.1947336e-04   1.1283347e-03   4.2981355e-04   2.3672346e-04   4.8072202e-04   6.8950764e-04   3.7552335e-04   1.5655176e-03   1.4798185e-03   1.1250048e-03   5.5698631e-04   5.1048689e-04   6.6243939e-04   8.2622765e-04   6.0178124e-04   4.6145020e-04   4.4340352e-04   2.3881250e-04   3.8422327e-04   5.5452925e-04   6.2198186e-04   7.4979314e-04   1.6013706e-03   1.0493937e-03   9.2940335e-04   1.1456584e-03   1.8457319e-03
   1.1382560e-03   7.6891168e-04   1.5785123e-03   1.4951414e-03   1.0596531e-03   7.0038985e-04   5.8668299e-04   6.4884499e-04   1.2612088e-03   1.5649414e-03   1.6552376e-03   1.1034537e-03   1.5360581e-03   1.1187996e-03   1.0351090e-03   8.6212542e-04   1.2570228e-03   8.3435036e-04   8.9772494e-04   1.4089214e-03   1.0884941e-03   1.0446775e-03   9.3382999e-04   1.5298114e-03   1.1452544e-03   4.7405984e-04   2.2314639e-04   5.6227727e-04   7.3504727e-04   3.5253767e-04   1.4725891e-03   1.1768830e-03   9.8605710e-04   4.8438966e-04   3.9800419e-04   3.6587604e-04   7.7218941e-04   5.5694795e-04   4.2725287e-04   3.6519803e-05   8.8687077e-05   2.2150765e-04   5.4798322e-04   6.5649219e-04   1.0071337e-03   1.5635787e-03   1.0052847e-03   7.7331101e-04   8.9940877e-04   1.5798074e-03
   1.2056234e-03   5.3476123e-04   1.2775223e-03   1.3194700e-03   9.3684852e-04   3.4344720e-04   3.5830023e-04   4.1694622e-04   7.2098419e-04   1.2245422e-03   1.3073597e-03   7.5581012e-04   1.2949947e-03   9.6421363e-04   8.4387732e-04   6.8084773e-04   1.0446839e-03   6.7405542e-04   6.3909910e-04   1.0562937e-03   7.0390647e-04   6.8979000e-04   6.8617647e-04  -2.2775728e-04   4.1310769e-04  -8.3576393e-05   1.5640381e-04   5.5978663e-04   7.9266221e-04   2.2768789e-04   1.3752605e-03   9.5434301e-04   8.2394807e-04   2.3823859e-04   1.5921275e-04   2.6266181e-04   6.7893497e-04   5.7617208e-04   4.1072330e-04   2.2647365e-04   2.8864507e-04   2.8756907e-04   5.4345006e-04   1.1185781e-03   1.0033804e-03   1.8577573e-03   9.9129742e-04   1.6530885e-03   1.2238725e-03   2.1058633e-03
   1.4243379e-03   9.7549421e-04   1.7013674e-03   1.7494865e-03   1.3331268e-03   7.6498033e-04   7.6045591e-04   7.1955629e-04   1.0004108e-03   1.6053701e-03   1.6176064e-03   1.2401302e-03   1.6979874e-03   1.2746376e-03   1.1772315e-03   9.4160374e-04   1.2618530e-03   8.4302941e-04   1.2300304e-03   1.3665637e-03   1.0844497e-03   1.1793354e-03   1.3546083e-03   8.3063904e-04   1.5079944e-03   5.7970209e-04   3.4002817e-04   7.2473806e-04   8.1104855e-04   5.1357638e-04   1.3870674e-03   1.1327495e-03   9.2633313e-04   6.4650632e-04   4.4908430e-04   5.8837293e-04   9.1181888e-04   7.0242374e-04   6.3910929e-04   4.4193308e-04   3.2577506e-04   4.3242265e-04   5.0532346e-04  -1.2528375e-04   1.2558112e-03   2.0445818e-03   1.0744428e-03   1.7815054e-03   1.4988844e-03   2.3322473e-03
   1.1864247e-03   7.6342572e-04   1.5826897e-03   1.6234751e-03   1.0892899e-03   6.3647516e-04   7.0021529e-04   5.9827301e-04   8.2674169e-04   1.4229895e-03   1.3367181e-03   9.9277368e-04   1.3519325e-03   1.0795614e-03   9.0096518e-04   7.7022589e-04   1.0454669e-03   7.1204588e-04   9.7515766e-04   1.1318936e-03   9.1363082e-04   1.0432551e-03   7.2682125e-04   9.7254151e-04   1.1838974e-03   2.0128205e-04   3.2182812e-04   5.2716199e-04   9.0080703e-04   4.0746600e-04   1.2320130e-03   1.2488207e-03   9.0272503e-04   5.2468793e-04   2.5881742e-04   3.1417920e-04   7.4905599e-04   5.3399894e-04   5.0012377e-04   8.0331876e-05   1.0357581e-04   3.0727603e-04   4.3035540e-04   5.7146529e-04   1.1368931e-04   1.7120017e-03   7.1848708e-04   9.7577315e-04   7.0345931e-04   1.9010687e-03
   8.8902097e-04   2.2487108e-04   1.1707540e-03   1.1877618e-03   8.2744280e-04   3.3311837e-04   3.6867231e-04   3.1839887e-04   7.0772233e-04   1.3522207e-03   1.2388368e-03   8.8868453e-04   1.3819267e-03   1.0623077e-03   1.0916274e-03   7.9469947e-04   1.0419074e-03   7.5559708e-04   8.7327737e-04   1.2661193e-03   1.1391004e-03   1.2313509e-03   1.0517681e-03   1.2162327e-03   1.1663969e-03   4.5680525e-04   3.8357388e-04   6.5005320e-04   8.8845968e-04   5.9507746e-04   1.6402944e-03   1.4936966e-03   1.0971635e-03   8.4177667e-04   6.7481690e-04   6.6230446e-04   1.0436318e-03   7.4452540e-04   7.8838895e-04   8.6561532e-04   6.1521918e-04   7.3207170e-04   5.0455739e-04   1.3067261e-03   7.7824231e-04   2.4248057e-03   1.0058284e-03   1.5121803e-03   9.0592128e-04   2.3978988e-03
   1.3886523e-03   7.2302413e-04   1.4797574e-03   1.6259799e-03   1.1808861e-03   7.0209999e-04   6.1708322e-04   6.1303662e-04   9.5504551e-04   1.5164301e-03   1.4138771e-03   1.0301321e-03   1.4643363e-03   1.1164485e-03   1.1509596e-03   8.2718843e-04   1.0197463e-03   7.4485200e-04   1.2933942e-03   1.2262022e-03   1.0321330e-03   1.1280295e-03   1.0466487e-03   2.6615159e-04   1.0909053e-03   2.8165788e-04   3.3263280e-04   6.3185871e-04   8.1061723e-04   5.7310564e-04   1.4166579e-03   1.2690356e-03   9.7558700e-04   7.0307293e-04   4.9103500e-04   4.3825817e-04   9.8464254e-04   6.3545880e-04   6.4774306e-04   5.1671988e-04   3.5608740e-04   5.4678740e-04   7.6911499e-04   7.5073208e-04   5.0570845e-04   2.0301726e-03   8.5656659e-04   1.1169397e-03   7.8273105e-04   1.9689093e-03
   1.0125868e-03   4.3157197e-04   1.2948707e-03   1.3272827e-03   8.4820931e-04   3.5031981e-04   4.9380673e-04   3.7907361e-04   5.2364095e-04   1.2928660e-03   1.0507165e-03   6.1966653e-04   1.1311929e-03   8.7013643e-04   7.1137946e-04   6.4229209e-04   8.1912999e-04   5.3263200e-04   7.6777179e-04   9.4253867e-04   5.5872678e-04   6.1873981e-04   5.0773617e-04   5.3539185e-04   2.1270843e-04  -1.4926177e-04   1.4632348e-04   3.5801149e-04   5.7382265e-04   2.4488327e-04   8.3149533e-04   5.8154587e-04   8.5477490e-04   2.9900929e-04   5.6512836e-05   1.2256276e-04   6.6059118e-04   3.7738573e-04   4.4800577e-04   1.4156828e-04   4.7239690e-04   5.3907849e-04   8.7442418e-04  -5.1021186e-04   7.3775975e-04   1.5826109e-03   9.2469400e-04   1.0314774e-03   1.0877431e-03   1.3706121e-03
   1.1087171e-03   7.5062196e-04   1.4108800e-03   1.4045902e-03   1.1271543e-03   8.5709459e-04   8.2813157e-04   6.1265141e-04   1.1690952e-03   1.9237573e-03   1.4466033e-03   1.1313533e-03   1.3184821e-03   1.0434637e-03   9.6528197e-04   8.2549040e-04   9.7863341e-04   6.4399221e-04   5.8674184e-04   1.3187513e-03   9.5311843e-04   6.7650282e-04   1.0778049e-03   1.4568680e-03   8.9654926e-04   3.7003017e-04   2.5800770e-04   5.2462274e-04   8.4643031e-04   5.1294727e-04   1.0955355e-03   9.5387455e-04   5.9380406e-04   6.4719468e-04   3.8342760e-04   4.4928549e-04   9.7814237e-04   5.4859958e-04   6.7631813e-04   3.4737273e-04   5.6470855e-04   5.1649939e-04   1.0022046e-03   3.3217680e-04   1.3566970e-04   1.4113411e-03   9.9353923e-04   1.4241951e-03   8.7699172e-04   1.6829340e-03
   1.0752121e-03   5.9621455e-04   1.4030088e-03   1.2202868e-03   9.0410089e-04   7.0773246e-04   5.9001084e-04   4.8565833e-04   6.5905933e-04   1.4730647e-03   1.2163123e-03   1.0125823e-03   1.4014652e-03   1.0696729e-03   8.5891114e-04   7.8189804e-04   1.0499998e-03   5.7567027e-04   1.2105133e-03   1.1708930e-03   6.6694443e-04   3.8931749e-04   6.0038053e-04   1.2458493e-04   9.2615047e-04   1.4958355e-04   1.8774925e-04   5.6514604e-04   8.2124543e-04   4.8061291e-04   8.4779429e-04   9.9359208e-04   4.5562067e-04   1.6622730e-04   1.1856002e-04   4.1815836e-04   9.6790458e-04   4.9102539e-04   5.3987146e-04  -1.5857593e-04   2.6192606e-04   5.2644138e-04   4.9465447e-04  -4.0704108e-05  -4.1502386e-05   1.3775865e-03   9.0443844e-04   1.4333635e-03   8.7830046e-04   1.4405473e-03
   6.8990659e-04   4.8185193e-05   9.2203665e-04   7.2694005e-04   4.2173822e-04   1.3356352e-04   2.0328876e-04   4.5552290e-05   5.3171947e-04   1.2629809e-03   1.0196349e-03   6.8567903e-04   1.5024917e-03   1.1160920e-03   8.7609550e-04   8.2224287e-04   1.0992718e-03   4.3918347e-04   8.8851142e-04   1.3034586e-03   8.4895582e-04   5.6837744e-04   1.0937892e-03   2.0589486e-03   5.0920103e-04   4.3226639e-04   1.3821216e-04   7.5110490e-04   9.6348207e-04   6.4869941e-04   9.4739598e-04   1.2187839e-03   7.7762501e-04   2.5921414e-04   3.4032055e-04   6.1033759e-04   1.3053645e-03   7.1169419e-04   7.9898612e-04   2.5185218e-04   7.1418408e-04   8.9894701e-04   7.8669499e-04   1.1693793e-03   7.2976068e-04   1.6514886e-03   1.2119099e-03   1.4978853e-03   1.3205685e-03   1.8999689e-03
   6.6299690e-04   4.9562781e-04   1.0871672e-03   1.0993599e-03   6.9225044e-04   5.2300224e-04   5.0851121e-04   4.5496697e-04   7.6538557e-04   1.4087536e-03   1.2257844e-03   8.2662905e-04   1.8017587e-03   1.3353231e-03   9.6244452e-04   9.0663013e-04   1.0958081e-03   4.1198576e-04   2.7879636e-04   1.2173217e-03   8.3010318e-04   3.8444268e-04   5.5345031e-04   1.0817867e-03   2.0814603e-04   1.0597236e-04   2.6976146e-05   7.0896401e-04   9.9595566e-04   6.4018159e-04   8.0018915e-04   8.1313011e-04   5.0160027e-04   2.3068666e-05   1.8157173e-04   4.0341541e-04   1.2147776e-03   6.4852450e-04   7.7655911e-04   9.5158641e-05   5.3447677e-04   9.2868629e-04   8.6011662e-04   3.8046110e-04   6.2202138e-04   1.6622436e-03   1.1022417e-03   1.3694189e-03   1.1410582e-03   1.8918185e-03
   6.1153586e-04   2.0330858e-04   9.0606418e-04   7.8656455e-04   4.7954707e-04   1.6325504e-04   2.4376278e-04   2.3110727e-04   3.7358093e-04   1.1189110e-03   9.3555078e-04   4.9715029e-04   1.5330811e-03   1.1142890e-03   9.6821156e-04   6.8028289e-04   9.2719728e-04   3.1246076e-04   9.2152850e-04   8.9178962e-04   4.2750736e-04   2.0416889e-04   1.3715714e-04   6.3139549e-04   3.8117600e-05  -5.5605127e-04  -3.3067347e-05   6.2394666e-04   9.4043987e-04   4.3193344e-04   4.8997713e-04   6.5157696e-04   1.6969765e-04  -3.7616908e-04  -1.2076587e-04   1.0117310e-04   9.1532950e-04   4.9641042e-04   5.4386834e-04  -4.2775454e-04   2.8400149e-04   5.8673677e-04   4.6339800e-04  -4.3921301e-04   4.4939035e-04   1.8235395e-03   1.1077358e-03   1.9189476e-03   1.3897467e-03   1.9391262e-03
   8.0660463e-04   5.4532144e-04   1.0685768e-03   9.9054491e-04   6.3050381e-04   5.3637801e-04   4.8584427e-04   4.7428990e-04   7.7852228e-04   1.4692094e-03   1.2568129e-03   9.6026144e-04   1.7579391e-03   1.2841620e-03   1.0028984e-03   9.3288248e-04   1.0900662e-03   3.9523872e-04   8.6755987e-04   1.2051085e-03   8.2396891e-04   2.8954697e-04   9.8939787e-04   9.2398311e-04   1.0433885e-03  -7.7348217e-05   1.4903498e-05   7.5376179e-04   8.5918198e-04   6.5352954e-04   5.4109085e-04   9.8223484e-04   5.4434827e-04  -5.7050133e-06   2.1724885e-04   2.6553235e-04   1.2192534e-03   6.6428882e-04   7.5148547e-04   8.0935555e-05   5.6857208e-04   9.4063749e-04   5.5034854e-04   5.0078344e-04   6.4977619e-04   1.4651999e-03   1.1539874e-03   1.8749231e-03   1.4471639e-03   1.7683146e-03
   6.8235281e-04   3.5514805e-04   7.9384475e-04   8.3411316e-04   5.3763238e-04   3.9949670e-04   2.0556019e-04   3.4751548e-04   6.4723578e-04   1.2336273e-03   1.1092128e-03   7.8113534e-04   1.7977037e-03   1.2120337e-03   8.4093044e-04   8.2420080e-04   1.1287984e-03   3.6694537e-04   5.4805307e-04   1.0512300e-03   5.9023075e-04   2.0274539e-04   3.8299782e-04  -7.0983391e-05   2.0863175e-04  -2.1212638e-04  -9.9668541e-05   6.5006030e-04   9.0663059e-04   5.6914886e-04   5.4541015e-04   8.2170049e-04   6.9023605e-05  -2.1227710e-04  -8.0785678e-05   2.6979158e-04   1.1178672e-03   5.9458707e-04   6.8230025e-04  -4.3838908e-04   2.8286906e-04   7.9905317e-04   7.3420373e-04  -3.8971950e-04   3.3698691e-04   1.2725353e-03   9.6182956e-04   1.0966397e-03   1.1236498e-03   1.6962447e-03
   3.3237366e-04  -7.8848054e-05   5.1460759e-04   4.5471458e-04   1.1740498e-04  -1.1585543e-04  -1.6748229e-04  -9.1258764e-05   3.2266640e-04   8.3990896e-04   7.5251685e-04   3.8155488e-04   1.5691892e-03   9.6409564e-04   7.0768310e-04   7.2752853e-04   1.1029945e-03   3.2280368e-04   1.1312146e-03   1.0272614e-03   5.9844879e-04   4.6985893e-04   8.7067182e-04   5.5636006e-04   9.2972530e-04  -5.8855985e-05   3.2599222e-05   7.2069868e-04   9.4030687e-04   6.8809121e-04   9.5468987e-04   1.0544629e-03   4.7068074e-04   3.8835457e-05   3.2150658e-04   5.8185135e-04   1.2982113e-03   7.5553940e-04   8.4594090e-04   4.7440804e-05   6.9063541e-04   1.1300410e-03   8.9591357e-04   1.8600487e-04   6.8275107e-04   1.6533473e-03   1.3277435e-03   1.7420469e-03   1.6564215e-03   2.1160746e-03
   6.2833366e-04   4.1935954e-04   7.9999043e-04   8.8050438e-04   4.5025203e-04   2.8700259e-04   1.9947509e-04   2.7522215e-04   5.7917286e-04   1.2069300e-03   1.1248826e-03   8.6021412e-04   1.9573919e-03   1.2621430e-03   8.4313564e-04   9.1879471e-04   1.3107457e-03   4.8550279e-04   8.8881305e-04   1.1410065e-03   6.1612210e-04   3.9414552e-04   6.2196958e-04   7.0404221e-04   7.7775505e-04  -1.1389009e-04  -5.4483691e-05   7.3082844e-04   8.1991538e-04   6.7527028e-04   9.3988591e-04   1.0746978e-03   5.5082800e-04  -5.7235193e-05   1.7256300e-04   3.9191512e-04   1.2594583e-03   7.0734724e-04   8.1196590e-04   1.3215114e-04   4.5426530e-04   9.6968381e-04   8.3291391e-04  -2.0961085e-04   4.6135404e-04   1.6023511e-03   1.1817027e-03   1.1025943e-03   1.2361935e-03   1.9239156e-03
   4.1127630e-04   1.3462183e-04   6.8298023e-04   6.2330259e-04   2.1786868e-04   4.8328882e-05   4.4105611e-05   8.0218713e-05   2.8945037e-04   9.2606538e-04   9.1506116e-04   5.7996530e-04   1.7610437e-03   1.1115414e-03   7.0106756e-04   7.6439575e-04   1.1211954e-03   3.1472577e-04   4.2734391e-04   9.3919458e-04   3.8523992e-04   1.7552685e-04  -3.3984630e-05   9.2697912e-05  -2.1320931e-04  -6.2251388e-04  -1.9256990e-04   3.8184051e-04   7.7589910e-04   4.4568133e-04   6.0634332e-04   7.3717663e-04   1.9028693e-04  -4.9236597e-04  -2.0224658e-04  -4.3961125e-05   9.5596345e-04   4.7806447e-04   5.1954371e-04  -4.6164673e-04   1.7013254e-04   7.7683717e-04   3.3886003e-04  -5.1715580e-04   2.6661935e-04   1.0846431e-03   8.9940982e-04   1.2378288e-03   1.2349761e-03   1.8315767e-03
   4.7942484e-04   2.3662332e-04   6.6910102e-04   7.5524073e-04   4.1048141e-04   3.4173709e-04   2.3385385e-04   2.5649945e-04   6.7079702e-04   1.2076795e-03   1.1027680e-03   8.7223307e-04   1.8668683e-03   1.1782142e-03   7.5548026e-04   7.8681187e-04   1.1496276e-03   4.2443740e-04  -1.0686350e-04   1.0432483e-03   8.4401376e-04   3.2285199e-04   4.2818044e-04   3.2977236e-04   7.3236704e-04  -1.3173719e-04  -1.0923848e-04   4.9293792e-04   6.8888679e-04   5.5587746e-04   6.6157122e-04   7.1414886e-04   5.5028388e-04  -1.4867364e-04   1.2592196e-04   3.2819185e-04   1.0542392e-03   4.8347079e-04   6.3307170e-04  -1.7242004e-04   2.9295922e-04   6.1794184e-04   5.8069819e-04  -8.1666844e-04   3.8326936e-04   1.3507529e-03   7.4089802e-04   1.0414274e-03   1.2954031e-03   1.8006811e-03
   3.8389766e-04  -9.9350604e-05   4.6149787e-04   5.3943502e-04   2.9766423e-04  -6.8502333e-05  -2.0204783e-04  -3.4618406e-05   3.8816957e-04   1.2155112e-03   8.8539964e-04   1.2652563e-04   1.1500638e-03   8.6889276e-04   4.9555785e-04   4.0940396e-04   5.1963382e-04   1.1854550e-04   2.5272585e-04   7.6791883e-04   7.7304442e-04  -1.3134471e-04   2.9748253e-04  -8.5809926e-04   1.5886402e-04  -7.2360982e-04  -2.7385357e-04   2.4982935e-04   2.4502620e-04   1.6314902e-04   2.7458643e-04   2.7519054e-04   3.3602456e-04  -5.7984539e-04  -3.1670308e-04  -2.0204041e-04   6.3101243e-04   2.2353732e-04   2.3412253e-04  -8.0814358e-04   4.3223452e-05   2.2651743e-04  -2.7930415e-05  -4.4688152e-04  -8.5906586e-06   1.4950153e-03   2.3531755e-04   7.9316983e-04   8.5131422e-04   1.7895953e-03
  -1.1300811e-04  -6.4740347e-04   2.0398859e-04  -1.6827589e-05  -1.7370586e-04  -5.8973680e-04  -6.4929930e-04  -3.9950246e-04  -3.3044050e-04   6.3752237e-04   3.6671094e-04  -2.7845276e-04   8.6569338e-04   5.6510797e-04   2.4085533e-04   1.1649908e-04   4.0405680e-04  -1.4917947e-04  -5.4417585e-04   2.6745419e-04   4.2438888e-04  -2.0565087e-04  -4.6245928e-04  -1.1690429e-03  -1.7323627e-04  -1.1686124e-03  -5.8128376e-04  -5.7322362e-05   5.7101792e-05  -1.5392943e-05   2.6269560e-04   2.5519569e-04   7.3652773e-05  -7.9137529e-04  -3.3845764e-04  -1.7034812e-04   5.5926532e-04   1.6498529e-04   2.2977556e-04  -5.4099970e-04   2.1891456e-04   6.6797587e-04   1.3333088e-04   1.6053775e-04   4.3743860e-04   1.4999784e-03   4.6905200e-04   6.6589389e-04   9.8658761e-04   2.0555984e-03
  -4.0251583e-05  -1.2813225e-04   2.3228041e-04   3.8403057e-04   1.2985656e-04  -6.1421335e-05  -2.4286298e-04  -5.5852954e-05   3.4700433e-04   1.1165297e-03   6.9990515e-04   2.1965525e-04   1.1393847e-03   7.4784557e-04   3.2235865e-04   3.2006187e-04   3.9865181e-04  -5.1420117e-05  -2.9149832e-04   5.4305716e-04   5.9052132e-04  -5.4569839e-05   6.2374267e-05   2.0060859e-05  -5.8873516e-04  -6.3924299e-04  -4.4344590e-04   1.5495352e-04   2.4316047e-04   1.5330009e-04   1.8179501e-04   2.9934253e-04   2.0610372e-04  -6.5328437e-04  -3.0274858e-04  -2.4784693e-05   6.1228941e-04   1.2689785e-04   2.4549174e-04  -6.3903426e-04   8.4530038e-05   4.1633102e-04   3.3250544e-04  -2.3454126e-04   5.1585917e-05   1.4787628e-03   4.0204724e-04   9.8711066e-04   4.8341381e-04   1.7018461e-03
  -1.3400274e-05  -5.0879392e-04   2.9383932e-04   8.6827829e-05  -1.7268145e-04  -4.3550477e-04  -4.8113210e-04  -3.6193611e-04  -1.3482360e-04   9.0243953e-04   4.3834024e-04  -4.9058082e-05   1.0087594e-03   5.4622866e-04   9.8184602e-05   1.9608760e-04   2.8770705e-04  -1.6918119e-04  -2.2740535e-04   3.6221300e-04   2.9138476e-04  -2.9295389e-04  -3.5589421e-04  -6.3537952e-04  -5.7886081e-04  -9.0422231e-04  -4.4311804e-04  -9.1132697e-06   1.5402505e-04  -8.0795353e-06   6.4777312e-05   5.0003635e-04  -2.3501716e-05  -9.0861338e-04  -5.4330338e-04  -3.4437366e-04   4.5879590e-04  -3.4853856e-05   4.0415551e-05  -1.1370793e-03  -1.0803975e-04   4.0628522e-04   1.4242480e-04  -1.5111864e-03  -3.5345467e-04   8.4549759e-04   1.7260833e-04   2.0399448e-04   3.9370885e-04   1.2951463e-03
  -4.4676114e-04  -1.0529783e-03  -1.5712762e-04  -5.9107231e-04  -5.0513208e-04  -9.3155436e-04  -9.3341328e-04  -7.8242266e-04  -4.4028924e-04   7.5235328e-04   2.1444944e-04  -2.3966881e-04   8.7093195e-04   3.8823005e-04  -2.5894640e-05   1.2479705e-04   2.2154978e-04  -1.9927984e-04   2.9573502e-04   4.7651283e-04   5.0616416e-04  -3.9401889e-04  -1.7974152e-04  -2.2426476e-04  -8.3440944e-05  -6.1237917e-04  -4.0571066e-04   4.4831606e-05   1.0880446e-04   8.7335131e-05   6.1841289e-05   3.7048256e-04   4.6996131e-05  -6.9322280e-04  -3.4141209e-04  -7.5851876e-06   5.6868669e-04  -5.5632860e-05   9.4804222e-05  -6.3128280e-04   1.4601961e-04   3.7925498e-04  -9.4612515e-06  -9.6845621e-04  -4.4092929e-05   9.1954379e-04   2.1303538e-04   5.5301382e-04   4.2510650e-04   1.1989418e-03
  -3.3249409e-04  -8.4919919e-04   9.0512869e-05  -3.6667782e-04  -3.9515653e-04  -7.0561719e-04  -6.6826068e-04  -5.5999582e-04  -3.1778601e-04   1.2394914e-03   3.0689381e-04  -5.2176882e-04   4.8075742e-04   2.3562252e-04  -1.8465020e-04  -1.1787926e-04  -1.5551105e-04  -3.1585706e-04  -6.0304720e-04   3.0736250e-04   2.8494044e-04  -7.3790061e-04  -8.4854744e-04  -1.4104154e-03  -9.4978837e-04  -1.1721825e-03  -5.2262488e-04  -1.9473988e-05  -1.2622084e-04  -2.2526983e-04  -3.5400802e-04  -1.1312143e-04  -5.0971808e-04  -1.0700716e-03  -6.7618157e-04  -4.1351363e-04   2.6402774e-04  -3.4213904e-04  -1.7974072e-04  -1.1723039e-03  -2.1434572e-04   3.4991750e-05  -1.8699706e-04  -8.9191139e-04  -4.7868647e-04   4.2950356e-04  -3.4596477e-04  -2.0224015e-04   5.3186410e-05   9.6486736e-04
  -5.4462289e-04  -1.1438007e-03  -3.3853928e-04  -5.4645474e-04  -5.2314327e-04  -8.8861934e-04  -9.2003832e-04  -7.3497981e-04  -6.1329606e-04   6.6474639e-04  -9.0492489e-05  -7.3799194e-04   1.8355231e-04   1.6277649e-05  -2.6864570e-04  -2.5371622e-04  -1.9023202e-04  -5.0437124e-04  -9.0802723e-04  -2.1722990e-04  -3.7471420e-04  -8.5092266e-04  -1.4749059e-03  -2.1886376e-03  -7.2054478e-04  -1.5023454e-03  -7.6472183e-04  -1.1741035e-04  -1.8577886e-04  -3.4981396e-04  -4.3176097e-04  -8.7980799e-05  -7.1012776e-04  -1.3537561e-03  -8.5385365e-04  -4.9699174e-04   1.8282797e-05  -4.2979699e-04  -3.6724075e-04  -1.5084740e-03  -3.1566410e-04  -9.6671429e-05  -4.9142429e-04  -1.3005922e-03  -4.3041239e-04   6.7346875e-04  -2.7048733e-04   1.3210661e-04   6.5276028e-05   1.2995555e-03
  -3.5047185e-04  -5.9869612e-04   1.3219181e-06  -4.3177544e-05  -9.5051299e-05  -2.3333274e-04  -4.2223313e-04  -4.0877829e-04  -1.3106153e-04   8.1337034e-04   1.6293276e-04  -1.8679915e-04   4.3834394e-04   2.2040025e-04  -2.6614565e-04  -7.7448873e-05  -1.6184498e-04  -3.4854506e-04  -9.1106776e-05  -6.3059575e-05  -3.4695426e-05  -3.5371614e-04  -4.9135135e-04  -8.9693198e-04  -2.4174426e-04  -4.9499795e-04  -5.3526578e-04   2.6172036e-05   6.1042447e-05  -7.6276017e-05  -5.8112179e-05   2.9088676e-05  -3.8557261e-04  -8.6401176e-04  -4.6317495e-04  -2.6484200e-04   2.2808231e-04  -1.6283442e-04  -1.5208269e-04  -9.5522910e-04  -9.3686096e-05   2.1734694e-04  -1.8458870e-05  -8.1769860e-04   1.0948470e-04   1.1278458e-03  -2.0124017e-04   1.2196077e-04   1.4498492e-04   1.7755365e-03
  -6.7907857e-04  -8.2436175e-04  -2.8442559e-04  -1.6529472e-04  -2.6131902e-04  -5.4945442e-04  -5.4602651e-04  -5.2874855e-04  -3.6986003e-04   3.7655854e-04  -1.1107160e-04  -3.7159695e-04   2.8858840e-04   1.0706053e-04  -3.3241650e-04  -1.5908478e-04  -2.7351335e-04  -3.3738679e-04  -8.6038504e-05  -3.3482470e-04  -2.6682430e-04  -3.7078722e-04  -5.1529345e-04  -1.2869163e-03  -6.7318033e-04  -9.6189731e-04  -4.8726620e-04  -2.9408537e-05   1.2088474e-05  -1.5049435e-04  -1.0188112e-04   7.2127565e-05  -3.7550792e-04  -9.8077417e-04  -6.3076243e-04  -3.4119500e-04   1.7669027e-04  -2.3593308e-04  -1.9322251e-04  -1.1993438e-03  -2.0130980e-04   3.7943094e-06  -3.1640293e-04  -9.0832752e-04  -2.7505364e-04   1.0709121e-03  -4.6990014e-04  -1.2249349e-05  -1.5569791e-04   1.4890437e-03
  -9.3515922e-04  -1.2875744e-03  -3.6000879e-04  -5.9121137e-04  -5.5169873e-04  -1.0591617e-03  -1.0429248e-03  -8.2900177e-04  -8.9507375e-04   1.6325492e-04  -4.8654861e-04  -8.3764008e-04  -2.0764001e-04  -2.7420916e-04  -5.8308267e-04  -3.0443398e-04  -5.9544499e-04  -4.8133804e-04  -5.6016294e-04  -2.9021286e-04  -4.5263507e-05  -5.1073806e-04  -2.4980091e-04  -4.2452617e-04   9.5365249e-05  -5.3836452e-04  -4.7938293e-04  -1.5588917e-04  -1.6313484e-04  -8.6022505e-05  -2.5048171e-04   3.7820011e-04  -1.3481853e-04  -6.8806100e-04  -2.7476563e-04  -8.8252891e-05   3.1279729e-04  -1.8812054e-04  -8.4033869e-05  -7.5039500e-04   1.2807750e-04   2.2174533e-04   2.7422787e-04  -7.9835363e-04   1.0060726e-05   1.2029816e-03  -2.9258747e-04   7.8903273e-04  -2.5167992e-05   1.8585256e-03
  -3.5753066e-04  -7.4368925e-04  -2.0397718e-04  -1.4568602e-04  -2.3797470e-04  -4.7660695e-04  -5.2073452e-04  -4.3799836e-04  -3.3213312e-04   5.1892694e-04  -1.7640555e-04  -3.6177548e-04  -4.4780038e-05  -8.8108165e-05  -5.3965196e-04  -1.9566419e-04  -5.3830579e-04  -3.8997686e-04   6.1015180e-05  -2.8465598e-04  -8.2791230e-05  -4.7138945e-04  -2.6540665e-04  -9.3031401e-04  -4.4951230e-04  -5.4678682e-04  -6.0161919e-04  -2.2204508e-04  -9.9947320e-05  -1.2280844e-04  -2.8415766e-04   1.1994613e-05   1.2330143e-04  -7.5177784e-04  -4.9792929e-04  -1.4784014e-04   2.6401927e-04  -2.5306328e-04  -1.5762368e-04  -8.2553329e-04  -8.4401181e-05   2.6195121e-04   1.0864161e-04  -3.2739357e-05   1.9356150e-04   8.3640771e-04  -2.7330828e-04   3.1593404e-04  -1.2409360e-04   1.4754732e-03
  -4.5227376e-04  -9.7420433e-04  -2.6724319e-04  -3.1634819e-04  -2.7336486e-04  -7.4302440e-04  -6.7590317e-04  -6.4451527e-04  -6.1848195e-04   3.7428315e-04  -3.1572016e-04  -6.1827211e-04  -2.6119372e-04  -2.4325465e-04  -6.1118213e-04  -3.2224006e-04  -6.0363417e-04  -4.1559094e-04  -1.6809783e-04  -4.2865786e-04  -2.9027203e-04  -6.0264271e-04  -8.3017687e-04  -1.7325607e-03  -7.8235049e-04  -1.0097150e-03  -7.1815948e-04  -3.6919094e-04  -6.7248176e-05  -2.9251003e-04  -4.4443665e-04  -1.2127175e-04  -3.3410641e-04  -1.0306231e-03  -7.4364053e-04  -6.1796990e-04   1.2124366e-05  -3.4820550e-04  -2.8453884e-04  -1.1361418e-03  -4.3020814e-06   2.4984305e-04  -3.1644074e-04  -7.4658764e-04  -5.7953112e-05   6.0409249e-04  -5.0653955e-05   5.7152414e-04  -2.6068400e-04   1.6612649e-03
  -1.8536978e-04  -4.0683261e-04   1.1038870e-04   1.1110329e-04   1.1905160e-04  -1.8525268e-04  -2.2007598e-04  -2.3884382e-04   7.5318523e-05   8.5950922e-04   5.9949332e-05   1.9877343e-04   7.0533206e-05  -7.2850540e-05  -4.1072365e-04   4.1812746e-05  -2.9352817e-04  -1.3641591e-04   2.9990933e-04  -2.8547251e-05   7.4353105e-05  -1.2254890e-04   4.0728246e-05  -4.8848124e-05  -8.4253278e-04  -9.0650428e-05  -3.8284331e-04  -2.0280518e-04   3.2623113e-05   5.8804264e-05  -1.2328966e-04   1.7248208e-04  -9.5602511e-05  -5.1464065e-04  -1.4379807e-04   5.7783036e-05   4.1418456e-04  -5.9640228e-05  -2.2055490e-05  -5.8319612e-04   1.6399422e-04   5.9568294e-04   2.9110408e-04  -1.1219741e-04   2.5728741e-04   8.0857280e-04   4.3302083e-05   6.2977092e-04  -1.7073781e-04   1.2579431e-03
  -2.7129962e-04  -5.5983383e-04  -7.0213209e-05   3.2716031e-05  -5.9163312e-06  -2.9704705e-04  -2.9484037e-04  -3.6072978e-04   1.7584762e-05   7.7181653e-04  -8.3692175e-06  -5.2613334e-05  -6.0656293e-05  -1.4682306e-04  -3.8889816e-04  -4.7280046e-05  -3.8826565e-04  -1.4271073e-04   8.4763000e-05  -3.8672817e-05   4.7641632e-05  -3.5741314e-04  -4.6957418e-04  -1.0919218e-04  -5.1463669e-04  -4.9997936e-04  -4.8552584e-04  -2.2273749e-04   8.8383218e-05   7.2650078e-06  -9.5763688e-05   8.6680389e-05  -3.6757279e-05  -5.8622955e-04  -4.0717141e-04  -1.1572123e-04   3.3506966e-04  -5.3349871e-05  -6.5421671e-05  -8.5985020e-04  -1.4812875e-04   1.7016528e-04   3.9539265e-04  -4.9211626e-04   1.6784061e-04   6.6990365e-04  -1.3603621e-04   8.1629999e-04  -6.8768545e-06   1.3146352e-03
  -2.9165435e-04  -7.8517722e-04  -8.7446106e-06   8.2472752e-07   6.3211730e-05  -3.8263825e-04  -3.6356697e-04  -2.9583895e-04  -6.3450185e-05   9.0601115e-04   1.1412867e-04   2.1616092e-04   1.2525669e-04  -7.0838920e-05  -4.7365643e-04   1.3923300e-04  -2.7011559e-04  -7.8378849e-05   5.6468940e-04   2.1542174e-04   6.1182724e-04  -4.8755730e-05   5.3089915e-04   9.2275470e-05   2.7420677e-04   1.2219499e-04  -3.0001148e-04  -2.9497579e-04  -1.2260032e-04   1.3816882e-04  -1.1132258e-04   3.0006905e-04   3.3597232e-04  -1.8660154e-04  -3.7125403e-05   2.2992060e-04   5.3210562e-04   3.6593876e-06   1.0170667e-04  -3.9190700e-04   3.8443238e-04   5.3211732e-04   8.2382082e-04  -6.0170866e-04   1.0620685e-04   8.8989048e-04   2.1588178e-04   1.2323777e-03   3.0357283e-04   1.3206330e-03
  -2.6628521e-05  -3.2873143e-04   5.0169934e-04   3.3121402e-04   2.6159454e-04  -3.7546921e-05  -1.1933946e-06   5.0317449e-06   3.4880824e-04   1.2603104e-03   3.7485649e-04   2.0748598e-04   8.6637017e-05  -1.1585002e-04  -2.9421781e-04   1.3767541e-04  -3.3297460e-04  -4.2036914e-05   5.7147216e-04   4.1466305e-04   6.4134639e-04  -2.2511618e-04   2.1667757e-04  -6.4361555e-04   1.2810329e-04  -2.8429544e-04  -3.0443721e-04  -2.8874594e-04  -5.1195202e-05   8.1516548e-05  -1.5504401e-04   4.1091754e-04   2.3900247e-04  -3.5461877e-04  -1.7877480e-04  -1.4215511e-04   4.9665273e-04  -6.2599356e-05  -2.0523004e-05  -4.9920409e-04  -2.0417698e-05   3.3600040e-04   2.1080517e-04  -6.0149992e-04   2.2504253e-04   6.1775721e-04   1.2903508e-04   9.5554156e-04   1.2370317e-04   7.9583190e-04
  -1.7277976e-04  -6.1972096e-04   2.4648625e-04   1.0331786e-04   1.7234476e-04  -3.6880208e-04  -3.3338321e-04  -1.4915389e-04  -2.1036265e-05   9.5445797e-04   2.5357609e-04  -1.4324221e-04   4.0357216e-05  -2.1970872e-04  -2.8712087e-04  -1.6161533e-05  -3.4619126e-04  -1.9849437e-04  -1.2349874e-04   1.3332827e-04   1.7524562e-04  -3.4953331e-04  -2.0776014e-04  -3.8450217e-04   1.4700476e-04  -4.0085314e-04  -4.0224299e-04  -2.2739961e-04  -2.5516149e-05   4.5634977e-05   6.5147924e-06   3.8049021e-04   3.1615355e-06  -2.2448745e-04   1.5798181e-04   3.5437912e-04   6.5721106e-04   1.2839599e-04   1.2386654e-04  -4.3554595e-05   3.8387923e-04   6.6873577e-04   7.4356922e-04   2.8612083e-04   3.0423322e-04   9.4506284e-04   6.6546915e-04   6.2643108e-04   4.2041790e-04   1.1164950e-03
   1.9395105e-04   1.4824836e-04   8.1387104e-04   6.7492528e-04   5.3598022e-04   1.7697157e-04   1.3695005e-04   2.4366647e-04   6.4664887e-04   1.4508993e-03   7.7666104e-04   5.0374342e-04   5.2972150e-04   4.4700028e-05  -1.2803476e-04   3.6100316e-04   8.5009473e-05   1.0849370e-04   6.5555860e-04   6.7882682e-04   7.0084340e-04   3.8162689e-06   6.6052406e-04   7.3052384e-04   5.0086196e-04   3.4314502e-04  -2.1892365e-04  -3.2246596e-04   4.3222724e-05   3.0255981e-04   2.5756098e-04   3.3412740e-04   5.4175477e-04   1.7665479e-06   2.3412544e-04   2.8321313e-04   7.1053155e-04   2.0824219e-04   2.8224612e-04  -1.1172853e-04   3.7924078e-04   5.8286765e-04   2.7814397e-04   3.2307807e-04   8.7548327e-04   7.9842104e-04   5.3809810e-04   9.4029942e-04   5.4982392e-04   7.5658789e-04
   3.1493936e-04   5.6359590e-06   7.7428622e-04   4.9285975e-04   4.0254250e-04   7.1401708e-05   1.1121230e-05   1.4605206e-04   5.0835707e-04   1.3963004e-03   8.2769286e-04   3.0159502e-04   6.2516623e-04   4.1761235e-05  -1.3507277e-04   4.2321137e-04   1.4408150e-04   1.0933731e-04   5.9127365e-04   6.9385243e-04   6.6682079e-04  -2.6044063e-04   1.3693749e-04  -4.4414093e-04  -1.5107363e-04  -2.6400891e-04  -2.7436711e-04  -2.6632662e-04   8.4380459e-05   2.2249747e-04   8.9575828e-05   4.2263384e-04   2.7880384e-04  -2.4175477e-04  -1.4383077e-04   5.0458922e-05   6.6192792e-04   9.6675671e-05   1.8492882e-04  -5.6224817e-04   1.3630645e-04   3.2980184e-04   2.3953553e-04   5.4814294e-04   2.5180468e-04   8.2076341e-04   4.4711880e-04   8.7456958e-04   6.0483953e-04   8.5175835e-04
   5.0625822e-04   1.8823806e-04   9.2643558e-04   7.2448625e-04   6.2747800e-04   3.3592727e-04   3.0666759e-04   3.6245247e-04   9.5022313e-04   1.7212651e-03   1.1680012e-03   7.0796511e-04   9.2114229e-04   2.7353776e-04   2.0477081e-04   6.2687299e-04   4.2818836e-04   3.3914723e-04   7.8112376e-04   9.7376102e-04   1.0515848e-03   3.1832018e-04   8.6350302e-04   1.2258095e-03   2.7079915e-04   3.6721589e-04  -9.4074123e-05  -1.3880807e-04   1.0874660e-04   5.5063190e-04   6.0100271e-04   8.1103621e-04   6.4374472e-04   1.5737713e-04   3.4381254e-04   6.0503709e-04   9.9973241e-04   4.0004792e-04   5.4052606e-04   2.4950551e-04   5.5147271e-04   8.0172421e-04   9.7299501e-04   5.4217677e-04   6.6327280e-04   1.1978796e-03   7.2481472e-04   1.1113224e-03   1.1900027e-03   1.3569011e-03
   6.4682157e-04   3.3560343e-04   1.0067114e-03   8.8760420e-04   5.5022864e-04   4.5225315e-04   3.4046880e-04   4.3110023e-04   9.8863884e-04   1.5727961e-03   1.2050821e-03   6.3870777e-04   1.0036604e-03   3.7184195e-04   2.5598350e-04   7.0260273e-04   4.8432092e-04   2.8951865e-04   1.3023036e-03   8.5839885e-04   8.3186029e-04   2.5250547e-04   9.9907536e-04   7.7599607e-04   6.1310938e-04   1.7558402e-04  -6.2118103e-05   5.6863337e-06   2.8845033e-04   5.4918486e-04   3.9361327e-04   6.7007757e-04   3.8368173e-04   3.1051128e-05   3.6383007e-04   3.8940704e-04   1.0084038e-03   4.5266195e-04   5.5265700e-04   8.8346045e-05   3.7268904e-04   6.9299334e-04   5.6772615e-04   1.6781221e-04   7.3626946e-04   1.1837719e-03   5.8253296e-04   1.1623034e-03   4.9406860e-04   1.2804866e-03
   5.0321803e-04   5.6157674e-05   6.4931257e-04   6.2200334e-04   4.6769503e-04   1.1865461e-04   1.1867024e-04   2.8366697e-04   4.4955872e-04   1.1286188e-03   8.5941958e-04   3.0665874e-04   7.9960458e-04   2.4045358e-04   1.4144706e-04   5.0241576e-04   2.4582999e-04   2.5665981e-04   3.3738743e-05   5.9972808e-04   6.2075298e-04   1.1706241e-04   8.2691864e-04   7.5238000e-04   3.8581589e-04   3.9888834e-04   7.2523850e-05   3.0251825e-04   3.3759073e-04   6.0539821e-04   4.6676712e-04   8.8163465e-04   4.7333789e-04   1.6868040e-04   7.1811175e-04   9.5598341e-04   1.2326192e-03   6.3523173e-04   7.0062582e-04   5.6882761e-04   8.6316047e-04   1.0497853e-03   1.0672996e-03   7.1645004e-04   1.1811525e-03   1.5434935e-03   9.3382661e-04   2.0036122e-03   1.3663595e-03   1.6546978e-03
   8.8104099e-04   7.4547553e-04   1.1765496e-03   1.3313399e-03   1.0396844e-03   7.9342071e-04   7.2980270e-04   7.2391325e-04   1.3187685e-03   1.5658197e-03   1.4360250e-03   9.4121142e-04   1.2635845e-03   6.2823168e-04   5.1088881e-04   8.7608164e-04   5.7207939e-04   4.5120975e-04   1.0196872e-03   8.7394944e-04   9.4892137e-04   5.9326203e-04   1.0041683e-03   8.8630780e-04   1.1081465e-03   6.8270689e-04   2.7490011e-04   4.0928941e-04   5.3633278e-04   8.2687609e-04   8.3696406e-04   1.0679393e-03   6.5902865e-04   3.5654928e-04   7.9371675e-04   8.2030846e-04   1.3036507e-03   7.7265070e-04   8.8369561e-04   4.1323531e-04   7.9986511e-04   1.1101294e-03   1.0366822e-03   4.7063155e-04   1.2668653e-03   1.8052843e-03   9.3164301e-04   1.4257698e-03   1.3177242e-03   1.5572681e-03
   6.0475164e-04   5.1832030e-04   1.0001461e-03   1.1217344e-03   9.3225145e-04   5.4013578e-04   5.7749450e-04   6.6237903e-04   1.1142691e-03   1.2631648e-03   1.2617221e-03   7.3740789e-04   1.1619853e-03   5.7871972e-04   5.2682240e-04   8.3276955e-04   5.0325476e-04   4.9905077e-04   8.4210723e-04   6.4029149e-04   6.8087399e-04   6.7205739e-04   5.6096911e-04   3.1073292e-04   4.0743797e-04   3.1437047e-04   3.5509755e-04   4.1887577e-04   5.5433909e-04   7.1101193e-04   6.3869625e-04   8.2957762e-04   5.2110187e-04   1.9995135e-04   5.4732914e-04   6.3064421e-04   1.1188989e-03   6.7843293e-04   7.5809564e-04   5.7681696e-04   5.0383207e-04   8.2888157e-04   7.1166176e-04   5.7130383e-04   6.0402666e-04   1.3834547e-03   5.8174267e-04   1.2223338e-03   1.2131723e-03   1.4532349e-03
   4.9486296e-04   2.3926819e-04   8.1178971e-04   1.0449374e-03   9.1906765e-04   7.4622274e-04   6.1430089e-04   6.5896160e-04   1.2007387e-03   1.3998483e-03   1.3465938e-03   8.8764192e-04   1.2232977e-03   6.7765452e-04   5.7526585e-04   9.0356322e-04   4.7618482e-04   5.7323091e-04   1.3712968e-03   8.1231049e-04   1.0836548e-03   8.4546366e-04   1.4430662e-03   1.6340942e-03   1.4586293e-03   7.4010837e-04   4.0355130e-04   4.4392949e-04   5.5633602e-04   8.9204585e-04   1.0029661e-03   1.0810053e-03   8.5661683e-04   6.2418851e-04   9.6640456e-04   1.0781757e-03   1.3955144e-03   8.8287517e-04   9.4086246e-04   9.9445367e-04   9.4213436e-04   1.1083696e-03   7.8822707e-04   1.0776952e-03   1.5200713e-03   1.6009575e-03   7.6095638e-04   1.2246097e-03   1.3099473e-03   1.5940582e-03
   1.0945339e-03   7.7869662e-04   1.2643518e-03   1.5096433e-03   1.2648907e-03   7.8463455e-04   7.9334213e-04   9.1971457e-04   1.1822255e-03   1.4224683e-03   1.5042560e-03   1.0156793e-03   1.2538302e-03   6.9037027e-04   6.8908877e-04   9.2174072e-04   4.7960799e-04   5.6670170e-04   1.4682910e-03   6.9381425e-04   9.6484163e-04   1.0319853e-03   1.5899732e-03   4.9680495e-04   1.8376424e-03   7.7299553e-04   4.7313177e-04   5.2927836e-04   6.2379084e-04   8.2931557e-04   7.1260938e-04   1.0649239e-03   1.0304529e-03   5.9584150e-04   9.2566165e-04   8.6212525e-04   1.2692593e-03   7.4547942e-04   8.7068701e-04   6.8285473e-04   7.2291237e-04   8.7627344e-04   6.7124644e-04   7.9861871e-04   9.3650271e-04   1.1681400e-03   5.9343822e-04   1.0762907e-03   7.0543407e-04   1.0527265e-03
   7.2188029e-04   3.9507277e-04   8.9278020e-04   1.0876030e-03   9.8146778e-04   5.3537247e-04   5.4374518e-04   5.9240358e-04   8.9361443e-04   1.3673842e-03   1.1408259e-03   4.2090169e-04   7.2396325e-04   3.1468432e-04   2.4501362e-04   5.8216986e-04   1.0047195e-04   4.1256368e-04   1.1702124e-03   5.1271595e-04   5.0744426e-04   3.0989709e-04   2.0703241e-04   3.0542334e-04   7.0229400e-04   1.8733814e-04   3.6648609e-04   3.2196657e-04   4.5056455e-04   4.4564134e-04   3.4976620e-04   6.2436453e-04   5.9197465e-04   1.9128177e-04   3.2933231e-04   2.8885383e-04   7.5525412e-04   4.0780770e-04   4.6395246e-04   3.1850475e-04   5.2926887e-04   4.9400539e-04   7.1469659e-04   6.3598907e-04   1.0413566e-03   6.9229625e-04   3.9563957e-04   1.3915180e-03   7.8917696e-04   1.0822013e-03
   9.8993303e-04   8.9537125e-04   1.1394499e-03   1.4803737e-03   1.3182824e-03   1.0460581e-03   9.2985632e-04   8.9669344e-04   1.1718218e-03   1.5471890e-03   1.4992319e-03   1.2535705e-03   1.0732682e-03   5.4370513e-04   5.5826316e-04   8.8599714e-04   4.4366356e-04   6.0496142e-04   1.3416184e-03   7.5189245e-04   1.0781917e-03   1.0958754e-03   1.3211222e-03   1.9757694e-03   1.5113459e-03   1.1357110e-03   6.3481729e-04   6.5377983e-04   7.2754285e-04   8.2543126e-04   8.6210354e-04   1.2208809e-03   1.0587204e-03   7.6306204e-04   9.8885363e-04   9.0692355e-04   1.1240651e-03   7.2692818e-04   8.2099176e-04   1.1980026e-03   7.2673574e-04   7.2001485e-04   6.8262691e-04   9.9473912e-04   9.9061115e-04   1.0935578e-03   5.7934597e-04   5.1641278e-04   9.6227293e-04   5.7927787e-04
   1.2525021e-03   7.9582940e-04   1.1084272e-03   1.3453215e-03   1.2716653e-03   9.6569426e-04   1.0053907e-03   7.7744049e-04   1.4401696e-03   1.5224762e-03   1.3908009e-03   9.1689045e-04   7.8786112e-04   2.7829138e-04   3.5203420e-04   6.5524416e-04   1.5914463e-04   4.5714769e-04   1.3554781e-03   5.2820315e-04   7.1971829e-04   5.1872130e-04   1.2984342e-03   5.8901031e-04   6.1022624e-04   6.0796551e-04   6.0249632e-04   5.9229962e-04   6.4797740e-04   6.0335005e-04   6.3605438e-04   7.3228311e-04   9.9994056e-04   4.8198813e-04   6.2812230e-04   7.0870953e-04   8.4247388e-04   5.4887665e-04   6.5081887e-04   6.0834433e-04   3.8521190e-04   6.4843503e-04   3.5850873e-04   6.2345713e-04   7.3488249e-04   6.9876545e-04   1.8418407e-04   6.1703246e-04   7.0860097e-04   3.4879652e-04
   9.8274881e-04   4.9709890e-04   7.4402563e-04   1.1243685e-03   1.0355484e-03   5.5223011e-04   6.1617634e-04   4.1850752e-04   5.1707658e-04   9.5810049e-04   1.0068712e-03   6.2449265e-04   5.6338205e-04   5.6833291e-05   1.6463162e-04   4.6639374e-04   4.1765004e-05   2.6024363e-04   7.8049884e-04   1.9738633e-04   2.7055267e-04   3.9851904e-04   7.4632600e-04  -2.1744669e-04   3.4589431e-04   3.4729869e-04   3.7807098e-04   3.5842849e-04   5.6831463e-04   3.6437289e-04   3.3389451e-04   7.5696030e-04   5.1454321e-04   3.0808133e-04   2.4573060e-04   3.0778855e-04   6.2346942e-04   3.4180286e-04   3.1526733e-04   1.6584701e-04   2.4048948e-04   4.6770531e-04  -7.2780487e-05  -1.3736870e-04   3.8024431e-04   3.9960531e-04   2.2079179e-04   7.7132921e-05   7.5601431e-04   4.5333084e-04
   1.0983959e-03   8.2237273e-04   9.4323687e-04   1.3405456e-03   1.2579428e-03   9.9195226e-04   9.6975372e-04   7.7383209e-04   1.1586336e-03   1.4510559e-03   1.3852564e-03   1.2773871e-03   9.4017747e-04   3.7031295e-04   4.8802979e-04   7.3572819e-04   4.1161009e-04   5.0639338e-04   1.1888228e-03   7.0408225e-04   8.6856604e-04   9.4462390e-04   1.8618030e-03   1.3493001e-03   1.4093942e-03   1.1679400e-03   6.6645088e-04   8.7123003e-04   9.0777630e-04   7.1617507e-04   8.4371516e-04   1.2300325e-03   1.1000144e-03   7.4589381e-04   8.7036495e-04   9.3545107e-04   1.0760203e-03   6.2717893e-04   7.4269896e-04   6.3582353e-04   7.5824716e-04   7.1359967e-04  -8.3200815e-05   2.8535275e-04   8.3273178e-04   7.3379494e-04   4.8508699e-04  -7.3970237e-05   1.1099573e-03   5.5631582e-04
   1.3385867e-03   9.4248680e-04   1.0920191e-03   1.3047075e-03   1.2148721e-03   9.1681106e-04   1.0286946e-03   7.2740804e-04   1.0552247e-03   1.4828021e-03   1.3864316e-03   1.2201596e-03   8.8456605e-04   3.1400504e-04   1.9032763e-04   6.9199421e-04   3.3060112e-04   4.5474467e-04   1.4228662e-03   6.1145204e-04   6.4679550e-04   7.3601428e-04   1.3562068e-03   7.5651956e-04   1.1423412e-03   6.3131435e-04   6.7317201e-04   6.1151508e-04   8.8599790e-04   5.7788880e-04   5.4386526e-04   9.4851392e-04   9.1438799e-04   4.1733193e-04   4.6543850e-04   5.6883582e-04   8.6204032e-04   4.2860152e-04   5.7044381e-04   5.4720684e-04   4.0931447e-04   4.0385153e-04   3.9690643e-04   4.7020288e-04   6.3268351e-04   4.7332069e-04   2.3237421e-04   3.3858503e-04   7.0445804e-04   1.1650498e-04
   8.6700375e-04   3.7513135e-04   6.7980401e-04   7.4695708e-04   7.6523330e-04   3.2497806e-04   4.7022471e-04   3.4997604e-04   6.3843257e-04   1.0155662e-03   8.5195643e-04   5.2153692e-04   4.9502047e-04  -5.3373442e-05  -1.4698792e-05   3.6690012e-04   2.5690368e-05   1.4741744e-04   2.8753842e-04   2.5135232e-04   1.7753210e-04   2.0506525e-04   6.7696290e-04  -4.3315606e-05   5.7249301e-04   1.1241016e-05   4.0737900e-04   3.8032420e-04   6.6053763e-04   2.6725480e-04   1.3980925e-05   4.5686733e-04   2.5076143e-04   1.6238469e-05  -1.6359436e-05   8.6444699e-05   4.7272415e-04   1.1495635e-04   1.9858645e-04   1.3418696e-06   5.7273384e-05   1.6742029e-04  -2.5831428e-04  -6.9561083e-04   3.9038886e-04   2.6454646e-04  -1.9474809e-04  -2.7503955e-04   1.3639320e-04  -1.0438851e-04
   3.2644137e-04  -2.1411423e-04   2.4938397e-04   2.5043983e-04   3.8271636e-04  -1.9345620e-05   1.3246498e-04  -7.4799129e-05   5.6552188e-04   9.1117242e-04   6.1420997e-04   3.9629068e-04   2.1453908e-04  -1.8324847e-04  -5.1174698e-05   3.1806820e-04  -1.2421177e-04   8.0267047e-05   1.0589148e-03   2.7793180e-04   4.2106479e-04   2.3183069e-04   8.8705082e-04   1.6289067e-03   7.0896384e-04   3.7547699e-04   4.4509827e-04   6.3942932e-04   6.9995743e-04   3.8165913e-04   2.3871694e-04   6.4558041e-04   6.2408438e-04   2.7015177e-04   4.6123518e-04   6.2587485e-04   6.7626592e-04   2.1739528e-04   3.5616543e-04   3.1692113e-04   3.3053444e-04   3.6332710e-04   2.3063495e-04   7.1400216e-05  -9.6973599e-05   6.9883419e-04   1.1194259e-04   2.6643401e-04   9.3669863e-04   5.1047344e-04
   5.7565037e-04   3.5274311e-04   5.5917678e-04   6.8920146e-04   8.5473852e-04   5.4845354e-04   5.7426025e-04   3.3715216e-04   5.2467635e-04   1.0535824e-03   7.4792496e-04   6.1568397e-04   3.0752650e-04  -1.3399993e-04  -8.7158121e-05   2.7111114e-04  -2.4759487e-04   2.2365497e-05   1.0911298e-03   2.3833013e-04   3.6827571e-04   1.0243083e-04   1.0633963e-03   2.1037657e-04   8.4026589e-04   5.5942801e-04   3.9664604e-04   4.2842771e-04   6.2245026e-04   2.6148622e-04  -1.5422240e-05   4.0790840e-04   3.5347740e-04   1.0031899e-04   2.5093896e-04   3.0602000e-04   4.8566476e-04   7.2761512e-05   2.0350938e-04  -4.1122687e-05   2.5501658e-04   1.2320833e-04   8.6907858e-07   3.4624667e-05   2.7380468e-04   2.7132206e-04  -1.7655539e-05   2.3103961e-04   6.8166548e-05   2.5431250e-04
   4.4614644e-04  -4.8491598e-05   2.3808445e-04   3.5385651e-04   4.7108476e-04   1.5188850e-04   2.6951660e-04   9.8623765e-05   3.2824924e-04   6.4324721e-04   4.1414186e-04   2.3080794e-04  -4.7348094e-05  -3.3048738e-04  -3.7678017e-04   6.2920168e-05  -3.7820174e-04  -1.3813129e-04   6.6175533e-04  -1.2679266e-04  -1.5099386e-04  -2.3106656e-04   1.3444388e-04  -1.0770509e-04  -2.0552590e-04  -2.7537785e-04   2.2215601e-04   2.7228668e-04   4.4038755e-04   3.2023836e-05  -2.1537243e-04   6.7832072e-05  -1.1669555e-05  -2.0809237e-04  -1.5257960e-04  -1.0680917e-04   1.9881234e-04  -1.3441613e-04  -3.2276461e-05  -5.4268591e-04  -1.0725548e-04   1.1065424e-04  -2.7550469e-04  -9.5149607e-04   2.2901365e-04   2.5998093e-05  -3.5348025e-04  -1.8746060e-04   1.0230972e-04  -3.0707299e-05
  -1.1300418e-04  -5.0372159e-04  -4.3827167e-06  -6.2589854e-05   1.4765462e-04  -2.5202648e-04  -9.0472597e-05  -3.3224773e-04  -2.9077922e-04   2.6154955e-04  -4.6435307e-05  -2.6055533e-04  -4.5527040e-04  -6.1094790e-04  -5.4035097e-04  -1.7278969e-04  -6.5862463e-04  -3.4565246e-04  -3.4018351e-05  -2.6761901e-04  -2.4723678e-04  -3.8008063e-04   4.0170521e-04  -2.5640571e-04  -1.4156818e-04  -1.1786194e-04   2.0800438e-04   2.7202192e-04   3.9454683e-04   1.1958940e-05  -1.7256421e-04   1.2609492e-04   1.1861137e-04  -1.0774609e-05   8.6645094e-05   2.3481531e-04   3.3577066e-04  -7.9015052e-05  -2.5166348e-05  -1.1039185e-04   1.4300011e-04   1.0086126e-04   9.8409306e-05  -4.0998275e-04  -2.9302752e-04   2.7214858e-06  -6.6673405e-05   4.5760963e-04   2.7393128e-04   1.9403220e-04
   3.1117792e-04   7.7888428e-05   2.2428835e-04   3.7712423e-04   5.3079461e-04   2.7435645e-04   3.2841665e-04   6.0646224e-05  -1.0966770e-04   7.0304557e-04   3.5111181e-04   3.8631065e-04  -8.1642815e-05  -4.0344041e-04  -3.0832284e-04   1.0763391e-04  -3.1797896e-04  -1.3147807e-04   7.9086014e-05  -1.1572339e-04  -1.6169448e-04  -1.7446946e-05   5.4506195e-04  -9.7311102e-05   4.0952471e-04   2.6859963e-04   2.3415065e-04   6.2431958e-05   3.6586847e-04   9.6457508e-05  -9.6134638e-05   2.2831628e-04   7.6436831e-05   6.7940905e-06   1.4047039e-04   2.2286669e-04   2.6196288e-04  -1.7550348e-05  -1.2963056e-05  -2.6026656e-04   1.3573987e-04   2.0811768e-04  -3.9474824e-05  -2.5935622e-05  -2.8686294e-05   6.8961133e-05  -1.6125497e-05   3.9830938e-04   1.2853229e-04   1.9398629e-04
   3.6530833e-05  -1.7557407e-04   3.6109072e-05   1.2968284e-04   2.6113860e-04  -5.8035195e-05   1.5540104e-04  -6.9293892e-05  -1.7550103e-05   6.3705986e-04   1.0907496e-04   2.1400952e-04  -9.9478057e-05  -5.1368232e-04  -4.5597670e-04   2.1062731e-05  -3.4068388e-04  -1.6784549e-04   3.4422596e-04  -3.1370204e-04  -8.5742920e-07  -3.5851455e-04   4.5983474e-05   1.1803363e-04  -1.5521472e-04  -2.5364905e-04   6.7801957e-05  -4.2965250e-05   2.1069491e-04  -3.7577258e-05  -1.9951335e-04   1.7100754e-04  -2.7177614e-04  -2.9259743e-04  -2.6588322e-04  -1.0685355e-04   5.3807202e-05  -2.1895638e-04  -1.9268187e-04  -5.8581145e-04  -4.1141102e-05   7.6805038e-05  -5.4819055e-05  -5.8583409e-04   1.0788348e-04  -2.2363299e-04  -1.8389637e-04  -4.8293977e-04  -1.0016539e-04  -2.2950844e-04
  -3.8708249e-04  -7.2219450e-04  -3.7007374e-04  -4.0078512e-04  -5.2126379e-05  -5.3356367e-04  -3.3840828e-04  -5.1189389e-04  -3.0976773e-04   2.6779121e-04  -1.1777608e-04  -1.0501743e-04  -4.3025252e-04  -6.7914429e-04  -5.2460789e-04  -7.5587668e-05  -5.9184560e-04  -2.3511058e-04  -3.7770366e-04  -1.9876561e-04  -5.6802415e-05  -5.0096132e-04   5.1237055e-04   1.8034063e-04  -2.7505765e-04  -1.6326959e-04   7.7198434e-05  -3.7818114e-05   1.8645430e-04  -8.5381216e-06  -3.4347855e-04   1.6044545e-05  -9.8524538e-07  -5.6632442e-05  -1.4273927e-04   9.1744194e-05   2.0929200e-04  -1.4932106e-04  -1.7788477e-04  -8.5229811e-05   9.3400457e-05   5.0598464e-05  -3.0015735e-04  -4.7033466e-04  -1.2330359e-04  -4.8082944e-05   2.4102426e-05   3.0992107e-04  -1.0319258e-04   1.0587222e-04
  -1.3161950e-04  -1.8461220e-04   9.2530936e-05  -2.7320842e-05   3.2828597e-04  -2.8928289e-05   1.0336763e-04  -1.5497000e-04  -2.0278073e-04   4.3614572e-04   8.8727938e-05   3.1739540e-04  -1.4884316e-04  -5.5223180e-04  -6.1780080e-04   3.6962920e-05  -3.8860759e-04  -1.5063400e-04   5.1636947e-04  -2.7611601e-04   4.1634947e-05  -3.5104319e-04  -1.0807800e-04  -1.4975989e-04   1.6738503e-04   2.9464129e-05  -5.5054028e-05  -8.2531158e-05   2.6629193e-04  -8.0466043e-06  -2.2403548e-04   1.7979291e-05  -2.9030169e-04  -1.5602238e-04  -1.5515750e-04   7.0529488e-05   1.3488300e-04  -1.0600637e-04  -2.1326628e-04  -4.8150713e-04   3.0292551e-05   2.7388794e-04   4.8879880e-05  -4.5524354e-04   6.0187362e-05  -1.8862814e-04   1.4433813e-04  -1.4261814e-04   2.1271758e-04  -1.2101478e-04
  -1.7860324e-04  -4.2090681e-04  -1.7899794e-04  -2.2361104e-04   6.3572013e-05  -3.0395013e-04  -1.2286169e-04  -3.7840486e-04  -3.1960607e-04   2.4049854e-04  -9.7186894e-05   1.1381663e-04  -2.5198670e-04  -6.2649843e-04  -4.9777899e-04  -8.7206347e-05  -5.2781624e-04  -2.7636389e-04   1.8732608e-04  -5.1117683e-04  -5.3198123e-04  -5.0901814e-04  -3.4464107e-04  -1.8126878e-04  -2.5034396e-04  -4.9119920e-04  -1.6706737e-04  -2.6461686e-04   1.9320450e-04  -1.8007129e-04  -5.1715650e-04  -6.3760497e-05  -2.5086256e-04  -5.3570548e-04  -5.0160487e-04  -2.3800533e-04  -1.5302614e-04  -3.0222366e-04  -4.3684102e-04  -1.0094728e-03  -2.2331839e-04   6.9529415e-05  -3.6352532e-04  -1.1841737e-03  -5.0989358e-04  -4.5095454e-04  -3.5547633e-05  -9.9092082e-05  -3.1499591e-04  -1.6017864e-04
  -2.3466034e-04  -3.5767883e-04  -1.6104395e-04  -2.0777322e-04   1.7314596e-04  -5.0062885e-05   6.8938491e-05  -3.4292808e-04  -9.0992376e-05   3.4733053e-04   2.7098402e-05   3.3242701e-04  -1.4017071e-04  -5.2850210e-04  -3.8935523e-04  -6.6772955e-06  -4.8447560e-04  -1.4879154e-04  -1.9252066e-04  -2.5689459e-04  -2.7506283e-04  -6.2233070e-04   6.7773847e-08   5.0111383e-04   2.5939400e-04   4.1182226e-05  -1.1614674e-04  -1.3056808e-04   3.9766027e-04  -2.0084926e-05  -4.7799395e-04   9.6890610e-05  -2.0684557e-04  -2.9259376e-04  -1.4167122e-04   8.7575121e-05   1.3660922e-04  -1.5127329e-04  -2.4030871e-04  -6.1705610e-04   6.4047847e-05   2.6937024e-04  -1.1420891e-04  -9.2775474e-04  -2.0364601e-05  -1.3160059e-04   1.6035217e-04  -8.1924649e-05  -1.1141879e-05  -6.7801346e-05
  -4.3423011e-04  -4.4035749e-04  -1.8314675e-04  -3.8739596e-04   2.4775807e-05  -2.0724688e-04  -1.0867461e-04  -4.0341404e-04  -4.3402522e-04   1.2022013e-04  -1.4564226e-04   5.6386496e-05  -1.7889755e-04  -5.5066397e-04  -6.2459864e-04  -3.6406185e-05  -4.9215870e-04  -1.9055253e-04  -6.9310225e-04  -4.3132628e-04  -5.9921824e-04  -8.9712063e-04  -3.1194327e-04  -7.1733264e-04  -3.6316356e-04  -4.2987501e-04  -1.4462545e-04  -1.5960787e-04   2.7783122e-04  -1.0126058e-04  -5.9560075e-04  -1.5395939e-04  -4.9427745e-04  -5.7828083e-04  -4.6926623e-04  -2.6658337e-04   4.5731151e-05  -2.4159673e-04  -2.7789388e-04  -1.1013979e-03  -1.8692458e-04   1.3866375e-04  -1.1589110e-04  -1.3372995e-03  -5.9939607e-04  -1.2450115e-04  -6.0685776e-05  -4.9104431e-04  -5.2852929e-04  -2.1574316e-04
  -5.5185077e-04  -8.9231704e-04  -4.6108043e-04  -7.5153471e-04  -3.6645445e-04  -7.1776757e-04  -6.5935560e-04  -7.7885156e-04  -8.3840743e-04  -3.8338895e-04  -5.5709976e-04  -5.8434927e-04  -5.1584275e-04  -7.3282502e-04  -8.9643250e-04  -2.8325611e-04  -7.6716463e-04  -5.0151447e-04  -6.6464272e-04  -7.5242005e-04  -8.3816081e-04  -1.1008867e-03  -3.5341928e-04  -9.8493241e-04  -4.6852155e-04  -9.5986039e-04  -1.8039800e-04  -7.4895092e-05   2.1806077e-04  -1.7267121e-04  -8.0210116e-04   3.6562230e-06  -5.9350207e-04  -6.6680356e-04  -3.2006472e-04  -6.0531460e-05   1.0711447e-04  -1.9111502e-04  -2.5722862e-04  -7.0694147e-04   3.3251068e-05   1.6576920e-04   3.8157417e-05  -2.9103560e-04  -1.7016947e-04   1.3923677e-04   5.1350988e-05  -1.1430048e-04  -1.3628342e-04   6.4085878e-05
  -4.1823444e-04  -4.5633051e-04  -2.8603165e-05  -3.8281051e-04  -2.2227050e-05  -1.6515730e-04  -3.0291436e-04  -2.8228285e-04  -4.5662580e-04  -1.4867035e-04  -2.9155790e-04  -2.2436530e-04  -2.9401353e-04  -4.8701794e-04  -5.9679040e-04  -1.0215362e-04  -6.6973991e-04  -2.9304635e-04  -3.1458877e-04  -5.9085252e-04  -5.6539004e-04  -8.8433380e-04  -5.1534513e-04  -6.6406862e-04  -2.0702342e-04  -5.9475942e-04  -1.8283112e-04   2.7489971e-06   1.8588544e-04  -9.9182151e-05  -7.5803843e-04  -1.0322720e-04  -3.6926285e-04  -7.0940051e-04  -4.3515561e-04  -3.3264869e-04   2.8929897e-05  -1.9520763e-04  -2.6757934e-04  -8.2050287e-04  -2.7605882e-04  -2.7914348e-05  -4.7668780e-04  -9.1960368e-04  -5.0890088e-05   1.6855693e-04  -2.1103499e-04  -1.1370257e-05  -3.0415345e-05  -2.2455082e-05
