   1.2051352e-04   5.9005368e-05  -1.7115413e-05   1.2633609e-04   3.1292606e-05  -1.4831037e-04   1.1146289e-05   4.7849433e-05  -1.7143455e-05  -6.4521628e-05   3.0499647e-04   1.9605400e-04   2.4441580e-04   2.5223990e-04   2.6130758e-04   5.9257931e-05   1.6061410e-04   1.1469684e-04   2.3631057e-05   2.0899369e-04   1.5098978e-04   2.1270709e-04   2.1346009e-04   2.4549404e-04  -4.5699202e-05   4.9007111e-05  -5.1000345e-05  -1.7843633e-05   5.9325328e-05   1.8906215e-04   5.8087720e-05   3.7987283e-04   3.6935747e-04   1.2674571e-04   6.5481322e-06   7.3928009e-06   2.4849156e-04   1.3183885e-04  -2.9299757e-05   1.4799385e-05   6.8295914e-05   2.1592870e-04  -9.7943514e-05  -7.7890611e-04   6.1099592e-04   9.2770984e-05   2.2408912e-04  -8.7676286e-05   2.0458314e-05   1.4840461e-04
   4.5465778e-05   6.0817110e-05  -5.0291441e-05   9.9236946e-05   1.3953158e-05  -8.8010602e-05  -7.2553354e-05   1.7353427e-06  -3.4781817e-05  -5.8736234e-05   3.1560188e-04   1.6586478e-04   2.3022328e-04   2.2660308e-04   2.4126284e-04   4.2412947e-05   2.0488667e-04   6.1024115e-05  -5.0739076e-05   1.5454684e-04   1.4713005e-04   1.8941495e-04   1.1912558e-04   2.2533129e-04   1.1334398e-04   6.0320774e-05  -7.6012024e-05  -1.7749449e-05  -1.0866011e-06   1.9285690e-04   1.3818810e-05   3.1519160e-04   2.6005905e-04   9.7732147e-05   1.2286818e-04  -2.8903418e-05   2.8769381e-04   1.0603977e-04  -6.6616005e-05   2.3946217e-05  -6.2492167e-05   1.7662834e-04   3.5834877e-04   1.1326334e-04   5.2103747e-05   1.0106779e-04   2.4229351e-04   3.0006259e-04   2.9410369e-04   1.5260564e-04
   1.1256355e-04   5.6486981e-05  -1.2909088e-04   3.8615231e-05   5.4092099e-05  -1.0872768e-04   2.8792449e-05   7.6838856e-05   1.4590149e-04  -8.1133425e-05   2.5826742e-04   8.6688153e-05   2.6549125e-04   2.6525179e-04   2.2406944e-04   4.8035105e-05   1.9099125e-04   3.8178063e-05  -8.7129614e-05   1.6697853e-04   1.5659905e-04   3.2281157e-04  -1.1956729e-05  -2.5449452e-04   2.6064695e-04  -1.7155867e-04   5.5101973e-05   2.8351158e-05  -1.8078172e-05   1.8884428e-04   2.1983919e-04   3.4846642e-04   1.9957565e-04   1.1314001e-04   8.3248080e-05   6.0663944e-05   2.3043645e-04   9.0263165e-05  -7.5521100e-05   1.2336850e-04   2.9249899e-05   2.2776013e-04   5.6934536e-05  -6.8755733e-04   3.4069297e-05   3.4058854e-04   2.5097522e-04   2.4621919e-05   1.1284496e-04   1.3825855e-04
  -1.5797700e-06   3.5222176e-05  -6.7049732e-05   1.0031642e-04   5.0126153e-05  -1.0853849e-04  -9.7949705e-05   4.1154868e-05  -9.3512682e-07  -5.7386842e-05   3.1880586e-04   1.6997913e-04   2.8360402e-04   2.7726628e-04   2.4005417e-04   5.9741975e-05   1.8184594e-04   6.0972201e-05   2.6064191e-04   2.0978248e-04   1.4645830e-04   2.4797244e-04   1.7869052e-04   2.4997469e-04  -4.2845651e-05   1.8301589e-05  -2.8687235e-05  -6.5468019e-05  -1.0120793e-05   1.7957282e-04   1.5954481e-04   2.0740554e-04   1.1211172e-04   1.1418500e-04   1.1420104e-04   6.0993487e-05   2.5543300e-04   7.6993769e-05  -5.4697673e-05  -6.4330859e-05  -2.7826651e-05  -5.1789488e-05  -1.5934395e-04  -1.2875134e-04  -8.3368461e-05   3.5981098e-04   2.6208319e-04  -9.8698772e-05   4.7864372e-04   4.4471497e-05
   4.8798378e-05   5.0862513e-05   4.6569072e-05   1.0032036e-04  -6.7397479e-05  -1.8637447e-04  -1.8777955e-05   9.4360752e-05  -1.0947578e-04  -5.4498563e-05   3.0409612e-04   1.0203940e-04   2.2375795e-04   2.2443752e-04   2.6455271e-04   3.8564332e-05   1.6314712e-04   3.6737529e-05   3.4441895e-04   1.7480826e-04   1.6786372e-04   1.1009091e-04   8.1089544e-05   1.3309260e-04   8.3978821e-06  -1.1873466e-04  -5.6043250e-06  -5.7401903e-05  -1.8562152e-06   1.5441273e-04   1.0144942e-04   8.6834210e-05   3.8055313e-04   1.2131005e-04   6.9514317e-05  -2.8861403e-05   2.8453799e-04   7.8168683e-05  -9.2602342e-05   1.2820752e-04  -9.5366449e-06   2.1359647e-05   8.0287100e-05   1.9326272e-04   1.6256075e-05   7.9506419e-05   1.8165940e-04   2.4289238e-04  -6.9288741e-05   9.8703669e-05
   1.5321297e-04   2.4212821e-05   1.6564658e-04   6.0766273e-05  -8.9726755e-06  -1.1224216e-04  -4.3577671e-05  -2.4944738e-05  -2.0109999e-05  -6.8915251e-05   2.7604893e-04   3.6248999e-05   2.1540477e-04   2.0389697e-04   2.4580254e-04   5.6376306e-05   1.3617639e-04   1.6927559e-05  -2.1384007e-04   1.7113805e-04   1.3926461e-04   1.8676600e-04  -3.7978843e-05  -1.5982288e-04   1.3707405e-04  -9.3076174e-05  -7.7104305e-05  -2.9086730e-05   1.4742885e-05   1.7671019e-04   2.5158217e-05   3.3744518e-04   2.8755207e-04   6.2773834e-05   2.5585106e-05  -5.0191102e-05   2.2069500e-04   6.2828680e-05  -6.3404019e-05   2.3187260e-05  -6.2397659e-05   2.4014353e-04   2.6679496e-04  -5.3566421e-04   9.1049231e-05   1.6799218e-04   1.7736705e-04   5.4143264e-05  -6.2273532e-05   2.2746796e-04
   1.0444200e-04   1.1391600e-05  -9.9243924e-05   3.5616686e-05  -6.2064872e-05  -7.7561839e-05  -6.1305371e-05   1.0842395e-04  -7.4018732e-05  -1.4709342e-05   2.5307035e-04   7.1775052e-05   2.6207994e-04   2.6604455e-04   1.6435829e-04   5.9212252e-05   1.0102714e-04   2.8393504e-05   2.4888679e-04   1.8428509e-04   1.8730525e-04   1.2578713e-04   2.8407766e-04  -4.0559619e-04   2.0220409e-04  -2.4224697e-04  -2.7332542e-05  -8.2170503e-05  -1.2276018e-04   1.3870544e-04  -5.0002600e-05   2.6566096e-04   1.6115577e-04   8.5136402e-05   9.2917423e-07  -8.7792650e-05   1.5246855e-04   2.7725338e-05  -1.0244859e-04   8.4806823e-05  -3.7888702e-05   1.2533340e-04   1.0875046e-05   9.6237217e-04   7.6593635e-05   8.3972212e-05   1.4248953e-04  -2.5109865e-04   1.0119889e-04   1.3299804e-04
   2.4480681e-04  -4.0358125e-05  -1.4297536e-04   7.7027929e-05   1.4963649e-05  -8.6855223e-05  -4.4869976e-05   1.0185615e-04  -1.6530423e-04   6.9491551e-05   3.0188993e-04   5.1556101e-05   1.6909731e-04   1.9778182e-04   2.4704725e-04   2.8347167e-05   1.2678883e-04   1.1666517e-05   3.2357825e-04   1.7306092e-04   1.7540721e-04   1.4333753e-04   6.7717112e-05   4.6520008e-04   3.8411000e-04  -1.6118793e-04   1.0934061e-05  -7.0630973e-05  -2.4911677e-04   1.4869016e-04   4.2993433e-05   2.0392533e-04   7.5818743e-06   5.9457816e-05   7.3962758e-05  -9.2853807e-05   1.9260358e-04   9.1492821e-06  -4.7129008e-05  -1.6258624e-04  -7.4132578e-05   1.5303664e-04  -2.2834021e-04  -4.3479094e-04  -1.9159248e-04   1.5314226e-04   9.8894940e-05  -1.4292594e-04   3.1262750e-04   1.4514204e-04
   1.4046629e-04  -5.3179010e-05  -1.3586850e-04   7.7595963e-05  -5.4440221e-05  -1.0290032e-04  -3.2238397e-05  -3.2247847e-06  -1.7441600e-04   1.3456713e-04   2.7413084e-04   1.8360981e-05   1.4020670e-04   1.6112473e-04   1.1583208e-04   4.9262573e-05   9.5987489e-05  -5.1460283e-05   1.2602277e-04   1.5042865e-04   1.1756679e-04   1.5991364e-04   3.5253825e-04   4.3979843e-04   1.5057769e-04  -5.6061881e-06  -4.9719245e-05  -1.1803961e-04  -6.6311768e-05   1.3905906e-04   8.2285347e-05   1.5422959e-04   9.3272043e-05   5.7740152e-05   1.1543486e-04  -4.3240496e-05   9.6438329e-05   5.9627153e-05  -6.9731861e-05   5.9309386e-05  -7.1971495e-05   2.6079867e-04   2.7915390e-04   3.4553191e-04   5.8969751e-04   1.5318948e-04   1.1801785e-04   4.0532011e-04   2.7959445e-04   1.3511415e-04
   8.8511100e-05  -7.1450042e-05   3.8126127e-05   3.1302279e-05  -6.3873915e-05  -1.1076773e-04  -4.6973542e-05  -5.8892965e-05  -1.8411828e-04   2.2192195e-05   2.6727177e-04  -1.2249465e-06   1.7803500e-04   1.9436295e-04   1.7673045e-04   3.3381111e-05   1.3954694e-04  -5.8685719e-06   5.4198692e-05   1.4985028e-04   1.2986200e-04  -1.6553508e-05  -2.6519751e-04  -1.6744496e-04   7.1337644e-04  -2.6578904e-04  -8.6782085e-05   2.7428676e-05  -6.2152649e-05   1.1193077e-04   6.4760272e-05   1.1350484e-04  -7.9691767e-05   1.0288347e-04   1.0546132e-05  -8.1066202e-05   1.1849286e-04   2.9893194e-05  -1.5799250e-04   2.9310017e-06  -1.1685491e-04   1.0066244e-04   2.0077526e-04  -2.9147096e-04  -1.8732433e-04   1.0917660e-04   7.8233854e-05   3.5177829e-04  -2.5325746e-04   3.9197166e-05
   5.1924555e-05  -4.3750297e-05   1.9491826e-04   6.2371982e-05  -4.1787142e-05   1.7396600e-06   8.8389552e-06  -2.4373161e-05  -7.0707771e-05   1.7046994e-04   3.1918185e-04   3.3806758e-05   1.9760928e-04   2.2300727e-04   1.4734787e-05   6.7690467e-05   9.0250593e-05  -3.0916697e-05  -1.9193307e-04   1.7589415e-04   1.6397628e-04   4.4171629e-05   1.1183054e-04  -8.3724553e-05  -1.1499517e-04  -2.6708780e-04  -1.9921006e-05  -4.1825420e-05  -1.4372668e-04   9.6942073e-05   1.1677334e-04   1.1063073e-04   1.6295249e-04   6.7510460e-05  -1.0895639e-05  -1.0060063e-04   1.3839349e-04  -2.3108765e-05  -8.1615872e-05  -1.9713142e-04  -1.1890663e-04   9.6678661e-05  -1.7392016e-05  -1.1279383e-05  -4.9490959e-04  -8.1393864e-06   7.1871298e-05   3.5789395e-05  -1.7411225e-04   1.7237335e-05
   3.2145661e-05  -7.7575794e-05  -7.0159833e-05   2.7613898e-05  -2.6500933e-05  -1.2687119e-04  -9.2801940e-07  -4.7517871e-05  -1.0586206e-04   6.7244626e-05   3.0936694e-04   2.5374318e-05   2.3422572e-04   2.1547580e-04   1.3434168e-04   3.7471171e-05   9.8319193e-05  -6.7311862e-06   1.5408451e-04   1.6976913e-04   1.4775897e-04   1.0170091e-04   3.4529730e-05   5.6170717e-05   1.4871098e-04  -2.5784090e-04  -6.5129621e-05  -1.1030724e-04  -9.7435041e-05   9.7141419e-05   1.2962198e-05   8.2707244e-05   3.3889133e-05  -2.1899734e-05   6.1028579e-05  -1.1352252e-04   1.5322368e-04  -1.6211163e-05  -8.5178661e-05  -7.2474642e-05  -2.0788683e-04   1.8990244e-04   1.2207658e-04  -1.2173930e-03  -3.4921026e-04   3.4589248e-04   7.4541989e-05   2.2932708e-04   6.1180879e-05   1.5904558e-04
   1.0386846e-04  -6.0795806e-05  -8.5193504e-05  -1.7477465e-05  -7.2223171e-05  -1.4772268e-04  -3.0709420e-05   3.7288696e-06  -2.2047439e-04   8.0322439e-05   2.5089420e-04  -3.4289187e-05   2.0109348e-04   2.4666404e-04   3.2709835e-05   4.8656115e-05   1.0994251e-04  -4.3520500e-05  -3.0383773e-04   1.3732111e-04   1.2325199e-04  -6.2526760e-06  -1.1217350e-04   2.4311173e-04   2.8031139e-04  -9.8200348e-05  -1.4508113e-06   7.1192844e-05   7.7843179e-05   1.0278073e-04   8.4244457e-05  -6.2584157e-05   1.3145871e-04  -8.9296000e-06  -4.9723344e-06  -1.1256910e-04   6.6532062e-05  -8.2341703e-06  -9.6211392e-05  -1.0564782e-04  -1.3682513e-04  -3.1117026e-05  -1.1624096e-04  -5.6055200e-04  -2.5741206e-04   1.9440704e-04   9.3368653e-05   3.5047159e-04  -1.3718136e-04   1.2512243e-04
   2.5557965e-05  -5.4648706e-05  -2.9716701e-05   2.4417021e-05  -9.4671013e-05  -1.5592721e-04   3.4417033e-05  -5.7000216e-05  -1.7395170e-04   7.1890448e-05   3.3905293e-04   8.8677582e-05   2.6536966e-04   3.0276473e-04   1.4045397e-04   7.3168419e-05   1.4307680e-04  -3.3664444e-05  -8.0952552e-05   2.0265387e-04   1.5702030e-04   1.0355382e-04   1.8759882e-04   1.7452572e-04   4.9696944e-04  -4.7227563e-04  -1.3016733e-04  -1.7085427e-04  -2.9167609e-06   9.4060459e-05   3.4129236e-05   2.0828070e-04   2.3524756e-04   3.1687883e-05  -1.4842574e-04  -2.9704974e-05   1.0569972e-04  -8.9924124e-06  -1.1837820e-04  -5.9971502e-05  -2.0996010e-04   1.3743826e-05   3.3107746e-04   1.6610795e-03  -8.8574649e-05   1.5276379e-04   1.0313850e-04   5.2936230e-04   2.0694998e-04   2.0163401e-04
   1.3220544e-04  -5.7605019e-05   1.3440580e-04   1.4598212e-05  -3.5092740e-05  -1.8545885e-04  -3.2106600e-05   8.3656869e-06  -4.8256148e-05   8.8499779e-05   3.4036601e-04   6.7587614e-05   3.2894814e-04   3.1355358e-04   1.2923701e-05   8.8306158e-05   1.3386717e-04  -2.4594805e-05   6.5506632e-05   2.4512751e-04   1.5532265e-04   2.1013497e-04  -6.4744265e-05   5.7926631e-05   5.3844295e-05  -1.4271513e-04  -5.5155127e-05  -1.6989814e-04  -4.0137907e-05   9.8093435e-05  -3.3958149e-05   9.2468195e-05   5.0917184e-05  -3.6566315e-05  -6.4961983e-05  -1.9215180e-04   1.4454825e-04  -2.3209379e-05  -8.1565384e-05  -1.1037829e-04  -1.0614342e-04   7.6685312e-05  -2.5276182e-04   6.6371536e-04  -5.1347329e-04   3.8825563e-04   7.9413723e-05   1.1663120e-04  -6.2904823e-05   2.2102491e-04
   1.1949537e-04  -6.4723230e-05   7.5272568e-05  -3.8126316e-05  -7.3305033e-05  -1.1428822e-04  -5.5940320e-05  -2.4547982e-05  -2.5320781e-04   6.3391431e-05   3.2920460e-04  -1.4661045e-05   2.8864175e-04   3.1229545e-04   1.4078316e-04   8.5567786e-05   1.8690550e-04  -1.7778237e-05   1.9491310e-04   2.2983717e-04   1.0162093e-04   7.4555108e-05  -1.8989824e-04   3.3893902e-04   2.9324836e-04  -2.5219496e-04  -1.1735647e-04  -2.8452534e-06  -1.3554626e-05   1.0262528e-04  -3.7707007e-06   1.3560936e-04   1.2531190e-04  -1.7291424e-05  -2.5088577e-05  -7.4475691e-05   8.6579348e-05  -1.0913169e-05  -1.2706760e-04  -5.4619064e-05  -9.2334798e-05  -1.0837049e-04  -3.0228723e-04  -6.1113366e-05   2.5883463e-04   5.8163085e-04   9.4847099e-05   3.4722764e-04   4.7646816e-05   1.7284304e-04
   1.5620749e-04  -5.6090477e-05   1.0130001e-04  -5.1208845e-06  -2.9060095e-05  -1.5045035e-04   2.6178802e-06   1.6453823e-05  -5.2324205e-05   7.5962387e-05   3.2892069e-04   7.2537252e-05   3.1618192e-04   2.9508240e-04   1.9042288e-04   8.9194800e-05   1.4665263e-04   9.4338802e-06   2.9375858e-04   2.0900884e-04   1.2010079e-04   8.0571568e-05   4.9333168e-05   3.9894407e-04   2.6792212e-04  -9.2189483e-05  -7.4654454e-05  -5.2922263e-05  -4.8880935e-05   7.1932642e-05  -6.4933032e-05   9.0411573e-05  -7.6298849e-05   3.6658123e-05  -5.0317096e-05  -4.5479974e-05   1.0500921e-04  -3.2388944e-05  -1.1220624e-04  -1.1819757e-04  -4.3349854e-05   6.2678977e-05   4.5523988e-04   3.9920781e-04   8.5944725e-05   2.7348450e-04   1.3271293e-04   2.0513451e-04  -3.9729974e-05   1.7259229e-04
  -5.1173101e-06  -7.4448442e-05   3.6143665e-05  -2.5850983e-05  -8.3100560e-05  -8.8889516e-05  -5.4382665e-05  -6.9097434e-05  -1.8656140e-04   6.4647487e-05   3.4217053e-04   2.9641766e-05   2.9648989e-04   3.0033442e-04   1.3632569e-04   7.5720010e-05   1.3494551e-04  -2.7993661e-05   5.2074662e-05   2.2405261e-04   1.3850386e-04  -6.6963912e-05   4.3033211e-05   2.4457433e-04   4.3505162e-04  -1.1356226e-04  -1.3110158e-04  -1.2312800e-04  -5.5886838e-05   6.5116197e-05   1.7672686e-05   2.9877442e-04   2.7178341e-05  -5.7454695e-06   1.0837282e-04  -6.9397283e-05   3.6672394e-05  -7.2305475e-06  -6.9517402e-05  -1.9344011e-04  -6.0412149e-05   4.8967031e-05  -9.9262965e-05  -2.3285100e-04   1.6089085e-04   3.3300524e-04   1.4565245e-04   4.6418727e-04   8.2045972e-07   2.5276901e-04
   1.5067367e-04  -6.9739035e-05   1.9752693e-05  -4.6384317e-05  -4.8335158e-05  -1.5301713e-04  -1.2207202e-04  -1.8353176e-05  -2.3682389e-04   6.7028413e-05   2.9189410e-04   3.9258110e-05   3.1387029e-04   2.8969892e-04   1.0938807e-04   9.2121933e-05   1.5301442e-04  -2.7259037e-05  -5.3488071e-05   1.8258693e-04   1.0824752e-04   1.4381405e-04  -1.2891470e-04   1.7996882e-04  -2.1285479e-04  -2.7510637e-04  -5.8357444e-05  -9.2309063e-05   3.4624685e-05   9.4675372e-05   1.1570711e-04   1.1630995e-04   5.7385925e-05   4.7894529e-05  -6.9241389e-05   2.7737988e-06   9.1017791e-05  -9.6878612e-06  -4.0280185e-05  -2.5449099e-04  -1.1395668e-05   4.8672977e-05  -7.1391230e-05  -1.3919239e-03  -4.5539398e-04   2.9808347e-04   8.0798287e-05  -6.0894701e-05   3.1876573e-04   2.3372537e-04
   8.1514358e-05  -9.8294600e-05  -6.7273977e-05  -3.7141246e-05  -3.1161919e-05  -1.8146358e-04  -1.1243963e-04   1.5592517e-05  -6.9279115e-05   9.7732431e-05   2.5218123e-04   1.7169230e-05   2.1403669e-04   2.2748020e-04   4.3114829e-05   7.1186128e-05   1.4492746e-04   1.7402472e-05  -3.9390227e-04   1.6777001e-04   1.1865512e-04   1.4030524e-04   1.0915595e-04   4.2509369e-04  -7.4314048e-05  -7.8806443e-05  -1.0915903e-04  -1.3663707e-04  -7.6712231e-06   6.7135232e-05   5.8142523e-05   9.7894561e-05   1.9496995e-04   8.8933244e-05  -2.0634376e-04  -2.0320969e-05   7.2563576e-05   2.4864870e-05  -5.6762859e-05  -1.5973866e-04  -1.4005140e-04   5.3529235e-05   3.0205329e-04   1.4919644e-05  -6.2294021e-05   3.3363100e-05   4.2057163e-05  -1.9718797e-04   4.2860014e-05   1.1926948e-04
  -4.0840700e-05  -9.2596340e-05   2.4974795e-05   1.0299600e-05  -1.8631546e-05  -1.2184834e-04  -4.9586237e-05  -6.6548288e-05  -3.2525313e-05   1.3847054e-04   2.9248148e-04   5.9805836e-05   2.3863076e-04   2.0396158e-04   1.8294030e-04   7.3707059e-05   1.4349497e-04   3.7133839e-05   2.2293963e-04   1.9280925e-04   1.6743556e-04   7.8325538e-05   1.2558250e-04   2.5421308e-04  -1.0133148e-06  -1.1994304e-04  -5.3767555e-05  -2.3785490e-04  -4.4788769e-05   7.8257945e-05   1.4437169e-04   1.0852509e-04   1.5890741e-05   2.1095237e-05  -5.2096169e-05   4.9913051e-05   5.3359097e-05  -3.3177919e-05  -1.0006721e-04  -1.6178122e-04  -9.8319666e-05  -4.2970278e-05   1.9147228e-05   6.7831698e-04  -1.7695704e-04   7.9160913e-05   1.7680171e-06  -2.6043525e-04  -1.4582982e-04   6.4466665e-05
   2.7322638e-05  -8.4422274e-05  -1.1608708e-04  -1.8927547e-05  -5.7329376e-05  -2.1127157e-04  -9.3560884e-05  -7.2839328e-05  -1.7152239e-04   1.0466074e-04   3.0250702e-04   3.4505218e-05   2.0128863e-04   1.9718418e-04   1.4988722e-04   7.9109021e-05   1.6657465e-04   7.2380494e-06  -1.1930450e-04   1.9644447e-04   7.7999786e-05   8.6924418e-05  -1.7776102e-04   1.8258285e-04   2.4560187e-04  -9.4535942e-05  -9.8799224e-05  -1.1198925e-04  -4.9696093e-05   6.1275765e-05   9.4985095e-05   1.5440078e-04  -1.5381502e-04   2.8321960e-05  -5.2993626e-05  -5.6010711e-05   9.6804128e-05   1.6460352e-05  -5.3198244e-05  -1.1518883e-05  -1.4361935e-05  -1.4911640e-04   1.2616083e-04  -7.9346763e-04  -9.5471165e-05   3.1694214e-04   9.0585629e-05  -8.9241796e-05   2.9988398e-04   2.0522886e-04
   7.9676553e-05  -9.4680719e-05  -5.1965926e-05  -2.8808956e-05  -6.5635140e-05  -2.3165968e-04  -7.4022042e-05  -1.1455625e-05  -2.3742201e-04   8.2614337e-05   2.9961078e-04   8.5133279e-06   2.2290350e-04   2.2780935e-04   9.7572462e-05   1.2239804e-04   1.6164576e-04   1.3415941e-05  -2.0529568e-04   1.7371180e-04   1.1707739e-04   9.7582539e-05   6.9700160e-05   2.8727434e-04  -1.0323218e-04  -6.5566259e-05  -1.7095130e-04  -8.0399645e-05   2.3691231e-05   8.2439263e-05   1.5697030e-04   1.0284205e-04  -1.1834915e-04   3.2406402e-05  -1.3687371e-04  -4.7680121e-05   9.6525451e-05  -6.7503634e-06  -1.2999820e-04  -9.3299495e-05  -1.3948987e-04  -2.1675746e-04   1.5772087e-04  -1.0984355e-03  -9.0554873e-05   1.9527350e-04   6.0642888e-05   3.9866247e-04  -2.0848689e-05  -5.9537258e-05
   7.0913015e-06  -6.6002831e-05  -1.4969081e-04  -3.3192551e-05   1.5777703e-05  -1.7159624e-04  -4.8157567e-06   3.4597182e-05  -2.6316458e-04   1.2184170e-04   3.4622144e-04   3.1445714e-05   2.1631688e-04   2.3280266e-04   8.7752240e-05   1.1904039e-04   1.6492914e-04   9.3104536e-06  -3.7410686e-04   2.8824466e-04   1.6664834e-04   1.2307722e-04   1.0629778e-04  -2.2200972e-04   1.1031435e-05  -1.6998006e-04  -1.4443437e-04  -4.5841291e-05   6.0039434e-05   4.1700325e-05   2.5098163e-04   1.9489274e-04   1.5219304e-04   4.0893141e-05  -1.0884566e-04  -8.6914542e-06   5.6704397e-05  -2.8884877e-05  -7.6880446e-05  -3.0588044e-04  -5.4913253e-05   5.6721005e-05  -1.8344518e-04  -3.2902556e-04   4.5502489e-04   4.2186741e-04   4.6738500e-05  -1.1020319e-04  -7.0846829e-05   2.9597537e-05
   9.3015806e-05  -7.3196054e-05   2.2646789e-05  -3.0129690e-05  -8.6840650e-05  -1.5064739e-04  -9.0638707e-05   8.8067682e-05  -2.7571374e-04   8.7942848e-05   3.2177180e-04   4.7347246e-05   3.0686337e-04   3.0105270e-04   8.6500993e-05   1.0998204e-04   2.1921023e-04   9.1131648e-07  -8.1802436e-06   2.0577791e-04   7.5392389e-05   5.5598786e-05   4.6495078e-04  -1.1768273e-04   2.9961675e-04  -3.2290875e-04  -6.7033536e-05  -1.2963076e-04   5.2884866e-06   4.8314167e-05   9.1344817e-05   1.3971250e-04  -1.0017340e-04   2.8783548e-05  -6.9473863e-05  -9.2236034e-05   8.8779780e-05  -1.4873258e-05  -9.9799901e-05  -2.4535833e-04  -5.5694283e-05   5.8321202e-05   1.0600463e-04   1.2911325e-03   1.2778364e-04   4.3224246e-04   1.7466946e-05   1.4099284e-04  -3.4260974e-04   1.3036962e-04
   1.5772629e-04  -7.3216805e-05  -5.0332332e-05  -7.5341823e-06  -8.4170046e-05  -2.0714373e-04  -3.9946997e-05   1.2718749e-04  -2.4482246e-05   1.0255907e-04   3.3397687e-04  -1.3344521e-05   2.3030950e-04   2.5871690e-04   7.5375043e-05   8.1257727e-05   2.1605482e-04   1.0696092e-05   8.7545275e-05   2.3049215e-04   1.2323864e-04  -6.9604453e-06   5.8558184e-05  -4.8992416e-04   9.6998367e-05  -3.0221494e-05   1.3517911e-05  -8.9851594e-05   4.3706601e-05   6.7719811e-05   9.9807992e-05   7.9971876e-05   1.5335788e-04  -3.5252418e-05  -3.1619827e-05   2.9664065e-05   1.1396600e-04  -1.5773041e-06  -8.7898901e-05  -6.2936691e-05  -7.4309559e-05   1.6021362e-05   9.3921153e-05  -5.9760181e-04   3.0608262e-05   1.6722226e-04   3.3619282e-05   1.4826059e-04   2.0633259e-05   3.1455253e-05
   1.0538792e-04  -5.2781194e-05   5.6966899e-05   4.6929536e-06  -6.2337291e-05  -1.9648502e-04  -2.6624195e-05   2.1318127e-05  -1.5393812e-04   1.3715046e-04   3.6857248e-04   1.0774288e-04   2.7482311e-04   3.0177721e-04   9.8481578e-05   1.1466886e-04   2.1235184e-04   2.0202251e-05  -2.5388037e-04   2.3919967e-04   1.1414433e-04   3.2896372e-05   2.2832149e-04   6.4063806e-04  -1.8759888e-06  -2.1279970e-04  -1.0797114e-04  -9.2523464e-05   1.0173887e-04   6.0539340e-05   7.8106110e-05   2.5350342e-05   1.5068318e-05   1.5789068e-05  -1.7147020e-06  -4.0265193e-05   1.2962779e-04  -3.2025928e-05  -8.1757855e-05  -2.3803589e-04  -2.6998776e-05  -2.5314575e-05  -7.6568940e-05  -5.7119608e-04  -1.1339450e-04   3.9555613e-05   2.1943915e-05   7.3432660e-05   1.2022397e-04   1.6089129e-04
   3.5605139e-05  -5.1428979e-05  -1.3381537e-04  -2.1585367e-06  -5.8992835e-05  -1.8246955e-04  -1.6009848e-04   3.2123884e-05  -1.5603422e-04   1.1539318e-04   3.3523823e-04   6.1096936e-05   3.0339460e-04   2.8397513e-04   1.6995429e-04   1.1092448e-04   1.9007230e-04  -1.2048687e-05  -2.4596686e-04   2.2079929e-04   7.4312389e-05   2.0075140e-04   1.3288073e-04   1.2974035e-04   2.9963144e-04  -2.7425418e-04  -1.1379319e-04  -1.3841598e-04   2.7421538e-06   6.3389896e-05   4.0525811e-05   6.7708199e-05   1.0048825e-04   5.8847199e-05   8.6989712e-06   2.6676298e-05   7.1036979e-05   6.6347106e-06  -8.2731451e-05  -1.1515329e-04  -6.7934416e-05   2.1336052e-04  -2.7806456e-05  -1.1211766e-03  -3.6148209e-04   2.4325217e-04   7.4089276e-06   1.3538064e-04   1.0148187e-04   1.2904592e-04
  -1.7094383e-06  -4.0000643e-05   7.0509486e-05  -2.1442747e-05  -6.2862397e-05  -1.3367417e-04  -5.2921099e-05  -1.7325613e-06  -7.0386464e-05   1.2447109e-04   3.2049057e-04  -3.0617299e-05   2.3331850e-04   2.4334638e-04   1.2934959e-04   9.9130768e-05   1.8099337e-04   7.8682388e-06  -2.4119478e-05   2.1121617e-04   7.7810109e-05  -6.2436069e-05  -9.6746524e-05  -1.6756955e-04   7.3940432e-06  -4.4686013e-04  -9.4324590e-05   3.9621551e-05  -7.4800198e-05   8.1682236e-05  -6.4811924e-05   8.8833302e-05  -9.1297170e-06  -6.2844745e-05  -4.1293246e-05   6.0274826e-05   1.0324593e-04  -4.8505617e-06  -8.7001907e-05  -1.6227503e-04  -5.6392146e-05   6.2632796e-05  -9.1854054e-05  -2.8261848e-04   1.4372846e-06   2.7056775e-04  -6.2247436e-06   1.3866561e-04   3.6004855e-04   2.3396236e-04
   3.4588069e-05  -5.9634367e-05   6.1914689e-05   4.0551477e-05  -7.8609890e-05  -1.9722921e-04   1.4620371e-06  -4.8618144e-06   4.8293117e-05   1.5010760e-04   3.4790873e-04   6.8850626e-05   2.4758370e-04   2.7370075e-04   6.0091083e-05   8.8030058e-05   2.0394979e-04   2.2557784e-05   3.3088465e-05   2.1242363e-04   1.0678454e-04   8.2024562e-05   2.3890103e-04   3.1869567e-06   2.0658766e-04  -4.4720698e-05  -2.2366572e-05  -8.3666106e-05   4.7340796e-05   5.8300804e-05   8.3346058e-05   3.8116490e-05  -3.1066622e-06   9.1188313e-06  -9.3420051e-05   1.0058543e-05   1.0417656e-04   1.3743397e-05  -7.7670040e-05  -2.2770048e-04  -9.3032089e-05  -8.4877247e-05  -1.1708967e-04  -7.1903254e-04  -5.9157255e-04   3.1327704e-04  -1.6030022e-05  -2.1784111e-04   3.8632872e-05   1.1006089e-04
   5.3319563e-05  -6.6333334e-05   4.5889359e-05   4.2973214e-05   8.2673232e-06  -1.3288153e-04  -3.7208469e-05  -2.0771238e-05   2.4795116e-05   1.5864853e-04   3.3938637e-04   4.9266971e-05   2.1534952e-04   1.5880758e-04   9.8206656e-05   8.3396168e-05   1.9601556e-04   5.4195007e-06  -1.3543355e-04   1.7289486e-04   1.0559324e-04   1.0363177e-04   1.4198073e-06   4.1428156e-04  -1.3835716e-05  -2.3521631e-04  -1.4540221e-04  -1.1649412e-04   1.3441612e-06   7.8315461e-05  -5.3079148e-06   1.9138129e-04   2.8697026e-04   7.5207987e-05  -2.4547056e-05  -6.9294954e-05   1.3013958e-04   2.5979067e-05  -3.8008766e-05  -2.8508461e-05  -5.5125547e-05   1.4409919e-04  -1.7957758e-05  -5.0425919e-04  -3.5978167e-04   3.4894783e-04  -5.3330427e-07   1.4106857e-04  -2.1867147e-05   9.5922347e-05
   5.9813905e-05  -8.0752470e-05  -1.6039760e-04  -2.6592426e-05  -6.3134874e-05  -1.5452244e-04  -4.7944592e-05  -5.9778606e-05  -9.1017479e-05   1.7306770e-04   3.1988992e-04  -7.4196641e-06   1.9577764e-04   1.5292062e-04  -9.9595545e-06   6.8700705e-05   1.3632722e-04   1.7154309e-05   2.0174625e-04   1.4209963e-04   1.2529273e-04  -1.0471648e-04  -7.4571821e-05   2.2228267e-05   5.0910877e-04  -3.7114942e-04  -4.3643329e-05  -1.5142877e-04   3.6141311e-05   9.1032023e-05   6.3867526e-05   2.0889402e-04   6.1864694e-06   5.6162139e-06   4.0777137e-05  -4.4955472e-05   1.1329856e-04  -1.2477097e-05  -4.4455628e-05   9.6422365e-05  -3.7517344e-05   5.6707184e-05   4.7831905e-05  -4.8412813e-04  -2.2981744e-04   1.5395612e-04  -5.3039257e-05   9.5722862e-05  -1.4481357e-04   3.1952739e-05
   6.7722227e-05  -8.2520237e-05  -3.5070836e-05   9.3764893e-06   1.9064912e-06  -1.4742451e-04   2.8808447e-05  -4.4118620e-05   1.1088038e-05   2.2692262e-04   3.2821810e-04   8.0185659e-05   1.4300903e-04   1.7397445e-04  -3.2318174e-05   6.3697415e-05   6.3193038e-05   6.0886068e-06  -2.2954373e-05   1.5447708e-04   1.2608293e-04   7.4201918e-05   7.8920370e-05   6.1319588e-04  -1.0009206e-04  -1.3352453e-04  -9.4749143e-05  -7.6903147e-05  -2.8535336e-05   5.5206187e-05   1.7221227e-04   1.4814206e-04   3.3795339e-04   2.8634522e-06   3.8643990e-05   3.4486799e-05   1.8224899e-04  -1.2228154e-05  -7.8369900e-05  -1.4017761e-04  -1.5846311e-04  -1.4980849e-04  -4.0793431e-05   3.1696525e-04  -3.7155228e-04   2.0129142e-04   3.6504782e-05  -5.0089377e-05  -9.3008064e-05   1.3224041e-04
   2.6245640e-05  -7.2104485e-05   1.1392779e-05  -3.5907720e-05  -6.8386529e-05  -9.1975067e-05  -6.9496753e-05   2.5410791e-05  -1.4541723e-04   2.3551963e-04   3.0566769e-04   2.9606912e-05   1.8122254e-04   1.3307318e-04   3.2083957e-05   1.0565296e-04   1.1144079e-04   6.4374355e-05   3.9306434e-04   1.1640549e-04   1.3703658e-04   2.3838074e-05   2.5987116e-04  -1.2046347e-03   1.7633267e-04  -1.7814126e-04  -1.4030754e-05  -5.1728755e-05   1.4134072e-04   6.5480497e-05   7.9734142e-05   2.3402534e-04   2.0199554e-04   4.0138068e-05  -3.6094567e-05  -3.1600597e-05   7.9976548e-05   3.0899977e-05  -2.5644191e-05   1.0570217e-04  -4.5117718e-05  -8.0187732e-05   2.2387832e-04  -1.3928072e-04   7.0337854e-05   2.2112454e-04  -4.0094255e-05   4.2053248e-04  -1.2462314e-04   1.9285246e-04
  -3.4765762e-05  -8.0834856e-05   1.8686977e-05  -3.0248966e-05  -2.4974021e-05  -1.7028081e-04  -3.7369846e-05  -4.4726468e-05   4.9539991e-05   1.7772027e-04   2.7995056e-04  -1.8904262e-05   1.9182770e-04   9.4625924e-05   6.5667082e-05   8.3509534e-05   1.4272626e-04   8.8932262e-05  -3.2459525e-04   1.1950910e-04   8.1882114e-05   1.2495327e-04   1.5934501e-04   3.9172085e-04  -2.7950481e-04   5.8786343e-05   2.4978390e-05  -9.5602038e-05  -4.8272013e-05   4.5857785e-05   1.9650809e-04   3.1224178e-04  -1.3769242e-04   1.0737104e-04  -4.2465625e-05   8.4439789e-06   9.4194533e-05   2.9101850e-05  -4.9753333e-05  -4.4119573e-05  -2.1211388e-05  -9.7872187e-05  -6.6114670e-05  -4.4970313e-04   1.7754009e-04   1.8363165e-04  -5.0500315e-05  -1.8778072e-04  -2.0277885e-05   1.1008281e-04
  -5.3865013e-05  -6.8195965e-05   1.9019451e-05   1.0310691e-05  -7.3089941e-05  -1.2165396e-04  -1.2708774e-05  -1.9209365e-05   3.8134046e-06   1.7729544e-04   3.1727986e-04   8.1534425e-05   1.9074512e-04   1.3879276e-04   5.8221569e-05   8.6638131e-05   1.0860443e-04   8.1074548e-05   4.4249065e-04   1.4098438e-04   1.0594886e-04   2.0095385e-05   4.4164734e-04  -1.0601729e-04   5.6557677e-04  -1.0018705e-04  -4.0377827e-06  -3.3965296e-06   4.3697422e-05   4.5282941e-05   1.5260355e-04   7.7815734e-05   1.5315023e-04   1.1530290e-04   5.8112713e-05   4.8129850e-06   7.6466269e-05   4.4698158e-05  -4.4610417e-05   1.0431288e-04  -7.2520190e-05  -1.1002777e-04  -4.9766427e-04   1.0880029e-03   4.0646509e-04   1.4967642e-04  -5.2523967e-05  -6.4072534e-05  -1.3959711e-05   2.1930994e-04
   1.5646165e-04  -6.4211956e-05  -2.7102851e-06   4.1188196e-07  -7.1474693e-05  -1.0707383e-04  -3.4487097e-05   4.8744740e-05  -6.4581868e-06   1.5669316e-04   2.9789875e-04   8.2324128e-05   2.0149181e-04   1.5870651e-04   2.5317348e-05   1.0935446e-04   1.2228113e-04   9.8244403e-05  -2.1757426e-04   1.1323878e-04   7.6003191e-05   6.4420667e-05   2.7525058e-04   3.5152354e-04  -4.7832007e-05  -1.3934218e-04  -6.9608133e-05  -3.5538666e-05   6.0581187e-05   4.3800454e-05   1.5219695e-04   1.4504825e-04   2.6369892e-04   3.8200313e-05  -3.3682874e-05  -4.5078141e-05   1.2341543e-04   2.3677825e-05  -3.4415829e-05  -1.5850535e-04  -6.1443032e-05  -8.5415268e-05   1.7789663e-04   6.9189770e-04   2.4791560e-04   1.9073352e-04  -5.2069438e-05   9.2908936e-05   8.2364939e-05   1.7148977e-04
   8.2344282e-05  -5.3052634e-05  -2.1919381e-05  -2.0692576e-05  -1.1623518e-05  -1.8628030e-04  -8.5277956e-05  -2.3377981e-05   2.8121482e-05   1.4083719e-04   3.2184407e-04   7.2805924e-05   2.6469244e-04   2.3900348e-04   1.1590889e-04   1.0720161e-04   1.3650351e-04   1.0618455e-04  -2.0056903e-05   1.7253941e-04   7.5196644e-05   2.0790210e-05   2.1973503e-04   1.4772749e-04  -3.5696154e-04  -3.1148159e-04  -2.1920121e-05   1.0143430e-06   4.0872521e-05   5.3687800e-05   1.8623185e-04   2.3836490e-05  -1.9981786e-04   4.7132828e-05  -8.1778657e-05  -7.4450298e-05   7.9194615e-05   2.2207521e-05  -8.8063112e-05   1.0352983e-04  -5.6118010e-05   3.6605710e-05  -1.4842486e-04   3.1299522e-04  -6.6098786e-05   6.5311295e-05  -4.4864417e-05   3.0456821e-04  -3.0428456e-04   1.0057657e-04
   3.7447976e-06  -5.2174237e-05   6.6620334e-05   5.0356131e-05  -2.3353437e-05  -1.6572978e-04  -1.7122051e-05   3.4546629e-05   5.1761865e-05   1.4983353e-04   3.1108796e-04   9.5401680e-05   2.7558452e-04   2.0655678e-04  -8.6982946e-06   1.0406766e-04   1.5414019e-04   6.7905064e-05   1.3395776e-05   1.6401618e-04   9.3919589e-05  -6.0185030e-06   9.8932913e-05   3.2958548e-04  -4.4074945e-06   1.2456933e-04  -4.9255348e-05  -8.5659529e-05   8.5689622e-05   5.0750845e-05   5.9323418e-05   5.7847643e-05   2.9860961e-04   4.9162114e-05  -5.3577707e-05  -7.8123114e-05   1.1883706e-04   5.2526730e-07  -7.7646684e-05   1.1757368e-04  -2.0353624e-05  -1.8084829e-05  -4.0828297e-04   2.9632315e-04  -2.6151224e-04   3.1169201e-04  -6.1116720e-05   2.3355240e-04   2.9765557e-05   1.0047163e-04
  -2.4563809e-05  -4.4697827e-05   2.2217631e-04  -9.8153478e-06  -7.2123948e-05  -9.1783957e-05  -2.7851695e-05  -6.1364321e-05  -1.4186303e-04   1.1748460e-04   3.1764762e-04   7.5655909e-05   2.1472368e-04   1.4995559e-04   2.2855842e-05   9.3271134e-05   1.3973043e-04   7.1087881e-05  -5.0475821e-04   1.2941008e-04   6.0462793e-05   4.6394311e-05   3.1415327e-04   3.0784704e-05  -1.3348648e-04  -5.0135663e-05  -5.4421675e-05  -1.3900276e-04   6.4469132e-05   4.4595279e-05   1.3033772e-04   3.0913485e-05   4.3114868e-04   5.6703171e-05  -3.9168830e-05   5.5471537e-06   8.8772947e-05   9.4265688e-06  -1.5396309e-06   6.0445429e-05  -1.5253613e-05  -4.1181320e-06  -1.2633650e-04   4.9858831e-05   2.0124360e-04   1.0107595e-04  -7.0604137e-06   1.3338091e-04   2.7095425e-04   2.7761617e-04
  -6.3801039e-05  -6.1527222e-05  -1.1052146e-05  -1.8730258e-05  -3.3724784e-05  -1.3462326e-04  -4.7714162e-05  -7.8774610e-07  -8.0066427e-05   1.0531776e-04   2.8212881e-04   5.3294742e-05   1.9648251e-04   1.7597240e-04   1.1010661e-04   9.2695875e-05   1.5984022e-04   1.2215084e-04  -9.0040194e-05   9.4180723e-05   3.8049355e-05   2.5839045e-05   1.9985944e-04  -1.1021965e-04  -1.1179008e-04  -3.8545991e-06  -6.3002386e-05  -1.3335508e-05   3.5106750e-05   5.6676508e-05   9.8137949e-05   2.3729351e-04   3.7542966e-04   8.2914390e-05  -2.9084074e-05  -1.1434424e-05   7.3712137e-05   2.8348479e-05  -5.8021466e-05  -2.1803228e-04  -6.8705427e-05   1.1498475e-04  -2.7433925e-04  -3.7701562e-04  -3.0571577e-04   7.4066404e-05  -2.0554653e-06  -8.1479353e-05   7.7741621e-05   1.9619911e-04
   9.2111742e-07  -6.2034786e-05   9.4798277e-05   6.6751159e-06  -2.3963024e-05  -1.5463779e-04  -5.1104991e-05   1.5574398e-04  -1.3886033e-04   1.1728192e-04   3.0745906e-04   9.8967357e-05   2.0862960e-04   2.4572125e-04   6.7511530e-05   1.1023857e-04   1.4458387e-04   1.0170772e-04   2.6012695e-04   1.6888502e-04   7.7386670e-05   8.1654172e-05   2.5443683e-04   1.7810181e-04   4.1170354e-04   2.8045932e-05   6.6702451e-06   4.3735792e-05   1.8620363e-05   5.5168908e-05   1.6231823e-04   1.8199201e-04   2.5460849e-04   8.5834334e-05   3.7697453e-05  -2.1758300e-05   1.1495722e-04   3.9969244e-05  -1.6087702e-06   2.6382695e-04  -8.4172774e-05  -4.3485885e-05  -1.1289783e-04  -5.4291205e-04   2.4006033e-04   1.2188090e-04   3.8088951e-05   1.6350150e-05  -3.1761048e-04   2.4398441e-04
   2.8066846e-04  -4.7083366e-05   2.2454034e-05   3.0601404e-05  -2.1156970e-06  -1.1870653e-04  -7.5198218e-06   6.9897796e-05   4.6504694e-05   1.1888626e-04   2.8827280e-04   1.2618446e-04   2.4730881e-04   1.8887510e-04   3.0725954e-05   1.1380899e-04   1.4153271e-04   1.0790570e-04   8.5826483e-05   1.5463142e-04   7.3678100e-05   1.2607398e-04   1.1585595e-04   1.5213169e-04   1.8721003e-04  -1.6955474e-04  -2.2508548e-06   9.5961637e-05   3.5784880e-05   7.4731033e-05   7.0809940e-05   1.4267470e-04   2.4325987e-04   1.0964999e-04   1.2459319e-05  -3.8417566e-05   1.2891673e-04   2.2376313e-05  -8.5549960e-05   2.4446592e-04  -3.2406260e-05  -1.8547947e-04   5.3021042e-05   5.7089876e-04   1.7901964e-04   2.1743130e-04  -6.7170213e-06  -3.6310524e-04  -9.5259202e-05   1.8405831e-04
   1.0405603e-05  -6.4322521e-05  -1.5068348e-04   4.0058720e-05  -1.5144139e-05  -1.1128228e-04   6.0683433e-06   2.5683689e-06  -1.0795478e-04   1.3037966e-04   2.5665987e-04   8.2083992e-05   1.6253516e-04   1.5160114e-04   1.4323561e-04   1.0069656e-04   1.2194805e-04   5.6327881e-05   9.1039401e-05   1.2237304e-04   5.8344482e-05  -5.1519459e-05   1.5054822e-04  -1.0907793e-04   2.3922061e-05  -1.1571432e-04  -9.9367244e-05   1.2874771e-04  -5.3966483e-05   4.7722031e-05   1.0676223e-04   9.7898221e-05   1.1812946e-04   4.9449569e-05  -8.6043976e-05   2.9039689e-05   9.8960205e-05   6.5673281e-05  -1.1580009e-05   7.6895281e-05  -5.5261185e-05   1.3951576e-04   2.5729809e-04   7.0854824e-04   1.3151492e-05   8.8346511e-05  -1.5647453e-05   5.2484276e-04   2.6923686e-04   1.4504649e-04
   5.7299778e-05  -6.4599008e-05  -5.0466821e-05  -2.3745113e-05  -4.8170739e-05  -5.8944945e-05   5.9482413e-06  -4.1330855e-05  -2.9702709e-05   1.7201770e-04   2.3770446e-04   2.5262507e-05   1.3981803e-04   1.3706191e-04   3.9039649e-05   9.0462796e-05   1.1365650e-04   6.8631409e-05   2.3027709e-04   1.1438851e-04   1.1790602e-04   1.6569448e-04   2.5849417e-04   6.4165251e-05  -5.0486819e-06  -1.9293356e-04  -2.3968178e-06   6.6915651e-05   2.4897128e-05   6.4050953e-05   1.5644665e-04   2.2323018e-04   1.1422146e-04   1.2832858e-04   2.8890856e-05   4.0396935e-05   8.2729675e-05   3.0060597e-05  -1.5606205e-05   3.1167251e-04  -7.3598705e-05  -9.6286167e-05  -1.4750191e-04  -1.1200128e-03  -3.7035925e-04   2.5610056e-05  -6.5142908e-06   4.2677586e-04  -1.5456244e-04   1.1428355e-04
   7.0299917e-05  -5.1324427e-05  -6.5920562e-05   5.3747561e-05   4.0560740e-06  -9.0815520e-05   3.2157412e-05  -4.6079022e-05  -2.5946611e-05   1.8813182e-04   2.2739191e-04   1.1514010e-04   1.5114427e-04   1.1244470e-04   5.7160949e-05   7.8822690e-05   1.1757310e-04   7.5165284e-05   1.6191253e-04   1.1778760e-04   1.0058430e-04   9.1609669e-05   3.5479793e-04   3.6265794e-04  -3.0261040e-04  -3.2315507e-05  -3.1761487e-05   9.6719712e-05   1.6976202e-05   6.8562447e-05   2.2648399e-04   1.4534095e-04   2.7615207e-04   1.0108822e-04  -2.8669854e-05  -2.2991118e-05   1.2205370e-04   4.8856436e-05  -4.1816154e-05   1.8575513e-04  -1.3863986e-06   1.5811582e-05  -7.2774623e-05   6.0356018e-04  -5.1148498e-04   2.2399996e-04  -2.7476768e-05   2.1901928e-04   3.0924071e-04   1.5256916e-04
   1.0082356e-04  -4.8945021e-05  -7.1462833e-05   4.2214724e-05  -2.1651404e-05  -4.1864070e-05  -2.0041407e-05  -6.5775064e-05   2.4105759e-05   1.9123244e-04   2.2047956e-04   1.2057502e-04   1.0065784e-04   1.3974035e-04   7.4804811e-05   8.1210332e-05   1.1679961e-04   8.4596126e-05   1.2524334e-04   1.1093315e-04   7.0715607e-05   8.4377716e-05   3.7829548e-05   1.1714025e-04   6.4278203e-05   7.5960859e-05   1.2927871e-05   1.4703440e-04   9.0190530e-05   6.3800660e-05   1.8225996e-04   4.9679488e-06   2.5316686e-04   1.7416468e-04   8.6692184e-05  -4.7457339e-05   8.4231717e-05   4.6052850e-05  -8.3678721e-08  -8.5154488e-06   1.2718567e-04   1.4972528e-04  -1.2375515e-04  -1.3784476e-03  -7.8834222e-05   2.5045706e-04  -5.4792537e-05  -4.1439424e-05  -1.5657870e-04   1.6542427e-04
   2.3203833e-05  -5.2667150e-05  -2.4872414e-05   2.0947924e-05   2.1298078e-05  -7.8882258e-05   1.3336159e-05   4.4331191e-05  -3.2843222e-06   1.7229638e-04   2.0784837e-04   5.9267266e-05   1.3542458e-04   1.7793963e-04   3.5180587e-05   9.4221577e-05   1.3762891e-04   6.5533291e-05   5.2799365e-05   9.8645178e-05   9.4371244e-05   1.9473860e-05  -2.6704522e-05  -1.8975004e-05  -2.1278624e-04  -1.3122131e-04  -2.2419805e-05   1.0289088e-04  -9.4138770e-05   7.2816067e-05   1.3019081e-04   9.7047479e-05   2.7054746e-04   4.9775019e-05  -3.4470184e-05   1.4742449e-04   9.9579003e-05   5.3276886e-05  -4.0001785e-05   7.2327151e-05   3.8435392e-05   9.5250616e-05   3.5044778e-04   9.3816262e-04  -4.2820873e-05   1.6061404e-04   3.8442777e-05   6.6456094e-05   2.8504033e-04   5.6915549e-05
   6.1864237e-05  -1.6938884e-05   8.2462473e-05   7.0841816e-05   4.1066185e-05  -7.5302523e-05   5.8246405e-05  -4.1566958e-07  -1.0447560e-04   1.8821623e-04   2.6932423e-04   1.3087883e-04   1.7557753e-04   1.2897326e-04   5.1661442e-05   9.5942865e-05   1.4158261e-04   8.3323263e-05   5.4497912e-04   1.5298699e-04   1.2563619e-04   8.6824557e-06  -1.6201833e-05   1.9683351e-04   7.3648240e-05   3.9327933e-05  -1.6086677e-05   1.6701249e-04   9.5478863e-05   6.0852097e-05   7.3022427e-05   1.1169150e-04   2.0798284e-04   1.2697229e-04   8.2602863e-05   5.5472268e-05   1.9986501e-04   5.4357937e-05  -3.4351873e-05   1.4963686e-04   1.1468311e-04   7.6509023e-05  -1.0754892e-04  -4.4860397e-04   3.9271399e-04   2.6783879e-05   1.6687636e-05  -2.3597475e-04   6.4614913e-05  -8.0908382e-07
   1.3569082e-04  -2.7495753e-05  -1.0620752e-04   4.2289274e-05   5.6580775e-05  -6.5275235e-05   1.3531076e-05   9.1096874e-05   2.1736213e-09   2.6392096e-04   2.3558753e-04   9.2338531e-05   1.3394015e-04   9.1071328e-05   5.2815834e-05   6.9294489e-05   1.2416785e-04   4.4030076e-05   1.9623501e-04   1.3846596e-04   1.3889524e-04   1.4312971e-05  -4.6009380e-05  -3.7357226e-04  -4.6623572e-05  -5.8546564e-05   1.2010977e-04   1.8829663e-04   9.6073505e-05   6.8574329e-05   1.9343241e-04   1.6210690e-04   3.5548329e-04   7.8735036e-05   3.9169568e-05   3.2100070e-05   1.1465250e-04   5.0834766e-05   2.6980135e-05   7.4155949e-05   2.8616781e-05   2.5985442e-04  -2.3271177e-05  -4.9367949e-04  -2.2386712e-05   2.1599099e-05  -7.4267227e-06  -1.5973079e-04   2.5344553e-04   3.4700657e-05
   1.1487371e-04  -4.2367737e-05   1.2560647e-04   5.0857303e-05  -2.5948608e-05  -6.3579573e-05   5.4404441e-06   3.5381912e-05  -4.0120234e-05   2.0825714e-04   2.0012647e-04   6.1384009e-05   1.0899177e-04   1.3890801e-04   1.7040192e-04   8.4847394e-05   1.6019563e-04   7.0594971e-05   1.4736730e-04   1.3325331e-04   1.2164572e-04   1.1967077e-04   4.7535432e-04   6.8868852e-05  -2.1947070e-04  -8.2043880e-06   5.1512514e-05   3.2434240e-04   1.1296485e-04   5.2683466e-05   1.4961636e-04   4.0461373e-04   2.2883993e-04   3.5952507e-05   1.3949235e-04   1.1271257e-04   1.6317413e-04   8.3846644e-05  -1.7042174e-05   4.3416549e-05  -2.6509335e-05   6.7497604e-05  -1.1867100e-05  -1.5572946e-04   1.4136311e-04   1.7760227e-04   6.3025560e-05  -3.7500482e-05   1.1612821e-04   1.1360262e-04
  -1.2543419e-04  -3.3649067e-05   7.6077056e-05   7.1129631e-05   1.1875403e-05  -9.8635013e-05  -8.2115394e-06  -2.1295840e-05   1.5856103e-05   1.9473355e-04   2.3892928e-04   1.1590838e-04   1.6669261e-04   1.2970099e-04  -2.9440211e-05   9.5908625e-05   1.5161783e-04   7.5890384e-05   2.0091816e-04   1.7061162e-04   1.2630259e-04   1.4032956e-04  -1.8815692e-05   2.1700382e-04   1.6410248e-05   4.1662919e-05   6.9746908e-05   1.9560542e-04   9.0379704e-05   6.5056091e-05   6.4268825e-05   3.0203033e-04   3.0248446e-04   9.7232049e-05   1.3621566e-04   2.1338009e-04   1.4674859e-04   3.7624348e-05  -1.3045102e-05  -1.6337664e-05   4.1182862e-05   1.8482695e-05   4.5975135e-05   1.5549379e-04   3.4860356e-04   1.0404661e-04   1.3825691e-05   3.4029191e-04  -1.5668203e-04   7.4255753e-05
   2.1487856e-04   3.1968028e-07   5.6327826e-05   3.4823079e-05   6.1354899e-06  -6.6971821e-05  -1.1354844e-05   4.3161333e-05  -2.7017293e-07   1.5440868e-04   2.2572841e-04   9.7712706e-05   1.8813304e-04   1.7451256e-04   5.8796202e-05   1.0047416e-04   1.5195693e-04   8.8681860e-05   7.5267502e-07   1.8419858e-04   1.3398830e-04   1.4630522e-04   1.0807484e-04   1.4009370e-04   2.1935049e-04   3.9018323e-06   2.8973102e-05   5.4969714e-05   1.2909810e-04   5.4350865e-05   1.1588979e-04   2.3630247e-04   1.4346697e-04   3.0277673e-05  -2.1127282e-05   3.3154531e-05   8.1369602e-05   4.3081520e-05  -2.5189780e-05   9.2431656e-05  -8.7491055e-05  -7.2121140e-05   3.0677944e-05   5.8166252e-04   4.5186075e-06   1.7406775e-04   3.1007534e-05   2.6041819e-04   3.4114820e-04   4.0477986e-05
   1.2420349e-04  -8.9067462e-06   3.9680897e-05   4.3402957e-05   5.4886783e-05  -4.9639268e-05  -3.4823093e-05  -8.3660971e-06  -1.2995645e-04   1.2068843e-04   1.9742751e-04   4.7182668e-05   1.4376329e-04   1.6107691e-04   9.2289687e-05   1.1474599e-04   1.6458891e-04   7.9286525e-05  -3.7581401e-04   1.2592309e-04   4.7487854e-05   4.7248614e-05  -7.3706251e-05  -2.2769377e-04  -1.1520164e-04  -2.8951978e-04   5.4586173e-05   1.8994683e-04   8.4368025e-05   8.5483509e-05   9.3027535e-05   2.3447636e-04   3.7799354e-04   6.7166766e-05   5.2298885e-05   3.6324823e-07   1.8375790e-04   6.9352776e-05  -2.4265428e-05   2.7595208e-05   1.7610064e-05   3.8751215e-05  -1.7723463e-04   7.8262360e-04   2.9968913e-04  -3.1172451e-06   6.1558552e-05  -2.6921164e-06   2.4539829e-04  -2.5396153e-06
  -9.6863529e-05  -2.9588607e-06   1.5988068e-04   3.9332095e-05   1.8251822e-05  -2.8692188e-05   5.1229377e-05   2.1516867e-05   5.0944058e-05   1.3936326e-04   2.1386868e-04   2.2563632e-05   1.2950935e-04   8.6620828e-05   7.2227886e-05   9.8688135e-05   1.4090337e-04   7.8890582e-05  -3.4719385e-05   1.3455235e-04   9.0754264e-05  -8.8207460e-05   3.8641677e-04  -2.4319961e-04   3.9527533e-04  -6.7908819e-05   3.8697111e-05   1.2115422e-04   7.6258129e-06   7.3988012e-05   2.2234253e-04   3.1604874e-04   2.0277940e-04   6.2152896e-05   1.8549154e-05   6.6072600e-05   9.3771669e-05   4.4227607e-05  -1.9579558e-07   1.3532442e-04  -6.9303620e-05   5.8029578e-05  -2.2408100e-05   6.6245423e-04  -1.6212378e-05   1.6420473e-04  -2.6956799e-05   2.0848168e-04   4.5710385e-05   7.3295751e-06
   1.9347582e-04   9.6777731e-06  -4.1421317e-05   6.4466825e-05  -1.2652615e-05  -1.0975516e-05   1.6691885e-05   3.8435079e-05   1.8993494e-04   1.2182461e-04   1.8614542e-04   6.1880870e-05   8.3354818e-05   1.1154328e-04   2.6718606e-05   8.1342194e-05   1.4719345e-04   7.0192626e-05   9.0925932e-05   1.0775423e-04   8.1268292e-05   7.6048171e-05  -1.0349999e-04  -1.0686483e-04   1.6165320e-04   1.8357184e-04   2.8075698e-05   9.4385003e-05   1.1883466e-04   5.6627279e-05   2.1055188e-04   2.0854163e-04   3.0518963e-04   1.0425204e-04   6.6413661e-05   7.0743416e-05   9.8526769e-05   8.6192900e-05   1.6939839e-05   6.3390638e-05   8.7639033e-05  -2.4070418e-05  -9.9437151e-05  -6.4457563e-05   3.3584179e-04   1.8425449e-04   1.0575984e-05   1.2339736e-04   1.8536492e-04   1.5332649e-04
   1.5897022e-04   8.0621504e-07  -3.2062781e-05   5.2934221e-05   3.4954781e-05  -8.7447122e-05  -5.9921013e-06   8.6644451e-07   7.5690696e-05   1.2517684e-04   1.5216222e-04   2.7688144e-05   9.2486123e-05   9.7183372e-05   6.0418661e-05   8.6072985e-05   1.2662410e-04   8.6160035e-05   2.3448118e-05   1.1154662e-04   5.6025347e-05   1.2716268e-04  -1.7981400e-04  -1.9181232e-04  -1.7118896e-04  -1.6598461e-06   9.1073358e-05   1.5071554e-04  -3.1794750e-06   8.0322374e-05   2.2768558e-04   9.7887234e-05   1.5731837e-04   5.6229419e-05   1.2452380e-05   7.0425587e-05   1.8062539e-04   6.8991831e-05   2.5482925e-05   1.7786297e-04  -4.1101443e-06   1.4795300e-04  -1.7366253e-04  -5.0222338e-04  -2.5895308e-04   8.7782711e-05   5.7249541e-05   9.6030461e-05   2.3227486e-04   8.0669481e-05
   1.0909999e-04  -1.3437849e-05   1.0425993e-04   4.0601011e-05  -1.7988270e-05  -4.8753198e-05   2.7147385e-05  -1.0673311e-05   2.3525470e-05   1.3708048e-04   1.5052897e-04   2.1878519e-05   8.8737965e-05   8.4616797e-05   1.8684252e-05   7.9532707e-05   1.0990821e-04   1.1769026e-04  -4.5052344e-05   8.5302658e-05   9.9260542e-05   1.7510286e-04  -2.1704845e-05   3.3857860e-04   2.4901572e-04   1.9307919e-04   9.3907780e-05   2.2001144e-04   3.1065698e-05   7.6679011e-05   1.3350941e-04   8.3700812e-05   1.5684406e-04   1.5310574e-04   1.2552136e-04   2.8941900e-05   1.2657358e-04   5.9709055e-05   1.9853227e-05   1.7097758e-04   1.0225830e-05   1.1646844e-04   1.6909124e-05  -7.7934720e-04   1.6023424e-04   1.6383853e-04   3.0693853e-05   1.5667637e-04   2.4831292e-04   2.6488808e-05
   2.0659016e-04  -1.5555972e-05   1.9242348e-04   5.7444897e-05   5.6438086e-05  -5.6649464e-05   6.4403379e-05  -3.6987865e-06   2.1899030e-04   2.1434204e-04   1.4577838e-04   2.6509169e-06   3.5997353e-05   5.4948352e-05   7.6080498e-05   9.0944450e-05   6.1662467e-05   1.1351101e-04   4.7928414e-05   1.0580950e-04   1.2507357e-04   3.5461264e-05  -2.8820639e-04  -7.2582799e-05  -5.9634836e-05  -2.8507471e-05   3.9328530e-05   2.4867879e-04   1.3884530e-05   4.4425491e-05   1.6281447e-05   2.2908875e-04   1.9411476e-04   1.1774896e-04   7.9723373e-05   5.1165593e-05   8.4981824e-05   5.3166525e-05  -2.0953055e-05   4.8783764e-05   9.7484135e-06   2.4580846e-05   8.1607732e-06  -5.3769187e-04   1.7842725e-04  -4.0223476e-05  -2.8373383e-05   1.4056296e-04   1.4917731e-04  -1.6014394e-05
   1.9221702e-04  -9.6083504e-06   7.5829281e-05   1.4037516e-05  -5.2956020e-06  -2.8287626e-05   1.5717560e-05  -7.6039607e-05   2.0047875e-04   1.2761568e-04   1.2403858e-04   3.9662260e-05   4.2891919e-05   9.0413087e-05   2.1743046e-05   7.3149589e-05   9.5873089e-05   3.3863846e-05  -1.6462158e-04   9.5629628e-05   9.3174065e-05  -6.4474683e-05  -1.6632224e-04  -4.8458437e-04  -5.2640917e-05  -1.3514279e-04  -1.4589173e-06   2.1963810e-04   7.5967349e-05   7.4329437e-05  -4.3621167e-06   2.7336139e-04   1.3693485e-04   6.8152855e-05   7.2219453e-05  -1.5795807e-05   1.0193112e-04   2.9361268e-05  -1.4238638e-05   7.2938456e-05   4.4348908e-05  -1.4817189e-04  -3.9609582e-05   2.8933643e-04   3.5070479e-04  -6.6005472e-05  -6.6498651e-05   3.2683081e-05   2.8333138e-04   1.8738769e-05
   1.2739167e-04   1.7258482e-05   6.3988526e-05   3.0275412e-05  -1.5889635e-05  -3.6714930e-05   2.3630355e-07   4.8190109e-06   3.8164745e-07   1.0651235e-04   1.5118845e-04   6.1151492e-05   6.2281128e-05   1.0345188e-04  -1.1804169e-05   8.5872496e-05   1.1604605e-04   1.0860448e-04   5.0799781e-04   1.2922249e-04   9.8464006e-05   3.8284186e-05   9.5442520e-05  -4.9362327e-05   3.4862119e-04   2.3901839e-04   1.3775865e-05   2.5244251e-05   8.2410654e-05   5.1833849e-05   1.4618096e-04   1.6093579e-04   1.5357295e-04   1.0503204e-04   7.5799697e-05   6.8057139e-05   1.6649645e-04   6.9197959e-05   4.9142564e-06   6.2156156e-05   3.7643331e-05   1.3218218e-05  -1.6678617e-04  -7.6316658e-04   2.7826079e-04   1.9052283e-04  -1.8244178e-05   3.5969247e-04   2.5023633e-04   4.5065626e-05
   2.6113013e-04   1.8388002e-05  -6.3951768e-05   6.3625354e-05   2.2118284e-05  -1.8492419e-05  -3.7090867e-05   3.4475383e-05   2.5487478e-05   8.0810059e-05   1.5888875e-04   9.1086331e-05   9.8804041e-05   1.2061275e-04   1.2744530e-04   1.0566077e-04   1.4946680e-04   1.5342842e-04   1.6778191e-04   1.1792956e-04   8.7623157e-05   1.1189266e-04   3.4552912e-04   3.2486251e-04   9.0808142e-05  -1.4933241e-05   8.3716724e-05   2.0690709e-04   1.1561135e-04   6.5828957e-05   2.0970618e-04   2.8930043e-04   3.0043793e-05   1.1282392e-04   9.8858407e-05   6.9342372e-05   1.1451937e-04   6.8702313e-05  -8.3352370e-06   1.6937885e-04   1.6527176e-05   1.3954975e-04  -2.7104883e-05  -3.8169211e-04   6.6123517e-05   1.4160406e-04   1.6885875e-05  -9.4934097e-05  -6.0920454e-05   3.5309174e-06
   6.4649888e-05   1.7756076e-05   1.7355557e-04   2.9529090e-05   4.3445260e-05  -1.1907772e-04   6.2905165e-05   3.1919782e-05   9.2509545e-05   8.2417660e-05   1.4707881e-04   6.0105500e-05   1.0366712e-04   1.4216211e-04   4.9767310e-05   1.2725979e-04   1.4003929e-04   9.1656148e-05  -4.1366852e-06   1.4093316e-04   8.3895524e-05   1.4835296e-05  -1.4578902e-04  -5.3183694e-04  -6.7464360e-05   5.4688768e-05   9.4728734e-05   2.0148186e-04   8.5459593e-05   6.3313062e-05   1.5441484e-04   2.4733838e-04   3.1546902e-04   5.1135492e-05   3.1215204e-05   6.2220854e-05   1.4964704e-04   6.0206319e-05   3.5724428e-05   7.4461423e-05  -9.4498346e-06  -4.6599274e-05  -2.8373403e-04   7.7006081e-04   6.0583238e-04   1.1668044e-04   4.4692439e-07  -2.4807649e-05   7.5326498e-05   4.2018968e-05
   1.3011340e-04   2.8453711e-05   9.5305622e-05   9.6978729e-05   2.0841573e-05  -6.7191337e-05   3.0759391e-05   2.8917068e-05   4.2498574e-05   6.9788082e-05   1.8308527e-04   1.5587520e-04   1.4377425e-04   1.9770532e-04   1.1824012e-04   1.2223523e-04   1.8583123e-04   1.4177240e-04  -5.9201942e-05   1.5090048e-04   1.1242840e-04   5.4379012e-05   2.6058074e-04   1.2870015e-04   4.5249879e-04  -3.9235263e-05  -5.4105499e-06   1.7597413e-04   1.1357724e-04   4.1304611e-05   1.4005357e-04   2.9588610e-04   3.6794713e-04   5.2332667e-05   1.3739067e-04   2.0537756e-05   1.8319776e-04   6.1778555e-05  -2.5641668e-06   1.7088957e-04  -6.2112616e-05  -4.5998166e-07   1.6557843e-04   9.6963026e-04   4.7269548e-04   3.2054598e-04   7.8430521e-06  -1.6713935e-04  -1.5800180e-04   1.3892593e-04
   2.0591104e-04   3.8601262e-05   1.2690092e-04   5.5255365e-05   3.8552713e-05  -8.1818471e-05  -1.9350329e-05   4.9868886e-05  -9.4639683e-05   4.9840917e-05   1.8540288e-04   8.4503481e-05   1.7522508e-04   1.6928973e-04   3.6215493e-05   1.2239684e-04   1.8097521e-04   1.1607957e-04   2.9557964e-04   1.4581249e-04   5.2692034e-05   6.5573957e-05   1.8955872e-04   6.4772823e-05   7.2980771e-04   7.2406889e-05   2.0674295e-05   8.2809885e-05   1.1108034e-04   4.8608163e-05   1.3826354e-04   2.6074128e-04   1.7197026e-04   5.1475592e-05   5.7671659e-05   8.7146465e-05   1.8462392e-04   7.7553777e-05   2.1945525e-05   3.4758332e-04  -3.1229723e-05   7.3112322e-05  -1.7440967e-04  -1.1228321e-03   7.1283570e-04  -4.2154630e-07  -2.1022362e-05   2.6256542e-04   2.6916779e-04   6.2092346e-05
   3.2672868e-04   3.9925195e-05   1.4881742e-04   2.6803405e-05   6.3953316e-06  -1.2268644e-04   2.8656375e-05   5.7484660e-05  -1.2087579e-04   1.4798753e-05   1.5365891e-04   3.7147522e-05   1.5016249e-04   2.2086651e-04   3.9116338e-05   1.2637224e-04   2.1892924e-04   1.2685840e-04  -1.5773610e-04   1.4773970e-04   5.9427162e-05  -4.6143946e-06  -1.7987980e-04  -2.6986154e-04   3.6331030e-04   9.2067276e-06  -2.5475420e-05   1.0736213e-04   1.8213678e-04   5.9703380e-05   1.3523939e-04   2.1181510e-04   2.0959678e-04   9.4579727e-06   6.8474954e-05   1.2988937e-05   1.8255229e-04   6.0235976e-05  -1.5080112e-05   5.5326560e-05   5.1446470e-05   4.0812989e-05  -6.1536470e-05   1.0215389e-04   2.4920216e-04   1.7254335e-04   4.4250824e-05  -2.8563777e-04   1.9549298e-04   1.7278061e-04
   2.2329557e-04   4.8640271e-05   6.1303705e-05   6.2856132e-05   9.3704384e-06  -1.6297310e-04   8.7912900e-05   6.9024987e-05   7.1538205e-05   2.0633641e-05   1.7396976e-04   1.3819212e-04   1.7169966e-04   2.1208018e-04   7.5826632e-05   1.2220316e-04   2.1955030e-04   1.1359691e-04   1.4636532e-05   1.5240841e-04   7.3071205e-05   1.5003873e-04  -2.4126459e-06   5.0237210e-04   1.8538389e-06   1.6767842e-04   6.5085442e-05   1.2479763e-04   8.7564418e-05   7.5449680e-05   1.7207427e-04   3.6045164e-04   1.3163123e-04   1.9170986e-05   4.1030657e-05   9.0581532e-05   1.5650960e-04   8.0164216e-05  -6.6468594e-05  -2.5593719e-04  -1.5701642e-06  -1.5553029e-04  -3.0872765e-05  -2.0374283e-04  -1.4041975e-04   2.8737492e-04   1.8462219e-05  -1.3462415e-04  -2.2302657e-04   1.3326685e-04
   2.1743921e-04   3.8457911e-05   1.8453188e-04   6.3292064e-05   5.0922365e-05  -3.9206792e-05   6.1213861e-05   6.3429165e-05   5.8671023e-05   4.0246632e-05   1.6397993e-04   8.4364990e-05   2.0528582e-04   1.4423972e-04   6.0574515e-05   1.3730388e-04   2.0306342e-04   1.2949454e-04   2.6262680e-05   1.5574992e-04   6.9148518e-05   4.9622067e-05   1.2767299e-04   3.3185782e-04   3.3355615e-04   9.5074392e-05  -4.6490763e-06   1.0347436e-04   1.7443906e-04   6.5594788e-05   1.2983265e-04   2.1803899e-04   2.0293467e-04   6.0606358e-06   3.8252609e-05   1.0873368e-04   1.4804391e-04   9.3900679e-05  -9.1332877e-06   7.1107184e-05  -6.7500943e-05  -1.3909613e-04  -7.3626736e-04  -3.3026468e-04   4.9363251e-04   2.0807004e-04  -1.2053843e-05  -1.4143252e-04  -4.2051583e-05   5.2647189e-05
   9.3783099e-05   3.5032288e-05   8.7994216e-05   7.7062999e-05   6.9695794e-05  -1.0339255e-04  -4.6557696e-05  -8.6733198e-06  -6.5599495e-05   4.5527911e-05   1.4115573e-04   2.1431337e-05   1.2536153e-04   2.0847737e-04   6.0605023e-05   1.2938197e-04   2.4241109e-04   1.1221963e-04   7.2477218e-05   1.4284739e-04   1.1050324e-04   1.4452261e-04  -5.1208681e-05  -3.1676769e-04  -1.2048094e-04   1.8319361e-05   5.3870477e-05   1.1488181e-04   1.6855710e-04   6.3703934e-05   2.1153208e-04   3.7863231e-04   6.3791798e-05   1.0077474e-04   1.2615124e-04   1.1530647e-04   1.3839779e-04   9.4235489e-05   3.4071796e-05   2.5375120e-04  -2.8165870e-05   1.4820292e-04   1.4602678e-04   8.8998483e-04   2.3026644e-04   5.7827787e-05   8.7294547e-06  -4.3097581e-04  -2.7308537e-04   2.6168978e-05
   1.9875773e-04   1.1087855e-05  -8.5009458e-05   7.2768431e-05   5.0285280e-06  -1.0230346e-04   4.6135239e-05   7.7878445e-05   6.2211599e-05   3.7918704e-05   1.3958955e-04   1.4654483e-04   1.1855082e-04   1.4269666e-04   1.1178612e-04   1.0857727e-04   2.3715441e-04   1.4104495e-04  -3.5540401e-05   1.4418557e-04   1.4407112e-04   2.4507268e-04   2.2577416e-04   3.2677519e-04   3.1168008e-04   6.8646317e-05   3.3245455e-05  -6.1027713e-06   3.7310987e-05   7.2015049e-05   1.4713456e-04   2.1999510e-04   3.8050220e-04   1.1711794e-04   7.1328177e-05   1.4558781e-04   1.2272259e-04   1.0227713e-04  -1.4443458e-05   1.5431692e-04  -2.7824379e-07  -1.3357765e-04  -3.2901482e-04   2.8756057e-04   3.1636623e-04   2.8438211e-04  -5.5465789e-05   5.4143276e-04   1.9924827e-04   2.1191030e-05
   6.2555744e-05   3.0553267e-05   4.4281511e-05   6.2694933e-05   8.5973415e-06  -3.5052410e-05   3.3100157e-05   7.0499555e-05  -1.5233686e-04   4.6092351e-05   1.3891479e-04   7.5834316e-05   1.5200120e-04   1.6186024e-04   9.2877533e-05   1.2880948e-04   1.7095280e-04   7.6031531e-05  -9.7114433e-05   1.3557295e-04   1.2121240e-04   6.0100443e-05   1.6196190e-04   2.4945862e-04   3.5368103e-05   5.9706272e-05   2.2900545e-05   5.5600831e-05   7.3625459e-05   7.1875693e-05   1.6807404e-04   3.0127988e-04   1.4122049e-04   6.7656874e-05   5.4493790e-05   7.7529687e-05   1.1077155e-04   7.9819038e-05   1.8361468e-05   1.8014092e-04  -4.9177561e-05  -2.6150036e-04  -2.5674144e-05  -3.4783277e-04   1.6088966e-04   1.1273151e-04  -5.3932868e-05  -4.0121953e-04   1.2632142e-04  -4.6030950e-06
   1.7164600e-04  -3.2305340e-06   4.2308209e-05   1.6995778e-05   1.1316703e-05  -5.1344825e-05   1.6390304e-05   1.4142490e-04  -1.8118387e-04   4.1662108e-05   1.1417245e-04  -2.0200554e-05   1.3808275e-04   1.1760054e-04   6.4294218e-05   1.2897790e-04   1.7341743e-04   7.4848678e-05   6.3784610e-05   1.3156200e-04   7.8020057e-05   4.2158335e-05  -8.9940178e-05   3.1945363e-04   4.9592541e-05  -2.6610642e-05   2.5588146e-05   1.7732350e-04   5.7884838e-05   9.9553785e-05   4.4626140e-05   2.0748735e-04   6.4163789e-05   3.7526970e-05   5.5369921e-05   2.6817486e-05   1.3046202e-04   7.1620096e-05  -8.8226561e-06   9.2992777e-05  -1.0747397e-04  -6.4554886e-05  -1.0694641e-04   3.2325435e-04  -4.2344094e-04   3.8774245e-04   2.1631713e-06  -2.6652249e-04  -1.7667156e-04   1.7773719e-04
   2.9344723e-04   5.1103093e-06   1.5738989e-04   6.0600309e-05  -2.9012101e-06  -1.2392283e-04  -1.6484668e-05   3.6145044e-05  -1.0261856e-04   1.0057783e-04   1.7126644e-04   8.7879278e-05   1.7255764e-04   1.9357067e-04   9.6559728e-05   1.0524048e-04   1.5483941e-04   6.4211614e-05   2.9557513e-04   1.4522950e-04   7.4866432e-05   3.6083664e-05   1.7841498e-04   4.4920549e-04   1.3514764e-04  -2.5676292e-05   1.4542054e-05   1.5874156e-04   4.6730906e-06   7.4844567e-05   1.8266355e-05   2.2409289e-04   2.8943273e-04   4.5034441e-05   1.1307222e-04   3.6095767e-05   9.5304917e-05   6.6852466e-05  -2.7368211e-05   8.3347761e-05  -1.3867157e-04   8.8969835e-05  -3.2194942e-04   1.6997432e-04  -2.7338538e-04   3.7168662e-04   8.6424707e-06   2.2521573e-04   1.5582169e-04   8.2906685e-05
   1.1206211e-04  -2.2177690e-05   7.4443960e-05   5.2716186e-05   1.4038528e-05  -1.1220968e-04   3.9521674e-05   1.5745945e-05  -1.4100513e-04   3.5389334e-05   1.4053291e-04  -3.1638829e-06   1.5310604e-04   1.9558976e-04   1.2379895e-04   1.3912458e-04   2.1949442e-04   8.3684186e-05   2.9479092e-04   1.6033540e-04   3.6723904e-05  -3.7482012e-05  -2.4013516e-05  -1.8102092e-04  -2.2399730e-04   1.3063737e-04   4.2533899e-05   1.1346630e-04   4.5711124e-05   5.3121621e-05   1.1605430e-04   1.1321585e-04   1.0987079e-04   5.6882564e-05   8.3353712e-05  -5.9375936e-05   1.4657226e-04   6.7503977e-05  -3.6020334e-05   1.4909738e-04   1.5684554e-05   8.1787366e-05   1.9279328e-04  -6.9194229e-04   1.6278525e-04   2.2211600e-04  -1.5276481e-05  -2.2129770e-04  -2.5889222e-04   3.9033985e-05
   2.3878577e-04  -3.2695283e-05   6.0106086e-05   2.3678417e-06   4.7067293e-05  -1.2834504e-04   6.9014000e-06  -5.2000287e-06  -1.4799544e-04   2.7909791e-05   1.2048498e-04  -2.9373214e-05   1.5629726e-04   1.9927924e-04   1.6577040e-04   1.3902989e-04   1.5932655e-04   8.3464467e-05  -3.2579666e-04   1.6760906e-04   2.8833150e-05   9.5570585e-06  -1.0731907e-04  -7.3281590e-05  -2.7216098e-04  -2.5662847e-04   4.3285065e-05   1.4116883e-04   1.1552784e-04   6.0392133e-05   5.0393191e-05   2.2572804e-04   8.8817505e-05  -6.8754096e-05   5.1935775e-05   7.2764495e-05   1.0336447e-04   6.6005872e-05  -4.8695329e-06   2.6865808e-05  -1.1324597e-04  -1.4861868e-04  -4.2185572e-04  -4.5886537e-04   2.4469596e-04   1.2958108e-04  -5.7609017e-05  -4.4927781e-04  -1.6273405e-04   2.9377836e-05
   1.5461081e-04   1.1775470e-05   5.9882706e-05   1.9932309e-06   2.7285082e-06  -1.0044904e-04   1.2866310e-05   5.9506940e-05  -8.9114059e-05   4.1862670e-05   1.5091212e-04  -2.0004058e-05   1.5902279e-04   2.0858413e-04  -3.9901421e-05   1.3751647e-04   1.2074750e-04   5.7677706e-05   2.4232884e-04   1.6549864e-04   7.4269105e-05  -1.8029299e-05   8.2015824e-05  -8.3961866e-05   1.5724683e-04  -9.8666394e-05   5.1053594e-05   4.9086419e-05   2.2353819e-05   5.5837656e-05  -1.6469504e-04   6.0288912e-05  -1.9419038e-05   1.0206784e-05   2.4768193e-05   9.8274031e-06   1.0829383e-04   1.6124148e-05  -3.6026689e-05  -1.2412405e-04  -1.1049857e-04  -2.2830769e-04  -1.4123241e-04  -2.6419567e-04   1.0109493e-04   2.5752769e-04   3.7427330e-06  -1.1338448e-04   5.0337203e-05   6.4573731e-05
   6.6634726e-05  -9.3193166e-06   7.4733405e-05  -2.1520433e-05   4.3774209e-05  -7.8613200e-05  -1.8861052e-05   1.7048669e-05  -1.7795501e-04   2.9841054e-05   1.0786761e-04  -4.2062940e-05   8.5579079e-05   1.5044340e-04   1.0015214e-04   1.0125449e-04   1.3699970e-04   5.6957564e-05  -1.3833196e-04   1.1185453e-04   2.2816375e-05  -8.2221093e-05  -5.3782798e-05  -4.7070695e-05   5.0565210e-05   2.4577061e-05  -4.5330162e-05   1.5078752e-05   1.1892360e-04   4.6634847e-05  -1.3429465e-05  -4.2952754e-05   5.3885327e-05  -3.4375764e-05  -1.2346702e-05   3.7071997e-05   6.8226320e-05   2.5236252e-05  -5.7079029e-05   4.8716673e-05  -5.1008250e-05  -1.6761987e-04  -2.9833597e-04   1.0381400e-03   5.3889537e-05   4.2895330e-04  -3.1843374e-05  -5.2284199e-04   2.7465553e-04   1.1340527e-04
   4.1311701e-05  -2.9232766e-05   1.3895823e-04  -3.2458851e-05   3.7920508e-05  -1.2737645e-04   1.7735407e-05  -1.4208086e-05  -2.5779067e-04   1.3848376e-05   9.8777462e-05  -7.8048404e-05   9.1430789e-05   1.5387460e-04   4.5012792e-05   9.9112352e-05   1.2723501e-04   2.4978443e-05  -2.0470731e-04   7.8658843e-05   3.0366339e-06   4.3105250e-05  -2.5410671e-04   7.2241251e-05  -7.1500566e-05  -2.1590167e-04   3.0521426e-06   1.7781935e-04   4.8205020e-05   5.5383724e-05  -4.2023141e-05   1.9624873e-04   2.9955161e-04  -8.3677449e-05   2.5938083e-05   7.2068156e-06   9.6708289e-05   7.4208234e-05  -9.1856291e-06  -2.0460463e-04  -1.1058587e-04  -6.0908103e-05  -1.5366184e-04  -6.1858918e-07   2.6693885e-04   2.7915658e-04  -6.9602243e-06  -2.7937151e-04   3.2207367e-04   1.2335405e-04
   2.0949457e-05  -2.9089619e-05   9.2340888e-05   2.5641113e-05   2.1878081e-05  -8.9977060e-05   4.6048935e-05   7.9350430e-05  -1.2652343e-04   1.4955362e-05   1.1845689e-04   2.8700293e-05   1.5280770e-04   1.6752096e-04   8.2894847e-05   8.9594199e-05   1.8662526e-04   8.8172026e-05   3.7114171e-04   1.1081627e-04   1.9241033e-05  -4.3326276e-05   1.4469126e-04   1.1911079e-04   4.1319549e-04  -8.3787316e-05   3.6686273e-05   1.1038152e-04   5.7181423e-05   7.4384072e-05  -6.3230553e-05   8.6255699e-05   1.0401684e-04  -3.3393729e-07   1.5148016e-05  -4.9828606e-05   7.0398004e-05   1.0295909e-04   2.2569859e-05  -1.4994446e-04  -2.1869650e-05  -1.7637642e-04  -8.3310522e-05   5.6538370e-04   1.1617568e-04   2.3511935e-04   1.1372194e-05  -2.7357618e-04  -1.4944281e-04   1.8006461e-04
   4.7322501e-05  -1.7827755e-05   7.6043791e-05   5.5752203e-05  -3.5320165e-05  -9.7919816e-05  -7.5615312e-06  -3.0253461e-05  -1.8823126e-04   1.2299677e-05   1.2621580e-04   1.9600649e-05   1.0261689e-04   1.9677945e-04   7.8482233e-05   1.1991798e-04   1.6638252e-04   8.1862425e-05  -1.9614529e-04   1.4976952e-04   3.5261121e-05   8.0442842e-05   2.0530474e-04   2.2009399e-04   4.0782924e-04  -1.7708415e-04   7.4401658e-05   7.7073797e-05   4.3348009e-05   9.0969734e-05   1.6424950e-04   2.7656037e-04   1.8303485e-04   3.1504740e-05  -3.0600691e-05  -2.8713886e-05   6.4325111e-05   9.6006515e-05   4.8882179e-05   1.4492824e-04  -2.2209140e-05  -1.2633138e-05   1.3370626e-04   6.1331055e-04   1.4167227e-04   3.5722001e-04   1.7561859e-05  -4.0892602e-04  -1.1477812e-04   1.9307101e-04
   1.4985501e-04  -7.4189629e-06   5.8216479e-05  -2.4318008e-06   1.0032712e-05  -7.1913768e-05  -3.2951546e-05   3.7272446e-05  -1.2019037e-04   5.3963293e-05   8.6483749e-05  -6.3822452e-05   1.0346206e-04   1.5542068e-04   1.0922513e-04   8.5342508e-05   1.3234206e-04   6.6396729e-05   1.5523682e-04   9.2122464e-05   6.3417720e-05  -4.9010217e-05   6.6624649e-05  -2.3044269e-04   2.9748213e-04  -9.1202433e-05  -5.0205958e-06   8.1395403e-05   1.5260866e-04   9.5701747e-05   6.8501133e-05   3.6736749e-04   1.2766133e-04   2.8719651e-05  -2.5711108e-05   8.0956073e-05  -9.9403906e-06   7.2853378e-05  -1.9776940e-05  -1.4417742e-04  -2.4490622e-05   8.8866153e-05   3.2656066e-04   3.0212454e-04  -2.2144608e-04   1.6873430e-04  -4.5512010e-05   6.2460298e-05   2.0284276e-04   1.0523694e-04
   3.4718196e-05  -1.2296878e-05   1.1772921e-04   5.5658220e-05   5.6878329e-05  -1.2954646e-04   6.8075416e-05  -3.6100653e-05  -2.6406900e-05   4.9322171e-05   1.3397327e-04   6.4380336e-05   1.0431192e-04   1.6871608e-04   5.2979740e-05   8.3920611e-05   1.1604643e-04   7.0376220e-05  -8.7515640e-05   9.7961274e-05   7.1710172e-05  -3.7872946e-05   3.5454465e-05   2.1290660e-05   3.1899265e-04  -1.1079653e-04   7.1919494e-05   1.4438144e-04   9.5407151e-05   9.7234559e-05   1.0830183e-05   1.6259655e-04   2.6620101e-04   4.8373273e-05   2.1271500e-05  -6.6935405e-05   4.7096171e-05   4.7142144e-05   2.5894247e-05   1.4373554e-04   2.5935789e-05   3.7447095e-05  -1.0960327e-04  -6.0190348e-04  -3.5481987e-04   2.2681484e-04  -2.2600214e-05   3.8685228e-04   6.0035472e-06   1.6425306e-04
   5.1245017e-05  -8.8330526e-06   1.2548704e-04   2.6379152e-05   4.3353852e-05  -9.5134215e-05   3.3902608e-05   9.4648618e-05  -9.8092773e-05   4.9548395e-05   1.3815951e-04  -1.6702252e-05   1.2665373e-04   1.9935943e-04   1.8233017e-04   8.7927227e-05   1.1120101e-04   6.5024236e-05   1.8297497e-04   9.2506903e-05   8.3159350e-05   2.6727979e-05  -1.7829458e-05   2.4727985e-04   2.4692336e-04  -1.0607507e-04  -6.2124236e-05   1.5254185e-04   1.1156789e-04   8.0877981e-05   4.4369055e-05   1.9501794e-04   2.3846986e-04  -1.1677337e-05   5.1894422e-05  -2.5901014e-07   1.5001955e-04   5.2981632e-05  -1.1201472e-05  -7.1237861e-05  -6.2120846e-05   1.0814718e-05  -1.0553601e-04   1.6335583e-04  -2.5407135e-04   1.6236123e-04  -8.4300846e-06  -6.2979275e-04   2.1351237e-04   1.2637932e-04
  -7.2112921e-06  -2.1471236e-05   1.2195323e-04   3.6295223e-05  -3.3805850e-06  -5.8022950e-05   2.2126236e-05  -5.0182865e-05  -1.4266789e-04   9.6790805e-05   1.3675248e-04  -2.8435306e-05   7.2422932e-05   1.7343163e-04   1.1467520e-04   8.9574671e-05   8.7457520e-05   4.5864610e-05   4.5862386e-04   9.9735080e-05   3.1358122e-05   7.4423762e-05   1.5949324e-04  -2.3448373e-04   2.0912167e-04  -7.8347504e-05   4.0372165e-06   8.4515639e-05   1.1534753e-04   8.8572859e-05   2.1992723e-04   2.3169736e-04   3.0507150e-04   3.5683439e-05   6.1061706e-05   2.2993170e-05   9.9164652e-05   8.1762664e-05   2.0187215e-05   5.0199069e-06  -5.9245580e-05  -1.3209374e-05  -3.1042884e-05  -3.1312410e-04   2.8263722e-04   9.7669108e-05   4.9339244e-05   3.9415166e-04  -1.1961917e-04   5.0582730e-05
   2.0178122e-04  -3.8459748e-06   1.2733301e-04   6.6889050e-05   1.8717205e-05  -1.0083924e-04   1.7443786e-05   6.1674276e-05  -1.0480093e-04   1.0155155e-04   1.6012698e-04   6.1351078e-05   1.1422610e-04   2.0509383e-04   1.6862915e-04   9.9097022e-05   1.3968283e-04   7.7443816e-05   4.7760659e-05   1.2016752e-04   4.2445598e-05   1.2753441e-04   1.4943574e-04  -2.6056002e-04   3.8798249e-04  -6.8135363e-05   3.1674372e-06   6.4512511e-05   1.2041732e-04   8.9977402e-05   1.4234317e-04   8.6083972e-05   3.0327239e-04  -4.7813006e-05   6.1641833e-05  -2.7308062e-05   9.4440096e-05   8.5338834e-05   1.3822863e-05  -4.0067312e-06   2.6024547e-05   5.2708314e-05   3.0319250e-06   2.7063757e-04  -1.4584721e-04   1.0756129e-04   5.2806619e-05   2.3704574e-04   1.7145778e-04   7.7393517e-05
   1.4770008e-04   7.1013674e-06   1.7325753e-04   2.9247363e-05   6.7232912e-05  -9.3924500e-05  -6.7947399e-06   8.2477578e-05  -1.3475091e-04   9.6055206e-05   1.7527692e-04   7.9362864e-05   1.3658839e-04   2.5496827e-04   1.7188585e-04   8.3478793e-05   1.3903018e-04   7.6598313e-05  -2.1602321e-04   1.3551931e-04   5.4438642e-05   4.7526610e-05  -1.6635018e-04   3.4619900e-04   6.1292762e-05  -2.5924401e-05   6.6237240e-05   2.5850136e-04   1.2571106e-04   8.5228465e-05  -4.9027267e-06   2.0872186e-04   4.0908606e-04   2.3251156e-05   8.9491579e-05  -4.8445247e-05   1.1702252e-04   6.2025720e-05   1.9631736e-05   1.5783227e-05  -4.8443810e-05   1.4473972e-04  -1.0857232e-04  -4.7565426e-04   1.7124912e-04   2.0637469e-04   3.4709387e-06  -3.2368119e-04   4.8538641e-04   5.6225621e-05
   2.2467299e-04   2.9843321e-05   8.6959437e-05  -1.1106193e-05  -1.6082022e-05  -1.0520994e-04   1.0519960e-05   1.9961217e-05  -1.0358621e-04   9.2724295e-05   1.6621238e-04   5.2171541e-05   1.3792070e-04   2.0661482e-04  -3.3207063e-05   1.0522402e-04   1.4326359e-04   8.0434125e-05   2.9567885e-04   1.3041885e-04   7.8524798e-05   5.3482968e-06   8.9187277e-05  -2.2247470e-04   6.1521720e-04   2.2836593e-06   6.6365443e-05   1.7695331e-04   2.2487253e-05   8.2045233e-05   6.8090027e-05   1.3207387e-04   5.8699090e-05   2.0949549e-06   8.1519829e-05   9.1780021e-05   7.4354422e-05   6.5819237e-05   4.8597827e-05  -6.9285001e-05   2.5703297e-05  -1.7845680e-04  -2.1043902e-04  -8.0705504e-05  -1.6626047e-05   1.9259578e-04   5.8543221e-05  -5.1082650e-05   2.7730641e-05   5.1056137e-05
   1.6692080e-04   2.5495789e-05   5.2680494e-05   2.2317665e-05   9.2298993e-05  -9.3255650e-05   1.9647679e-05   1.2687773e-04  -1.2528956e-05   1.0918667e-04   1.4059311e-04   5.4013803e-05   1.1941527e-04   1.9214825e-04   9.7000979e-05   9.0709276e-05   1.2611231e-04   2.6913698e-05  -1.6972393e-04   1.1240145e-04   4.5949648e-05   1.1880201e-05   1.3479486e-04  -5.1514624e-05   2.0691806e-04   1.2117208e-04  -1.8940962e-05   9.6521828e-05  -8.4468493e-06   6.1049832e-05   4.8929225e-05   1.9750079e-04   1.4983834e-04  -2.9665740e-05   5.3803278e-06  -1.5442185e-05   6.6484659e-05   6.6898618e-05   1.2787023e-05   2.7110158e-05  -3.6821159e-06  -5.8434025e-06   2.2347952e-04  -1.2210243e-03  -4.8204049e-05   1.1658208e-04   3.1560521e-06  -2.3812198e-04   1.1036098e-05   2.1002479e-04
   1.5855022e-04   4.9944952e-06   1.2448117e-04   5.8237329e-06   1.0811639e-05  -7.1538634e-05   1.6338296e-05   2.9745583e-05  -6.9164547e-05   1.0399577e-04   1.3701114e-04   4.7932906e-05   1.0052653e-04   1.4802790e-04   5.3967029e-05   1.0732339e-04   1.2127024e-04   5.1046842e-05  -5.9814862e-05   9.9441080e-05   6.1874583e-05  -9.5708065e-06  -1.3483003e-04  -3.7264934e-05   2.3268916e-05  -1.6970614e-04   4.3812637e-05   1.5780394e-04   9.8636512e-05   8.2531915e-05  -6.2327323e-05   1.2523819e-04   2.5365705e-04  -7.2665811e-05   5.8939011e-05  -2.2616705e-05   3.9088842e-05   3.6830814e-05   4.3682678e-05  -2.3427079e-05  -1.6542625e-05  -6.2659878e-05  -1.6639018e-05  -9.4955188e-04   3.2603013e-04   1.9405814e-04   7.8367639e-06  -3.6183494e-04   1.7452676e-05   7.2276111e-05
   1.5438106e-04   1.8500894e-05   1.3465071e-04  -2.5171899e-05  -1.5246639e-05  -4.6368816e-05  -4.2737389e-05   7.6254320e-05  -3.0959680e-05   9.1285532e-05   1.5729683e-04   9.8550525e-05   1.3150007e-04   1.7326517e-04   2.2012920e-05   1.0650571e-04   1.0374492e-04   4.0086808e-05   2.1596040e-04   1.0802672e-04   8.8898305e-05   1.1474014e-05  -5.8932299e-05  -1.2797263e-04   1.6362105e-04   2.2081145e-05   3.6360372e-05   2.9809802e-05   4.3157757e-05   7.1425871e-05   6.5384607e-05   3.8358496e-04   5.1471736e-05  -2.1701004e-05  -1.6029329e-06  -1.6140995e-05   1.2352700e-05   8.3184372e-05   1.8428553e-05   4.0980896e-05   4.3855827e-05   6.9846355e-05   1.1640271e-04  -3.1580290e-04   3.2488467e-06   3.7912967e-05   3.4509121e-05   5.8434712e-06  -7.8472498e-05   2.1108515e-05
   2.5423660e-04   2.5394815e-05   9.0560032e-05   2.1979889e-05   1.9597201e-05  -1.3011055e-04   1.1629245e-06   8.0646569e-05   3.1802290e-06   1.2121879e-04   1.5361742e-04   7.1813862e-05   9.7181008e-05   1.9707868e-04   6.0599545e-05   8.5123909e-05   1.0219907e-04   7.3021118e-05   5.8250746e-04   1.2990697e-04   1.0075098e-04   1.0848045e-04   2.6533718e-04  -1.4422735e-04   2.6362468e-04  -6.7550616e-05   3.8157003e-05   1.9032268e-04   4.9676419e-05   5.5044038e-05   5.1182666e-05   8.0154241e-05  -7.2931267e-05  -2.9403438e-05   8.2698083e-05  -1.1378956e-04   4.4032462e-05   7.4321455e-05   1.4106609e-05   9.5424566e-06  -3.9010112e-05  -9.8729397e-06   4.0785753e-04   3.3226352e-05  -3.7087951e-04   1.6812509e-04   2.6062999e-05  -7.3591407e-05  -2.2160899e-04  -3.2262480e-05
   1.3184239e-04   1.8031809e-05  -1.8780778e-05   1.4231166e-05   6.9308684e-05  -6.3979307e-05   1.9972715e-05   6.2659399e-07   3.2729615e-05   2.1285914e-04   1.8998345e-04  -2.1919735e-05   6.0506609e-05   1.2891374e-04   2.1714877e-05   7.8573175e-05   5.2678974e-05   1.4670003e-05  -6.8376481e-05   1.0563026e-04   1.5780167e-04  -2.7577831e-05   5.4352320e-05  -6.7036360e-04  -1.6904695e-04   6.9446018e-05  -6.4732621e-06   1.1775525e-04   4.8755537e-05   6.6173765e-05  -7.0266949e-05   8.9772053e-05   1.1734887e-04  -3.9874358e-05   5.4565509e-05  -1.2145360e-05   1.9980707e-05   4.2384396e-05  -6.5232466e-06  -2.6059697e-05  -8.4794439e-05   3.5595323e-05  -9.4865340e-05  -7.0663710e-04  -4.4438519e-05   4.9134780e-04  -4.6760972e-05  -1.3833541e-04  -5.3981123e-05   1.0691327e-04
   1.2917988e-04   8.0941536e-06   1.9966290e-05   1.4474674e-05   4.2876964e-05  -9.2648312e-05   2.6735454e-05   4.0232986e-05  -7.0235415e-05   8.9953835e-05   1.3249647e-04   3.5182788e-05   1.6343573e-04   2.0556957e-04   1.1186365e-04   7.4719537e-05   1.1919119e-04   6.0228074e-05  -2.0563096e-04   1.0075977e-04   7.1647824e-05   8.3454270e-06   2.2845062e-04  -7.5578732e-06   1.7356910e-04   1.6035272e-05  -2.1630140e-05   1.6927274e-04   5.8839832e-05   5.4607019e-05   9.1690672e-05   3.2435296e-04  -7.6039112e-05  -9.4805036e-06   9.9946956e-05   3.3984616e-05   1.2886443e-04   3.6637874e-05  -5.6508261e-06   9.2698414e-05  -7.3465417e-05   4.5386158e-05  -1.9110064e-04   2.5757379e-04   1.4654070e-04   2.9934372e-04   4.0210994e-05   7.4550189e-05   4.0940579e-04   1.1055316e-04
   1.1878876e-04   2.4463077e-05   3.9519244e-05   3.8175545e-05   1.7741673e-05  -2.6825179e-05   1.0991984e-06   8.0877478e-05   5.0030449e-05   8.0081663e-05   1.5472031e-04   6.6859167e-05   9.6021744e-05   1.8417362e-04   8.9555404e-05   9.2941453e-05   9.1902111e-05   3.9453065e-05  -3.7910664e-05   7.1221642e-05   9.2884984e-05   2.9959770e-05   9.1722053e-05  -2.5475572e-04   3.3712323e-04  -3.8975049e-05   1.5928143e-05   1.2288011e-04   9.9619374e-06   6.2357110e-05   5.9270005e-05  -3.4854995e-05   2.1010509e-04  -1.3065069e-05   1.0049566e-04  -1.3896545e-04   6.3410800e-05   4.3594689e-05  -8.4569901e-06   3.0691572e-05  -7.1375667e-05  -1.0949110e-04  -7.9901904e-05   2.3137893e-04   3.2130894e-04  -1.2170133e-05  -3.1627023e-05   4.3700897e-05   3.1305174e-04   4.8400139e-05
   2.4885070e-04  -3.7924110e-06   2.1608548e-04   5.1532003e-05   1.5081331e-05  -9.0851099e-05  -7.1774819e-05  -1.1608630e-05  -1.4661124e-04   8.6071901e-05   1.2906526e-04  -1.3615318e-05   1.0903571e-04   1.5057092e-04   6.9096866e-05   6.0311668e-05   5.6306930e-05   2.2501756e-05   8.7275903e-04   7.2693336e-05   5.1131708e-05   5.9241414e-05  -3.1217762e-05   8.6823384e-05  -2.3384654e-04  -2.5931172e-04   6.2657266e-05   1.1412118e-04   1.3610911e-04   7.1236507e-05   1.2089739e-04   1.8312348e-04   1.3536155e-04  -5.4694807e-05   6.3404812e-05   6.9456428e-06   1.0448811e-04   8.4061350e-05   9.1895199e-06   7.2909192e-05   3.7430356e-05  -1.4139587e-05   3.1391683e-04  -8.7188404e-05  -4.2261084e-04   2.1611551e-04   5.5701697e-05  -2.5622030e-05   3.7971657e-04   5.3074466e-05
   9.5556505e-05   1.3835575e-05  -2.4104389e-05   4.7742255e-05   7.8131525e-05  -8.4720436e-05  -3.7523205e-06   6.0530387e-05   4.1956628e-06   7.7829587e-05   1.6583716e-04   9.8086144e-05   1.2708809e-04   2.0964311e-04   1.2044214e-04   8.1827580e-05   1.4974963e-04   9.1969901e-05   5.8619777e-04   9.9644581e-05   6.5874425e-05   2.2901912e-05  -3.6464735e-05   5.9536396e-04  -6.3588486e-05  -5.9408276e-06   9.3603936e-05   1.7873327e-04   1.5386837e-04   6.9723879e-05   4.3461128e-05   1.4485534e-04   1.4679816e-04   3.7827849e-05   9.2415430e-05  -8.9749723e-05   7.3565112e-05   7.5627046e-05   3.7579513e-05   7.2949006e-05   4.3115375e-05   7.6510485e-05  -1.3162287e-04  -6.2868430e-04   5.9204298e-04   1.4713485e-05  -1.8909850e-05   7.4598797e-06   3.1190191e-04   1.5972799e-04
   1.1419932e-04   4.8026159e-05   1.2360832e-04   6.1063001e-05   5.3745596e-05  -7.0043548e-05   8.4644947e-05   1.0710250e-04  -7.9201011e-05   7.4376978e-05   1.1615044e-04   9.1819231e-05   1.7337916e-04   2.1003869e-04   9.1267866e-05   8.7959714e-05   9.8005381e-05   7.4138050e-05  -8.4967542e-05   9.6074684e-05   7.2717768e-05   8.4834523e-05   1.4801677e-04   4.0396582e-04  -2.6704973e-04   9.6470765e-05   1.9261979e-05   1.8418464e-04   1.3423365e-05   6.7884983e-05   3.5833113e-05   1.8787863e-04   2.5602212e-04  -3.1214415e-05   1.6117914e-05   3.0655297e-05   1.9166798e-04   6.1910723e-05   3.2778018e-05  -7.6258261e-06   3.5133813e-05  -7.5059892e-05  -1.0395168e-04   5.1360461e-04   3.4514509e-04   6.4231448e-05   4.9884489e-05   2.1319078e-04   1.6382351e-04   1.0196805e-04
   2.7820648e-04   4.1204930e-05   1.6656764e-04   1.2870967e-05   9.9231627e-05   5.8226688e-06   7.5996402e-05   4.6660192e-05   2.4351442e-05   7.1505339e-05   1.0711225e-04   5.4590491e-06   1.1051779e-04   2.1820818e-04   1.5407904e-04   8.4558997e-05   1.0918060e-04   4.8337253e-05   3.1549309e-04   9.5625524e-05   5.1032432e-05   1.0381717e-04  -1.3594831e-04   7.5072435e-06  -7.4161886e-05  -3.2125687e-04  -6.6155866e-05   1.4042345e-04   5.5333297e-05   8.2929240e-05   1.0704962e-04   1.4266824e-04   2.2346117e-04   3.4859924e-05   5.2152569e-05  -5.7869584e-05   1.0852484e-04   6.3228545e-05   1.4751281e-05   8.8631066e-05   6.1021681e-05  -8.4847503e-05   3.0759833e-04   7.6720316e-04   1.3689860e-04   1.7928689e-04   2.0363677e-06  -1.0845194e-04   2.8127941e-04   1.9817911e-04
   1.7125779e-04   4.3188611e-05   2.9628910e-04   3.7936923e-05  -3.8697395e-05  -7.0451148e-05   1.8072729e-05   2.9733621e-05  -9.9984965e-05   7.6151642e-05   1.3138448e-04   7.1352173e-05   1.4980169e-04   2.3528839e-04   1.1222317e-04   1.0742486e-04   1.1764339e-04   7.1986942e-05   1.2951215e-04   1.2180726e-04   6.4280488e-05   1.5175871e-04  -5.6466099e-05   3.8054903e-04   6.0211019e-05  -5.8242971e-05   5.7479247e-05   1.4281597e-04   4.3572552e-05   6.6553293e-05   7.1552946e-05   1.5179883e-04   2.9720799e-05   2.9026500e-05   2.4806592e-05   3.1513620e-05   3.0552488e-05   7.9886246e-05  -1.4538477e-05   1.3184366e-04   8.8735884e-05   2.1421194e-05   1.2638266e-05  -9.1067435e-05   2.9790806e-04   1.9626673e-04  -1.6895019e-05   3.5977550e-04   4.2223060e-04   1.4404576e-04
   1.5715585e-04   2.6856056e-05   2.0455467e-04   5.5905159e-05   5.5963090e-05  -7.1579008e-05   3.5081095e-05   4.9319813e-05  -4.2774380e-05   5.9322767e-05   1.2101845e-04   5.2107298e-05   1.3966525e-04   1.9425309e-04   3.9764458e-05   9.6709235e-05   1.6301144e-04   2.9772755e-05  -1.2674239e-04   8.6622545e-05   5.7797712e-05   5.5562828e-05   3.3201484e-04   2.4311240e-04   2.8424629e-04   1.9131016e-04   1.3637468e-06   3.4470388e-05   1.8753235e-04   5.4104905e-05   9.0505593e-05   4.6593093e-05   1.6942207e-04   2.5874553e-05   9.3965049e-05  -5.6537083e-05   9.2442795e-05   1.0283838e-04  -7.4115624e-06   1.2741491e-04  -9.5723444e-06  -9.9608034e-05   2.7537579e-04  -1.5809456e-03  -2.7925923e-04   2.2927175e-04   1.7353468e-05  -1.0770935e-04  -1.7376279e-04   1.3963049e-04
   1.2103327e-04   4.1166786e-05   1.4239276e-04   3.5057554e-05   4.6780028e-06  -7.8426841e-05  -5.0241062e-05   7.1211275e-06  -5.7227644e-05   8.4639323e-05   9.3675997e-05  -2.5254554e-05   1.0224575e-04   1.8666973e-04   1.5473680e-04   8.3694897e-05   1.1341897e-04   3.0552714e-05   2.2075306e-04   7.3825802e-05   3.5604917e-05   4.4948069e-05   3.1586918e-05  -3.5831236e-04   2.8974482e-05  -4.4743923e-05   9.0693335e-05   2.2830343e-04   4.2180718e-06   7.5738608e-05   1.2928710e-04   1.0038666e-04   2.0558985e-04  -3.0512581e-05   3.9194394e-05   6.0962924e-05   7.7716330e-05   7.9824043e-05   5.9711198e-05   1.3022142e-04   3.6668662e-05  -1.6751552e-04   2.7817758e-04   4.8649579e-04  -4.2841080e-04   2.4173658e-04   7.6826567e-05  -3.6690053e-05   1.0890811e-04   5.3980246e-05
   2.7781015e-04   2.6663995e-05   1.9433272e-04   5.5128119e-05   1.1612017e-05  -3.4410743e-05   3.1311938e-05  -1.0212697e-05   5.3111606e-05   1.6450955e-04   1.2784319e-04   4.8064194e-06   1.4332832e-04   1.8089176e-04   5.6804402e-05   8.0388476e-05   9.0842870e-05   9.4831179e-05  -4.6749006e-04   1.0349177e-04   8.7904824e-05  -1.0705902e-04   3.2634058e-04   2.4496529e-05  -6.4582737e-06  -6.0031103e-05   2.4845574e-06   1.8661971e-04   2.4352190e-05   5.1574276e-05   6.3830253e-06   1.5032887e-04   1.6948878e-04  -1.5589399e-05   9.6527547e-05  -2.2901071e-05   8.8689441e-05   9.1625479e-05   6.2962208e-05   4.5525780e-05   3.6730967e-06  -2.8284925e-05  -4.0059234e-04   1.1291069e-04   5.9822144e-04   1.3526168e-04   2.6964237e-05   7.0819742e-06   8.8879860e-05   3.5773159e-05
   2.7323325e-04   1.3905680e-05   1.1343616e-04   2.6079466e-05  -3.3804386e-05  -5.8922022e-05   1.0344069e-04  -1.7014530e-05   5.5234308e-05   1.4131490e-04   1.1259937e-04  -3.3072283e-05   1.0575690e-04   1.4362524e-04   5.8826903e-05   6.3697189e-05   7.9323087e-05   6.2410370e-05   1.8980516e-05   1.0688516e-04   2.3693137e-05  -1.2254664e-05   6.9238136e-05  -4.3237049e-04   3.5396114e-04  -1.3526133e-04   1.2628522e-05   3.0625248e-05   5.9719005e-05   3.2246557e-05  -9.3136705e-06   1.1672611e-04   3.7406538e-05  -1.4420489e-05   8.5295542e-05  -7.0038543e-05   7.7116965e-05   6.1915387e-05  -1.8730763e-06   2.2976377e-05   3.8030594e-06  -5.4462129e-05  -2.7252015e-04   1.9409230e-04   4.6163937e-04   1.8925383e-04   3.2930566e-05  -1.2100692e-04   5.7620331e-05   1.3040524e-04
   3.9951029e-04   1.5981836e-05   5.8506015e-05   1.5618456e-05   2.9577332e-05  -4.6402474e-06   6.6106382e-05   3.1932670e-06  -8.5062566e-05   1.0789802e-04   7.3686999e-05   8.5440661e-06   9.6618867e-05   1.3772512e-04   8.7268163e-05   5.6372930e-05   8.6927328e-05   7.9971265e-05   4.8203248e-04   5.0900308e-05   1.3578326e-05   5.3761702e-05   3.0448826e-05  -1.8143516e-04   9.7556804e-05  -9.9118579e-06   7.0770293e-05   2.4345065e-04   1.4317264e-04   4.9353523e-05   1.0475093e-04   2.4146057e-04  -5.9950791e-05  -1.5329735e-05   6.3197367e-05   1.3370121e-05   2.8196051e-05   1.0363368e-04   3.8097933e-05  -1.7602761e-04   6.7660942e-05   8.6722524e-05  -1.7171525e-04   5.1344122e-04   1.3537682e-04  -1.9200703e-05   7.7632452e-05   3.7913187e-06   4.4877388e-04   3.0201569e-04
   1.2003871e-04   1.0255470e-05   4.0661780e-05  -1.2063136e-05  -1.7084645e-06  -7.5781059e-06   1.8038448e-07  -1.5671250e-05   1.7986418e-05   1.0898417e-04   1.0458700e-04   1.1033692e-04   1.0767721e-04   1.7697996e-04   6.1713319e-05   9.3861869e-05   6.2754094e-05   9.8504766e-05   3.2551028e-04   6.3727195e-05  -2.1455344e-05   9.1290225e-05   3.4044788e-05   3.3683726e-04   3.1152263e-04   4.9555638e-05  -3.2463700e-05   1.8776918e-04   9.8850636e-05   5.0770785e-05   5.0966919e-05   1.5750984e-04   5.7196594e-05   3.6436315e-05   1.4010383e-06   5.5953329e-05   1.4906882e-04   9.0138928e-05   4.6343426e-05   8.5836964e-06   5.3732190e-05   5.8451878e-06  -2.4317337e-04  -5.3413544e-04  -2.5112869e-04   2.2380326e-04   1.0347178e-04   1.2752812e-04   4.2303832e-04   1.7258842e-04
   1.2575295e-05   2.3009028e-05   1.1345080e-07   1.7793587e-05  -4.0694526e-05   1.9816289e-05   4.4015764e-05   4.9179900e-05   9.6882650e-05   1.0691569e-04   9.5316747e-05   7.1340117e-05   1.0114013e-04   1.9609755e-04   7.4436721e-05   7.6833923e-05   1.0312749e-04   5.2961856e-05   1.4245574e-04   5.1659565e-05   2.9780404e-06  -8.4034160e-05   1.1756376e-04   2.9473766e-04   1.7301265e-04  -7.6234669e-06   1.3387376e-05   1.0824532e-04  -3.4274221e-05   6.4050946e-05   8.9884292e-05   6.5210566e-05   3.5536403e-04   2.4337434e-05   1.3940482e-04   9.3633847e-05   1.3516587e-04   1.0735096e-04  -4.6252972e-06  -1.5860859e-04   6.1465013e-05   9.3284732e-05   1.9409988e-04  -8.9137000e-04   2.4105386e-04   2.1426706e-04   6.0309820e-05   1.9549077e-05   1.9788866e-05   1.8160598e-04
   1.3919738e-04   2.4273228e-05   1.5139898e-04  -5.2498126e-06   3.5347832e-05  -5.8420497e-05   2.5549971e-05   2.2093562e-05   1.3161033e-04   1.0546039e-04   9.0621863e-05   1.8721802e-06   1.1035823e-04   1.5524482e-04   7.1069619e-05   7.8849313e-05   1.0689747e-04   5.6007899e-05   5.2630407e-04   1.1236317e-04  -2.7622968e-05  -4.2230673e-05  -5.4353448e-05  -8.5854743e-05   1.7721814e-04  -4.5807814e-05   2.8409178e-05   2.0988478e-04   7.5477037e-05   8.3440165e-05   4.4376255e-05   1.1008470e-06   2.4131578e-04   6.7866363e-06   1.0148544e-04   3.6103662e-05   1.0448632e-04   1.0411891e-04  -1.0564522e-05  -5.3625099e-05   3.6480698e-05   3.0765614e-06  -4.3886648e-05  -3.5882491e-04  -8.4687963e-05   2.4263015e-04   6.8944712e-05   1.5096930e-04  -9.3874674e-05   1.1469432e-04
   1.4112570e-04   2.8871644e-05   1.0776811e-04   3.3102635e-05   2.2961810e-06   4.0296022e-06   6.8945832e-05   5.3842959e-05   1.3064920e-05   1.0726571e-04   1.1333656e-04   4.0874154e-05   1.3815142e-04   1.3827537e-04   1.6937392e-04   8.0641737e-05   9.2662434e-05   4.5381057e-05  -3.7675094e-05   1.0252734e-04   3.5733126e-05  -8.1669619e-05   2.2477474e-05   1.2667559e-04   1.8401428e-05   2.2338787e-05   4.5029778e-05   7.8482059e-05   8.9721929e-05   4.7824680e-05   8.7527194e-05   8.0341357e-05  -2.7914997e-05   1.0163874e-05   1.4807262e-04   1.2919828e-04   9.2499969e-05   7.3636489e-05   2.3235903e-05   1.9047731e-04   4.3726068e-05   4.0619940e-05  -2.5016925e-06   6.1341689e-04  -1.8334124e-05   9.4383686e-05   4.1792533e-05   3.4769415e-04   4.2717843e-04   9.1332986e-05
   1.3790235e-04   3.4527915e-05   7.4614487e-05  -3.8224480e-06   2.7947059e-05  -3.4395402e-05   6.0600265e-05   1.9532117e-05  -2.3135256e-04   1.2020199e-04   1.0791634e-04  -1.2878641e-05   1.1109136e-04   1.5276407e-04   8.4173560e-05   5.0873579e-05   4.9651437e-05   9.3281233e-06  -1.0604112e-04   8.5198415e-05   1.8941533e-05  -2.6219373e-05   4.9554015e-05  -4.8356722e-04  -1.6023007e-05  -6.7229565e-05   1.5618627e-05   1.2115421e-04   1.2881270e-05   5.5297038e-05   3.7092248e-06   1.7169474e-04   1.2216366e-05  -1.5599580e-05   2.4202944e-05   7.0412339e-06   5.6522083e-05   8.6155698e-05   4.2393021e-05  -1.4178426e-04   1.8753117e-05  -6.4415770e-05  -1.4103942e-04   1.1240760e-03   5.6812456e-05   9.4598130e-05   4.7501460e-05   2.8162307e-04  -3.1185581e-04   1.6312306e-04
   1.1539448e-04   4.0516494e-05   1.8963579e-04  -3.3997730e-05   2.2495566e-05  -3.2273285e-05  -3.6922975e-06   3.8447193e-05   1.4350325e-04   1.0348241e-04   7.5823649e-05  -3.4898272e-05   9.1642549e-05   1.6219250e-04   6.1586506e-05   5.3258645e-05   5.7772086e-05   1.9033136e-05   8.1219310e-05   7.8922123e-05   3.1053216e-05  -3.6162844e-05  -1.4711867e-04   3.2029624e-04   1.5495073e-04  -3.3983870e-05   1.6263818e-06   1.3281222e-04   7.0221868e-05   4.4098735e-05   7.5134798e-05   1.4628236e-04   3.8121387e-04  -5.1916082e-05   1.6986513e-04   8.0103018e-05   7.7550962e-05   9.9038021e-05   4.8637896e-05  -4.0408672e-06  -6.0945233e-05   3.2886113e-05   2.0291576e-04  -1.5427952e-04  -3.8341223e-04   1.4968510e-04  -4.0172904e-06   4.4806092e-04  -4.2838932e-05   1.2397001e-04
   2.1046289e-04   4.1847041e-05   2.2485621e-04  -1.2316274e-05  -2.2119797e-05   4.0020896e-05  -6.3473221e-06  -1.1561214e-06   9.7560478e-05   9.5315932e-05   1.2783817e-04   2.5670459e-05   8.5953856e-05   1.2785303e-04   5.4967430e-05   3.7640457e-05   1.0690383e-04   5.6126737e-05   3.2903370e-04   7.8177683e-05   2.8609418e-05   4.7134439e-05   2.7493099e-05  -4.0584523e-04   1.7228985e-04   2.2436978e-04   2.2504955e-05   1.0494381e-04   5.4879132e-05   3.0202222e-05   5.1262195e-05   1.9699745e-04  -1.9715155e-05   2.5257689e-06   8.8523775e-05   5.6042853e-05   6.8214948e-05   7.9981117e-05   5.6441273e-05  -1.0060671e-05   1.7179738e-04   5.9609407e-05  -1.2303634e-04  -6.5159606e-05   5.1158678e-04   2.1775983e-05   6.8256348e-05   1.2899889e-04   2.8087673e-04   1.0772730e-04
   2.5709358e-04   5.9149781e-05   1.8532264e-04   1.0346802e-05   2.3905488e-05  -2.9177720e-06   3.7928046e-05   4.2546933e-05  -5.7215220e-05   6.5835527e-05   1.2559953e-04   2.4072764e-05   8.9044814e-05   1.5253010e-04   7.9334386e-05   7.0110043e-05   1.1290272e-04   1.1131110e-04   3.2796385e-04   9.5665164e-05   3.1930683e-06   8.8930537e-05   1.4417380e-04   2.8299598e-04  -7.0892194e-05  -5.6055709e-05   1.3488371e-05   1.0800074e-04   9.8108350e-05   5.1497631e-05   3.6632769e-05   1.1491938e-04   2.1516165e-04   2.9866460e-05   9.7597706e-07   2.3614246e-04   7.2236624e-05   7.2422044e-05  -1.3534607e-05   3.4269410e-06   4.0703388e-05   2.5088515e-04   7.9812133e-05   4.9233877e-05   5.6847365e-04  -2.1584314e-05  -1.2350978e-06   1.1747197e-04   6.8324240e-05  -3.7998623e-05
   2.7910608e-04   6.6265173e-05   1.2444051e-04  -2.4133702e-05   4.5536148e-05   1.2213642e-05  -2.0245108e-05   7.1347997e-05   4.4992521e-05   1.1682820e-04   8.2044113e-05  -9.0279143e-05   6.1112012e-05   1.1227390e-04   1.0461028e-04   7.6202261e-05   5.3034903e-05   1.7179493e-05   1.8205176e-04   8.6578228e-05  -6.1783689e-06  -6.1043946e-05   1.4748499e-04  -2.6786450e-04   3.2642110e-05  -2.6341542e-04   1.4930440e-04   2.4372608e-04   5.5451310e-05   3.9758885e-05  -1.5752546e-05   1.0901506e-04  -1.6417425e-05   9.1896918e-06   1.1554026e-04   1.1615927e-04   5.4875174e-05   7.7011908e-05   4.5472516e-05   2.7717595e-04   1.0103280e-04   4.8698384e-05  -5.7513957e-05  -1.7166846e-04  -3.0607646e-04  -4.1047202e-05  -5.5063287e-05  -2.3556297e-05   1.7162490e-04   3.7262562e-06
   3.3019597e-04   6.8599707e-05   2.2271351e-04  -7.5837770e-06   1.4256853e-05   1.4700683e-07   9.8812423e-05   4.0802217e-05  -7.9184239e-05   8.8577908e-05   1.2920500e-04   3.0389834e-05   1.0142688e-04   1.1562102e-04   1.6252637e-04   4.4923210e-05   9.2690869e-05   1.1614850e-05   2.7706020e-04   9.6555050e-05   6.3592161e-05  -7.0051661e-05   1.0651152e-04  -2.4114916e-04   2.0700097e-04   1.6293142e-04   1.0573374e-04   1.8067149e-04   7.1837851e-05   4.6421977e-05  -1.2050705e-07   5.1392806e-05   1.2483823e-04  -7.6474753e-05   3.3001703e-05   5.8747146e-06   2.7351978e-05   8.1918137e-05   2.8753992e-05  -2.1413449e-04   6.9082496e-05   1.2149468e-04   1.1973194e-04   2.9750343e-04   5.7751086e-04  -4.6338719e-06   4.9563805e-06  -1.7753031e-04  -3.2511613e-04  -7.9837970e-05
   1.4252936e-04   5.5578250e-05   1.8723412e-04   2.2361482e-05   2.7267672e-05  -5.9570353e-05   7.1264702e-05   6.3302978e-05   1.2318850e-04   9.3633222e-05   1.2881724e-04  -5.0278988e-05   7.6976663e-05   1.5582445e-04   1.1912258e-04   5.2627212e-05   8.4339074e-05   1.7991360e-05  -4.8188045e-05   1.2484676e-04   5.6363446e-05   1.7399123e-05   2.6631154e-04   2.0766117e-04  -1.9780672e-04  -1.4706510e-05   1.1074624e-04   1.5164285e-04   2.8497525e-05   5.2779520e-05   8.8381457e-05   1.4868872e-04   5.0758423e-05  -1.9410134e-05   4.3058822e-05  -1.3183918e-05   6.2046915e-05   8.7273118e-05   2.1998007e-05   6.9459375e-06  -6.7761648e-05   2.9632973e-04  -2.1318282e-04  -1.8947854e-04   5.8309422e-05  -1.9348738e-05  -2.0473108e-05   1.9622562e-04   2.8587252e-04   6.1980259e-05
   6.2165469e-05   6.0920389e-05   1.7567228e-04   1.2949503e-05  -5.2925043e-05  -7.8285011e-06   1.1813306e-06  -3.7611335e-05   4.8630056e-05   6.6567438e-05   1.4156468e-04   1.7678565e-05   6.8978770e-05   1.6956340e-04   9.0721413e-05   7.2085168e-05   1.2180702e-04   3.1307343e-05  -1.0066499e-06   1.3085952e-04   3.2198761e-05  -1.1804149e-04   5.0431938e-04  -1.4398238e-04   5.1283045e-05   1.5604288e-05  -3.1594624e-05   1.4729536e-04   1.0313839e-04   4.5490357e-05   5.7483379e-05   1.0808113e-04   1.3225412e-04  -1.3539835e-06   1.0248584e-04   1.2210671e-04   1.2642347e-04   1.1616627e-04   4.4774431e-05  -1.0739209e-04   1.1887762e-04   2.0073474e-05  -8.7818175e-05  -4.0218521e-05  -5.9209479e-04   3.1704697e-04   5.9241109e-05  -2.6799245e-05   3.3654243e-04  -7.9251231e-06
   9.8769167e-05   9.6414326e-05   4.5642806e-05   3.4362758e-06   6.0923303e-05  -2.7176950e-05   4.7332960e-05   3.2676951e-05   4.8105372e-05   5.6643952e-05   1.4133430e-04   1.1174981e-04   1.3602289e-04   1.4958395e-04   1.5065577e-04   6.1471343e-05   1.1774524e-04   7.7214405e-05  -5.4074710e-05   1.4586702e-04   4.5703389e-05   1.5959347e-05   3.6265941e-05  -8.5948246e-05   9.0373076e-05  -8.0517137e-05  -1.6579825e-05   9.0234491e-05   6.6829220e-05   4.7487752e-05  -5.0755702e-05   1.1911659e-04   8.3521481e-05   1.0786385e-05   7.9527425e-05   7.7131168e-05   6.6574944e-06   8.4401894e-05  -4.4707372e-06  -4.7040289e-06   7.8331432e-05   5.7110774e-05  -1.0148357e-04   2.6747861e-04   7.0088822e-04   3.3080482e-07   1.5281288e-05  -3.9608488e-04  -7.4731877e-05   2.9939868e-06
   2.5812577e-04   7.3294948e-05   2.1017836e-04   2.5540785e-05   5.9817543e-05  -5.0587219e-05   1.8363859e-05  -4.6086709e-05  -1.0082675e-04   5.9479771e-05   1.6319947e-04   4.3353990e-05   1.0489972e-04   2.0615730e-04   4.2074746e-05   6.0993490e-05   1.2908473e-04   4.0028717e-05  -1.0172746e-04   1.2974783e-04   1.7185059e-05   6.6140172e-05  -2.0932857e-06   5.0508050e-05   4.6265588e-04   2.2284374e-04   5.5424585e-05   3.7765396e-05   4.1275624e-05   5.5222794e-05  -4.3599593e-06   7.7864439e-05  -4.1940843e-06  -5.8889669e-05   2.6869313e-05   8.4148878e-06   3.5655992e-06   7.8776720e-05  -2.3203880e-05  -3.2665994e-05   1.0777333e-04   1.3335145e-04   9.5110758e-05   6.9505906e-05   1.7222829e-04   4.7968810e-05  -7.2709477e-06   2.8257212e-04  -2.9199160e-05   3.0602878e-05
   1.4969071e-04   7.8600213e-05   6.7705987e-05  -6.8198406e-06  -7.3726410e-06  -6.0692564e-05   2.6268226e-05   5.0526254e-05   1.3028615e-04   6.4327760e-05   1.5446066e-04   6.4747961e-05   1.7973711e-04   2.0566180e-04   1.2072995e-04   5.9962942e-05   1.1855480e-04   5.7439014e-05   3.9911742e-04   1.2120281e-04   2.9143901e-05   3.8631028e-05   1.4310196e-04   5.0343527e-04  -1.9080176e-04  -8.7650973e-05  -1.3501174e-05   3.3632281e-05  -3.2099069e-05   4.0951334e-05   1.1515335e-04   3.0655033e-04   1.4485065e-04   3.8814997e-05   1.8317458e-05   1.2125722e-04   7.2228853e-05   6.6683664e-05   2.1700376e-05   3.3606662e-05   8.9280671e-05   7.0877293e-05   1.8617352e-04  -5.8268005e-04   9.4940449e-05   1.2485437e-04   2.8015402e-05   2.0524346e-04   4.8421778e-05   1.3324362e-04
   2.2623167e-04   7.3446470e-05   6.8213354e-05  -1.0391945e-05   1.2796082e-05  -4.4568453e-05   6.0624716e-05   4.2476750e-06   1.3742050e-04   6.2327148e-05   1.6180966e-04   9.9898643e-05   1.0697936e-04   1.5510243e-04   1.2846618e-04   7.0852759e-05   9.7515054e-05   3.9931205e-05   1.9374426e-04   1.4973225e-04   4.9398404e-05   4.2812029e-05   9.8554367e-05  -3.3369040e-04   3.7629925e-05  -5.2933763e-05   7.2255010e-05   3.7021491e-05   7.4797390e-06   5.1079984e-05   1.2456732e-04   1.3646953e-04   1.4088380e-04  -5.4493707e-05   2.0680733e-05   7.4367468e-05  -1.4647845e-05   5.7619927e-05  -1.0040480e-05  -5.0477098e-05   1.0724099e-05  -4.6738198e-05   6.1200772e-05   7.1398848e-05   3.1419977e-04  -2.5562373e-05   1.9471832e-05  -1.3703642e-04  -6.1499224e-05   4.2856525e-05
   2.6548383e-04   6.6223321e-05   8.4730927e-05   3.8191476e-05   7.7016139e-06  -2.8105065e-05  -6.8540510e-05   7.3923715e-05  -3.7552479e-06   2.9618883e-05   1.1138458e-04  -4.6702112e-06   1.0770407e-04   1.9587371e-04   9.1195929e-05   8.5233019e-05   9.9743142e-05   4.7575322e-05   3.5835060e-04   1.0001799e-04   3.6106801e-05  -1.3284803e-04  -6.2878033e-05   3.6948873e-05  -2.5651554e-05   9.5365385e-06   6.3408836e-05   1.0937706e-04   8.7260823e-06   6.1332154e-05   7.6242737e-05   7.3936237e-05   2.0335507e-04  -1.5280802e-05   1.2675539e-04   1.3557386e-05   6.7078295e-06   3.8387632e-05   1.1624767e-05   1.7810137e-04   1.2227002e-04  -7.1550574e-05  -3.6442117e-04   6.1502174e-04  -4.1697550e-04   3.2620719e-05  -2.8521132e-05  -4.9459406e-05   1.0485616e-04   1.0499406e-04
   1.2729426e-04   4.9922462e-05   2.1582116e-04   2.6370390e-06   9.1602495e-05   2.4953710e-05   1.0711973e-04   5.5393666e-05  -1.8891718e-05   9.8898861e-05   1.4281813e-04   5.2453956e-06   1.1152146e-04   1.1706328e-04   1.4167994e-04   6.1449304e-05   4.1838292e-05  -1.4963739e-05   1.6374202e-04   1.2503564e-04   3.7980284e-05  -1.2409643e-04   3.1741100e-04   2.8834317e-04  -1.2073912e-04   1.6274097e-04   2.7179298e-05  -8.7710519e-05  -5.0888819e-05   8.3029709e-06  -2.0529706e-05  -9.1931004e-05   8.8465968e-06   2.2310485e-05   1.1161016e-04   5.5750246e-05   4.1568841e-05   1.7706530e-05  -2.1398953e-05   5.3260417e-05   1.4046507e-04  -1.3204543e-04  -1.1577088e-04   6.6055125e-04  -3.0821963e-04   1.3086030e-04  -2.1479136e-05   1.7628838e-05  -1.7647361e-04   6.4615844e-05
   5.8930193e-05   3.3935292e-05   1.5178679e-04  -7.5781659e-06   1.1192267e-05  -1.9669078e-05  -1.3711522e-05   7.8500132e-05  -1.4792920e-04   7.9003788e-05   1.0407415e-04   2.0951782e-05   5.9798404e-05   5.8082911e-05   1.3857393e-04   4.5102297e-05   8.4900594e-06  -1.5802027e-05   1.1219150e-04   5.2524312e-05  -3.0052455e-05  -8.2248676e-05   1.0356449e-04  -6.5675983e-04   2.3205743e-04  -8.7062275e-05  -6.0182432e-05  -1.1419112e-04   6.6522422e-05  -1.8374483e-06  -3.5798024e-05   3.0766936e-05   1.1511099e-04  -2.5512469e-05  -8.4643965e-05  -2.1024000e-05  -3.1778189e-05   1.5232415e-05  -1.7337579e-05  -1.1309433e-04   2.9144850e-05  -7.9031852e-05   2.0990972e-05   3.7951462e-04   2.3656360e-04   8.5659223e-05  -2.1667978e-05   6.1049027e-04  -8.7796492e-05  -7.9294205e-06
   8.0812461e-05   1.8051924e-05  -5.9518905e-05  -5.4192210e-06   5.0335682e-05  -8.0732614e-05   3.4050991e-05   5.2942036e-05   4.6623787e-05   6.9320799e-05   7.9807593e-05  -4.4049713e-05   2.4288045e-07   1.2188708e-04   8.5296975e-05   5.3357933e-05   2.4000179e-05  -2.2589977e-05   7.3220988e-04   4.1532057e-05  -4.5801164e-05  -7.7673460e-05   3.8232064e-04   3.2695630e-04  -2.3317684e-06   1.5659092e-04  -1.7901482e-05  -3.0994874e-05   9.6038471e-05   2.7395308e-05  -7.1757124e-05  -1.2862004e-04  -1.4309076e-04  -8.1409096e-05  -3.9442992e-05  -2.1668679e-05  -2.2883662e-05   2.6814087e-05   1.4183885e-05   1.2756756e-04  -5.7182544e-05   2.5556009e-04  -2.7881603e-04   6.6691200e-04   2.3497677e-04   4.7828100e-05  -4.0454153e-05   1.8962385e-04   5.8475547e-05   1.1059652e-04
   2.4755995e-04   2.6545493e-05   7.6974320e-06  -3.5684079e-05   5.3613521e-06  -1.2295571e-04   3.6762973e-05   8.2886436e-07  -7.8580975e-05   2.7554786e-05   6.0875231e-05   2.0721403e-05   7.7142038e-05   9.5596130e-05   7.7132710e-05   2.1975755e-05   5.6835321e-05  -1.7258400e-05  -1.7593095e-04   6.6639303e-05  -3.4951980e-05  -9.8639583e-05   6.1276165e-05   1.9507452e-05  -2.8433985e-04   8.8018551e-06  -9.6549120e-05  -1.8229051e-05  -2.8683504e-05  -3.4651350e-08  -8.7332373e-05  -6.6811340e-06  -9.4250783e-05   1.2478757e-05  -1.8057495e-05   7.5962998e-07   5.4434313e-05   2.2847096e-05   1.9451221e-05  -9.5549112e-05   1.2536089e-04  -7.7459597e-05   1.7250594e-04  -1.5946045e-04  -2.9405708e-05  -1.2553402e-05  -1.4476875e-05   1.0169324e-04  -1.1754879e-04   1.0952149e-05
   9.7496239e-05   4.3959244e-05   3.6695183e-05   8.3976529e-06  -5.0087806e-06  -1.9875071e-05   1.6130602e-05   1.4812119e-05  -1.8289355e-04   3.3896820e-05   2.4425091e-05   5.6183508e-05   4.8164620e-05   7.7662320e-05   7.2457420e-05   2.4188508e-05   8.3766441e-05  -3.5976791e-05  -2.3007966e-04   2.2412723e-05  -2.9458704e-05  -1.0774338e-04  -1.6679043e-05   3.7404135e-04  -1.0033016e-05  -3.5426081e-05  -9.4532159e-05  -4.0810963e-05   7.7565281e-05   1.8140738e-05  -9.7741751e-05   3.6471833e-05  -1.3056402e-05  -1.6264623e-05  -8.9780788e-06  -5.9663333e-05  -7.0830378e-05   2.0647256e-05   7.5142566e-06   1.0650222e-04   4.6185261e-05   1.5655061e-04  -4.7021531e-05   1.0731927e-04  -4.5968787e-04  -4.3877484e-05  -2.0294099e-06  -3.9067946e-04   1.0957046e-04  -6.3067899e-05
   8.1662416e-05   5.9300688e-05  -7.0599992e-05  -5.7752783e-05  -1.6325012e-05   6.1624931e-05  -3.0864037e-05   9.8224327e-06  -9.3219300e-05   9.7808217e-05  -8.3962710e-05  -8.1396269e-05  -1.0374344e-04  -7.6707467e-05  -8.0844598e-05  -1.4159384e-06  -9.6619093e-05  -8.0755897e-05  -1.1490149e-04  -4.6302448e-05  -6.5294867e-06  -2.6104195e-04  -1.7623643e-04  -2.9583968e-04   2.4173829e-04   1.4360846e-04   7.4441581e-05   3.9914517e-05   4.8027014e-05  -2.6147227e-05  -1.8848978e-04  -1.5052158e-04  -2.3450106e-04  -1.3183738e-05   2.3127399e-05   3.9171071e-05  -4.4875207e-05  -1.2700237e-05   7.5163094e-05   1.4595810e-05   1.0720590e-04  -8.5961205e-05  -1.1573370e-04   2.2577615e-04  -2.0073605e-04  -2.6685550e-04  -6.6323315e-05  -3.4762698e-04   4.0742708e-04  -6.6269327e-05
  -1.6790589e-04   4.5026249e-05   2.7256609e-05  -4.8533511e-05   1.4493405e-04   2.4255372e-04   6.3783438e-05   5.8998390e-05   3.5134221e-05   1.1708325e-04  -2.9895303e-04  -1.5269699e-04  -2.6647051e-04  -2.5979005e-04  -1.3757465e-04  -3.8274789e-05  -2.4356644e-04  -4.9032144e-05  -4.9808277e-05  -2.2865014e-04  -2.1040863e-05  -2.4333595e-04  -2.1177462e-04  -5.2395323e-04  -4.5291439e-04  -5.4922355e-05   2.3207163e-04   1.8331116e-04   7.3181669e-05  -4.6384639e-06  -1.6653894e-04  -1.9577389e-04  -1.1635811e-04   1.3213954e-04   9.7543896e-05   1.3255746e-04  -1.5544991e-05   1.0938017e-05   8.0360536e-05   2.5741578e-04   1.0448528e-04   5.5866576e-06   2.9853491e-05   7.0119358e-04   2.4651803e-04  -3.7951855e-04  -4.7158803e-05  -2.8855418e-04  -8.6657230e-05  -1.6205752e-04
  -1.5208431e-04   1.0256731e-04   5.1280229e-05   9.9460762e-05   2.9584698e-04   5.7845586e-04   1.8872519e-04   6.2748995e-06   2.6279083e-04   5.5435281e-05  -5.1642419e-04   5.9126287e-06  -3.8636845e-04  -4.3442100e-04  -1.6470955e-04  -3.6066227e-05  -3.4017733e-04  -1.7453252e-05  -2.0940491e-04  -4.6741893e-04  -7.8386503e-05  -7.0678630e-05  -1.8991996e-04  -8.7932764e-05  -7.0614900e-05   4.0441361e-04   2.5855209e-04   1.2626634e-04   9.6962707e-05  -2.2806797e-05  -1.4029459e-04  -2.4251740e-04  -3.0695935e-04   2.3332232e-04   1.0047105e-04   2.6634213e-04   5.2368534e-05   2.0751862e-05   2.3027459e-04   5.7581958e-04   1.2820437e-04   1.6045684e-04  -2.0432817e-05   9.4442192e-04  -7.4072572e-04  -6.8757392e-04  -3.6611782e-05   2.9144733e-04  -1.9872109e-04  -9.6941825e-05
  -2.0793955e-04   1.4074938e-04   1.9111828e-04   2.0522895e-04   3.5332414e-04   4.9638574e-04   2.0682630e-04   4.3295862e-05   2.7537157e-04   5.2555650e-05  -5.7357410e-04   5.3302650e-05  -4.0650755e-04  -4.7945202e-04  -2.1053522e-04  -2.8079885e-05  -3.7320005e-04   2.6788670e-05  -4.0932515e-04  -4.9000472e-04  -8.6470885e-05   7.3630734e-05  -1.8043505e-04  -4.7750058e-04  -1.8401296e-04   4.1792559e-04   2.8571964e-04   1.2360734e-04   1.3904064e-04   2.2032786e-05  -1.6278352e-04  -2.0599170e-04  -2.6863546e-04   2.8187095e-04   1.2337013e-04   4.0931508e-04   1.7111821e-04  -9.7448449e-08   4.0372426e-04   1.7710419e-04   3.9113977e-04   1.5826868e-04   4.3184686e-04   7.2005764e-04   2.8437236e-04  -6.9063198e-04   1.5410920e-05   2.4458786e-04   1.2169022e-04  -1.8348315e-04
  -1.8350343e-04   2.5731858e-04   3.0120922e-04   3.1221609e-04   4.1607660e-04   8.7299151e-04   3.6314424e-04   1.5139775e-04   2.1961432e-04   1.8492525e-05  -7.3991611e-04   1.6707917e-04  -3.9198043e-04  -5.5687613e-04  -3.1623186e-04  -2.6483654e-06  -3.8114152e-04   8.7389286e-05  -5.0973397e-04  -6.0654356e-04  -1.8234548e-05   1.2522617e-04   1.7891057e-04  -3.6051893e-04  -4.1993289e-06   4.9347739e-04   2.7419146e-04   1.8157363e-04   2.4358157e-04   5.4151324e-06  -1.5682355e-05  -1.2769783e-04   3.3308374e-05   3.6256012e-04   9.6944452e-05   5.2221294e-04   9.1408067e-05   2.0528283e-05   3.5558120e-04   3.1302229e-04   3.8392781e-04   2.6355014e-04   2.3389450e-05   1.8062809e-04   4.8958411e-04  -5.9893838e-04  -2.1723861e-05   4.6857054e-05  -1.3487546e-04  -1.6932726e-04
  -1.6215719e-04   2.0136309e-04   4.0659346e-04   3.4131328e-04   2.1557443e-04   8.3751074e-04   2.3828431e-04   2.7759468e-05   4.3425290e-04   3.3317057e-05  -7.2456943e-04   1.7078496e-04  -4.8063343e-04  -5.6860934e-04  -3.0535861e-04  -3.0828194e-06  -4.1820877e-04   9.2552364e-05  -7.1695843e-04  -6.4828584e-04  -7.1852613e-05   1.8709381e-04   2.3371741e-04  -1.1135807e-04   2.2438655e-04   6.4012845e-04   2.7905140e-04  -2.4438070e-05   1.7804402e-04  -2.2640577e-05  -5.0671268e-05  -2.9446394e-04  -7.5311749e-05   3.4571034e-04   9.4749790e-05   4.4520185e-04   8.4072955e-05  -3.9768888e-06   3.8525957e-04   2.8805772e-04   4.2541442e-04   1.9003064e-04   2.0208070e-04  -1.2433641e-04  -7.1957253e-04  -6.4069976e-04  -3.8584640e-05   9.0378489e-05  -1.2662486e-04  -2.4781976e-04
  -1.5237839e-04   2.2689361e-04   1.9057163e-04   3.6491701e-04   2.9160141e-04   8.3914609e-04   2.8418211e-04   1.1536070e-04   6.4373208e-04   8.6278169e-06  -7.1794260e-04   1.6843200e-04  -4.8170434e-04  -5.5832788e-04  -2.4620420e-04  -2.2370641e-05  -3.9795513e-04   7.6752076e-05   1.7337443e-04  -5.8919401e-04  -1.0109923e-04   1.1974426e-04  -1.0265684e-04   4.2098208e-04  -2.2645861e-04   3.8842991e-04   2.2599600e-04   1.2139668e-04   2.0414540e-04  -5.2306765e-05  -8.2077720e-05  -2.4099692e-04  -1.8938947e-04   2.6959580e-04   1.0365904e-04   3.1009686e-04   8.7565131e-06  -4.0493604e-05   2.7454220e-04   3.5764897e-04   1.1051989e-04  -2.7110098e-05  -2.2782298e-04  -6.5355511e-05   3.3598606e-04  -7.5021898e-04  -1.3432263e-04  -2.3681714e-04  -5.3102250e-04  -3.4917425e-04
  -4.5389106e-04   8.5362059e-05   1.3898172e-04   1.8022626e-04   1.1809787e-04   5.0572510e-04   1.3048870e-04  -2.4690438e-05   1.5224762e-04   1.9680587e-05  -5.3358451e-04  -7.7884222e-05  -4.2663634e-04  -4.6372018e-04  -1.6081192e-04  -9.4881238e-05  -3.8166012e-04   8.9050218e-07  -9.6393902e-05  -4.3738060e-04  -6.9686736e-05   4.4116241e-05  -5.5368357e-05  -4.0654733e-05  -2.4716867e-04   2.3692878e-04   1.3137207e-04   5.0138184e-05  -6.3976750e-06  -8.8244509e-05  -1.4006388e-05  -2.5192124e-04  -2.6866599e-04   7.4940748e-05   4.6476587e-05   9.2860457e-05  -7.1493487e-05  -3.0896095e-05   9.7511962e-05   4.0375086e-04   3.1777869e-05  -1.3831518e-04  -3.8112767e-04  -4.4887155e-04   2.3008067e-04  -4.7994292e-04  -1.1972606e-04  -3.3113622e-04  -3.0293726e-04  -1.8673111e-04
  -1.9949915e-04   1.0994913e-04  -3.3470500e-05   1.6592567e-04   3.0229978e-05   3.3141204e-04   8.8109693e-05  -7.6087881e-06   5.5347187e-05  -6.2873980e-05  -2.9798341e-04   4.1757696e-05  -2.5814638e-04  -2.9874840e-04  -7.5045580e-05  -9.7554606e-05  -2.0636352e-04  -4.8552760e-05   2.5830526e-04  -1.9867478e-04  -4.9210612e-05   7.1077651e-05   5.1942930e-05  -4.0544811e-04   1.6064903e-04   3.3820744e-04   3.7143822e-05  -3.2009713e-05  -1.6655891e-05  -5.4625998e-05   3.4090688e-05  -1.1898444e-04  -1.1850003e-04   5.9528335e-05  -3.7207926e-06   4.4488486e-05  -2.5026033e-05  -1.3789770e-05   7.9651894e-05   1.6845699e-05   7.0715927e-05  -8.1813581e-05   2.2952561e-06   3.3665900e-04  -3.0466434e-04  -3.4743053e-04  -7.2871633e-05  -2.5771678e-04  -2.2086620e-04  -2.6274734e-04
  -6.8769950e-05   6.5337408e-05  -2.5192538e-05   1.2320378e-04   7.0006667e-05   2.6681382e-04   1.1233100e-04   1.2767107e-04   9.0065048e-05  -3.6233407e-05  -2.5541440e-04  -6.1669627e-05  -2.1437812e-04  -2.1487055e-04  -7.9755460e-05  -8.4226012e-05  -1.5697759e-04  -1.4193287e-05   2.0320076e-04  -2.0160580e-04  -4.7108009e-05   9.3819808e-06  -2.7829627e-04  -3.0119464e-04   5.1541003e-05   1.0971454e-04   1.7941365e-04   1.4176976e-04   9.9475779e-05  -3.6280970e-05  -1.0494098e-05  -1.1264618e-04  -2.1130359e-04   4.5061450e-05  -3.3663495e-05   5.2835203e-05  -1.0413831e-04  -4.1517171e-05   1.0432999e-04   2.1594217e-04   5.8013607e-05   2.0055559e-06   1.4347798e-04   8.8605168e-04   4.3403877e-05  -1.0486381e-04  -5.7947618e-05   4.0972690e-04  -3.4359262e-05  -7.4694035e-05
  -1.9720037e-04   6.1983141e-05  -2.4612684e-05   3.9691960e-05   3.4994962e-05   2.5366060e-04   8.6367647e-05   6.2687111e-05   1.5737959e-04  -3.3577908e-05  -2.8415004e-04  -1.3549044e-04  -2.0146725e-04  -2.1777650e-04  -8.4184830e-05  -6.2066378e-05  -1.5415886e-04  -5.0763338e-05  -2.1851747e-04  -1.9975158e-04  -7.1502072e-05  -5.0979990e-05  -9.2579736e-05  -5.9004407e-04   1.5943339e-04  -3.8030757e-05   7.6908356e-05   1.4655960e-04   4.3547756e-05  -3.6960817e-05   2.0362158e-05  -2.1536586e-04   9.0625334e-05  -3.1443251e-06   1.9889154e-05  -1.9269090e-05  -9.2328301e-05   2.6777834e-06   9.9273479e-05  -3.0882195e-06  -9.8979217e-06  -1.9644032e-05  -3.5577244e-04   1.8728607e-04   1.5857803e-04  -1.6480396e-04  -4.8903243e-05   3.2600507e-05  -9.4098388e-05  -1.0877573e-04
  -7.8761426e-05   5.0067545e-05  -6.0886356e-05   5.5310185e-05   1.0663506e-05   2.3592716e-04   1.9108469e-05   3.2001568e-05   8.1598708e-05   1.6607080e-05  -2.4151806e-04  -2.9935911e-05  -2.3903935e-04  -2.1475171e-04  -5.6537690e-05  -7.3525349e-05  -2.0752639e-04  -7.1467366e-05   3.1544335e-04  -1.9232706e-04  -4.4315188e-05   1.6585011e-05  -4.9642540e-07  -1.0647222e-04   9.1411821e-05   2.1285916e-04   5.2620300e-05   4.8447186e-05  -2.9284918e-05  -2.7539549e-05  -8.1399310e-05  -1.1955282e-04   2.0296722e-04   3.0443420e-05   8.3713043e-05   5.6485533e-05  -9.4250739e-05  -2.3358152e-06   8.2981016e-05  -1.2078868e-04   1.1731862e-04  -6.4842898e-05   2.5371078e-04   7.5251539e-04  -2.3575378e-05  -2.7123027e-04  -3.9627139e-05  -2.0580483e-04   3.4186583e-06  -5.8623827e-05
  -1.7430854e-04   1.4849837e-05   6.6990087e-06   3.0901017e-05   2.8402790e-05   2.6937856e-04   7.1940078e-05   6.9643342e-05   1.2302211e-04   4.0370219e-06  -2.4745351e-04  -9.3448136e-05  -2.1760995e-04  -2.1796451e-04  -5.9068621e-05  -1.0318594e-04  -1.5563077e-04  -6.5531618e-05  -1.0125313e-04  -2.0132890e-04  -4.4569115e-05  -5.1152969e-05  -4.3259039e-05  -3.9974414e-04   2.4577448e-04   2.3206531e-04   4.2745455e-06   1.3142952e-04   5.9763293e-05  -4.3974411e-05  -1.9992667e-04  -1.3498089e-04   6.1107574e-05  -1.0330717e-06   3.2116674e-05   1.1198520e-04  -6.3576837e-05  -3.4023287e-05   1.0926927e-04   8.6535283e-07   6.3983891e-05  -2.2378119e-04  -2.3352576e-04  -9.0014201e-04   3.6167051e-04  -2.0038124e-04  -6.3738837e-05  -8.1089485e-05   1.2857064e-04  -1.3603219e-05
  -2.2504857e-04   1.4427052e-05  -6.6335655e-05   2.1090661e-06   4.4622910e-05   2.1055450e-04   1.2746331e-04   7.4913223e-05   1.8013144e-04  -1.4972040e-05  -2.6002558e-04  -1.1733016e-04  -2.4010452e-04  -2.0145648e-04  -1.0144056e-05  -9.5947107e-05  -1.9071171e-04  -3.6814978e-05  -1.6821888e-05  -2.0174382e-04  -8.8411878e-05   3.3948741e-05  -1.9242108e-04   5.0510487e-05  -1.6704362e-04   7.9602323e-06   5.0950595e-05   9.7088378e-05  -3.8076192e-05  -2.6487736e-05  -3.2330776e-05  -5.1695293e-05  -5.9203019e-05   7.1593008e-06  -2.3656232e-05   1.1770011e-04  -1.5109387e-05   1.3916833e-05   1.1638051e-04   4.3930544e-05   3.1565385e-05  -1.7081689e-04   1.6543208e-05   2.7185224e-04  -2.3732378e-04  -1.2213908e-04  -3.9016191e-05  -2.8235358e-04  -3.7514206e-04   5.8086862e-05
  -1.8383331e-04   3.0380219e-05  -2.6622016e-05   5.1857514e-05  -6.1137757e-06   2.5298609e-04   5.8751586e-05   4.8976366e-05   9.6055453e-05  -1.4516750e-06  -2.3880637e-04  -4.7606914e-06  -2.3782460e-04  -2.3057082e-04  -7.6064156e-05  -8.6237458e-05  -1.6844287e-04   1.9287681e-06   5.8643716e-05  -2.0076623e-04  -3.4747893e-05  -1.4039881e-06  -1.9700915e-04   2.9955296e-05   9.6120937e-05   3.3136772e-04   5.3644580e-05  -5.2385647e-05   1.5873478e-05  -3.1374322e-05  -7.2441981e-05  -1.8878713e-05  -9.4756557e-05   2.8886321e-05   8.0223308e-06   1.1285271e-04  -4.1923748e-05  -9.6092162e-06   9.9143763e-05   2.8043560e-04   6.8213834e-05   5.4672706e-05   7.8545279e-05   6.5356540e-04   2.5865823e-04  -3.6428191e-05  -3.6501122e-05  -2.8753100e-04  -2.1194649e-04   1.5396336e-05
  -2.1151750e-04   3.6797715e-05   6.8610752e-05   2.9468372e-05   6.9942515e-05   2.0592399e-04   1.0415826e-04  -3.2691092e-05   1.4029097e-04  -4.0177649e-05  -2.4994666e-04  -2.7726594e-05  -2.1303972e-04  -1.8909824e-04  -5.4746364e-05  -7.4833457e-05  -1.5575191e-04   5.0156359e-06  -5.4513715e-04  -1.8305810e-04  -6.0472732e-05  -4.2897409e-05  -1.3418967e-04  -4.6702989e-04  -1.0106531e-04   2.5329055e-04   1.0135143e-04   4.2064170e-05  -2.8833579e-06  -1.7949311e-05   3.7657272e-05  -3.0880206e-04   1.4881440e-04   2.3967688e-05   9.5443000e-05   5.2674342e-05  -7.8403951e-05  -1.0983448e-05   9.1743212e-05   2.5650091e-04   1.1896019e-04   1.4648853e-04  -2.7578208e-05  -8.1247697e-04   1.5205707e-04  -5.0563500e-05  -6.6752320e-05   8.1351740e-05  -2.6607211e-04  -7.9781566e-05
  -1.0450339e-04   3.3402943e-05   5.3405929e-05  -4.2529395e-05   1.1047247e-05   2.1499149e-04   9.7530501e-05   4.9576269e-05   1.8647870e-04   4.6106070e-05  -2.6055085e-04  -1.6660157e-04  -2.2399597e-04  -2.7893679e-04  -1.2702083e-04  -7.6957360e-05  -1.9216843e-04  -6.3757157e-05  -8.3015068e-05  -2.0928905e-04  -2.5385159e-05  -5.0770203e-05  -3.0150457e-04  -1.5137265e-04   9.9190829e-06   1.5922235e-05   6.9634822e-05   7.3043208e-05   1.5089760e-05  -6.2713931e-05  -4.7691163e-05  -3.2601776e-04  -2.1755570e-04   5.5001860e-06   4.1893061e-05   5.4983257e-06  -8.7616419e-05  -4.2270742e-05   6.9630274e-05   1.6246866e-04   1.2933684e-04  -7.4941054e-05  -4.0098446e-04   6.6652196e-04   1.9151668e-05  -1.6942769e-04  -2.7634062e-05   5.8584752e-05  -3.6477923e-05  -1.3995879e-04
  -2.0663350e-04   3.7138510e-05  -3.0628111e-05   1.2920137e-05  -1.7056034e-05   2.1050154e-04   4.3000069e-05  -2.8477649e-05   2.0282803e-04   1.6463553e-05  -1.8215830e-04  -4.1518080e-05  -1.9101531e-04  -2.2172274e-04  -3.4658995e-05  -1.0345777e-04  -1.6362438e-04  -5.2434796e-05  -2.3128811e-04  -1.7450335e-04   1.1735522e-05  -1.1324696e-05  -6.8280065e-07  -2.5094813e-04  -6.6833949e-05   1.2741079e-04   1.3504937e-04  -1.1590819e-05  -4.1500945e-05  -3.1786618e-05   2.1018795e-05  -6.0620681e-05  -4.1085540e-04   3.9659768e-05   6.8048568e-05  -8.8615379e-06  -7.9752339e-05  -1.8736628e-05   2.3070728e-05  -4.3677595e-05   4.7263002e-05  -5.0728144e-05  -1.0375619e-04  -4.6727699e-04  -6.9700771e-05  -1.2975351e-04  -5.5244627e-06   1.4967605e-04   1.1069613e-04   3.9705105e-06
  -8.7208828e-05   2.7803699e-05  -1.6444642e-04   1.5165193e-05   2.4990206e-05   1.9711976e-04   9.4581876e-05   4.6310470e-05   1.0747802e-04  -3.1519903e-05  -2.0451017e-04   1.0440635e-06  -1.4496368e-04  -1.9907598e-04  -8.4314815e-05  -9.5178744e-05  -1.3946682e-04  -3.4925572e-05  -1.7507093e-04  -1.5370024e-04  -3.7069196e-05   3.3747154e-05  -3.0001573e-05  -2.4835774e-04  -1.1275319e-04   1.5728761e-05   4.2511510e-05   3.7457212e-05   8.9918622e-06  -4.1811440e-05  -3.7816353e-05  -2.2249033e-04   1.4565390e-04   2.4667179e-05  -8.9539724e-05   1.0171298e-04  -8.9802132e-05  -2.4331855e-05   7.1772134e-05  -1.9445299e-04   7.3974836e-05  -1.5291031e-05   3.0337658e-04   9.2242425e-04  -5.3990374e-05  -1.8838722e-04  -1.4871345e-05   9.5834905e-05  -9.4751676e-06  -1.8244202e-04
   6.1125320e-05   3.8871578e-05  -5.0879647e-05  -1.1687415e-05  -5.8042006e-06   1.7419380e-04   5.6464269e-05   6.3347456e-05   1.6113813e-04   8.8211327e-06  -2.0807980e-04  -8.2543964e-05  -1.5933155e-04  -1.7788020e-04  -4.5896821e-05  -8.5542219e-05  -1.7138229e-04  -5.0784474e-05   3.5618727e-05  -1.0287149e-04  -2.8737791e-06  -5.3615917e-05  -3.8142761e-04  -2.0906897e-04   1.5547976e-04   1.6589837e-04   6.1942141e-05  -6.7135348e-05  -7.8793426e-05  -5.5102257e-05  -7.1500355e-05  -2.4430238e-04  -3.2800323e-05  -1.2075399e-05   5.1772335e-05   1.2082370e-05  -1.3015332e-04  -3.9013259e-05   5.4261320e-05  -3.1291605e-05   5.4202279e-05   3.0817060e-05  -4.5521723e-04  -7.7500707e-04   1.1010939e-04  -2.1534633e-04  -3.8434915e-05  -4.9650880e-05  -2.3404146e-04  -1.5446410e-04
  -2.0888755e-04   3.2639531e-05  -1.6759751e-04  -1.7070575e-05   8.2675557e-05   1.4947787e-04  -2.3539787e-06  -3.0200510e-05   2.0866386e-04  -3.0123618e-05  -1.9540719e-04  -1.6552056e-05  -1.6593190e-04  -1.8541048e-04  -2.2808073e-05  -1.1977449e-04  -9.0409099e-05  -4.7033107e-05  -1.9718998e-04  -8.9440618e-05  -2.2556318e-05   3.5872006e-06  -3.0066229e-05   6.5029080e-06  -8.3112362e-05   1.3111468e-06   6.0610208e-05  -8.5035543e-05  -4.8368962e-05  -6.5765271e-05  -1.4288787e-04  -7.6911267e-05  -2.2334496e-04  -1.5137175e-05  -1.0312040e-05  -6.6277418e-05  -1.0114201e-04  -5.2239797e-05   3.3642638e-05   1.2666162e-04   1.0327216e-04   9.5617288e-05  -9.2953262e-05  -1.3248094e-04   2.7430875e-04  -1.4633205e-04   7.0655265e-06   2.7307204e-04   5.1027990e-05  -2.3491137e-05
  -7.2562580e-05   5.6125566e-05  -8.1055150e-05  -4.4908061e-06   3.7005117e-05   6.8366317e-05   1.4439003e-05  -4.4099415e-05   4.1423260e-05  -1.7162155e-04  -1.4631651e-04  -8.8906716e-05  -1.0225840e-04  -1.0873700e-04   3.5132336e-05  -7.5525342e-05  -7.3990392e-05  -1.3235777e-05  -2.8386730e-04  -7.5006756e-05   7.2872775e-05   2.6780745e-05  -2.5171327e-04   6.9503777e-04   1.5768936e-04   6.8709865e-05   3.2544194e-05   4.8743001e-05   7.6465113e-08  -5.1090199e-05  -7.7291035e-05  -1.1963929e-04  -9.8409764e-05  -5.4419128e-05  -4.0024948e-05   9.2852701e-05  -6.3990017e-05   1.1772507e-05   1.4076976e-05   5.9201175e-05   1.7047605e-04   1.7343571e-05   6.5028769e-05   2.7944945e-04   2.8208841e-04  -2.8224007e-04   1.3173196e-05   2.9694624e-04   2.8601798e-04  -5.9958726e-05
  -1.9231789e-04   1.6152415e-05   2.2198556e-05  -1.0090344e-05   2.9070334e-05   1.4479458e-04   5.4055650e-05   8.7334720e-06   6.8991394e-05  -1.5808210e-04  -1.6687087e-04  -4.8356298e-05  -9.7034914e-05  -1.6292039e-04  -7.4365977e-05  -8.7618326e-05  -1.5329204e-04  -5.5595632e-05  -4.8157963e-04  -1.4595331e-04   1.5163781e-07  -8.2231869e-05  -1.4914245e-04   5.9850561e-04   2.6724997e-04   3.1389241e-04   6.4861747e-06  -2.0315649e-04  -6.5258275e-05  -7.5277421e-05  -2.0184938e-04  -1.8102046e-04  -1.6935349e-04  -3.3581622e-05  -5.7995308e-05  -7.5985648e-05  -1.2788632e-04  -4.1670603e-05   5.3786796e-05   1.6199055e-04   3.6999365e-05  -1.7163587e-04   1.2289539e-04  -2.3531480e-04  -1.0169724e-04  -1.6309600e-04  -6.8132482e-05   4.4089124e-05  -4.9103313e-05  -1.0026679e-05
