   3.0715953e-04   4.5972920e-05   2.8206906e-04  -1.7582096e-06   3.7800631e-04  -1.7509379e-05   4.7361751e-05  -3.6677622e-05   1.5762466e-04  -3.3616554e-04   2.4894736e-04   9.7603035e-05   3.3056390e-04   2.2868931e-04  -7.7375953e-05   4.1785114e-04   4.6414908e-04  -5.9172740e-05   3.3852641e-04   4.7064878e-04   3.3462033e-04  -1.9934453e-04   4.3153788e-05   4.8886269e-04   9.5415089e-05  -4.2082215e-04  -2.2108226e-04  -3.2904802e-04   1.5200186e-04   1.9653617e-05   2.2400499e-04   8.5932705e-05  -4.7596663e-05  -2.9241378e-04  -5.2693114e-04  -3.4852029e-04  -3.1825562e-05  -2.5951007e-04  -2.0666981e-04  -5.7736604e-04  -2.4501194e-04  -9.3067973e-07  -1.4315160e-04   1.9517243e-04  -6.8812928e-06  -4.7567446e-04   2.0034844e-04   2.1739776e-04   2.2297174e-04   7.0973707e-05
   1.9565441e-04   2.9704639e-05   1.9287487e-04  -3.6408939e-05   2.5625018e-04  -6.9309492e-05   1.9574011e-06   6.7909008e-05  -8.6113563e-05  -3.9616443e-04   2.2307348e-04   9.6804368e-05   2.5816145e-04   2.1857368e-04  -2.1627713e-04   4.1497999e-04   4.2458330e-04  -7.7132485e-05  -2.7800931e-04   4.0955373e-04   2.8753161e-04  -2.2769433e-04  -6.1587700e-05  -4.2698623e-04  -4.8932363e-04  -5.6970649e-04  -2.1697459e-04  -3.1536745e-04   1.3370103e-04  -9.4214147e-06  -1.0235047e-04  -4.7449848e-05   1.0450508e-04  -3.3134516e-04  -5.1205023e-04  -3.0935800e-04  -8.9297377e-05  -2.7365334e-04  -2.0505652e-04  -5.7913887e-04  -2.7440750e-04  -5.6096425e-05  -4.1416331e-04   1.3532556e-04   1.3733821e-04  -4.6851867e-04   1.7575352e-04   2.9494599e-04   1.3992365e-04   4.3268497e-05
   2.9386449e-04  -1.3643000e-06   2.0849051e-04  -5.7336172e-05   2.7156263e-04  -8.7708548e-05  -4.2121934e-05  -5.5043605e-05   5.3445026e-05  -4.0412525e-04   1.8926560e-04   6.4508255e-05   2.2085817e-04   1.9138546e-04  -2.4806708e-04   3.9094966e-04   4.1631091e-04  -7.9052021e-05   4.9840892e-04   4.3656267e-04   2.1749597e-04  -3.0605422e-04   3.8927482e-04  -5.2613817e-04  -5.7131762e-04  -5.7194289e-04  -1.6128726e-04  -4.2012610e-04   1.6712261e-04  -2.3451354e-05  -1.9130586e-05   1.2786712e-05  -1.6939266e-04  -3.0359780e-04  -5.7743926e-04  -4.1916742e-04  -7.8284138e-05  -3.0140675e-04  -2.2363637e-04  -5.6586281e-04  -2.0288106e-04  -3.7433445e-05   1.0659979e-05  -5.1502074e-04   2.5992803e-04  -6.6324067e-04   2.0938533e-04   4.8915219e-05   1.6669395e-04   5.0880866e-05
   3.4609612e-04   2.9733612e-05   1.5912329e-04  -7.9307883e-06   2.8202351e-04  -1.3246990e-04  -4.0256873e-05  -8.0932325e-05  -1.5643647e-05  -4.4157810e-04   2.0034250e-04   1.7000023e-04   2.8956326e-04   1.3892405e-04  -3.0661837e-04   3.9599283e-04   4.6049262e-04  -1.5273779e-04   1.6520846e-04   5.3111778e-04   6.5948901e-05  -4.4406738e-04  -1.5745671e-04   9.0602443e-05  -2.8195963e-04  -7.0026185e-04  -2.4854916e-04  -4.3576275e-04   4.7530048e-05  -6.9288151e-05  -1.2889721e-04  -1.3010047e-04  -1.7417694e-04  -2.8796177e-04  -5.2504498e-04  -3.7563572e-04  -1.3850705e-04  -3.4714930e-04  -2.5767609e-04  -5.9029728e-04  -3.5184019e-04  -5.3470969e-05  -4.3840610e-04  -5.9940206e-04   1.8747452e-04  -7.2398724e-04   1.4273534e-04   2.1022504e-04  -4.3894739e-05  -1.8378870e-04
   2.0723455e-04  -2.8313366e-07   2.6338600e-04  -1.0438663e-04   2.0256259e-04  -7.5292373e-05  -8.5288251e-05  -4.0197992e-05  -1.9157835e-04  -3.0280233e-04   1.8541764e-04   3.9163206e-05   2.1091306e-04   1.0884726e-04  -3.3233801e-04   3.9109157e-04   4.6387961e-04  -1.1672924e-04   2.5244595e-05   4.9412838e-04  -4.5821973e-05  -3.8939019e-04   1.1211015e-04  -6.2812911e-04  -5.1739108e-04  -5.2689243e-04  -3.2646983e-04  -4.2276914e-04   9.2286464e-05  -5.9048041e-05  -5.6896271e-05  -1.5596708e-04  -2.9944838e-04  -3.1542455e-04  -5.5183505e-04  -4.0203449e-04  -1.7094803e-04  -3.4145705e-04  -2.2090363e-04  -5.9332547e-04  -3.2544410e-04  -1.5998930e-04  -2.8313141e-04  -9.7350276e-04   3.3939953e-04  -4.8944954e-04   1.3461572e-04  -6.4410902e-05  -1.3407662e-04  -9.9136647e-05
   3.0858355e-04  -8.5468682e-06   1.9772626e-04  -8.7501976e-05   2.5876120e-04  -1.5606321e-04  -9.0560789e-05  -8.5447362e-05  -2.3302775e-04  -2.8914082e-04   1.8088036e-04   6.8637521e-05   2.3217528e-04   1.1218333e-04  -3.2710799e-04   3.6373507e-04   4.2017660e-04  -1.4418935e-04   2.6473054e-04   4.7008542e-04  -7.6092726e-07  -3.8427929e-04   1.8647248e-04  -2.3843035e-04  -5.2867399e-04  -3.9337040e-04  -3.2107564e-04  -5.2850519e-04   4.5267254e-05  -9.9442608e-05  -5.9283204e-05  -7.8284291e-05  -2.8028496e-04  -3.1362192e-04  -6.1954383e-04  -4.7392247e-04  -1.4616658e-04  -3.9394086e-04  -2.8842181e-04  -5.0688791e-04  -3.2893443e-04  -1.5319428e-04  -5.6486788e-05  -7.7657215e-04   5.7037349e-05  -6.1364449e-04   1.1157474e-04   1.5029586e-04  -1.8150888e-05  -1.4978230e-04
   1.6338332e-04  -4.9147991e-05   2.2129687e-04  -1.1542506e-04   1.6409940e-04  -1.5622610e-04  -6.9810412e-05  -5.5351091e-05  -2.6678949e-04  -3.2080419e-04   1.9959979e-04   4.3533761e-05   1.9123394e-04   9.9119607e-05  -3.7171386e-04   3.5121836e-04   3.8297067e-04  -1.3027026e-04   3.5516755e-04   3.7785363e-04   5.7814068e-06  -4.3521827e-04  -1.4199715e-04  -4.3036725e-04  -2.3506446e-04  -5.8765331e-04  -3.4800661e-04  -5.5510004e-04   5.3122631e-06  -8.7128421e-05  -1.6253171e-04  -1.7597583e-04  -2.5622523e-04  -3.3505223e-04  -6.7236996e-04  -5.0045148e-04  -1.8049120e-04  -3.6921713e-04  -2.8546888e-04  -5.6989602e-04  -3.5352458e-04  -1.3949141e-04  -3.4317930e-04  -6.0899742e-04   1.1585370e-04  -6.5073109e-04   7.6447606e-05  -2.2157205e-04  -2.8890712e-04  -1.6187735e-04
   2.7077057e-04  -7.9893311e-05   8.2166123e-05  -1.3590709e-04   1.7470356e-04  -1.5604634e-04  -7.8794554e-05  -2.7055878e-05  -2.3956365e-04  -3.4745483e-04   1.7340686e-04  -7.5894714e-06   1.6622627e-04   1.0933072e-04  -3.5607006e-04   3.0637174e-04   3.4240156e-04  -1.6551401e-04  -1.3680736e-04   3.1769238e-04   5.1527189e-05  -2.7569087e-04  -2.9411775e-04  -6.4628344e-04  -5.0330965e-04  -5.2218919e-04  -3.0814859e-04  -4.0090762e-04   4.0225346e-05  -6.6265704e-05  -9.1800386e-05  -2.2299655e-04  -3.8512240e-04  -3.8605151e-04  -6.4922235e-04  -5.1547773e-04  -2.5511696e-04  -3.6458528e-04  -2.9543677e-04  -5.4737844e-04  -3.8723648e-04  -1.7366026e-04  -9.5487194e-05  -8.1929186e-04   1.7559183e-04  -3.2428422e-04   1.3976728e-05  -3.5674169e-05  -2.6431849e-04  -1.4383237e-04
   1.1364542e-04  -7.6489981e-05   1.1730941e-04  -3.8907925e-05   1.3581148e-04  -1.9472098e-04  -9.9973389e-05   9.6315689e-06  -2.4901985e-04  -3.4949521e-04   2.0662432e-04   2.7083610e-05   1.3631483e-04   5.3324296e-05  -3.3982319e-04   2.9480160e-04   2.8036168e-04  -1.2899072e-04   2.0592641e-04   3.0785124e-04   1.0607918e-04  -1.9181830e-04  -1.2944058e-04  -3.1842840e-06  -9.3075639e-04  -4.0407231e-04  -3.9775483e-04  -5.5713742e-04  -3.3499880e-06  -7.9332021e-05  -6.6494278e-05  -3.3865788e-04  -1.9212278e-04  -3.4863778e-04  -6.9306709e-04  -5.4971798e-04  -2.9528441e-04  -3.5485809e-04  -2.8318522e-04  -6.9230434e-04  -3.9549021e-04  -1.0993956e-04  -4.0918498e-04   7.2640204e-04   1.5213483e-04  -4.6343802e-04  -2.3435507e-05  -1.6668235e-04  -2.4467687e-05  -1.6951181e-04
   1.2880306e-04  -8.6437962e-05  -5.5370938e-06  -5.3106327e-05   1.4135089e-04  -1.6911118e-04  -1.2604349e-04   2.8304981e-05  -3.5488102e-04  -3.5713660e-04   1.9524265e-04   1.3937857e-05   1.4001635e-04   3.5476431e-05  -4.1101320e-04   2.5606036e-04   2.5606007e-04  -1.3938843e-04   6.7156725e-05   2.8248582e-04   3.7007820e-05  -1.5916889e-04  -1.4653483e-04   2.1933255e-04   6.6965884e-05  -6.4017880e-04  -2.7693028e-04  -5.5791537e-04  -3.1650492e-05  -1.0383159e-04  -1.2278871e-04  -2.7052616e-04  -3.0084237e-04  -3.3363386e-04  -6.9889455e-04  -6.4011698e-04  -2.9618916e-04  -3.6593480e-04  -3.1664324e-04  -6.8620901e-04  -4.5898033e-04  -1.1839895e-04  -2.7168958e-04  -1.1167334e-03   1.3990411e-04  -4.9999834e-04   5.3830292e-05   9.0083515e-05  -2.8468517e-04  -9.8750068e-05
  -5.4921296e-05  -1.1838150e-04   5.9996200e-05  -8.3763676e-05   1.2724019e-04  -1.8661999e-04  -8.1277678e-05  -9.7204189e-05  -3.1590124e-04  -3.7739653e-04   1.6949438e-04  -2.9932107e-05   1.2607139e-04   1.7778282e-05  -4.5790311e-04   2.4426918e-04   2.6411106e-04  -1.0878615e-04   1.1466332e-04   2.8723697e-04   1.2888548e-05  -1.2884212e-04  -1.8961998e-04  -3.3410115e-04  -3.7035905e-04  -6.4062449e-04  -3.5604776e-04  -3.3729195e-04  -2.4827517e-05  -6.8286921e-05  -2.2188330e-04  -2.4179478e-04  -3.5203603e-04  -3.7209530e-04  -7.0709671e-04  -6.0929096e-04  -3.2630598e-04  -3.8048904e-04  -2.8721488e-04  -6.4714771e-04  -5.0796493e-04  -1.0213801e-04  -3.7984259e-04  -3.2178612e-04  -1.0964866e-04  -4.3774207e-04   1.4701423e-05  -3.2495020e-04  -2.5630748e-05  -7.7255398e-05
   9.4607007e-05  -1.2335683e-04  -1.1756336e-05  -7.7260171e-05   1.6507158e-05  -1.6891197e-04  -5.2228821e-05  -3.4623368e-05  -1.6106891e-04  -3.8880139e-04   1.3669512e-04  -5.7899862e-05   7.6915523e-05   2.4876641e-05  -4.0105591e-04   2.5177374e-04   2.6458607e-04  -1.0127357e-04  -1.8839249e-04   2.6792023e-04   4.2298325e-05  -2.0175995e-04   7.7296827e-05  -3.2739723e-04  -6.3952763e-04  -6.6456071e-04  -3.5655359e-04  -3.8383206e-04   4.3877430e-05  -6.6281347e-05  -3.4076180e-05  -2.1143012e-04  -1.7593392e-04  -3.4236029e-04  -7.1814406e-04  -5.8500102e-04  -2.7350869e-04  -3.7176776e-04  -3.1647217e-04  -6.3360226e-04  -4.7461301e-04  -1.5547972e-04  -6.1686430e-04  -1.7752193e-04  -5.2022813e-05  -4.9623009e-04   1.8060766e-05  -1.8405048e-04   1.4808006e-04  -2.2983765e-04
   2.4459601e-05  -9.7759454e-05  -6.1914565e-05  -2.9416247e-05   1.4986958e-04  -1.5325865e-04  -1.2865149e-04  -6.1324128e-05  -2.6186800e-04  -3.5311055e-04   1.7922890e-04   3.6573208e-05   1.1960838e-04  -1.2584823e-05  -3.8793177e-04   2.2289933e-04   2.9018873e-04  -1.4274473e-04   3.1150057e-04   2.4098586e-04   5.0298473e-05  -1.1132329e-04  -3.1723862e-04   4.7107815e-04  -4.8508160e-04  -4.9471488e-04  -3.1867207e-04  -4.3478137e-04  -2.1335667e-05  -9.3172879e-05  -5.5482236e-05  -1.6318227e-04  -3.6578457e-04  -3.6639514e-04  -7.1407866e-04  -5.2114693e-04  -3.3451503e-04  -4.0011312e-04  -3.1570659e-04  -5.9355353e-04  -5.0616305e-04  -1.2216570e-04  -3.6174152e-04  -4.0505282e-04   8.7188651e-05  -4.7135007e-04   7.5505930e-05  -4.8692673e-04  -1.0359637e-04  -1.9775306e-04
   1.3087405e-04  -8.7843895e-05   9.2884351e-05  -6.4309599e-05   1.5329341e-04  -2.0940279e-04  -1.0161808e-04  -2.1247144e-05  -1.7570556e-04  -3.6561064e-04   1.6041362e-04  -2.3691467e-07   5.8635473e-05   2.5094745e-05  -3.8293822e-04   2.3181672e-04   2.5685082e-04  -1.4638076e-04  -1.5181566e-04   2.6326283e-04   5.3569793e-06  -1.1635772e-04  -2.0972930e-04  -2.9636148e-04  -1.0789230e-03  -6.4536976e-04  -4.1306682e-04  -4.3746131e-04  -2.2352728e-05  -9.3857663e-05  -9.3707466e-05  -2.3497293e-04  -4.0835544e-04  -3.8080369e-04  -7.8035885e-04  -5.3981901e-04  -3.0222174e-04  -4.0260769e-04  -3.6746176e-04  -7.3410332e-04  -4.1445481e-04  -1.5094837e-04  -3.4049430e-04  -9.6889900e-04   4.4389926e-05  -3.9590866e-04   2.7793931e-05  -5.1334692e-04  -2.9831070e-05  -1.0406545e-04
  -2.3205450e-05  -9.3612987e-05  -5.5046112e-05  -2.6805754e-05   1.3872983e-04  -1.9155999e-04  -1.2578188e-04  -1.0402387e-04  -1.1421130e-04  -3.6542644e-04   1.5626915e-04  -7.8480232e-05   6.4536085e-05   1.5917356e-05  -3.9960502e-04   2.2250405e-04   2.5928853e-04  -1.0229685e-04  -2.8682497e-04   2.4098426e-04   3.2857035e-05  -1.2321201e-04  -2.7059441e-04  -5.9328129e-04  -1.0383921e-04  -6.8604667e-04  -3.1100618e-04  -3.8477377e-04   3.6021436e-05  -8.8421977e-05  -1.7880494e-04  -6.6377470e-05  -1.8777713e-04  -4.2456295e-04  -7.7742571e-04  -5.8043818e-04  -2.8871899e-04  -4.0701200e-04  -3.4580936e-04  -6.8908196e-04  -4.5064022e-04  -4.5345667e-05  -6.1019277e-04  -3.7300054e-04   6.3676263e-05  -2.2886973e-04  -1.6648939e-05  -1.9389114e-04  -2.6853065e-04  -2.0654997e-04
   8.1813610e-05  -7.6689183e-05  -5.4174488e-05  -4.2316882e-05   1.3065124e-04  -1.9082442e-04  -8.2663923e-05  -7.7736848e-05  -8.1011982e-05  -3.3696755e-04   1.7510822e-04   1.3237523e-05   5.1008756e-05   1.7309347e-05  -3.4381941e-04   2.1857039e-04   2.2953360e-04  -9.7496551e-05   3.6378804e-04   2.2958886e-04   7.0437403e-05  -1.0808351e-04  -1.3312582e-04  -1.8464318e-04  -3.5567407e-04  -6.0259359e-04  -3.7426688e-04  -5.5315706e-04  -4.2564643e-05  -1.2375218e-04  -1.3693629e-04  -2.9063571e-04  -9.9692530e-05  -2.9711379e-04  -6.9354119e-04  -5.9459277e-04  -3.1197348e-04  -4.0553682e-04  -3.1338842e-04  -7.8304892e-04  -4.3999660e-04  -1.1709665e-04  -1.6184746e-04  -2.5527278e-04  -1.5546579e-05  -3.3065950e-04   3.0180936e-05  -4.6187991e-04  -2.8932134e-06  -2.9397313e-04
  -1.0288984e-05  -8.8187830e-05  -4.5888934e-05  -1.5482112e-05   5.5363158e-05  -1.9246922e-04  -1.4522721e-04  -6.1844257e-05  -1.3271523e-04  -3.4605467e-04   1.6961977e-04  -3.5817909e-06   5.2953117e-05  -2.6763535e-06  -3.9571474e-04   1.6773974e-04   1.6908286e-04  -9.9051445e-05  -3.2648811e-04   2.4028834e-04   5.6617482e-05  -3.4959849e-05   9.2377231e-05   2.6075929e-04  -4.2893679e-04  -4.8660015e-04  -3.3806486e-04  -3.6843118e-04   3.3467102e-05  -1.4638211e-04  -1.8567400e-04  -2.9054831e-04  -2.1159637e-04  -3.5690688e-04  -7.4793620e-04  -5.7701359e-04  -3.6884559e-04  -4.1438610e-04  -3.0207186e-04  -6.0043071e-04  -4.8514115e-04  -1.2466394e-04  -2.5505782e-04  -5.6740147e-04   3.2615979e-04  -1.7559988e-04   1.7924751e-05  -2.8646176e-04  -3.3132391e-04  -2.3109923e-04
   5.2754847e-05  -9.5321309e-05  -4.1856958e-05  -3.1351476e-05  -7.1382623e-05  -2.1746072e-04  -2.1082956e-04  -1.5632591e-04  -2.1610253e-05  -3.5269669e-04   1.2472326e-04  -7.4713840e-05   1.3118542e-05  -2.2466322e-05  -3.5439056e-04   1.8658240e-04   1.7915084e-04  -1.0491104e-04   2.8473625e-04   2.0605432e-04   4.4408534e-05  -2.9373089e-06  -2.8104507e-04   1.8386377e-04  -3.2314967e-04  -4.9484934e-04  -2.8998079e-04  -3.2338672e-04  -4.2762389e-05  -1.4059956e-04  -7.5748794e-05  -1.2011844e-04  -6.4526255e-05  -3.9141331e-04  -7.4019394e-04  -6.4155075e-04  -3.8749733e-04  -3.8553958e-04  -3.0597186e-04  -6.2440726e-04  -3.8252096e-04  -1.0852069e-04  -1.5811002e-04  -4.9214193e-04  -8.1731472e-05  -3.6364596e-04   1.1775018e-05   8.2550850e-06  -1.0286301e-04  -2.7197076e-04
   8.7331187e-05  -9.2148548e-05  -4.4379412e-05  -4.1801988e-05   1.3865555e-04  -2.1035230e-04  -1.7685325e-04  -7.9234975e-05  -1.6600959e-05  -3.4899532e-04   1.1060212e-04  -3.1205796e-05   6.1277664e-05   7.6342485e-06  -2.8947636e-04   2.1015060e-04   2.0615537e-04  -1.0154282e-04   1.7937904e-04   2.2262323e-04   1.0377239e-04   4.5693315e-07   1.0999802e-04  -2.9845754e-04  -7.4457808e-04  -4.8921828e-04  -2.7469965e-04  -3.6933881e-04  -3.4136090e-05  -1.4280832e-04  -5.4052129e-05  -1.3335884e-04   1.0653374e-04  -3.3793788e-04  -8.0055150e-04  -6.2365556e-04  -3.3941763e-04  -3.6670119e-04  -2.8378126e-04  -7.1074045e-04  -4.1025877e-04  -2.2887372e-05  -3.8697393e-04  -5.8738916e-04   3.8762661e-04  -2.6964160e-04   5.2158412e-05  -2.7667091e-04  -1.5468011e-04  -3.0957002e-04
   8.6924854e-05  -6.4728127e-05   2.8802375e-05  -1.7782719e-05   9.1618182e-05  -1.3073934e-04  -1.6133969e-04  -5.4063552e-05  -5.1489609e-05  -3.4146226e-04   1.1227550e-04   1.2081204e-05   3.9484534e-05  -2.0295351e-05  -2.9910155e-04   1.7880405e-04   1.9013464e-04  -8.5286163e-05  -3.8252829e-04   2.2061683e-04   1.2207535e-04   5.7124726e-05   4.8423211e-05  -6.6760503e-04  -4.3181889e-04  -4.3383974e-04  -2.8783819e-04  -3.2816624e-04  -8.4899784e-06  -1.5764775e-04   2.4362338e-05  -1.3189240e-04  -1.8209479e-04  -3.5698179e-04  -6.9157372e-04  -6.0466479e-04  -3.7680304e-04  -3.5446577e-04  -3.2084380e-04  -7.0604979e-04  -3.8267591e-04  -1.0635750e-04  -1.8900764e-04  -7.9077209e-04  -2.1473283e-04  -2.3283654e-04   5.8679703e-05  -1.7340825e-04  -1.3587545e-04  -1.6926040e-04
   1.3146981e-05  -8.0720340e-05  -3.4987725e-06  -2.1471838e-05   8.1328188e-05  -2.0707901e-04  -1.6271039e-04  -7.6326927e-05  -7.8264384e-07  -3.4082565e-04   9.6180505e-05  -5.9680660e-05   3.7966121e-05  -5.0822880e-05  -3.7961031e-04   1.7597072e-04   1.8755175e-04  -1.0866599e-04   2.8132828e-04   1.4334841e-04   1.0830336e-04   2.6789472e-05  -8.4794214e-05  -6.0178380e-04  -3.8088197e-04  -5.1146594e-04  -2.8971554e-04  -3.2883105e-04   7.0147267e-05  -1.5221855e-04  -2.6850179e-05  -2.4758940e-04  -2.4515466e-04  -3.6331662e-04  -6.2423694e-04  -5.5821461e-04  -3.6325844e-04  -3.2876860e-04  -3.1377858e-04  -5.3637178e-04  -4.2848484e-04  -1.3913140e-04  -4.3499141e-04  -9.7273808e-04  -3.5166153e-04  -2.7176322e-04   5.5770848e-05   1.2810508e-04   1.1467119e-04  -9.6558826e-05
   1.1249164e-04  -9.0206733e-05  -7.3693343e-05  -6.8299953e-05   1.9824153e-04  -2.7667754e-04  -1.5652715e-04  -1.1965402e-04  -5.0845458e-05  -3.5314000e-04   7.8562880e-05  -5.0981096e-05   1.7364353e-05  -4.0721789e-05  -3.4299251e-04   1.7290046e-04   1.9593023e-04  -7.6092030e-05  -2.9360713e-04   1.6928285e-04   7.6803575e-05   1.2115139e-04  -3.4086374e-04  -4.6982963e-04  -3.5603179e-04  -5.3412607e-04  -2.1913531e-04  -1.8639008e-04   6.9300513e-05  -1.2545315e-04  -1.5359482e-04  -2.3530643e-04   1.1906186e-04  -4.2370832e-04  -7.3954562e-04  -4.2730727e-04  -3.3879594e-04  -3.4479387e-04  -3.4094515e-04  -7.4047258e-04  -3.5891504e-04  -2.2998809e-05  -1.9694855e-04  -6.0560805e-04  -9.4833755e-05  -2.3872158e-04   3.9438240e-05  -7.8962615e-04  -1.0212417e-04  -2.8118258e-04
   4.1069979e-05  -6.4141379e-05   1.5634464e-04   1.0573306e-05   1.8521442e-04  -2.0239648e-04  -1.1765627e-04  -1.3442959e-04   1.1389104e-04  -3.4078569e-04   9.3084862e-05   3.0478225e-06  -3.7533704e-05  -9.2737966e-05  -3.2246285e-04   1.6143397e-04   1.5885298e-04  -8.2827944e-05  -3.3769643e-04   1.5682790e-04   1.4404277e-04   7.5991891e-05  -3.0375732e-05  -6.9973743e-05  -2.4459383e-04  -4.0451976e-04  -2.7944596e-04  -2.9411810e-04  -5.8688653e-05  -1.5546466e-04  -3.5166384e-05  -9.4777039e-05   8.7835448e-05  -3.4226445e-04  -5.9771928e-04  -5.9127586e-04  -3.0775767e-04  -3.1917213e-04  -3.7023082e-04  -5.8151182e-04  -3.8714742e-04  -3.3499215e-05  -1.9626966e-04  -5.3667207e-04  -7.4644035e-05  -2.4043079e-04   2.4802712e-05  -3.7420460e-04  -2.2815797e-04  -8.0761754e-05
  -2.8288769e-06  -7.1043418e-05   4.1133433e-05  -1.0668882e-05   1.5663510e-04  -1.9088126e-04  -1.1571051e-04  -1.6279278e-04  -2.6719872e-05  -3.3917034e-04   5.7320507e-05  -2.4611545e-05  -2.2618578e-06  -7.7557932e-05  -3.2043346e-04   1.5869341e-04   1.7820499e-04  -7.0869748e-05   9.1350165e-07   1.2417242e-04   1.1151726e-04  -5.6083460e-05  -6.8075060e-05  -2.9788486e-04  -5.3362281e-04  -5.0246558e-04  -2.0891376e-04  -2.8203390e-04   3.4370492e-05  -1.5625509e-04  -7.7528341e-05  -1.2672592e-05  -1.0049091e-04  -3.3159376e-04  -6.8932562e-04  -5.4031634e-04  -3.1894381e-04  -3.2381952e-04  -3.7428175e-04  -5.2497681e-04  -4.1168378e-04  -1.3158106e-05  -3.1167234e-04  -4.7392290e-04   1.6231788e-04  -2.5380356e-04   4.9169859e-05  -6.4327680e-05  -1.3087872e-04  -4.1728359e-05
   3.4867899e-05  -9.2268936e-05  -1.6554219e-05   2.9088253e-05   1.3694154e-04  -2.0526744e-04  -1.4334315e-04  -1.0738863e-04   1.0508668e-05  -3.5702079e-04   6.2472762e-05  -7.4367235e-05   2.1301108e-05  -5.8160724e-05  -3.2864054e-04   1.6710350e-04   2.2130540e-04  -7.2343515e-05   3.0686389e-04   1.2907267e-04   1.1797991e-04   7.2856172e-05   2.8263855e-06  -3.9759467e-04  -4.2741894e-04  -5.9130089e-04  -1.2117581e-04  -9.3363647e-05   2.3463443e-05  -1.3550060e-04   5.5194429e-05  -2.5293845e-04   1.5253574e-04  -3.2335034e-04  -6.0379849e-04  -5.3947954e-04  -3.0850846e-04  -2.9444316e-04  -2.7214561e-04  -5.6133227e-04  -4.4835929e-04  -1.4544062e-04  -4.6371674e-04  -2.5392562e-04   3.2406650e-05  -6.0807783e-05   7.0974740e-05  -4.8820980e-04   2.0128053e-04  -2.7231578e-04
   7.3176168e-05  -1.0428057e-04   1.7496799e-04   5.7029996e-07   1.2944151e-04  -2.2131870e-04  -2.3891754e-04  -5.9636892e-05  -1.0922453e-06  -3.6424948e-04   7.4024509e-05  -9.4330841e-05   1.9005751e-05  -5.1299798e-05  -2.6753536e-04   1.6017111e-04   2.1122387e-04  -8.3590858e-05  -3.5046665e-05   1.2844450e-04   1.1632794e-04   2.9574423e-05  -6.8895395e-05  -2.2204495e-04  -3.7686614e-04  -5.0143682e-04  -1.2591961e-04   1.6115710e-05   7.8757599e-05  -1.1409243e-04   4.6664361e-05  -1.0897834e-04   2.6634558e-05  -3.2711402e-04  -6.4211769e-04  -4.6440115e-04  -2.6363859e-04  -2.5915119e-04  -2.5779710e-04  -6.2214257e-04  -3.4599946e-04  -8.9570545e-05  -3.3847368e-04  -2.9159681e-04  -1.8572318e-04  -7.0022790e-05   1.9460902e-05  -1.2148254e-04  -3.1625426e-05  -1.7536613e-04
   1.5364721e-04  -6.5073560e-05  -4.3997577e-05   6.5905115e-05   1.3143358e-04  -1.5225861e-04  -1.4514722e-04  -1.1326036e-04   5.0916118e-05  -3.3613463e-04   8.5511536e-05  -8.7286198e-06  -1.1037837e-05  -5.8121452e-05  -2.3444611e-04   1.4088734e-04   1.8873114e-04  -1.1049819e-04  -1.6102621e-04   1.5909699e-04   1.5903822e-04   1.5466193e-04  -8.4114406e-05  -1.3159332e-04  -2.0700744e-04  -4.7588578e-04  -1.8012419e-04  -1.9586003e-04   1.8063911e-05  -1.4819214e-04  -2.8107195e-06  -1.8984512e-04   2.2021827e-04  -3.3655728e-04  -6.0912501e-04  -4.8636226e-04  -2.8184970e-04  -2.6838016e-04  -3.2278243e-04  -6.3348445e-04  -4.4577796e-04   9.3728449e-06  -2.5314168e-04  -4.0081557e-04   2.8212208e-04  -1.0339842e-04   6.3705709e-05  -4.4665689e-04  -1.5249295e-05  -6.0689683e-05
  -5.7435984e-05  -8.8747969e-05   5.5537679e-05   5.4246044e-05   1.4368021e-04  -1.6005871e-04  -1.0659936e-04  -9.3980416e-05  -3.5185854e-05  -3.4697758e-04   8.0049605e-05  -5.9899567e-06   1.0285278e-05  -5.3595806e-05  -2.1229142e-04   1.4811773e-04   2.3492752e-04  -2.7784252e-05   5.4976402e-04   1.3310413e-04   1.3704767e-04   1.1111567e-05  -1.3938853e-05   4.4856063e-04  -3.3021826e-04  -5.9595000e-04  -1.6421285e-04  -1.3501689e-04  -4.5925692e-05  -1.1942226e-04  -4.4085489e-05  -8.3639577e-05   1.3438836e-04  -3.2409313e-04  -5.3585193e-04  -5.2113127e-04  -2.2412374e-04  -2.3473875e-04  -2.9190152e-04  -5.1919784e-04  -3.9919850e-04  -1.5597814e-04  -5.1774253e-04  -3.2520556e-04   1.1318392e-04  -1.6451518e-04   3.3983397e-05  -1.9346998e-04  -1.3570239e-04  -9.4723640e-05
   1.0026489e-04  -9.8845238e-05  -1.3626237e-04   5.8569163e-05   1.4440446e-04  -1.7204703e-04  -1.3542284e-04  -1.4897761e-05   4.0285145e-06  -3.4855431e-04   8.3232633e-05  -5.2797441e-05   3.7765221e-05  -1.0100365e-05  -2.2061756e-04   1.5232959e-04   2.3958183e-04  -5.6970996e-05   9.2921091e-06   1.4582952e-04   1.4217144e-04   4.3416385e-06  -1.6140177e-04  -1.7137956e-04  -4.2892570e-04  -5.6364544e-04  -6.9880531e-05  -1.2812989e-04   5.9684393e-05  -1.0330327e-04   2.4100145e-05  -4.1489118e-05  -1.3732330e-04  -3.5943781e-04  -6.1510206e-04  -4.5924290e-04  -1.8469786e-04  -2.2977314e-04  -3.0299355e-04  -5.9986458e-04  -4.3507706e-04   1.4348357e-05  -2.1036919e-04  -1.4676095e-04   3.4758938e-04  -1.0271646e-04   1.2553527e-04   2.7216921e-04  -1.5737610e-04  -1.4427961e-04
  -4.2999991e-06  -1.1385864e-04   8.1099504e-05  -4.1718224e-05   5.2333158e-05  -1.4415453e-04  -1.6408823e-04  -6.6850116e-05  -7.4770927e-05  -3.1991678e-04   7.7601188e-05  -1.1447815e-04  -1.3999166e-05  -4.8631049e-05  -1.6443108e-04   1.6563674e-04   1.8414018e-04  -6.0445611e-05  -1.1093859e-04   1.3309538e-04   1.6936091e-04   8.2575709e-05  -8.3550680e-05   5.2228464e-05  -1.3741941e-04  -3.9835859e-04  -1.5427433e-04  -7.2910741e-05   1.5841788e-05  -1.2310754e-04  -3.3010267e-05   8.3318686e-05  -1.9999281e-04  -3.0296823e-04  -5.0989370e-04  -4.2097102e-04  -2.1075163e-04  -2.0902933e-04  -2.8895610e-04  -6.4798311e-04  -3.3300972e-04   4.5746350e-05  -2.3552722e-04  -1.1145130e-03   8.5416286e-05   2.3448112e-05   4.4159977e-05  -5.5331667e-04  -1.6249867e-05  -1.3442322e-05
   1.4699770e-04  -9.5782903e-05   3.7501046e-05   3.5470555e-05   1.1251505e-04  -1.6266627e-04  -1.1363477e-04  -5.9855360e-05  -5.2011241e-05  -2.9279231e-04   7.8192003e-05  -1.1447066e-04  -4.9262173e-05  -8.9655012e-05  -2.0543129e-04   1.1326971e-04   1.1018169e-04  -5.9019480e-05   3.9470443e-04   1.4149943e-04   1.9706617e-04   6.2785388e-05  -8.7331297e-05  -3.4272790e-04  -3.4960543e-04  -2.4068197e-04  -1.3267931e-04  -6.1436935e-05   4.1529951e-05  -1.3319006e-04  -2.0640239e-04  -1.1717804e-04   9.7329888e-05  -3.0034978e-04  -5.3772388e-04  -4.3600833e-04  -2.3248847e-04  -2.2710145e-04  -2.9721000e-04  -4.9093366e-04  -2.9499998e-04   6.3459913e-05  -4.0054310e-04   2.1316277e-04  -3.1555610e-05  -1.3751465e-04   4.9866270e-05  -2.4581081e-04  -1.0482579e-04  -1.1406525e-04
   5.7574489e-05  -1.2422768e-04  -2.4183393e-05  -3.5077341e-05   1.5477245e-04  -1.5283364e-04  -9.5925971e-05  -1.4091578e-04  -1.0141149e-04  -3.0136533e-04   6.9592978e-05  -1.3060929e-04  -4.1667558e-05  -5.0615214e-05  -2.4502576e-04   1.3183762e-04   1.0185602e-04  -2.9928538e-05  -2.2186139e-05   9.7602970e-05   1.6383527e-04   3.1858126e-05  -2.1933168e-04  -2.2966870e-04   8.7318898e-05  -3.6520441e-04  -6.0933991e-05  -2.0251075e-05   5.2060295e-05  -1.2929576e-04  -1.4743343e-04  -3.9344362e-05   1.7858180e-04  -3.3562331e-04  -4.4672989e-04  -3.5928076e-04  -2.3627028e-04  -2.2045847e-04  -2.8807650e-04  -6.0155249e-04  -3.3476093e-04   5.2446176e-05  -4.2152958e-04  -2.3964242e-04   4.2478603e-04   3.8796730e-05   2.6702279e-05  -3.5080433e-05   2.4915946e-04   8.5897300e-06
  -7.4508112e-05  -1.4003520e-04  -3.2944990e-05  -3.2295327e-06   1.4687747e-04  -1.4931566e-04  -1.1401917e-04  -1.4573468e-04   3.7538655e-05  -2.8392169e-04   8.8559507e-05  -1.7613493e-04  -1.0081680e-04  -8.2512801e-05  -2.2150231e-04   1.0883894e-04   8.3621053e-05  -3.6041114e-05   2.5103751e-04   1.0564746e-04   2.0341628e-04   3.1099553e-05  -1.8152650e-04  -9.4267406e-04  -3.6983372e-04  -4.3684733e-04  -9.7474185e-05  -2.6616806e-05  -5.5202781e-05  -1.1536374e-04  -2.1780441e-04  -1.3143659e-04   3.4253731e-05  -2.6745471e-04  -4.4150976e-04  -4.5433603e-04  -1.9644006e-04  -2.1517157e-04  -2.9717726e-04  -3.9968503e-04  -3.4792689e-04   3.3179003e-05  -2.6437565e-04  -4.9336309e-06   2.8413552e-04   1.7917216e-04   4.2874595e-05  -1.8891359e-04   2.0879997e-05  -6.5275635e-05
  -8.3439190e-05  -1.3766641e-04  -5.4456967e-05   1.9986717e-05   1.8818483e-04  -1.2264277e-04  -1.5745786e-04  -1.7878102e-04   1.0207784e-04  -2.5844335e-04   5.8551752e-05  -1.2462609e-04  -9.7507072e-05  -1.6224018e-04  -2.0003978e-04   8.2617902e-05   5.9350812e-05  -4.8964976e-05  -1.4334599e-05   8.3657171e-05   1.6870385e-04   9.8251527e-05  -4.3759416e-04  -7.6797960e-06  -5.7764398e-04  -4.9191737e-04  -1.2544404e-04  -5.5238004e-05   3.7309303e-05  -1.3643225e-04  -9.0882670e-05  -1.1436911e-04   7.9747486e-05  -2.4347841e-04  -4.9487047e-04  -4.5197937e-04  -2.1046173e-04  -2.1431851e-04  -2.6491066e-04  -4.3667716e-04  -3.4423682e-04  -9.6214470e-05  -2.4155060e-04  -8.8879664e-04   1.8044164e-04   1.5988971e-05   2.8809080e-05   7.1483002e-05  -6.2623134e-05  -5.4879703e-05
   9.0974019e-05  -1.6712341e-04  -9.2615366e-05   7.9708416e-06   1.0263348e-04  -1.6127306e-04  -8.9822555e-05  -1.6085852e-04  -8.9888577e-05  -2.9376877e-04   6.0291248e-05  -1.5827929e-04  -8.4805368e-05  -1.2002661e-04  -2.5709983e-04   1.1223046e-04   9.3619972e-05   9.4609459e-06   1.0247860e-04   8.4754887e-05   1.3538927e-04   7.3788884e-05   1.4798288e-04  -1.0439747e-04  -4.7444762e-05  -4.2752284e-04  -1.1393410e-04  -4.3749460e-05   5.8458048e-05  -1.2614485e-04  -2.8527222e-05  -3.6477049e-05   5.0765640e-05  -3.0715263e-04  -4.7595514e-04  -5.3376221e-04  -2.2268802e-04  -1.6293339e-04  -2.0645559e-04  -4.5241191e-04  -2.3601211e-04  -3.9406637e-05  -5.2369935e-05  -5.8194052e-04   1.5903177e-04  -1.2273087e-05   2.1034020e-05  -1.0108954e-06  -5.5070901e-05  -3.6842564e-05
   1.7664993e-04  -1.4487031e-04   1.0748635e-04  -6.5558088e-05   1.2624380e-04  -1.7457978e-04  -1.1363561e-04  -8.4604493e-05   2.1843877e-04  -3.4058336e-04   8.1158920e-05  -1.3462217e-04  -7.9366357e-05  -7.6195509e-05  -2.2861600e-04   1.6341775e-04   1.1739044e-04   4.7006673e-05   1.7132703e-04   1.2898076e-04   1.9244333e-04   3.1601772e-05  -1.6732019e-04   1.3747765e-05  -2.2500912e-04  -3.1875202e-04  -1.6066631e-05  -9.4343697e-05   1.1872881e-04  -1.1167172e-04  -3.3799155e-05  -1.0252943e-04   1.9061273e-04  -2.5384928e-04  -3.7909386e-04  -3.7967507e-04  -2.1351103e-04  -1.9099131e-04  -2.4496097e-04  -4.5802971e-04  -3.2802360e-04  -6.4787171e-05  -3.9480499e-04  -1.2225003e-04  -4.0226780e-05   3.0149295e-06   2.5256228e-05  -1.0615458e-05  -6.9447515e-06  -2.2448086e-05
   7.4025615e-05  -1.1242808e-04   9.8287353e-05   7.4807133e-07   8.5331194e-05  -1.0691682e-04  -1.2725315e-04  -3.2841697e-05   2.3321341e-05  -3.2099520e-04   1.0715156e-04  -9.6933029e-05  -2.6311631e-05  -6.5356151e-05  -1.7484416e-04   1.4225513e-04   1.6257403e-04   3.0780906e-05   4.3219948e-04   1.2569055e-04   2.0588181e-04   9.9134071e-05  -1.9336867e-04  -1.3785576e-04  -3.4481974e-04  -4.4692343e-04  -9.1283699e-05  -6.6334011e-05   2.2085396e-05  -8.1973056e-05  -9.1347094e-05  -6.1320025e-05  -6.2321393e-05  -2.5050723e-04  -4.4162796e-04  -4.1294866e-04  -1.9934832e-04  -1.4615222e-04  -2.3708228e-04  -2.4417296e-04  -2.4575865e-04   4.6616744e-05  -1.3318156e-04  -9.8519656e-04   2.7583644e-04  -2.1055008e-05   3.0105362e-05   1.5331735e-04   2.4364010e-04  -1.5118631e-05
   7.6887067e-05  -1.4486775e-04   2.5426316e-05  -1.2944069e-05   1.2459035e-04  -1.5491288e-04  -1.3085519e-04  -9.7254895e-05   9.9608158e-05  -3.2118877e-04   1.0131582e-04  -1.5946804e-04   3.7609596e-05  -1.4411393e-05  -2.1045720e-04   1.7841063e-04   1.5996293e-04   4.5411092e-05  -1.8864227e-04   1.2260310e-04   1.6364585e-04   1.4454762e-04  -1.5948850e-04   8.5327534e-05  -6.6474854e-04  -4.1011372e-04   9.1748290e-05  -3.1414900e-05   1.8065864e-04  -8.3623228e-05  -1.8447607e-05  -3.1589698e-05   1.8615276e-05  -2.8708938e-04  -4.4356298e-04  -3.6193337e-04  -2.2398258e-04  -1.3072536e-04  -2.0341654e-04  -4.5253540e-04  -2.6203087e-04   1.9006098e-05  -2.0447356e-04  -4.6696144e-04   1.0628402e-04   4.8452250e-05   2.0977988e-05  -2.6739082e-05   5.6823945e-05  -1.1048246e-04
   1.8994203e-04  -1.1015779e-04   6.8428053e-05   4.1906249e-05   2.4247116e-04  -1.1689918e-04  -6.8611960e-05  -7.0146481e-05   7.7320488e-05  -3.3704261e-04   8.3662067e-05  -5.2345022e-05  -1.1146525e-05  -2.6048932e-05  -2.3333612e-04   1.4991546e-04   1.5299808e-04   1.7920664e-05   3.0864892e-04   1.0832123e-04   1.5041648e-04   9.7331496e-05  -8.7662309e-05  -1.0355032e-04  -2.8388650e-04  -3.6712061e-04  -4.6025762e-05  -7.7602948e-05   1.3971554e-04  -1.0428805e-04  -4.2617186e-05   3.5100638e-06  -1.3722675e-05  -2.2260244e-04  -4.1440444e-04  -4.2394601e-04  -1.9896215e-04  -1.2595834e-04  -2.0514378e-04  -3.3378866e-04  -3.3309081e-04   6.6999173e-06  -2.7496612e-04  -9.7001094e-04  -1.1233060e-04  -1.6551583e-04   4.6567067e-05  -2.5529551e-04   1.4019500e-04   1.7357586e-04
  -2.2630118e-05  -1.1352758e-04   1.1486287e-04   7.7144341e-06   1.8358206e-04  -1.0852962e-04  -1.2087259e-04  -9.2623304e-05  -4.4362805e-05  -3.3890057e-04   6.6965637e-05  -7.5930802e-05  -2.1451351e-05  -7.9346777e-05  -2.0883710e-04   1.6385913e-04   1.5220160e-04   5.9385038e-05  -3.7363952e-04   1.1927591e-04   1.5268761e-04   4.2008938e-05  -2.1521734e-04  -2.0296437e-04  -4.1797594e-04  -2.9579131e-04  -5.5183740e-05  -1.7212142e-04   1.6093842e-04  -9.1121474e-05   1.1386576e-04   3.6195761e-05   1.2670310e-04  -2.5492077e-04  -4.6236083e-04  -4.2801103e-04  -1.6193031e-04  -1.3410546e-04  -1.7780185e-04  -6.1673345e-04  -2.4290044e-04  -2.3082879e-05  -1.6930566e-05  -1.1018985e-03   1.2095558e-04   8.2001905e-05   6.6636923e-05   1.1292651e-04   1.4613090e-04   4.8624552e-06
   1.2008225e-04  -1.2917120e-04   8.5860345e-05  -8.5098334e-05   1.6319769e-04  -2.1385627e-04  -1.9393145e-05  -1.0614645e-04   1.5167459e-06  -3.3248417e-04   6.4433734e-05  -1.4083303e-04   4.5553088e-06   8.9969450e-07  -2.3871075e-04   1.7159888e-04   1.5916150e-04  -6.7718582e-07   1.3238996e-04   1.3883553e-04   1.7927967e-04   6.2448104e-05  -2.5595081e-04   3.3686782e-04  -5.2244787e-04  -2.5397842e-04   2.4904088e-05  -2.4370405e-05   9.2179456e-05  -7.1422139e-05  -1.9526209e-05  -5.3294630e-06   1.8328436e-06  -2.2982928e-04  -3.8701709e-04  -3.1334264e-04  -1.9125215e-04  -1.2737594e-04  -1.8155370e-04  -3.1660133e-04  -2.4231184e-04   5.4749698e-06  -2.9699941e-04   4.7331522e-04   3.3100217e-04  -2.2881430e-04   5.2644780e-05   4.6325473e-05   1.9075560e-04  -9.2876420e-05
   1.2217558e-04  -1.2273031e-04  -7.2514784e-05   2.1557542e-05   2.3175147e-04  -1.6690779e-04  -1.0854355e-04  -5.0290517e-05  -3.0139056e-06  -3.3175593e-04   9.6495067e-05  -6.5744411e-05   1.0548296e-05  -6.1391171e-07  -2.1391748e-04   1.8185953e-04   1.6983562e-04   1.0907409e-05  -3.1495427e-05   1.2539131e-04   1.8628220e-04   7.9129299e-05   3.1909494e-05  -7.1059255e-04  -8.1793097e-04  -4.2531957e-04   7.4514915e-05   7.0644717e-05   1.3856775e-04  -7.2717638e-05  -3.5408360e-05   1.2088028e-05  -1.7132946e-04  -2.3697480e-04  -3.7584038e-04  -3.8294561e-04  -1.5473760e-04  -1.4943244e-04  -1.8900538e-04  -4.8132657e-04  -2.8119265e-04   2.3892881e-05  -2.7491080e-04  -3.9890732e-04   1.4071430e-04   5.3075622e-05   5.1102332e-05  -2.8514810e-04   1.3255503e-04  -8.9756591e-05
   1.3280983e-04  -1.4474012e-04   1.0261907e-04  -1.9156803e-05   1.9634614e-04  -1.2752696e-04  -1.1586707e-04  -1.0875168e-04  -1.5125592e-04  -3.3280355e-04   8.8112109e-05  -1.2871604e-04   2.4638064e-05   7.1890936e-06  -1.8343210e-04   1.7796888e-04   1.3658281e-04   5.8658112e-05   3.5005454e-05   1.4734249e-04   1.4425999e-04  -7.0106876e-06  -1.2373393e-04   1.8854252e-04  -4.7883965e-04  -4.3545870e-04   3.2290220e-05  -4.2620210e-05   1.6441557e-04  -6.4770022e-05  -1.4766787e-04  -6.4555861e-05  -8.1650724e-05  -2.8288574e-04  -4.7664932e-04  -4.2972108e-04  -1.7919207e-04  -1.4754508e-04  -2.0161996e-04  -6.2992051e-04  -2.9315910e-04  -8.1073180e-05  -1.4192586e-04   9.7557073e-05   3.1796601e-04   1.0705852e-04   5.5209704e-05   1.9805609e-06   3.3008931e-05  -1.5091624e-04
   3.7401111e-05  -1.3608928e-04   1.2054897e-05  -8.2679744e-06   1.5480049e-04  -1.3872431e-04  -9.0417911e-05  -1.9153220e-05   2.4889629e-05  -3.0510727e-04   1.1103093e-04  -1.0686418e-04  -6.7745882e-06   2.4361909e-05  -1.5470452e-04   1.9017699e-04   1.4320116e-04  -5.3190856e-06  -4.3780450e-04   1.5138673e-04   2.0429338e-04   7.6076140e-05   1.5382792e-04  -1.8753660e-04  -4.9054716e-04  -3.5469886e-04  -3.0256966e-05  -3.7386457e-05   1.2997948e-04  -8.3818151e-05  -1.1836388e-04  -1.3178524e-04  -7.0976763e-05  -2.0674871e-04  -4.5295278e-04  -4.2192021e-04  -1.9564858e-04  -1.4763691e-04  -1.7929384e-04  -4.2267671e-04  -2.8324701e-04  -1.8551669e-04  -2.0138250e-04  -5.1476399e-04   1.9270106e-04  -8.2695929e-05   4.8278918e-05  -5.0804176e-04   6.6432412e-06  -1.6099603e-04
   2.1224434e-04  -1.2937713e-04   1.0056498e-04  -3.3311575e-05   1.7046904e-04  -1.7622689e-04  -1.0959852e-04  -4.7689984e-05  -6.0197704e-05  -3.2229038e-04   1.1279411e-04  -1.0902190e-04   4.5029214e-05   6.5327346e-05  -2.6282994e-04   1.9062223e-04   1.4934814e-04   1.7656201e-05   3.9819253e-04   1.8186666e-04   1.8540540e-04   9.5666532e-05   1.3718585e-04  -4.6785601e-04  -4.9261587e-05  -4.0093678e-04   4.7577607e-05  -3.5428158e-05   1.8941061e-04  -5.5246219e-05  -5.0517014e-05  -1.1406451e-04  -5.1609504e-06  -2.4528612e-04  -5.2128237e-04  -4.3593891e-04  -2.2161414e-04  -1.3990169e-04  -1.7767792e-04  -5.2518200e-04  -2.7355712e-04  -5.8766702e-05  -1.2461690e-04  -5.6751462e-04   1.7270648e-06  -9.2713253e-06   5.8993293e-05  -2.1701843e-04   8.0166690e-05  -5.5042925e-05
   1.0167034e-04  -1.5219068e-04   7.3265168e-05  -4.4092205e-05   1.9448942e-04  -2.2471156e-04  -1.6787415e-04  -3.4395558e-05   2.8423707e-05  -3.2089013e-04   1.0764391e-04  -1.3915323e-04   6.3415217e-05   3.6565649e-05  -1.8516058e-04   1.8317669e-04   1.7722428e-04  -1.1207339e-05   1.4978049e-04   1.5086247e-04   1.6638642e-04   3.3224580e-05  -1.1642351e-04  -1.8341943e-04  -3.2378006e-04  -3.8330510e-04   7.3920921e-05   1.1271630e-05   1.9306019e-04  -5.6900833e-05  -1.0541417e-04  -7.4998432e-05   1.2659814e-04  -2.7494802e-04  -4.0431286e-04  -3.9403909e-04  -1.2450489e-04  -1.1835480e-04  -1.7565748e-04  -5.3939107e-04  -3.0542596e-04   6.2840923e-06  -2.8954647e-04  -9.1080787e-04   1.1516287e-04  -1.9914916e-04   2.1276512e-05  -2.8188800e-04  -7.8450954e-05   3.9763556e-05
   2.0214629e-04  -1.1184560e-04   4.5862689e-05   4.0267587e-06   8.0988291e-05  -1.3469807e-04  -5.9453989e-05  -3.5833324e-05  -4.0633091e-05  -3.0103014e-04   1.4249570e-04  -7.5522214e-05   8.2169514e-05   2.6391848e-05  -2.2222695e-04   1.9292744e-04   1.6551152e-04   5.8036389e-05   6.9713213e-05   1.6286901e-04   2.3871096e-04   8.1998580e-05   6.0845923e-06   4.1519059e-04   1.8494851e-05  -1.1190551e-04  -3.5934143e-05  -9.3770948e-05   2.1808641e-04  -6.1196239e-05  -1.3994279e-04  -2.8071998e-05   9.2093018e-05  -2.1168066e-04  -4.4714950e-04  -3.5618022e-04  -1.7382365e-04  -1.3131456e-04  -1.8774258e-04  -3.0994686e-04  -2.4710494e-04   8.2496255e-05  -2.9027247e-04  -6.2907406e-04   2.2609693e-04   8.6967913e-05   5.9237995e-05   1.8071181e-04   4.1074076e-05  -9.1443311e-05
   2.0002043e-04  -1.4666119e-04   7.1896618e-05  -5.4467433e-05   1.3932583e-04  -1.5303554e-04  -1.1932480e-04  -1.9052324e-05   7.1669256e-06  -3.3278493e-04   1.5563285e-04  -9.9574208e-05   1.1548504e-04   8.0727892e-05  -2.5283603e-04   2.0497013e-04   1.8972770e-04   1.4500746e-05  -5.6452249e-05   1.8048420e-04   1.8931938e-04  -2.7389999e-06   6.6484654e-06  -6.6731453e-05  -4.0862805e-04  -4.2822654e-04   7.2719376e-05  -6.5493979e-05   3.2467465e-04  -5.0758339e-05   4.5222703e-05  -7.5088785e-05  -8.1244092e-05  -2.1934824e-04  -4.6619499e-04  -3.6937033e-04  -1.9406807e-04  -1.1843186e-04  -1.7482035e-04  -4.0429842e-04  -2.0232404e-04   9.4317675e-06  -6.7711277e-05   5.3762080e-04  -2.4073855e-04  -1.7543275e-04   1.4782182e-05   1.2756319e-04   6.0212595e-05  -5.6460853e-05
   2.2647696e-06  -1.5049035e-04   9.5086121e-05  -1.3514331e-05   1.7962186e-04  -1.8287488e-04  -1.6199160e-04  -3.5155495e-06  -6.3578576e-05  -3.2206703e-04   1.6208467e-04  -1.6473023e-04   1.0690739e-04   1.2435210e-04  -1.0808455e-04   2.2468087e-04   1.9268450e-04   3.5425888e-05   2.4695121e-04   1.8782020e-04   1.6666486e-04   1.0532114e-04   3.3826713e-05  -3.4343952e-04  -1.3008746e-04  -4.6044620e-04   9.8026148e-06   6.3562722e-05   3.1353900e-04  -2.2268132e-05  -6.2797728e-05   5.1955758e-05   3.7084577e-05  -2.7576587e-04  -3.7163004e-04  -4.0654847e-04  -1.4640488e-04  -1.0408648e-04  -1.4939818e-04  -3.4027692e-04  -2.2978097e-04   9.9492609e-05  -3.3405743e-04  -6.0110417e-04   3.9916034e-04  -2.1950545e-04   2.7571125e-05   1.7948082e-04   1.2590805e-05  -8.0631478e-05
   2.2751118e-04  -1.1133179e-04   1.0751155e-04   4.0068073e-05   1.4712455e-04  -1.3724947e-04  -9.9140270e-06   2.1801420e-06   1.6030046e-04  -2.8339255e-04   1.5391891e-04  -7.2233277e-05   6.1729559e-05   9.1696049e-05  -1.9127120e-04   2.3947010e-04   1.7176419e-04   7.0093133e-06  -1.2399114e-04   1.8156071e-04   2.2124850e-04  -9.0860767e-06  -1.6012522e-04  -6.0864346e-04   7.4599353e-05  -3.7706122e-04   1.3119339e-06  -1.4051858e-04   1.9120042e-04  -4.8875914e-05  -1.7035563e-05   1.3620914e-04  -4.2674572e-05  -2.8132906e-04  -3.9472411e-04  -3.5023768e-04  -1.4522477e-04  -1.2299811e-04  -9.3779148e-05  -4.6884490e-04  -2.7234593e-04  -2.6388596e-05  -1.3805331e-04  -8.2539878e-04  -2.3102164e-05   3.7968206e-05   1.3500079e-05  -4.2242114e-05   1.0793356e-05   2.9662397e-05
   1.3965329e-04  -1.3118393e-04   1.3287812e-04  -5.0848459e-05   1.9754621e-04  -1.3172367e-04  -4.5750650e-05  -1.3104425e-04  -1.9923546e-05  -2.9223395e-04   1.5562713e-04  -1.2385473e-04   5.3913107e-05   8.8725850e-05  -2.5649689e-04   2.1026359e-04   1.4966063e-04   1.5643414e-05  -1.0379184e-04   1.7052010e-04   2.1592691e-04   1.2512013e-04  -1.3813938e-04   7.3603813e-05   6.0767475e-06  -3.3227343e-04  -1.2868864e-05  -2.4688592e-05   2.1770025e-04  -5.3495318e-05  -1.8659810e-05   4.6423252e-06  -1.5782697e-04  -2.4079806e-04  -4.3415723e-04  -3.6414535e-04  -1.8531026e-04  -9.9059711e-05  -1.6139468e-04  -5.2511215e-04  -1.5378531e-04  -4.8888665e-05  -8.6748092e-05  -5.0371711e-04   5.4483477e-04   1.4354742e-05   1.7717819e-05   5.0449726e-05   9.6258656e-05   2.7733364e-05
   6.6297420e-05  -1.4985897e-04   2.2616073e-04  -3.6168021e-05   4.6681114e-05  -1.5812714e-04  -5.2382849e-05   2.5110839e-05  -5.8031917e-05  -2.3500698e-04   8.9041459e-05  -2.2374088e-04   3.8730006e-05   4.4405082e-05  -2.3930053e-04   1.6656712e-04   1.0906767e-04  -1.7879329e-05   4.2598616e-04   1.4954239e-04   1.7551277e-04  -1.1276456e-04  -1.3273994e-04  -6.0298142e-04  -3.7215333e-04  -4.2314149e-04   4.2412347e-07  -3.6919235e-05   1.7751695e-04  -7.6487864e-05  -6.7180183e-05   3.1134347e-05  -1.3947279e-05  -2.8632421e-04  -3.9615083e-04  -3.3213923e-04  -2.0401872e-04  -1.5567111e-04  -1.1977656e-04  -4.3545765e-04  -2.3985529e-04   1.8794939e-05  -4.7339528e-04  -5.5841275e-04   1.0670511e-04  -2.3282989e-04  -9.0753747e-06   7.8119330e-05  -1.0087055e-04  -2.8699491e-05
   1.4059262e-04  -1.6257253e-04   6.0176393e-05  -1.7253686e-05   1.1481928e-04  -1.9687759e-04  -1.1288996e-04  -1.4464791e-05  -3.8694452e-05  -2.6342040e-04   1.1296161e-04  -1.4318255e-04   2.6083568e-05   3.2711825e-05  -2.8987409e-04   1.9136486e-04   9.6557022e-05  -2.8845929e-07   1.0230096e-04   1.4622480e-04   2.1822573e-04  -3.9398230e-05   2.4659153e-05  -3.1206798e-04   1.3861481e-04  -2.9478170e-04  -2.9098823e-05  -1.2613130e-04   1.7254987e-04  -4.8358212e-05  -5.3994620e-05  -9.7487798e-05  -8.6550062e-05  -1.9677615e-04  -3.8492054e-04  -3.3990815e-04  -1.2975842e-04  -1.3143354e-04  -1.2267508e-04  -5.3956063e-04  -2.2379328e-04  -3.3406202e-05  -3.0414705e-04  -9.3421916e-04  -5.7484322e-05  -7.0936771e-06  -3.7959351e-05  -3.2266157e-04   1.2748627e-04   1.2666568e-04
   3.9128983e-05  -1.4213481e-04   4.0475214e-05  -1.0955682e-04   1.5884513e-04  -2.0624351e-04  -1.0485766e-04  -1.7343755e-05  -5.5353489e-06  -2.6788210e-04   1.3089215e-04  -6.4676504e-05   7.1097893e-05   9.8374658e-05  -2.0894133e-04   2.3373868e-04   1.7464951e-04   4.3683434e-05  -1.5421779e-04   1.3662173e-04   1.8511339e-04   2.0118319e-05   1.4646759e-04  -1.6270552e-04  -1.3829312e-04  -3.4792366e-04  -7.9706522e-05  -1.9085196e-04   2.8239322e-04  -6.3532869e-05  -5.8687817e-07   1.7174690e-04   2.2325061e-05  -2.2767216e-04  -4.4953881e-04  -2.6112483e-04  -1.5163895e-04  -1.0795239e-04  -9.6385374e-05  -3.8931583e-04  -2.6819360e-04  -2.9601757e-05  -8.7658591e-05   3.2673651e-04  -1.2783895e-06   7.5014112e-05  -3.4984507e-05  -9.5257739e-05   3.1596413e-04   3.3367187e-04
   6.4035339e-05  -1.6024028e-04  -2.2602849e-06  -1.0904820e-04   1.6038012e-04  -1.9717735e-04  -9.6287920e-05  -8.2708348e-06  -8.4091607e-06  -1.9936087e-04   1.2482713e-04  -1.2816544e-04   7.6502765e-05   1.3353823e-04  -2.0192955e-04   2.5576222e-04   1.3422163e-04   6.9805785e-05   1.0780817e-04   1.7480852e-04   1.6570945e-04  -4.7326092e-05  -1.3188482e-04   6.8032327e-06  -4.0016088e-04  -3.2293430e-04   7.7137942e-05  -3.1373624e-05   2.4968217e-04  -4.3510056e-05   1.4410749e-04   1.0203219e-04   3.6088699e-05  -2.3490570e-04  -3.3669546e-04  -3.1762983e-04  -1.5351408e-04  -8.5586427e-05  -9.8707656e-05  -4.5281311e-04  -1.0225275e-04  -1.6046695e-04  -9.4291936e-06  -3.7446668e-04   3.3705999e-04   5.5492499e-05  -7.4247488e-05   1.0128603e-04   3.9247694e-05   1.5380284e-04
   1.5379765e-04  -1.6283918e-04   1.6877220e-04  -3.8813891e-05   8.5531712e-05  -1.4027733e-04  -9.7311648e-05  -4.1823998e-05   3.8711245e-05  -1.5697074e-04   1.6845267e-04  -1.0393216e-04   8.0559912e-05   1.4000162e-04  -1.9389465e-04   2.5404291e-04   1.5437751e-04   4.3765383e-05  -3.5454435e-05   1.5037740e-04   2.3578567e-04   2.5158784e-05  -3.1161756e-04  -8.5221938e-05  -9.2700509e-05  -3.8657154e-04   3.2576281e-05   1.0419148e-05   3.4781342e-04  -3.9257793e-05   1.2460241e-05   5.8078618e-05  -4.5475070e-05  -1.8126587e-04  -3.4356958e-04  -2.8147319e-04  -1.4007307e-04  -8.3459192e-05  -9.5057403e-05  -5.4467993e-04  -1.4339681e-04  -6.6760833e-05   5.7110381e-05  -7.3059881e-04   4.1042577e-04   1.2980247e-04  -1.5078149e-05  -1.8510509e-04   1.9435975e-04   2.3287426e-04
   7.5064672e-05  -1.6199310e-04   4.2972923e-05  -7.9233898e-05   1.0903503e-04  -1.5377959e-04  -8.9662266e-05  -4.8389311e-06   1.3055023e-05  -1.6743205e-04   1.3748152e-04  -1.3668225e-04   1.1913833e-04   1.4345221e-04  -1.9956019e-04   2.6027608e-04   1.5395014e-04   5.9829374e-05   1.8738723e-05   1.4229435e-04   2.1723181e-04   5.1910512e-05  -1.8270552e-04  -2.0423862e-04   1.0482294e-05  -3.6272214e-04   3.5675985e-05   1.2678345e-05   3.2965728e-04  -2.9575560e-05   1.0190608e-04   2.1360205e-04   1.3713627e-04  -2.4741705e-04  -2.7097159e-04  -2.6697581e-04  -9.5805430e-05  -8.2955179e-05  -8.2136721e-05  -4.7239609e-04  -1.5713106e-04   3.1398380e-05   1.6170441e-05  -3.1554291e-04   3.2779822e-04   1.9103911e-04  -6.7548979e-05   2.0675853e-04   2.6760786e-04   3.1063057e-04
   7.2720424e-05  -1.6526897e-04   7.2741612e-05  -7.3997522e-05   2.1829594e-04  -1.7029791e-04  -1.6536676e-04  -4.8506907e-05  -7.7320547e-05  -1.7751854e-04   1.1709090e-04  -1.3580084e-04   9.3967188e-05   1.5189669e-04  -2.2815443e-04   2.6158051e-04   1.2357843e-04   7.6462507e-05  -7.3300551e-05   1.3965146e-04   2.0091211e-04   7.8151163e-05  -8.1464634e-05   1.5744692e-05  -7.9892015e-05  -4.0035558e-04   1.0323597e-04   1.9465910e-05   2.7577888e-04  -2.5220392e-05   7.9631049e-05   1.3416739e-04   2.4816138e-05  -2.7606334e-04  -3.9366799e-04  -2.8668382e-04  -6.9432972e-05  -3.4750461e-05  -9.0644302e-05  -5.0922210e-04  -1.3966886e-04   3.8701282e-06  -4.3211429e-04  -6.0013554e-05   1.3282881e-04   2.0365726e-04  -1.8725725e-05   1.7383613e-04   6.3878113e-05   2.5007615e-04
  -4.5756951e-05  -1.5945084e-04   1.5841830e-04  -5.7309837e-05   1.6149180e-04  -1.5500910e-04  -2.9566556e-05  -3.9516079e-05  -6.4819898e-05  -1.7528691e-04   1.4179948e-04  -8.5170650e-05   1.0347048e-04   1.1652218e-04  -1.5886537e-04   2.8306161e-04   1.7303533e-04   5.4362954e-05  -4.4246339e-05   1.7675497e-04   2.2904464e-04   9.5337353e-05   1.2141785e-04  -7.3609641e-05   4.0926978e-05  -2.9210534e-04   9.9100334e-06  -1.0236541e-05   3.3278263e-04  -3.0197169e-05   1.5860773e-05   7.7943980e-05   7.2367497e-05  -2.0717202e-04  -3.1086532e-04  -3.1996472e-04  -5.0203977e-05  -7.2626055e-05  -1.2453765e-04  -4.2064596e-04  -1.9557992e-04  -4.8868591e-05  -4.1387827e-04   3.7360171e-04   1.3249474e-04   5.2959960e-05  -1.7974892e-07   8.5713466e-05   6.6162087e-05   1.8706756e-04
   1.1257870e-04  -1.5291014e-04   1.6500719e-04  -4.2922369e-05   1.1490627e-04  -1.1963346e-04   1.4472430e-05  -4.4576780e-05  -4.4388624e-05  -1.9838860e-04   8.7666725e-05  -1.0126907e-04   7.9416975e-05   5.5494427e-05  -2.1366822e-04   2.4234893e-04   1.1701741e-04   8.1682825e-05   1.9147295e-04   6.9935624e-05   2.0753352e-04   8.4963158e-06   1.5104312e-05   4.4146229e-05  -2.2231133e-04  -2.8665148e-04  -1.0782981e-05   1.1700638e-04   2.4965426e-04  -1.8399043e-05   1.3899722e-05  -4.0582967e-05   1.1158014e-04  -2.0108640e-04  -2.3749380e-04  -2.6439634e-04  -1.0124552e-04  -2.9705274e-05  -9.2394141e-05  -3.1262662e-04  -6.4506188e-05   5.1580646e-05  -2.1958518e-05  -9.6246375e-05   2.6103269e-04   3.7653652e-05  -2.2850048e-05  -2.2382353e-04  -1.9088428e-05  -4.1590560e-05
   6.6544824e-05  -1.7757287e-04   4.1889358e-05  -7.9506528e-05   1.3330036e-04  -1.0502988e-04  -3.5633006e-05  -6.3791376e-05   6.2225510e-05  -3.0623607e-05   5.0697403e-05  -1.7611431e-04  -5.4831842e-05  -1.9868303e-05  -1.9002147e-04   1.6182236e-04   1.0162438e-05   4.4416363e-05  -1.8588794e-04   7.9370024e-05   1.6779036e-04   5.5692039e-05  -1.8774076e-04   7.5820448e-05  -2.8010353e-04  -3.5140730e-04   1.1051271e-04   1.1841411e-04   2.0215157e-04   1.8037745e-05  -3.6499205e-05   5.2802989e-05  -1.4407406e-04  -1.7893624e-04  -2.2905506e-04  -2.5974325e-04  -1.1319993e-04   9.3371436e-06  -1.1733252e-04  -4.1213940e-04  -1.5738013e-04   6.0930661e-06   1.6425861e-04  -3.8751803e-04   6.9348745e-05  -1.0192867e-04  -2.7964124e-05  -1.2476102e-04  -1.6778514e-04  -1.8908156e-04
   6.5592838e-05  -1.6598911e-04  -3.9491202e-05   6.9000549e-07   1.2884584e-04  -4.4683005e-05  -4.6860954e-05  -1.1758577e-04  -1.9163386e-05   8.3545638e-06   9.6378033e-05  -5.1413757e-05  -5.3920641e-05  -9.0128415e-05  -1.5938861e-04   1.4876507e-04  -4.5696102e-06   8.9056077e-05   2.8612692e-05   1.1372464e-04   2.3518232e-04   1.0287591e-04  -2.9522399e-04   1.8396539e-06  -2.7562343e-04  -2.2737750e-04   1.0859089e-04  -5.3542168e-05   1.0894050e-04  -2.9796125e-05   1.2002855e-05   1.9201947e-05  -1.3433950e-06  -1.4394741e-04  -3.1189324e-04  -2.3372872e-04  -1.3307130e-04  -8.1400380e-05  -7.5698968e-05  -3.0998423e-04  -2.1411391e-04   1.6852759e-05  -3.3711258e-04  -6.3455297e-04   1.2663851e-04  -1.9874123e-04  -4.5204899e-05   6.4587315e-05  -1.6076975e-04  -2.3960037e-04
  -6.6838940e-05  -2.0425879e-04   3.7318343e-05  -5.0049512e-05   1.9040145e-04  -9.2681359e-05  -1.2008850e-04   2.5188507e-05   4.7845693e-05  -2.3100662e-05   1.3188123e-04  -7.0024122e-05  -2.2287017e-05  -7.1702205e-05  -1.1936457e-04   1.8186073e-04  -2.0880614e-05   5.8526683e-05   1.9808962e-04   6.6786321e-05   2.3227785e-04   1.0079415e-04  -2.1056453e-04  -9.5302574e-05  -2.3947482e-04  -3.3650233e-04   7.6158547e-05   1.0365393e-05   2.5933090e-04  -2.8618415e-05  -8.3002320e-05   4.9051698e-05  -1.0677348e-04  -1.0398334e-04  -3.3303475e-04  -3.0158617e-04  -1.0762558e-04  -5.7248690e-05  -8.3517996e-05  -3.5590518e-04  -1.2201307e-04  -2.5328085e-05  -2.1724743e-04  -3.2222757e-04   3.4685817e-04  -3.2915585e-04  -1.0116918e-04  -1.0846978e-04   1.0869583e-04  -1.2510177e-04
   4.6310147e-06  -1.8209427e-04  -1.2954628e-06  -9.0148904e-05   1.1129038e-04  -9.2754948e-05  -9.9990866e-05  -8.2571300e-05  -2.0554218e-05  -1.9116560e-05   1.6029619e-04  -1.3465904e-04   3.0106488e-05   4.5656063e-05  -1.5339980e-04   1.7340363e-04   2.6447688e-05   7.2150935e-05   1.7081942e-04   9.0625217e-05   2.5118235e-04   7.5577031e-05  -1.7295702e-04  -2.4166943e-04  -5.3464214e-04  -2.6999926e-04   5.2792617e-05   1.2466447e-04   2.4078698e-04   8.2570324e-07   8.5147112e-05   6.6955843e-05   1.0875579e-04  -7.9853948e-05  -2.7285988e-04  -1.8830692e-04  -5.8810354e-05  -3.2075328e-05  -1.1439874e-04  -3.3829629e-04  -1.5957073e-04   3.7596237e-06  -1.0735645e-04  -4.1437426e-05   3.9281277e-04  -1.4015603e-04  -2.7767192e-05  -6.5020897e-05   1.1826466e-04  -1.4647670e-04
   1.4496871e-04  -1.5585723e-04   1.4232121e-05  -2.5997133e-05   1.6840103e-04  -8.1458216e-05  -5.5362430e-05  -6.9612666e-05   1.4919414e-04  -1.9216048e-05   2.1085599e-04  -8.3305720e-05   5.8687627e-05   7.9512674e-06  -9.7362150e-05   1.8418791e-04   2.8158152e-05   6.7577348e-05   3.1958954e-04   1.3919178e-04   2.7414740e-04   1.4437397e-04  -8.3152132e-05  -2.8528066e-04  -1.8362285e-04  -4.4339037e-04   1.9883539e-05   2.5680656e-06   2.0075451e-04  -2.5531015e-05  -6.8437366e-05   1.1878645e-04   1.3307550e-04  -1.4191435e-04  -2.9942839e-04  -3.0021448e-04  -1.3698408e-04  -4.3991302e-05  -8.9249828e-05  -3.1852277e-04  -8.9123816e-05  -2.4150788e-05  -7.6833741e-05   8.5022083e-07  -6.4857522e-05  -1.3403717e-04  -3.3473127e-05  -3.1120388e-04   2.1701693e-04  -1.7123164e-04
   4.1108487e-06  -1.5779267e-04   3.0870331e-06  -6.3080202e-05   1.7160592e-04  -1.2107316e-04  -1.3923083e-05  -2.5024339e-05   1.5165466e-04  -3.6355359e-05   2.1190417e-04  -1.0843058e-04   6.6322616e-05   6.6914719e-05  -8.7160530e-05   1.8099062e-04   3.3394193e-05   8.9472829e-05   3.5851519e-04   1.3386886e-04   2.6721737e-04   8.7251967e-05   5.2563399e-07  -2.1357101e-04  -2.9430242e-04  -3.7121275e-04   7.4179974e-05   8.0367427e-05   2.4586963e-04  -6.2495333e-06   2.5751042e-05   1.3800450e-04  -1.2713350e-05  -1.6129539e-04  -3.3047688e-04  -2.2165298e-04  -5.3319804e-05  -3.2101780e-05  -8.0604645e-05  -3.4507248e-04  -7.5657081e-05  -1.0122568e-04  -1.3650778e-04   2.4650617e-05   1.2095334e-04  -6.9949623e-05  -5.7808196e-05   2.2433058e-04  -6.3152288e-06  -5.4505117e-06
   6.5389671e-05  -1.6938678e-04  -2.4969548e-05  -8.6795910e-05   8.6593704e-05  -1.9711310e-04  -9.1736067e-05  -5.3626292e-05   7.8885983e-05  -1.2205546e-05   2.5984054e-04  -6.5647560e-05   1.4868959e-04   8.8696557e-05  -1.0239474e-04   2.1757801e-04   6.0842001e-05   9.2139584e-05   4.5551191e-04   1.8887904e-04   3.2992018e-04   1.9637785e-04  -3.6262467e-05  -2.4035586e-04   2.9011350e-04  -2.4761062e-04   1.1323297e-04  -1.0702444e-04   3.0354832e-04  -1.4007255e-05   1.4115697e-04   1.8708593e-04   2.7846996e-04  -1.6981771e-04  -2.8706255e-04  -2.5478809e-04  -1.4752879e-04  -2.6633408e-05  -5.6239973e-05  -1.9723129e-04  -1.3931528e-04  -5.5088556e-05  -9.4328767e-05  -8.6974083e-05   3.0581543e-04  -4.6600017e-05  -3.6520694e-05  -2.0302508e-04   6.2645464e-05   3.8442715e-05
   1.9633262e-05  -1.6310804e-04  -1.0494554e-05  -3.6564063e-05   9.7962307e-05  -1.0668084e-04  -1.0826915e-04  -2.6375525e-05   5.6396333e-05  -5.9339211e-05   2.4984867e-04  -1.0112350e-04   1.6682952e-04   1.6614977e-04  -1.3041680e-04   2.3036024e-04   1.1837827e-04   5.8340906e-05   5.0457998e-05   1.8168846e-04   3.2085137e-04   1.5875434e-04   2.0166224e-05  -1.2927750e-04  -4.0725726e-04  -2.8457554e-04   1.1786247e-04   4.7641821e-05   3.4068673e-04  -4.3095683e-06   1.5215344e-04   2.4283338e-04   1.7077480e-04  -2.0819082e-04  -3.3103104e-04  -2.8514184e-04  -6.2187093e-05  -2.8207714e-05  -7.0963128e-05  -3.7447695e-04  -1.2030288e-04  -1.9779674e-05  -9.2214459e-06  -7.1756938e-04   6.8629663e-05   8.4944681e-05  -3.3576998e-05   1.6993488e-04  -7.9257416e-06   1.2582191e-04
   9.8203236e-05  -1.6734429e-04   9.6478820e-05  -7.8841069e-05   1.3172629e-04  -1.3994468e-04  -5.3128475e-05  -1.0372773e-05   8.4537780e-05  -9.6908028e-05   2.1543047e-04  -1.5847225e-04   1.4304064e-04   1.4094761e-04  -2.2092559e-05   2.2401231e-04   1.6103982e-04   7.4104813e-05  -4.7439058e-05   1.7718943e-04   2.7805875e-04   2.5394649e-04   3.2848991e-05   1.3056805e-04  -1.0676312e-04  -4.3845203e-04   5.0798972e-05   4.4531855e-05   3.2230627e-04   2.5004900e-05   1.3177504e-04   1.8745790e-04   1.7092332e-04  -2.3475624e-04  -2.1904310e-04  -2.6434945e-04  -8.9314934e-05  -1.0380189e-05  -1.1437889e-04  -2.8280989e-04  -1.6051790e-04  -3.2509251e-05  -4.2886563e-04  -4.4774791e-04   9.0103218e-05   2.4305964e-04  -4.1693951e-05  -1.5571574e-04   5.6443652e-05   1.0206072e-04
   1.8605846e-04  -1.5352161e-04   1.7231521e-04  -1.7473536e-05   1.7283836e-04  -1.6048056e-04   3.2002438e-06  -8.4547210e-06   4.7848469e-05  -8.9290501e-05   2.5202532e-04  -5.0539511e-05   1.3318243e-04   1.9129293e-04   9.1989996e-06   2.1511169e-04   9.7637268e-05   6.2298262e-05   1.2072732e-04   2.1152580e-04   3.0743345e-04   1.3047739e-04  -2.6802356e-06  -3.7070527e-05   1.5251239e-05  -3.7078088e-04   3.2579530e-05   2.5528399e-05   3.9014977e-04   1.0409256e-05   1.1900780e-04   2.7065838e-04   2.0989112e-04  -1.4019012e-04  -2.2321612e-04  -1.5611724e-04  -8.8144174e-05  -2.4662486e-05  -7.3877236e-05  -2.4693902e-04  -1.3576885e-04  -5.1369138e-06  -2.4389235e-04   1.8163299e-04  -1.2081139e-04   3.1728056e-04  -2.4487859e-05   3.0236258e-04   1.5313533e-04   2.9409534e-04
   1.5435218e-04  -1.6301054e-04   1.8422141e-04  -2.8866905e-05   1.8933760e-04  -1.3743315e-04  -7.9396174e-05   5.6640660e-05  -7.7495555e-05  -1.1140566e-04   2.4106549e-04  -9.4440758e-05   1.9532203e-04   1.8415727e-04  -6.1321545e-05   2.2940029e-04   1.5861163e-04   1.0529576e-04  -1.8512065e-04   1.7482149e-04   2.7672321e-04   2.0917717e-04  -4.2828615e-06   7.4411539e-05   1.5737866e-04  -3.3720018e-04   5.2185223e-05   4.2830576e-05   1.8132670e-04   1.8123332e-05   1.2508500e-04   1.7762424e-04   3.4509489e-04  -1.9719993e-04  -2.4877634e-04  -1.9402234e-04  -4.8186783e-05   9.5389960e-06  -2.7499580e-05  -4.0885957e-04  -1.0705990e-04  -6.2338753e-05  -4.3920238e-04  -4.4946771e-04   1.6947048e-04   3.4238561e-04  -6.0918528e-06  -3.7026071e-04   1.4032907e-04   3.2304705e-04
  -5.4075423e-05  -1.8348353e-04   9.8295110e-05  -4.6287456e-05   1.7608235e-04  -1.4739802e-04  -9.9977820e-05   8.2852248e-06   5.0362592e-05  -8.1331869e-05   2.0549343e-04  -2.0606157e-04   1.3999279e-04   1.8204159e-04  -7.3040756e-05   2.2689909e-04   6.9939895e-05   5.7805089e-05   6.6657199e-06   1.6250057e-04   3.0349815e-04   1.4771534e-04   1.9304073e-04  -6.6150073e-04   2.0375222e-04  -3.4511200e-04   7.1406030e-05  -3.5408615e-05   1.6986921e-04   4.0470755e-07   1.4546918e-05   2.3565243e-04   4.2348594e-05  -1.2697786e-04  -2.9256035e-04  -2.4862055e-04  -1.0584437e-04  -4.6228022e-05  -1.1459123e-04  -3.9950295e-04  -1.0251372e-04  -1.1738098e-04  -1.6454104e-04  -2.6843749e-04   2.9928383e-04  -1.3189658e-04  -4.0808114e-05  -2.9803245e-04   4.7488975e-05   2.2146432e-04
   1.1691621e-04  -1.8333264e-04   1.0317878e-04   1.7525570e-05   1.2496675e-04  -1.4742796e-04  -9.8135788e-05   1.1839289e-05  -1.0856095e-04  -1.3831617e-04   1.5048186e-04  -1.0214555e-04   1.5069010e-04   9.5576463e-05  -6.9748377e-05   2.0779249e-04   8.0111044e-05   9.1376809e-05   4.0841202e-04   1.3107501e-04   2.6173377e-04   1.4762626e-04  -3.8042926e-05  -2.7025389e-04  -6.4452062e-04  -3.3615218e-04   5.0583305e-05   2.4874043e-05   1.5955283e-04   1.4552142e-05   1.8888124e-04   1.3442725e-04   1.5473140e-04  -1.5366872e-04  -1.3407382e-04  -3.0737114e-04  -1.1496148e-04  -1.6981228e-05  -9.1268652e-05  -2.3395647e-04  -2.0278529e-04  -5.8226291e-05  -4.6962069e-04  -4.5612187e-04   1.6699955e-04   4.4535762e-05  -6.0756734e-05  -3.0130896e-04  -5.5260145e-05   1.6892224e-04
   2.4895337e-05  -1.7880366e-04   1.2144272e-04  -1.5320580e-06   1.3664972e-04  -1.4001918e-04  -4.7109472e-05  -2.9070696e-05  -1.5439218e-04  -1.6167645e-04   1.5719193e-04  -1.3607791e-04   1.1477950e-04   1.0739636e-04  -8.9490335e-05   1.9879812e-04   9.4440104e-05   5.1216823e-05   4.1057367e-05   1.1593197e-04   1.7788650e-04   1.3686370e-04  -7.6934317e-05  -3.9977508e-04  -1.3726378e-04  -4.4535432e-04   9.0511094e-05   1.8627999e-05   2.0366261e-04  -5.9868589e-06   6.8381323e-06   1.6540311e-04   1.9435814e-04  -1.5524332e-04  -3.0864988e-04  -2.5453678e-04  -1.5420884e-04  -2.6491374e-05  -7.5361721e-05  -2.7690100e-04  -5.6034783e-05  -3.5538018e-05  -4.1061820e-04  -6.1677676e-04   2.7454866e-04   3.4078126e-04  -2.2624039e-05  -3.5643068e-04   2.2547263e-04   2.7833393e-04
   1.2703431e-04  -1.5552487e-04   1.0950641e-04   7.7908107e-06   1.1273362e-04  -8.9799956e-05  -2.7888293e-05   5.2929695e-06  -1.9880515e-04  -1.6558726e-04   1.5892563e-04  -5.0668204e-05   1.1401181e-04   1.0875227e-04  -1.2083056e-04   2.1629063e-04   6.2101186e-05   5.0689352e-05   8.5536427e-05   1.0589755e-04   2.1506635e-04   1.2756197e-04   1.3426798e-04  -2.3050273e-04   5.3179156e-05  -1.1085907e-04  -2.8429288e-06  -4.6045174e-05   1.5829245e-04  -1.5147395e-05   1.0300212e-04   1.8476050e-04   3.0238548e-04  -1.7290837e-04  -2.6678093e-04  -2.2025206e-04  -9.1565009e-05  -2.4368999e-05  -1.1217903e-04  -1.7637190e-04  -1.3773645e-04   5.8037229e-05   5.1794534e-05  -7.3043804e-04   6.1798390e-05  -4.8066272e-06  -6.7962996e-05  -1.0152254e-04   4.8233480e-05   2.6324746e-04
   6.5363070e-05  -1.9173286e-04   1.5742864e-04  -5.1805996e-06   1.8679154e-04  -1.0480422e-04  -6.4545427e-05  -2.4853869e-06   5.3204265e-05  -1.2721631e-04   1.5543299e-04  -1.3584892e-04   6.8402398e-05   1.0531077e-04  -1.5671464e-04   1.9446477e-04   4.1050764e-05   6.0449911e-05   3.7839706e-04   9.5566036e-05   2.2507444e-04   4.7046749e-05  -2.2124570e-04  -4.0095489e-04  -2.4468396e-04  -3.4432980e-04   1.2126999e-04   7.6620645e-06   1.5896386e-04  -6.3020407e-06  -1.0177144e-04   1.2513201e-04   8.4607884e-05  -2.0221580e-04  -2.0309824e-04  -2.4495201e-04  -7.0398222e-05  -4.5747398e-05  -1.1494373e-04  -2.3152541e-04  -1.6594927e-04  -6.5941524e-05  -3.3788060e-04   7.3437295e-05  -1.9522473e-04   2.1274957e-04  -1.6942857e-05  -9.9751931e-05   4.7015492e-05   1.4556515e-04
   1.4545351e-04  -2.3374766e-04   1.0945473e-04  -4.1920634e-05   7.0724134e-05  -1.6121117e-04  -6.7662200e-05  -4.3632688e-05  -7.3412557e-05  -1.3787144e-04   1.2333320e-04  -2.3026456e-04   8.3988212e-05   4.6819416e-05  -1.5754995e-04   1.5129095e-04   1.0887274e-05  -2.9019182e-05  -7.4407129e-05   7.0262584e-05   1.9321707e-04   9.9389930e-05  -8.8342218e-05   2.2540372e-04  -2.8144068e-04  -2.7623522e-04  -1.3619736e-05  -7.4857569e-05   1.5441036e-04  -2.6828860e-05   5.1658775e-05   7.6242504e-05  -3.6178448e-05  -1.9376390e-04  -1.8851386e-04  -1.6080560e-04  -1.4781753e-04  -4.4662127e-05  -7.8427809e-05  -3.0350496e-04  -1.3021963e-04  -3.4065873e-05  -3.2374472e-04  -5.4797000e-04  -2.4035091e-05   1.8498869e-04  -7.4100142e-05  -1.8762962e-04   6.9608264e-05   6.2299623e-05
  -3.3512388e-05  -1.8727261e-04  -2.4283683e-05  -9.3580074e-06   1.7261899e-04  -1.6053468e-04  -4.1258907e-05  -4.3334756e-05   7.0817980e-05  -6.7460925e-05   1.5846701e-04  -1.6274163e-04   8.8481138e-05   8.8912668e-05  -1.7836021e-04   1.7476179e-04   3.7592992e-05  -2.2370223e-05   1.5293538e-04   1.1204241e-04   1.7553031e-04   3.4991397e-05  -4.6430861e-05  -2.9650217e-04  -5.1557989e-04  -1.5825209e-04   8.4425345e-05  -1.1377996e-04   7.8015793e-05  -4.2297095e-05  -8.0777085e-05   9.1003654e-05  -2.3890198e-04  -1.8274249e-04  -2.6033574e-04  -2.8100226e-04  -1.3631179e-04  -9.0673777e-05  -1.4964626e-04  -4.2728987e-04  -1.6336299e-04  -1.6078931e-04  -3.1528936e-04  -4.8584386e-04  -3.6426387e-05  -9.7289412e-05  -3.2593951e-05  -2.3832022e-04  -1.1878211e-04  -6.8171910e-05
   1.0232842e-05  -2.1730295e-04   1.0209114e-04  -2.5580854e-05   1.1044237e-04  -1.9707940e-04   7.4043637e-06   2.7858268e-05  -1.5689041e-04  -1.1696298e-04   1.4384388e-04  -1.7670482e-04   7.7285113e-05   6.2601503e-05  -1.2233049e-04   1.4628732e-04   2.1419539e-05  -3.9014667e-06  -1.3319483e-04   1.0231709e-04   1.2284299e-04  -1.1357339e-05  -2.4674775e-04  -7.6060958e-04  -3.1171419e-04  -4.3859970e-04   1.1057530e-05  -8.8498397e-05   1.2149363e-04  -1.7411856e-05  -1.2872701e-04  -5.3938320e-06  -3.8970869e-05  -2.5917415e-04  -3.1562921e-04  -2.5802964e-04  -1.1991318e-04  -8.0063000e-05  -1.3575578e-04  -2.5990952e-04  -1.8227275e-04  -1.5650192e-05  -3.3208632e-04  -1.9128558e-04   2.6587850e-05   1.1961429e-05   1.4073515e-06  -3.9379936e-04  -1.3141838e-04  -1.4705880e-04
   7.9010068e-05  -1.9735140e-04  -9.1059010e-05  -6.4354026e-05   1.3009920e-04  -1.6363566e-04  -5.9905883e-06  -7.1201612e-05   6.0953287e-05  -7.4098723e-05   1.4136735e-04  -1.4607758e-04   6.9032074e-05   2.6996780e-05  -2.3445724e-04   1.7566064e-04  -1.0459248e-05  -8.9245972e-05   2.6329691e-04   9.3892326e-05   1.4221805e-04  -9.2725735e-05  -2.2583645e-04  -1.9246704e-04  -2.2200176e-04  -2.6451392e-04  -7.1890699e-06  -2.2182254e-04   4.0747233e-05  -6.4721877e-05  -9.6693380e-05  -8.1386141e-05  -3.5483263e-05  -2.0350890e-04  -3.5957913e-04  -3.0455951e-04  -1.7017363e-04  -1.1150737e-04  -1.4338773e-04  -3.4500816e-04  -2.4564308e-04  -1.4372707e-04  -1.0539941e-04  -3.7869383e-04  -1.1372923e-04  -3.7622347e-05  -5.8749683e-05  -2.0079676e-04  -1.3502190e-04  -1.0086331e-04
   1.9468500e-04  -1.9336426e-04   3.9746465e-06  -4.4299344e-05   1.1813998e-05  -1.3380940e-04  -2.0066045e-05  -4.4250275e-05  -1.3114815e-04  -1.3219847e-04   1.3190313e-04  -1.5738883e-04   1.1260354e-04   7.2881296e-05  -1.5986004e-04   1.6533693e-04   3.6270183e-05  -3.3150034e-05  -4.6629173e-04   1.1860676e-04   9.1456852e-05  -1.2293892e-04  -3.6986047e-04  -4.9399317e-04   7.3346114e-06  -2.7646692e-04  -3.1565636e-05  -1.4931506e-04   7.7905570e-05  -4.5278972e-05  -9.6831427e-05   2.2604683e-05   3.3556124e-05  -1.9793311e-04  -2.9217673e-04  -2.0556829e-04  -1.2108224e-04  -9.8751530e-05  -1.2376827e-04  -4.2709071e-04  -2.5319742e-04  -5.9033329e-05  -4.1589001e-04  -4.7155201e-05  -4.9658993e-05  -1.2188610e-04  -3.7919963e-05  -5.1621062e-04  -5.0459610e-05  -7.6254481e-05
   8.7816603e-05  -2.0072250e-04  -8.9212510e-05  -8.6530956e-05   1.1145660e-04  -1.8002799e-04  -9.3007089e-05  -5.6853081e-05  -2.3579509e-05  -1.4487594e-04   1.6821781e-04  -2.3201537e-04   1.3582285e-04   6.5302462e-05  -1.3589860e-04   1.8055920e-04   7.1674316e-05  -3.9927741e-05   6.7293280e-05   7.4666372e-05   7.3366326e-05   2.9742681e-05  -6.0792885e-05  -3.0857779e-04   8.2717328e-05  -2.7626171e-04  -2.7919290e-05  -1.9898433e-04   1.1716671e-04  -4.5700330e-05   1.1304473e-05  -7.0297341e-05   2.8675258e-05  -2.0076429e-04  -3.6074014e-04  -2.6288329e-04  -1.1940548e-04  -8.3727507e-05  -1.2691179e-04  -4.2270590e-04  -1.9790974e-04  -2.2204313e-04  -3.9797803e-04  -5.7281792e-04  -1.6300968e-04   5.5214146e-05  -4.6580197e-05  -2.4119444e-04  -2.5925256e-04  -1.2725605e-04
   7.8649326e-05  -1.9227440e-04  -6.9054397e-05  -6.6115383e-05   1.1467104e-04  -1.4851740e-04  -2.6430440e-05   4.3481814e-05  -1.0379952e-04  -1.4089046e-04   1.4740202e-04  -1.5116572e-04   1.1442741e-04   9.0272144e-05  -1.6358610e-04   1.7355000e-04   6.6027947e-05  -2.6136817e-05  -7.3336072e-05   9.6360745e-05   8.3167077e-05  -4.6396293e-05  -1.9288890e-04  -3.1129384e-04  -5.0874148e-04  -1.8164236e-04   2.0636395e-05  -2.0745221e-04   1.2040830e-04  -4.6031641e-05  -6.5279096e-06  -1.9653315e-05   1.4225571e-04  -2.1260734e-04  -3.1783056e-04  -3.5987570e-04  -1.0910340e-04  -8.9762289e-05  -1.6825266e-04  -3.5667006e-04  -1.7255569e-04  -9.4587085e-05  -3.5113681e-04  -3.4189646e-04   6.0697175e-06  -1.5511359e-05  -5.8348429e-05  -1.7869690e-05  -9.9439480e-05  -5.9248683e-05
   4.3706546e-05  -2.1171998e-04  -6.1745639e-05  -6.6348366e-05   1.3648478e-04  -1.3876233e-04  -9.0930647e-05  -4.4114215e-05   5.8713917e-06  -1.6641451e-04   1.4989832e-04  -1.9798719e-04   1.1160142e-04   1.3876363e-04  -8.5394771e-05   1.8655816e-04   9.6122996e-05  -3.1670868e-05   2.3655922e-04   9.2333110e-05   7.9024183e-05   1.0154325e-05  -1.1648511e-04   1.1638350e-04  -4.5019473e-04  -4.0925966e-04   2.3284247e-05  -8.6483713e-05   1.0174434e-04  -2.2122551e-05  -1.3276062e-05   2.2806422e-05   1.5311087e-04  -2.0253778e-04  -2.4944701e-04  -2.7437881e-04  -1.3138773e-04  -7.0541646e-05  -1.2068186e-04  -3.3965366e-04  -1.6693634e-04  -1.6878280e-04  -4.6433945e-04  -1.1384476e-03  -4.7578400e-05  -1.0923295e-04  -4.7200196e-05  -3.4135993e-04  -3.4478385e-06   2.1568039e-05
  -5.8088699e-05  -2.1079152e-04  -6.0820697e-05  -4.9775474e-05   8.2207902e-05  -1.5086068e-04  -4.6412071e-05   6.7554066e-07  -1.3954441e-04  -1.6552485e-04   1.5431976e-04  -1.3471780e-04   1.3093627e-04   1.3579337e-04  -1.5710217e-04   2.0035385e-04   1.1698950e-04   2.1376325e-05   4.8247075e-05   7.9613696e-05   1.0625818e-04  -8.8903478e-05   5.4742148e-05   2.0198763e-04   1.5354854e-04  -2.0932632e-04  -5.1802395e-05  -1.3557773e-04   1.0435226e-04  -3.8513208e-05  -4.2947941e-06  -7.2520379e-05   9.4904775e-05  -1.3389801e-04  -3.0603964e-04  -2.8590229e-04  -8.0737176e-05  -8.1430648e-05  -1.2173031e-04  -4.4158383e-04  -2.2109417e-04  -1.6449837e-04  -3.2798634e-04  -1.2346549e-04  -4.5434870e-05   5.4833094e-05  -3.5827579e-05   1.2730657e-04   8.3664898e-05   4.2782554e-05
   6.3432897e-05  -1.8203151e-04   1.1467074e-05  -5.5176999e-05   1.1719234e-04  -2.0262797e-04  -6.6788547e-05  -6.4824206e-05  -2.4144413e-04  -1.8829241e-04   1.3010211e-04  -1.5458475e-04   1.5027029e-04   1.2007529e-04  -8.3241212e-05   1.7057828e-04   9.0987793e-05  -1.9747564e-05   2.5011934e-04   8.1651080e-05   1.0357986e-04  -4.9683575e-05  -3.4671546e-05  -3.9619289e-04  -2.6236457e-04  -3.5062389e-04  -2.0234679e-06  -8.9246118e-05   1.5339452e-04  -1.8676039e-05   2.9534354e-05   4.6103425e-05  -7.6330551e-05  -1.5144529e-04  -3.5393386e-04  -2.4606902e-04  -1.0518273e-04  -5.8480622e-05  -1.2335769e-04  -1.7332603e-04  -2.7741384e-04  -2.8222643e-05  -3.8585349e-04  -5.6467752e-04  -4.7711414e-04   1.4282351e-04  -9.8124226e-05   1.5747438e-04  -1.6873655e-05   1.4853408e-04
  -1.1429179e-04  -2.1071573e-04   1.6635067e-04  -5.0859468e-05   8.7370914e-05  -1.4850283e-04  -3.5317680e-05  -4.3192376e-05  -1.6405991e-04  -2.1267326e-04   1.1688206e-04  -1.9856161e-04   1.3096070e-04   1.3931480e-04  -8.1013044e-05   1.7175735e-04   1.1098170e-04  -1.8832066e-05   9.4527742e-05   4.5609278e-05   6.5327520e-05   5.9393096e-05  -3.1416293e-04   4.3362222e-04  -6.3977983e-05  -2.9367479e-04   1.4013497e-06  -2.1208354e-05   1.7152654e-04  -2.1695079e-05   1.6329663e-05   9.8634373e-05   1.4482870e-05  -2.0291463e-04  -2.8828220e-04  -2.0742640e-04  -1.6886996e-04  -7.8601195e-05  -1.1964975e-04  -4.6349180e-04  -2.4010426e-04  -8.0199054e-05  -3.8547337e-04  -8.4111490e-04  -1.2329569e-04  -7.2223120e-05  -1.2125987e-05  -3.8503585e-04  -2.1827920e-05   1.3612602e-04
  -1.1885132e-04  -1.9542540e-04   3.7050071e-05   2.9734054e-05   6.9733389e-05  -1.2238089e-04  -3.2283162e-05   5.5665652e-05  -1.6453148e-05  -2.0640891e-04   1.5712017e-04  -9.6001568e-05   7.9004807e-05   1.4312503e-04  -1.1446982e-04   1.6973236e-04   7.4220668e-05   5.0917322e-05  -1.5474898e-04   4.4098477e-05   9.9491444e-05   7.3476425e-05  -1.0019912e-04   5.6693912e-04  -3.3767486e-04  -2.9729542e-04   1.0469587e-05  -7.6212229e-05   1.8792062e-04  -2.9651868e-05   1.5994706e-04   1.8967177e-04   2.0797552e-04  -1.2291764e-04  -2.5262800e-04  -2.6564026e-04  -1.1083388e-04  -6.5855565e-05  -1.2157682e-04  -3.4071444e-04  -2.3812207e-04  -8.8582055e-05  -1.8281766e-04   1.1696726e-05  -4.0636380e-04   4.7113981e-06  -1.2317896e-04  -4.3086489e-04  -3.8682387e-04   1.8079107e-04
   6.2300664e-05  -2.1352970e-04   3.8431630e-05  -5.0531227e-05   1.1654358e-04  -1.4433316e-04  -1.0061038e-04  -1.8578272e-05  -7.0300208e-05  -1.9990363e-04   1.2126226e-04  -1.6029192e-04   1.3745332e-04   1.4923945e-04  -5.2655305e-05   1.9209691e-04   5.5684883e-05   3.2047097e-05   2.0339851e-04   4.5338886e-05   5.5355042e-05  -2.9521399e-05  -1.6051372e-04  -1.0593360e-04  -3.2073018e-04  -2.8106838e-04  -7.0486771e-05  -4.0226481e-05   8.1916718e-05  -1.3430080e-05   9.9489494e-05  -3.6974168e-06   9.2589362e-05  -1.5869364e-04  -2.5926219e-04  -1.9907783e-04  -1.3058948e-04  -6.7588524e-05  -1.1078552e-04  -3.0184267e-04  -2.5096576e-04  -1.8777262e-04  -3.8692442e-04  -6.2865257e-04   2.4725476e-04   1.5717665e-04  -1.1511453e-04  -1.6879525e-04  -1.4414945e-04   1.7730183e-04
  -6.8742411e-05  -2.3762228e-04   2.1084993e-06   6.8829595e-06   6.2654486e-05  -2.2582510e-04  -1.1427919e-04   3.7494638e-07  -9.9541336e-05  -2.0597508e-04   1.1174477e-04  -1.5551505e-04   1.0910436e-04   1.6375765e-04  -1.9433106e-04   1.8327644e-04   3.6333287e-05  -3.9365063e-06   4.0155943e-04   3.9985222e-05   1.0257833e-04   8.4748892e-05   1.3686866e-04   2.1123352e-04  -3.7651247e-05  -8.2342427e-05  -2.8282173e-05  -1.3119500e-04   1.3201107e-05  -3.8601931e-05  -2.3409624e-05  -3.2771761e-05   1.2818260e-04  -1.0198481e-04  -3.1566431e-04  -1.7951430e-04  -1.1867150e-04  -9.1557886e-05  -1.5450700e-04  -4.2688166e-04  -2.7982218e-04  -2.4186743e-04   1.3883282e-06  -5.8429950e-04   6.0481641e-05  -6.9196896e-05  -1.1561081e-04  -1.6179225e-04   9.5973191e-05   1.9167972e-04
  -1.3749571e-04  -2.2328222e-04   7.7097002e-06  -1.6828275e-05   4.4534943e-05  -1.8954172e-04  -1.3446556e-05   2.0254707e-05  -8.4816391e-05  -2.0022881e-04   1.1572065e-04  -1.5221094e-04   1.0048570e-04   1.6509737e-04  -1.8851171e-04   1.6330081e-04   7.3818897e-05  -1.8789300e-05  -1.3279918e-04   2.1310636e-05   6.2007653e-05   8.8183833e-06  -1.6897397e-04   6.9371820e-04  -1.5250122e-04  -2.1712214e-04   1.2682796e-06  -1.3129562e-04   1.5100439e-04  -4.1323725e-05  -8.5472428e-05  -2.0816031e-05   6.8767498e-05  -1.5077296e-04  -2.9704714e-04  -1.5950788e-04  -1.3287415e-04  -9.4428200e-05  -1.2948595e-04  -3.4319371e-04  -2.0581497e-04  -1.9027357e-04  -5.1518850e-04  -7.8019989e-04  -4.2971216e-05  -8.7780179e-05  -8.7857072e-05  -6.0982634e-06  -2.9339799e-05   1.2921836e-04
  -9.6723794e-05  -2.3704390e-04  -9.6883603e-05  -6.3918647e-05   7.1829854e-05  -1.6351191e-04  -1.1802584e-04  -8.7072287e-05  -1.1827877e-04  -1.8261551e-04   8.5515057e-05  -2.2815593e-04   7.9449484e-05   8.2782892e-05  -1.5493909e-04   1.5064965e-04   1.6314196e-05  -8.2444740e-06   6.8189729e-05   5.0647966e-05   2.0796808e-05  -2.5048482e-04  -6.1677194e-05  -2.1889567e-04  -8.2195420e-06  -3.7581078e-04  -5.9805487e-05  -1.6520798e-04   1.2894771e-04  -5.9013171e-05  -1.2272208e-04   1.7579382e-04  -2.5576650e-04  -1.9677274e-04  -3.4431543e-04  -1.6682832e-04  -1.2626738e-04  -1.0467658e-04  -1.5207595e-04  -2.8016572e-04  -1.8542213e-04  -2.3610986e-04  -4.2099759e-04  -2.2562555e-05  -3.7297833e-04  -1.8315054e-04  -1.3163972e-04  -1.8525244e-04  -3.5205789e-04  -7.3250223e-05
  -8.0338366e-05  -2.0876338e-04  -1.8790870e-05  -4.1052586e-05   7.3121628e-05  -1.7260593e-04  -9.7466254e-06  -1.9381931e-05  -1.6653957e-04  -1.0291792e-04   1.0747874e-04  -1.5269406e-04   9.0473266e-05   9.3352130e-05  -2.0712042e-04   1.4952173e-04   2.0050486e-05  -4.7027101e-05   3.7306870e-04   6.8100409e-05   3.8759630e-05  -1.4754201e-04  -2.1135298e-04  -2.3049446e-04   2.6941646e-04  -2.3657287e-04   6.8116733e-06  -1.8153100e-04   1.0185401e-04  -8.5821252e-05  -1.3991717e-04   4.2119900e-05   2.1656802e-05  -1.8340111e-04  -2.9662391e-04  -1.9985490e-04  -1.9324111e-04  -1.2466671e-04  -1.5942214e-04  -2.6542050e-04  -2.1602908e-04  -4.0113297e-05  -4.0625117e-04  -1.6564764e-04   1.5251854e-04  -6.8736568e-05  -9.5565061e-05  -2.7361425e-04   3.7038477e-05  -2.8731365e-05
  -1.2386387e-04  -2.0300422e-04  -1.7573987e-04  -8.2272134e-05   1.0609368e-05  -2.6636198e-04  -3.0914056e-05  -4.6629331e-05  -1.0743637e-04  -2.4327119e-04   9.1750866e-05  -1.9030119e-04   1.0143180e-04   1.4511272e-04  -9.6042007e-05   1.9925063e-04   6.3101070e-05  -5.3238004e-05  -1.2338324e-04   6.8156354e-05  -1.7046112e-07  -4.8172722e-05   1.1145037e-04  -2.6495809e-05  -1.8421756e-04  -2.9089642e-04  -6.8586756e-05  -1.2617456e-04   2.9287025e-04  -8.1252409e-05  -9.1203801e-05  -4.9549821e-05  -7.7169434e-06  -2.3865794e-04  -3.4026772e-04  -3.0537404e-04  -1.1662777e-04  -1.3618270e-04  -1.5618408e-04  -4.1574377e-04  -1.7404405e-04  -1.0513072e-04  -9.3918650e-05  -4.7909949e-04   1.1064376e-04  -7.9868296e-05  -8.7999571e-05  -4.5954884e-04  -1.6537466e-04   5.4961754e-05
  -1.0115988e-04  -2.3737851e-04  -2.6371958e-05  -1.0387574e-04   7.3175332e-05  -2.4617600e-04  -1.2537662e-04  -1.2506993e-05  -1.1780653e-04  -2.5909612e-04   8.2419763e-05  -1.7896820e-04   2.0246019e-04   2.5738010e-04  -1.0040020e-04   2.4297855e-04   1.3007865e-04  -7.9760350e-05   2.2536828e-04   1.0420807e-04   6.6526474e-05  -1.8215782e-04   1.9641393e-06  -6.1703031e-04  -7.1905408e-05  -3.1526727e-04  -1.3428985e-04  -1.2205382e-04   6.5800348e-05  -8.6338812e-05  -1.5514153e-04  -5.5418070e-05  -5.4864147e-05  -2.7729594e-04  -2.7496240e-04  -1.7923157e-04  -8.8399924e-05  -1.6385483e-04  -2.1174605e-04  -2.9199186e-04  -2.6650424e-04  -3.8389557e-05  -1.7781647e-04  -9.5068099e-04  -2.6967397e-04  -8.7711569e-06   2.8013368e-05  -8.8614179e-05  -1.6499494e-04   1.1530809e-04
   5.6483139e-05  -2.2781575e-04   2.8456319e-05  -6.0200848e-05   3.4957051e-05  -2.1533899e-04  -8.9877343e-05  -2.5533832e-06  -1.3123392e-04  -2.5311427e-04   1.0934823e-04  -1.4923808e-04   1.8906024e-04   2.1336200e-04  -1.2040944e-04   2.1982499e-04   1.4206054e-04  -8.8983033e-05   2.8905901e-04   8.0521524e-05   2.9334824e-05  -9.3865186e-05   2.0651823e-04  -3.1660829e-04   2.9125891e-04  -3.6382160e-04  -2.6190177e-05  -2.9336759e-05   1.2474970e-04  -8.6505388e-05  -1.5002811e-04   1.0633007e-04   3.0052219e-05  -2.5010825e-04  -2.9671594e-04  -2.1402531e-04  -6.8030138e-05  -1.2458034e-04  -2.2145375e-04  -4.9188733e-04  -2.4630316e-04  -1.0917395e-04  -3.7783736e-04  -7.3828170e-04  -5.2955067e-05  -1.0048207e-04  -1.0266700e-05  -2.5056978e-04  -4.7909049e-07   9.2194161e-05
  -1.2875194e-04  -2.3236564e-04  -3.1447851e-06  -9.1639093e-05   4.2389060e-05  -2.2068634e-04  -1.5161840e-04  -1.0548115e-05  -9.0479632e-05  -2.6384316e-04   8.9445661e-05  -2.0416663e-04   1.8956722e-04   2.5501795e-04  -2.4668392e-04   2.3692531e-04   1.3050431e-04  -1.1200294e-04  -9.5098549e-05   8.0414495e-05   3.4119188e-05  -2.3854549e-04  -4.7405763e-05  -1.5555274e-04   5.8465321e-06  -3.1911390e-04  -1.1066950e-04  -2.8568251e-05   8.9715490e-05  -6.0454393e-05  -7.0941998e-05   6.1755163e-05   1.0415141e-04  -2.7476097e-04  -3.0940233e-04  -2.9150120e-04  -1.8741877e-05  -1.3191736e-04  -2.0465758e-04  -4.2080341e-04  -1.8022342e-04   4.6128171e-05   6.5193271e-05  -2.7090920e-05  -2.6830562e-04  -2.3107918e-04   9.7305547e-06  -5.3856877e-04  -1.2944829e-04   1.4378244e-04
  -6.0979222e-05  -2.0681317e-04  -1.0167692e-04  -2.5599975e-05   8.8344081e-05  -1.8994667e-04  -8.1054066e-05  -6.0284499e-05  -1.7339687e-04  -2.4329079e-04   8.7827073e-05  -1.2935192e-04   2.1968267e-04   2.6656801e-04  -1.3465517e-04   2.2254520e-04   1.3363901e-04  -4.0789619e-05  -6.0436112e-05   1.1328611e-04   7.8340345e-05  -5.7064542e-05  -2.3537049e-04  -1.7702737e-04  -1.8356547e-04  -1.3615274e-04  -9.4361145e-05  -1.1894344e-04   2.1147326e-04  -7.9893609e-05   1.7049543e-04   2.9236098e-05   3.9028688e-05  -2.3221977e-04  -3.4792229e-04  -1.0015368e-04  -8.9635352e-05  -1.5351181e-04  -1.9462359e-04  -4.5611220e-04  -2.9801019e-04  -4.8394519e-05   3.5409186e-05  -9.6409069e-04  -2.0472129e-04   9.8398530e-05  -2.6591522e-05  -7.5517653e-04  -1.4984938e-04   1.3326216e-04
  -1.1113999e-04  -2.2493849e-04   4.1068644e-05  -5.7222875e-05   7.6689561e-05  -2.5203647e-04  -1.4413387e-05  -6.0173825e-05  -1.9042485e-04  -2.7277184e-04   7.5881733e-05  -1.7139215e-04   2.0421059e-04   2.6950880e-04  -1.1880319e-04   2.5792513e-04   1.7541819e-04  -5.1937484e-05   4.5287575e-06   8.7706954e-05   2.0296326e-05  -1.1177435e-04   1.0446057e-04   5.5659341e-04   6.2133906e-05  -3.7680159e-04  -6.1947663e-05  -1.2899740e-04   1.4608059e-04  -6.0479830e-05   1.0391579e-04   5.5964956e-05   1.8683304e-04  -2.3873977e-04  -1.7859704e-04  -2.1654950e-04  -7.0478789e-05  -9.9193909e-05  -1.7375217e-04  -2.5988615e-04  -2.2167512e-04   1.0709883e-05  -5.0667551e-04  -5.0172227e-04  -9.6526419e-05   6.2414452e-05   2.6830394e-05  -2.0205493e-04  -1.0875567e-04   2.6651956e-05
  -1.2422322e-04  -2.2868716e-04   6.3783424e-05  -5.7454592e-05   6.3922584e-05  -2.4348538e-04  -1.0775889e-04  -4.0751343e-05  -2.4547736e-04  -3.0788861e-04   7.6994940e-05  -1.8730841e-04   2.4562265e-04   3.3350533e-04  -1.4089386e-04   2.6158450e-04   1.8112325e-04  -3.1197058e-05  -4.7223747e-04   1.0495279e-04   4.1977128e-05  -1.5092536e-04  -3.2988628e-05   1.1108854e-04   1.6107474e-04  -1.7078925e-04  -9.6953510e-05  -1.5143793e-05   1.6470248e-04  -5.9743787e-05  -4.0033149e-07  -1.8492487e-05   1.1520768e-04  -1.9683046e-04  -3.0438523e-04  -2.3185047e-04  -3.1361447e-05  -8.5385342e-05  -1.8106893e-04  -2.5539941e-04  -1.7332799e-04   1.8241850e-05  -2.8738691e-04  -4.2496325e-04  -4.0167477e-05   4.9065537e-05  -2.7530281e-05  -4.6335903e-04  -2.6198299e-04   1.8262051e-04
   8.7928112e-07  -2.0013879e-04  -6.6229295e-06  -4.8958824e-05   4.1262618e-05  -2.1260144e-04  -7.4005860e-05  -7.3005203e-06  -8.9717396e-05  -3.0981493e-04   9.8056604e-05  -1.5906699e-04   2.6158793e-04   3.4140592e-04  -3.3567198e-05   2.3823224e-04   2.1139505e-04  -3.8988201e-05  -2.3550930e-04   1.0075825e-04   7.4647869e-05   1.1529740e-05   6.1008021e-05   3.2019374e-04  -9.9377685e-05  -3.9040341e-04  -5.9233742e-05  -1.3904010e-04   2.7150087e-04  -5.3990181e-05  -5.9133006e-05   4.1660729e-05   1.7980012e-04  -2.3970444e-04  -2.6242912e-04  -1.6420838e-04  -2.8667035e-05  -6.2711624e-05  -1.7156117e-04  -5.2614533e-04  -1.3066443e-04   5.1068761e-05  -3.0308316e-04  -2.1758990e-04  -8.9425856e-05   2.3461937e-04   2.9840259e-05  -1.1021557e-04  -3.5607285e-05   2.5658638e-04
   3.5207806e-06  -2.0770109e-04  -6.3538726e-05  -2.6851680e-05   1.1347633e-04  -2.3368812e-04  -1.1242719e-04  -4.4622237e-05  -7.1399816e-05  -3.2220685e-04   8.4085441e-05  -1.8056500e-04   2.5466937e-04   3.5408954e-04  -4.5703614e-06   2.5315682e-04   1.9386967e-04  -2.6693126e-05   3.1370691e-05   8.7976507e-05   3.8143564e-05  -6.4671658e-05  -3.7124133e-05   2.6587890e-05   1.9932231e-04  -2.8208859e-04  -9.3576229e-05  -2.5886311e-07   1.6091879e-04  -5.2451673e-05  -2.4293726e-05   8.3255676e-05   3.7301033e-05  -2.3512493e-04  -2.5564875e-04  -1.6685936e-04  -1.3453296e-05  -6.3472027e-05  -1.4177302e-04  -4.8604843e-04  -1.7535262e-04  -6.4000415e-05  -1.1841511e-04  -1.2920266e-04  -3.1895304e-04   1.5463633e-04  -9.5185078e-06  -4.4349569e-04  -1.2877445e-04   2.0753950e-04
  -2.5136262e-05  -1.9551034e-04   2.5539093e-05  -2.6663173e-07   7.7569050e-05  -1.6787314e-04  -5.9751244e-05  -3.1733765e-05  -1.2705331e-04  -2.9106918e-04   1.1978028e-04  -1.3117382e-04   2.6912379e-04   3.4344752e-04  -1.0750518e-05   2.5194613e-04   1.7923405e-04  -4.0393701e-05   7.7315682e-04   1.3306311e-04   1.1480157e-04  -3.1337859e-05   1.6815717e-04   1.4929037e-04   2.6045484e-05  -2.0675655e-04  -1.0848390e-04  -1.4108562e-04   8.9421046e-05  -6.7114866e-05   1.6142931e-05   1.4020315e-04   1.2002212e-04  -2.0644807e-04  -2.2511986e-04  -2.0754614e-04  -1.2788124e-05  -5.1912142e-05  -1.9831499e-04  -3.8196155e-04  -1.6065409e-04   2.3044815e-06  -1.9018188e-04  -7.3545365e-05  -3.3722477e-05   6.0930233e-05  -4.6290228e-05  -1.2819034e-04  -4.1911288e-04   2.2624328e-04
  -1.1139223e-04  -2.0132604e-04   7.7617275e-05  -3.0204399e-05   3.5943958e-05  -1.8891654e-04  -6.2508123e-05   4.2717733e-05  -2.0806048e-04  -8.8955559e-05   9.2027352e-05  -2.6979431e-04   1.4994146e-04   2.2033924e-04  -9.3987452e-05   2.0099728e-04   6.7842528e-05  -7.0478207e-05  -2.2565519e-05   1.2093690e-04   1.8923995e-04  -7.3107411e-05  -2.3057793e-04  -1.4712989e-04  -2.6198715e-04  -3.3458439e-04  -5.7787511e-05   2.3952420e-05   5.5201523e-05  -7.7566874e-05   4.2937777e-06   1.4644835e-04  -4.4502365e-05  -2.0420564e-04  -2.1684467e-04  -1.6926456e-04  -9.2116868e-05  -1.0174484e-04  -2.2026412e-04  -4.2163653e-04  -3.1230372e-04  -1.2684538e-04   1.0709618e-05  -3.2876528e-04   1.3531184e-05   1.9380110e-04  -1.8902772e-05  -2.9899811e-04   2.6220252e-05   3.7427331e-04
  -6.5186578e-05  -2.4499110e-04   3.9467795e-05  -6.1969067e-06   4.6604888e-05  -2.5187500e-04  -8.4088941e-05  -1.8600220e-05  -1.1725666e-04  -1.5151121e-04   5.7399167e-05  -3.0657472e-04   1.8159472e-04   2.4541470e-04  -8.1481747e-05   1.9245868e-04   9.4493116e-05  -9.9141085e-05   2.6411228e-04   9.7546435e-05   1.7744917e-04  -6.3736807e-05  -1.3091015e-04  -1.0571640e-04  -4.5753983e-04  -3.5293208e-04  -1.1070452e-04  -1.1767438e-04  -3.7968536e-07  -7.2939845e-05   2.8055574e-05   1.4762630e-04   3.0889077e-04  -2.2145351e-04  -2.1893355e-04  -9.8209843e-05  -1.1140839e-04  -1.0740143e-04  -2.1444484e-04  -3.8425115e-04  -1.9618527e-04  -1.3647704e-04  -1.6554225e-04  -3.3584455e-04  -1.3919239e-04   1.8817924e-04  -6.1334991e-05  -9.4510469e-05   8.2728402e-05   3.5390438e-04
   2.0252608e-05  -2.1794974e-04   1.4132504e-04  -1.4948095e-05   4.6288853e-05  -2.1648862e-04  -8.1902261e-05   2.0590409e-05  -2.1924480e-04  -1.0897734e-04   1.0047431e-04  -1.7373353e-04   2.6028336e-04   3.0755973e-04  -5.9966256e-05   2.0171265e-04   1.2040039e-04  -6.7728579e-05   4.3625478e-04   1.1487573e-04   1.4998426e-04  -6.2497675e-05   2.0237621e-05  -4.0238371e-04   4.8234695e-04  -3.9256722e-04  -8.0308098e-05  -1.1523709e-05   1.0933919e-04  -7.3171293e-05   3.3056469e-05   1.7706276e-04   6.5947745e-05  -2.0847109e-04  -2.2556643e-04  -1.2304321e-04  -3.5649104e-05  -7.8344478e-05  -1.8326430e-04  -3.5476426e-04  -1.7205781e-04   1.1371999e-04  -1.1676862e-04  -7.0239825e-04  -1.1075140e-04   7.2735180e-05  -3.8227249e-06  -2.2220967e-04   6.0633756e-05   4.3077845e-04
  -2.9942441e-05  -2.1044837e-04  -7.7613204e-06  -9.1210350e-05   1.0359456e-04  -1.6837199e-04  -1.1591966e-04  -3.1360883e-05  -8.3752326e-05  -1.0123236e-04   1.2381647e-04  -2.2749197e-04   2.0922860e-04   3.3672815e-04   6.8067711e-05   2.1278361e-04   1.3282815e-04  -3.1668966e-05   2.2299157e-04   1.1789216e-04   1.6513460e-04  -5.4616696e-05   3.3412020e-05   1.7638791e-05   5.6266581e-05  -3.3369407e-04  -1.3705634e-04   4.8257105e-05   1.8125580e-04  -4.9457711e-05   9.7204011e-06  -9.7227952e-05  -1.1671941e-06  -2.3658074e-04  -1.6481111e-04  -7.8805344e-05  -3.8540256e-05  -7.2128176e-05  -1.8973890e-04  -3.8432723e-04  -1.5000685e-04  -9.9209625e-05  -3.7683113e-04   1.6977114e-04  -1.8245330e-05   2.5041867e-04  -4.9994396e-05  -1.1044060e-05  -1.4636779e-05   3.2111746e-04
  -5.6901990e-05  -2.1222267e-04   5.3329735e-05  -9.0172452e-06   4.8787348e-05  -2.0980426e-04  -5.9221707e-05   4.5916686e-06   2.8770864e-05  -8.1578495e-05   1.2808571e-04  -2.2266511e-04   2.5003791e-04   3.3330533e-04  -2.6428947e-05   2.6939425e-04   1.1789726e-04  -3.2264878e-05   1.3420537e-04   1.5817866e-04   2.2917402e-04   4.8293550e-05   1.3981882e-04   1.1530057e-04  -7.7518736e-05  -2.8008377e-04  -1.4962816e-04  -2.8806233e-05   1.3410838e-04  -7.9917743e-05  -4.8534675e-05   8.9719790e-05   2.5035214e-04  -1.7210224e-04  -1.3776679e-04  -1.1940821e-04  -3.1412823e-05  -7.5038821e-05  -1.6495667e-04  -3.4395367e-04  -1.8760609e-04   7.5655305e-05  -8.7951616e-05  -3.6038246e-04  -4.1983258e-05  -5.3592021e-06  -5.9774869e-05  -1.7279730e-04  -7.5952950e-05   2.2020373e-04
  -1.6745085e-05  -2.0717387e-04   2.9432800e-05  -2.8090271e-05   4.4159278e-05  -1.8157695e-04  -9.5105235e-05   2.3390045e-05   6.7787587e-05   7.5279961e-05   1.5682893e-04  -2.9386880e-04   1.7974680e-04   2.5967209e-04  -5.2078954e-05   2.4637699e-04   8.6049986e-05  -6.6261207e-05   8.2847942e-04   1.9818461e-04   1.8418035e-04  -1.7205159e-04   8.3951119e-05  -2.9020150e-06   6.7893940e-05  -3.2819749e-04  -8.4539563e-05   2.7650942e-05   1.9536556e-04  -7.2520597e-05   5.3881031e-06   2.0868261e-04   1.7606800e-04  -2.1518892e-04  -1.9505878e-04  -1.1658300e-04  -5.3258835e-05  -5.5935529e-05  -1.9005917e-04  -3.9396260e-04  -1.9341520e-04  -1.4947129e-04  -2.5853061e-04  -8.7454473e-04   1.3368511e-04   2.3442064e-04  -7.1876028e-05  -4.6517442e-05  -7.7504199e-05   2.4013840e-04
  -6.5891145e-05  -2.0861761e-04   1.5721687e-04  -6.0301816e-05   7.9813442e-05  -2.3854096e-04  -5.6414447e-05  -7.3531490e-05   1.5229360e-05  -2.6867627e-05   1.3022122e-04  -2.9855320e-04   2.5091477e-04   3.0807915e-04  -1.1377031e-04   2.1184118e-04   8.2246290e-05  -1.8357190e-05   4.3797656e-04   8.9179623e-05   6.3892745e-05   1.4015855e-05   2.6939617e-04  -1.1293803e-04  -3.3954575e-04  -2.6086217e-04   1.3903930e-05   2.1111404e-05   1.9632648e-04  -4.2436834e-05   7.8921672e-05   1.0169914e-04   1.8000719e-05  -2.1771794e-04  -2.1122662e-04  -1.4461215e-04  -5.4617292e-05  -3.9273797e-05  -1.9081841e-04  -4.1236190e-04  -1.6243658e-04  -4.6259938e-05  -9.1938375e-05  -2.8002722e-04  -4.7740901e-05   2.0974716e-04  -5.4520769e-05  -4.5498444e-05   1.4392316e-04   5.5035233e-04
  -1.1598087e-04  -1.7807174e-04  -5.9821377e-05  -1.2717455e-06   1.0428287e-04  -1.7951727e-04  -7.0188962e-06   9.5311363e-05   4.7080808e-05  -4.1478273e-05   1.4238578e-04  -2.0447258e-04   2.2685187e-04   2.9974704e-04   7.2855735e-05   2.2000415e-04   9.9728080e-05   2.0124573e-05   7.3356459e-05   8.1930666e-05   8.7406988e-05   9.4254494e-05   2.4752581e-04  -1.2763735e-04  -1.8850902e-05  -3.8141294e-04   6.2173076e-06   4.9451937e-06   9.9257333e-05  -4.3071130e-05   3.9435370e-05   1.7992659e-04   6.5711371e-05  -1.3730947e-04  -1.3625067e-04  -7.1435396e-05   1.2239634e-06  -2.9933673e-05  -1.2409943e-04  -3.3097816e-04  -8.9539179e-05  -2.7776987e-05  -2.6765247e-04  -1.4326833e-04  -2.5267166e-04   7.6885946e-05  -2.4957772e-05   2.8623865e-04   1.5362593e-05   5.2293291e-04
   6.1604034e-05  -1.9443055e-04   1.4559159e-04  -7.3338233e-06   9.8628712e-05  -1.3469248e-04  -6.9491492e-05   4.6980560e-05  -2.7355880e-05  -1.1206848e-04   1.2877952e-04  -1.9114379e-04   2.1811770e-04   3.0569470e-04   3.7967122e-05   2.3423578e-04   1.1522794e-04   3.0584677e-05   1.1071457e-04   6.6504232e-05   6.2622399e-05   9.5787444e-05   1.3087298e-04   1.2822454e-04   3.0555832e-04  -2.1736244e-04  -1.1027682e-04   4.9621383e-05   1.8680470e-04  -2.6757949e-05   7.3184892e-05   1.9900988e-04   2.6530691e-04  -1.2871118e-04  -1.0231382e-04  -1.0778311e-04  -5.4420820e-05  -1.8253537e-05  -1.5184627e-04  -2.0826436e-04  -1.1487872e-04  -2.2898397e-05   7.6210694e-05  -5.7390169e-04   9.4005620e-05   6.7465667e-06  -4.8788334e-05   2.1807787e-04  -3.5174504e-05   5.6755164e-04
   4.7936614e-05  -1.9344289e-04   6.6672539e-05  -2.8530454e-05   5.2464788e-05  -1.8775942e-04  -3.6239748e-05   3.4308441e-06   8.0996455e-05  -7.9059573e-05   1.1663366e-04  -2.7643517e-04   2.3412536e-04   3.0139051e-04   2.9319756e-06   2.2268061e-04   1.0927516e-04   3.8499125e-05   4.4894256e-04   8.7341556e-05   1.1828918e-04   1.7258676e-04   2.0059136e-04   6.0449744e-05  -2.7929369e-04  -1.6688019e-04  -7.9845660e-05  -7.2648305e-05   2.1795848e-05  -5.7505229e-05   1.5520383e-04   6.9096975e-05   1.4331828e-04  -1.0505223e-04  -1.2784076e-04  -6.6571673e-05  -4.1029456e-05  -4.0419120e-05  -1.8407844e-04  -2.4137748e-04  -1.2803626e-04  -5.0182625e-05  -2.2730601e-04   2.4847235e-05  -8.5296433e-06   1.6723749e-04  -3.9644812e-05  -2.4953380e-04  -8.2804596e-05   4.8653071e-04
  -1.2777683e-04  -1.7909573e-04   2.6277110e-05   2.9873518e-05   9.1081907e-05  -2.0959118e-04  -5.0150968e-05   5.4094282e-05  -3.0739538e-05  -8.3908548e-05   1.2521529e-04  -2.0180226e-04   1.9360414e-04   2.1196384e-04  -1.4380930e-05   2.1457399e-04   6.9112466e-05   1.9953277e-05  -3.5397457e-05   5.8012949e-05   6.3698673e-05   6.9585818e-05   5.2785578e-07   3.7670130e-04   3.3883203e-05  -3.8822391e-04   4.2033949e-05  -9.2397284e-05   3.0209338e-05  -7.3045579e-05   3.5506278e-06   1.9314828e-04  -1.7789216e-04  -9.5518109e-05  -1.1583303e-04  -1.7533140e-04  -9.0495945e-05  -5.4878688e-05  -1.7022309e-04  -2.5836751e-04  -5.2347397e-05  -8.4028223e-05  -1.1147808e-04  -5.6182285e-04  -6.5021784e-05   2.3723178e-04  -3.3838533e-05  -1.8034136e-04  -3.0308091e-05   4.3120084e-04
  -5.0070645e-05  -1.8459617e-04   1.0116785e-04  -2.3691158e-05   7.1127441e-05  -1.4346323e-04  -4.6116103e-05   7.6861368e-05   4.0120602e-05  -7.2935654e-05   1.1879716e-04  -2.2282283e-04   1.8874466e-04   2.3078713e-04   8.3687031e-05   2.2474448e-04   5.4500979e-05  -2.6930449e-05   1.8056466e-04   9.5943898e-05   5.6436387e-05  -8.6825232e-05  -1.2052489e-04   2.6303375e-04   4.5797889e-05  -3.1184428e-04   5.7867096e-06  -2.2633230e-05  -6.7902503e-05  -5.8878108e-05   3.0617313e-05   2.1266911e-04   9.3433409e-05  -1.2960155e-04  -8.9241599e-05   1.7591556e-05  -4.5631041e-05  -6.5466870e-06  -1.4817812e-04  -2.5732865e-04  -1.1759194e-04   3.2756281e-05   1.8043564e-05   8.7292246e-05  -1.2367514e-04   4.3296404e-04  -4.6789966e-05   5.3872511e-05   1.2190240e-04   3.3537098e-04
  -1.2719203e-04  -1.5265188e-04  -4.4205033e-05   3.1194391e-05   7.1208582e-05  -1.2495997e-04   1.5896632e-05   2.1974451e-05   5.6519195e-05  -1.0638160e-04   1.3741553e-04  -9.7632073e-05   2.0629665e-04   2.3136215e-04   4.7532074e-05   2.1942730e-04   7.6605145e-05   3.1858290e-05   7.8836492e-05   9.6022202e-05   4.6392852e-05  -2.2928620e-05   1.7310609e-04  -1.7803135e-04   7.9673191e-04  -3.1599932e-04  -4.1601255e-05  -8.6842236e-05   1.3477408e-04  -5.9570222e-05   5.3327316e-05   2.3046789e-04   1.0563061e-04  -1.0671816e-04  -1.2355858e-04  -1.1175407e-04  -4.7222300e-05  -1.9330884e-05  -1.4371464e-04  -3.5085570e-04  -4.4567285e-05   1.9683812e-05   6.7540088e-05  -5.8559008e-04  -3.4856953e-04   1.6638169e-04  -2.6382470e-06   4.5835732e-06   1.0088288e-04   4.3193714e-04
   3.7282680e-05  -1.4879118e-04   1.3448627e-04   1.4214454e-05   1.6385852e-04  -1.9158765e-04  -2.3132870e-05   5.8245008e-05  -7.1864466e-05  -1.0483748e-04   1.1966202e-04  -1.3346913e-04   1.8032739e-04   1.6368554e-04  -2.0374435e-05   2.2439005e-04   8.2464743e-05   2.5276877e-05   1.9714932e-04   4.6165092e-05   4.9348615e-05   1.0024099e-04   3.3290603e-04  -2.1616032e-04   3.9601445e-04  -2.7159028e-04   2.5492436e-05  -1.2165982e-05   4.8616905e-05  -5.3226700e-05   1.4872386e-04   3.1739808e-04   2.4365395e-04  -8.2005718e-05  -2.3950810e-05  -1.0602006e-04  -5.1451705e-05  -4.1179596e-06  -1.3844061e-04  -2.2366933e-04  -8.8156870e-05   1.6378401e-05  -4.4272342e-04  -3.0711613e-04  -5.2568164e-05   1.7410313e-04  -5.2207655e-05  -1.8923673e-04  -1.9250128e-04   2.9473481e-04
  -1.0103008e-04  -1.8393132e-04   3.5096375e-05   2.0059977e-07   7.5778662e-05  -1.2171394e-04  -4.8602949e-05   2.8563663e-05   5.7395537e-05  -1.3038877e-04   1.1208101e-04  -1.1335812e-04   1.5986961e-04   1.2844498e-04   9.4213348e-05   1.6764608e-04   9.4144649e-05   3.4853751e-05  -1.8820175e-04   4.9326856e-05   9.8835648e-05  -4.0428557e-05  -1.5613073e-04   8.3855055e-05   4.7190857e-05  -2.3967991e-04  -9.9353369e-05  -2.8566824e-04   1.8346016e-05  -8.6863191e-05   7.5273485e-05   2.5196269e-04   1.2593203e-04  -1.1887815e-04  -9.1572125e-05  -6.5495158e-05  -1.0212865e-04  -6.6716420e-05  -1.6349021e-04  -1.0739312e-04  -8.0788916e-05  -1.1860068e-04  -4.0182465e-04  -2.7485643e-04  -2.2869021e-05   8.0967860e-05  -8.5634812e-05  -1.6088136e-04  -1.9727764e-04   1.5450566e-04
  -9.3689006e-05  -1.6293931e-04  -1.9976302e-05  -4.2961736e-05   7.5524760e-05  -1.7632579e-04  -2.9634251e-05  -5.3960724e-05  -1.6261279e-04  -3.6179048e-05   1.0131166e-04  -1.7985013e-04   1.4458492e-04   8.3888539e-05  -9.1339090e-05   2.1031669e-04   1.1257938e-05  -1.9959652e-05   4.6917936e-05   1.0772171e-04   8.6502907e-05  -1.8164239e-04  -7.2713257e-05   4.5492296e-04   8.7835433e-05  -1.5173192e-04  -5.6072407e-05  -1.9431578e-04  -5.8715807e-05  -8.7686982e-05  -5.9334849e-05   5.8278179e-05   2.5489828e-05  -8.3108425e-05  -1.3151976e-04   1.9347295e-05  -1.1080776e-04  -8.6441811e-05  -1.5243972e-04  -2.4372023e-04  -1.6809441e-04  -2.3255526e-04  -2.0892326e-04  -8.6593245e-05   5.9427613e-05   1.3697948e-04  -1.0769146e-04  -3.1861273e-04  -1.7168511e-04  -1.4124850e-05
  -1.0729561e-04  -2.0740069e-04   1.1107290e-04  -9.6872478e-05   6.8978232e-05  -1.7700164e-04  -5.5229797e-05  -8.2256622e-05  -1.2973577e-04  -8.0417958e-05   1.0843720e-04  -2.8819114e-04   9.5598909e-05   1.0138094e-04  -1.0878623e-04   1.8611926e-04   4.0479204e-05  -2.9644258e-05   4.3318467e-04   8.4399951e-05  -1.5549507e-05  -1.0157445e-04   8.2434944e-06  -7.9916492e-05  -3.8956021e-04  -3.6370900e-04  -5.7038462e-05  -2.0760877e-04  -4.7726513e-05  -8.4087245e-05   2.5312249e-05   1.1238129e-04   1.7558638e-04  -9.3902258e-05  -8.9402070e-05  -1.0969510e-04  -8.3327206e-05  -9.3267729e-05  -1.6366520e-04  -2.9937114e-04  -1.0133240e-04  -1.5992975e-04  -1.9618998e-04   1.9307340e-04  -2.0540119e-04  -5.4595112e-06  -1.1764288e-04   2.6994650e-04  -9.8083554e-05   1.6291740e-05
   9.5392745e-05  -1.7960893e-04  -4.9153627e-05  -2.8229224e-05   7.6022028e-05  -1.7534276e-04  -5.1571533e-05  -3.5965360e-05  -1.8823748e-04  -6.5521068e-05   1.2804123e-04  -2.4404521e-04   1.5461820e-04   9.8880904e-05  -5.3994860e-05   2.1942466e-04   2.8295392e-05  -1.3172657e-05   3.0942534e-05   9.7355522e-05   3.6888192e-05  -9.6139207e-05  -7.1704839e-05  -3.1099201e-04  -1.3651709e-04  -4.8435372e-04  -2.7161283e-05  -2.4956328e-04  -4.8724793e-05  -1.0612278e-04  -4.8248905e-05   2.3267315e-04  -3.5739020e-05  -1.2174706e-04  -2.0733719e-04  -1.0637598e-04  -4.9774848e-05  -9.1336085e-05  -1.6621556e-04  -1.9347113e-04  -1.9747193e-04  -7.5726137e-05   8.3854327e-05  -3.0609884e-04  -2.5070415e-04   5.8512487e-05  -1.5708992e-04  -1.0890299e-04  -1.8591626e-04  -3.9767816e-05
  -2.7258145e-06  -1.8783296e-04   1.8297880e-05  -6.1385712e-05   1.2384952e-04  -2.3020222e-04  -9.3037052e-05  -2.3129078e-05  -1.3470791e-04  -5.3650972e-05   8.9388996e-05  -2.6877728e-04   1.6769534e-04   1.0180478e-04  -1.1150065e-04   1.9332790e-04   5.5636552e-05  -2.2942736e-06   8.2188504e-05   4.5194323e-05   1.8864035e-05  -4.7025322e-05   6.0023438e-05  -6.9258160e-05   2.0795477e-04  -3.6471867e-04  -7.3699339e-05  -2.1257358e-04  -1.2581944e-06  -9.2708047e-05   6.2705694e-05   1.3331886e-04   8.0213749e-06  -1.2663548e-04  -1.5218460e-04  -1.4909393e-04  -1.1282440e-04  -8.8986424e-05  -1.9753532e-04  -1.5249928e-04  -2.0099489e-04  -7.3855816e-05  -2.0068452e-04  -1.3546896e-03  -1.2862709e-04  -2.3050891e-06  -1.7853023e-04  -1.7886622e-04  -4.0599603e-05   5.8064510e-05
  -8.5689579e-05  -1.7113208e-04   8.4814956e-06  -7.3714422e-05   8.8369998e-05  -1.6442295e-04  -7.2771618e-05   6.4364040e-06  -2.0964982e-04  -3.9759281e-05   9.6602162e-05  -2.3718909e-04   1.7400921e-04   9.3292540e-05  -1.2531709e-04   2.2686689e-04   3.2797128e-05  -7.3601310e-05   1.4061123e-05   7.8199853e-05   3.7196212e-05  -1.1747971e-04  -1.5650330e-05  -1.4937996e-04   2.7512928e-04  -2.4740869e-04  -6.2732979e-05  -2.8476643e-04  -3.5605510e-05  -1.1427353e-04  -9.7012475e-05   1.5114780e-04  -1.4605350e-05  -9.6191878e-05  -1.5509363e-04  -1.6164509e-04  -1.2659284e-04  -1.3704385e-04  -1.9933216e-04  -2.5345021e-04  -1.8474503e-04  -1.8490844e-04  -4.7700913e-04  -5.2326295e-04  -2.5505768e-04  -6.6020966e-06  -1.3681363e-04  -1.6994451e-04  -2.3363759e-04  -6.4904561e-05
  -6.0245016e-05  -1.7113776e-04   2.8728267e-05  -8.0461592e-05   1.6461500e-04  -2.4423123e-04  -7.5449461e-05   4.9212696e-05  -2.1437582e-04  -9.9618694e-05   7.5308897e-05  -2.5274357e-04   1.6701974e-04   1.0920996e-04  -1.5709507e-04   2.2393101e-04   7.5557960e-05  -1.0693494e-05   6.4313586e-05   5.2903142e-05  -5.5569533e-05  -1.1249466e-04  -1.2068947e-04  -5.5364013e-04  -5.2090960e-05  -2.4491406e-04  -6.9166417e-05  -2.9948115e-04  -1.7122431e-05  -9.1519083e-05   1.3596845e-04   1.6938672e-04   9.8754339e-05  -9.0050562e-05  -2.1532491e-04  -7.9155630e-05  -1.4189052e-04  -9.5873147e-05  -1.8970134e-04  -2.2418582e-04  -1.3310983e-04  -1.2899954e-04  -1.5452160e-05  -3.4581180e-04  -4.0567314e-04   2.0934570e-04  -1.3222305e-04  -1.5379266e-04   1.2602824e-04   2.1415860e-04
  -9.5919087e-05  -1.9860576e-04   1.5855745e-04  -7.2681461e-05   5.4219625e-05  -2.2074310e-04  -1.0017419e-04  -4.0490679e-05  -1.4606662e-04  -1.4006704e-04   7.0423797e-05  -2.8689232e-04   1.3597726e-04   1.4068457e-04  -1.5565495e-04   2.4720360e-04   8.1710277e-05  -4.0172385e-05   2.9443103e-04   2.1287007e-05  -3.3577729e-05  -1.1741081e-04   4.1261221e-05  -1.1778584e-04   4.8660648e-05  -2.5150739e-04  -8.3762745e-05  -2.1847854e-04   5.2111714e-05  -7.6008320e-05   4.0039526e-05   2.6068024e-05   9.7482640e-05  -4.2391817e-05  -1.1854326e-04  -1.8848627e-04  -1.5785229e-04  -1.0151662e-04  -1.5709597e-04  -2.6604513e-04  -1.7607620e-04  -1.9070605e-04  -2.5525148e-04  -2.9387529e-04  -4.0680103e-04   1.6880564e-04  -1.9088082e-04  -5.2282022e-04  -3.8514641e-04   1.6808006e-04
  -1.3595565e-04  -1.8218736e-04   5.7705306e-06  -8.8473462e-05   1.1177422e-05  -2.1101937e-04  -9.7068230e-05   1.4061198e-05  -3.2715604e-04  -1.3726008e-04   5.3999756e-05  -2.1095773e-04   1.4474166e-04   1.3397697e-04  -1.6058006e-04   2.0660406e-04   6.7627036e-05   1.1262661e-05   5.3806256e-05   1.0566344e-05  -6.0674396e-05  -1.0382197e-04   6.0662725e-05  -1.5804410e-04  -1.0619609e-04  -2.9524445e-04  -6.5167791e-05  -2.5601190e-04  -1.2412149e-05  -9.6583710e-05  -6.5619046e-05   6.1542261e-05   5.2379804e-05  -4.9161015e-05  -1.6454172e-04  -1.1144812e-04  -1.2847212e-04  -8.0832637e-05  -1.3050275e-04  -8.9927657e-05  -1.3147134e-04  -1.7768741e-04  -2.6055178e-04   2.2478662e-04  -3.7176639e-04  -6.7254718e-05  -1.6914592e-04  -3.9062943e-04  -4.5411941e-04   1.7554667e-04
   4.5977544e-05  -1.8728025e-04   5.6492412e-05  -1.7102115e-05   7.7706485e-05  -1.5831355e-04  -3.8436181e-05  -4.6331552e-05  -2.7607940e-04  -1.6538973e-04   2.6198983e-05  -2.1280999e-04   1.3130542e-04   1.2209860e-04  -1.8169208e-04   2.0572003e-04   7.1577793e-05  -3.7602375e-05  -5.8599242e-05  -1.9276158e-06  -6.3302992e-05  -1.8662495e-04   1.7317188e-04  -9.2893697e-06   3.2421411e-04  -2.5153020e-04  -1.4636907e-04  -1.4205689e-04   4.0908180e-05  -6.9293637e-05   4.4249777e-05   1.3885203e-04   1.0669681e-04  -3.5710833e-05  -1.7964332e-04  -1.3633135e-04  -1.5311655e-04  -5.9940343e-05  -1.2607287e-04  -4.0276782e-04  -1.5013042e-04  -1.5187039e-04  -2.5979473e-04  -8.8039087e-04  -1.7440860e-04   1.9078328e-04  -1.9000568e-04  -2.0794223e-04  -5.4884044e-04   5.4019434e-05
  -1.2613872e-04  -1.9152420e-04   8.4887615e-05  -4.1411880e-05   1.1187423e-04  -1.8550822e-04  -3.9555682e-05  -2.5932821e-05  -2.7011105e-04  -1.5813211e-04   1.9601275e-05  -1.8866094e-04   2.8623590e-05   4.8256537e-05  -1.5826541e-04   1.8885902e-04   2.3846254e-05  -1.6096576e-05  -1.4425398e-04  -3.5454461e-05  -2.7730257e-05  -5.0231705e-05  -2.2632032e-05  -2.0479188e-04  -1.4882737e-04  -2.9430339e-05  -8.5114138e-05  -2.8523791e-04  -9.7818396e-05  -1.1118182e-04   4.9081009e-05   1.8734460e-04   2.7342880e-04   1.8577610e-05  -1.0609195e-04  -1.1506431e-04  -1.7356571e-04  -6.5770299e-05  -1.4008730e-04  -2.5620084e-04  -2.0296914e-04  -2.5765348e-04  -1.2583680e-04  -5.2547216e-04  -6.0630863e-04   2.0595438e-04  -1.8054525e-04  -2.5304212e-04  -3.8990722e-04   1.7753267e-04
  -2.1393673e-04  -1.8981003e-04  -3.7696453e-05  -1.5992211e-05   4.3627151e-05  -1.4754871e-04   2.6564596e-06  -1.7226233e-05  -3.1932499e-04  -1.5976631e-04   1.1692304e-05  -2.3244879e-04   5.3882228e-05   5.7620335e-05  -2.6053176e-04   1.6980570e-04   2.5672627e-05   7.7176192e-06  -6.2502164e-05  -2.4044353e-05  -6.2591818e-05  -1.7617201e-04  -2.1743786e-04   2.6077297e-04  -3.9594623e-04  -1.7489925e-04  -1.1809469e-04  -2.4933633e-04  -6.8318863e-05  -9.8852957e-05   6.8299159e-05   1.0309841e-04  -7.2769071e-05  -2.1078868e-05  -2.6347299e-04  -1.2405863e-04  -1.9712727e-04  -7.0016737e-05  -1.5021098e-04  -1.7468723e-04  -2.6141512e-04  -2.2108949e-04  -2.0342623e-04  -6.4530282e-04  -2.7936231e-04   1.8593090e-04  -2.1398113e-04  -1.5416929e-04  -1.4097447e-04   3.3881352e-05
  -9.8038938e-05  -1.8798758e-04   6.2622086e-05  -6.6878980e-05   4.6636418e-05  -2.3281889e-04   1.5711064e-05  -8.1250095e-05  -3.3680125e-04  -7.9813632e-05  -1.7197524e-05  -2.8656781e-04  -2.3743070e-05   8.0011023e-06  -2.0765458e-04   1.6146344e-04   2.6124842e-06  -7.2689545e-05  -6.1639393e-04  -1.1754974e-05  -4.7931539e-05  -2.6769759e-04   3.1833708e-05  -7.2240358e-04  -1.9034385e-04  -2.6740375e-04  -1.1567105e-04  -1.8601651e-04  -2.9748742e-06  -1.0498046e-04  -1.1476327e-04   1.1792570e-04  -2.1276927e-04  -6.5714397e-05  -1.9072431e-04  -7.4875046e-05  -1.8245714e-04  -6.1125058e-05  -1.3000434e-04  -1.9224192e-04  -1.8860954e-04  -1.3387212e-04  -3.6779718e-04  -1.0191087e-04  -6.2688097e-04   2.0569492e-04  -2.1833682e-04  -4.3863337e-04  -3.0188955e-04  -2.3375154e-05
  -1.2757204e-04  -1.8320308e-04  -6.4611646e-05  -1.9147428e-05   7.0555085e-05  -1.4590235e-04   5.9448426e-05  -7.8496036e-05  -1.7560834e-04  -1.5677947e-04  -3.9663668e-05  -1.1065255e-04   4.0097817e-05  -4.0902223e-06  -2.0575471e-04   1.5892682e-04  -8.6092396e-06   5.7382395e-06   3.4684836e-05  -4.6545429e-05  -1.6274467e-05  -2.2083618e-04   5.9021877e-05  -1.7457716e-04   1.6068523e-04  -9.0783033e-05  -8.7315544e-05  -2.2012753e-04  -1.9185894e-05  -1.2056217e-04  -1.1602900e-04   7.2536300e-06   2.3421620e-05   2.5632193e-05  -2.0537977e-04  -1.4072568e-04  -1.5244457e-04  -1.0682394e-04  -1.6357434e-04  -3.3311074e-04  -1.8181487e-04  -1.9837987e-04  -2.3222761e-04  -5.0976814e-04  -2.3787795e-04  -5.0571911e-05  -2.1106952e-04  -5.7771918e-05  -3.5701346e-04  -2.2789814e-04
  -2.4855530e-04  -1.6413516e-04   1.0086581e-04  -3.2739477e-05   1.6670128e-04  -1.1675752e-04  -1.6042766e-05  -1.0647877e-05  -3.9847090e-04  -9.4768075e-05  -3.9946412e-05  -2.1322705e-04  -7.8798963e-05  -3.9192455e-05  -1.9470821e-04   1.2425358e-04  -3.2630560e-05  -3.1898773e-05  -5.0270709e-04  -4.2644671e-05   1.4368566e-05  -7.1938717e-05  -1.7119310e-04   2.8083794e-05   2.1613778e-04  -4.5641386e-06  -1.4619826e-04  -1.2339719e-04  -1.4031937e-05  -1.0693756e-04  -6.1897234e-05   2.2169029e-04  -2.7353372e-04   4.4977824e-05  -1.4601252e-04  -2.3574766e-04  -1.7069354e-04  -5.4582619e-05  -1.5677112e-04  -1.4814040e-04  -1.5072832e-04  -3.0435872e-04  -1.9203364e-04  -5.1707600e-04  -2.3399625e-04  -9.7847886e-05  -2.0281198e-04  -4.0912619e-04  -5.6572416e-04  -2.1018441e-04
  -1.9325360e-04  -1.7735695e-04   2.8819994e-05  -6.4494889e-05   7.9449797e-05  -1.7401110e-04  -1.8625409e-05  -2.9991445e-05  -1.8864077e-04  -1.6913551e-04  -8.6505264e-05  -1.9079544e-04  -4.1956944e-05  -4.0171060e-05  -1.9388570e-04   1.4235069e-04   1.4128453e-05   3.4391458e-05  -1.8758606e-04  -6.1688144e-05  -3.9322869e-05  -1.4078889e-04  -8.8077519e-05   2.7707906e-04   1.8509767e-04  -2.3383449e-04  -5.6483932e-05  -2.7276141e-05   4.1442563e-05  -8.3782645e-05   7.4820695e-05   4.3239135e-05  -1.6031436e-05  -6.1515821e-05  -1.6549019e-04  -5.6326262e-05  -2.0903589e-04  -6.8635280e-05  -1.0086873e-04  -4.7631038e-05  -2.1863732e-04  -2.9689688e-04  -2.0036951e-04   3.2389900e-04  -1.7091641e-04   3.2721055e-05  -2.1460791e-04  -1.2783565e-04  -3.2509110e-04  -3.3154860e-04
  -1.2691467e-04  -1.4803286e-04  -5.4571890e-05   4.1269861e-05   1.5010308e-04  -1.6417919e-04   4.3026899e-05  -1.0164697e-05  -1.7550141e-04  -1.3348264e-04  -3.1182943e-05  -5.1505860e-05  -2.0852196e-05   1.7428443e-05  -1.6273024e-04   1.4969634e-04   2.4242530e-05   5.7828183e-05  -1.8373584e-04  -1.7783792e-05   7.3668225e-06  -2.2623173e-05  -8.4273292e-05   2.8536923e-04   3.5138326e-04   4.0900144e-05  -5.5722503e-05  -1.3936614e-04   1.5534904e-04  -8.5181448e-05  -2.6126851e-05   2.9595308e-06  -1.1684182e-05   6.2771338e-05  -1.9376937e-04  -1.2464593e-04  -1.6338441e-04  -7.3394149e-05  -1.7093908e-04   3.8267350e-05  -2.2013900e-04  -1.7813074e-04  -3.1739375e-05  -4.5046538e-05  -2.0755154e-04  -3.5267658e-05  -1.9847801e-04   3.0017010e-04  -6.1275740e-04  -2.9209591e-04
  -6.0359260e-05  -1.2841255e-04   1.1441318e-05   2.0079469e-05   1.2215806e-04  -1.0562399e-04  -3.1472457e-05  -2.6355516e-05  -2.2221779e-04  -1.1037581e-04  -3.7676343e-06  -7.9778438e-05   4.5145789e-05   3.1601026e-05  -6.9198039e-05   1.7957223e-04   7.8648380e-05   5.2752654e-05  -2.9297470e-04  -3.8808273e-07  -6.5455488e-06  -1.0699681e-04  -2.0299734e-05   6.0991914e-04  -8.4434498e-05  -1.0581587e-04  -1.1038187e-04  -2.4055606e-05   1.5180158e-04  -8.9948473e-05   1.1111389e-04   3.8104892e-05  -9.0029040e-05   3.0592553e-05  -1.1868900e-04  -8.1989790e-05  -1.2601588e-04  -5.2268479e-05  -1.4069441e-04  -1.4202735e-04  -1.2487924e-04  -1.7470955e-04  -3.7169943e-04  -7.6954882e-04  -3.4117556e-04   1.0223738e-04  -1.9305950e-04  -1.0129880e-04  -5.5940013e-04  -8.3894767e-05
  -5.3239972e-05  -1.3998654e-04   4.2550480e-05  -5.7180157e-05   8.7666769e-05  -1.3469538e-04  -3.8079339e-05  -9.0764945e-05  -2.6364718e-04  -7.9394951e-05  -2.7732089e-05  -1.5274915e-04  -3.7210943e-05   3.5144181e-05  -1.5639797e-04   1.7995726e-04   3.1371659e-05   5.2217223e-05   8.8348555e-05   1.1508044e-05  -2.3939421e-05  -1.5875848e-04   4.4712219e-06   2.4947908e-04  -2.5013028e-04  -1.4267470e-04  -6.4297303e-05   4.4215933e-05   1.4682139e-04  -8.8925473e-05   1.2835419e-04   5.6738907e-05   1.3709370e-04  -9.9476601e-05  -1.2358469e-04  -7.0786416e-05  -9.6298878e-05  -7.6227305e-05  -1.3203296e-04  -2.5705367e-04  -1.0910549e-04  -2.1651277e-04  -1.0412587e-04  -1.5549242e-05  -4.1129955e-04   4.4883296e-07  -2.4472675e-04  -1.6966449e-04  -3.7796990e-04  -1.9621121e-04
  -2.4299889e-05  -1.4800289e-04   1.2655613e-04  -1.0531733e-04   1.1667338e-04  -1.5580151e-04  -9.3952964e-05  -9.3642848e-05  -3.4542309e-04  -5.9709637e-05  -1.3054910e-05  -1.3742277e-04   2.8641784e-05   7.8661644e-05  -2.2304113e-04   1.8100390e-04   3.6173908e-05   6.3659994e-05  -2.5908594e-04   3.7490830e-05   1.3147984e-05  -1.1028557e-04   9.9571815e-05  -4.1401907e-04   1.7904176e-04  -1.2479551e-05  -1.7049922e-05  -8.1399521e-05   1.8035949e-04  -7.8870071e-05   2.6768894e-05   1.0524683e-05  -9.0635447e-05  -1.2153430e-06  -1.6241260e-04  -1.1512188e-04  -5.7469781e-05  -6.3641019e-05  -1.4143788e-04  -7.7359517e-05  -4.2691026e-05  -1.3931499e-04  -2.4880955e-04   8.9117966e-05   1.5696879e-04  -2.1322063e-05  -2.0105130e-04  -1.5773960e-05  -7.5895118e-04  -2.4019314e-04
   8.4497799e-05  -1.1312943e-04  -3.3976525e-05  -1.5916312e-05   3.2711047e-05  -1.8778507e-04  -5.5789369e-05  -5.6862627e-05  -6.8679081e-05  -4.5334840e-05  -1.9695904e-05  -1.4443295e-04  -5.8365546e-05   2.9782874e-05  -1.1633660e-04   1.7467861e-04   1.7542681e-05   4.4330500e-05  -1.3258545e-04  -1.0697945e-05  -1.0094984e-05  -1.2986570e-04  -2.4580373e-04   2.7646264e-04  -1.4536531e-07  -3.3331485e-04  -2.8727178e-05   4.5178291e-05   9.1185168e-05  -8.1685306e-05   3.4824414e-05   1.0731506e-04  -9.3016097e-05   1.4183585e-05  -1.4553763e-04  -7.3348696e-05  -7.8052683e-05  -6.5677094e-05  -1.2528064e-04   2.2238903e-05  -1.6389099e-04  -1.0814750e-04  -1.8311683e-04  -6.4159936e-04  -2.2144923e-04   2.4179766e-04  -2.4998613e-04  -3.1151983e-04  -2.4343499e-04  -1.4458784e-04
  -1.5144430e-04  -1.2101621e-04   1.7813641e-04  -5.5855904e-05   1.2275162e-04  -1.2433025e-04  -3.6167276e-05  -1.3254545e-04  -2.3356271e-04  -6.2029168e-05  -8.0069898e-05  -1.7243347e-04  -2.1364282e-05  -1.5033017e-05  -1.0477581e-04   1.5358871e-04   1.5741296e-05   8.6997250e-05  -3.9475260e-04  -5.1138786e-06  -6.7698464e-05  -1.0185081e-04   5.6245462e-05  -1.1668249e-04   5.6607469e-06  -1.0668542e-04  -8.1290309e-05   5.2277250e-05   1.6237049e-04  -8.9418456e-05   5.9805581e-05   7.9101774e-05  -2.4692234e-05  -3.5320791e-05  -1.6554173e-04  -7.3562865e-06  -9.0731693e-05  -3.0342562e-05  -1.3904649e-04  -9.5676107e-05  -1.0062027e-04  -1.9408653e-04  -2.1540848e-04   4.2378806e-04  -4.0448029e-04   5.3640411e-05  -1.8557059e-04  -1.5225593e-04  -4.4393662e-04  -1.3286535e-04
   8.2122569e-06  -1.1623518e-04   7.0295391e-05  -3.1799929e-05   1.4082961e-04  -1.6778531e-04  -9.8642486e-06  -1.1549125e-04  -1.5854927e-04  -4.6532103e-05  -7.5776836e-05  -1.8377807e-04  -4.9996484e-06  -3.5880912e-05  -9.2578637e-05   1.4520988e-04   1.0568212e-05   7.5148273e-05   6.3453495e-05  -1.2095242e-05  -5.3687705e-05  -1.6768089e-04  -3.2567797e-05   2.9725971e-04  -7.6205964e-05  -7.8682533e-05  -4.3848668e-05  -2.1146090e-05   1.2207970e-04  -8.7693683e-05   6.8326051e-05   1.7890957e-04  -5.5124179e-05   7.4609447e-06  -1.0986829e-04  -2.8473980e-06  -9.0271642e-05  -4.0336374e-05  -1.1892763e-04  -1.6278327e-05  -5.0718096e-05  -7.5643264e-05  -3.6531844e-04   2.1667268e-04   2.6574184e-04   6.1411512e-05  -1.9061186e-04  -5.4749276e-04  -2.3241091e-04  -5.1638440e-06
  -1.6746134e-04  -8.6948108e-05   4.9619575e-05  -1.3795629e-05   1.0989953e-04  -9.1574759e-05  -9.3441595e-06  -5.3595180e-05   5.2924912e-05  -5.1365107e-05  -5.7756242e-05  -8.6744512e-05   2.1499320e-06   2.5285795e-05  -9.4683972e-05   1.5088495e-04   3.7168909e-05   1.0500737e-04   4.3868935e-05  -3.2870557e-05  -6.0093043e-05  -9.3536597e-05  -2.7784692e-05   7.7837984e-05   5.7497524e-05  -1.2598804e-04  -8.7345070e-05   5.8357466e-05   2.0145476e-04  -8.1691112e-05   7.6379794e-05   2.4372799e-04   1.0109394e-04   3.8638282e-05  -1.7044728e-04  -3.2303662e-05  -6.3294552e-05  -3.5271867e-06  -1.2169455e-04   6.3553925e-05  -2.3203174e-05  -1.2544032e-04   5.7266443e-06  -6.7005603e-04   2.8845707e-05   2.2308296e-04  -1.6642830e-04  -5.8812671e-04  -1.4353853e-04  -4.2394760e-05
  -7.3264391e-06  -9.0853224e-05   4.3159023e-05  -2.8123764e-05   1.4963998e-04  -8.2790561e-05  -2.4509800e-05  -1.5528194e-04  -1.1594949e-04  -1.1614321e-04  -2.7605591e-05  -8.9457884e-05   1.0297606e-05   3.8619026e-05  -5.7825979e-05   1.7011023e-04   4.5918092e-05   1.2679541e-04  -4.6067405e-04  -1.0083245e-05   1.6115129e-05   7.1958326e-05   1.4979776e-04   3.2975190e-04   7.0088194e-05  -1.0922889e-04  -5.7030347e-06   4.8039630e-05   2.3964247e-04  -8.7789609e-05   6.8288689e-05   1.2883406e-04   2.7505340e-04   4.2159409e-05  -9.5094147e-05  -9.6820186e-06  -4.2944688e-05   2.7592112e-05  -1.1846645e-04  -1.0613899e-07  -9.8593795e-05  -8.4267907e-05  -2.3821554e-04  -2.7978819e-04  -2.7954468e-04   1.2414761e-04  -1.2870455e-04   1.8088514e-04  -4.4259569e-04  -2.4857723e-05
   1.0863231e-04  -9.1404152e-05   5.7197398e-05  -5.6849069e-05   1.1122711e-04  -1.3775560e-04   1.2308759e-06  -1.2024566e-04  -8.4771882e-06  -1.7729560e-04  -3.6522339e-05  -1.4477030e-04   3.3362052e-05   9.1227394e-06  -1.5083241e-04   1.6824694e-04   1.3823634e-05   1.0090707e-04   5.6473998e-04   2.2175613e-05   5.7872934e-05   6.2181612e-06  -1.2948480e-04   3.5679023e-04   1.8083480e-04   9.4815703e-05  -4.0866791e-05  -1.1600830e-04   1.4746778e-04  -1.2149211e-04   5.7902325e-05   2.5767265e-04   1.4743485e-04   4.5087891e-05  -2.6173881e-05   2.6311800e-05  -1.3198430e-04  -3.1972821e-05  -1.2216237e-04  -1.0769089e-04  -8.0578002e-06   5.5464893e-06   1.0141078e-04   1.4092664e-04  -7.8682082e-05  -8.7994944e-05  -1.1197528e-04  -2.1674286e-04  -9.1517395e-06  -1.3483049e-04
   2.9893181e-05  -4.8063466e-05  -2.7042110e-05  -2.9893985e-05   5.2761789e-05  -1.0129625e-04  -6.8059771e-06  -1.1484792e-04   3.9318646e-05  -1.6945560e-04  -2.9813747e-05  -3.5218949e-05   3.4133627e-05   2.5992208e-06   6.2231797e-05   1.6494447e-04   7.4217205e-05   1.1187095e-04  -2.9719016e-04   1.1285559e-06   4.7420268e-05   2.4978915e-05   3.9415114e-04   4.4491162e-04   2.5645751e-04  -2.8241141e-06  -5.3488853e-05  -1.9772415e-04   9.4340554e-05  -1.0393092e-04   9.5218013e-05   2.3397409e-04   3.1768746e-04   2.5733378e-05  -3.0088884e-05   2.4505327e-05  -6.6060267e-05   2.5933853e-06  -9.5284006e-05   3.7521495e-05   6.4194413e-05   3.8961982e-05   2.9136561e-05  -2.5284293e-04  -2.1643036e-04   1.6031358e-04  -1.8942319e-05   2.0713387e-04  -2.5765918e-04   3.8674651e-05
  -8.7899578e-05  -6.0588038e-05   7.7561919e-05  -1.8334233e-05   1.2457679e-04  -1.3723651e-04  -8.4128569e-06  -1.1333574e-04   2.2295767e-06  -2.5461559e-04  -1.6725455e-05  -4.9792470e-05   5.6435329e-05   4.1393432e-05  -6.6887878e-05   1.8724588e-04   1.1239471e-04   1.4764922e-04  -3.2586887e-04  -1.5902577e-05  -1.3516980e-05  -1.0574671e-04   2.0189793e-04   3.1463095e-04   3.9578572e-05   1.7710452e-05   1.2145494e-05  -3.4958225e-06   1.9454486e-04  -8.2232662e-05   1.2247706e-05   1.9826734e-04  -6.4625303e-05   1.5796217e-05  -1.9015130e-05   3.6024652e-05  -1.1048566e-05   3.1198171e-05  -8.5962180e-05  -4.7508831e-05   4.1561201e-05  -2.6413181e-05  -4.2135518e-05  -3.8648077e-04   1.1654694e-04   1.4781993e-04  -3.9435909e-06  -5.4877397e-05  -1.3258038e-04   5.1833646e-05
  -3.1614869e-05  -2.9221019e-05   1.1040802e-04   1.5545229e-06   1.5828450e-04  -3.3697208e-05   8.8942051e-07   3.6479989e-05   8.0487589e-05  -2.7664678e-04   1.8227704e-05  -2.5948675e-06   8.1414284e-05   7.8025289e-05  -4.6876452e-05   2.2245239e-04   1.1979308e-04   1.0084575e-04   4.2955112e-04   1.2637912e-05  -2.8405479e-05   2.2656217e-05   8.6577333e-05   1.9500690e-04   2.0553026e-04   2.7266620e-05   7.8548737e-06  -6.8035511e-06   1.2049844e-04  -9.4261901e-05   4.0703646e-05   1.7892948e-04   5.1888735e-05   2.6467618e-05  -4.9598118e-05   8.6629218e-05  -7.6052347e-06   4.2453616e-05  -5.2661147e-05   2.8719447e-05   4.2737705e-05  -1.1091289e-05  -2.5304069e-04   2.1433279e-04  -3.2317589e-04   3.4824610e-05   1.3128859e-07  -6.9459951e-05  -1.1469398e-04   1.6385547e-05
   9.5431460e-05  -1.2148726e-05   1.0906420e-04  -9.1605771e-06   1.7481935e-04  -8.1866558e-05   3.5652243e-05  -2.8244056e-05   1.5289377e-04  -2.5236540e-04   1.7380813e-05   1.7781160e-05   7.3799456e-05   1.0213105e-04   2.3231616e-05   2.1310690e-04   8.1099242e-05   8.7561362e-05   4.9285614e-04   4.1462583e-05  -5.5784745e-05   5.0671992e-05   9.1438784e-07   3.4349939e-04   3.3953620e-05  -9.4114810e-05  -1.9683628e-05   3.5805831e-05   1.5229142e-04  -9.9904741e-05   8.1962091e-05   2.7032790e-04   4.1863026e-05  -4.7468104e-05   2.0636037e-06   1.0643065e-04  -2.8822002e-05   4.3624459e-05  -8.8034387e-05   7.0268536e-05   5.0344468e-05  -4.9527873e-05  -1.9380402e-04   2.5815950e-04   6.3161213e-05  -6.9078531e-05   1.9580357e-05   1.3100036e-04   9.7320008e-05   2.9662124e-05
  -4.2267288e-06  -3.0405077e-05   1.1525302e-04  -4.6617864e-05   1.5447149e-04  -1.5547585e-04  -9.6430585e-07  -1.4395744e-05   1.0090502e-04  -2.4200180e-04   6.0839164e-05  -1.0367449e-04   1.3335695e-04   1.2753774e-04   1.0094880e-04   2.0420767e-04   8.2334140e-05   1.3400114e-04   9.3055249e-05   5.2875144e-05  -7.8767998e-06  -2.4828241e-05   4.1924501e-05   2.5276330e-04  -9.3969189e-05  -3.7670095e-05   5.7789393e-06   1.8431387e-04   1.7409737e-04  -8.6255779e-05   1.3771243e-04   1.7389342e-04   3.4394799e-04   1.8057990e-05  -3.0299561e-06   4.0749826e-05   3.8538048e-05   4.8456626e-05  -7.3193929e-05  -1.0169803e-05   2.0743861e-05  -6.6263688e-05  -3.1027303e-04  -9.0811396e-04  -1.3295597e-04   4.7438411e-05  -4.9238690e-05   2.9687793e-04   9.6223928e-05   2.0572022e-04
   6.2606057e-05  -2.2943104e-05   4.1012678e-05   5.3137854e-05   1.5439965e-04  -8.5292195e-05   6.8130386e-05  -1.1941234e-05   1.5290109e-04  -2.1802876e-04   6.9155467e-05  -6.8988884e-05   1.2939725e-04   1.6194599e-04   4.6518267e-05   2.3377289e-04   1.0504024e-04   9.6211916e-05   7.9696831e-05   5.3750220e-05  -2.8403122e-06  -2.0807813e-05   3.6141078e-05   1.6197135e-05   5.1359864e-05  -2.0131531e-04   5.2104110e-06   9.8354438e-05   2.4148644e-04  -6.9300033e-05   1.3575170e-04   2.3240660e-04   8.9924361e-05  -4.3228551e-06   1.9456689e-05   1.1222943e-04   8.1699960e-05   4.2100542e-05  -7.3900468e-05   9.6524836e-06   3.3283024e-05  -4.1944561e-05   1.5065157e-04   1.6211596e-04  -2.3952115e-04  -3.1329437e-05  -9.3352710e-06  -1.2987522e-05  -1.2968840e-05   1.3730145e-04
