  -8.4586884e-04  -1.1218181e-03  -1.2607342e-03  -9.4770303e-04  -6.8671664e-04  -9.1355207e-04  -7.5109827e-04  -8.5991068e-04  -8.3851535e-04  -1.3992696e-03  -7.7079044e-04  -5.2441150e-04  -6.4271560e-04  -7.5151195e-04  -5.0835649e-04  -3.0972162e-04  -6.2062265e-04  -1.1061657e-04  -4.3784690e-04  -7.0800784e-04   5.4265565e-04   4.4397737e-05   1.2792859e-04   1.1061055e-03  -1.8328245e-04   1.4458486e-04  -5.0074032e-05  -1.9686745e-04  -2.5061922e-04   3.6444988e-05  -2.6937481e-04   1.2186538e-04   4.7428726e-04   2.0853459e-04   1.7654996e-04   1.7649453e-04   2.5508603e-05   2.3853502e-04   2.3090132e-04   5.7989813e-04   2.8514574e-04   4.3656741e-04   7.7356945e-04   1.2627692e-03   2.9316940e-04   3.5676677e-04   1.1077302e-04   2.3221271e-04  -2.4080828e-04   6.5109669e-04
  -1.5886358e-04  -1.7970661e-04  -1.5440205e-04   1.7514491e-06  -3.8429149e-05  -1.0070387e-04  -6.5416214e-05  -1.9409611e-04  -1.0518273e-04  -1.0080548e-03  -2.0104853e-04   2.1328290e-04  -6.5968641e-05  -1.7622332e-04  -2.6057696e-04   2.2377515e-05  -2.3193369e-04   1.7465181e-04  -3.0253816e-04  -5.0237350e-04   6.2363932e-04   2.8171568e-04   2.6001861e-05   1.7449072e-03   1.0381990e-04   3.0420395e-04   1.5616701e-05  -1.9805261e-04  -3.1115513e-05   1.6846377e-04  -3.7471680e-05   2.2618059e-04   7.8203192e-04   1.6714141e-04   2.9713303e-04   3.6221481e-04   4.9667695e-05   3.6854955e-04   3.1492973e-04   3.3284811e-04   3.6736054e-04   4.3977489e-04   2.0873795e-04   2.8560846e-04   5.8462151e-04   7.3949038e-04   1.1339937e-04   4.1984153e-04  -8.8139721e-05   6.8113912e-04
  -1.8473700e-04  -3.0806632e-04  -4.0099994e-04  -5.4313659e-05  -1.8325832e-04  -2.6621655e-04  -2.4590676e-04  -2.5699878e-04  -1.5514498e-04  -1.1537616e-03  -2.6161832e-04   1.0901433e-04  -8.4997526e-05  -1.0640953e-04  -7.6880227e-05  -8.6174723e-06  -1.7849804e-04   1.8124562e-04  -6.1023824e-05  -6.6113245e-04   3.5177969e-04   1.9619896e-04  -1.5726667e-04   4.1866972e-04   4.3412638e-04   3.8791357e-05   8.0828351e-05  -2.9020663e-04  -7.1319279e-05   5.1060808e-05  -3.9102462e-05   1.3022887e-04   5.2911062e-05  -9.1377246e-05   7.5489159e-05   1.6149817e-05  -9.8275093e-05   2.1969917e-04   1.2498732e-04   8.0567130e-05   1.4606801e-04   2.9262071e-04   1.3905811e-06   5.5016438e-04  -6.7520660e-04   5.3652108e-04  -1.1596684e-04   5.9172085e-05  -5.1005103e-04   5.5672391e-04
  -5.4852216e-04  -7.4259035e-04  -7.2025968e-04  -3.8469650e-04  -4.9139000e-04  -6.9119735e-04  -6.0418405e-04  -5.9722562e-04  -5.1940611e-04  -1.4507934e-03  -5.7581579e-04  -2.6343242e-04  -4.6623274e-04  -3.9950467e-04  -3.6522449e-04  -2.4623459e-04  -4.8766346e-04  -3.5343641e-05  -6.6151604e-04  -9.2433754e-04   4.8679914e-05   9.1190639e-05  -4.9748214e-05   3.6270829e-04  -4.1540159e-04  -1.4554607e-04  -6.7199944e-05  -1.8817172e-04  -2.4867992e-04  -5.8806847e-05  -2.0230151e-04  -2.4732622e-05   3.0141926e-04   2.6677297e-05   9.7557349e-05   1.8595786e-04  -6.1249157e-05   3.4505382e-04   2.8693787e-04   6.6531345e-04   4.2616701e-04   4.4076072e-04   5.7871814e-04   1.6859930e-03  -9.5477742e-05   1.1392811e-03   9.0745300e-05   2.9413920e-04  -4.7208472e-05   8.9413719e-04
  -2.1953550e-04  -1.7316127e-04  -4.2250099e-06   1.1993768e-04  -8.2276165e-05   3.1098629e-05  -4.3702457e-06  -1.3024198e-05  -2.9923776e-04  -1.0077414e-03  -1.5206184e-04   2.3533145e-04   7.1629865e-06  -7.3998590e-06  -3.1913150e-05   6.4687825e-05  -2.3865061e-04   2.0364112e-04  -2.5607902e-04  -6.9995638e-04   3.4385567e-04   2.1634260e-04  -9.9757832e-05   1.9381548e-03  -6.4157080e-05   3.9840577e-04   1.0738454e-04  -5.1936950e-05   2.3286299e-05   2.2585969e-04  -1.3552520e-04   1.1805886e-04   3.1771633e-05   2.4012984e-04   3.0442548e-04   2.8594595e-04   1.5041019e-05   3.6091465e-04   3.7855812e-04   1.5175618e-04   4.6816308e-04   7.8779744e-04   6.8804243e-04   7.4061193e-04   6.9437738e-05   8.1255060e-04   1.3296085e-04   2.7568691e-04  -2.9144055e-04   8.4814517e-04
  -3.5668976e-04  -2.6268372e-04  -1.9850534e-04   1.5065414e-05  -9.2240029e-05  -1.4984835e-04  -5.6074652e-05  -1.1361783e-04  -1.9585955e-04  -1.0616676e-03  -2.6147836e-04   1.8699003e-04  -4.6534351e-05  -1.3822594e-04  -1.8724191e-04   5.3691125e-05  -2.0191992e-04   1.4002678e-04  -4.6739794e-04  -6.9440872e-04   2.0523572e-04   2.7401341e-04   2.3944957e-04   6.5548718e-04  -1.7800592e-04   5.4446404e-04   8.1230974e-05  -1.0555630e-04   3.3604614e-05   1.2839251e-04  -1.5436756e-04  -1.0969389e-04   5.3874729e-04   8.2494444e-06   1.3401702e-05   1.7352085e-04  -1.3738940e-05   2.5321395e-04   2.4134105e-04   3.1817020e-04   3.0146100e-04   4.2723800e-04   5.4693612e-04   5.3956517e-04   1.7918927e-04   6.5663655e-04  -9.1672984e-05   2.1018258e-04  -6.6342665e-04   4.3979430e-04
  -5.4427335e-04  -6.1725866e-04  -5.5377820e-04  -2.8568553e-04  -3.7498854e-04  -5.8958569e-04  -5.0188781e-04  -4.1043290e-04  -4.9415766e-04  -1.2920047e-03  -5.0690159e-04  -8.2819031e-05  -3.0118503e-04  -3.1047853e-04  -3.1665387e-04  -1.1254597e-04  -2.9870897e-04   1.6163438e-05  -4.2003821e-04  -8.1973616e-04   4.2545416e-05   2.8064201e-04   3.8684168e-04   1.0720219e-03  -2.1110721e-04   2.0878774e-04  -2.1980641e-05  -1.8433277e-05   7.9418060e-06   1.2765550e-04   3.2389253e-05   2.4223835e-04   4.0838015e-04   2.5399614e-04   3.8545887e-04   2.6482073e-04   8.2683153e-05   3.8205535e-04   4.1922141e-04   6.0002354e-04   5.1916402e-04   6.6493411e-04   5.4481189e-04  -1.6170299e-04   8.0251606e-04   9.9519605e-04   1.8649540e-04   5.9745484e-04  -4.1981559e-04   7.4957788e-04
   3.0367210e-05  -2.2147537e-05  -1.6122202e-04   3.0617736e-04   1.0994519e-04   8.8992427e-05   2.0527218e-06  -7.7639619e-05  -3.6886230e-04  -9.1447699e-04  -6.4187116e-05   3.6643894e-04   1.3158280e-04   8.1782593e-05   1.4487225e-04   1.2472039e-04  -6.5275344e-05   2.2169283e-04  -6.4614433e-04  -6.0039136e-04   1.2202105e-04   4.0050023e-04   2.1483077e-04   1.5429104e-03   1.1508047e-04   3.5951220e-04   9.2497365e-05   2.9362021e-05   1.1447648e-04   2.1403827e-04   1.7197707e-04   8.3457453e-05   3.0227247e-04   1.9583890e-04   3.0376768e-04   1.9685633e-04   1.2174781e-04   4.4051913e-04   4.6951845e-04   7.7699003e-04   4.7251667e-04   4.7129142e-04   6.3780037e-04   4.6688667e-04   3.3018903e-05   8.4820413e-04   4.1901203e-05   4.0945123e-04   3.6412177e-05   6.4065232e-04
  -2.2093927e-05  -1.5130029e-04  -3.2648200e-04   1.5902019e-04   8.5236243e-05  -1.0864584e-04  -1.3236131e-04  -1.6110492e-04  -1.2510628e-04  -9.5767382e-04  -1.6207216e-04   2.5234127e-04   7.6724420e-05   7.6693441e-06   1.0484186e-04   9.1640301e-05  -8.3119507e-05   1.3846972e-04  -7.5194705e-04  -6.0049980e-04  -2.2337741e-05   1.6240314e-04   6.5660344e-05   8.3677314e-04  -3.8644619e-04   1.1557656e-04   1.9510090e-04  -4.1881922e-05   5.7558668e-06   1.0831997e-04  -1.4955076e-04  -6.0842802e-05  -2.1854163e-05  -5.1033687e-05   7.0831280e-05   2.0695541e-05  -6.3411317e-05   2.0446513e-04   1.6888567e-04  -6.6218499e-06   1.6101848e-04   3.8233225e-04   2.4341521e-04   5.1101745e-04  -1.8998727e-04   6.2747148e-04  -2.6785099e-04  -5.7811581e-04  -2.5452205e-04   1.9913776e-04
  -6.5707992e-04  -6.4316322e-04  -6.8371790e-04  -3.2127439e-04  -4.9277500e-04  -5.8988511e-04  -4.9394753e-04  -5.2582513e-04  -4.6592209e-04  -1.1572728e-03  -4.5210202e-04  -1.0577891e-04  -1.7371700e-04  -1.9500898e-04  -2.1305223e-04  -5.7787147e-05  -2.4457450e-04   1.5583508e-05  -2.6442702e-05  -6.4718025e-04   7.2563751e-05   3.8109973e-04  -1.1820708e-04   9.2946936e-04   2.0031007e-04   2.8759681e-04   1.8704221e-04   2.2972916e-05   1.2319037e-04   2.6884110e-04  -2.8715727e-05   1.4583794e-04   2.1268152e-04   3.5675976e-04   3.7529803e-04   2.7807493e-04   2.3021446e-04   3.9312433e-04   5.1005429e-04   7.2050944e-04   6.1237422e-04   4.0824342e-04   7.7917916e-04   8.9311867e-04   4.1015414e-04   7.3772407e-04   1.0746392e-04   4.5583107e-05  -1.4941437e-04   6.5473618e-04
   1.2972899e-04   2.2857788e-05  -5.4070610e-05   3.2225181e-04   1.1809680e-04   2.0312331e-05  -2.9104822e-05   1.2763831e-04   4.7747122e-05  -7.1568025e-04  -1.0617248e-04   4.1403752e-04   5.5533539e-05   1.1440380e-04   1.0459247e-04   1.0631540e-04  -1.2282819e-04   1.5038579e-04  -5.9759687e-04  -6.3802884e-04   7.7071178e-05   1.4068089e-04   3.7877468e-04   1.0869739e-03   1.0490641e-04   2.8107053e-04   1.8811203e-04   2.5363714e-05   3.7221558e-05   2.2892062e-04   4.8537563e-06   1.0055923e-04   7.0142158e-04   2.9321463e-04   2.4608604e-04   2.8230369e-04   1.1989656e-04   3.7809700e-04   3.6579705e-04   2.2047125e-04   5.8971444e-04   6.0616061e-04   1.0983788e-03   5.7775040e-05   1.1713988e-03   6.4139278e-04  -1.8876057e-05   1.5457357e-04  -5.1214278e-04   4.9880170e-04
  -2.4446474e-05  -1.5504943e-04  -2.2836355e-04   1.3923655e-04  -4.9616770e-05  -2.4529279e-04  -1.5861820e-04  -1.0209106e-04  -2.0454296e-04  -7.3294353e-04  -2.5743144e-04   3.2723745e-04  -5.4032174e-05  -4.4124099e-05  -1.6754479e-04  -9.1286183e-06  -2.0715670e-04   5.5036951e-05  -5.8210769e-04  -8.1819383e-04  -1.3573209e-04   1.8300640e-04  -8.2782200e-05   8.7045686e-04  -7.6105277e-04   1.3894440e-06   5.9799968e-05   2.4422641e-05  -1.0736335e-04   6.0244849e-05  -2.8517953e-04  -5.1319217e-05  -1.9415391e-04  -1.2789505e-04  -9.6797681e-05  -1.4419545e-04  -1.0630078e-04   1.5772649e-04   1.7453595e-04  -1.1104390e-04   1.4170109e-04   1.8124675e-04   4.8588446e-04  -6.4810249e-04   3.0881501e-04   2.3001639e-04  -2.9525915e-04   1.6098045e-04  -2.1510775e-04   1.6169249e-04
  -1.9391502e-04  -6.3358480e-04  -6.1302929e-04  -3.2007939e-04  -3.7102099e-04  -5.3504220e-04  -4.7689749e-04  -5.3469016e-04  -2.8418706e-04  -8.1775890e-04  -4.3937439e-04   1.8994261e-04  -2.5071681e-04  -1.5178496e-04  -2.3897941e-04  -7.4123841e-06  -3.4172679e-04   9.7023491e-05  -1.4848837e-04  -6.4794935e-04   5.3678006e-05   2.1629022e-04   6.6665513e-04   6.1160186e-04   5.7797115e-05   1.2720277e-04   2.4563825e-04   3.7196794e-05   1.9964448e-04   2.8123075e-04  -1.2086553e-04  -1.0969669e-04   3.1184551e-04   3.7042898e-04   3.3624246e-04   3.1912923e-04   1.4682383e-04   3.4872050e-04   4.5000997e-04   7.9865870e-04   5.5273593e-04   6.0458254e-04   2.8427367e-04   1.4973388e-04   7.7025284e-04   7.5569656e-04   2.0522293e-05   4.5882029e-04  -2.4679158e-04   5.2591879e-04
   7.0686117e-05   9.4902382e-05   6.4272419e-05   3.6564047e-04   2.1134655e-04   1.3585226e-04   1.3330724e-04   9.2222203e-05   2.4537338e-04  -3.7477037e-04  -1.3399428e-04   7.1971450e-04   8.0161743e-05   1.1287377e-04   1.4846321e-04   1.1044232e-04  -1.8287542e-04   1.7024500e-04   2.0456202e-05  -5.5129838e-04   5.4937751e-05   1.8154773e-04   7.4823468e-04   1.3678912e-03   3.3473293e-04   1.5092081e-04   1.9369685e-04  -1.5379896e-05   2.1823787e-04   2.5757760e-04  -7.4442905e-05   2.8542837e-04   5.2015390e-04   2.7057671e-04   3.0494379e-04   3.2136834e-04   1.4913089e-04   3.7296908e-04   4.3346462e-04   2.4653992e-04   6.8635342e-04   6.1976496e-04   2.6954905e-04   4.8811978e-04   3.0145750e-04   4.9863028e-04  -6.1308115e-06   6.2532905e-05  -2.8486585e-04   3.6540887e-04
   3.4828870e-06  -3.2568492e-05  -1.7507000e-04   2.4094096e-04   6.5773624e-05  -6.7720444e-05  -5.6662047e-05  -1.2606654e-04  -3.1964821e-05  -4.2279687e-04  -2.1746803e-04   5.6743104e-04  -5.7862431e-05   4.3945354e-05  -1.0418431e-04   5.6344299e-05  -1.4969276e-04   1.0204075e-04  -3.1583130e-04  -7.5908180e-04  -1.3088984e-04   2.8631932e-04   1.3400106e-04   6.7385571e-04  -6.7828840e-04  -2.5515864e-04   4.4162247e-05  -2.2208026e-04  -9.9650701e-05   2.1469368e-05  -2.3433872e-04  -1.2041598e-04  -1.6823657e-04  -2.7488343e-06  -1.1652417e-04  -1.2391795e-04  -1.4162219e-04   1.7162989e-04   1.9637877e-04   8.4097090e-05   1.8177654e-04   4.2043105e-04   3.7444865e-05  -3.0425729e-04   6.6452492e-05   2.7379446e-04  -3.0473253e-04  -1.1110941e-05  -4.0895009e-04   1.9580166e-05
  -2.2851379e-04  -4.9379154e-04  -5.5545510e-04  -1.8012490e-04  -3.0717821e-04  -5.4789038e-04  -3.7227312e-04  -3.7961028e-04  -3.0766477e-04  -6.0294254e-04  -5.1503914e-04   3.5057974e-04  -2.5631089e-04  -2.4937539e-04  -1.5823613e-04  -8.8443812e-05  -2.5648635e-04  -6.4915483e-05  -3.8721770e-04  -6.4853206e-04  -9.1108686e-06   1.7795876e-04   5.0931080e-04   8.2317652e-04   1.0408843e-04   3.8393080e-04   5.1660154e-05  -7.3792384e-05   1.1227577e-04   1.9872430e-04  -1.7285613e-05   1.2527422e-04   1.7947628e-04   3.8002589e-04   3.2142521e-04   3.7793576e-04   1.4336300e-04   3.5148839e-04   4.4894475e-04   3.5950844e-04   6.5147853e-04   5.7119859e-04   1.5813969e-04   1.2391264e-04   6.5911462e-04   6.2362477e-04   4.2018273e-05   1.1147209e-04  -5.1371183e-04   5.1441317e-04
   2.5724396e-04   2.1475658e-04   1.2068903e-04   3.7249931e-04   2.6420903e-04   2.7930620e-04   1.8389219e-04   1.3672213e-04   5.5726367e-05  -1.4785565e-04  -1.3707649e-04   8.1502832e-04   6.7391222e-05   1.1765403e-04   8.3687402e-05   1.2288510e-04  -5.8311867e-05   1.4604686e-04  -3.0048945e-04  -4.6965532e-04   5.0422961e-05   1.4584999e-04   2.5718540e-04   1.3386592e-03   4.8592337e-04   1.9985180e-04   1.4539147e-04  -3.6534315e-05  -7.6043439e-06   1.8782300e-04  -4.1802705e-05   1.1133551e-04  -1.2503333e-04   2.9285043e-04   1.6769006e-04   2.1121310e-04   1.2553856e-04   3.2321343e-04   3.9775704e-04   5.4887845e-04   4.2672741e-04   7.9884264e-04   3.5678543e-04  -7.9632201e-04   7.7872130e-04   6.5884826e-04  -1.0337634e-04  -6.4921036e-04   2.1820584e-05   4.7376260e-04
   1.2160971e-04  -5.9382496e-06  -2.1925636e-04   2.1748774e-04   7.0121889e-05  -8.8557266e-05  -3.6065896e-05  -7.2028881e-05  -1.5603191e-04  -2.3173651e-04  -2.9027028e-04   6.5767841e-04  -9.2121809e-05   3.0205028e-05  -5.6976165e-05   3.2532662e-05  -1.8764551e-04   6.6527304e-05  -4.3132060e-04  -6.4752321e-04  -1.4039945e-04  -7.3782408e-06   9.3231800e-05   9.1173721e-04  -7.1693845e-05   1.1711910e-04  -2.0784604e-05  -1.1012960e-04  -1.4430877e-04  -6.1024450e-05  -4.4217191e-04  -1.7855734e-04   2.2817341e-04  -8.3957166e-05  -1.3643446e-04  -2.0416827e-04  -2.5412699e-04   5.4633347e-05   6.7859888e-05  -1.1786453e-04   2.4269382e-04   4.2542323e-04  -1.2372866e-04  -8.4628264e-04   3.8515188e-04   1.4057744e-04  -3.3674395e-04  -3.1260456e-04  -1.0151131e-03   5.0049366e-05
  -3.6849221e-04  -5.7014142e-04  -5.9754378e-04  -4.5139639e-04  -3.5477587e-04  -5.6198903e-04  -4.8058917e-04  -5.7229365e-04  -5.3809967e-04  -5.3153432e-04  -7.4394589e-04   1.3214714e-04  -5.4991967e-04  -3.6588442e-04  -3.0413386e-04  -2.6797448e-04  -5.3454045e-04  -2.4473591e-04  -5.4683635e-04  -9.8130433e-04  -3.7079389e-04  -2.4315542e-04  -8.5257803e-04   4.3918082e-04  -5.7465991e-04  -6.6799636e-04  -2.2935912e-04  -4.1634173e-04  -3.1670640e-04  -3.7432290e-04  -7.7381363e-04  -4.8235472e-04  -3.1455510e-04  -4.9959746e-04  -4.8261296e-04  -5.0998363e-04  -4.9660710e-04  -1.7002191e-04  -2.1629478e-04  -3.5006164e-05   2.6695928e-04   4.2582973e-04  -9.0611640e-05  -3.8572395e-04  -5.5232558e-05   2.5342838e-04  -1.9155562e-04  -1.8777800e-04  -1.0389271e-04   5.7175126e-05
  -1.0432663e-04  -1.0267121e-04  -1.4315906e-04  -4.0958079e-05   2.1228156e-05   8.4849104e-05  -2.0962352e-06   3.4643323e-05  -5.0576873e-05   5.8620491e-05  -3.1769648e-04   5.4795254e-04  -2.4973872e-04  -8.5245309e-05  -1.2291288e-04  -1.5960455e-05  -3.7779578e-04   8.9402802e-06  -7.6336472e-04  -7.0254429e-04  -4.3077180e-05  -5.0702914e-05   2.7927131e-04   9.6064131e-04   7.8686891e-05  -1.0836750e-04   1.0568237e-04  -1.9211652e-04  -1.6659820e-04  -1.4557931e-05  -3.9700535e-04  -2.4780653e-05   4.8013877e-05   9.0079615e-05  -1.3618711e-04  -1.8245350e-04  -2.1189003e-04   2.7094815e-05   2.1101465e-05   2.4361763e-04   2.7669911e-04   5.5977656e-04  -3.2912698e-04  -4.4107117e-04   1.3622260e-04   5.2141131e-05  -2.6405865e-04   2.1544674e-04  -4.4383123e-04  -7.2454546e-05
  -1.6393728e-04  -2.6063336e-04  -2.3128846e-04  -1.6396501e-04  -1.5557125e-05  -1.1486626e-04  -1.7061584e-04  -1.1278967e-04  -1.2933722e-04  -6.4077380e-05  -4.5076807e-04   4.9193943e-04  -2.1817045e-04  -1.8513411e-04  -1.8257280e-04  -6.6080996e-05  -3.3823305e-04  -6.2640749e-05  -3.3339750e-04  -8.0896902e-04  -1.7034792e-04  -1.0267405e-04  -2.9107390e-05  -4.5399257e-04  -4.5051132e-04  -2.2359571e-04  -9.8752462e-06  -1.8383034e-04  -1.7383276e-04  -1.2109106e-04  -3.2338832e-04  -2.7510102e-04  -2.1699992e-04  -1.9672398e-05  -2.8102723e-04  -3.2183644e-04  -3.1015172e-04  -3.7791084e-05  -1.0553517e-04   9.1505412e-05  -2.2559843e-05   4.4254377e-04  -2.6789829e-04   4.7976681e-04   2.7830063e-04  -4.8306683e-04  -4.0328316e-04  -7.3576160e-04  -3.2810905e-04  -5.1609031e-04
  -3.6014424e-04  -6.5034122e-04  -5.9325434e-04  -5.5274821e-04  -4.5233924e-04  -5.5083371e-04  -4.7214344e-04  -4.6660891e-04  -5.2049680e-04  -3.4055873e-04  -7.7189121e-04   9.9483761e-05  -5.4444006e-04  -3.8736209e-04  -4.1900389e-04  -2.5068832e-04  -4.5476065e-04  -2.1412980e-04  -5.6707690e-04  -1.0303670e-03  -4.7805626e-04  -3.1222636e-04  -4.3861833e-04  -2.7207515e-04  -1.1139142e-03  -6.7571539e-04  -2.1005813e-04  -2.3926682e-04  -3.2294626e-04  -3.4305520e-04  -7.2538288e-04  -3.4584643e-04  -4.1657261e-04  -4.5441714e-04  -5.2035338e-04  -6.0600153e-04  -4.5308960e-04  -2.3979422e-04  -3.5870678e-04  -4.6499807e-04  -3.8483075e-04   1.4443164e-04  -5.5492233e-04  -7.3583372e-04  -4.9972860e-04  -4.5267495e-04  -6.6426292e-04  -5.0573837e-04  -7.8427570e-04  -5.1010528e-04
  -6.5557205e-04  -7.0113450e-04  -5.5666367e-04  -3.8703211e-04  -2.3970653e-04  -2.0130542e-04  -2.4919334e-04  -2.5203219e-04  -2.4159875e-04  -1.7666032e-04  -5.0188805e-04   4.1172194e-04  -2.8309005e-04  -1.9688312e-04  -1.2180961e-04  -9.8746576e-05  -3.5243624e-04  -1.4495222e-04  -7.8422163e-04  -7.5938128e-04  -2.4313886e-04   5.0807466e-06   6.1858486e-04   6.4933003e-05  -2.8575139e-04   3.4620405e-06  -5.7178553e-05  -8.9122354e-05  -1.3605290e-04  -2.8282364e-05  -2.3162036e-04  -6.5571025e-05  -8.2160141e-06   2.9672114e-08  -4.9967817e-05  -2.3153373e-04  -1.8280456e-04   1.0093780e-05  -8.8109355e-06   4.1555038e-05  -1.2212862e-04   2.8784428e-04   2.3063496e-04   4.4388557e-04  -6.4861082e-04  -2.5842726e-04  -4.0931496e-04  -7.1872625e-04  -6.7738263e-04  -3.5573100e-04
  -2.3529126e-04  -4.5976019e-04  -4.2205871e-04  -3.7369831e-04  -2.0858897e-04  -3.8025895e-04  -3.1850170e-04  -1.9055794e-04  -2.5107429e-04  -2.2916602e-04  -5.4227409e-04   3.9202129e-04  -2.9496531e-04  -1.7521996e-04  -1.5927725e-04  -1.5861317e-04  -3.2388238e-04  -9.1210983e-05   1.5782745e-04  -8.0739293e-04  -4.2639038e-04  -2.1797328e-04  -1.6239544e-04  -2.9866543e-04  -4.4258600e-04  -2.6083810e-04  -5.7724137e-05  -2.0673948e-04  -2.7387188e-04  -8.4460808e-05  -3.9960328e-04  -6.2816842e-05  -1.0544487e-04  -6.4346146e-05  -3.0000380e-04  -4.3755223e-04  -2.7088387e-04  -4.2218366e-05  -9.0555892e-05   7.0918846e-05  -1.0121534e-04   1.5512861e-04  -3.7069956e-04  -1.1391003e-03  -5.7195395e-04  -1.7969878e-04  -5.3926010e-04  -4.3754710e-04  -4.3910759e-04  -2.3291173e-04
  -5.2253302e-04  -6.9681183e-04  -7.5106701e-04  -6.1225978e-04  -4.0253575e-04  -7.0568779e-04  -5.8398343e-04  -6.2156731e-04  -9.2585396e-04  -4.5846976e-04  -7.6658686e-04   6.9139060e-05  -4.4832160e-04  -3.4580805e-04  -3.8242023e-04  -3.1095336e-04  -4.2342252e-04  -2.6863336e-04  -1.0343072e-03  -9.9666498e-04  -6.4361456e-04  -4.4851372e-04  -2.4397997e-04   5.6117562e-05  -6.6772249e-04  -6.6040014e-04  -2.3780591e-04  -2.8899539e-04  -4.7629359e-04  -3.4334345e-04  -6.2734302e-04  -3.3924487e-04  -4.4594498e-04  -6.0029596e-04  -6.3238729e-04  -7.2439457e-04  -4.8903964e-04  -3.0138786e-04  -3.9652147e-04  -7.6850539e-04  -5.1520753e-04  -8.0212281e-05  -7.0205802e-05  -1.9852683e-04  -8.9481223e-04  -1.2874832e-04  -6.5125752e-04  -8.0868689e-04  -8.6147414e-04  -6.2183838e-04
  -3.8557622e-04  -6.4335886e-04  -7.3120120e-04  -4.3740938e-04  -2.3546242e-04  -3.0509144e-04  -3.3827260e-04  -1.9333075e-04  -1.5516614e-04  -1.9092037e-04  -4.1796005e-04   4.3427807e-04  -1.5298225e-04  -1.2456712e-04  -3.0682038e-04  -1.1944964e-04  -2.5282684e-04  -5.6112491e-05  -2.0259428e-04  -7.2086981e-04  -3.2938877e-04  -1.4874696e-04   9.3894036e-05   2.9401010e-04  -1.4603918e-04  -1.8926394e-05   3.5410681e-05  -8.6747576e-05  -2.4400087e-04  -2.3039034e-05  -2.4629047e-04  -1.9827871e-04  -2.6814931e-04  -3.8076807e-05  -2.2101209e-04  -3.7230275e-04  -1.6862512e-04  -6.1419043e-05  -2.0701993e-05  -7.4180462e-05  -1.1591775e-04   2.2491244e-04  -2.9349045e-04  -8.2376756e-04  -4.0363721e-04  -3.5735320e-05  -4.3402359e-04  -2.1900573e-04  -2.2702770e-04  -2.6079375e-04
  -2.8402050e-04  -5.2265881e-04  -6.4483198e-04  -4.6021555e-04  -2.6401298e-04  -4.3145928e-04  -4.7349956e-04  -3.0580958e-04  -4.9586751e-04  -2.6813048e-04  -4.8949831e-04   2.6874503e-04  -1.4957132e-04  -1.7126348e-04  -8.4756728e-05  -1.4207032e-04  -2.5077022e-04  -1.4063397e-04  -5.7150488e-04  -7.3506270e-04  -4.1141524e-04  -1.7962302e-04  -3.3425225e-05  -3.4372319e-04  -8.3085947e-04  -6.0331740e-04  -1.3345532e-04  -2.1219075e-04  -3.2567265e-04  -1.1697159e-04  -3.0010822e-04  -2.1557958e-04  -4.2036353e-04  -1.9934702e-04  -4.7293157e-04  -4.4864728e-04  -2.5523821e-04  -1.2318506e-04  -1.2800921e-04  -3.2277609e-04  -1.9335846e-04   1.3397686e-05  -3.4564556e-04  -3.2533667e-04  -4.8928137e-04   3.8712474e-06  -5.6789775e-04  -7.6562067e-04  -7.4552884e-04  -2.4973194e-04
  -4.6244430e-04  -7.6806411e-04  -8.2809193e-04  -7.0579955e-04  -5.1924179e-04  -7.4368436e-04  -6.8136619e-04  -6.5654970e-04  -7.1479159e-04  -4.9961207e-04  -7.7080267e-04  -8.1969316e-05  -4.4185674e-04  -3.4131575e-04  -4.2537745e-04  -3.4806307e-04  -4.4461444e-04  -3.1635788e-04  -1.0343808e-03  -1.0322005e-03  -7.3216960e-04  -5.3226308e-04  -7.3460070e-04  -1.2837087e-03  -9.7719731e-04  -1.0654421e-03  -2.3095534e-04  -4.8284631e-04  -4.5921540e-04  -3.4842687e-04  -6.2320917e-04  -6.0627447e-04  -6.1829609e-04  -6.5704045e-04  -6.7972922e-04  -7.5415667e-04  -5.3471164e-04  -3.2103740e-04  -4.1788147e-04  -7.9521403e-04  -4.3934662e-04  -1.5375866e-04  -8.1709761e-04  -9.5330930e-04  -4.7359077e-04  -2.9171089e-04  -7.0341572e-04  -9.4738818e-04  -6.8168319e-04  -4.3786142e-04
  -7.5602886e-04  -7.7327719e-04  -5.5969105e-04  -5.7829212e-04  -3.6521253e-04  -4.4774634e-04  -4.6194746e-04  -3.5744812e-04  -3.0270597e-04  -1.4369992e-04  -4.6840028e-04   3.4593293e-04  -1.0399821e-04  -1.0583275e-04  -2.2997674e-04  -1.6382290e-04  -2.1393129e-04  -1.2186444e-04  -8.3326106e-04  -5.8553519e-04  -3.6242025e-04  -5.8517631e-05  -1.5824726e-04   2.4656524e-04  -2.2782969e-04   5.1981981e-05  -1.9519837e-04  -2.0114766e-04  -1.8869046e-04  -2.6770560e-05  -1.9416813e-04  -7.1017428e-05  -2.3783320e-04  -5.3500812e-06  -1.9547531e-04  -2.7617387e-04  -1.5387195e-04  -4.3880525e-05   2.2825381e-05  -2.0335011e-04  -2.5304225e-05   3.3995099e-04  -1.2518829e-04  -4.6060525e-04  -2.3129939e-04  -5.3024254e-05  -3.0757312e-04  -5.7524617e-04  -6.4612745e-04  -1.1320965e-04
  -1.1179319e-04  -3.7674716e-04  -5.3455710e-04  -3.7249274e-04  -2.9286367e-04  -2.9814302e-04  -3.9153479e-04  -2.8198364e-04  -4.5151333e-04  -8.5208310e-05  -3.8207290e-04   3.2874741e-04  -7.0502407e-05  -1.4972489e-04  -1.0583048e-04  -8.6508364e-05  -2.3439899e-05  -6.7537265e-05  -1.6549247e-04  -5.2389270e-04  -3.8966638e-04  -1.8360314e-04   6.2165497e-04   2.2077753e-04  -1.1714317e-04  -3.5377807e-04  -1.0494038e-04  -3.5185859e-04  -2.0827248e-04  -7.1851551e-05  -2.0936508e-04  -9.3380084e-05  -2.3424492e-04  -1.5268243e-04  -2.3619429e-04  -2.6127920e-04  -2.3172447e-04  -5.4241107e-05  -6.9026428e-05  -2.6771371e-04  -1.2995089e-04   2.4382837e-04   5.9450027e-05  -1.2929774e-03  -3.7639140e-04   1.1704726e-04  -3.8911015e-04  -1.2465949e-04  -6.7820307e-04  -3.3571469e-05
  -4.2371341e-04  -6.2331802e-04  -7.1859243e-04  -6.0497556e-04  -5.4156914e-04  -7.5705827e-04  -6.5925560e-04  -5.3030084e-04  -3.3966321e-04  -3.0810284e-04  -5.9410610e-04  -2.6719061e-05  -3.2925664e-04  -2.9774918e-04  -2.4032961e-04  -2.5357580e-04  -2.1492394e-04  -1.6487764e-04  -1.1655830e-03  -7.4326067e-04  -6.0567597e-04  -3.9703687e-04  -6.8355631e-04  -1.0669165e-03  -7.6285581e-04  -6.7363254e-04  -2.4356335e-04  -4.3201740e-04  -5.0552096e-04  -2.9852518e-04  -4.5765162e-04  -2.3013914e-04  -2.5479854e-04  -5.4365670e-04  -6.0109288e-04  -6.4888637e-04  -5.4256833e-04  -2.5777976e-04  -3.6084582e-04  -5.2470370e-04  -2.9038853e-04  -1.5310777e-04  -1.1636176e-04  -4.2154745e-04  -3.6658466e-04   7.2463081e-05  -6.4519956e-04  -5.2800274e-04  -6.9980108e-04  -2.3192386e-04
  -7.4735010e-04  -9.4649789e-04  -8.0460211e-04  -6.9614785e-04  -6.1928370e-04  -7.4002444e-04  -5.9186545e-04  -5.4668705e-04  -2.7917221e-04  -1.3492710e-04  -4.4887900e-04   1.8997908e-04  -1.3716250e-04  -1.3825049e-04  -2.7606313e-04  -1.0579540e-04  -1.1557491e-04  -7.1573071e-05  -2.7597527e-04  -4.6752355e-04  -3.2049874e-04  -4.1743526e-05   5.8421923e-04   8.8963989e-04  -3.2349530e-04  -1.5144712e-04  -1.0976093e-04  -3.4730570e-04  -2.8325303e-04  -8.8807892e-06  -1.1810974e-04  -1.1120820e-04  -9.8442288e-05   6.8492959e-06  -2.1840424e-05  -1.4565920e-04  -1.6419633e-04   4.1665029e-05   6.5846580e-05   2.0731281e-04   1.7013410e-04   2.4163211e-04   3.3044018e-04  -5.8799662e-04  -4.7105920e-04   1.8073068e-04  -9.2529262e-05  -2.8901463e-04  -4.2169137e-04   2.3298510e-04
  -2.7316096e-04  -3.0635050e-04  -4.3909991e-04  -2.6992179e-04  -3.8198251e-04  -3.4484715e-04  -3.8802161e-04  -2.4374521e-04  -2.5174735e-04   5.4749740e-05  -2.1485343e-04   3.0049038e-04  -2.9115145e-06   1.1809412e-06  -1.2272790e-04  -4.7185164e-05   2.9982974e-05   4.3889791e-05  -1.4404091e-04  -2.8969179e-04  -2.7168894e-04  -4.7514655e-05   1.0034732e-04  -2.2616809e-04   1.0718764e-04  -3.2043585e-04  -1.4680380e-04  -2.4778204e-04  -2.5331281e-04  -4.9155529e-05   5.8711903e-05  -1.9055822e-04  -4.6526249e-05  -1.3309157e-04  -3.2521863e-04  -2.4914279e-04  -1.6177700e-04   3.7179721e-05  -5.3387397e-05   3.0190264e-05  -6.7330300e-05   4.6522002e-04  -6.6476634e-05  -2.3882944e-04   6.3732594e-05   2.8344244e-04  -1.5624746e-04  -2.2291992e-04   2.0647785e-04   2.6594053e-04
  -4.1340501e-04  -4.3945172e-04  -4.5031798e-04  -3.1533721e-04  -4.8497040e-04  -6.1753631e-04  -5.1965343e-04  -4.3277300e-04  -2.8769209e-04  -1.2928883e-04  -3.1490644e-04   5.0108149e-05  -1.9372079e-04  -2.0900938e-04  -2.1015557e-04  -1.6151404e-04  -4.1476971e-05  -9.5181029e-05  -3.2735677e-04  -5.0831249e-04  -4.4349901e-04  -3.7646163e-04  -4.5163350e-04  -9.5109211e-04  -6.8968063e-04  -7.8017672e-04  -2.0799135e-04  -3.6581760e-04  -3.3609912e-04  -2.4126520e-04  -2.7231083e-04  -3.0974051e-04  -4.7514643e-04  -4.6217296e-04  -4.9539353e-04  -5.0811784e-04  -4.4661146e-04  -1.2533783e-04  -2.5350106e-04  -6.1671867e-04  -1.7833279e-04   1.2487917e-04   3.3086014e-04  -9.9277764e-05  -8.0440812e-05  -1.9053573e-04  -3.2493813e-04  -2.7137672e-04  -3.9685133e-04  -1.9284460e-05
  -4.8296546e-04  -8.1190740e-04  -9.6142234e-04  -6.1498827e-04  -7.8209577e-04  -9.1737881e-04  -8.1054465e-04  -7.3888991e-04  -5.2740658e-04  -3.5996095e-04  -5.2743847e-04  -2.1404549e-04  -4.1726828e-04  -3.5778087e-04  -4.1459978e-04  -2.9325450e-04  -1.1840778e-04  -1.9095511e-04  -4.6627433e-04  -4.0832002e-04  -3.0320729e-04  -1.5811362e-04  -1.8958736e-04  -3.4737797e-05  -4.2118659e-04  -3.8620000e-04  -1.9371808e-04  -2.6069116e-04  -2.9608922e-04  -1.4085775e-04  -3.9718405e-05   6.6330707e-05  -6.1459497e-05   3.5261368e-05  -1.8193042e-04  -1.3145049e-04  -1.4343744e-04   5.9318147e-05  -7.4655800e-06   9.2369359e-05   1.5761028e-04   4.3345985e-04   7.1256468e-04   5.8107672e-04  -3.0949648e-04   3.0712382e-04   7.2252486e-05   2.0280782e-04   1.0776641e-04   4.5951409e-04
  -1.9773039e-04  -8.1829960e-05  -1.8090176e-04   3.1544594e-06  -3.5629718e-04  -2.2052080e-04  -2.6723830e-04  -2.0947681e-04  -3.4145294e-05   1.5905306e-04   9.8167460e-05   3.9707733e-04   2.0701923e-04   1.5929283e-05   8.1016797e-06   1.3480311e-05   1.5697972e-04   1.3984609e-04  -1.8562970e-04  -1.5593795e-04  -1.1237474e-04   6.3267827e-05   5.0087681e-04  -1.0350528e-04  -1.1248197e-04  -5.4770615e-04  -2.1672140e-04  -3.1533660e-04  -2.0460467e-04  -2.3714962e-05   8.8356333e-05   1.7888649e-05   5.2889398e-05   3.7033886e-05  -1.7970279e-04  -1.6233076e-04  -1.9684217e-04   6.4629472e-05   5.6177614e-05   3.3914588e-05   2.1752635e-04   3.6640672e-04   8.6009427e-04  -4.5685977e-04   6.9021503e-04   6.6676800e-04   2.1969886e-04   2.9488681e-05   2.5235483e-04   6.9341616e-04
  -4.7687543e-04  -2.9484890e-04  -3.2573129e-04  -1.2051458e-04  -4.6101506e-04  -3.6888607e-04  -4.2270627e-04  -4.3590437e-04  -1.8817426e-04   2.9792831e-05   6.4885811e-05   2.3230916e-04  -5.8353697e-05  -1.1076617e-04  -1.4980193e-04  -2.7325774e-05   9.8520977e-05   5.8372607e-06  -9.0330647e-04  -7.2540315e-05  -1.3998341e-04  -3.7834889e-04   2.1686797e-06  -3.3202494e-04  -2.0481476e-04  -5.6162360e-04  -3.1525196e-04  -4.9027149e-04  -4.7065530e-04  -2.5237663e-04  -4.2146403e-06  -1.7312488e-04  -4.2648113e-04  -1.9551322e-04  -4.6854516e-04  -4.3314666e-04  -4.4985561e-04  -1.4381389e-04  -3.6425007e-04  -2.7809761e-04  -1.7901271e-04   3.5389481e-04   1.3125225e-04  -5.8227405e-04   5.2319185e-05  -1.4796245e-04  -2.1898106e-05  -5.4637418e-04  -1.3363974e-06  -1.8402238e-04
  -3.3059684e-04  -3.8903521e-04  -5.4352148e-04  -2.8172790e-04  -5.2464713e-04  -5.9657590e-04  -5.4911990e-04  -5.2073761e-04  -1.8374812e-04  -7.0925431e-05  -7.6134260e-05   4.2090549e-05  -1.8984562e-04  -2.6551794e-04  -2.3275259e-04  -9.1056594e-05   5.7041030e-05  -7.6644719e-05  -7.3639036e-04  -2.1399025e-04  -2.2286162e-04  -1.9025758e-04  -4.5244658e-04  -9.6477737e-04  -6.6125626e-04  -6.9191767e-04  -3.5598225e-04  -5.1557767e-04  -4.0255333e-04  -4.2470969e-04  -1.6771688e-04  -3.6252223e-04  -1.6229450e-04  -5.2715564e-04  -5.4024043e-04  -5.4719480e-04  -5.2368239e-04  -2.1287156e-04  -5.3081941e-04  -5.2433496e-04  -2.7386582e-04   1.5311893e-04  -5.1820377e-04   1.7423001e-04   6.6543161e-04  -2.8440970e-04  -2.1917747e-05  -3.1597761e-04   2.0530997e-04  -3.7834188e-04
   3.4485929e-04   3.8906076e-04   2.6286987e-04   4.4851983e-04   1.8263519e-04   1.5075027e-04  -7.4210116e-06   7.6781544e-05   6.2593736e-04   4.8705519e-04   5.5001385e-04   8.3131832e-04   4.7912632e-04   1.5414000e-04   2.7630213e-04   2.7828681e-04   5.6437805e-04   2.5900098e-04  -5.5443292e-04   3.9604321e-04   3.3090907e-04   3.6254685e-04   5.3639186e-04   8.4903446e-04  -2.8104612e-04   4.1834082e-04   3.1279695e-05  -1.9098024e-04  -9.3234281e-05  -1.4395006e-05   3.6431258e-04   1.5097087e-04   3.8528541e-04   4.7741418e-05  -1.8903676e-04  -1.7435315e-04  -1.1647584e-04   1.3860654e-04  -5.7566849e-05   1.8486221e-04  -1.2183069e-04   1.3052727e-04  -3.6128075e-04   9.5069321e-04   5.6127913e-04  -2.0450602e-04   5.3714852e-05  -3.2958959e-04   1.5248283e-04  -4.5414249e-04
   5.9038302e-04   5.5560429e-04   3.8667372e-04   5.8563956e-04   2.6027669e-04   2.1320170e-04   9.4017283e-05   1.5126205e-04   4.8103175e-04   5.7218841e-04   6.3914037e-04   7.9944025e-04   5.1770633e-04   2.7898734e-04   2.2823545e-04   3.6022087e-04   6.9315388e-04   3.0833442e-04   3.1755064e-04   4.5518871e-04   3.0173582e-04   3.7867110e-04   5.8294198e-04   7.1218814e-04   2.7906918e-04   2.1699417e-04  -4.8461974e-05  -2.4400848e-04  -6.1489969e-05  -6.0455433e-05   3.1190645e-04   1.9281993e-04   1.1256772e-04   2.5034635e-05  -1.4555508e-04  -1.8359561e-04  -1.5624313e-04   8.8276764e-05  -1.7522729e-04  -1.6433209e-04  -2.7461236e-04  -4.4811168e-05  -5.0468225e-04  -6.0467498e-04  -2.9781403e-04  -4.6313315e-04  -3.9371454e-05  -7.3388423e-05   2.0909158e-04  -5.4816221e-04
   6.0897105e-04   2.2194530e-04   3.1848517e-04   2.2429549e-04  -3.1901145e-06  -2.2337794e-04  -2.1896700e-04  -2.2584038e-04   3.5317027e-04   3.1528441e-04   3.4664263e-04   3.8735539e-04   2.1537558e-04   4.2903219e-05  -9.2489805e-05   2.2601319e-04   4.6055246e-04   1.5445997e-04  -4.4364718e-04   2.5024978e-04   7.3425603e-05  -9.2130220e-05  -3.8792813e-04  -6.1024213e-04   2.4210512e-04  -1.3504161e-04  -2.1417979e-04  -3.3491760e-04  -2.5814062e-04  -3.2500864e-04   3.3501445e-05  -1.5177605e-04   1.5243675e-04  -3.1183779e-04  -2.9383646e-04  -5.1241583e-04  -4.5469857e-04  -8.1385981e-05  -4.9140531e-04  -9.8907156e-05  -5.0354266e-04  -2.9265007e-04  -4.5763075e-04  -2.9975473e-04   3.9133578e-05  -7.5792772e-04  -1.1630961e-04  -8.0068363e-04   2.2884323e-04  -8.0352032e-04
   3.1356944e-04   1.8213505e-04   4.1437088e-04   3.4338402e-04   7.7916076e-05   1.3288109e-04   1.6267662e-04  -7.1310438e-05   6.3428259e-04   5.4948812e-04   5.4014561e-04   6.3952093e-04   4.3965873e-04   2.1466261e-04   1.6184227e-04   3.6705952e-04   6.6932751e-04   3.5293231e-04   2.7495509e-04   4.4634263e-04   3.8002120e-04   2.0583597e-04   4.7684237e-04   3.8142983e-04  -2.0414409e-05   5.0853755e-06   1.4392520e-05  -9.7542688e-05   4.7454287e-06  -2.7367641e-05   4.5725773e-04   4.3516315e-04   4.3437950e-04   2.7586921e-04   4.1361112e-05  -1.9830969e-04  -8.8299174e-05   2.3161588e-04  -5.5557608e-05   3.5909127e-04  -3.2243213e-05   1.6390356e-04   3.0797953e-04  -6.8975933e-04   5.2205723e-04  -5.7084556e-04   1.7807125e-04  -5.5975915e-04   2.1244775e-04  -5.3932023e-04
   8.1681658e-04   5.7543319e-04   5.7435915e-04   5.9386541e-04   3.7359589e-04   2.7262274e-04   1.9813518e-04   2.2467379e-04   7.9551747e-04   5.9773715e-04   6.2975177e-04   7.0227258e-04   5.3954340e-04   2.9489631e-04   1.7706928e-04   5.0600799e-04   7.6939480e-04   4.2423583e-04   5.9178896e-05   4.9976178e-04   3.3558990e-04   4.0449903e-04   5.7420466e-04   6.6167250e-04   7.0446596e-04   1.5257367e-04   1.3276087e-05  -1.0809081e-04  -5.2696592e-05  -3.4611676e-05   3.8492607e-04   4.0662615e-04   4.6293039e-04   2.1876242e-04  -6.1462131e-05  -4.7122230e-05  -2.0536038e-04   2.1896145e-04  -7.7263030e-05   1.6186408e-04  -1.8190393e-04   6.0580263e-05  -5.2681740e-04   3.6282293e-04   5.0122087e-04  -3.7300700e-04   1.7730620e-04  -2.6968154e-04   6.0598395e-04  -6.2564685e-04
   6.1915914e-04   4.1788333e-04   4.2765622e-04   4.3135922e-04   8.0553313e-05  -2.3180275e-05   1.5762391e-05  -3.9154365e-05   4.0274544e-04   3.8095750e-04   4.0418530e-04   4.8482869e-04   3.0936912e-04   1.7996428e-04   1.3392736e-04   3.2740962e-04   6.6823862e-04   2.9690444e-04  -4.7187210e-04   3.2583822e-04   1.3862470e-04   8.3049072e-06   1.5842901e-04  -3.5131877e-04  -5.2125481e-05   5.4253983e-06  -2.6873393e-05  -3.1067600e-04  -8.3468134e-05  -1.9182818e-04   3.0653487e-04   4.4892390e-06   1.9609607e-04  -1.2755352e-04  -2.7021556e-04  -2.5469728e-04  -3.3034608e-04   5.2732026e-05  -3.0988947e-04  -2.3324869e-04  -4.3955661e-04   1.1347659e-04  -3.5822287e-04  -3.3157389e-04  -5.2791578e-04  -5.9817696e-04  -6.7889464e-06  -8.2141359e-04  -4.8010188e-04  -8.3170790e-04
   4.6139915e-04   1.0017768e-04   2.9459922e-04   1.4622076e-04  -1.4022968e-04  -2.7509668e-04  -2.0451689e-04  -2.6003527e-04   5.7552004e-04   2.9122998e-04   3.2014112e-04   3.6074730e-04   3.5973630e-04   1.3163181e-04  -1.1941570e-04   3.8800490e-04   7.2143285e-04   3.1926710e-04   7.1921537e-04   5.0596026e-04   3.5160681e-04   3.8703199e-04   6.0448423e-04  -1.5346105e-04   4.4361351e-04   5.0059613e-04   1.4805024e-04  -1.6357699e-04   6.1396975e-05   6.2250823e-05   5.1043124e-04   4.4201230e-04   4.3971371e-04   2.9725931e-04   8.5148473e-05   5.5771088e-05  -4.9061823e-06   3.0953108e-04   4.7028738e-05   5.2407628e-04   1.2075317e-04   3.5554991e-04  -2.0919611e-04   1.7781034e-05   5.0979696e-04  -5.0535906e-05   2.4847579e-04   4.1429797e-04  -1.3509841e-04  -3.4535635e-04
   9.4026548e-04   6.5075228e-04   5.8787642e-04   6.4452610e-04   3.6308536e-04   3.2140344e-04   2.2291434e-04   2.1652033e-04   8.5472100e-04   5.2149460e-04   6.2356680e-04   6.7161361e-04   5.8715994e-04   3.3191664e-04   1.5944263e-04   5.1045511e-04   8.5183122e-04   4.8399286e-04   3.0001378e-04   6.0158619e-04   3.6896972e-04   4.4468816e-04   1.0059531e-03   5.4501247e-04   6.3247353e-05   3.8905957e-04   1.6674137e-04  -3.8401718e-05   1.7025066e-04   8.2206912e-05   6.6778134e-04   4.2038836e-04   6.7290501e-04   3.5170480e-04   1.5189213e-04   5.0541923e-05  -1.6561497e-05   3.5041745e-04   1.0927104e-04   3.2302638e-04   8.0955078e-06   1.4197463e-04  -3.7711274e-04   1.3174357e-04  -1.5023598e-04  -1.2835521e-04   3.2355636e-04  -4.9071782e-04   3.1853811e-04  -2.8564362e-04
   8.1011857e-04   5.9384672e-04   6.0497998e-04   6.4822327e-04   3.4892178e-04   2.0623233e-04   1.0753576e-04   1.5312708e-04   6.5058807e-04   4.3047371e-04   5.5137003e-04   6.0990709e-04   5.1390787e-04   2.7240909e-04   1.9146720e-04   4.8222943e-04   8.5479015e-04   3.6667363e-04   2.5695484e-04   5.1677320e-04   2.3659409e-04   2.9266451e-04   2.7517043e-04   4.4575529e-04   5.1660922e-05  -1.4210915e-05   9.0708461e-05  -5.9849230e-05   5.2957406e-05  -6.1419407e-05   4.1611129e-04   3.6630515e-04   2.5410199e-04   6.9657042e-05  -6.6450993e-05  -1.7838296e-04  -1.8498347e-04   1.8954928e-04  -3.6562025e-05   1.5706527e-04  -1.6939871e-04  -1.2404087e-04  -1.2509243e-04  -8.2780920e-05   4.8435264e-05  -5.3521461e-04   2.1938323e-04  -7.7168702e-04   2.2995494e-04  -5.5508071e-04
   5.6364975e-04   2.9424846e-04   5.0751236e-04   3.1752154e-04   5.2940009e-05  -1.2583182e-04  -8.3655592e-05  -2.8294162e-05   5.0497334e-04   2.8709255e-04   3.7782660e-04   4.8767030e-04   4.7427506e-04   2.0895961e-04   1.2127610e-04   4.4932778e-04   7.9606567e-04   3.7425914e-04   7.8625145e-04   6.1296456e-04   3.4339097e-04   4.1407414e-04   4.4572158e-04   5.4207001e-05   2.5306450e-04   3.2973516e-04   1.5567891e-04   3.1750948e-05   1.4527034e-04   1.8834190e-04   7.4205163e-04   6.0609949e-04   4.7245485e-04   4.6948224e-04   3.2393693e-04   1.7847060e-04   1.5751988e-04   4.3252253e-04   2.5688941e-04   7.1394106e-04   1.2356855e-04   1.5378995e-04  -3.4369330e-04   2.1247222e-04   6.7976257e-04   1.4931511e-04   6.2061055e-04   1.6396151e-04   1.2108855e-04  -4.0891769e-05
   1.1242018e-03   9.1712538e-04   9.6890732e-04   8.9664431e-04   5.8694044e-04   5.3710438e-04   4.7869887e-04   4.5318517e-04   1.2314989e-03   6.7478989e-04   8.7951013e-04   9.3151577e-04   9.2230225e-04   5.6605885e-04   3.1389706e-04   6.3931756e-04   1.0863395e-03   5.5946835e-04   8.6382206e-04   7.8982377e-04   4.9408816e-04   5.5765675e-04   6.3392019e-04   1.1287798e-03   7.4403768e-04   3.5453512e-04   2.4241515e-04   1.8062441e-04   3.8579220e-04   2.5909382e-04   9.5479522e-04   6.8351382e-04   7.1150687e-04   4.8622885e-04   4.4199231e-04   1.3636150e-04   2.4659612e-04   5.1805057e-04   3.3144018e-04   5.3966173e-04   2.6353128e-04   2.6106363e-04   3.4841153e-04  -4.4812790e-05   4.8647518e-04   3.4867524e-04   6.6191953e-04   2.8898791e-04  -2.9663116e-07  -4.0549254e-05
   1.1419450e-03   8.0504303e-04   8.1795821e-04   8.7330840e-04   4.9813732e-04   3.5885946e-04   3.5158341e-04   2.0086441e-04   6.7459309e-04   5.8383617e-04   8.3046948e-04   7.7483139e-04   7.9563283e-04   4.9815647e-04   4.7387285e-04   5.7848898e-04   9.9728594e-04   5.3398742e-04   1.6551635e-04   6.7598338e-04   3.4333830e-04   5.3355703e-04   4.6142560e-04   5.2605872e-04   3.3186944e-04   1.7222995e-04   1.2101534e-04   9.0784102e-05   2.0937230e-04   1.3227014e-04   6.4551563e-04   5.9149595e-04   2.9303457e-04   2.4875687e-04   1.2932569e-04   1.5643811e-04   1.4664220e-04   3.8634785e-04   1.6553026e-04   2.3926987e-04   6.8952359e-05   5.9962935e-05  -1.4072300e-04   1.9475451e-04   4.5987920e-04   3.1938453e-04   4.9828249e-04  -1.9882852e-04   4.7058460e-05  -2.9807683e-04
   1.0186763e-03   4.7727319e-04   7.9337670e-04   5.6942250e-04   1.7680426e-04   3.4244752e-06   8.0797727e-05   1.3282865e-04   5.7978748e-04   3.4241000e-04   5.7983509e-04   5.3443573e-04   5.6967628e-04   2.9263503e-04   2.9090379e-04   4.2485303e-04   8.2412653e-04   4.1421084e-04   2.7837898e-04   5.3216575e-04   2.4734551e-04   3.1020551e-04   3.5894418e-04   8.1146759e-04   2.8083622e-04   1.8013996e-04   2.5654497e-04   1.4519655e-04   1.7641736e-04   1.1927632e-04   8.9386140e-04   7.3458481e-04   8.0044824e-04   4.7859739e-04   3.9090205e-04   2.9814881e-04   2.8330609e-04   5.8064755e-04   3.9884949e-04   5.8427168e-04   2.7339297e-04   3.4779860e-04   4.6159318e-04   1.6747860e-04   4.5744958e-04   4.0104703e-04   8.1633602e-04   1.0780243e-03   6.0328073e-04   1.4423764e-04
   1.5093158e-03   1.0765975e-03   1.2296803e-03   1.1281384e-03   8.2817330e-04   7.2249462e-04   6.6586060e-04   5.5968575e-04   1.0866761e-03   8.8690483e-04   1.1756606e-03   1.1516158e-03   1.1961756e-03   7.5913325e-04   6.4145261e-04   7.5203227e-04   1.2556916e-03   6.7473308e-04   4.6152496e-04   1.0671780e-03   6.7739561e-04   8.5234310e-04   5.3239276e-04   8.4530126e-04   1.2590546e-03   1.1486606e-03   3.5088818e-04   3.6208640e-04   4.0182815e-04   3.8309861e-04   9.9066587e-04   1.0628786e-03   8.7053789e-04   7.2864728e-04   6.0564029e-04   4.6433651e-04   4.4385405e-04   7.0656009e-04   4.8523539e-04   9.2165131e-04   3.2758364e-04   3.4527649e-04   5.7032786e-04  -3.3412926e-04   3.1928922e-04   6.3004129e-04   1.0101247e-03   4.4494640e-04   6.4795162e-04   2.5460709e-04
   1.5303697e-03   1.0589180e-03   1.2940055e-03   1.1682264e-03   7.0000801e-04   6.5165944e-04   5.8860861e-04   4.6556321e-04   9.2893437e-04   8.0946571e-04   1.1240891e-03   1.0854662e-03   1.1146911e-03   6.9765217e-04   5.9628853e-04   6.7448342e-04   1.2684745e-03   7.1005657e-04   6.6023885e-04   1.0653165e-03   5.8479654e-04   7.8160572e-04   7.2380743e-04   1.1344732e-03   4.2473149e-04   6.2864233e-04   3.3870473e-04   3.8818989e-04   4.3352591e-04   2.9969911e-04   1.0333220e-03   7.2628359e-04   7.3747436e-04   4.5487695e-04   4.1773831e-04   2.6034770e-04   2.7605944e-04   5.8157602e-04   3.7277563e-04   5.6235760e-04   2.0892450e-04   2.3524369e-04  -2.3402898e-05   7.5606565e-04   3.1477760e-04   6.2203821e-04   8.5860933e-04  -6.9488953e-05   2.8666135e-04   7.8948229e-05
   9.8244124e-04   6.7801640e-04   7.0462975e-04   7.7686540e-04   4.8199508e-04   2.7990967e-04   2.6561131e-04   3.1324907e-04   7.2472077e-04   5.0637469e-04   8.4464985e-04   7.1800087e-04   9.0893608e-04   5.4273632e-04   3.4105455e-04   5.1437644e-04   1.0717785e-03   4.9002812e-04   4.5449569e-04   8.1212126e-04   3.8508992e-04   6.0460606e-04   3.6886107e-04   6.6227332e-04   7.4308045e-05   3.3127249e-04   1.5233341e-04   2.9384435e-04   2.1336567e-04   8.5662527e-05   8.3948055e-04   6.1920495e-04   6.9690694e-05   1.0777768e-04   1.5202825e-04   1.3648612e-04   1.3431269e-04   4.4725960e-04   1.3403963e-04  -1.4463492e-04  -1.2643469e-04  -8.0779850e-05   1.2068872e-04  -9.6699811e-04   5.2281830e-05   1.9945830e-04   5.7424419e-04  -2.3501048e-05   1.5160098e-05  -2.5634046e-04
   9.0501079e-04   3.1829908e-04   5.2812789e-04   3.7166986e-04  -2.2858769e-05  -2.0040724e-04  -1.2339439e-04  -1.1283209e-04   2.7457779e-04   1.9801137e-04   5.0519366e-04   3.6884108e-04   5.9810036e-04   2.9817238e-04   2.8904260e-04   3.4033955e-04   9.2837616e-04   3.4967525e-04   2.0733295e-04   7.8051572e-04   3.9649446e-04   5.5091217e-04   1.1535250e-03   2.6987266e-04   2.8018141e-04   7.3260488e-04   3.1524705e-04   3.8329142e-04   4.2253785e-04   2.1445047e-04   9.2327636e-04   5.2643841e-04   6.5638305e-04   5.4461387e-04   5.1460823e-04   3.9569635e-04   4.2128138e-04   5.9426104e-04   4.5402776e-04   7.3873019e-04   3.5597224e-04   2.9120981e-04   7.8325793e-05   1.0116308e-03   7.9144700e-04   4.8334547e-04   1.0237063e-03   5.3498946e-04   6.4472872e-04   2.8854230e-04
   1.5752463e-03   1.0931289e-03   1.2347398e-03   1.1021615e-03   7.3780509e-04   7.7801064e-04   7.0125709e-04   6.0207571e-04   1.0675305e-03   8.1834052e-04   1.2066718e-03   1.1306289e-03   1.2537731e-03   7.2017260e-04   6.5928150e-04   7.0216402e-04   1.2266384e-03   6.8131922e-04   9.0072124e-04   1.1468306e-03   7.0763077e-04   8.8389835e-04   5.0576928e-04   8.6858799e-04   4.7120987e-04   7.8694895e-04   3.3669191e-04   5.1434175e-04   4.7865260e-04   3.7959841e-04   1.1965237e-03   8.2241505e-04   8.9977123e-04   6.2234176e-04   6.9790706e-04   4.3293723e-04   5.3970621e-04   7.4291922e-04   5.7404098e-04   6.1119953e-04   3.5145672e-04   3.9000137e-04   3.7123053e-04   3.7845323e-04   1.0607210e-04   8.1815262e-04   1.0714820e-03   2.5817377e-05   6.4000185e-04   3.3099289e-04
   1.3456980e-03   1.0552563e-03   1.2132361e-03   1.0427302e-03   7.2272390e-04   5.3238176e-04   4.8316826e-04   4.7957609e-04   8.8611641e-04   7.2529464e-04   1.1127491e-03   1.0414663e-03   1.2139799e-03   6.9502124e-04   6.9519191e-04   6.1126036e-04   1.2609138e-03   5.8387697e-04   7.3037349e-04   1.0667524e-03   5.4330553e-04   7.2313298e-04   6.3998176e-04   5.8249285e-04   1.7213018e-04   4.9701205e-04   2.7445497e-04   3.5411821e-04   3.3841352e-04   2.3788147e-04   1.0679072e-03   6.4318097e-04   6.3601747e-04   2.5858553e-04   2.9969125e-04   1.7793130e-04   3.8829169e-04   6.2164554e-04   3.5227544e-04   5.7795394e-04   5.2959698e-05   2.0391885e-04  -3.4995258e-04   1.0637862e-03   4.6738490e-04   4.9780100e-04   8.2708738e-04  -8.9260066e-05   4.9716397e-04   2.9555385e-05
   9.4677031e-04   6.2579842e-04   8.3363953e-04   6.7084795e-04   2.3448924e-04   9.1671805e-05   1.2591213e-04   1.1856634e-04   4.9145095e-04   4.3011911e-04   7.9917192e-04   6.4510055e-04   9.0576307e-04   4.9875048e-04   5.6782394e-04   4.5370174e-04   9.9697663e-04   4.1487542e-04   1.0737309e-03   8.1103604e-04   2.9020233e-04   6.1173213e-04  -3.8131561e-06   2.7520089e-05   1.1200868e-04  -6.1721308e-05   1.7989596e-04   3.9485426e-04   2.3781047e-04   2.5792553e-05   6.5930880e-04   3.5404071e-04   4.0911118e-04  -2.7959810e-05   1.0942911e-04  -1.1042576e-04   2.0727307e-04   4.1551888e-04   1.5661099e-04  -1.0698844e-04  -2.5593615e-04  -6.2759675e-05  -4.5863888e-04   2.6870432e-04  -2.8499236e-04   1.7362260e-04   5.6792202e-04  -1.4014283e-04   2.5543527e-04  -2.2318913e-04
   7.2279363e-04   2.1909823e-04   9.7349272e-05   2.2962484e-04  -1.5422677e-04  -3.1832213e-04  -2.4504421e-04  -1.1340463e-04   1.8441964e-04   9.1002505e-05   3.9672825e-04   1.8286459e-04   5.4204889e-04   2.0293846e-04   4.2139489e-04   2.2446705e-04   7.9800538e-04   2.3388211e-04  -1.0271167e-04   6.7317695e-04   2.7506752e-04   5.5676297e-04   6.4429990e-04  -1.0640366e-04   5.9404399e-04   3.3145919e-04   2.1098126e-04   3.4007881e-04   2.4579765e-04   1.3996749e-04   8.7014516e-04   5.1478494e-04   3.8503637e-04   3.0657169e-04   4.5246709e-04   2.6899623e-04   3.8294226e-04   5.8992364e-04   4.9763796e-04   5.7821767e-04   1.9970955e-04   2.4591453e-04  -7.9200996e-05   1.0195404e-03   7.0870051e-04   6.3914678e-04   8.9960103e-04   2.1484468e-04   4.5343506e-04   2.5843279e-04
   1.0010256e-03   9.6491067e-04   1.0141354e-03   8.9667132e-04   6.0682313e-04   6.1096967e-04   5.2577094e-04   5.0698803e-04   6.7186391e-04   6.9535320e-04   1.0799881e-03   1.0115157e-03   1.2068688e-03   7.3986792e-04   7.0730504e-04   5.1948114e-04   1.1464765e-03   5.1487132e-04   7.7693106e-04   1.0679222e-03   5.5157178e-04   7.6842186e-04   8.6879509e-04   1.8327455e-04   6.3984841e-04   9.4252161e-04   3.1333423e-04   5.7155982e-04   3.6185302e-04   3.2015881e-04   1.0689361e-03   8.5768645e-04   5.6373805e-04   3.8791777e-04   4.9679616e-04   2.8327736e-04   5.3116697e-04   7.0827804e-04   5.4706010e-04   3.9912004e-04   1.5806586e-04   1.9147630e-04   4.1902902e-05   1.0139889e-03  -1.4749153e-04   7.7695085e-04   1.0155640e-03   6.2404654e-04   6.3632493e-04   3.0941889e-04
   1.3675849e-03   9.1937336e-04   1.0360638e-03   8.4031868e-04   4.2999993e-04   4.0335098e-04   2.6659123e-04   3.6494050e-04   5.5447721e-04   6.1188452e-04   1.0126992e-03   8.8453491e-04   1.1010750e-03   6.2772870e-04   6.2728673e-04   5.0004455e-04   1.1214851e-03   5.1581184e-04   9.8596816e-04   9.7576709e-04   4.2905411e-04   6.6586543e-04   5.4211757e-04   1.8725535e-04   6.5190671e-04   5.3273462e-04   2.8124679e-04   5.4396462e-04   2.1109098e-04   1.7040662e-04   8.1715436e-04   5.0676282e-04   3.2352752e-04   1.3684330e-04   2.3052879e-04   1.0122552e-04   3.2126816e-04   5.5619841e-04   3.7169835e-04   2.8263024e-04  -1.3745874e-04  -8.1052953e-05  -3.6972921e-04  -9.3054038e-04  -8.8860473e-04   6.4301613e-04   7.3238614e-04  -2.4435337e-04  -3.4365727e-04   7.4059368e-05
   8.2820875e-04   4.8062409e-04   2.7323049e-04   4.1690515e-04   7.7552140e-05  -1.1491770e-04  -1.1663346e-04   6.5175664e-05   3.1098977e-04   3.0484397e-04   6.4156775e-04   5.4214796e-04   7.9638237e-04   4.1221746e-04   3.7233770e-04   3.0666887e-04   8.7515335e-04   3.1080595e-04  -5.8233284e-04   6.6643377e-04   1.7138856e-04   3.1808324e-04  -2.6752157e-04  -1.1995893e-04  -4.8289917e-04  -2.2237710e-04   1.5913934e-04   3.2406708e-04   1.7748094e-04  -6.2924439e-05   4.7724982e-04   1.9754028e-04  -9.5667863e-05  -1.5137681e-04   1.1947031e-04  -2.3261135e-04   5.6867575e-05   3.3323158e-04   4.6462923e-05  -1.4879501e-04  -2.6417430e-04  -1.6159969e-04  -4.4439576e-04  -1.3679886e-03  -7.4957550e-04   1.6443543e-04   4.0752432e-04  -3.3028758e-04   2.2580265e-04  -2.8127470e-04
   1.3213145e-04   3.2561333e-05  -5.9484140e-05  -1.6497228e-05  -2.9150466e-04  -5.2460650e-04  -4.1579950e-04  -2.7723351e-04  -6.3455693e-05   1.4409668e-06   2.5437790e-04   1.5441950e-04   4.4110627e-04   1.2252630e-04   3.2581488e-04   1.3680215e-04   6.7164196e-04   1.7906836e-04   1.2615902e-04   5.9466792e-04   1.8524098e-04   4.6904542e-04   2.6236771e-04  -1.5037089e-04   4.2711629e-04   3.8587523e-04   1.8783534e-04   3.8658007e-04   1.9283735e-04   8.0784448e-05   8.0767903e-04   5.2416162e-04   4.1683816e-04   1.8598774e-04   4.3178341e-04   2.0420547e-04   3.1541527e-04   5.4154213e-04   3.1480339e-04   1.6893887e-04   3.6145211e-05   2.6057873e-05   1.1804383e-04   8.2049303e-04   1.7913249e-05   4.9837679e-04   7.5027696e-04   1.1216232e-04   1.9002927e-04   2.9635360e-04
   9.1721903e-04   8.1949413e-04   6.6144695e-04   6.4513361e-04   3.3248955e-04   3.6327081e-04   3.0685487e-04   3.5434568e-04   2.6186372e-04   5.5983703e-04   8.9969981e-04   7.8631286e-04   8.3770388e-04   5.6678202e-04   5.8508135e-04   3.7252594e-04   9.4227429e-04   3.6881966e-04  -3.4993278e-05   8.1571471e-04   4.0518245e-04   6.2200066e-04   8.3555008e-04   1.8158430e-04   1.6498443e-04   5.3666328e-04   1.4217218e-04   5.2881299e-04   2.0129140e-04   1.8925179e-04   7.1414723e-04   6.0794153e-04   6.3605310e-04   2.0118545e-04   3.9912458e-04   1.4553660e-04   3.5366925e-04   5.1855930e-04   3.2632361e-04   1.8533158e-04  -1.3904914e-05   7.3944720e-05   1.0174341e-04  -5.5870804e-04   1.1441087e-04   6.0456543e-04   7.6702074e-04   5.3651846e-04  -1.3344405e-04   3.3316112e-04
   7.2954112e-04   6.7211071e-04   4.9293612e-04   5.0116051e-04   2.3265279e-04   1.5524012e-04   7.7557333e-06   2.3677851e-04   3.1189551e-04   4.7600118e-04   7.4210158e-04   5.9484167e-04   8.3129783e-04   4.6505843e-04   5.3285452e-04   3.4164000e-04   8.1331213e-04   3.3384675e-04   1.9658649e-04   6.8251323e-04   2.6366062e-04   3.8319698e-04   1.2143431e-04  -8.0974295e-04  -4.5424647e-05   1.9313378e-04   1.5876530e-04   3.1701301e-04   1.5169836e-04   1.8727604e-05   6.7564350e-04   2.7276250e-04  -1.0480455e-04  -8.9696943e-05   1.2900862e-04  -2.0882748e-04   1.7905542e-04   3.0488922e-04   7.6155011e-05  -2.9453752e-04  -2.7378096e-04  -1.5554439e-04  -3.2532463e-04  -5.9686560e-04  -2.7162884e-04   2.4508848e-04   5.1501958e-04  -1.4308492e-04  -5.2366097e-04  -1.0552308e-04
   5.1140942e-04   1.8129604e-04  -2.6122794e-05   5.7364014e-05  -3.3611179e-04  -3.5792432e-04  -3.0654427e-04  -2.7366917e-04  -2.0206986e-04   2.0137975e-04   3.7212449e-04   2.0457017e-04   4.9926259e-04   1.7271278e-04   2.7766961e-04   1.2959885e-04   5.1977905e-04   1.5685860e-04  -2.7266218e-04   2.8209548e-04   4.7489768e-05   1.4960380e-04  -1.7056876e-04  -7.2346936e-04  -4.5769397e-04  -3.8132517e-04   6.3046631e-05   3.2704195e-04  -2.3554698e-04  -2.3610693e-04   2.8161201e-04   2.3076784e-04  -2.3929133e-04  -4.6085863e-04  -1.2674382e-04  -3.4125740e-04  -3.0308811e-05   2.5027824e-05  -2.0159196e-04  -4.5522692e-04  -6.3019159e-04  -6.0855976e-04  -3.8042088e-04  -8.9455786e-04  -3.7599594e-04  -1.2500194e-05   1.4160924e-04  -2.6739604e-04  -1.2806791e-04  -4.2004796e-04
  -2.3704242e-04  -3.6521620e-04  -2.3376434e-04  -3.7166697e-04  -5.1007437e-04  -6.1086228e-04  -5.6256447e-04  -4.0989305e-04  -2.9172244e-05   2.3489064e-04   3.9690669e-04   9.7439122e-05   4.6764014e-04   2.2518642e-04   2.6756051e-04   1.6827516e-04   3.4403635e-04   2.1307611e-04   5.0048350e-04   3.4931584e-04   2.8514778e-04   1.6254908e-04   6.4856309e-04   4.1123357e-04   3.6914622e-05   8.4583407e-05   2.2051740e-04   4.3696180e-04   5.4286007e-05   5.1375198e-05   3.4630427e-04   2.6238905e-04   1.8149262e-04   1.1673426e-04   1.5022683e-04  -1.4290219e-05   1.8003581e-04   3.3377641e-04   2.0099140e-04   2.1678917e-04  -1.8722682e-04   8.9827818e-06   1.8488205e-08  -5.9987622e-04  -6.2013272e-04   5.3231564e-04   5.6683831e-04  -4.0194340e-04   5.8435288e-04   2.7812723e-04
   4.0142779e-04   3.9082312e-04   1.7239832e-04   2.0069513e-04  -3.9943188e-05   6.1283834e-05   1.8663826e-05   1.3621135e-05   3.6367748e-04   4.2779819e-04   6.4488652e-04   3.7458722e-04   6.1448669e-04   3.5753645e-04   5.4650888e-04   2.7833617e-04   4.5647062e-04   3.3306694e-04  -2.3770105e-04   3.6694066e-04   3.2116767e-04   3.6526957e-04   3.0633670e-04   1.1268590e-04   1.2658014e-04   3.8837764e-04   1.0567602e-04   6.0135091e-04   1.0146372e-04   1.0587650e-04   4.1211370e-04   4.7435067e-04   6.4093831e-05   9.2984345e-05   2.5194476e-04  -4.2784617e-05   3.1006854e-04   3.5078963e-04   2.9716236e-04  -6.1499930e-05  -1.8432763e-04  -2.8777786e-04  -5.2688531e-05  -6.0912210e-04  -3.5852473e-04   4.5026519e-04   5.5192725e-04   3.0777749e-04   2.1806528e-04   2.7336128e-04
   6.1321352e-04   3.0676633e-04   2.5128099e-04   1.6419862e-04  -1.4613626e-04  -1.5849911e-04  -1.2712736e-04  -3.8337646e-05  -1.5375874e-04   3.0042010e-04   5.5031618e-04   2.8329232e-04   5.1482586e-04   2.7046452e-04   4.7595086e-04   2.0525683e-04   4.5596811e-04   2.7469615e-04   2.6388638e-04   2.1516265e-04   1.1695135e-04   2.5034018e-04  -2.3034378e-04  -7.5435947e-04  -3.8301264e-04  -9.6297481e-05   1.1212270e-04   3.9447867e-04  -5.0086197e-05  -6.3447682e-05   2.3838345e-04   4.4116088e-05   1.0244648e-04  -2.2024565e-04  -4.0608834e-06  -2.6211829e-04   8.5213833e-05   2.6390093e-04   7.8032508e-06  -4.8478364e-04  -3.9042032e-04  -2.9080667e-04  -1.6116004e-06  -9.7154180e-04  -8.6125307e-04   1.6721169e-04   4.4752410e-04   7.9097183e-05  -3.8425704e-05   1.0082339e-04
   1.4631936e-04   1.8894687e-05   1.8594817e-05  -8.6864282e-05  -3.8893116e-04  -5.3051184e-04  -3.0338729e-04  -2.1569816e-04  -8.3512401e-05   7.0002388e-05   3.2559980e-04  -8.8643656e-06   3.1611309e-04   1.0287421e-04   2.8112056e-04   4.9832463e-05   3.8016541e-04   1.3198910e-04  -4.5988741e-04   7.2177805e-05  -9.7865624e-05   1.1377478e-04  -1.9423151e-04  -1.2788869e-05  -5.7316932e-04  -4.0669311e-04  -4.5808894e-05   3.6917080e-04  -1.1804733e-04  -1.8959910e-04   3.1120260e-04   1.6755910e-04   1.5642494e-04  -2.2329603e-04  -1.0749794e-04  -1.3165733e-04   4.4679480e-05   2.7514639e-04   9.8521108e-05   1.8447312e-04  -2.1094158e-04  -2.5758363e-04  -6.0851380e-05   3.3079363e-05  -1.9145988e-04   4.0964680e-04   6.4490037e-04   3.7241214e-05   1.7293684e-04   3.6889463e-04
   4.1268958e-04   5.4222933e-04   2.9609873e-04   4.0991735e-04   1.4321327e-04   2.5361966e-04   8.4710540e-05   2.8712134e-04   4.1843121e-04   5.2562368e-04   7.6941709e-04   6.1199913e-04   8.3725067e-04   4.8644171e-04   4.4252590e-04   3.5303025e-04   6.5075315e-04   3.9082533e-04   1.2452007e-05   4.6618376e-04   3.2009912e-04   5.0428452e-04   5.3066923e-04   3.5715164e-04  -3.4912533e-04   3.4116409e-05   1.1321201e-04   4.6279168e-04   1.3331806e-04   1.1421391e-04   5.8558007e-04   3.1386243e-04   6.0860190e-04   1.2756862e-04   2.5510264e-04   8.7898174e-05   2.9881072e-04   3.8479580e-04   2.3758320e-04   2.7316989e-04  -1.1692454e-04   3.6896943e-06  -2.8096096e-05   5.1552270e-05   5.1111812e-05   6.2108849e-04   7.2303007e-04  -5.3924101e-05  -9.4516263e-06   4.5571165e-04
   7.0535223e-04   5.1996083e-04   3.5763677e-04   3.3280358e-04   1.0657901e-04   2.8055447e-05   8.0519465e-05   1.6987625e-04   1.7889080e-04   4.4973171e-04   7.2521128e-04   5.1292498e-04   8.6560956e-04   4.7258640e-04   5.1376881e-04   3.6454521e-04   6.9671846e-04   3.7008309e-04  -1.0650958e-04   4.6024285e-04   1.9277776e-04   3.4333931e-04   3.0879010e-04   1.1435859e-04  -9.1888294e-05   1.0258632e-04   1.4163183e-04   4.2948476e-04   1.3277231e-04   5.6522535e-05   3.9521750e-04   4.0045928e-04   2.5381238e-04  -6.0461429e-05  -1.1733100e-06  -1.6273957e-04   1.7323984e-04   2.9259096e-04   3.4534871e-05  -2.0788320e-04  -3.1235674e-04  -3.7556529e-04  -1.8454893e-04  -1.4734732e-04  -4.5176549e-04   2.8367803e-04   4.9681385e-04  -5.3259829e-04  -1.8745032e-04   1.9602387e-04
   1.8797453e-04   1.3417259e-04  -4.2696784e-06  -6.2863917e-05  -2.6945616e-04  -3.2165719e-04  -2.8631993e-04  -2.5926428e-04  -1.8239766e-04   1.8513625e-04   3.8806404e-04   1.2456538e-04   4.5249515e-04   1.4590737e-04   3.2433515e-04   1.9169220e-04   5.8515696e-04   2.5559167e-04  -2.9541506e-04   1.9950539e-04  -4.3818232e-05   2.3542084e-04   1.6508221e-04  -2.7404630e-04   1.0431155e-04  -2.9255313e-04  -2.4046267e-05   2.2326664e-04  -7.4557247e-05  -1.6198812e-04   3.7394333e-04   1.4438365e-04  -4.4289679e-04  -3.3949772e-04  -2.4525807e-04  -4.0582684e-04  -7.0796537e-05   7.0708273e-05  -2.0570056e-04  -3.8032778e-04  -5.5237103e-04  -3.6401357e-04   1.4773883e-04   8.3368403e-05   3.2513164e-04  -1.4257620e-04   3.7244352e-04  -7.8463095e-04  -9.9191479e-05   5.1149451e-05
   4.2890450e-05   1.6910335e-04   3.4690634e-04   1.4545528e-04  -5.0491082e-05   4.9788891e-06   2.8471146e-05   2.1443915e-04   1.5295237e-04   4.9870490e-04   6.4612186e-04   4.9267046e-04   6.9884991e-04   4.1576489e-04   4.0868777e-04   3.8410691e-04   6.6711503e-04   4.1709209e-04  -2.5270035e-04   5.2792201e-04   2.9301314e-04   4.8490972e-04   6.3995033e-04   1.4080848e-04   6.0106866e-04   3.7754085e-04   1.9951552e-04   4.0654416e-04   1.7679392e-04   1.6472863e-04   5.0431094e-04   5.0944224e-04   3.4792078e-04   3.1434931e-04   2.2538575e-04   1.2741101e-04   2.5674471e-04   3.8183422e-04   2.2616921e-04   2.5482653e-04  -1.6188339e-04  -5.8038320e-05   8.2448307e-05   6.5514108e-04  -5.5995210e-05   5.5455719e-04   7.7913853e-04   1.8216698e-06   4.1074771e-04   4.4568014e-04
   5.5435713e-04   5.3527439e-04   4.5811498e-04   3.5082770e-04   3.2951935e-05   1.1784292e-04   1.4282844e-04   2.7833632e-04   1.3965936e-04   5.4274336e-04   7.2699494e-04   6.0310849e-04   8.8443945e-04   4.6572578e-04   4.9959967e-04   4.5610539e-04   7.5258664e-04   4.9852440e-04  -1.2850510e-04   5.7232892e-04   2.7147951e-04   3.9880630e-04   3.8430563e-04   6.2898244e-04   2.5575495e-04   4.9506361e-04   2.3426487e-04   4.3233199e-04   2.2967205e-04   1.8383878e-04   6.5798522e-04   5.5309566e-04   4.1888250e-04   3.4529474e-04   2.3745799e-04   1.4270998e-04   3.0835837e-04   4.0925498e-04   2.2566650e-04   2.0997270e-04  -8.9803558e-05   3.5458831e-07   5.6628764e-05   7.5614394e-04   9.8617274e-05   1.2535774e-04   6.9416914e-04   6.5427227e-04   4.9371418e-04   5.6560774e-04
   2.8380379e-04   3.3139417e-04   2.4883877e-04   1.1012403e-04  -1.5386859e-04  -1.3749876e-04  -1.3236578e-04  -5.0877101e-05  -9.2208458e-05   2.8888916e-04   4.8761244e-04   3.3634744e-04   5.8357848e-04   3.1188261e-04   3.6604085e-04   3.1407844e-04   6.8200810e-04   3.9643969e-04  -1.9989244e-04   3.5315374e-04   2.6587930e-05   1.6994483e-04   2.2118470e-06  -4.5573834e-05   4.3961187e-04  -7.4985393e-05   2.5899357e-05   3.0390450e-04   2.3053912e-04   8.6450882e-06   3.8883305e-04   2.9578613e-04   9.3015587e-05  -6.8468340e-05  -2.9399922e-05   5.1740299e-06   5.7473368e-05   2.2258374e-04  -2.2349353e-05  -1.2743937e-04  -2.6712139e-04   8.9277855e-05  -3.5776853e-04  -2.9721708e-04  -1.4939549e-04   3.4316495e-04   4.6243481e-04   6.4131273e-06  -2.1669226e-05   2.1459883e-04
  -2.2429080e-05  -2.7409815e-05  -1.2935504e-04  -1.2104696e-04  -3.7787511e-04  -3.7335954e-04  -3.1593381e-04  -1.0589606e-04  -3.6920095e-04   4.4442830e-05   1.8969497e-04   2.4036914e-05   3.8716377e-04   7.0469367e-05   1.9650414e-04   1.9628830e-04   5.6803401e-04   2.4872000e-04   6.0948054e-04   3.2101298e-04   4.3101143e-05   2.5244596e-04   7.3256419e-04   5.3042191e-04   7.3367881e-04   1.2253979e-04   7.7774515e-05   2.9848199e-04   1.8326285e-04   8.5567364e-05   5.3882628e-04   3.4289388e-04   1.2218037e-04   3.5449551e-04   4.4777771e-04   1.3067755e-04   3.3517001e-04   4.4345437e-04   3.0187584e-04   7.2189310e-04   8.9598121e-05   6.0215909e-05   4.0256430e-04   6.1851699e-04   2.3023278e-04   6.2478374e-04   9.7860466e-04   8.2101749e-04   3.7144835e-04   8.8201294e-04
   6.7650666e-04   7.6944835e-04   7.2574581e-04   6.1968865e-04   3.6696126e-04   4.4290783e-04   3.7973566e-04   5.3101109e-04   3.3475278e-04   6.2143686e-04   8.7729923e-04   7.2970043e-04   9.9070487e-04   7.0647895e-04   6.0782547e-04   5.8530434e-04   9.8415744e-04   6.0892227e-04  -3.9015172e-06   7.4871717e-04   3.3478960e-04   6.8385666e-04   1.0171040e-03   1.0602829e-03   4.8631744e-04   6.9813523e-04   1.7408204e-04   3.5344961e-04   4.3449301e-04   3.5473282e-04   8.1595546e-04   9.4718806e-04   4.0203833e-04   6.2762754e-04   5.7848624e-04   2.8099405e-04   4.4632162e-04   6.0435728e-04   4.3840392e-04   5.8911910e-04   2.9200042e-04   9.1525661e-05   3.8577875e-04   2.2252898e-04   2.9547726e-05   6.3533819e-04   1.1307764e-03   9.6217275e-04   8.1123557e-04   1.0177972e-03
   9.0442487e-04   7.7020022e-04   7.6659332e-04   6.4143969e-04   3.0134182e-04   4.5066548e-04   3.0669424e-04   4.3696910e-04   3.6219240e-04   5.5444823e-04   8.6419476e-04   6.8789715e-04   1.0406786e-03   6.8934739e-04   6.6597987e-04   5.6243833e-04   1.0886699e-03   6.4772944e-04   2.5238024e-04   7.9354667e-04   2.6516328e-04   6.2048703e-04   5.4175651e-04   7.0254813e-04   5.8035820e-04   5.3658977e-04   2.0972149e-04   3.6626874e-04   3.5462421e-04   2.6413403e-04   9.5662498e-04   4.9697008e-04   4.9784308e-04   3.7235403e-04   3.0677405e-04   1.8201933e-04   2.7893993e-04   4.9454888e-04   2.1724628e-04   4.4994391e-04  -1.4078382e-05   6.5546104e-05   2.0339838e-04   1.1402627e-03  -1.3152383e-04   6.0518557e-04   8.7543705e-04   3.2879348e-04   4.9637485e-04   7.4490038e-04
   4.3301293e-04   3.7345994e-04   6.6632719e-04   3.9143857e-04   7.4163909e-05   8.1958533e-05   1.2245208e-04   1.0724289e-04   6.5138607e-05   2.8695894e-04   5.7283900e-04   3.4694350e-04   7.0004212e-04   4.8268802e-04   4.0842683e-04   4.4085723e-04   8.5349183e-04   5.2368164e-04  -2.5349256e-04   5.4000347e-04   6.7461981e-05   3.1865781e-04   7.3180965e-04  -6.5445347e-05   3.0077703e-04   4.1665382e-05   1.8302960e-04   1.1510230e-04   2.6031511e-04   9.3351948e-05   6.5389089e-04   4.3414169e-04   2.3004568e-04   1.1834872e-04   4.5261182e-05   1.0205428e-05   1.9772364e-04   2.9862815e-04   1.0579832e-04  -2.2295812e-05  -1.9666745e-04  -2.9157261e-05   1.4026173e-04  -1.9462491e-04  -6.6342458e-05   4.0280397e-04   7.1298087e-04  -1.4719689e-04   4.6574295e-04   6.3692179e-04
   5.8797875e-04   3.9320020e-04   3.8028337e-04   5.0016341e-04   2.7412354e-04   4.1636836e-04   2.9824092e-04   4.4282692e-04   5.8550952e-04   5.9285422e-04   8.8217139e-04   7.4078265e-04   1.1322321e-03   7.1037089e-04   6.0282357e-04   6.1237952e-04   1.0653556e-03   7.4939057e-04   7.9148199e-04   9.6928939e-04   4.5924477e-04   7.5016415e-04   1.0977758e-03   1.1237052e-03   1.1077739e-03   9.4199082e-04   2.2238215e-04   4.7378335e-04   4.8468047e-04   4.9587653e-04   1.0513264e-03   1.0663219e-03   7.3341571e-04   7.9234288e-04   7.4063364e-04   7.2172197e-04   6.7436544e-04   6.9699145e-04   4.9074396e-04   1.1035737e-03   4.8114927e-04   6.1866204e-04   8.9495565e-04   9.0656342e-04   2.0461033e-04   8.6044671e-04   1.2481608e-03   7.5025053e-04   9.5340208e-04   1.1142625e-03
   7.4467913e-04   8.7288331e-04   1.1548003e-03   8.4372133e-04   5.6270900e-04   6.5967045e-04   6.3250039e-04   7.5664202e-04   8.1905961e-04   7.1568380e-04   1.0198476e-03   8.2189048e-04   1.3105165e-03   8.4627862e-04   8.0397807e-04   7.5346039e-04   1.2589415e-03   8.1823865e-04  -5.7375877e-05   1.0653590e-03   4.9217878e-04   9.0879708e-04   7.0619280e-04   1.7092401e-03   1.2817042e-03   1.2439553e-03   3.1027209e-04   4.3581292e-04   5.9676165e-04   5.0803210e-04   1.1100787e-03   1.2011994e-03   1.0431056e-03   7.7703141e-04   7.1372389e-04   5.7966897e-04   5.9978961e-04   7.4402889e-04   5.8533851e-04   7.9595658e-04   4.0676157e-04   3.9410731e-04   4.3034705e-04  -9.8375793e-05   9.0731733e-04   1.0080815e-03   1.1687850e-03   7.2830467e-04   5.8183516e-04   1.1701066e-03
   9.4804179e-04   6.5999647e-04   1.0407107e-03   6.5795408e-04   3.7156168e-04   3.3256164e-04   3.1075531e-04   3.8994229e-04   6.6832779e-04   4.5684938e-04   7.8098313e-04   5.2305608e-04   1.0545917e-03   7.0838205e-04   7.0225407e-04   6.2757707e-04   1.1105296e-03   7.2540436e-04  -2.7958353e-04   8.3717745e-04   2.6109914e-04   4.7995147e-04   7.6723634e-04   6.0912786e-04   5.5046292e-04   7.1052543e-04   2.9928013e-04   2.4735549e-04   3.6113325e-04   3.1208285e-04   8.0417021e-04   4.9521634e-04   4.3227433e-04   4.0464240e-04   3.9471837e-04   4.2813490e-04   4.3348351e-04   5.3429167e-04   3.2684804e-04   5.4300390e-04   1.8703424e-04   3.0728348e-04   4.0176164e-04   3.1039113e-04  -1.7730163e-04   8.2542736e-04   9.8886818e-04   1.1133949e-03   6.2732311e-04   7.9560495e-04
   5.6071422e-04   2.8049556e-04   8.1292819e-04   3.2437686e-04   1.3939342e-04  -3.4560388e-05   7.1096816e-05   2.1066795e-04   4.1938009e-05   1.6698745e-04   4.5614946e-04   1.9269485e-04   7.3577475e-04   4.5291567e-04   5.2990182e-04   4.1812149e-04   8.6684601e-04   4.8404626e-04   2.9936127e-04   5.0980150e-04   1.1488240e-05   3.6339022e-04   4.9979443e-04  -1.7380097e-04   2.6313250e-04   4.9845890e-05   1.0082654e-04   3.2020709e-04   2.2307663e-04   1.1698262e-04   9.6463843e-04   6.2932109e-04   5.9191720e-04   3.6518811e-04   3.7795174e-04   3.3095671e-04   3.9018478e-04   6.2096334e-04   3.7308005e-04   6.0159515e-04   4.5776708e-04   4.3988327e-04   2.5752527e-04   1.7661826e-03  -1.8097155e-04   9.0677867e-04   1.1899447e-03   1.0116232e-03   1.0308906e-03   1.2140470e-03
   1.0753477e-03   8.3758001e-04   1.2288704e-03   8.6507929e-04   7.2679174e-04   7.9163618e-04   7.6273119e-04   8.6373335e-04   6.8347587e-04   6.7757984e-04   9.9674461e-04   7.8253145e-04   1.2928412e-03   9.3460461e-04   1.0500908e-03   7.5160468e-04   1.1960316e-03   8.3400880e-04   5.2197708e-04   1.0425155e-03   5.1632291e-04   7.9637230e-04   1.2258301e-03   5.9703737e-04   1.0434773e-03   9.5601153e-04   3.5966831e-04   3.8304704e-04   4.8676782e-04   5.5749697e-04   1.0471074e-03   7.8204420e-04   1.0689010e-03   8.5602264e-04   7.3962996e-04   7.3950540e-04   6.6825392e-04   7.6747354e-04   6.0345879e-04   1.1478951e-03   4.7786490e-04   5.3143391e-04   5.9818913e-04   2.6571183e-04   5.2553014e-04   1.0978610e-03   1.2252789e-03   1.1464097e-03   8.6700823e-04   1.1139879e-03
   9.9794171e-04   8.3375769e-04   1.1322083e-03   8.4002136e-04   7.2097359e-04   7.7489082e-04   6.3719240e-04   5.9158722e-04   5.5357412e-04   5.8192981e-04   8.3499507e-04   5.6372257e-04   1.1704764e-03   8.7173202e-04   8.8573276e-04   7.1923924e-04   1.1092486e-03   7.9898094e-04   2.0332652e-04   9.0148725e-04   4.5633261e-04   6.4486306e-04   5.4147845e-04   6.7144918e-04   6.6606392e-04   6.8648177e-04   3.3762251e-04   3.5209703e-04   5.3991342e-04   4.1671374e-04   8.3843106e-04   9.3606656e-04   1.0138286e-03   7.5286935e-04   5.0594722e-04   6.1992637e-04   5.6013319e-04   5.9375947e-04   4.5028937e-04   7.3688565e-04   3.5738878e-04   3.5962748e-04   4.4975878e-04   1.5378844e-03   3.9336883e-05   5.8453390e-04   9.0018701e-04   5.7030813e-04   5.5446697e-04   7.2415004e-04
   4.3390226e-04   3.3157840e-04   8.2699035e-04   4.3444469e-04   4.5216273e-04   3.0087552e-04   2.6800876e-04   3.4692834e-04   6.3166044e-05   2.2978216e-04   4.2704435e-04   1.1162132e-04   7.7620253e-04   5.1760889e-04   7.5441430e-04   4.9954327e-04   8.4683060e-04   5.7925249e-04   1.6514093e-04   5.4656685e-04   1.4734198e-04   4.0314914e-04   5.3594221e-04   1.4046117e-04   8.0265640e-04   3.6304980e-04   2.3215600e-04   4.0341838e-04   2.7936706e-04   1.9077086e-04   5.1445438e-04   3.7638409e-04   4.3629596e-04   4.0912509e-04   2.9277129e-04   1.7925863e-04   3.4597813e-04   4.1604356e-04   2.0154136e-04   3.8851242e-04   1.1137276e-04   1.6120099e-04   2.9805594e-04  -1.1706613e-03   2.2072156e-04   4.3452214e-04   5.3781364e-04   1.8696915e-04   4.6250576e-04   4.1627494e-04
   3.4712971e-04  -4.6875906e-05   5.0880061e-04   1.5000748e-07   8.6852779e-05  -2.1321706e-04  -5.4094638e-05   4.3046824e-05  -4.1415329e-05   1.0377119e-04   2.1102006e-04  -8.0987629e-05   6.5704703e-04   4.5016743e-04   5.8456138e-04   4.8141461e-04   7.2904566e-04   5.4725772e-04  -1.5323976e-05   6.2142510e-04   3.4332174e-04   4.3877278e-04   1.0504244e-03   1.4653974e-03   1.0237133e-03   8.1156654e-04   4.8261011e-04   5.6704984e-04   4.7098586e-04   4.5588581e-04   7.4023590e-04   9.7424875e-04   7.5519702e-04   8.9951616e-04   7.2420447e-04   6.2921434e-04   6.6386809e-04   6.8740064e-04   5.7183974e-04   1.0524519e-03   4.5937599e-04   5.4253417e-04   4.6065461e-04   1.4422386e-03   6.8463996e-04   1.1563182e-03   9.5269276e-04   8.7810669e-04   9.5633353e-04   7.5371133e-04
   1.1338938e-03   7.5007090e-04   1.1109659e-03   7.3279883e-04   8.5544138e-04   7.5112307e-04   7.1448303e-04   7.7115645e-04   2.9069206e-04   5.1633583e-04   6.9311622e-04   5.4185506e-04   1.0775633e-03   8.1113348e-04   7.8995171e-04   6.6687912e-04   8.9704513e-04   6.8482902e-04   1.1419301e-03   7.5110485e-04   4.2221122e-04   5.9320329e-04   1.0223322e-03   8.6080004e-04   1.2492479e-03   1.1831785e-03   4.8964977e-04   7.3292409e-04   5.0093420e-04   5.5047398e-04   1.0311480e-03   9.7816216e-04   6.7409826e-04   9.3971507e-04   7.8579312e-04   7.0096011e-04   8.1968785e-04   7.2949711e-04   7.2291022e-04   1.1166867e-03   4.9957534e-04   3.0634858e-04   2.1049551e-04   1.5251862e-03   5.3470588e-04   1.0238538e-03   8.6026284e-04   9.3119469e-04   8.3595811e-04   7.6602632e-04
   9.6697494e-04   6.3300796e-04   9.6093753e-04   6.0260779e-04   8.0260006e-04   5.3049199e-04   6.3117768e-04   8.0937962e-04   3.6829856e-04   4.2411394e-04   5.9546699e-04   4.0359309e-04   9.6281030e-04   7.6300016e-04   9.4760733e-04   6.3693617e-04   7.8576268e-04   6.7676720e-04   5.9239980e-04   5.3154794e-04   2.2011835e-04   4.9582054e-04   6.3951116e-04   1.3112760e-04   7.2210707e-04   5.7446590e-04   4.6974485e-04   6.3240342e-04   5.0612254e-04   4.0639506e-04   6.9537200e-04   6.5404235e-04   6.8673142e-04   6.9286593e-04   5.7427492e-04   3.8583123e-04   6.5375486e-04   6.0192234e-04   5.8399240e-04   5.8536534e-04   2.3222217e-04   2.4485233e-04   3.9248451e-05   1.2427757e-03   6.1566115e-04   7.0916390e-04   6.0674053e-04   3.5552293e-04   4.6535273e-04   5.5526191e-04
   6.5896701e-04   3.4651117e-04   4.8001661e-04   3.2962198e-04   5.8117800e-04   3.3008118e-04   3.2410651e-04   5.1127735e-04   5.4620206e-05   2.1456533e-04   3.5960137e-04   1.9915891e-04   7.4385165e-04   5.7060248e-04   8.7923557e-04   4.2113784e-04   6.2013441e-04   5.0450623e-04   2.5235716e-04   2.4078734e-04   1.1572306e-05   3.3417705e-04   6.3458306e-04   6.4312463e-04   3.1491023e-04   2.7751827e-04   2.5717902e-04   5.3213671e-04   4.1161294e-04   2.5688426e-04   5.7898770e-04   6.2066282e-04   6.5947289e-04   5.2964292e-04   5.4943428e-04   5.6960364e-04   6.0651079e-04   6.8577391e-04   6.5023737e-04   9.5765176e-04   5.2614382e-04   3.6590960e-04   1.8063000e-04   1.6139087e-03   5.7808106e-04   1.0701382e-03   7.3246617e-04   3.4889160e-04   4.7463946e-05   7.7110535e-04
   1.0113748e-03   8.2526950e-04   1.0972552e-03   7.6718762e-04   1.0591756e-03   8.9369854e-04   9.6876483e-04   9.9988643e-04   5.7413772e-04   6.5166375e-04   8.2424702e-04   7.0358597e-04   1.1665904e-03   9.9471514e-04   1.1106062e-03   7.2707474e-04   8.3719025e-04   7.2742207e-04   1.8746256e-04   6.6829839e-04   3.7125163e-04   6.7763537e-04   1.1444087e-03   8.4627379e-04   1.0997327e-03   1.0896536e-03   4.9381913e-04   7.4465177e-04   6.2954327e-04   6.4089772e-04   8.2149560e-04   9.8336884e-04   6.9636013e-04   9.8016555e-04   8.4205717e-04   7.9898426e-04   8.6885114e-04   8.2393264e-04   8.5669843e-04   1.1426518e-03   7.0322270e-04   5.2282715e-04   7.9686451e-04   1.6900464e-03   4.8013875e-04   1.2591440e-03   6.8991014e-04   8.0618449e-04   7.1514962e-04   7.5525738e-04
   9.2417729e-04   7.6974835e-04   1.0775625e-03   7.4070320e-04   1.0277908e-03   8.5006305e-04   7.9294940e-04   9.7822957e-04   3.5027659e-04   5.6925812e-04   7.2441058e-04   6.2062620e-04   1.0944995e-03   8.8151282e-04   1.0211655e-03   6.4397574e-04   8.1254111e-04   7.0286874e-04   4.6255784e-05   5.3138373e-04   2.9120254e-04   5.7273678e-04   9.5022930e-04   5.3138955e-04   8.3198451e-04   6.9031515e-04   4.6420167e-04   8.8586897e-04   6.8996864e-04   5.5524096e-04   7.6699833e-04   8.4487442e-04   5.8860716e-04   7.9570699e-04   8.1809948e-04   5.9543632e-04   8.1899168e-04   7.5053400e-04   7.2556915e-04   7.0443796e-04   4.2807232e-04   9.1084257e-05   4.5627865e-04   1.1102506e-03  -2.9950729e-04   1.0169072e-03   5.2490126e-04   2.5511996e-04   7.6690019e-04   6.4429099e-04
   5.2853482e-04   4.1455674e-04   6.1855180e-04   4.0467450e-04   6.6558027e-04   4.9335329e-04   4.3996045e-04   5.3375203e-04   2.6938945e-04   2.9148388e-04   4.3375941e-04   2.2633326e-04   7.8263588e-04   6.5704831e-04   8.3861290e-04   4.2334819e-04   5.6674716e-04   5.0188106e-04  -6.8998098e-04   2.7897788e-04  -5.0805143e-06   3.5036728e-04   5.9685577e-04  -4.0510615e-05   7.6416600e-04   5.2523048e-04   3.2582472e-04   5.5647932e-04   5.1688455e-04   3.5542838e-04   4.5042441e-04   4.8357580e-04   2.5846218e-04   5.0692639e-04   4.7885903e-04   5.1804911e-04   6.0762156e-04   5.3193507e-04   4.8734629e-04   5.9967802e-04   2.1063132e-04   1.2613277e-04   7.2610979e-05   4.7525743e-04   3.5129761e-04   9.2092925e-04   4.5756745e-04   9.3837106e-04   9.2267706e-05   6.4990850e-04
   6.6903606e-04   7.5355422e-04   8.1756164e-04   7.7020819e-04   1.0687979e-03   9.8343915e-04   9.3866821e-04   9.1013045e-04   5.9376919e-04   6.6519150e-04   8.0512470e-04   7.4246316e-04   1.1120829e-03   9.9580118e-04   1.1500155e-03   6.4023706e-04   7.1863719e-04   6.5089110e-04   1.6979277e-04   5.7985866e-04   4.2620310e-04   7.6011906e-04   1.3910618e-03   1.8507908e-03   1.7834702e-03   1.2747898e-03   4.4636472e-04   8.8095630e-04   7.7902776e-04   7.4165716e-04   7.9099688e-04   1.1463626e-03   6.8311789e-04   9.9310512e-04   9.4841566e-04   9.6683571e-04   9.5572544e-04   8.2438078e-04   8.8625023e-04   1.2892350e-03   6.6987780e-04   3.6458616e-04   4.6286135e-04   4.9068849e-04   4.2205540e-04   9.3592738e-04   6.3430629e-04   1.5958356e-04   6.6201767e-04   8.2908355e-04
   9.7478932e-04   8.3784107e-04   1.0022457e-03   8.2927197e-04   9.9199160e-04   9.8189409e-04   8.6912292e-04   1.0373446e-03   7.6907378e-04   7.0179033e-04   8.3528820e-04   7.3829229e-04   1.1842503e-03   1.0576808e-03   1.0945699e-03   6.2365329e-04   7.2122941e-04   7.0587086e-04   7.6435530e-04   5.1872403e-04   4.0233310e-04   5.6650076e-04   1.2341342e-03   9.3439285e-04   1.3919900e-03   8.3712634e-04   4.9473613e-04   8.6427800e-04   6.6369213e-04   6.7198533e-04   8.1861229e-04   9.2040643e-04   8.1659335e-04   8.8929682e-04   8.0060994e-04   6.9942221e-04   8.9885818e-04   7.7923614e-04   7.9505629e-04   9.5182558e-04   5.3760281e-04   2.3428675e-04   5.8570533e-04   4.4868127e-04   7.2318275e-04   9.4805413e-04   4.4082140e-04   5.2996323e-04   6.4121967e-04   6.3394738e-04
   7.3619676e-04   5.1772583e-04   6.8144215e-04   4.8898906e-04   6.8671035e-04   4.4157819e-04   4.3229864e-04   5.9457577e-04   2.2623208e-04   3.9925490e-04   5.4525677e-04   4.0101577e-04   8.4422529e-04   7.4675225e-04   9.1964786e-04   4.1630748e-04   5.3978089e-04   5.2307086e-04  -4.7313116e-04   2.8346592e-04   1.0810976e-04   4.7453473e-04   5.7974627e-04   1.2782158e-03   9.2940056e-04   4.8094726e-04   4.3274291e-04   6.8777619e-04   3.3416317e-04   4.1825930e-04   5.5066083e-04   5.3603348e-04   2.5977282e-04   5.9737312e-04   5.6228135e-04   3.3638917e-04   6.1430444e-04   5.8311335e-04   5.3634233e-04   7.4427068e-04   3.6470286e-04   5.3532654e-05   3.8028858e-04   1.4368012e-03  -1.8822367e-04   6.5923505e-04   1.8531407e-04   3.3463613e-05  -1.9787921e-04   3.9038432e-04
   4.6914318e-04   1.5922710e-04   3.6236303e-04   1.4205577e-04   3.4513071e-04   8.4204294e-05   1.5312538e-04   1.9107053e-04   7.5565978e-05   2.1565435e-04   3.3117659e-04   1.8031018e-04   7.2848314e-04   5.8730668e-04   6.9380639e-04   3.6919725e-04   4.1919545e-04   4.7047794e-04   2.4263172e-04   4.3292795e-04   2.7842584e-04   6.4146932e-04   1.4394593e-03   1.8930872e-03   1.2684189e-03   1.1991228e-03   5.2089838e-04   7.6521043e-04   6.9282204e-04   6.2706362e-04   5.8311666e-04   9.0812199e-04   6.4042164e-04   1.0298656e-03   9.4684801e-04   8.9898158e-04   9.4243867e-04   7.4717705e-04   7.9455186e-04   9.8253507e-04   6.2828965e-04   4.0583988e-04   7.7893701e-04  -2.2556551e-04   3.5623740e-04   1.0925829e-03   6.1215466e-04   1.0781098e-03   2.8765469e-04   8.5969229e-04
   6.6205167e-04   9.8085625e-04   1.0431795e-03   8.5895887e-04   9.6442952e-04   9.6657407e-04   8.7000243e-04   1.0233674e-03   6.2182330e-04   7.3092390e-04   9.0486545e-04   8.5999287e-04   1.2251876e-03   9.6535083e-04   1.1344439e-03   5.7373801e-04   6.7967502e-04   6.5404677e-04   7.7195943e-04   6.9971092e-04   4.5272970e-04   7.7915675e-04   1.1523799e-03   1.0729798e-03   1.1901469e-03   1.0095272e-03   5.9572817e-04   8.0207799e-04   7.4441358e-04   6.8417541e-04   9.1434701e-04   9.7852771e-04   7.1888661e-04   1.0571927e-03   1.0006450e-03   9.2181645e-04   9.0859312e-04   8.1151706e-04   7.9130719e-04   1.0207513e-03   6.9757586e-04   2.1456297e-04   8.3307328e-04   2.1394726e-03   3.4348396e-04   1.0605352e-03   6.3346571e-04   3.1114049e-04   4.3063157e-04   9.1960392e-04
   8.8886847e-04   8.3696062e-04   8.9774659e-04   7.3797745e-04   8.0585701e-04   7.9442235e-04   6.8275747e-04   7.1056403e-04   4.2154096e-04   6.2734139e-04   8.2923123e-04   7.0464716e-04   1.1300255e-03   9.3376375e-04   1.1749875e-03   5.0280034e-04   6.7059335e-04   5.5197510e-04   7.5672823e-04   6.4955367e-04   2.6139669e-04   5.8773695e-04   7.3755038e-04   6.4644311e-04   9.3870808e-04   8.7877485e-04   4.2387118e-04   6.8251940e-04   5.9331057e-04   4.9431564e-04   7.8273931e-04   7.3872518e-04   6.0958805e-04   7.3172606e-04   6.4510712e-04   6.3520303e-04   7.0389837e-04   6.1716151e-04   5.7597866e-04   7.6723652e-04   3.7226951e-04   3.1938564e-04   4.1076794e-04   5.9393590e-04  -4.2056934e-05   6.6436926e-04   4.3583126e-04   1.0437033e-03   1.6278934e-04   6.6332263e-04
   6.7996798e-04   4.5941098e-04   4.4691272e-04   4.1460275e-04   4.6359934e-04   2.8661080e-04   3.6849902e-04   3.8614566e-04   2.3073813e-05   3.6194792e-04   5.1496475e-04   3.7516773e-04   8.9363882e-04   6.9794076e-04   8.3055603e-04   3.0033675e-04   5.6238426e-04   4.3066876e-04  -1.6418104e-04   3.8941752e-04   4.0249251e-05   3.6531678e-04   5.0771679e-04   7.4385869e-04   8.7582198e-04   5.0838111e-04   1.9798792e-04   5.9116969e-04   4.7730157e-04   2.7256925e-04   5.3294288e-04   5.5898505e-04   3.4414625e-04   4.0012837e-04   4.3809091e-04   2.1368742e-04   5.1949016e-04   4.1414134e-04   3.2624835e-04   4.1708315e-04   2.2726887e-04  -1.1135066e-05  -2.0966565e-04   5.9264409e-04  -1.9461637e-04   4.9658766e-04   1.2769997e-04   1.1009111e-04   6.6233834e-04   3.7933901e-04
   4.0009548e-04   3.8496710e-04   4.7046904e-04   4.5194718e-04   6.0248672e-04   6.4437778e-04   5.1702751e-04   6.8302162e-04   5.9451960e-04   6.0664141e-04   7.8625343e-04   7.9816859e-04   1.1712312e-03   9.3160279e-04   9.9863589e-04   4.9258757e-04   7.2343595e-04   6.1871886e-04   8.8304695e-04   7.8838778e-04   4.9458886e-04   7.8924239e-04   1.2540630e-03   1.3034646e-03   1.1514418e-03   1.1024805e-03   3.6085455e-04   9.1214542e-04   6.7398488e-04   6.2543241e-04   9.2579535e-04   8.4161561e-04   6.7294738e-04   9.4738783e-04   9.8658644e-04   9.9452422e-04   9.5370359e-04   7.5056648e-04   7.2790380e-04   1.2800354e-03   8.0561975e-04   3.3801812e-04   9.1732264e-04   6.9021137e-04   2.3259035e-04   8.9373987e-04   7.0246059e-04   7.8899175e-04   1.1055183e-03   9.1688626e-04
   9.2414673e-04   9.6506416e-04   9.7538083e-04   8.8366080e-04   8.6899142e-04   9.1746630e-04   7.5033429e-04   8.0697576e-04   5.2688731e-04   7.5209356e-04   9.7955391e-04   9.0891100e-04   1.3378600e-03   1.0337107e-03   1.0478970e-03   5.7597645e-04   8.9352595e-04   7.4165536e-04   3.6321176e-04   9.8192238e-04   4.8376597e-04   7.3660177e-04   1.2990988e-03   1.7294472e-03   1.1635516e-03   1.3807515e-03   4.7650369e-04   7.7655941e-04   6.8754301e-04   6.4349518e-04   8.9151628e-04   8.3045510e-04   6.6630612e-04   9.1489888e-04   9.0848131e-04   8.5192872e-04   8.9519646e-04   7.3152344e-04   6.8456249e-04   7.8366220e-04   6.3647761e-04   3.5090471e-04   8.2352123e-04   7.4737967e-04   4.9091934e-04   8.1527256e-04   6.6530285e-04   8.2623801e-04   6.7957182e-04   7.7732687e-04
   9.5925620e-04   7.9378649e-04   8.2925236e-04   6.9000717e-04   5.5200129e-04   5.5061933e-04   6.1761262e-04   5.4301019e-04   2.7465652e-04   5.3185562e-04   7.5743109e-04   6.1597000e-04   1.1522606e-03   8.4575720e-04   9.4835547e-04   4.5729647e-04   8.2200731e-04   6.5089500e-04   3.7314094e-05   7.3028542e-04   2.4626884e-04   3.4879427e-04   7.2966673e-04   3.9088351e-04   4.9488817e-04   5.4794468e-04   2.9924681e-04   7.4790814e-04   4.5689996e-04   3.6957732e-04   6.1065651e-04   6.4900023e-04   2.7683435e-04   4.9316743e-04   4.5138082e-04   5.8842794e-04   5.8099267e-04   5.1308953e-04   3.9264775e-04   7.1374804e-04   3.2847084e-04   1.0025002e-04   3.6510843e-04  -3.9701065e-04   6.3459207e-05   6.5326097e-04   4.7797387e-04   3.0162156e-04   3.6815382e-04   4.5920498e-04
   5.9396710e-04   4.1712471e-04   5.4930506e-04   3.0997355e-04   2.3189554e-04   1.1012943e-04   2.0262711e-04   3.7435736e-04  -2.2026979e-05   2.3998665e-04   4.0120594e-04   2.8520479e-04   7.6882530e-04   5.3628173e-04   6.8993645e-04   2.4242750e-04   5.8929477e-04   4.1194065e-04  -3.9098825e-04   4.5044534e-04   2.1797801e-05   2.4335002e-04   4.8241176e-04  -5.8877020e-04   7.3595287e-04   1.7296089e-04   1.9755444e-04   4.7888371e-04   3.0383267e-04   9.7606731e-05   1.9978244e-04   1.3512044e-04   1.8764459e-04   8.4492225e-05   2.4148035e-04   2.3067578e-04   3.1662427e-04   2.1176090e-04   7.0811431e-05   2.0364820e-04   1.0098268e-04  -8.9789020e-05  -2.9224303e-04   8.3413272e-04  -1.2038804e-04   2.7527919e-04   5.2263140e-04  -1.6794623e-04   4.9163232e-04   6.0177559e-04
   5.2553159e-04   8.0826541e-04   9.2958525e-04   6.3681917e-04   7.0797408e-04   7.9193246e-04   7.2057248e-04   7.5878040e-04   5.1823753e-04   6.5498700e-04   7.6584879e-04   7.0682220e-04   1.0711866e-03   8.1283023e-04   9.2983100e-04   5.1280303e-04   7.4783654e-04   6.3452998e-04   4.4334121e-04   8.5260626e-04   4.9703318e-04   4.6535057e-04   1.1818641e-03   1.3966357e-03   1.5775055e-03   1.1181436e-03   3.9288588e-04   8.4483123e-04   6.8003696e-04   5.1428896e-04   7.6736999e-04   8.2051364e-04   5.2682962e-04   8.6776342e-04   8.0844801e-04   9.0046210e-04   7.7515183e-04   5.9029547e-04   5.7123380e-04   9.7460177e-04   4.3312955e-04   4.5145047e-04   3.4834887e-04   7.4654707e-04   1.5272339e-07   4.1221498e-04   6.6649856e-04   5.6553772e-04   6.4567244e-04   7.4945821e-04
   8.5875677e-04   9.0441643e-04   1.0222313e-03   7.2903157e-04   7.5656729e-04   8.3493680e-04   7.0654380e-04   6.7135779e-04   2.2077626e-04   6.2179583e-04   7.3299691e-04   6.9287186e-04   1.1067422e-03   8.7480893e-04   9.7252754e-04   5.8367249e-04   8.6547475e-04   6.7960023e-04   4.8756073e-04   8.1667089e-04   3.6645340e-04   2.9954201e-04   1.1059719e-03   1.2576717e-03   1.1785756e-03   8.1632443e-04   4.4275582e-04   8.2195061e-04   6.0150190e-04   4.1093343e-04   7.2399888e-04   6.3619576e-04   6.3382642e-04   6.4962107e-04   6.2042347e-04   7.1512937e-04   7.4640888e-04   5.0328934e-04   4.4179015e-04   7.9193019e-04   2.9401243e-04   2.6935979e-04   3.8098771e-04   4.3721229e-04  -2.4442570e-04   5.5226538e-04   5.3386128e-04   2.7563030e-04   2.3558269e-04   4.5783803e-04
   5.3565216e-04   5.3542416e-04   7.4996962e-04   4.1020440e-04   4.7236116e-04   2.9961384e-04   3.2739693e-04   3.3987011e-04   1.3168737e-04   3.0581089e-04   3.6904603e-04   2.8951248e-04   7.0773443e-04   5.8602041e-04   5.4933148e-04   3.5510058e-04   6.5711094e-04   4.9993832e-04   3.4112384e-04   5.2797911e-04   1.1863301e-04   1.2022740e-04   4.6256030e-04   7.5122557e-04   1.0464510e-03   3.2310610e-04   2.8966626e-04   5.8837561e-04   5.4336479e-04   1.8732097e-04   4.5627158e-04   4.0908006e-04   1.8914833e-04   3.0213909e-04   4.5945647e-04   3.7131348e-04   4.7567312e-04   3.4323326e-04   2.2697222e-04   3.2946034e-05   5.3805066e-05   6.6862412e-06  -2.3990076e-04   4.6310262e-04  -6.2476366e-04   3.6175965e-04   2.4657010e-04   2.8198707e-04  -2.7897896e-04   2.3114607e-04
   3.1134338e-04   1.6384630e-04   3.8281127e-04   6.3702988e-05   1.2028427e-04  -5.0375434e-07   3.4797209e-05   8.0584810e-05  -1.7659116e-04   4.1846288e-06   4.4901532e-05  -7.6123133e-06   4.9366604e-04   3.4527536e-04   4.4780000e-04   1.8960390e-04   4.9070269e-04   3.3360644e-04   2.5310519e-04   2.5997899e-04  -5.4162902e-05   2.4182401e-07   5.0652074e-04   3.0174258e-04   5.7505944e-04   3.2194669e-04   2.3023773e-04   5.9380505e-04   4.8468472e-04   2.0637001e-04   4.1250334e-04   5.5499253e-04   3.1220776e-04   5.4284395e-04   6.8742019e-04   6.7090755e-04   6.7594869e-04   4.5026580e-04   4.8604881e-04   7.2452670e-04   4.0698354e-04   4.3197960e-04   4.3338197e-04   6.3470524e-04   2.8384646e-04   5.0981989e-04   5.6142727e-04   9.8406442e-04   2.9460172e-04   4.6931164e-04
   8.3660928e-04   7.5427565e-04   8.6804538e-04   6.2335463e-04   6.3043495e-04   8.7813637e-04   6.1549211e-04   6.6360499e-04   3.5639846e-04   4.8557206e-04   5.0990202e-04   5.1857025e-04   8.4522530e-04   6.9347111e-04   8.6371711e-04   4.8535826e-04   7.5522007e-04   5.3988129e-04   2.2828409e-04   5.7683245e-04   2.3628393e-04   2.2338945e-04   8.1710320e-04   1.2497372e-03   6.3947804e-04   7.2902377e-04   2.6465242e-04   6.4491056e-04   6.1519991e-04   4.0868970e-04   6.5087090e-04   5.1191356e-04   5.4223218e-04   4.9944269e-04   7.5015530e-04   7.5107842e-04   6.2050013e-04   4.8270149e-04   5.7220348e-04   1.0582580e-03   4.2478309e-04   6.0720919e-05   9.6575409e-04   1.2548350e-03  -2.9211224e-04   6.8133668e-04   5.5592094e-04   2.5466084e-04   5.7350594e-04   5.2518822e-04
   7.6568458e-04   5.9568253e-04   7.4309809e-04   4.9903709e-04   5.4311793e-04   5.4966763e-04   5.4991117e-04   4.8458311e-04   3.5360793e-04   3.7070786e-04   3.6017320e-04   3.7651745e-04   7.1152800e-04   6.2050368e-04   6.5091503e-04   4.2694263e-04   7.2947220e-04   5.6310109e-04  -1.9824188e-04   4.0586526e-04   7.2117662e-05   1.1946914e-04   4.5858958e-04  -3.9892417e-05   6.4459827e-04   4.5363687e-04   3.0168766e-04   6.2020117e-04   4.7810722e-04   2.5111827e-04   3.0661933e-04   4.0774737e-04   1.7739572e-04   2.4602521e-04   4.4455653e-04   3.8724684e-04   5.0451083e-04   3.2425221e-04   3.2217719e-04   1.8482941e-04   1.2299792e-04   4.6238983e-06   7.5108104e-04  -2.8036037e-04  -7.1224879e-04   5.1511975e-04   2.8477257e-04   1.2850561e-04   2.9833132e-05   1.2744960e-04
   2.9527338e-04   9.4747673e-05   4.0882095e-04   8.6056200e-05   1.0993030e-04   5.6582718e-05   1.4227646e-04   1.6238230e-04  -1.6199188e-04   5.7202651e-05  -7.6719225e-05   2.3376706e-05   3.8621385e-04   2.6866043e-04   3.8064123e-04   2.3477215e-04   4.1061337e-04   3.3743519e-04  -4.3596432e-04   9.1657908e-05  -1.9072586e-04  -1.9502557e-04  -2.4149937e-04  -2.5087322e-05   8.1287278e-04  -2.7913786e-05   1.7775910e-04   5.2429026e-04   3.1555566e-04   5.5608794e-05   9.6344411e-05   8.7670807e-05  -2.0027391e-04  -9.9587087e-05   2.0020104e-04   3.3574826e-05   2.7433384e-04   9.9868907e-05   3.0067422e-05  -1.8406105e-04  -1.1278137e-04  -1.9389778e-04  -2.9140347e-05  -9.4549492e-04  -3.6807399e-04  -1.2311744e-04   2.1575486e-04   4.0572524e-04   4.0322301e-04   3.1782052e-04
   6.5092603e-04   4.0810864e-04   5.6021579e-04   3.8559191e-04   5.4446229e-04   5.2889402e-04   5.5807602e-04   4.9291243e-04   1.5922920e-04   3.8610279e-04   2.2386704e-04   3.5196129e-04   5.4789393e-04   4.2507239e-04   4.9488398e-04   3.4229952e-04   5.1689812e-04   4.6985713e-04   5.7572708e-04   3.0612020e-04   1.3197817e-04   1.3916766e-04   7.4966258e-04   7.1305310e-04   6.5309915e-04   8.7323255e-04   3.3419830e-04   6.4999860e-04   6.5794506e-04   3.8514141e-04   2.2180987e-04   5.1042251e-04   4.4631717e-05   3.1899518e-04   6.8550295e-04   6.4111035e-04   6.3012930e-04   3.6421325e-04   4.8306861e-04   5.0954625e-04   5.0046423e-04   2.7375101e-04   3.2753858e-04  -3.2962070e-04  -2.6394532e-04   4.5528953e-04   3.6572650e-04   4.2310738e-04   1.4069048e-04   3.1484719e-04
   6.7253853e-04   4.2349097e-04   6.8460725e-04   3.4268535e-04   4.5766123e-04   4.8200198e-04   4.9954065e-04   4.4536410e-04   6.5845830e-05   3.2538894e-04   1.3570192e-04   2.6939623e-04   4.4208689e-04   4.3034719e-04   4.1013191e-04   3.1294563e-04   4.7435402e-04   4.3754274e-04  -3.2194424e-04   1.4527363e-04   1.7663064e-05  -4.7620655e-05   4.7812454e-04   5.3154753e-04   7.8128866e-04   5.4086011e-04   2.4818914e-04   5.1527005e-04   5.4192642e-04   3.3187910e-04   6.5364518e-05   4.0353954e-04   2.0288002e-04   1.7394734e-04   4.7916267e-04   4.3360799e-04   5.4144097e-04   2.9738358e-04   3.9309717e-04   8.7696288e-05   1.8534227e-04   7.4215102e-05   2.4273925e-04  -9.5889071e-04  -4.4791124e-04   2.5346971e-04   2.0579257e-04   3.5908306e-05  -1.8156483e-04   5.0372761e-05
   1.3571189e-04  -3.3752028e-06   2.7313520e-04  -5.2872329e-05   1.0054163e-04   2.7573591e-05   8.8686487e-05   7.3242074e-05  -3.6871186e-04   2.6603242e-05  -2.1819158e-04  -1.0109742e-04   3.5113084e-05   7.1997776e-05   2.4501214e-04   1.1279262e-04   1.7101863e-04   2.2541171e-04  -2.3709865e-04  -2.0329062e-04  -2.7973321e-04  -1.4467440e-04  -4.7735850e-04   3.0700982e-04  -1.4705585e-04  -4.0515319e-05   9.6038661e-05   3.6631015e-04   3.2083900e-04   4.1742387e-05  -1.7001432e-04   1.5654812e-04  -1.5808053e-04  -1.8007345e-04   1.7541990e-04   1.1857037e-04   2.7024609e-04  -9.6212079e-06   5.6581917e-05  -1.4355344e-04  -6.2880077e-05  -1.1218715e-04  -1.3417321e-04  -7.7786844e-04  -1.1313728e-04  -5.3415835e-05  -8.3948216e-05  -3.7084735e-04  -4.9815566e-04  -1.5382475e-04
  -2.6148107e-04  -4.2686416e-04  -2.0060218e-04  -4.8687321e-04  -2.8961941e-04  -4.0075218e-04  -2.9777689e-04  -2.8894923e-04  -7.6572999e-04  -2.6801310e-04  -5.6900911e-04  -4.4172892e-04  -3.2856039e-04  -1.9271993e-04   1.2157667e-05  -9.0277623e-05  -1.0786393e-04   4.0646089e-05  -3.2332452e-04  -3.6815394e-04  -2.7361893e-04  -3.4698821e-04   4.8519174e-05   6.1953592e-04   1.4147822e-04   2.9024368e-04   1.8177251e-04   4.2977970e-04   3.9052477e-04   1.0931634e-04  -7.2599905e-05   8.6671971e-05  -7.1811824e-05   1.6063127e-04   4.3100026e-04   5.0067919e-04   4.3069903e-04   2.0371095e-04   4.0553318e-04   3.9623957e-04   3.9380361e-04   1.7668998e-04   1.4213022e-05  -2.1661272e-06  -2.8187959e-04   2.9737406e-04   3.0860468e-04   2.3382904e-04   7.5810601e-04   2.1624360e-04
   2.7177829e-04   3.1001089e-04   3.3614293e-04   1.7481297e-04   4.5315642e-04   4.8892811e-04   4.2680147e-04   4.9874745e-04  -1.1115349e-04   3.0058518e-04   1.3774796e-06   1.8615456e-04   1.2176907e-04   2.0741943e-04   1.4851804e-04   1.6883507e-04   8.1296654e-05   2.4861877e-04  -1.0053316e-04  -1.3606672e-04  -7.9327619e-05   4.7165388e-05   1.8910521e-04   4.0159843e-04   5.5422296e-04   3.0378532e-04   2.4641198e-04   5.2482099e-04   4.4400833e-04   2.8851759e-04  -3.1362626e-05   2.3595187e-04   3.7219885e-05   2.3062235e-04   5.1931874e-04   5.1098526e-04   5.2313943e-04   2.0101127e-04   3.5912768e-04   4.6012554e-04   2.6974146e-04   4.9003927e-05   1.1941294e-04  -1.8048662e-05   2.8257555e-04   1.4446239e-04   2.6684289e-04  -1.3428886e-04   9.4980351e-05   2.4033416e-04
   1.2286197e-04   1.0824388e-04   2.4944620e-04   2.6088424e-05   2.6147827e-04   1.9318497e-04   1.5966056e-04   1.3514733e-04  -5.7820162e-05   1.7278228e-04  -1.3314874e-04   3.4728153e-05  -9.8792072e-05   8.7273926e-05   1.1727858e-05   7.1057788e-05   5.8074470e-06   1.8822346e-04  -5.1337165e-06  -3.1498278e-04  -2.1472907e-04  -1.0004736e-04   4.7803888e-04  -4.7601218e-04   4.3332996e-04   9.7320502e-05   4.4378496e-05   5.0686498e-04   3.2597251e-04   1.1143620e-04  -1.8282369e-04   2.0902262e-04  -1.6574694e-04  -9.6536060e-05   2.3406610e-04   1.7790872e-04   3.6719957e-04  -4.5646239e-06   8.9985224e-05   6.1947612e-05  -6.2838313e-05  -1.5234076e-04   2.9834808e-04   9.0493568e-06  -7.4245268e-05   1.0945732e-04  -1.2457278e-04  -1.5270224e-04   3.5685476e-05  -2.5188422e-04
  -1.2043164e-05  -3.2205385e-04  -1.4398369e-04  -2.8800280e-04  -1.2391129e-04  -2.9539908e-04  -2.0235153e-04  -1.3736681e-04  -1.9621062e-04  -1.5936460e-04  -3.8888474e-04  -3.4736321e-04  -3.8168023e-04  -2.0383472e-04  -9.5135496e-05  -1.6838835e-04  -2.5201525e-04  -1.0934150e-04  -3.2828414e-04  -5.7263707e-04  -3.6237092e-04  -4.1944542e-04  -6.8634679e-04  -8.8882999e-04  -6.3637621e-05  -5.1914033e-04   3.2910692e-05   2.1971794e-04  -1.8942164e-05  -1.3885190e-04  -5.1523000e-04  -4.0423041e-05  -2.1085935e-04  -4.5541511e-04  -1.2116360e-04  -1.9243509e-04   9.4851595e-05  -3.1283050e-04  -2.9061997e-04  -7.5985421e-04  -3.1248695e-04  -3.5163618e-04  -3.7271023e-04  -7.0032786e-04  -8.0176210e-04  -2.4303375e-04  -1.7348559e-04  -2.3959462e-04   1.8977265e-05  -5.8193149e-05
  -2.8590941e-05  -3.4898316e-05   1.5633510e-04  -1.0104857e-05   2.1773405e-04   3.0847554e-04   3.0233420e-04   3.1541195e-04  -1.2684654e-04   1.9859429e-04  -3.9715474e-06   7.8009443e-06  -1.1229480e-04  -8.8859349e-07  -7.8515754e-05   1.9895304e-05  -2.4971247e-04   3.7436344e-05  -2.0568134e-04  -3.0081588e-04  -1.1625674e-05  -8.3365085e-05   4.1812342e-05   4.4920843e-04   7.2818075e-04   2.3728568e-04   2.2294400e-04   5.3652661e-04   3.2338491e-04   2.0830448e-04  -1.7682064e-04   2.0003656e-04   1.6589538e-04   1.2351508e-04   2.6889829e-04   3.8481536e-04   5.1309622e-04   1.7336262e-05   2.1568662e-04   8.2343169e-05   1.6350072e-04  -2.5462103e-05   1.8879437e-04  -8.8888581e-04   7.5185439e-05   7.9806450e-05   3.5101719e-05   2.3512448e-05   3.3938666e-04   8.5799678e-05
   1.0522290e-04   1.0369666e-04   1.6799498e-04   9.5119656e-05   2.1414811e-04   2.3320856e-04   2.1687413e-04   2.5009544e-04  -1.5326160e-04   1.9677446e-04  -2.7662420e-05  -3.8133805e-06  -1.6806203e-04  -9.9543095e-06  -2.1267913e-05   7.5662042e-06  -2.5404451e-04   7.5453759e-06  -2.6946366e-04  -3.1365181e-04  -9.7299613e-05  -2.3071494e-04  -1.5183233e-04  -2.0052135e-04   3.9348024e-04   4.5138131e-05   5.4818323e-05   4.8357717e-04   2.8432440e-04   1.2008569e-04  -2.9260563e-04   3.9250299e-05   7.0203998e-05  -5.7358120e-05   1.9175133e-04   7.8788828e-05   3.3082408e-04  -2.0858697e-05   1.4285113e-04  -4.2599084e-05   2.3113456e-05  -1.5616187e-04   1.5418835e-04   7.2393072e-04  -1.9936846e-04   2.6163473e-04  -8.0979691e-05  -4.6133064e-04  -1.4388276e-04  -5.2546864e-05
  -5.4955628e-05  -2.0231963e-04  -2.2121491e-04  -2.5861582e-04  -1.2709004e-04  -1.9532510e-04  -1.1328499e-04  -1.2597209e-04  -2.7487412e-04  -7.2477254e-05  -3.1134780e-04  -3.3402751e-04  -4.0222827e-04  -2.2037416e-04  -2.5415773e-04  -2.2587989e-04  -4.3615352e-04  -1.9741728e-04   1.8979162e-04  -6.3481653e-04  -3.3571638e-04  -3.6676126e-04  -1.8341761e-04  -2.9303832e-04  -2.2520925e-04  -3.6462801e-04  -1.1082985e-04   1.9963145e-04   5.1504132e-05  -9.5954238e-05  -6.4932770e-04  -3.4335430e-04  -2.4758032e-04  -3.9263951e-04  -4.8379909e-05  -1.0993268e-04   1.2756184e-04  -2.5354655e-04  -1.8727280e-04  -5.1381165e-04  -2.3161713e-04  -1.8840740e-04  -2.7213694e-04  -2.2624101e-04  -9.7828370e-04  -6.5041226e-05  -3.5104100e-04   7.6491087e-05  -3.9010006e-04  -4.3051786e-04
  -4.4604958e-04  -5.6793267e-04  -4.0631960e-04  -6.3697470e-04  -3.8439326e-04  -4.4345998e-04  -3.1736979e-04  -4.5191686e-04  -3.3913986e-04  -5.5671146e-05  -3.2967224e-04  -3.6095493e-04  -4.5034513e-04  -2.8826162e-04  -5.9475638e-05  -1.7915734e-04  -4.9115054e-04  -1.6735437e-04   1.0904745e-04  -3.7153368e-04   2.1297371e-06  -1.3415974e-04   1.0668975e-04   5.1226985e-04   3.0827156e-04   1.5580023e-04   2.1078009e-05   4.3784673e-04   1.9864630e-05   8.8398760e-05  -3.3772792e-04   6.0636397e-05   4.8437374e-04   5.7800389e-05   1.2087706e-04   2.3680426e-04   3.6260602e-04  -8.9428140e-05   1.7587830e-04   2.1687579e-04   4.3275435e-05  -7.4142081e-05   8.6880929e-05   4.9160316e-04   3.8635026e-04   3.4667205e-04   6.5692489e-05  -1.0780281e-04   4.9346047e-05  -7.7974837e-05
   6.2795425e-06   9.0242938e-05   2.4253776e-04  -1.3282571e-04   3.8188580e-05   5.9553309e-05   5.1406063e-05   1.4716446e-04   1.0231605e-04   1.9795934e-04   2.2357859e-05  -9.7238240e-05  -2.4617338e-04  -9.8308672e-05  -7.4535194e-05  -1.1522236e-04  -4.4192866e-04  -1.3364491e-04   3.6189460e-05  -2.8858686e-04  -1.4709968e-05  -4.0879438e-04  -2.7726201e-04  -3.3335105e-04   4.8095175e-05   1.5420470e-04  -2.6764571e-06   4.5323878e-04   2.0780051e-05   7.0283051e-05  -2.8294852e-04   9.7603603e-05  -1.3000361e-04  -5.9419432e-05   7.4454649e-05   1.3600502e-04   3.8139685e-04  -9.8632401e-05   1.0071207e-04   2.1666642e-04  -5.2180148e-05  -2.9375844e-05  -1.2026909e-04  -4.9926271e-04   4.0873021e-04   1.2145218e-04   5.8178408e-05   8.7856322e-05  -2.1628645e-04   5.7021539e-06
   1.6883283e-05  -1.1275309e-05  -1.6253728e-04  -2.7499619e-04  -2.2450819e-04  -1.4328747e-04  -1.0883899e-04  -1.9467070e-05  -3.2514139e-04   1.1571554e-04  -1.0811704e-04  -1.8723533e-04  -3.2486240e-04  -2.0680018e-04  -1.9112273e-04  -2.1705148e-04  -4.4638742e-04  -2.2567259e-04  -8.3422776e-05  -4.1284866e-04  -1.8135738e-04  -4.0236922e-04  -6.3559675e-04  -7.5196236e-04   4.0058326e-04  -5.5012089e-04  -1.4361598e-04   2.0930244e-04  -7.8281533e-05  -1.5221140e-04  -5.8113277e-04  -5.0245214e-04  -5.7723621e-05  -4.0946429e-04  -1.2362289e-05  -1.3419166e-04   1.4155524e-04  -3.9228596e-04  -1.8187007e-04  -5.4394692e-04  -4.0034845e-04  -1.5104706e-04  -9.4211093e-05  -9.3305192e-04  -3.9521701e-04  -3.0906536e-04  -2.4607900e-04  -2.7282053e-04  -1.1205240e-04  -3.1019605e-04
  -2.5546565e-04  -3.5907302e-04  -3.1010894e-04  -6.6728558e-04  -4.9473741e-04  -4.6139452e-04  -2.1189151e-04  -3.0989223e-04  -3.4439447e-04  -1.3652933e-04  -3.5176068e-04  -6.0551602e-04  -5.6349766e-04  -4.1609377e-04  -3.6362038e-04  -3.3142467e-04  -5.1594176e-04  -3.6539664e-04  -3.6624901e-04  -3.6532208e-04  -1.5583276e-04  -5.0254219e-04  -4.5001734e-04   7.0044487e-05  -1.7886661e-04  -9.8737262e-05  -1.2558547e-04   2.6972499e-04   4.4237084e-05  -6.8915244e-05  -3.8124016e-04  -7.8674610e-05   1.7147740e-04   4.2428869e-06   1.8174209e-04   1.5992495e-04   2.7147238e-04  -1.6212370e-04   1.4607007e-04   3.3210622e-04  -7.2496252e-05  -1.9201805e-04  -3.5532645e-04   3.7665144e-04   3.2920929e-04   1.8160116e-04   8.4299994e-05  -2.6671452e-04   9.6878975e-05   2.4348616e-05
  -3.5602741e-05   3.2219494e-04   3.7375634e-04  -9.9289791e-05   7.7741381e-05   3.5941895e-04   2.3865858e-04   2.3896895e-04   3.7448600e-04   2.4831627e-04   7.9933714e-05  -2.6959980e-05  -1.6872001e-04  -8.6231004e-05  -4.8239632e-05  -1.2053988e-04  -2.6758024e-04  -8.8470973e-05   5.3359271e-04  -5.1404852e-05  -3.6072710e-05  -2.3007568e-04  -3.1264857e-04  -1.6659523e-04   6.2429276e-04   8.4712941e-05  -7.3942458e-05   2.9097302e-04  -8.5515485e-06   8.5526772e-05  -1.9455764e-04   2.6477026e-05   1.4594008e-04   1.0956800e-04   2.1435822e-04   1.4015034e-04   3.5411638e-04  -1.2934497e-04   1.7425179e-04   2.2451789e-04   5.7970155e-05  -2.4462407e-04  -1.4193940e-04   9.2309801e-04  -1.7083650e-05   3.3074210e-04   1.0498306e-04   5.0579495e-04   1.9270014e-04   1.5645637e-04
   1.0940753e-04   2.4278324e-04   1.0007498e-04  -7.6841075e-05  -4.4045355e-05   1.0885999e-04   1.1016323e-04   1.5513168e-04  -2.4900539e-04   1.4579053e-04   3.8973430e-06  -1.1185472e-04  -1.9235235e-04  -8.3805106e-05   1.2612190e-05  -1.1997388e-04  -1.8545748e-04  -9.0084315e-05  -2.4762022e-04  -9.8952129e-05  -1.4957994e-04  -2.7046300e-04  -4.3762551e-04  -2.6766793e-04  -1.1474208e-04  -3.9572165e-05  -9.9539764e-05   7.6268254e-05  -1.0761652e-05  -7.8128087e-06  -2.9278410e-04  -2.6369066e-04  -6.5051448e-05  -1.4450186e-04   7.1096350e-05   9.6593059e-05   1.6197383e-04  -2.3348852e-04  -2.3493378e-06  -8.3465595e-05  -1.5226392e-04  -1.3088084e-04  -2.1857338e-04  -8.4496336e-05   4.4596393e-04   2.6970162e-04  -5.2943233e-05  -9.5523292e-06   2.8421990e-05   6.8642643e-05
  -2.0177444e-04  -1.3244551e-04  -2.4944311e-04  -3.4458938e-04  -3.3550622e-04  -2.9094508e-04  -1.1899924e-04  -1.9280074e-04  -3.3784290e-05  -5.5355315e-05  -2.1175730e-04  -3.0342935e-04  -2.8993824e-04  -2.3347120e-04  -2.6363536e-04  -1.8241933e-04  -2.1471734e-04  -1.2506105e-04  -2.2159658e-05  -1.0186924e-05  -4.7976522e-05  -2.3055015e-04  -2.1690789e-04   8.4215112e-04   6.6437642e-04   3.3013136e-04  -9.4335424e-05   4.8951031e-05   1.6364169e-04   1.4871192e-04  -7.1001850e-05   1.1150574e-04   1.3944249e-04   2.2658826e-04   3.4476200e-04   5.1504670e-04   3.4263707e-04   2.9197608e-05   2.9299830e-04   4.6707696e-04   3.0563615e-04   1.3733427e-04   1.4955527e-04   4.5725942e-04   3.2719166e-04   5.7966384e-04   3.1758015e-04   1.1126486e-03   5.2484142e-04   6.0005003e-04
   1.4498367e-04   5.3634512e-04   2.0065084e-04   2.4230342e-04   3.1470452e-04   5.7717302e-04   3.5990280e-04   2.7234908e-04   2.9273020e-04   3.1658716e-04   2.0608377e-04   1.4465267e-04   3.5917732e-05   1.1282368e-04   1.1768720e-04   1.6325192e-05   3.6308742e-05   6.1106846e-05   5.8069443e-05   2.7761274e-04   5.2181709e-05  -1.1111231e-04   1.1559187e-04  -1.4635659e-04   7.6223182e-04   2.7178149e-04  -1.6533602e-05   1.3279500e-04   1.8939572e-04   2.1035945e-04   1.0648882e-04   3.1484314e-04  -4.6228983e-05   2.4110179e-04   4.0953438e-04   4.1985672e-04   4.2465699e-04   3.4291570e-05   1.8969226e-04   2.8717783e-04   2.8512574e-04   1.3555790e-04   4.2847137e-04  -2.8022489e-05   9.6261349e-05   3.6086206e-04   2.7064406e-04   1.4460234e-04   2.4848364e-04   3.3477446e-04
   2.7304146e-04   4.1262590e-04   3.6557179e-04   1.5446090e-04   1.8722685e-04   3.0606842e-04   2.3918101e-04   2.5161277e-04   1.7759754e-04   2.1217347e-04   1.2904566e-04   3.2907410e-05   5.8446167e-05   4.5554407e-05  -1.3945215e-05  -1.4889251e-05   4.9019858e-05   1.0097085e-04  -4.9554445e-05   1.9853598e-04  -4.9005197e-05  -1.1103581e-04  -3.5554843e-04   1.1615701e-04   9.5289637e-05   4.7120069e-05  -2.3817764e-05   1.6824369e-04   7.2269810e-05   5.7211280e-05   1.4816488e-04  -3.5127596e-05  -1.9581208e-05  -7.1747243e-05   7.4249438e-05   1.8710698e-04   2.0145123e-04  -1.2543636e-04  -3.9163075e-05  -9.5385940e-06  -7.2831710e-05   9.0098380e-05   3.7149247e-04  -1.0771988e-04   3.5156663e-05   1.6453008e-04   1.9788793e-05  -1.5994461e-04   5.4549344e-04   9.5958108e-05
   1.1244405e-04   1.2394979e-05  -2.9412782e-05  -2.1147043e-04  -1.4139374e-04  -1.2471058e-04  -4.7609446e-06  -8.4003157e-05  -7.8180892e-05  -2.8299275e-05  -1.2474252e-04  -2.8238978e-04  -1.5607239e-04  -1.3258563e-04  -2.6373385e-04  -8.0039128e-05  -3.4249239e-05  -1.0007519e-05   1.0026404e-04   2.5391756e-04   7.8859310e-05  -1.4708945e-04   1.4143213e-04   3.3281409e-04   3.7623869e-04   4.5233159e-04   4.6487865e-05   1.2280239e-04   2.0654517e-04   1.9253210e-04   2.1051495e-04   3.7833367e-04   8.3335864e-05   3.8509007e-04   3.5177756e-04   5.0422183e-04   4.9464690e-04   8.3988853e-05   2.5972110e-04   7.6578825e-04   4.0268491e-04   3.6681647e-04   4.2767625e-04   9.8760636e-04   4.6173911e-04   3.7293325e-04   4.2120143e-04   1.1567520e-03   7.3863351e-04   5.3604919e-04
   5.8718433e-04   7.4974587e-04   5.9586921e-04   4.5732717e-04   5.1319465e-04   8.6841278e-04   6.3334353e-04   4.8970670e-04   4.8112948e-04   4.2187193e-04   3.6843761e-04   3.0368587e-04   2.5589150e-04   2.4149970e-04   1.1298629e-04   2.3215981e-04   3.0213484e-04   2.7307798e-04   6.7016529e-04   5.3131027e-04   2.4752761e-04   2.8303725e-04   1.1511286e-04   1.0998646e-03   5.4224336e-04   6.1568676e-04  -1.8127879e-05   1.4362788e-04   2.5633266e-04   2.9589815e-04   4.6753214e-04   4.4896995e-04   4.0168760e-04   3.7683695e-04   5.8904861e-04   5.6793727e-04   4.6235547e-04   1.8432531e-04   4.1245716e-04   5.6638749e-04   3.5679576e-04   4.4378795e-04   8.8475435e-04   4.6441553e-04   4.7268250e-04   5.3464237e-04   4.4671068e-04   5.9633888e-04   6.2857120e-04   5.0132995e-04
   4.0664856e-04   6.0969882e-04   5.5481261e-04   3.8957506e-04   4.2151791e-04   5.3825218e-04   4.6019422e-04   3.2859997e-04   2.8565331e-04   3.0006489e-04   2.1372885e-04   1.0776734e-04   1.6824264e-04   1.8724172e-04   2.2757145e-05   1.8334872e-04   3.2803399e-04   1.6008447e-04   7.2203018e-04   4.3752114e-04   8.2558407e-05   5.0231822e-05  -1.0261309e-04   5.1308126e-04   9.2215807e-05   1.9775759e-04   2.3977867e-05   1.1151620e-05   1.1852821e-04   1.3679384e-04   2.8751147e-04   3.9830247e-05   6.2444567e-05   9.6332929e-05   2.4539817e-04   2.9672825e-04   2.5759067e-04   3.6601545e-05   1.2369188e-04   8.8876637e-05   2.3825055e-04   1.5027379e-04  -6.4306405e-05   1.4943754e-03  -1.0644316e-04   1.0700185e-04   2.1140557e-04   1.0985882e-03   5.2250660e-05   9.2850285e-05
   2.3124536e-04   1.9337409e-04   2.0276438e-04   5.8495323e-05   7.5743090e-05   2.0211894e-04   2.0939448e-04   9.4951152e-05   3.3741376e-06   3.5554265e-05  -4.1901054e-05  -2.4703256e-04  -7.5836178e-05   1.2961898e-05  -3.5034151e-05   1.3739751e-05   1.2285670e-04   5.9895370e-05   2.8617194e-04   1.0595854e-04  -1.1588708e-04  -1.5499943e-04  -4.1278047e-04  -4.6721203e-04   3.0126548e-04   1.7279136e-04  -1.3108435e-04   6.2619816e-05  -1.0487118e-05  -2.2311215e-05   2.0425711e-04   6.2440406e-05   1.0796740e-04   1.5293353e-04   2.5368092e-04   3.3634945e-04   3.1466514e-04   9.6554046e-05   2.6120699e-04   4.0475131e-04   4.3809053e-04   4.6668641e-04   1.5122724e-04   3.1887874e-04   7.1243232e-04   4.8061344e-04   4.2806138e-04   1.2976829e-04   4.6557726e-04   4.0284786e-04
   6.2800263e-04   8.0439175e-04   1.0126845e-03   6.6371285e-04   7.3072733e-04   9.3857426e-04   7.5700600e-04   6.8612886e-04   6.0610246e-04   5.8173685e-04   4.7010419e-04   4.2888959e-04   4.4007125e-04   4.0394266e-04   1.6028259e-04   3.6573823e-04   4.5425826e-04   3.5803375e-04   1.2343224e-03   7.1058725e-04   3.9669077e-04   4.7415562e-04   5.4684217e-04   9.7504864e-04   9.6227729e-04   6.1340776e-04   1.7349445e-04   8.5399370e-05   3.4369351e-04   3.7207361e-04   4.6487001e-04   6.2402873e-04   5.8831461e-04   4.5985309e-04   5.8536662e-04   6.4670033e-04   5.0171604e-04   2.5877930e-04   4.3597378e-04   8.1570452e-04   5.2145997e-04   5.8950239e-04   5.4398272e-04   1.3386492e-04  -2.8884955e-04   2.8549507e-04   4.9525115e-04   9.4713958e-04   9.1084919e-04   4.2800282e-04
   7.3544128e-04   7.4080040e-04   1.0060644e-03   6.7624374e-04   6.9585850e-04   8.9486490e-04   6.6319539e-04   5.7187211e-04   4.6933524e-04   4.8861676e-04   3.5335205e-04   2.5005860e-04   4.1376040e-04   2.8920235e-04   2.2278543e-04   3.2414118e-04   4.3625297e-04   3.2986078e-04   9.9505705e-04   5.7846052e-04   3.0603050e-04   2.6673652e-04   2.3072780e-04   7.7803124e-04   4.1697462e-04   7.2543870e-04   2.0443782e-04   2.1810296e-04   3.3890351e-04   2.7786932e-04   3.6949181e-04   3.9655052e-04   3.3885275e-04   2.8075054e-04   4.2151936e-04   2.9780311e-04   3.8269380e-04   1.2064906e-04   2.7359781e-04   5.5316457e-04   1.7283388e-04   4.8189759e-04   8.2634529e-04   2.0950990e-04   7.1542792e-04   2.6918005e-04   2.5174595e-04   1.0324897e-03   6.8315491e-04   1.6263673e-04
   3.8125503e-04   3.0145934e-04   5.1964319e-04   2.7564692e-04   2.3823086e-04   3.2616701e-04   2.9209882e-04   1.2240613e-04   5.4119464e-05   1.7701830e-04   8.6183354e-06  -1.1345682e-04  -2.4946672e-05   8.8078174e-05  -1.1310481e-04   1.6746030e-04   2.3772121e-04   1.2767350e-04   4.9034797e-04   3.2270697e-04   6.9889546e-05  -1.3015731e-04   1.2056985e-04  -1.8258408e-05   2.8338714e-04   5.9143695e-05   9.6972572e-06   6.6363908e-05   1.6683497e-04   3.5958205e-05   4.5089822e-05   2.3115805e-04   3.8648536e-04  -4.3234144e-05   7.6178294e-05   7.1850132e-05   1.7587349e-04  -8.9601825e-05   5.6871163e-06   7.0085443e-05   4.5469020e-05   1.1148526e-04   3.4104139e-04   1.3238247e-03   9.7526623e-05  -1.0635475e-04  -7.2409712e-05   8.7801367e-05   4.2933525e-04  -1.6985156e-04
   3.7845180e-04  -6.5601482e-05   2.4233990e-04   4.5442372e-05   1.2024645e-04   2.6874238e-04   2.1432222e-04   1.1780747e-04   6.4625993e-04   3.1370245e-04   6.3408246e-05   2.3766892e-05   9.2782662e-05   1.9322838e-04   7.5238553e-05   2.6078030e-04   2.6252944e-04   2.5634220e-04   5.2661903e-04   5.0782342e-04   3.6413808e-04   1.8652270e-04   4.6163445e-04   1.3646100e-03   9.5170736e-04   7.7210809e-04   2.0157101e-04   2.0848108e-04   3.0961380e-04   3.5652521e-04   2.9596925e-04   6.1847211e-04   2.7096539e-04   5.4015411e-04   5.7081238e-04   5.8452168e-04   4.0665953e-04   1.8448914e-04   3.9406828e-04   5.4913136e-04   5.1884464e-04   4.7186657e-04   5.4986100e-04   8.7277462e-05   3.8146059e-04   5.4698391e-04   4.4783339e-04   2.3414149e-04   3.7514087e-04   4.2630095e-04
   7.2447478e-04   5.8599032e-04   7.2447665e-04   5.8293657e-04   7.7467563e-04   8.0424681e-04   7.6637662e-04   5.4005114e-04   7.2990090e-04   4.6554417e-04   2.2285749e-04   2.0216216e-04   1.2417123e-04   2.8212517e-04   1.7291230e-05   3.2725083e-04   3.3379454e-04   3.0735796e-04   1.3955993e-03   5.0635316e-04   3.6021927e-04   3.2110486e-04   5.1941560e-04   1.1180014e-03   7.2961178e-04   6.7126116e-04   2.4104632e-04   1.8256229e-04   3.9995369e-04   3.4152585e-04   3.2094968e-04   5.2058318e-04   4.0551455e-04   4.2058568e-04   5.7056546e-04   5.6488515e-04   4.5691305e-04   1.7718521e-04   3.7937792e-04   4.4162307e-04   3.8477714e-04   4.4188090e-04   4.2083231e-04   1.0729149e-03   1.8671545e-04   4.9121963e-04   3.5489298e-04   2.5621266e-04   8.0229243e-04   2.0904829e-04
   4.1735574e-04   3.4266495e-04   4.8766800e-04   3.8046829e-04   4.0592320e-04   5.3182378e-04   5.7626719e-04   3.1663600e-04   3.5447816e-04   2.4236909e-04  -1.7675959e-05  -5.2256433e-05  -8.3480052e-05   1.0121328e-04  -1.0359954e-04   1.8615990e-04   1.1773161e-04   1.5165388e-04   3.5024370e-04   2.0225081e-04   1.0269594e-04   9.8366385e-05  -1.4222063e-04  -3.8475016e-04   5.9038121e-04   2.7424630e-04   1.0866792e-04   2.1859158e-05   2.3664036e-04   1.0261845e-04   1.0571387e-04   1.8989127e-04  -4.0512125e-05   2.1702577e-05   1.3288078e-04   8.4662657e-05   1.4610465e-04  -5.5373424e-05   3.5939884e-05  -4.5751349e-05   3.4912788e-05   7.3421754e-05  -7.8263969e-05   5.3311884e-04  -4.1947287e-04  -3.7020212e-04  -1.3380872e-05  -9.8127230e-06   5.1286077e-04  -2.0929705e-04
   7.2409122e-05  -1.3680695e-04   9.5586975e-06  -8.6882312e-05   2.8426526e-05   9.6793396e-05   7.9723606e-05  -7.6347373e-05  -1.2405872e-04  -4.7235921e-05  -3.9756217e-04  -4.4031077e-04  -4.5730374e-04  -2.0525526e-04  -4.1963742e-04  -6.0066890e-05  -2.4307400e-04  -1.6020164e-04   2.5776069e-04  -1.8052581e-04  -1.1605464e-04  -1.0597080e-04  -8.6071517e-04  -1.2404970e-03  -1.4255312e-04  -4.1964310e-04  -8.0285994e-05  -1.3823044e-05  -6.0287151e-05  -1.5367774e-04  -2.9571127e-04  -1.6787826e-04  -4.4778854e-04  -2.9544742e-04  -9.7603093e-05  -6.4564527e-05  -1.2650313e-04  -3.3592741e-04  -2.8462100e-04  -3.7782948e-04  -2.6661440e-04  -1.9338097e-04  -4.5325560e-04  -1.0176034e-03   4.9982453e-04  -4.0460023e-04  -3.9480624e-04  -7.4588158e-04  -1.5607297e-04  -5.9648609e-04
  -2.0690850e-04  -4.4015807e-04  -3.0460915e-05  -2.3996584e-04   9.8481818e-05   3.2845416e-04   1.3529969e-04   1.2199663e-04   2.2338181e-04   1.6836498e-04  -1.9128817e-04  -1.4896014e-04  -2.9169917e-04  -1.2075181e-04  -1.7668254e-04   6.0694110e-05  -2.8935389e-04  -2.1809263e-05  -1.4919059e-05   1.5717929e-05   2.0310210e-04   5.8637521e-05   3.4901521e-05   2.8748720e-04  -1.2178521e-04   3.3419806e-04   9.3701055e-05   8.2237566e-05   2.1918927e-04   1.7103707e-04  -2.0635760e-04   1.7831640e-04   4.3321683e-04   2.4428131e-04   3.0845925e-04   2.7860302e-04   2.6135388e-04  -4.3670676e-05   2.0723346e-04   3.0777161e-04   2.6466791e-04   1.1737734e-04   7.5354670e-05  -5.2990548e-05  -1.0870423e-04   1.0772006e-04  -8.0751255e-05  -9.0749891e-05   1.6165408e-04  -1.8443141e-04
  -1.2150832e-05   1.2091956e-04   4.2831685e-05   7.3448326e-05   3.9185878e-04   3.9909134e-04   2.9777325e-04   3.6131265e-04   2.9637598e-04   2.1412221e-04  -1.4646618e-04  -1.0415050e-04  -2.7449892e-04  -9.7880002e-05  -2.5606723e-04   3.2237287e-05  -3.5254998e-04  -7.2482493e-05   6.1280036e-04  -5.1763142e-05   1.0752284e-04  -4.7031732e-05  -1.1663514e-04  -7.5594569e-04   2.3704194e-04   3.8520320e-04   3.9637431e-05   2.5305664e-05   1.7644469e-04   1.2495057e-04  -1.6365749e-04   1.2926660e-04  -5.5895045e-05   1.9941910e-04   1.9242860e-04   2.6971326e-04   2.2202700e-04  -8.3239029e-05   9.3262213e-05   8.1076381e-05   1.2042771e-04  -1.2300600e-05  -8.4610379e-05   6.8667746e-04  -6.9252841e-05  -1.8252978e-04  -1.9612825e-04  -7.6871546e-04   2.1283832e-04  -4.1979179e-04
   2.8327064e-05  -1.0311809e-04  -1.8394664e-04  -1.4176179e-04   6.7466681e-07   8.1064882e-06   7.9838239e-05   5.5738161e-05  -4.1453150e-05  -1.0548365e-05  -3.7964174e-04  -3.0093768e-04  -5.4028613e-04  -3.1711743e-04  -3.8456300e-04  -1.4252824e-04  -5.3273322e-04  -2.2902639e-04  -7.1854488e-04  -3.3548495e-04  -1.5176566e-04  -1.1275660e-04  -7.5885851e-04  -4.0070608e-04   3.9986279e-04  -3.8977459e-04   2.2078698e-06  -1.1677935e-04  -3.1098265e-05  -1.1427016e-04  -4.2927347e-04  -9.0041918e-05  -1.1647576e-04  -2.4094108e-04  -8.6090346e-05  -9.4306924e-05  -2.4851224e-05  -3.3445412e-04  -2.3345494e-04  -2.6687261e-04  -1.7134311e-04  -4.1749474e-05  -1.3106606e-04  -8.8668964e-04   2.6382512e-04  -5.0245423e-04  -5.2140857e-04  -2.4008101e-05  -1.3649893e-04  -6.0166954e-04
  -4.6095776e-04  -5.0960155e-04  -4.1330516e-04  -5.5293180e-04  -3.1277887e-04  -4.2607385e-04  -2.7319617e-04  -3.9421860e-04  -3.5284893e-04  -3.0862546e-04  -6.8317418e-04  -6.9550122e-04  -8.9244387e-04  -5.8700936e-04  -5.6993088e-04  -4.0061885e-04  -7.5421558e-04  -4.6109685e-04  -6.4634212e-04  -6.2259380e-04  -3.9262790e-04  -3.5055724e-04  -7.6791982e-04  -7.8448706e-04  -8.6593739e-04  -4.9699174e-04  -1.5439754e-04  -1.5897691e-04  -2.4208806e-04  -2.6515208e-04  -5.4143131e-04  -3.4600601e-04   6.0187322e-05  -2.6555030e-04  -2.3592367e-04  -8.5047497e-05  -1.5979551e-04  -2.9429220e-04  -1.2670575e-04  -1.6427091e-04   9.4921539e-05  -1.3344282e-04  -7.0619259e-05   6.8075949e-04   7.0420923e-05  -5.0134066e-04  -3.2291887e-04  -2.7113737e-04  -4.0376857e-05  -4.3033765e-04
  -1.1543249e-04   3.7162048e-05  -1.7049718e-04  -9.1851100e-05   1.9537091e-04   2.2693623e-04   1.7072249e-04   2.5739436e-04  -5.6818189e-05   9.4197385e-05  -2.7256666e-04  -1.9109089e-04  -5.4223242e-04  -2.8419634e-04  -3.8016276e-04  -1.8196796e-04  -6.0718373e-04  -2.9162032e-04   2.1578964e-04  -3.1038525e-04  -4.7169578e-05  -1.4961393e-04  -4.4886401e-04   8.0997439e-04  -8.5246505e-04  -2.7777554e-04   1.4702675e-05   7.6282522e-05  -5.9200474e-06  -1.0695865e-05  -4.5725945e-04  -5.5862143e-05   5.8550817e-05  -1.5587309e-04  -2.9938412e-05  -5.8722948e-05  -1.3139172e-05  -2.8299165e-04  -1.1365992e-04  -2.1224003e-04  -4.7048172e-05  -1.9465687e-04  -4.0885006e-04  -9.0664148e-04  -7.9748285e-04  -4.7370899e-04  -4.1939301e-04  -3.6492309e-04  -1.5110175e-04  -6.4684771e-04
  -3.6927906e-04  -1.3286628e-04  -2.5512080e-04  -3.0068975e-04  -6.4312626e-05  -4.1785886e-05   3.3897872e-05  -4.3826545e-05  -1.1410407e-04  -2.5328965e-05  -3.5737449e-04  -3.8317457e-04  -6.7270157e-04  -4.4631402e-04  -4.3621441e-04  -3.3631205e-04  -7.6656422e-04  -4.2258733e-04  -2.2145544e-04  -4.1209071e-04  -1.6575039e-04  -2.2952737e-04  -3.2286576e-04  -3.8512549e-04  -5.8186339e-04  -2.0038466e-04  -1.2912390e-04  -3.6753139e-05  -8.0994869e-05  -1.6253990e-04  -6.4996787e-04  -4.3753354e-04  -1.8204159e-04  -3.4351856e-04  -1.9022079e-04  -2.4114884e-04  -1.0855938e-04  -4.4040082e-04  -2.9306611e-04  -4.3820465e-04  -3.1444544e-04  -3.9279999e-04  -9.6142601e-04  -5.6577835e-04  -6.2136655e-04  -6.4326543e-04  -6.5678440e-04  -5.7055283e-04  -6.0933246e-04  -7.3404581e-04
  -9.7477069e-04  -6.0374354e-04  -6.4900791e-04  -7.2820316e-04  -4.3060500e-04  -5.1163358e-04  -4.9812801e-04  -5.1282020e-04  -6.3505745e-04  -3.5196324e-04  -7.5108168e-04  -7.9712842e-04  -9.8163087e-04  -7.3237973e-04  -7.1237586e-04  -5.6707108e-04  -1.0023743e-03  -7.1239943e-04  -1.0934818e-03  -7.6161179e-04  -4.4929853e-04  -5.5695948e-04  -1.0464301e-03  -1.4934433e-03  -5.7153596e-04  -6.5267331e-04  -3.3060537e-04  -2.6205601e-04  -2.6063240e-04  -4.4225098e-04  -8.4503123e-04  -5.5167108e-04  -5.1688845e-04  -6.8133429e-04  -5.5201707e-04  -6.4503925e-04  -4.1429626e-04  -7.0510624e-04  -6.2142638e-04  -9.5016591e-04  -5.6209310e-04  -5.2172464e-04  -7.2646554e-04  -9.0597424e-04  -7.3522370e-04  -6.8690977e-04  -7.1357796e-04  -7.3719700e-04  -4.1731470e-04  -4.8815436e-04
