   4.2552131e-04  -6.3164138e-05   3.4070262e-04  -4.5470366e-05   1.1243266e-04  -2.2746342e-04   8.4912318e-07   5.2878084e-05  -1.6776475e-04   3.9199981e-04   4.9754657e-04  -1.4746448e-04   4.9432158e-04   4.7392806e-04  -2.3866329e-05   2.6773839e-04   3.2244049e-04  -9.5401119e-05   3.7879328e-04   2.2912197e-04   7.5690470e-05  -1.3530934e-04   1.4009421e-04   2.4401311e-04   2.2039228e-04  -1.8187445e-04  -2.7161397e-04  -2.9705965e-04   1.2902690e-04  -4.8332342e-05  -1.3369247e-05   3.3860400e-04   1.5627920e-04  -3.9822680e-05  -1.5749448e-04   6.1148596e-05   1.8466800e-04  -6.3716914e-05  -7.4669078e-05   1.7712726e-05  -7.1436021e-05  -8.0110411e-05   2.6114710e-04  -4.9640919e-04   3.5556324e-04   4.6777798e-04  -1.8616849e-04   8.6211636e-05  -1.1686840e-05   7.1903650e-04
   3.3133416e-04  -3.6876241e-05   4.0283927e-04  -9.4573570e-06   2.6724837e-04  -1.4742951e-04   1.1335003e-04   5.3717915e-05   9.3406925e-05   4.1089061e-04   5.2504695e-04  -6.1509068e-05   4.4482623e-04   4.4801197e-04   3.6645815e-05   2.4613886e-04   2.2407812e-04  -1.2681122e-04  -2.3729421e-05   2.1233941e-04   6.3038569e-05   9.0889062e-06   3.2522844e-04   3.5893763e-04   7.6827354e-04  -2.3949372e-04  -2.0977053e-04  -4.3215050e-04   3.8989234e-05  -3.9221770e-05   5.4493230e-05   1.0239721e-04   8.6502259e-05  -2.9692585e-05  -2.1230760e-04  -2.5352028e-05   1.8045065e-04  -1.0448880e-04  -7.1337599e-05  -9.6263168e-05  -2.5133520e-05  -2.1840124e-04   1.1970216e-04   2.6621606e-04  -2.6335187e-05   7.1183930e-04  -1.6662684e-04   3.1103668e-04  -3.1893454e-05   6.8938913e-04
  -6.2033841e-06  -6.7080007e-05   4.1751092e-04  -4.3758599e-05   1.3051389e-04  -1.9534472e-04   4.2251839e-05   2.1989930e-05  -1.3006837e-04   3.8265603e-04   4.8831879e-04  -8.5524844e-05   4.1179970e-04   3.7228008e-04   2.4876796e-05   2.3904289e-04   2.1983875e-04  -1.1892423e-04   1.6984555e-04   2.2706301e-04   1.9074250e-05  -1.9191806e-04   3.6497257e-04   4.3213242e-04   5.4657015e-05  -1.4054264e-04  -2.5362920e-04  -3.5497043e-04   1.0799817e-04  -2.4522529e-05  -6.6369699e-05   2.9185283e-04   2.2453163e-04  -5.3498195e-05  -1.2938565e-04  -2.0746143e-06   1.1288017e-04  -1.0480406e-04  -6.2384803e-05  -2.2332420e-05   3.0521542e-06  -1.8837540e-04   1.2490935e-04  -7.9638074e-04   3.1926500e-04   5.5459893e-04  -1.6257991e-04   4.7709170e-04   1.1187874e-04   6.6723151e-04
   3.1847946e-04  -6.2223604e-05   1.1228061e-04  -4.4409229e-05   1.9914085e-04  -2.0488245e-04   1.6987569e-05  -3.3490219e-06   6.0789738e-05   3.8281674e-04   4.6224677e-04  -7.5881486e-05   3.7551924e-04   3.7668194e-04  -7.8274879e-06   2.0378086e-04   2.3535872e-04  -1.6891370e-04   4.0106600e-04   2.0575903e-04   5.1050920e-05  -5.1521332e-05   1.8480788e-04  -6.3754625e-05  -2.9876491e-04  -1.2720779e-04  -2.0198202e-04  -3.4249783e-04  -2.8839775e-06  -4.0329487e-05  -1.1604981e-04   1.6314512e-04   1.3994005e-04  -7.8788180e-05  -1.7835981e-04  -6.6295492e-05   4.2439366e-05  -1.0191918e-04  -9.5985219e-05  -1.5454808e-04  -4.9007696e-05  -3.8901471e-05   2.1722334e-04   3.3917034e-04   1.7641166e-04   4.7417695e-04  -1.4422389e-04   5.9172075e-04  -1.1464333e-04   6.7613914e-04
   3.3143317e-04  -5.9554655e-05   3.4090423e-04  -8.4763351e-06   1.5178927e-04  -1.2976502e-04   1.8241279e-05   2.4454519e-05   3.5272110e-06   3.9290523e-04   4.6908745e-04  -4.5899549e-05   3.7656730e-04   3.6949912e-04  -1.0069994e-04   1.7427842e-04   1.8874182e-04  -1.0683612e-04  -2.1407686e-04   1.9266193e-04   8.4989246e-05  -1.1255385e-04   1.3948472e-04   1.6895581e-04  -1.9026418e-04  -2.6147952e-04  -3.0697518e-04  -3.3757364e-04   1.0292779e-04  -5.2711704e-05  -2.7674829e-05   2.6157140e-04   6.6526060e-05  -2.8778462e-05  -1.6060220e-04  -8.9424553e-05   9.9583282e-05  -1.2477324e-04  -5.4397373e-05  -1.9613604e-05   1.7332273e-05  -1.2980534e-04   2.6519949e-04  -4.0222734e-04   4.5005220e-04   3.6473147e-04  -1.5559340e-04   3.2639570e-04   2.0985257e-05   6.4197287e-04
   1.9366770e-04  -4.8350252e-05   3.3030994e-04  -1.6726097e-05   1.3048346e-04  -2.0349388e-04   8.9326568e-06  -5.1181280e-05   2.3223754e-05   3.9638471e-04   4.6890689e-04  -2.0327574e-05   3.9153514e-04   3.3911772e-04  -3.3456792e-05   1.7066147e-04   1.8171320e-04  -9.4204916e-05  -9.7004282e-05   1.9780523e-04   7.5494550e-05  -1.1061528e-05   2.0411071e-04  -5.4817185e-05   1.1798318e-04  -2.2607970e-04  -3.2180685e-04  -3.0447956e-04  -5.2510775e-05  -4.8817499e-05   8.9373119e-05   1.2049689e-04   8.5629872e-05  -9.2596441e-05  -2.5228426e-04  -1.6368564e-05   5.3860698e-05  -1.2078198e-04  -6.6282279e-05  -1.3300966e-04  -2.8951095e-05  -4.8304300e-06   2.4256464e-05   2.2944323e-04   2.9833423e-04   5.3940376e-04  -1.2921878e-04   5.2319834e-04  -9.6687845e-06   5.3152669e-04
   2.4176670e-04  -4.3704837e-05   2.0812386e-04  -1.3390906e-05   1.0239337e-04  -1.9673909e-04  -4.8389615e-05  -3.0449275e-05   5.8732188e-05   3.7716224e-04   4.5699970e-04  -9.0596164e-05   3.7559069e-04   3.7667627e-04  -6.4313586e-05   1.9485508e-04   2.0897597e-04  -1.3006580e-04   9.3242495e-05   1.9890386e-04   5.8280577e-05  -1.0140308e-04   7.8199540e-05   9.0010479e-05   2.3445296e-04  -2.9392319e-04  -1.8805270e-04  -1.7843283e-04  -2.5519850e-07  -4.7881815e-05  -2.6496360e-05   2.0939769e-04   1.2685472e-04  -9.4886702e-05  -1.8071153e-04  -1.0770329e-04   8.9857931e-05  -1.2399601e-04  -5.1544248e-05  -2.1324000e-04  -4.1693107e-05  -9.6765369e-05   5.9639442e-05  -1.2670839e-03   2.4448519e-04   5.4623612e-04  -1.6478702e-04   2.2135160e-04  -3.2429642e-05   4.9093296e-04
   1.1271573e-04  -6.4940599e-05   4.3144799e-04  -4.8318125e-05   5.9148202e-05  -2.2386745e-04  -4.0637988e-06  -7.6091390e-05   1.1868169e-05   3.8374032e-04   4.4358880e-04  -7.8200639e-05   3.5998854e-04   3.3075476e-04  -6.2653635e-05   1.7242166e-04   1.9933542e-04  -1.3048861e-04  -2.6216287e-05   1.9740703e-04   4.5096323e-05  -9.1011272e-05   2.2156848e-05   4.1165765e-04  -2.3367067e-04  -2.1130894e-04  -2.0953975e-04  -2.3278971e-04   7.4091690e-06  -2.5608479e-05   9.6949261e-06   2.0664898e-04   1.3472119e-04  -7.6737240e-05  -1.6621150e-04  -8.2850143e-05   1.0750016e-04  -1.1156595e-04  -8.3087565e-05  -8.5048370e-05   3.8822251e-05  -5.1011128e-05   3.3700847e-04  -4.6767932e-04   3.7005648e-04   2.8994499e-04  -9.4551004e-05   2.1692958e-04   9.1995673e-05   6.2246365e-04
   1.6419624e-04  -4.2307529e-05   1.4734617e-04  -1.0434314e-06   3.7766520e-05  -1.7008194e-04   4.8334656e-05   2.1136828e-05   4.2007599e-05   4.1229915e-04   4.5982844e-04  -3.3388620e-05   3.6020088e-04   3.7126752e-04  -1.3355113e-04   1.4235868e-04   1.5681957e-04  -9.2307229e-05   5.1302271e-04   2.1831905e-04   1.0515387e-04  -6.9575523e-05   1.8728533e-04  -3.0546734e-04  -3.3665096e-04   7.0554306e-05  -2.9510274e-04  -3.5491967e-04  -4.1964136e-05  -5.6407403e-05  -6.6426088e-05   2.7245600e-05   1.6319197e-04  -7.7335259e-05  -1.5499437e-04  -7.3928968e-05  -8.5993031e-07  -1.5504038e-04  -8.4684121e-05  -1.5756967e-04   1.3403479e-05  -4.8733113e-05   3.3288851e-04   1.1373448e-04   7.0505004e-05   4.9361034e-04  -7.2209208e-05   4.2028754e-04   2.6046232e-04   5.0650904e-04
   2.2894400e-04  -6.1420928e-05   3.9374657e-04   5.1140073e-06   8.3238680e-05  -1.1343587e-04   6.3883286e-05  -1.8089111e-05  -2.2394801e-05   3.9009631e-04   4.3429120e-04  -4.3159023e-05   3.2367773e-04   3.0304427e-04  -2.1680467e-05   1.5110159e-04   1.9417232e-04  -1.2255741e-04   1.8067483e-04   1.9693187e-04   6.3812920e-05  -4.5308549e-05   1.8903297e-04   5.6114723e-06  -9.4408788e-05  -1.6263808e-04  -1.9421840e-04  -3.4722511e-04  -2.9198367e-05  -4.6772751e-05  -5.1830768e-05   8.0593491e-06   1.0649502e-04  -1.3506127e-04  -2.1586716e-04  -3.6526235e-05   2.2532577e-05  -1.4812058e-04  -8.2997132e-05  -2.9508371e-04   4.6104931e-05  -3.0524960e-05   1.1600410e-04   1.8419579e-04   3.3888241e-04   3.0186508e-04  -7.5426353e-05   5.3848041e-04   2.7995213e-04   5.1750982e-04
   2.2642277e-04  -6.6948880e-05   7.5310512e-05  -1.8526249e-05   1.3465680e-04  -1.0833854e-04  -3.9211362e-05  -1.7684682e-06   1.3009742e-05   3.7918330e-04   3.9910880e-04  -6.1242732e-05   3.4226288e-04   2.9472957e-04  -6.0849605e-05   1.4382839e-04   1.8172967e-04  -1.3430153e-04  -7.7379860e-05   2.1623375e-04   6.7439396e-05  -1.1579127e-04   3.9103688e-05   5.8527355e-04  -2.4346476e-04  -2.2336801e-04  -2.0805253e-04  -1.7814552e-04   9.4886702e-05  -4.9167142e-05  -4.6731639e-05   5.1926902e-05  -3.2915541e-05  -8.7133143e-05  -1.9525118e-04  -4.4949171e-05   1.4084691e-05  -1.0174627e-04  -8.5355590e-05  -1.9920401e-04   6.6687331e-05  -4.4748394e-05   1.1603825e-04   1.5879789e-04   2.0972111e-04   1.0082468e-04  -1.1467475e-04   3.9733239e-04   1.2767481e-04   5.7818199e-04
   3.5397324e-04  -7.4254123e-05   3.4877524e-04  -5.6798622e-06   3.9903167e-05  -1.6908743e-04  -9.2828683e-05  -2.2628430e-05  -1.1009167e-04   3.9107582e-04   3.9708303e-04  -6.9898852e-05   3.3516623e-04   3.0496751e-04  -4.5085628e-05   1.4257943e-04   1.9369480e-04  -1.1555602e-04   3.1954938e-04   1.9567506e-04   1.0224171e-04  -3.0327368e-05   2.4440946e-04  -3.4146826e-04  -4.0129860e-04  -7.2964242e-05  -1.7408154e-04  -2.5777836e-04  -1.2876705e-05  -4.8631948e-05   4.7692105e-05   3.4436529e-05   7.7531979e-05  -3.5832058e-05  -1.7300858e-04  -8.8043322e-05   4.1293311e-05  -1.2389498e-04  -1.0402806e-04  -1.3410827e-04   8.2327060e-05  -3.1557847e-05   5.9821425e-05   1.3728724e-04   1.0817138e-04   3.7469703e-04  -5.3554766e-05   7.7707176e-05   1.4498817e-04   4.1283845e-04
   3.1951367e-04  -4.7989277e-05   1.4867674e-04   3.3466756e-06   1.2360515e-04  -1.2903423e-04   3.6616861e-05  -6.1493898e-05   3.7172747e-05   4.1344526e-04   4.3113236e-04  -1.7583125e-05   3.4647234e-04   2.6290223e-04  -8.0659833e-05   1.1730737e-04   1.8880484e-04  -8.3545245e-05   2.0679827e-04   2.1325356e-04   1.0559508e-04   1.2915762e-05  -2.0526884e-05   2.0010564e-04  -1.1641570e-04  -3.2167256e-04  -1.9889297e-04  -1.5266721e-04   1.7499640e-05  -6.3366329e-05  -1.1796183e-04   1.9072440e-04   2.4418981e-04  -1.2328266e-04  -1.9054292e-04  -6.5169494e-05   6.8197651e-06  -1.4356796e-04  -7.5541277e-05  -2.6884480e-04   3.5888999e-05   6.1371233e-05   2.5776637e-04  -2.6706274e-04   1.1442358e-04   2.9305107e-04   8.8212192e-07   1.9978444e-05   7.1138733e-05   4.7767622e-04
   2.3784215e-04  -7.5268799e-05   2.6215444e-04   3.3519904e-05  -2.6220920e-05  -1.2235108e-04   1.1796643e-05  -5.8422906e-05   6.8217902e-05   4.0050223e-04   4.2382476e-04  -6.2105493e-05   2.6781726e-04   2.5792260e-04   4.0586533e-06   1.1266134e-04   1.7136203e-04  -1.2471151e-04  -3.1175499e-04   2.1792216e-04   8.2380851e-05   1.0240595e-05  -6.8500871e-05  -1.0234868e-05   2.5697064e-04  -2.4148478e-04  -2.0448543e-04  -2.3766296e-04  -5.1096984e-05  -3.8409078e-05   4.7590507e-05   6.4595937e-05   3.2240761e-04  -1.0095251e-04  -1.7441288e-04  -1.4561393e-04  -2.8443374e-05  -1.2420402e-04  -5.2613625e-05  -1.4869960e-04  -1.6902057e-05  -2.5851328e-05   2.7182407e-04   1.4709171e-04   2.5146635e-04   2.3891723e-04  -6.1049475e-05   1.7433141e-04   2.3865157e-04   4.3844356e-04
   2.8355373e-04  -8.0877129e-05   1.9605726e-04  -7.9586107e-06   7.4043259e-05  -1.5842186e-04  -1.4485781e-05   2.5835940e-05   1.0615982e-04   4.0488428e-04   4.2451228e-04  -4.9568102e-05   2.8969717e-04   2.5038718e-04   7.3943038e-06   1.0677035e-04   1.5207769e-04  -1.0251678e-04   2.5831410e-04   2.3072337e-04   9.2379043e-05   5.3753578e-05   2.0987247e-04  -6.8090194e-05   6.8034562e-05  -1.8759948e-04  -1.6411328e-04  -1.7278516e-04  -4.9222839e-05  -2.1275748e-05   2.3104800e-05   9.6996810e-05   2.4612088e-04  -1.0453979e-04  -1.8667213e-04   1.7084525e-05   1.2259328e-05  -1.0414917e-04  -9.0645372e-05  -2.1525593e-04  -4.7113124e-05   7.0776572e-05   1.5825116e-04  -1.6610527e-05   1.1062765e-04   3.4163840e-04  -1.6928376e-05   3.4046112e-04   3.9425222e-04   5.9649098e-04
   2.9958179e-04  -6.3203654e-05   1.3632581e-04   6.9636539e-05   2.8061007e-05  -1.3018363e-04   9.7485035e-06   4.7824644e-05   9.0196387e-05   4.4192583e-04   4.6082743e-04  -1.4848358e-06   2.6785358e-04   2.3893996e-04  -5.2441377e-05   8.7526496e-05   1.4573902e-04  -8.4066625e-05   2.5992704e-04   2.6351979e-04   1.2446840e-04   7.3286346e-06  -6.6188841e-05  -4.0508239e-05  -8.9548805e-05  -1.6202104e-04  -1.6408453e-04  -2.7060835e-04  -5.3147244e-07  -3.2486012e-05   6.8646921e-05   6.9851223e-05   1.4872912e-04  -5.1056621e-05  -2.1944965e-04  -1.0750565e-04  -4.2905842e-05  -1.4244035e-04  -1.1914601e-04  -1.4316342e-04   4.2730833e-05   5.2078361e-05   3.6832265e-04  -6.2528026e-04   5.0386730e-05   3.2946575e-04  -8.8994275e-06   2.8836034e-04   3.7790870e-04   5.4784649e-04
   2.7295048e-04  -7.2044000e-05   2.1529032e-04   1.3635955e-05   8.9582703e-05  -1.1777141e-04   3.8317680e-06  -1.0913876e-05   1.1477225e-05   4.4611853e-04   4.6315743e-04  -6.8956429e-06   3.1939882e-04   2.3248410e-04  -6.1825755e-05   6.9327296e-05   1.7282374e-04  -9.6578275e-05   1.5330357e-04   2.6555985e-04   1.1358947e-04   3.8440376e-06   9.6648466e-05   6.4056701e-05   2.5256346e-05  -1.5951229e-04  -2.0121333e-04  -1.6692402e-04   3.3059572e-05  -4.1394491e-05   3.5558100e-05   5.2810145e-05   2.0219997e-04  -5.1464609e-05  -2.0714436e-04  -9.7714554e-05   6.6587723e-05  -1.0429345e-04  -2.5902866e-05  -1.6653868e-04   2.3507238e-05   8.7030741e-05   1.5033151e-04  -1.3978686e-04  -6.0320606e-05   4.3841582e-04  -3.6965357e-05   7.2439155e-04   2.4739397e-04   4.3071259e-04
   2.6930409e-04  -7.4614029e-05   2.6752832e-04  -1.3315037e-05  -5.2221796e-05  -1.5512448e-04  -4.1307656e-05  -5.8878995e-05   1.1002040e-04   4.3385624e-04   4.5648284e-04  -2.0508651e-05   2.6576695e-04   2.4218149e-04  -8.7673245e-05   8.7753724e-05   1.7647240e-04  -8.9327870e-05   1.3995935e-04   2.2517363e-04   1.1454442e-04  -2.9549588e-05   7.8412522e-05   6.0942234e-04  -5.1823159e-04  -5.4699532e-05  -1.1843295e-04  -1.4607581e-04   3.7908514e-05  -2.6334194e-05   5.1459858e-05   9.4587660e-05   3.3075706e-04  -1.0016364e-04  -1.9781073e-04  -2.4639208e-05   4.3868724e-05  -1.0387086e-04  -1.0508860e-04   4.9863161e-07   1.8976538e-05   8.1676953e-05   7.6889854e-05   1.6813689e-04   3.3810065e-04   2.2758706e-04  -4.1189811e-05   8.3121139e-04   3.1193983e-04   5.7570450e-04
   1.7399077e-04  -7.6176926e-05   1.8664917e-04  -9.9484932e-06   5.7848440e-05  -1.6428651e-04  -8.0434918e-05  -1.0508854e-04   1.1820156e-04   4.4789561e-04   4.6059644e-04  -8.3300241e-05   2.8703539e-04   2.1921551e-04   2.4012250e-05   9.8609446e-05   1.5738899e-04  -8.3432569e-05   4.8146900e-04   2.3961668e-04   1.2921728e-04  -2.7769307e-05   5.0258455e-05  -4.9379469e-05   1.3106967e-04  -8.6125707e-05  -1.0396481e-04  -1.3744374e-04  -6.8413260e-06  -3.3221964e-05   1.8137567e-05  -1.8304836e-05   1.7056345e-04  -4.4259159e-05  -2.2626384e-04  -9.4722445e-06  -1.5144625e-05  -1.0002298e-04  -1.0513525e-04   5.3670296e-06  -2.2195758e-05   6.5063963e-05   1.7716878e-04  -2.5661432e-04   2.9885914e-04   3.7629591e-04  -7.3891742e-06   8.0032926e-04   1.5484968e-04   4.4930965e-04
   3.5691229e-04  -4.4573124e-05   2.3778988e-04   2.4321556e-05  -2.0059353e-05  -1.2427021e-04  -2.1942098e-05   3.9807197e-05   1.4101462e-04   4.4119181e-04   4.6209479e-04   1.5485628e-05   2.5571941e-04   1.9656737e-04  -1.9114616e-04   8.2802559e-05   1.4479231e-04  -1.1960414e-04  -2.7477148e-04   2.3174821e-04   1.1531930e-04  -3.9066519e-05   6.8051799e-05  -2.7107119e-04  -1.2786410e-04  -1.9974433e-04  -1.7079561e-04  -2.0372796e-04  -6.4962849e-05  -3.4350156e-05   7.7674973e-05   1.0702065e-04   1.1839419e-04  -8.1233462e-05  -1.9605349e-04  -9.6802178e-05  -5.6215642e-05  -1.0107231e-04  -9.2231778e-05  -2.0945641e-04   7.4956399e-05   1.1798306e-04   1.4677169e-04   1.9510507e-04   3.2401085e-04   2.1418152e-04   1.1509548e-05   8.5435968e-05   2.3517435e-04   5.7419459e-04
   2.4590743e-04  -7.0928014e-05   1.4958164e-04  -5.3005817e-05   1.9836814e-05  -1.5760073e-04   3.4678594e-06  -4.4382381e-05   1.6705714e-04   4.3783159e-04   4.5576910e-04  -2.2938611e-05   2.5818011e-04   1.8219190e-04  -1.0311211e-04   6.7920773e-05   1.2383910e-04  -1.0053231e-04   7.4281124e-05   1.9621626e-04   1.2728722e-04   5.0728515e-05   1.3318988e-04  -6.3604864e-05  -1.2446716e-04  -2.0725714e-04  -8.0183112e-05  -1.3772200e-04  -2.5319541e-05  -3.5019253e-05   1.5961989e-04   5.3082535e-05   2.8457658e-04  -6.0656232e-05  -2.4448163e-04  -1.5516531e-04  -1.3785738e-05  -1.0196097e-04  -8.1293467e-05  -1.7625980e-04   1.9248966e-05   2.7928780e-05  -1.0349565e-04   2.7004024e-05   2.2864917e-04   4.1934097e-04  -2.2814336e-05   4.0560003e-04   1.9996469e-04   5.1066908e-04
   4.5085679e-05  -8.2445098e-05   1.2265371e-04  -4.8874546e-05   7.1999384e-05  -2.0115970e-04  -3.2449414e-05  -4.4295459e-05   1.1488253e-04   4.4123436e-04   4.7052250e-04  -1.8916768e-05   2.8701418e-04   1.9469619e-04  -2.0510935e-05   8.0174774e-05   1.3706273e-04  -5.4392542e-05  -8.3208157e-05   2.1519535e-04   1.0566205e-04  -2.2431525e-06  -2.7559890e-04   9.8543504e-05  -2.3219531e-04  -5.4297113e-04  -1.9347762e-04  -1.0701569e-04   2.8962324e-05  -1.9265959e-05   8.8028224e-05   1.1004508e-04   2.0759672e-04  -4.2449214e-05  -2.5140605e-04   1.0577579e-04  -2.3643017e-05  -8.2008868e-05  -7.7094410e-05  -1.8067041e-04   7.9556106e-05   1.0670738e-04   3.1611073e-04  -4.2445990e-04   3.0532663e-04   3.6064164e-05  -2.4756220e-05  -8.0054262e-05   2.5395289e-04   4.8016949e-04
   1.6961250e-04  -4.6952544e-05   2.1311973e-04   9.8924429e-06   8.4137995e-05  -1.0620140e-04  -1.0798615e-06  -2.6120377e-05   6.9792710e-05   4.5110096e-04   4.8166307e-04   2.6664875e-05   2.8180363e-04   2.2691257e-04  -3.4347533e-05   7.0968956e-05   1.1361407e-04  -9.6637952e-05   1.1146224e-04   2.2849551e-04   1.6323289e-04  -8.3160863e-05   2.3270535e-04   3.1464300e-04  -3.4778309e-04  -2.4181836e-04  -1.4030373e-04  -1.6084248e-04   5.3755051e-05  -3.0969644e-05   4.0663253e-05  -9.7079112e-07   1.9261737e-04  -6.1820509e-05  -1.7653638e-04  -5.1817980e-05  -1.7307399e-05  -1.0920614e-04  -9.1123031e-05  -1.6837519e-04   2.2452670e-05  -2.5084341e-06   2.3273291e-04   8.1700040e-05   3.9098106e-04   3.7247405e-04   1.6769309e-05  -4.4372398e-05   2.9349598e-04   4.1638437e-04
   4.0513423e-04  -5.2356467e-05   2.6770713e-04  -3.5171775e-05   1.1945719e-04  -1.3809511e-04  -4.2060390e-05  -4.9013513e-05   1.3131475e-04   4.5321725e-04   4.6527476e-04  -2.1247256e-06   2.6684307e-04   2.2627378e-04  -1.0229138e-04   7.2908886e-05   1.0957302e-04  -1.0926676e-04   1.9747524e-04   2.1430461e-04   1.2354474e-04  -1.4315848e-05  -1.5500376e-04  -2.5595055e-04  -3.1668381e-04  -1.3036530e-04  -1.2835809e-04  -6.6338565e-05  -1.7495908e-05  -4.7013396e-05   8.3826875e-05   1.3329963e-04  -3.7077150e-06  -6.5535089e-05  -1.8823413e-04  -1.0257871e-04  -9.6558529e-07  -8.5645595e-05  -9.4884963e-05  -6.8118796e-05   7.5434204e-05   4.2446656e-05   3.7669277e-04   7.3367875e-05   6.6062261e-05   3.9683719e-04  -9.4070841e-05   5.4495194e-04   3.2054795e-05   4.4337448e-04
   2.4402805e-04  -6.0253456e-05   1.1276492e-04  -4.7740541e-05  -1.4573419e-05  -1.8906323e-04  -1.9933988e-05  -7.0676847e-06   8.2850711e-05   4.3896135e-04   4.5736507e-04   7.3132715e-06   2.6943153e-04   2.1254654e-04  -3.2436092e-05   6.7090143e-05   1.1333384e-04  -8.3803527e-05  -7.8374615e-05   2.3803304e-04   1.3116151e-04   3.6385238e-06   2.4189887e-04   2.4816065e-04   2.3949935e-04  -6.1515217e-05  -8.8903718e-05  -1.3301999e-04  -4.5384433e-05  -2.5263151e-05   3.9970073e-05   8.7723398e-05   8.6194901e-05  -6.6376255e-05  -1.6734160e-04  -1.2046425e-04   1.3260657e-05  -1.0500965e-04  -5.8225152e-05  -7.8537807e-05   1.7155877e-05  -6.9783750e-06   2.7800270e-05  -1.6690942e-04  -1.3197788e-04   9.8581149e-05  -1.1623737e-04   4.2257612e-04   1.7293298e-04   5.5814686e-04
   2.8867999e-04  -6.5997963e-05   2.0784713e-04  -4.7568651e-07   1.1056793e-04  -1.4182688e-04  -2.3631053e-05   2.1604179e-05   1.8047619e-04   4.4577749e-04   4.8165428e-04   2.9593386e-05   3.0595352e-04   2.0188400e-04  -3.2744076e-05   7.8053206e-05   8.3425221e-05  -9.3419425e-05   5.2853959e-04   1.8417438e-04   1.4478514e-04   7.3066578e-05  -2.2560358e-05   1.0032347e-04  -5.5004202e-05  -2.8154301e-04  -1.6962395e-04  -1.2494583e-04  -5.4250995e-06  -2.7221584e-05   4.4515587e-06   3.1134539e-05   2.2263006e-04  -8.2869868e-05  -2.0197275e-04  -1.7268297e-04  -6.7654955e-06  -9.4156348e-05  -8.1567428e-05  -1.5204110e-04   1.7968414e-05   4.2252603e-05   3.3204842e-04  -1.5465640e-04   4.7538118e-04   3.4999894e-04  -1.2323770e-04   5.6182145e-04   2.2938769e-04   4.7415955e-04
   1.8991121e-04  -6.4215572e-05   2.4785180e-04  -1.7681523e-05   3.2671793e-05  -1.5067363e-04  -3.0445874e-05  -3.0782132e-05   5.9925260e-05   4.3373773e-04   4.3624075e-04   1.5301801e-05   2.3978064e-04   1.9459780e-04  -8.6686639e-05   6.6613298e-05   8.3450162e-05  -1.0336214e-04   8.6140135e-05   1.9222313e-04   1.1950094e-04   5.1506948e-05   3.5881298e-04   2.2950683e-04  -1.4322186e-04  -3.5402819e-04  -4.4368589e-05  -1.7719118e-04  -9.7343318e-06  -3.4270000e-05   8.4291991e-05   1.9750741e-04   1.9282557e-04  -7.5082258e-05  -1.1078583e-04  -9.6404743e-05  -4.1479190e-05  -1.1593055e-04  -1.0830723e-04  -1.9515546e-04  -9.2537732e-05   8.4339590e-05   2.5307579e-04   8.9847017e-05   4.1862531e-05   2.9359086e-04  -1.1328051e-04   4.4827187e-04   2.9143953e-04   4.1655911e-04
   4.7728176e-05  -8.8261360e-05   1.4980517e-04  -6.2140578e-05   3.3678483e-05  -1.6188603e-04  -9.5442272e-05  -4.2329430e-05   1.0607797e-04   4.2322386e-04   4.1823249e-04   2.7364817e-07   2.2531820e-04   1.7140094e-04  -6.6576373e-05   6.6235356e-05   9.4783514e-05  -1.1284470e-04   4.5560743e-04   1.9424781e-04   1.1584657e-04   2.0746724e-05   1.2289089e-04   1.6361936e-06   5.6375920e-05  -2.1886565e-04  -1.3524562e-04  -1.0281304e-04  -8.5966421e-05  -2.1959206e-05   6.5469039e-06   1.4023120e-04   2.8659203e-04  -5.4859222e-05  -2.5350568e-04  -1.5597802e-04  -3.1871743e-05  -1.0598954e-04  -4.9927596e-05  -5.1147130e-05   2.9652920e-05  -6.4064716e-06   2.8087426e-04   5.5865064e-04   4.5159727e-04   2.1572594e-04  -1.2254102e-04   4.3707213e-04  -4.4468998e-06   5.8618083e-04
   1.7495074e-04  -9.1321803e-05   7.2410163e-05   6.5566301e-06   1.2107960e-04  -1.8835845e-04  -9.3873332e-06  -3.4637207e-05  -1.3698956e-04   4.2173575e-04   4.1336278e-04   2.9554654e-05   2.1664231e-04   1.8908603e-04   8.5139914e-07   5.3400003e-05   6.2760962e-05  -1.0252087e-04   6.4018543e-04   1.4737176e-04   1.0763426e-04  -2.4377216e-06   1.0712213e-04  -3.4170542e-05  -1.4583691e-04  -1.1414169e-04  -1.7412445e-04  -1.7720030e-04  -3.4202942e-05  -3.5067540e-05   9.1173723e-07   2.7170723e-05   1.5394134e-04  -5.4460514e-05  -2.3648096e-04  -1.2519083e-04  -2.9376162e-05  -9.1236856e-05  -9.3113304e-05  -1.1573762e-04  -9.0382222e-05   5.1289502e-05   7.9659978e-05  -1.8300042e-04   2.7535183e-04   2.5022426e-04  -1.2082398e-04   2.3430216e-04   2.5313935e-04   4.1273044e-04
   1.2237576e-04  -8.1060629e-05   2.6718123e-04  -3.6442943e-05   5.3253483e-05  -1.9044465e-04  -6.7969289e-05  -4.1159041e-05   6.0927490e-05   4.1490054e-04   3.9259752e-04   1.6170097e-05   2.1153562e-04   1.4831117e-04  -1.4951923e-04   4.8182126e-05   7.4011463e-05  -1.1848205e-04   1.3020718e-04   1.3996853e-04   1.0287385e-04   4.3824098e-06   1.5442155e-04   2.8321516e-05   6.8183515e-05  -2.3711138e-04  -1.2214262e-04  -8.3660641e-05  -1.4268603e-04  -1.3692844e-05  -4.8264308e-05   1.7169709e-04   1.0674443e-05  -6.6698871e-05  -2.1469381e-04  -1.0681547e-04  -5.1878469e-05  -1.0087314e-04  -6.5392684e-05  -1.8651150e-04   1.2105509e-06   3.6643287e-05  -1.3319527e-04   4.9415341e-04   3.3378258e-04   2.2067068e-04  -1.2228607e-04   1.4576058e-04   1.6673439e-04   4.4701443e-04
   1.8568723e-04  -1.0502774e-04   7.7411707e-05  -3.6039230e-05   3.3913486e-05  -2.0468402e-04  -8.4502739e-05  -1.9062349e-05  -1.0359346e-04   4.0951886e-04   3.8391704e-04   4.0795436e-05   1.8472009e-04   1.7094141e-04   1.8182312e-05   3.5753095e-05   6.4366926e-05  -1.0952495e-04   1.8317887e-04   1.6045861e-04   1.2828845e-04   1.4956201e-04   1.1576500e-04   7.2998385e-04   4.1570759e-04  -1.8285614e-04  -1.4539331e-04  -2.5463098e-04   3.9721832e-05  -3.7704242e-05  -2.4449677e-05   3.8842507e-05  -4.1565319e-05  -2.4031513e-05  -1.9163846e-04  -6.6177177e-05  -4.1546016e-05  -1.3506431e-04  -4.0657640e-05  -6.9707472e-05  -1.1771147e-04  -4.0924439e-05   7.1056209e-05  -8.5058098e-04   3.2679527e-04   2.1263138e-04  -1.3262221e-04  -2.4065193e-05   4.1818163e-05   4.7869861e-04
   1.0045113e-04  -8.1284117e-05   1.9227024e-04  -3.0602754e-05   1.8122475e-05  -1.8521950e-04  -2.6676410e-06   2.2511427e-05  -5.5868539e-05   3.9304394e-04   3.7887253e-04   5.7479250e-05   1.7063966e-04   1.4997636e-04  -7.6974808e-05   3.8504131e-05   6.0626564e-05  -1.5596514e-04   1.1262738e-04   1.2071906e-04   1.0240706e-04  -6.8277826e-05  -1.6732440e-04  -6.5511274e-05   3.4311903e-04  -8.8091241e-05  -1.5117835e-04  -9.5194177e-05  -7.1907300e-05  -4.3865610e-05  -1.1698601e-04   1.9494696e-04   2.1007303e-04  -2.7853554e-05  -2.0949800e-04  -1.4892351e-04  -4.9307517e-05  -1.1302995e-04  -7.4906384e-05  -1.2788737e-04   4.5259218e-05   1.0659604e-04  -2.0249307e-04  -6.2137301e-04   3.2852735e-05   4.1861323e-04  -1.2265496e-04  -7.2675874e-05  -8.8154302e-06   4.4888412e-04
   1.7899638e-05  -1.0716752e-04   4.0272262e-05  -4.5868073e-05  -2.0103191e-06  -1.8046470e-04  -3.4452958e-06  -4.0090777e-05   3.9237857e-06   3.7661529e-04   3.4405445e-04   1.3634199e-05   1.4501317e-04   1.6212910e-04  -6.9006179e-05   2.1642065e-05   3.5530786e-05  -9.0048554e-05  -1.9251711e-04   1.1166252e-04   6.0988772e-05  -8.8257082e-05   1.6994112e-04  -1.1130343e-04  -3.7845620e-04  -1.6336124e-04  -1.8428407e-04  -9.0726258e-05  -8.5423773e-05  -2.3577313e-05  -2.1986412e-05   8.6924527e-05   3.4744004e-05  -9.6245829e-05  -2.2688466e-04  -1.6832049e-04  -6.7401350e-05  -1.3271689e-04  -1.5374075e-05  -2.5503253e-04  -1.7108185e-05  -1.0451630e-04  -1.0618621e-04   8.3043924e-05   2.0796346e-04   2.7034510e-04  -2.0195576e-04   4.5369324e-04   1.7614715e-05   4.9193151e-04
   6.9675953e-05  -1.1433746e-04   8.6005646e-05  -7.8876757e-05   1.2316528e-05  -2.3677449e-04  -6.6759290e-05  -7.1507486e-05  -6.3897038e-05   3.6532313e-04   3.0466175e-04   1.6665339e-06   1.5193643e-04   1.2856323e-04  -1.6732785e-04   3.1741434e-05   2.2260139e-05  -1.1582494e-04  -1.7094615e-04   1.2635015e-04   6.5471861e-05   2.9689703e-05  -9.7190619e-05   2.2031047e-04  -1.1963162e-04  -2.5976129e-04  -1.2866872e-04  -9.2967472e-05  -8.6864849e-05  -2.4563922e-05   1.4352879e-05   6.1509083e-05   1.6173406e-04  -5.2611478e-05  -1.7955329e-04  -1.5312925e-04  -8.1424303e-05  -1.3118066e-04  -7.8309815e-05  -1.5891179e-04   3.3202475e-06  -4.3179010e-05   8.6950706e-05   2.4448559e-04   2.2912297e-06   2.5159874e-04  -7.6238764e-05   8.4986583e-05  -7.8293133e-06   4.1915075e-04
   9.9056575e-05  -8.9123663e-05   3.0429799e-05  -6.2841922e-05  -3.2703330e-05  -2.2263473e-04  -6.1124068e-05  -8.2538638e-05  -8.1689162e-05   3.6901669e-04   3.1369668e-04  -6.4769470e-06   1.6076941e-04   9.2687114e-05  -1.2167738e-04   3.9773255e-05   4.5941782e-05  -1.0437380e-04   4.4384331e-04   1.2078912e-04   2.2102819e-05  -2.5956349e-05   2.8137335e-06  -1.6959071e-04   1.4870880e-04  -1.9865111e-04  -1.1639348e-04  -2.3110110e-04  -1.3323455e-06  -2.8885399e-05  -1.0223227e-05   1.2608095e-05  -3.9536648e-05  -7.0603921e-05  -2.0812931e-04  -1.3305488e-04   1.6655105e-06  -1.3904538e-04  -5.1548253e-05  -1.0507154e-04  -2.8858210e-05  -8.4774365e-05  -7.8544363e-05   2.1275449e-05   3.0720167e-04   3.5669957e-04  -1.6842551e-04   3.5754970e-04   2.7775916e-04   3.6089853e-04
   4.0165953e-05  -1.1164584e-04  -3.7672355e-05  -1.2160568e-04   4.9783917e-05  -1.1818393e-04   8.5099855e-06  -2.1578469e-05   6.8004397e-06   3.5333942e-04   2.7235367e-04  -1.6835596e-05   1.6733810e-04   7.2471790e-05  -1.2575567e-04   4.4971730e-05   6.1622559e-05  -1.3410462e-04   1.1450965e-04   1.4181262e-04   1.9935875e-05  -9.8860601e-06   5.4214855e-05   1.6850012e-04  -1.8276562e-04  -2.3486900e-04  -1.2808388e-04  -2.0340520e-04  -5.6831508e-05  -2.0189353e-05  -5.5420034e-05  -1.4884007e-04   1.5503841e-05  -8.9689485e-05  -2.6264534e-04  -1.9054086e-04  -8.4389547e-05  -1.3734173e-04  -7.5448894e-05  -2.5095933e-04  -9.3948373e-05  -6.8060494e-05   2.4707214e-04   1.6513070e-04   5.7937647e-04   2.9761167e-04  -1.3220275e-04   1.1026963e-04   1.9635994e-04   4.5049842e-04
   1.2254070e-04  -1.2203739e-04   1.0522870e-04  -1.4234797e-04  -3.5055706e-05  -1.6910465e-04  -3.2489042e-05  -2.7424812e-05   4.7662903e-05   3.3665175e-04   2.5254794e-04  -5.1797553e-05   1.2070080e-04   9.1105307e-05  -1.9268884e-04   2.0188341e-05   4.5467834e-05  -1.4934703e-04  -1.6907012e-05   1.2106307e-04   3.3319157e-05  -8.7596774e-05  -1.4258655e-04   8.1415565e-05  -9.2130220e-05  -2.6050952e-04  -1.0345424e-04  -1.5276960e-04   8.4534091e-05  -2.6680862e-05   3.6329402e-05  -5.8972731e-05   1.4561736e-04  -6.0855185e-05  -3.3784172e-04  -1.9028292e-04  -4.5740253e-05  -1.3873007e-04  -4.6023459e-05  -2.1769911e-04  -5.1023999e-05  -6.4858054e-05  -1.9220044e-04   2.4487771e-04   5.1450799e-04   2.9257991e-04  -7.6323340e-05   4.1674767e-04   3.8644994e-04   4.8868783e-04
   1.0504416e-04  -1.1190226e-04   1.9877665e-05  -1.0010320e-04  -5.5059969e-05  -1.4905824e-04  -4.5729299e-05  -6.4385335e-05  -1.7160307e-04   3.5020968e-04   2.6566748e-04  -1.3657777e-05   1.2431070e-04   1.1391266e-04  -1.2358720e-04   2.8631934e-05   3.5090347e-05  -1.0643873e-04  -4.0187247e-04   1.4494447e-04   7.8848971e-05   8.3839413e-06  -3.5769356e-06   8.6341221e-05   1.0482498e-04  -1.0383924e-04  -1.2144326e-04  -2.4502317e-04  -1.0224173e-04  -3.2875745e-05  -1.5487548e-04   1.4394769e-04  -6.4921027e-05  -7.1268398e-05  -1.8977844e-04  -1.6894389e-04  -7.5531229e-05  -1.3637228e-04  -5.5729586e-05  -9.6752483e-05  -1.0988859e-04   1.3254758e-04   1.5400191e-04   3.5385430e-04   1.8520431e-04   3.6394582e-04  -1.2485770e-04   1.2822704e-04  -7.4650226e-05   2.7865573e-04
  -8.2929284e-05  -1.1138459e-04   1.0442681e-04  -7.3107192e-05   1.2478147e-05  -1.6280383e-04  -4.0443014e-05  -7.3460993e-05  -2.3756082e-05   3.5438826e-04   2.8533704e-04   1.9147676e-06   1.4480855e-04   9.6327843e-05  -9.4853138e-05   3.1049080e-05   3.1848940e-05  -1.4412322e-04  -1.5299032e-05   1.4149635e-04   4.1088831e-05   1.5524718e-05   1.4658021e-05  -6.0136641e-05  -2.2150758e-04  -2.8162805e-04  -1.2182703e-04  -1.7551429e-04  -6.7157262e-06  -2.2306884e-05   4.0846342e-05   2.8231196e-05   7.9139973e-05  -6.1003091e-05  -1.9907214e-04  -1.1596622e-04  -9.8498967e-05  -1.5761182e-04  -3.5264078e-05  -1.3816320e-04  -3.0573356e-05   2.8357972e-05   7.8451107e-05  -2.5082217e-04   3.7471158e-04   4.1173636e-05  -9.7455450e-05   2.8825758e-04   2.4909590e-04   3.7284748e-04
   7.1633796e-05  -1.1687030e-04   8.5790620e-05  -9.6552380e-05   2.5751087e-05  -1.5167080e-04  -7.2650277e-05  -1.3406738e-05   1.8766383e-05   3.4229766e-04   2.7159933e-04  -1.9004914e-05   1.5940703e-04   1.0750522e-04  -1.6506622e-04   2.2905850e-05   3.5690377e-05  -1.3293554e-04   3.2773311e-04   1.4681714e-04   4.2613603e-05  -7.3648640e-05  -4.0113679e-05  -4.4601879e-04   1.6769383e-05  -2.5200896e-04  -5.5666089e-05  -9.8364173e-05  -2.1415888e-05  -2.9059849e-05   5.2993113e-05  -4.1199728e-05   2.0579749e-04  -8.5515203e-05  -2.1934720e-04  -8.1582555e-05  -3.6355330e-05  -1.0734159e-04  -3.5421574e-05  -2.4460995e-04  -1.3183852e-05  -8.0733931e-05  -2.7426693e-05   7.5474840e-05   3.2862698e-04   1.1883772e-04  -9.5780168e-05   5.9058333e-05   4.3955428e-05   4.0524773e-04
  -2.3979790e-05  -1.1975156e-04   8.6544838e-05  -1.5380727e-04   4.0601448e-05  -1.9828146e-04  -8.2125698e-05   1.2715742e-06   7.0697490e-05   3.5085325e-04   2.7153519e-04  -7.0818828e-06   1.4109965e-04   1.4070611e-04  -1.3358558e-04   1.9515563e-05   3.3594319e-05  -1.1013524e-04   1.8064865e-04   1.5470895e-04   9.4903800e-05  -3.9837469e-05  -2.4633806e-05  -1.1547535e-04   5.6690868e-04  -2.2743538e-04  -1.5109133e-04  -1.1112271e-04  -5.1970412e-05  -2.0267689e-05  -9.3514813e-05   1.4174824e-04  -5.3057058e-05  -4.2925982e-05  -2.3312886e-04  -4.3578020e-05  -8.9477915e-05  -1.5764253e-04  -7.6355136e-05  -2.0679552e-04  -9.4506213e-06  -2.9244609e-05   6.9733382e-05  -3.2035048e-05   2.1459485e-04   8.9916881e-05  -9.1266615e-05  -1.4345464e-04   1.8023062e-04   3.7956049e-04
   2.8607195e-05  -1.1677667e-04   1.1535995e-04  -7.5394870e-05  -5.6383424e-06  -1.0328569e-04  -9.2153205e-05  -4.7594385e-06  -3.3446908e-05   3.5683968e-04   2.8554437e-04   2.0816662e-05   1.2096914e-04   8.3449704e-05  -2.4417057e-04  -4.5271745e-06  -7.2380635e-06  -1.2296974e-04  -6.5140215e-05   1.2949556e-04   6.9029986e-05  -1.0988829e-05   1.2850188e-04  -5.4896093e-04  -4.7650150e-04  -1.5609768e-04  -1.2519673e-04  -1.6988860e-04  -5.9993348e-05  -3.2337543e-05   6.7899891e-05  -2.8447243e-05   1.0283922e-04  -9.6454052e-05  -2.1550318e-04  -1.2642857e-04  -9.6237913e-05  -1.2525865e-04  -7.4054340e-05  -2.9536235e-05  -4.4066604e-05  -1.0597639e-04  -1.2471992e-05  -1.1154930e-04   3.9176384e-04   4.8000552e-04  -7.3446878e-05   4.6457117e-04   3.3459481e-04   3.0843980e-04
   6.0387465e-05  -1.1535741e-04   9.5956246e-05  -8.6225766e-05  -8.6832142e-06  -1.5564234e-04  -1.0795784e-04   3.0006726e-05  -1.1023233e-04   3.4323151e-04   2.7458835e-04   4.2930122e-05   1.4643860e-04   8.6556822e-05  -1.4583340e-04   2.2329784e-06  -1.2895156e-05  -1.4602889e-04   3.1858406e-04   1.4148884e-04   4.1856943e-05   2.3799086e-05  -1.7500216e-04   5.7305078e-05   4.0003237e-05  -2.2589343e-04  -1.0311214e-04  -8.1504120e-05  -9.2274400e-05  -1.3584871e-05  -3.2752920e-05   1.1746710e-04   1.2010695e-04  -1.1149483e-04  -2.5205585e-04  -1.4684089e-04  -5.9453669e-05  -1.0686294e-04  -6.0203325e-05  -1.7031586e-04  -3.2998036e-05  -8.4466110e-06  -2.7361268e-04   4.6941696e-04   2.4660205e-04   8.6927263e-05  -7.0953894e-05  -1.5211636e-05  -1.9571967e-06   4.5678567e-04
   5.2987925e-05  -1.2984035e-04   1.5231305e-04  -7.8736237e-05   3.1368938e-05  -2.2641303e-04  -9.6279160e-05  -1.7033481e-05   5.6658464e-05   3.4806898e-04   2.7617274e-04  -5.7089974e-06   1.4877737e-04   9.9262666e-05  -1.2191723e-04   4.0258119e-06   1.7403017e-05  -9.7929500e-05   4.7607650e-04   1.5692960e-04   6.2386156e-05  -5.8280643e-06  -1.9179938e-04  -4.4780776e-05   1.5765443e-04  -1.7044939e-04  -1.2925152e-04  -8.0817779e-05   5.1608167e-05  -1.1041423e-05   1.2316082e-04   1.0771730e-04   4.3450604e-05  -1.0622141e-04  -2.0551622e-04  -1.0820117e-04  -3.4294273e-05  -9.8599201e-05  -2.0648866e-05  -1.7005784e-04  -1.6292153e-05  -8.1868866e-06   7.8959492e-05  -7.0491206e-04   3.3947223e-04   3.1629496e-04  -3.5413337e-05  -3.7960705e-04   1.2659546e-04   4.0874581e-04
   8.8668094e-05  -1.1451446e-04   2.9436653e-05  -7.4903845e-05   2.5144516e-05  -2.0123710e-04  -5.3048880e-05   2.7772698e-05   7.4420102e-05   3.6345908e-04   3.0471318e-04   9.3764851e-05   9.5752330e-05   1.0324224e-04  -1.3643464e-04   3.7445279e-05   1.4701391e-05  -9.4275652e-05   1.9792906e-05   1.3745137e-04   1.0216322e-04  -1.8940844e-05   1.6831142e-04   5.1198433e-05  -1.2458560e-04  -2.4060825e-04  -1.3705494e-04  -1.6468659e-04  -4.0582213e-06  -1.8880613e-05   6.3747459e-05   1.2559893e-04   6.9779890e-05  -7.1820003e-05  -1.8513542e-04  -9.8481003e-05  -7.2459377e-05  -1.0743900e-04  -7.3766139e-05  -1.9686991e-04  -1.3156597e-06  -1.4532863e-05   3.7120187e-04  -1.0408757e-04   2.2898662e-04   7.4115065e-05  -6.9532791e-05  -1.1857066e-04   1.5709297e-04   2.8784981e-04
   2.5835127e-04  -1.1458666e-04   8.6602908e-05  -8.8328234e-05  -1.5467620e-05  -2.1201775e-04  -4.3981177e-05  -5.5709810e-05   2.9572133e-05   3.6121291e-04   3.0595018e-04   5.1968218e-05   1.0619274e-04   7.8584919e-05  -1.0243536e-04   1.1198901e-05   4.3707561e-05  -9.1724840e-05   7.2502624e-04   1.3322542e-04   8.5160427e-05  -1.0064211e-05   2.4037246e-04  -3.2664662e-05   9.7175609e-05  -2.4769647e-04  -1.3467633e-04  -9.1849863e-05   1.9581183e-05  -1.5172081e-05  -5.5949599e-06   4.0655530e-05   2.6254609e-04  -7.2540119e-05  -1.5874179e-04  -1.3074813e-04  -3.3310396e-05  -9.8639866e-05  -5.8200367e-06  -1.3009961e-04  -3.9623410e-05  -1.3958525e-04   2.9615284e-04  -1.3805486e-04   1.6178496e-04   1.6933338e-04  -3.2548414e-05   3.0097171e-06   2.6857271e-04   4.8689032e-04
   1.2469343e-04  -1.2009290e-04  -5.7969894e-05  -9.1708476e-05  -4.2851607e-05  -1.7355401e-04  -6.4073502e-05  -7.7726923e-05   1.0439010e-04   3.5594459e-04   2.9276038e-04   1.8891922e-05   1.2996190e-04   1.0098083e-04  -1.3291168e-04  -8.8385068e-06   3.4333876e-05  -7.4564414e-05   2.3423859e-04   1.3839029e-04   7.0420145e-05   7.8969169e-05  -1.1085609e-04   2.3841750e-04  -1.3353962e-04  -1.9845452e-04  -5.5519271e-05  -1.5658401e-05  -4.6694815e-05  -1.2667208e-05   5.3991473e-05   9.3316623e-05   1.6577961e-04  -8.8217472e-05  -2.6028711e-04  -1.9108801e-04  -2.2230559e-05  -7.7399054e-05  -5.9454149e-05  -2.6078930e-04  -1.4079050e-05   2.7831964e-05   1.3816902e-04  -1.1795051e-04   9.8286415e-05   7.5536351e-05  -8.7950764e-05   9.3520801e-05   3.5792994e-04   3.3410094e-04
   1.5939273e-04  -1.2366816e-04   8.4915555e-05  -1.0022736e-04   2.4659219e-05  -2.0459600e-04  -4.5569916e-05  -3.7930564e-05   6.9784204e-05   3.7839345e-04   2.9893481e-04   4.5154397e-05   1.2407267e-04   8.2422164e-05   4.5677521e-06   3.3545010e-05   3.9597671e-06  -8.3192659e-05   2.8119987e-04   1.5425851e-04   1.4094090e-04   2.6046433e-05   3.9636434e-04   2.6805999e-04  -4.8569357e-04   1.5191080e-06  -4.8844231e-05  -1.2128786e-04   1.2197723e-05  -6.1418250e-06   4.0567527e-05  -1.9127606e-06   1.7719605e-04  -3.5171866e-05  -1.5334686e-04  -1.0943271e-04  -4.6655598e-05  -9.3792951e-05  -2.6287851e-05  -3.5745295e-05  -3.4496781e-05   2.7765274e-05  -5.5915491e-05  -1.5215133e-04   1.9234726e-04   1.4914521e-04  -5.5311826e-05   6.3725558e-05   1.8947768e-04   3.4242764e-04
   1.2894858e-04  -1.0344582e-04   1.4112407e-04  -1.3189272e-04  -7.1278351e-05  -1.8786779e-04  -8.0939630e-05  -9.5996722e-05   4.0479219e-05   3.7896808e-04   3.0287204e-04   6.8175941e-05   1.5175797e-04   8.1018108e-05  -1.6003693e-04  -1.0695982e-05   6.3727515e-05  -7.2367046e-05   6.5636105e-04   1.2792050e-04   1.0348018e-04   8.8536290e-05  -2.3622040e-04   4.0416478e-04  -8.7091867e-05  -5.1615920e-05  -5.3367476e-05  -7.3087613e-05   3.4817367e-05  -1.4743064e-05  -1.1466514e-05   1.4373983e-04   1.5427657e-04  -4.7476617e-05  -1.6462585e-04  -1.2968702e-04  -4.2834807e-05  -1.1418279e-04  -6.4572225e-05  -9.0581409e-05  -8.4655358e-06   4.9392362e-05  -2.9368667e-04   6.3417327e-05  -1.9623440e-05   3.4248063e-04  -9.0912101e-05   1.8544795e-05   2.4040289e-06   2.4942789e-04
   3.8948750e-05  -1.3725860e-04   5.3411219e-05  -9.2213544e-05  -2.3707207e-05  -2.5200215e-04  -7.0440306e-05  -5.1328239e-05   8.1875827e-05   3.6430184e-04   2.7606788e-04   4.3683227e-05   9.7246782e-05   7.6376731e-05  -5.6217013e-05   4.1722092e-06   2.4972867e-05  -1.3347827e-04   7.3057669e-04   1.5217124e-04   8.1164551e-05   4.4298624e-05  -8.5254607e-05   2.6641268e-04  -1.0059081e-04  -1.4565595e-04  -3.5552959e-05  -1.3241624e-04   3.1818610e-05  -1.1516697e-05   4.4465272e-05   1.0376219e-04   3.1488331e-04  -5.8845544e-05  -2.0112602e-04  -6.2516126e-05  -4.7064994e-05  -7.6978409e-05  -1.8141252e-05  -6.6311659e-05  -7.5914519e-05  -2.8902075e-05  -2.0862503e-04   3.1206620e-04   3.3545788e-04   3.7930717e-04  -1.2140214e-05   8.8514164e-05   1.9662749e-04   3.4666192e-04
  -3.0425292e-05  -1.3353619e-04   6.8908287e-07  -1.5976258e-04  -2.5341827e-05  -1.9149402e-04  -1.8433406e-05  -1.0651997e-05   3.1525833e-05   3.5215780e-04   2.7642644e-04   3.2519616e-05   1.0718351e-04   6.2085157e-05  -3.9747196e-05   2.2385149e-05   3.0358140e-05  -4.3623008e-05   1.3492387e-04   1.2533010e-04   8.8577493e-05   2.7020140e-05  -5.7419787e-05  -2.2524728e-04  -4.0550010e-05  -3.1666624e-04  -6.2657513e-05  -1.4140863e-04  -1.6068003e-05   1.3039291e-06   1.5544586e-04   8.9250621e-05   1.4984730e-04  -3.4272940e-05  -1.4743849e-04  -1.6228085e-05  -3.2445270e-05  -6.1242601e-05  -6.2412313e-05  -1.2930790e-04   9.6653703e-06   2.6643656e-05   2.7733669e-04   8.9715817e-05   3.1076057e-04   2.9522745e-04  -2.3296634e-05  -2.9881715e-04   3.0255929e-04   4.8269596e-04
   1.1360598e-04  -1.0691199e-04   1.1116678e-04  -7.2034876e-05  -6.3245003e-05  -1.4366633e-04  -6.1124694e-05  -1.8891713e-05   1.1210040e-04   3.7162736e-04   2.8466669e-04   1.1706698e-04   1.4421441e-04   3.9562598e-05  -2.7791252e-06  -4.2967895e-06   4.0090275e-05  -6.1481522e-05   9.0380207e-05   1.1933291e-04   1.2023906e-04   5.9616941e-05  -7.9520778e-06   4.3214601e-05   7.0260954e-05  -1.7285824e-04  -1.0545646e-04  -1.3509564e-04   5.2826930e-05  -3.2973805e-06   2.8569530e-05  -5.7958510e-05  -5.7259866e-05  -4.3511558e-05  -1.0960190e-04  -8.1717422e-05  -2.3351271e-05  -7.1507267e-05   1.0046526e-05  -4.5704077e-05  -1.0962563e-05   1.0647658e-04  -2.5370094e-04  -1.9423294e-04   2.8081919e-04   2.4649710e-04  -4.2848980e-05   2.0575269e-04   1.6151498e-04   3.7780567e-04
   1.2988180e-06  -1.2818672e-04  -3.7197024e-05  -9.2702328e-05   2.2644088e-05  -1.9535351e-04  -4.6564106e-05  -1.3362943e-05   2.5836212e-04   3.6295509e-04   2.8965823e-04   5.8876762e-05   1.2462804e-04   8.5205538e-05  -2.9574121e-05   2.2160446e-05  -5.3309063e-06  -2.7232898e-05   1.6930657e-04   1.4985290e-04   1.2563296e-04   1.0216258e-04   5.7569265e-05  -5.6468125e-05  -7.0479902e-05  -2.0994149e-04  -7.8690289e-05   6.3928768e-05  -4.0401501e-05  -1.1809333e-05   1.0836502e-04   5.0102015e-05   2.3018983e-04  -5.1800889e-05  -1.8988297e-04  -7.7865428e-05  -5.1932289e-05  -6.6499779e-05  -3.6538127e-05  -3.5685927e-05  -1.6788539e-05   5.6781100e-05  -1.9752502e-04   3.0791946e-04   1.2604671e-04   5.5410797e-05  -7.6827280e-05  -5.1798474e-06   3.1977982e-04   3.8892688e-04
   4.3998160e-05  -1.2997647e-04   1.1208024e-04  -8.1292696e-05   8.0204145e-06  -2.0614026e-04  -1.1359042e-04   6.6481484e-06   7.4014359e-05   3.4040003e-04   2.4567169e-04   3.1741965e-05   1.3906747e-04   6.3904692e-05  -4.8407102e-05   1.7882183e-05  -3.8512542e-07  -8.3138257e-05   3.7075506e-04   1.0948935e-04   1.0960833e-04  -1.3199465e-05  -2.1825836e-04  -1.7433458e-04   1.4926844e-05  -2.4017709e-04  -7.4051299e-05   7.2581599e-05  -2.6037784e-05  -3.0676565e-05   2.0426731e-05   3.1453248e-05   1.2390834e-04  -7.8332763e-05  -1.4034755e-04   9.8047276e-06   1.5549762e-05  -3.3470107e-05  -4.6140245e-05  -1.2205647e-04   2.7994298e-05   5.2314767e-06  -5.0782623e-05  -9.1867050e-04   2.6634912e-04   4.9882139e-05  -7.7695317e-05  -1.9512288e-04   2.3060964e-04   4.1668388e-04
   5.3375596e-05  -1.2350874e-04   1.5674374e-06  -1.4728370e-04   2.9861032e-05  -1.8026070e-04  -5.0876701e-05  -1.4323909e-04   2.7523399e-04   3.5698529e-04   2.7498108e-04   5.6411081e-05   1.1915114e-04   1.1130654e-04  -8.9966430e-05   1.1750120e-06   1.5399639e-05  -3.3079541e-05   4.6356698e-04   1.5241210e-04   1.4126963e-04   1.2836292e-04  -9.4009294e-05   1.0118684e-04  -2.4896077e-04  -3.8894366e-05  -5.8219397e-05   2.7514021e-05  -3.4680335e-05  -1.4018293e-05  -3.7754380e-05   7.6180833e-05   5.0139104e-05  -1.9695248e-05  -1.1838495e-04   5.4755648e-05  -4.1131349e-05  -7.0225469e-05  -2.1916376e-05  -4.6626948e-05   1.1626608e-04   5.0049326e-05   1.6584389e-04   6.5158075e-04   2.0496368e-04   1.0099117e-04  -9.7024917e-05   3.0704388e-05   3.0712460e-04   3.0519045e-04
  -1.6388629e-05  -1.2351853e-04  -1.0839337e-04  -1.1124173e-04  -7.8163561e-05  -2.0367792e-04  -8.4289430e-05  -7.1618393e-05   1.4901059e-04   3.4006816e-04   2.7842537e-04   2.1921878e-05   9.0565452e-05   6.0456594e-05  -5.9105711e-05  -1.3166048e-05   2.6386535e-05  -5.0954539e-05   6.1066523e-05   1.3810178e-04   1.2252323e-04   3.0945645e-05   7.2437702e-05   2.3529043e-04  -1.8777514e-06   2.3684257e-05   1.4976789e-05  -8.0931995e-06  -1.3240505e-04  -1.8431061e-05   3.2660035e-05   1.7076939e-04  -6.4314836e-06  -1.6300464e-05  -1.7818672e-04  -1.4325335e-04  -2.8877703e-06  -7.6070915e-05  -1.3465036e-05  -5.4294778e-05   4.1176016e-05  -1.1091353e-05  -3.8214603e-05  -2.5048354e-05   3.3824308e-05   1.9369330e-04  -5.7483730e-06   1.9484681e-04   2.5395947e-04   4.0387941e-04
   2.5598176e-05  -1.2376207e-04  -6.7779030e-05  -1.6513748e-04   4.9211903e-05  -2.0858055e-04  -7.7952791e-05  -6.7476663e-05   1.8569391e-04   3.2739979e-04   2.5513233e-04   7.2284194e-05   1.1451845e-04   8.9939356e-05  -3.3542830e-05  -2.5665636e-06   3.1439657e-05  -6.4151493e-05  -3.3403045e-05   1.4680738e-04   1.1306465e-04   8.3708772e-05  -5.5142045e-06  -5.3007407e-05   1.2868973e-04  -9.0198191e-05  -6.5317661e-05   3.0551935e-06   2.1834110e-06   2.2716138e-06   6.0278428e-05   1.0757936e-04   1.4732986e-04  -5.4561278e-05  -6.1092134e-05  -1.5080394e-04   1.5005777e-05  -5.3466516e-05  -4.1275940e-05  -9.9864556e-05   8.2166218e-05  -2.1941692e-05   1.3712932e-04   1.0648263e-04   2.7185041e-04   3.3672506e-04  -3.7925842e-05   6.1986917e-05   3.5939086e-04   3.5266968e-04
   6.6575274e-05  -1.2499960e-04  -3.2933804e-05  -1.6888995e-04   7.2469142e-05  -1.8682597e-04  -1.4807508e-04  -7.3057301e-05   2.0921625e-04   3.3230952e-04   2.6600304e-04   4.6093784e-05   1.3773194e-04   1.1116849e-04   2.9868811e-06   3.6362431e-05   3.1796862e-05  -4.6016816e-05  -4.8159920e-05   1.7870619e-04   1.5696575e-04   1.6047199e-04  -1.1637002e-04   2.7088379e-05   1.9607999e-04  -1.0231726e-05  -1.1357657e-04  -9.4414820e-05  -3.3125878e-05  -3.4208471e-05  -2.4775522e-08   7.8898804e-05   1.7797652e-04  -1.6699652e-06  -8.4599684e-05   6.4877815e-05  -3.1775635e-05  -6.2670151e-05  -3.9694118e-05   1.4403821e-05   2.7169976e-05   6.1460647e-05  -4.8118825e-05  -4.0618717e-04   3.8991732e-04   2.3645413e-04  -8.1503546e-05   1.1241435e-04   2.3424298e-04   3.3451625e-04
   8.7619905e-05  -1.0018382e-04  -7.3275434e-05  -1.3813833e-04  -2.5829486e-05  -1.8536110e-04  -6.3030508e-05  -5.3283242e-05   2.0294098e-04   3.1773705e-04   2.6247205e-04   6.0069553e-05   1.0010753e-04   6.9240697e-05  -4.9302471e-05   3.1718268e-05   3.7286849e-05  -5.0208615e-05   2.5914549e-05   1.5395801e-04   1.2037769e-04   1.1609319e-04   9.9733719e-05   1.2956573e-04   5.3197036e-05  -1.1041251e-04  -4.8997656e-05   1.9190633e-05  -1.5123797e-05  -1.1525643e-05   5.7146339e-05  -1.2580362e-05   1.9703811e-04  -2.7134809e-05  -1.4208158e-04  -1.1254432e-04  -2.7418222e-05  -4.0367257e-05  -5.6366276e-05  -1.6966066e-04   7.7041783e-05  -3.0058709e-05  -1.7875957e-04  -7.8368624e-04  -3.4482462e-05   7.4830132e-05  -1.7148461e-05  -1.2158689e-05   6.4396605e-05   3.8437033e-04
   1.3268163e-05  -1.1440503e-04  -4.1994419e-05  -7.8454825e-05   9.5764430e-05  -1.8063733e-04  -6.6994842e-05  -8.3159175e-05   5.7272267e-05   2.9520280e-04   2.3568449e-04   3.4981877e-05   1.0764287e-04   5.4086016e-05  -5.8635709e-05   6.4770129e-06   6.1955674e-05  -6.3534499e-05   4.0206551e-06   1.3512489e-04   1.1092088e-04   1.1687732e-04  -5.7346937e-05  -3.0490151e-04  -1.8055052e-04  -1.2435800e-04  -9.1407255e-06   1.6336631e-05  -1.8161343e-05  -4.7036806e-06   6.8148955e-05   7.7589422e-05   2.1424763e-05  -2.3416362e-05  -1.3714828e-04  -6.2075786e-05   1.8740073e-07  -6.2566665e-05  -2.3475348e-05  -8.5878615e-05   6.3817184e-05  -1.5347689e-05   3.4150973e-04   4.0276325e-04   1.9845505e-04   1.4619852e-04  -7.3557196e-05   7.9709367e-04   2.3784468e-04   3.6907816e-04
  -2.4521143e-05  -1.0382161e-04  -4.0293511e-05  -1.3701539e-04  -5.5547906e-05  -1.2069115e-04  -4.4715478e-05  -1.0216606e-04   2.1110065e-04   2.9943418e-04   2.3026206e-04   5.2056737e-05   1.2801340e-04   8.7224136e-05  -4.8502359e-05   3.4112672e-05   6.3258718e-05  -2.2541733e-05   2.7963560e-04   1.5988633e-04   1.0647043e-04   4.1512303e-05   3.7941008e-04  -1.8681298e-04  -8.8278932e-05  -2.0615703e-04  -3.6865331e-05  -1.0729075e-05  -2.3305970e-06  -1.0913544e-05   5.3992015e-05   2.4620740e-04   1.2320935e-04   1.1584212e-05  -9.9492194e-05  -8.4888110e-05   7.9757083e-06  -6.0931776e-05  -8.6727632e-06  -7.0722548e-05   4.1242911e-05   7.6136326e-05   4.7260008e-05  -1.7147996e-04  -1.6281090e-05   1.7622765e-04   9.6311487e-06   3.6250855e-04   2.6898162e-04   3.7836304e-04
   1.0178999e-05  -1.0177912e-04   6.2991865e-05  -1.3485944e-04  -2.1148287e-05  -7.7327910e-05  -5.2956115e-05  -1.0919566e-04   3.2338034e-04   3.0665266e-04   2.4158935e-04   7.3636249e-05   1.0553422e-04   8.3637016e-05   2.4427512e-05   9.2555165e-06   5.6599223e-05  -5.1114184e-05   6.7519584e-05   1.2666699e-04   1.1804883e-04   9.1710594e-05   3.2785675e-04  -2.4600886e-04   6.7618690e-05  -1.7987761e-04  -3.6019519e-05   8.3585019e-06  -7.0626651e-05  -1.1955834e-05   1.6716430e-04   1.4575168e-04   1.0928247e-04  -2.7881065e-06  -1.1776118e-04   1.6750137e-05  -1.0488180e-05  -5.4347889e-05   1.4604502e-05  -3.0408293e-05  -6.6422785e-06   1.0773785e-05   6.4431842e-05  -3.3784265e-04  -1.0238194e-04   1.2205070e-04  -3.0992662e-05   2.2509150e-04   4.5286640e-04   4.1700777e-04
   9.1686241e-05  -1.0483417e-04   5.3519602e-06  -1.5227825e-04  -7.5110911e-05  -1.4815481e-04  -1.1162755e-04  -7.0052040e-05   1.5438226e-04   2.8917179e-04   2.1892710e-04   6.7822421e-06   1.3956481e-04   8.7157561e-05   2.6818418e-06   3.3033401e-05   7.9642858e-05  -4.3544354e-05  -1.3620237e-05   1.3263783e-04   7.9393947e-05   5.0200932e-05   4.5403576e-05  -1.5346742e-04  -3.8367268e-04  -1.5551677e-04  -4.9153958e-05  -1.1592409e-04  -2.8584200e-05   7.8765433e-06   1.8036988e-04   7.0646063e-05  -1.3627381e-04  -5.9637852e-05  -6.7195819e-05  -1.1383348e-04   4.9015667e-05  -4.9406459e-05   1.1231236e-05  -8.2650993e-05   9.0994530e-05  -4.0887713e-05   1.4176553e-04   7.1329979e-04  -8.1518432e-05   8.0565827e-05  -5.9634152e-05   5.2708219e-04   2.0012048e-04   2.6269018e-04
   2.7778520e-05  -1.0171220e-04   2.8600054e-05  -8.3907609e-05  -2.9384277e-05  -1.6853088e-04  -4.2170985e-05  -5.4469157e-05   1.9819198e-04   2.9720500e-04   2.5603842e-04   1.1458421e-04   1.4937937e-04   7.8713099e-05   7.4148986e-05   2.3980418e-05   2.4570552e-05  -3.5300909e-05   3.2473799e-05   1.5779628e-04   9.9710596e-05   8.5751039e-05   1.1667136e-04   5.4926062e-05   1.7433192e-04  -9.4919851e-05   1.3431900e-05  -4.8473757e-05  -5.6512010e-05  -1.4879425e-05   4.4283457e-05   9.4302493e-05   2.0862723e-04   3.9980245e-05  -1.3344784e-04  -8.0533791e-05   1.2891885e-05  -7.6905177e-05  -2.3446495e-05  -1.7930963e-05   4.9146842e-05   4.1357078e-05  -1.9916041e-04   1.1046926e-04   2.5109938e-04   1.7275289e-04  -2.5347432e-05  -3.9560502e-05   2.8775985e-04   3.6702110e-04
   9.9948200e-05  -7.9286809e-05  -3.0824151e-05  -1.0402521e-04  -3.1226653e-05  -1.2803212e-04  -8.4261475e-05   1.5643009e-05   6.5648492e-05   2.7562107e-04   2.3911936e-04   1.2130171e-04   1.5704749e-04   6.8512818e-05  -5.4271317e-05   2.6648415e-05   3.9446299e-05  -3.6640926e-05   2.0962412e-04   1.5077175e-04   8.0361417e-05   5.3570267e-05   1.4114272e-04   2.4175982e-04  -1.8730447e-05  -7.1196635e-05  -1.0151658e-04  -6.0024235e-05   2.3313537e-06  -2.4892770e-05   4.5347559e-05   1.2075953e-04   8.5289685e-05  -1.2472277e-05  -7.2666327e-05  -3.0071405e-05  -3.5759691e-05  -4.0636500e-05  -1.3819537e-06  -4.2929310e-06  -4.0757077e-05   4.0303810e-05  -1.6649849e-04  -1.7393414e-04   1.8167529e-04   1.6180151e-04  -4.7959162e-05   9.8967568e-05   2.4517911e-04   3.1478549e-04
   1.6759643e-04  -9.7153665e-05   1.5990319e-05  -9.9971294e-05   5.6452286e-06  -1.0120070e-04  -8.7727130e-05  -1.5841706e-05   4.4957436e-05   2.5583236e-04   2.2815081e-04   5.4490898e-05   1.4618959e-04   7.9901729e-05   1.5822015e-05   3.8784663e-05   5.5903110e-05  -5.8853373e-05   4.0482829e-04   1.2770531e-04   6.9105387e-05   1.6686838e-04   3.4292865e-05   6.3716798e-05  -1.1991714e-04  -7.4827178e-05  -5.1755738e-05   7.8324410e-06  -4.4685734e-05  -2.2823649e-06  -5.1831943e-05   1.7557417e-04   1.8664620e-04  -2.9223878e-05  -8.0568687e-05  -9.5089363e-06  -2.4106761e-05  -3.3469958e-05  -2.4117144e-05  -1.3968027e-04  -1.4366901e-05  -1.8492790e-05   8.9405781e-05  -2.1146609e-04  -4.8760398e-06   6.2070110e-05  -1.2132842e-05   4.2117323e-04   1.7330762e-04   3.8173699e-04
   9.1655114e-05  -7.6854732e-05  -9.8687251e-06  -7.3728137e-05  -4.1524243e-05  -1.2580022e-04   3.3101431e-05  -6.4586115e-05   1.9055625e-04   2.6049063e-04   2.4850917e-04   9.0575115e-05   1.2149467e-04   9.5368152e-05   1.3301101e-05  -6.9688519e-07   6.2284329e-05  -2.7023081e-05   5.1381002e-04   1.4413209e-04   1.2645341e-04   1.6555513e-04   6.1302548e-05   9.4296782e-05  -7.3237628e-05  -9.7658312e-06  -1.1109063e-04  -1.5300215e-04  -1.1499644e-04  -1.3055390e-05   1.9584757e-05   1.1091406e-04   5.8121572e-05   7.7377099e-06  -1.3936032e-04  -9.1900503e-05  -7.9323589e-05  -2.8784851e-05   9.9845520e-06  -7.5776819e-07   2.2863313e-05  -2.1256012e-05   2.9930012e-05   2.7908251e-04  -2.8263297e-04   3.7186986e-04  -5.3450356e-05   1.6378034e-04   1.0111310e-04   1.9992408e-04
   1.0198574e-04  -8.8271219e-05  -3.8940598e-06  -7.5608878e-05  -6.0743987e-05  -2.0456752e-04  -2.1956519e-05  -1.3633846e-05   7.5575233e-05   2.3363018e-04   2.4576922e-04   6.4136817e-05   1.2940317e-04   2.5291085e-05   2.8988301e-05   1.0945085e-05   8.1388454e-05  -5.1469709e-05   6.0325849e-04   1.1493795e-04   6.2745567e-05   2.6679974e-05  -4.9508344e-05   3.5842124e-04   3.0867109e-04  -1.8576815e-04  -7.7288460e-06  -7.1425806e-05  -2.2037097e-05  -3.7775881e-05  -2.8280936e-05   7.2470633e-05   3.3206841e-05  -2.3178469e-05  -1.3097696e-04  -1.2366047e-04  -5.6793033e-05  -6.6106491e-05  -4.6016419e-05   7.4744730e-07  -1.1017865e-04   1.4405481e-05  -2.6197830e-04   6.7134318e-04  -6.1379746e-05  -2.5150795e-05  -5.7630474e-05   1.3195637e-04   1.8098844e-04   2.3094322e-04
  -4.9393333e-05  -1.0055284e-04  -2.4177392e-04  -1.3568776e-04  -2.8725784e-05  -1.3228285e-04  -1.0005093e-04  -2.9545959e-05   4.7918889e-05   2.1021040e-04   2.1206003e-04   2.9701145e-05   1.3694845e-04   5.1510218e-05   5.7173547e-06   4.9848037e-05   5.4781682e-05  -7.6644137e-05  -2.2133421e-04   9.9809309e-05   2.7623992e-05  -3.5547878e-06  -1.5458283e-04  -3.6630328e-04  -4.7835862e-04  -4.5579880e-05  -9.8554963e-05  -8.1283564e-05  -8.3104118e-05  -1.4436449e-05   5.9187056e-05   1.3272498e-04  -1.9657482e-05   2.1482646e-07  -1.5625657e-04  -3.4952536e-05  -4.7169393e-05  -6.4603111e-05   2.6890687e-06  -1.9413973e-04  -4.0722930e-06  -7.2746319e-05  -3.4685756e-04   8.6381639e-05   2.4684466e-04   1.7656287e-04  -1.1000185e-04  -2.4415636e-05   2.7123056e-04   2.0933847e-04
   2.8130089e-05  -1.0549722e-04  -1.2469615e-04  -9.8358141e-05   1.4123586e-06  -1.2978977e-04  -5.1262155e-05  -5.8101119e-05   4.9967926e-05   2.1134187e-04   2.1835147e-04   2.6890842e-05   1.8316673e-04   9.4277011e-06  -6.3652260e-05   3.5483677e-05   6.4560052e-05  -7.4430522e-05   5.4651266e-04   1.2259779e-04   7.3734140e-05   8.0615559e-05  -3.6075086e-05   1.6814117e-04  -2.0485312e-04  -2.1854703e-05  -6.9867914e-05  -1.0442329e-04  -9.6512544e-05  -6.1771125e-06   1.7746605e-04   1.4514181e-04  -3.2219799e-05   9.0502417e-06  -9.7402313e-05  -8.3077350e-05  -2.5602285e-05  -8.0871301e-05  -2.3719134e-05  -1.0718212e-04  -1.0174635e-05   7.6686356e-06   5.8091326e-05  -1.8991361e-04  -5.6704717e-05   9.0137662e-05  -1.2292346e-04  -1.0418380e-04   3.5697073e-04   2.7461900e-04
   9.8869306e-05  -1.0082542e-04  -2.0622107e-04  -1.1033738e-04  -1.7898861e-05  -1.5731101e-04  -1.3389126e-04  -4.4485849e-05   9.3334696e-05   2.0415492e-04   1.7895295e-04   2.1854108e-05   1.1152395e-04   1.7509446e-05  -1.2535128e-05   2.0561560e-05   3.2045358e-05  -5.4379954e-05   1.0449871e-04   8.5105501e-05   2.5998717e-05  -5.6252098e-05  -1.4569999e-06   3.1761412e-04   2.2924572e-04   3.8603415e-05  -4.8382472e-06  -1.2110884e-04  -1.1184933e-04  -3.1810363e-05   8.3289196e-06  -5.5769717e-05   2.2243445e-04  -5.6170102e-05  -1.6937699e-04  -9.3313327e-05  -9.5879346e-05  -7.0128437e-05  -5.1948722e-05  -5.3798831e-05  -9.5585783e-05  -2.1071958e-04   1.7550148e-04   4.2320188e-04   9.7315926e-05   1.3999490e-04  -8.2591367e-05  -1.2516261e-04   1.7448397e-04   2.4302764e-04
  -1.0961741e-05  -1.3457540e-04   2.6793070e-05  -1.2855737e-04  -8.0215032e-05  -1.8278616e-04  -1.5786772e-04  -1.0356925e-04  -3.3839387e-05   1.6886309e-04   1.2867208e-04  -4.2092561e-05   7.3248251e-05   1.3889241e-05   1.0780548e-05   4.1988387e-05   3.0669711e-05  -2.6074826e-05   3.1237822e-04   6.0669583e-05  -9.2559485e-06  -1.9076202e-05  -4.3904951e-05   2.3647022e-04   1.0474924e-04  -1.1726222e-04   2.6688755e-05  -1.0286708e-04   1.0467294e-05   9.9734461e-06   7.0637907e-05   7.2565781e-06  -8.7371765e-05  -4.4059623e-05  -2.1409207e-04  -9.8225595e-05  -2.6025389e-05  -6.9607238e-05  -6.2153180e-05  -2.4687249e-04  -1.4562816e-04  -1.1846669e-04  -1.8280228e-04  -7.4847008e-04   2.3439956e-04   2.4258555e-04  -1.1234071e-04  -1.8299521e-04   1.2852610e-04   1.6174435e-04
  -5.0443261e-05  -1.3033662e-04  -1.9187329e-04  -1.2595933e-04   1.3501942e-05  -2.1714282e-04  -7.3329633e-05  -1.5657122e-05   9.0081077e-05   1.7009840e-04   1.5340607e-04   1.3517611e-05   9.4912808e-05   1.6234837e-05  -4.0382329e-05   3.5587385e-05   4.2660700e-05  -3.4460991e-05  -3.6909941e-04   6.4494583e-05   4.6763675e-05   2.1062087e-05   6.4989072e-05   3.0174264e-04   3.1949683e-05  -6.9868569e-05  -9.2412010e-05  -7.8305304e-05  -3.2118955e-05  -1.9781424e-05  -4.9280581e-05   7.0600749e-05   2.0287912e-04   1.7624174e-05  -1.2175177e-04  -1.1342877e-04  -7.5317366e-05  -6.9661721e-05  -5.7106787e-05  -1.0194912e-04  -4.0027924e-05  -2.1529577e-04  -7.2657444e-05  -6.4860354e-04   2.9048882e-04   8.7648528e-05  -1.2825664e-04  -5.4624583e-05   2.9095647e-05   2.1404847e-04
  -9.0049754e-05  -1.2203875e-04   9.0688764e-06  -1.2728079e-04  -1.1822765e-05  -2.6503889e-04  -3.7512611e-05  -1.0808367e-04  -2.0672694e-04   1.6649127e-04   1.3702079e-04  -1.9169007e-05   1.0495938e-04   4.3892942e-05  -6.7737266e-05   2.1724902e-05   2.7783399e-05  -5.1642204e-05  -1.6608853e-04   5.0021583e-05   2.0626689e-05  -5.0673571e-05   1.2073102e-05  -4.4157144e-04  -3.0475017e-04  -2.7263390e-05  -4.8621943e-05  -1.4062932e-04  -1.0942728e-04  -3.0387233e-05  -2.2917286e-05   1.7100606e-04   9.4066578e-05  -1.3828542e-05  -1.8607431e-04  -1.4548679e-04  -2.7831000e-05  -7.7890552e-05  -2.3589948e-05  -8.8911118e-05  -4.7485784e-05  -1.3318032e-04   1.1170052e-04   2.6784147e-04   2.4035644e-04   1.7596458e-04  -1.7174071e-04  -1.9674681e-04  -1.3976092e-05   1.9943200e-04
  -1.1718846e-04  -1.4130876e-04   1.9986844e-06  -1.4777717e-04  -6.0703111e-05  -2.1513210e-04  -1.0285874e-04  -4.4211261e-05  -1.7220210e-04   1.5718515e-04   1.2677078e-04  -5.0375176e-05   8.7778244e-05   2.5571577e-05  -5.6432051e-05   2.3940299e-06   1.8829694e-05  -7.0348862e-05   2.7152819e-05   1.0733460e-05  -1.7001144e-05  -4.1811025e-05  -6.6157168e-05  -1.9358569e-04   2.4561616e-06  -2.7152599e-04  -1.2001662e-04  -6.9506073e-05   3.4200693e-06  -1.4284640e-05  -3.7992297e-05   2.7363823e-05   3.9019228e-06  -5.3338710e-05  -6.3081163e-05  -6.2957857e-05  -6.2848434e-05  -6.7190929e-05  -2.8857679e-05  -6.0320053e-05  -5.6461802e-05  -4.1143798e-05   5.2076288e-05  -4.7471531e-04   5.9410275e-05   5.6158431e-05  -1.3392710e-04  -2.4064118e-04   2.2025511e-05   1.5850134e-04
  -1.4987825e-04  -1.5678802e-04  -7.2466224e-05  -1.6454449e-04  -1.0140544e-04  -1.9935322e-04  -1.3091280e-04  -5.8981714e-05  -1.8616304e-04   1.5941267e-04   1.2191851e-04  -2.7604722e-06   5.4935546e-05   3.3963654e-05  -1.7853625e-04   2.4352987e-05   5.0769045e-06  -5.4887263e-05   6.6953544e-05   4.0265510e-05   2.6074265e-05  -1.0215441e-05  -1.4504665e-04   3.4122390e-04   1.3330634e-04  -8.0743885e-05  -7.5116914e-05  -1.7833650e-04  -1.0104407e-04  -8.7114886e-06   2.2909961e-05   1.2063753e-04  -8.6827800e-05   1.8909424e-05  -1.8805664e-04  -3.2845524e-05  -2.8229213e-05  -6.7945373e-05  -7.3239309e-05  -1.5353953e-04  -8.6864224e-05  -1.6297493e-04  -7.6274526e-05   5.1142101e-04  -4.0908595e-05   1.2992704e-04  -1.1817725e-04   8.5623971e-05   9.8144073e-06   7.3474497e-05
  -1.2661402e-04  -1.4735488e-04  -1.7662808e-04  -1.3128929e-04  -4.4489079e-06  -1.9404275e-04  -1.2744725e-04  -5.1496107e-05  -2.0579889e-04   1.5414991e-04   1.1954885e-04   1.5139405e-05   3.3797842e-05   3.9351180e-05   1.5536069e-07   1.2097698e-05   2.1590868e-05  -8.1412327e-05   7.0425041e-05   2.3529561e-05   4.3997120e-06  -1.7223272e-05  -1.4333686e-04   2.3234012e-05   1.2089266e-04  -2.2164259e-04  -1.2353824e-04  -1.8290940e-04  -3.5375640e-05  -2.7954160e-05  -2.0865598e-04   9.9237295e-05   2.7128050e-05  -2.6051519e-05  -1.4207241e-04  -1.0800926e-04  -1.2712150e-04  -8.3809835e-05  -5.1914547e-05  -1.4739447e-04  -8.8759283e-05  -2.3388528e-04  -1.2169961e-04   2.0014032e-04  -1.1580237e-04   8.8176006e-05  -1.4700949e-04  -1.8518775e-04   3.3529686e-05   2.9007485e-04
  -2.6152493e-04  -1.6957083e-04  -4.9318536e-05  -1.8556335e-04  -8.9379995e-05  -2.2742078e-04  -4.9633305e-05  -3.8422149e-05  -2.5247026e-04   1.4067694e-04   9.4851057e-05  -1.0549882e-05   1.9097262e-05   3.2676231e-05  -9.6293697e-05  -2.4191171e-05   1.3058414e-05  -8.0213511e-05  -3.2420480e-04  -6.5979148e-06  -3.2094173e-05  -5.5451077e-05  -2.3867680e-04  -5.2934478e-04   6.9108966e-05  -9.3199124e-05  -1.2838467e-04  -6.4137581e-05  -6.5193592e-05  -3.1811021e-05   2.4508872e-06  -3.3436743e-05  -1.3226412e-04  -5.4175431e-05  -1.4207885e-04  -1.2433728e-04  -5.6323912e-05  -7.7665529e-05  -1.1039439e-05  -4.7467223e-05  -4.2573000e-05  -1.9849495e-04  -2.7406908e-04  -5.8659696e-04   2.9763949e-05   1.0659681e-04  -1.3136269e-04   5.6585362e-05   8.5856220e-05   1.5001462e-04
  -6.6610577e-05  -1.6303005e-04  -9.8163546e-05  -1.8436775e-04  -1.3295581e-04  -2.4472305e-04  -1.1720773e-04  -9.5552525e-05  -1.5719840e-04   1.4006298e-04   8.9429552e-05  -3.6612157e-05   4.4573240e-05   1.6068947e-05  -9.5826756e-05  -8.8400529e-06   1.9756912e-05  -8.0834405e-05   2.4695089e-04   3.8568182e-06  -2.9219540e-05   4.8785736e-05   1.2585036e-04   4.7101430e-04  -2.2150089e-04  -4.6655052e-05  -2.6204529e-05  -1.2903042e-04  -4.2043914e-05  -2.4265955e-05  -1.3265666e-04   1.4615474e-05   1.7941008e-04   3.4391687e-05  -1.9876436e-04   2.9293315e-05  -4.1008434e-06  -7.3515497e-05  -7.5350079e-05  -1.5661419e-04  -1.5765690e-04  -8.5710664e-05  -2.9114424e-04  -4.5599401e-04   1.4265736e-04  -6.2094514e-05  -1.6865825e-04  -1.3522284e-04  -2.5469318e-04   1.6275993e-04
  -1.8182949e-05  -1.5379146e-04  -5.6188219e-05  -1.3246754e-04  -5.7209236e-05  -2.0924999e-04  -1.4345699e-04  -1.0023364e-04  -2.0108507e-04   1.5475672e-04   9.4529292e-05   5.8483051e-06   1.1733307e-05   5.3932414e-05  -1.5100348e-04   6.5679546e-06  -6.4535408e-07  -7.2304734e-05  -1.7460688e-05  -9.5406767e-06  -4.1181076e-05  -3.6600625e-06  -7.8954063e-06  -5.4667942e-04   4.1691907e-05   3.7617487e-05  -3.8855953e-05  -1.0197052e-04  -5.1716383e-05  -2.1223746e-05  -1.1946318e-04  -1.0539925e-04   2.2692945e-04   9.2006003e-06  -1.8340835e-04  -5.1630028e-05  -9.0517162e-05  -5.3985063e-05  -1.7187245e-05  -1.3997665e-04  -1.3028439e-04  -8.7426102e-05   1.0742898e-04   6.7967630e-06  -2.6914314e-04  -2.9104964e-05  -1.5209470e-04  -2.0865377e-06  -5.8511061e-05   3.1450190e-04
  -1.4489217e-04  -1.5854066e-04  -1.3008893e-04  -1.5121613e-04  -1.1981134e-05  -2.4106620e-04  -9.4693591e-05  -1.2668584e-05  -9.4914933e-05   1.4419956e-04   6.5129811e-05  -1.7693308e-05  -3.2169200e-06   1.1127835e-06  -1.5454760e-04  -1.3804457e-05  -1.9699439e-05  -4.0772218e-05  -3.2392039e-04  -2.2190658e-05  -3.7348520e-05  -5.2813662e-05   1.5287018e-04  -4.6610396e-05  -2.4335328e-04   9.2050417e-05  -3.7525220e-05  -1.0944658e-04  -3.0781866e-05  -8.8989918e-06   6.6378154e-05   4.8621223e-05  -1.3836341e-04  -2.8884007e-05  -1.2032966e-04  -9.1888192e-05  -9.0645088e-05  -5.9245715e-05  -3.7701084e-05  -8.9947403e-05  -1.3825549e-04  -1.6283077e-04  -2.7730793e-04  -6.3721987e-04   3.8287501e-05  -1.3853719e-04  -1.8141929e-04   1.2326967e-04  -7.5816562e-05   2.4419438e-04
  -9.2552749e-05  -1.7227465e-04  -6.6472159e-05  -1.8802630e-04  -2.6568452e-05  -2.6093802e-04  -1.1737656e-04  -5.0204955e-05  -2.3878440e-04   1.3332037e-04   5.2020558e-05  -6.4348489e-05  -2.8884175e-05   7.9942074e-06  -2.5084448e-05  -1.4759818e-05  -3.8016249e-05  -8.9921617e-05   1.4190968e-04  -4.9463164e-05  -2.3390379e-05  -6.2752137e-05  -1.6177433e-04   2.8860695e-06   1.2003335e-04  -1.7279344e-04  -5.2235500e-05  -8.2766492e-05  -9.3909701e-05  -1.6311247e-05  -1.3186060e-06   3.5718342e-05   2.2246045e-04  -7.2828567e-05  -8.7699947e-05  -1.3014091e-04  -6.5842993e-05  -4.9539893e-05  -3.9687060e-05  -1.5346741e-04  -6.7273038e-05  -7.2067793e-05  -1.3165081e-04   1.7458170e-04  -4.7632723e-04  -8.8706336e-05  -1.3275490e-04  -1.5915283e-04  -8.7725268e-05   3.3429154e-05
  -7.2686104e-05  -1.5319440e-04  -2.3403229e-05  -1.3920241e-04  -5.4484128e-05  -1.8904448e-04  -1.4318600e-04   5.2582354e-06  -1.7572346e-04   1.5641534e-04   5.6160789e-05   2.4263014e-05   5.8685484e-05   4.3694050e-05  -1.1058783e-04  -2.7744260e-05  -1.6263099e-05  -1.0583568e-04  -2.5398543e-04  -2.7778206e-05   3.9619690e-06  -8.4806861e-06   3.6323239e-04  -1.5206523e-04   2.0828960e-04  -1.7678116e-04  -8.9634217e-05  -3.5350873e-05  -3.7349688e-05  -2.5141759e-05  -3.2912059e-05   1.2810442e-04   2.4931805e-04   1.0120650e-05  -7.2228919e-05  -7.7490251e-05  -5.6397723e-05  -4.6002358e-05  -8.3630475e-05  -1.1017295e-04  -1.0846279e-04  -8.7030174e-05  -7.0882132e-05   4.2911350e-05  -5.2010670e-05  -1.4745579e-04  -1.5228901e-04  -2.6602836e-04  -1.4246634e-04   1.5409516e-04
  -2.2856255e-04  -1.5804237e-04  -1.4915966e-05  -1.4680691e-04  -6.7994952e-05  -2.7792517e-04  -1.2175673e-04  -6.9381778e-05  -2.2437080e-04   1.6145494e-04   8.1665399e-05  -8.4934900e-06   1.5485064e-07   3.5492809e-05  -6.0672905e-05   1.3686828e-06  -1.9229306e-05  -6.8066918e-05  -8.9900190e-05  -4.2417661e-05  -5.3683002e-06  -1.9004722e-07  -1.9644576e-04   2.4867669e-04  -2.6353306e-04  -1.3924467e-04  -5.2684612e-05  -1.7872904e-04  -4.7056397e-05  -2.7832870e-05   9.7188815e-05   1.5072786e-04   1.1895943e-04   2.3436676e-05  -6.3015861e-05  -7.5823336e-05  -1.5417912e-05  -5.9434282e-05  -6.2460997e-05  -9.9856945e-05  -9.3429357e-05  -8.1006860e-05  -2.9577003e-04  -3.9367395e-04   2.0454961e-04   1.2665165e-04  -1.1476198e-04  -1.9884171e-04  -2.0093929e-04   1.2749336e-04
  -1.8963648e-04  -1.6994639e-04  -1.5628113e-05  -1.9598374e-04   6.7322485e-06  -2.4066040e-04  -1.7997601e-04  -3.3726730e-05  -1.3413088e-04   1.4820934e-04   4.7850401e-05  -4.2061212e-05   2.4685463e-05   2.0193022e-05  -4.3598910e-05  -2.1460648e-05  -3.4014567e-05  -3.9271472e-05   3.7061225e-04  -3.9673872e-05  -2.4361918e-05  -9.4849784e-06  -2.5664110e-04  -1.3459909e-04   1.5134133e-04  -7.3320502e-05  -8.1159407e-05  -5.5239012e-05   1.5739848e-05  -1.7945413e-05  -9.4156734e-05   2.4563554e-04   6.8135458e-05  -6.7800269e-05  -1.2541607e-04  -3.3876757e-05  -4.5667010e-05  -5.7928333e-05   2.9436359e-07  -7.4855059e-05  -9.6247182e-05  -1.2870639e-04  -4.5311455e-05  -3.0614482e-04  -2.7830785e-05   8.3299215e-05  -1.5176351e-04   1.5893444e-05  -6.1749517e-05   2.7653651e-04
  -1.1029107e-04  -1.8192212e-04  -1.2616531e-04  -2.0718471e-04  -8.4404048e-05  -2.7465267e-04  -1.7242458e-04  -8.1279628e-05  -2.2094751e-04   1.3934023e-04   3.5013138e-05  -7.6691431e-05   1.4193424e-05   1.7083930e-05   4.8173475e-05  -4.1344585e-05   2.2787113e-05  -5.0844672e-05  -4.2616879e-04  -2.8409950e-05  -2.4668836e-05  -4.0690029e-05  -5.4110951e-05  -1.7817764e-04   3.8368627e-05  -2.7797496e-04  -4.9082005e-06   4.9306072e-05  -1.3264261e-04   7.0877945e-07  -5.8191334e-05   1.4023330e-04   1.3173412e-04  -6.0429225e-05  -3.5896908e-05   2.9553625e-05  -1.0133670e-05  -3.1739899e-05  -4.8206712e-05   7.0060632e-05   5.3298010e-07  -5.7203768e-05  -1.5378192e-04  -2.2453995e-04  -1.6057660e-04   8.6871150e-05  -1.4424826e-04   8.3263127e-05  -1.4163512e-04   1.2531236e-04
  -1.7484679e-04  -1.3482038e-04   1.7491624e-05  -1.3964224e-04  -7.4828939e-05  -2.0882525e-04  -1.3332443e-04  -2.3750906e-06  -3.0099429e-04   1.7019913e-04   6.4098931e-05   1.1742649e-05  -1.3093808e-05   4.4622797e-05  -7.0562710e-05  -9.6000076e-06  -1.7879633e-05  -6.7225308e-05  -3.9475880e-04  -1.7746424e-05   2.8225966e-05   1.9225834e-05   1.1719700e-04   4.4484955e-04   3.5806603e-04  -1.9453591e-04  -9.0360176e-05  -6.8141344e-05  -5.8137662e-06  -1.6565295e-05   9.8339828e-05   1.0144244e-04   1.9359977e-04  -2.2568067e-05  -1.2915136e-04  -3.5588047e-05  -4.6762580e-05  -5.9698727e-05  -4.5057513e-05   6.5669570e-05  -8.9202746e-05  -3.7711819e-05  -2.6495091e-04   3.6767696e-04  -1.4831284e-04   1.2518196e-04  -1.7178300e-04  -1.7967558e-04  -2.4632211e-05   1.0929568e-04
  -2.2192358e-04  -1.4162282e-04  -4.5279714e-05  -2.0222543e-04  -9.0148635e-05  -1.8406688e-04  -1.1421122e-04  -1.1121507e-04  -7.5069875e-05   1.4817397e-04   4.3025346e-05   8.5241840e-07   1.7715241e-05   4.9910588e-05  -1.7170027e-05  -1.4677043e-05   2.8165234e-06  -5.0946448e-05   1.6895514e-04  -1.7185261e-05   2.8730421e-05  -6.0753377e-05   1.7515909e-04   3.6049118e-05   1.7967793e-04  -3.8123166e-05   1.6636337e-05  -1.5347722e-04   1.1882757e-05  -3.3172822e-05  -1.7344549e-04   1.2858953e-04  -5.1874922e-05  -5.3158521e-05  -2.4749253e-05   2.1269812e-05  -6.1437735e-05  -2.0663183e-05  -2.2605380e-05  -2.4047426e-04  -1.1260017e-04  -9.0286521e-05  -1.9007704e-04  -5.6732347e-04  -2.5502403e-04   6.2085994e-05  -1.5275061e-04  -1.3385100e-04  -2.2649873e-04   1.1547693e-04
  -8.5966400e-05  -1.5451704e-04   2.0743439e-05  -2.2919932e-04  -5.3442745e-05  -1.9742275e-04  -6.3851185e-05  -6.8367852e-05  -6.3843705e-05   1.6208152e-04   3.4533052e-05  -6.1925602e-05   2.8008944e-05   3.8249793e-05  -5.8567090e-05   6.3969469e-06  -4.2603580e-05  -4.6594843e-05  -1.0967960e-04  -1.5335685e-05   4.2137999e-05   6.2145637e-06  -5.9591690e-05   3.0648184e-04  -3.5033913e-06  -1.2535701e-04  -7.3366036e-06   7.2357460e-07   9.2024566e-06  -7.3537085e-06  -5.2349791e-05   1.4093673e-04   2.4447759e-04  -3.3384487e-05  -7.4472511e-05  -2.5183424e-05   2.2116314e-05  -2.0408510e-05   1.2914260e-05  -1.3087341e-06  -5.6792702e-05  -1.7992361e-04   1.3592801e-04  -3.9297566e-04   6.2172439e-05   1.3807839e-04  -1.3201968e-04   2.2676801e-04   2.4373541e-04   1.3129132e-04
   1.7769096e-05  -1.5633943e-04  -2.1613996e-04  -1.8202866e-04  -2.6819216e-05  -1.8252543e-04  -8.7544373e-05  -5.6350218e-05  -6.0301212e-05   1.7156544e-04   7.2930183e-05  -6.8789586e-06   6.3769701e-05   2.9552306e-05  -8.5987180e-05  -2.1777327e-05  -9.9064082e-06  -5.5054716e-05   3.7220053e-04  -2.3627590e-05   4.8274182e-05   5.4979948e-05   1.6353921e-04  -2.3722238e-04  -1.9053063e-04   6.3992564e-05  -1.1106239e-04   5.2309560e-06  -1.1677929e-04  -2.2340724e-05   5.7628167e-06   1.2515597e-04   9.1716109e-05  -5.2511765e-05  -9.7975979e-05   1.5540492e-05  -1.6761440e-05  -3.0529292e-05  -6.6172702e-06  -1.4183784e-04  -7.1832255e-05  -1.9615836e-04   1.3803336e-04   1.7229105e-04   2.4442188e-06   3.7808364e-04  -1.3135056e-04  -3.0816844e-04  -1.9404284e-05   4.2782402e-05
  -1.2783719e-05  -1.3516651e-04  -6.1681902e-05  -1.9492654e-04  -4.3458753e-05  -1.8079550e-04  -8.8199136e-05  -5.8587681e-05  -1.0917184e-04   1.6266445e-04   6.6245484e-05  -2.3884350e-05   3.1870473e-05   7.1202543e-05  -5.4313921e-05  -1.2719068e-05  -5.7481038e-06  -8.6172127e-05  -4.9234577e-04   5.3189315e-06   5.4551518e-05  -9.3460985e-05   7.0503760e-05   3.3508542e-05  -1.1792749e-04   3.3391991e-06  -3.0748091e-05  -2.5791978e-05  -6.3699263e-05  -1.0695044e-05  -7.2935836e-05   6.1351443e-06   1.7474993e-05  -2.0504813e-05  -4.1703765e-06  -2.0442287e-05  -3.4531462e-05  -4.3741158e-05   3.4392368e-05  -8.7644672e-05  -4.8052709e-05  -1.5650036e-04  -5.7130448e-05   7.1054339e-05   1.2895750e-04   1.4409122e-04  -1.5527313e-04   2.9171348e-04  -8.3898813e-05   1.4136864e-04
  -1.1972237e-04  -1.2621626e-04  -1.2371749e-04  -1.8811635e-04  -1.1782328e-04  -2.0748934e-04  -1.2385038e-04  -4.5267847e-05  -2.1491834e-04   1.5616660e-04   4.2665990e-05  -4.7937450e-05   1.4020306e-05  -1.0579415e-05  -5.3280877e-05   9.3354055e-07  -1.2555029e-05  -6.2476356e-05  -5.0346884e-05  -2.0895221e-05   1.4022390e-05   6.6804379e-05   2.9755336e-05  -9.9517252e-05  -1.1792373e-04  -1.4306167e-04  -1.0628880e-04  -7.9222973e-06  -1.3376040e-05  -2.0764381e-05   5.7951725e-05   2.3555534e-04   1.2872521e-04  -2.7305581e-05  -5.4382232e-05   1.0053175e-04  -2.5489380e-05  -5.0791052e-05  -6.6864457e-05  -1.9696927e-04   2.9871862e-06  -2.3618692e-05  -1.1843700e-04  -1.5662689e-04  -1.8553318e-04   9.5155243e-05  -1.0510592e-04  -1.0199247e-04  -9.6386422e-05   8.7718436e-05
  -1.2132597e-04  -1.3532989e-04  -1.0945482e-04  -1.9977347e-04  -1.3887938e-04  -2.4581555e-04  -1.3496444e-04  -5.5710698e-05  -1.2315795e-04   1.5225762e-04   4.1759762e-05  -1.5466292e-05   5.0726179e-05  -1.9814373e-05  -6.1901201e-06  -8.4733028e-06  -1.4678015e-05  -5.9827148e-06   1.5687417e-04   2.3887302e-05   6.1592335e-05   6.8700130e-05   2.2815613e-04  -3.5238243e-04   2.4168094e-05  -5.6009689e-05  -8.8636749e-05  -6.6784662e-05  -3.5763489e-05  -3.7875929e-05   4.0567018e-05   2.6931020e-04   1.9366775e-05  -8.2410897e-06   9.1126494e-06   4.9034775e-06   4.3483037e-06  -4.0986015e-05  -6.5109292e-05   4.8097576e-05  -8.8217887e-05  -7.2952636e-05  -4.3889432e-04   5.2233762e-04   3.1427629e-04   1.2826882e-06  -8.4326581e-05   8.0001089e-05  -2.6151576e-05   6.7313653e-05
  -2.3508647e-04  -1.1501520e-04  -1.1550409e-04  -1.8788653e-04  -1.1078940e-04  -2.2109011e-04  -5.1992858e-05  -5.9943995e-05  -1.4438470e-05   1.5638297e-04   1.0661577e-04  -4.2448296e-06   5.2607586e-05  -1.2124042e-05  -2.5027589e-06  -1.9075078e-05  -2.1896194e-05  -2.5090105e-05  -4.4510434e-05   2.7297365e-05   9.3921823e-05   5.0396229e-05   9.0225709e-05  -5.6690827e-04   2.8466061e-04  -1.9891646e-04  -5.8316047e-05  -8.3526706e-05  -1.5188739e-04  -2.4427693e-05   6.4018175e-05   1.5994960e-04   2.9168892e-04   2.7593425e-05  -5.6859488e-05   3.3659773e-05   9.2932087e-06  -7.4913864e-05  -3.8004953e-05   7.1638140e-05  -8.6252192e-05  -5.5993874e-05   2.2799532e-05  -3.5443914e-04   4.5611956e-05   1.4367278e-04  -1.0661669e-04   5.4113647e-05   1.5341257e-06   1.7434907e-04
  -6.1033665e-05  -1.3527660e-04  -2.7945495e-04  -1.6980740e-04  -1.9178189e-05  -1.8271228e-04  -1.2465951e-04  -9.4172385e-05  -2.6486632e-05   1.5839530e-04   9.5119387e-05  -4.2747710e-05   2.5697642e-05  -3.1192241e-05  -4.1351272e-05  -3.8857681e-05  -1.5949045e-05  -5.9575563e-05   8.6504071e-05   1.3641648e-05   5.1688854e-05   8.9628600e-05   5.2441101e-05  -2.4613322e-04   1.9278147e-04  -7.1928494e-05  -1.2924289e-04  -1.7330906e-04  -9.3427087e-05  -4.7047728e-05   1.6917158e-05   1.6395091e-04   1.3716565e-04  -1.8089786e-05   4.7618909e-05   1.0497966e-05  -3.8004651e-05  -8.7433284e-05  -8.2314735e-05  -6.0627743e-05  -7.2999610e-05  -4.7922636e-05   1.3166679e-04   6.2953536e-06   8.4137471e-05  -2.5179794e-05  -9.9009761e-05  -5.1437386e-05   6.5990331e-05   1.6468964e-04
  -1.5511969e-04  -1.2540078e-04  -2.1092921e-04  -1.9024711e-04  -1.2179219e-04  -2.2694191e-04  -1.0092355e-04  -1.1873146e-04  -5.5797951e-05   1.5093909e-04   1.1313420e-04  -2.3458941e-05   8.8669723e-05  -4.5891353e-05  -1.4678099e-05  -7.3923734e-06  -3.2900600e-05  -1.3089066e-05   1.7376590e-04   3.6136069e-06   8.1190046e-05   1.7591863e-05   8.0576217e-05  -1.9489216e-04   1.0075406e-04  -1.3053778e-04  -1.5460217e-04  -3.1780207e-04  -2.0905683e-04  -5.1690618e-05   3.2014974e-05   2.1067762e-04   2.2375467e-04  -3.7612374e-06  -1.8978037e-05   2.0173908e-05  -9.0491849e-06  -8.0665537e-05  -8.5140848e-05  -1.3198412e-04  -8.8253204e-05   2.8670269e-05  -1.0852041e-04  -1.0026152e-04  -5.2152929e-05   1.9479287e-04  -1.0414447e-04   1.4884454e-04  -2.0836186e-04   1.9365796e-04
   2.5671658e-05  -1.0970324e-04  -3.7780253e-04  -1.7209524e-04  -3.5828125e-05  -1.9841926e-04  -1.0198590e-04  -7.9281810e-05   8.3975188e-05   1.3027468e-04   1.1013955e-04   4.7476856e-06   5.9004618e-05  -4.8051672e-05  -3.2871914e-05  -1.3895185e-05  -3.5087251e-05  -6.9294532e-05   4.5456250e-06  -7.7047653e-06   8.2160703e-05   3.2791391e-05  -4.5176093e-05   4.2361868e-04   9.1585498e-05  -1.2510454e-05  -1.4662081e-04  -3.3759765e-04  -2.0865504e-04  -4.4807501e-05  -2.9337207e-05   5.8060818e-05   9.1231574e-05   7.8859894e-06  -1.8780018e-05   6.3426473e-06  -2.2899869e-06  -7.5794880e-05  -4.5541114e-05   6.9131864e-05  -6.3719599e-05  -6.4331056e-05  -1.8543861e-04  -2.4711454e-04   3.3010775e-04   1.0262895e-04  -9.0929112e-05  -6.6965564e-05  -4.0882460e-05   8.1546939e-05
  -1.9366381e-04  -1.0546399e-04  -3.4020547e-04  -1.7731974e-04  -5.9092607e-05  -1.6577277e-04  -1.7215336e-04  -4.5658599e-05   8.4401299e-06   1.1668639e-04   1.2555814e-04  -4.0910352e-05   5.2922605e-05  -2.2594510e-05  -1.5473282e-05  -2.0079382e-05   1.4458545e-05  -8.2257036e-05  -2.8844329e-04  -4.3615996e-06   3.0052845e-05   3.5104873e-05   4.5867248e-05  -1.7019483e-04  -1.5601551e-04  -1.7337996e-04  -1.3118787e-04  -2.5202965e-04  -2.6780329e-04  -2.9924262e-05  -5.5916760e-05   7.4996999e-05  -8.0348160e-05  -2.7856928e-05  -4.3522083e-05   5.4892786e-05   8.4384528e-06  -5.2114701e-05  -6.6063949e-05   4.7795151e-05   6.7335723e-06  -7.8906181e-05   3.3136578e-06  -3.5192697e-05   5.7223178e-06   3.5164607e-04  -3.9375449e-05  -2.7889566e-04   1.0997439e-04   1.2528985e-04
  -2.0026061e-04  -9.1801026e-05  -1.7388028e-04  -1.2526523e-04   1.6238217e-05  -1.5621522e-04   3.9025708e-05  -3.8544924e-05   7.9456186e-05   1.2425031e-04   1.1487470e-04   2.6975899e-06   9.9142380e-05  -1.2419540e-05   3.5952526e-05   1.2341645e-05   1.6559623e-05  -2.4299192e-05  -3.2941189e-05   3.2152991e-05   6.9041358e-05  -9.5103533e-06  -1.0526153e-04   3.0214567e-04   9.7837255e-06   7.1209615e-05  -6.1388972e-05  -2.0319845e-04  -1.2526735e-04  -3.4928918e-05  -2.0536292e-05   2.3906886e-04   1.6373917e-04   1.0215311e-05   3.6073412e-05   9.2399510e-05   6.4765933e-05  -4.6672332e-05  -7.1882541e-06  -3.3134565e-05   3.8434711e-05  -1.2808204e-04  -3.7490585e-04  -4.6202451e-05   2.0268267e-04   1.4278182e-04  -9.7285709e-05   8.4974017e-06   4.9787854e-05   1.0365031e-04
  -1.4640021e-04  -1.0598294e-04  -2.0653663e-04  -1.0562319e-04  -1.3730231e-04  -1.7206113e-04  -1.1580774e-04  -7.1323324e-05  -4.8427987e-06   1.1074320e-04   9.8517747e-05  -2.3217821e-05   8.7209184e-05  -2.8972259e-05   4.5735665e-06   2.7586719e-05   4.2502405e-05  -4.3155833e-05   2.5355833e-04   3.8111612e-05   4.8082889e-05   7.2410388e-05  -7.0434013e-05  -1.0975833e-04  -8.7856955e-05  -6.2338768e-05  -4.6211026e-05  -3.5646495e-05   7.6305241e-06  -9.7679731e-06   7.3884730e-05   2.0852186e-04   9.2846254e-05   4.5965215e-05   4.7456815e-05   6.4251355e-05   2.6384463e-05   9.2191431e-06  -2.0258438e-05   1.6328861e-05  -7.3097282e-05  -2.0191833e-04  -1.0765487e-04  -1.3813192e-04   3.6951012e-04   1.9516572e-04  -9.4318180e-05   5.7232286e-05  -7.3377465e-05   1.2756737e-04
  -2.1561418e-05  -8.3336556e-05  -1.5854946e-04  -1.6049540e-04  -2.5209609e-05  -1.5511349e-04  -1.0014186e-04  -1.1827554e-04   9.7642354e-05   8.8485249e-05   9.6875068e-05  -5.7195637e-05   8.8108551e-05   1.9567618e-05   1.1781828e-04   2.0031619e-05   3.8628426e-05  -1.5576668e-05  -1.9915877e-05   6.3553744e-05   4.8430451e-05   3.6668636e-05   1.8028267e-04   5.6476332e-05   1.4290764e-04  -2.1800712e-04  -4.3266082e-05   5.6467434e-05  -8.7833068e-05   8.5953225e-06   1.8071590e-04   1.7385511e-04   1.1259456e-05   1.6114202e-05   5.0699641e-06   5.3549866e-05   3.4476245e-05  -4.6726909e-06  -1.6524502e-05  -1.3648646e-04   3.2832293e-05  -9.1605201e-05  -3.1962426e-04  -1.3612777e-04  -1.6630960e-04   2.5215044e-04  -1.2377156e-04   3.5363607e-04   2.9659501e-04   1.7808314e-04
  -3.1084386e-05  -8.2735489e-05  -4.7446712e-05  -1.2624059e-04   8.8393745e-06  -5.8609399e-05  -5.6594487e-05  -4.6966816e-05  -1.2321501e-04   9.7920798e-05   1.2050271e-04  -8.8711831e-06   8.5565793e-05   2.8464718e-05   4.7787369e-05   3.3975950e-05   7.1866307e-05  -1.2930659e-05   4.0770782e-04   7.1030518e-05   5.9890481e-05   5.9856215e-05   1.0143204e-04   5.4120104e-04  -7.4983865e-05  -1.2654623e-04  -4.6523961e-05  -4.1612078e-05  -6.7662193e-05  -8.3167852e-06  -2.9107136e-05   1.7699231e-04   2.2030641e-04   1.8116865e-05   7.6933473e-05   6.7249872e-05   1.5893225e-05  -7.6209085e-06  -5.2060790e-05   1.6468923e-04   1.6880933e-05  -8.3960898e-05  -2.1383318e-04   2.8359349e-04  -5.1326231e-05   8.4960200e-05  -6.9006812e-05   2.5413159e-05   1.5412837e-05   1.0073152e-04
   7.2226417e-06  -7.3631862e-05  -9.1980044e-05  -1.1926927e-04   4.0920673e-05  -7.1373754e-05  -6.7142289e-05  -2.8671790e-05  -3.1839987e-05   9.2426766e-05   9.0974143e-05  -6.2018357e-06   9.2333365e-05  -8.2637116e-06   1.3334292e-04   2.9936011e-05   9.0060072e-05  -3.1493866e-05  -7.4250775e-04   3.4302531e-05   3.2825614e-05   3.0025571e-05  -3.3070537e-05   3.0580972e-04  -1.6020527e-04  -1.0236714e-04   4.2694651e-06   6.4838500e-06  -6.4627216e-05  -4.3485843e-06   1.5389889e-04   1.3516637e-04   2.8202301e-04  -2.0595085e-06   4.5242548e-05   1.6158287e-05   4.1257052e-05  -9.7695875e-06  -3.8561029e-05  -3.7210404e-05  -7.8347308e-05  -6.8868037e-05  -2.3258679e-05   1.5476631e-04   2.4019952e-04   6.7665656e-05  -8.9745263e-05  -1.2653599e-04   2.1879113e-04   1.8059563e-05
  -1.0965336e-04  -8.1629252e-05  -2.7395115e-05  -1.4931943e-04  -5.3168191e-05  -8.1069898e-05  -9.9015713e-05  -5.9661863e-05   2.4889963e-05   7.3378324e-05   5.9724542e-05  -1.2386582e-04   3.3431235e-05  -4.3218628e-05   2.6799507e-05   2.7888091e-05   5.5450248e-05  -3.9375404e-06  -1.1954847e-04   6.1342921e-06   2.9837840e-05   5.6302939e-05  -2.4958403e-04  -2.4036138e-04  -1.1097699e-04  -2.6558866e-04   1.7720405e-06   1.4471822e-05   2.4485737e-05   1.1240726e-05   7.8835634e-05   3.1601847e-04   1.0304971e-04  -1.8078954e-06   1.7933888e-05   9.1985836e-05   1.4212865e-05   1.1911105e-05   4.5631696e-06   1.0530218e-04   7.8453973e-05  -1.3343171e-04   4.9745540e-05  -2.1067017e-04  -3.0877083e-04  -3.0385661e-05  -1.1998002e-04   2.4570305e-05   2.2358893e-04   1.3842783e-04
   6.9885667e-05  -6.6544366e-05  -1.2372600e-04  -7.2466304e-05  -5.0055933e-05  -2.5904155e-05  -4.2053733e-05   4.5839652e-06   1.4289957e-04   8.2301951e-05   8.1600905e-05  -2.4487803e-05   5.4781471e-05  -1.8875253e-05   3.9702743e-05   2.0209647e-05   6.5708547e-05   5.6164617e-06   2.0510668e-04   7.2037874e-05   5.4944518e-05   7.2418836e-05   2.2355859e-04  -3.9222147e-04   1.2750766e-04   6.3677282e-05  -3.1342883e-05   1.6529712e-05  -7.9839832e-05  -2.2935835e-06  -9.6103086e-06   8.7648186e-05   5.7626170e-05   3.0479594e-05   8.2459541e-05   1.1114564e-04   5.1369901e-05  -9.5316673e-06  -3.6564223e-05  -6.4500528e-05   3.9492592e-05  -1.6353917e-05  -7.2440140e-05  -6.2190741e-04   3.3789244e-04   2.8385271e-04  -8.3589526e-05  -5.3767235e-05   5.2313302e-05   1.8595315e-04
  -2.3374263e-05  -7.6870980e-05   3.1617281e-05  -1.0912587e-04  -5.1067407e-05  -1.4148862e-04  -4.3109711e-05  -6.7990397e-05   6.4027096e-05   7.5417091e-05   4.2695185e-05  -5.5215602e-05   6.0591803e-05   1.9544611e-06   5.6771514e-05   4.3575630e-05   6.0068214e-05  -6.5973822e-05   8.5980835e-05   5.0260365e-05   5.4890952e-05  -1.5354479e-05   1.0341880e-04  -2.7265309e-04   9.9001023e-05  -1.7245600e-04  -7.3084666e-05   2.3978006e-05  -8.3488776e-05  -4.8275575e-07   4.0101444e-05   2.6983509e-04   2.2321887e-04   6.6845554e-05   5.3701191e-05   1.0881163e-04   3.6918496e-05   1.0391576e-05  -3.0250822e-05  -6.7933135e-05   5.5466466e-05  -4.8104415e-05   2.1879585e-05  -2.0731978e-04  -2.7433265e-04   2.0423404e-06  -4.9818886e-05  -7.8267520e-05   2.7114409e-04   1.8925910e-04
  -1.2756188e-05  -7.3715913e-05  -1.2822097e-04  -1.2510308e-04  -2.4285269e-05  -1.6760062e-04  -9.3763338e-06  -3.6776044e-05  -2.0825082e-05   6.3926469e-05   4.9341590e-05  -8.0547965e-05   5.7514470e-05  -4.6025463e-05   2.8635402e-05   1.8050201e-05   6.4023472e-05  -1.6238690e-05  -7.4263146e-05   1.8735087e-05   1.9691191e-08   7.6757999e-07   8.1330516e-05  -3.6158864e-04  -2.8098447e-04  -2.5817199e-04  -1.2140101e-05   6.4989312e-05  -3.1996631e-05   1.8504104e-05   1.2126240e-04   2.2591566e-04   3.7711317e-05  -3.2920481e-05   5.8081849e-05   1.5640674e-04   6.2176761e-05   2.9505175e-06   2.4410539e-05   5.8234597e-05   2.6272699e-05  -1.7319471e-04  -8.5726322e-05   4.2402092e-04   2.6340262e-04   7.5242882e-05  -6.6454872e-05   4.0195938e-04   8.5441789e-05   9.3578259e-05
  -1.5529073e-04  -6.6674984e-05  -6.1659099e-05  -6.6657842e-05   2.7750753e-05  -5.3624692e-05  -9.8813754e-05   3.7778398e-05   1.4117089e-05   8.2018283e-05   6.8140842e-05  -3.9017627e-06   5.2869225e-05   1.5928217e-05   9.0862908e-05   3.1117310e-05   3.6791913e-05   3.3519511e-06  -7.9452017e-05   2.7117061e-05   4.1896088e-05   2.7108355e-05   1.0418030e-04   1.8162366e-04   9.1839785e-05  -6.0425369e-05   2.3759399e-06   7.9454858e-06  -7.2331575e-05   1.3881111e-05   6.8490095e-05   1.0379771e-04   1.3848262e-04   2.9134088e-05   8.1641992e-05   7.3061121e-05   9.1260656e-05  -1.0745516e-05  -3.7637255e-05   6.0031314e-05   2.3654055e-05  -1.1827346e-04  -8.7797387e-05   1.2303273e-04   7.2361152e-05   2.3182482e-04  -1.0943448e-04   9.5727541e-05   1.5985429e-04   1.5404314e-04
  -1.8842830e-04  -6.6247223e-05  -1.4348634e-04  -7.2803567e-05  -3.4299530e-05  -1.2420022e-04  -3.5301604e-05  -1.4515173e-05   4.3606626e-05   6.4043787e-05   5.6486180e-05  -2.1431979e-05   4.3617172e-05   3.6497535e-05   7.0211696e-05   1.7317854e-05   4.3688484e-05   3.2933302e-05   2.4103574e-04   2.1611320e-05   3.1189960e-05  -3.2966163e-05   1.9767314e-04  -1.3251361e-04   4.4589320e-05  -9.9634715e-05   1.2458810e-05   6.3805783e-05  -6.0702514e-05   1.0703887e-05   6.1803905e-05   6.2704974e-05   1.6690337e-04   6.8134083e-05   1.0139046e-04   2.5273292e-05   3.4661469e-05  -9.7276770e-06  -4.9023271e-05   3.0121209e-05  -6.6628723e-05  -7.9355050e-05   7.1882074e-05   2.9988113e-04  -1.5425260e-04   1.6896515e-04  -3.4357494e-05  -9.0828340e-05   1.0575308e-04   1.7722649e-04
  -9.5259107e-05  -7.1209099e-05   4.9503564e-05  -1.0162940e-04   5.1976531e-06  -1.4015862e-04  -6.9359106e-05  -3.5224690e-05   6.7489891e-05   6.2970743e-05   4.3431948e-05  -7.0082526e-05   6.3838415e-05   8.6240570e-06   7.6224977e-05   2.8070703e-05   4.6287558e-05   3.9861461e-06   5.0961266e-05   3.2496489e-05   3.4657816e-05   4.3357315e-05   1.1084853e-04  -2.4608136e-04   8.4655941e-04  -2.6760108e-05   2.7530810e-05   5.8449379e-05  -7.0586117e-05   1.8382950e-06   9.2877272e-05   1.4711510e-04   2.0830546e-04   7.8150239e-05   8.8675944e-05   8.5744818e-05   6.8069443e-05  -6.1848546e-06  -2.6189449e-05   2.5478399e-05   5.1339623e-05  -1.0329721e-04  -5.9540384e-05   7.0206966e-05   1.6797232e-05   1.6056364e-04  -5.6594046e-05   3.3376935e-05   7.0715527e-05   1.3486028e-04
  -1.4980948e-04  -7.4156633e-05   9.5256182e-05  -5.4069034e-05   9.0475271e-07  -7.9274840e-05  -2.9323854e-05   4.2443695e-05  -3.6343608e-05   5.8566897e-05   7.9894977e-05  -1.1766727e-05   4.0424104e-05   3.4076704e-05   1.5628129e-05   2.7175406e-06   2.9225732e-06   9.7709571e-06  -2.1829049e-04   4.0612181e-06   3.9782626e-05   1.3950185e-05  -3.6284095e-05   5.2035210e-04   5.1530765e-04   5.0289811e-05  -5.9341677e-05   2.5939644e-05  -2.7894786e-05   8.6227665e-06   2.2760414e-05   1.4246184e-04   2.1128567e-04   7.0574279e-05   7.3021998e-05   4.9679329e-05   6.4177351e-05  -2.3726191e-06  -5.8883914e-05   1.3806489e-04  -2.1374555e-05  -1.4982621e-04   6.1587461e-06  -1.3390125e-04  -7.8386993e-06   4.3223653e-04  -1.2246410e-04   2.6910480e-05  -6.8541987e-05   2.3059791e-04
  -8.4381618e-06  -6.3998807e-05   4.0361665e-06  -7.0895912e-05  -7.0375041e-05  -1.0511425e-04  -5.4709337e-05   4.1356208e-05  -9.3118913e-05   4.2099437e-05   6.0553757e-05  -2.0518208e-05   8.9479050e-05  -1.5199539e-05   5.7750625e-05  -1.5383612e-05   1.3761961e-05   2.5121808e-05   9.4268122e-05   1.4291456e-05   3.4599121e-05  -2.4342800e-05   2.9641070e-04   3.6299709e-04  -7.2298531e-06   2.5714433e-05  -3.7209818e-05  -4.4314853e-05  -1.1187784e-04   6.7250271e-06   2.8873480e-06   2.5886067e-04   1.0116182e-04   7.0938091e-05   7.9129779e-05   5.5362019e-05  -2.8980053e-06   2.9542362e-05  -1.1144378e-05  -1.1996857e-04  -5.4766806e-05  -1.4931743e-04  -1.4924357e-05   1.1316397e-04   3.5065121e-04   5.4945090e-06  -1.6442637e-04   1.1085749e-04   1.3792212e-04   1.6099800e-04
   9.3078263e-05  -7.0956849e-05   2.0592488e-05  -4.3144002e-05  -7.1062277e-05  -1.0312389e-04  -3.7420305e-05  -3.3473112e-05  -1.2244160e-04   3.8697232e-05   7.5852564e-05  -3.7844198e-05   6.7426525e-05   3.0579304e-05   3.3618526e-05   2.7749986e-05   6.2158600e-05  -4.6538044e-05   4.2482658e-04   1.5257518e-05   1.4113927e-05   2.2254564e-05   2.4461461e-04   2.7302463e-04   4.9947022e-04   4.4918244e-05  -2.3601555e-05  -1.2919598e-04  -1.3520554e-04   7.1448285e-06   1.1511695e-04   2.4514197e-04   1.1409826e-04   9.7251563e-05   1.0593604e-04   1.1325558e-04   6.1154118e-05   1.8865652e-05  -9.7587108e-06   1.4235709e-04  -9.3545925e-05  -1.4774200e-04   6.4712753e-05   3.2585528e-04  -4.2099047e-05   1.9200682e-04  -8.8175075e-05  -1.1849719e-05   1.0871766e-04   1.2773002e-04
   2.2949327e-05  -5.6988811e-05  -1.1396171e-04  -1.1315766e-04  -7.0797658e-05  -1.0371111e-04  -4.4552056e-05   5.1767842e-05  -6.7222980e-05   1.2729152e-05   5.8683712e-05  -1.5120459e-05   9.5329728e-05   8.6109267e-06   8.5399282e-05   2.5837451e-05   3.3495114e-06   8.1902845e-06   4.3120436e-04   2.0283011e-05   4.7010753e-06  -4.0389707e-05  -2.0495403e-05   5.3537140e-05   1.9440550e-04  -7.5368436e-05  -8.2765264e-06  -1.9451515e-04  -1.2503083e-04  -6.4053802e-06   6.2983585e-05   1.7298058e-04  -1.9525138e-05   6.0354847e-05   5.6505167e-05   4.7771628e-05  -3.4356155e-05   1.3344828e-06  -2.7168961e-05   5.8024161e-05  -3.8980364e-05  -1.0102161e-04   6.0150727e-05   4.3716392e-04   9.5785406e-05   1.1828234e-04  -1.0187151e-04  -6.8488196e-05  -3.9899289e-05   1.1396193e-04
  -1.1494517e-04  -5.8885958e-05  -1.7251237e-04  -1.3712245e-04  -2.0428324e-05  -1.3249379e-04  -3.1846848e-05  -2.9307778e-06  -5.1320458e-05  -1.8181589e-05   2.5514359e-05  -9.4260351e-05   4.3003161e-05   1.6889211e-05   6.2563886e-05   2.0447342e-05   2.8342809e-05  -1.4044585e-05  -1.2811185e-04   1.7382230e-05  -2.2629520e-05  -5.0793042e-05  -1.5318798e-04   4.5333785e-05   2.6576448e-04   1.1689522e-04  -1.0849266e-04  -3.2965661e-05  -1.7521843e-05   1.5911368e-05   2.1266665e-05   5.2218165e-05   2.2759883e-05   4.4090730e-06  -9.7069624e-06   4.9339396e-05  -1.0408472e-05   2.4598523e-05  -8.5583260e-06   1.2732597e-04   4.1455023e-05  -1.5845797e-04   4.6452882e-05   2.3290559e-04  -1.5492954e-04   7.9178535e-05  -1.4041633e-04  -6.2228501e-05  -2.6563610e-05   1.2208207e-04
  -1.0317171e-04  -5.4024269e-05  -5.7743793e-05  -1.0857231e-04  -7.3674193e-05  -6.3240659e-05   3.1829643e-06   2.8552329e-05  -8.1816441e-05  -1.8478926e-05   2.6192931e-05  -2.5778634e-05   4.2579948e-05   2.2611976e-05   2.1860733e-05   3.8847764e-05   1.5341564e-05   7.9730362e-06  -2.8921955e-04   1.1078208e-05  -1.9919909e-05   1.5543323e-05   3.9096580e-05   1.0980552e-04   3.7594500e-04  -5.1706695e-05  -7.9868587e-05  -1.6992204e-04  -5.2261094e-05  -6.4070281e-07  -1.4458255e-05   1.6072310e-04   1.1274085e-05   7.5838005e-05   6.6431872e-05   7.5653938e-05  -1.1955016e-06  -3.8217953e-05  -2.2871500e-05   4.6628320e-05  -1.0791139e-04  -2.4560970e-04  -2.3753691e-04  -1.9559675e-06  -1.1847274e-04  -1.5611069e-05  -1.1711931e-04   2.9841426e-04   4.6663157e-05   7.2961266e-05
  -1.7993629e-04  -7.2045746e-05   6.3785051e-06  -1.0008667e-04  -3.4433291e-05  -1.3954562e-04  -3.9156814e-05   1.5139938e-07  -1.5153534e-04  -5.1133662e-05   6.3237126e-06  -2.8459728e-05   6.9918438e-05   1.4785224e-06  -1.4411138e-05   2.1994367e-05   1.0186890e-05  -3.2090320e-05   1.6656782e-05  -1.8179780e-05  -6.1672370e-05  -1.4246396e-04   2.1797439e-05   4.8254899e-04  -2.5363248e-05   5.3888475e-06  -6.7311732e-05  -1.6503304e-04  -1.3736356e-04   2.6051819e-06  -4.3205688e-05   1.1537221e-04   2.0822266e-04   3.6564776e-05   6.3875617e-05   5.7398029e-05   2.1395086e-05  -1.5877788e-05  -3.4679157e-05  -9.7340315e-05  -3.7917409e-05  -2.2870093e-04  -4.2895367e-06   3.6327263e-05  -1.5444259e-04  -8.8724875e-05  -1.5752779e-04  -4.0557143e-06   2.7656924e-06   1.1804177e-04
  -6.2730986e-05  -8.2576902e-05   1.0674030e-05  -1.4190152e-04  -1.0113799e-04  -1.8664460e-04  -5.3261341e-05  -3.6899266e-06  -2.5794530e-04  -6.7249173e-05  -3.1249303e-05  -9.2976676e-05   6.1512634e-05  -6.4316282e-06  -1.0518091e-05   2.7201293e-05   8.7497710e-06  -2.9776522e-05  -1.1392714e-04  -2.9222832e-05  -1.2649994e-04  -1.3566422e-04  -2.1414088e-04  -4.5779592e-04  -2.6670095e-04  -5.6996196e-05  -5.8653328e-05  -1.4234541e-04  -7.0121869e-06   5.9408153e-06   2.2261831e-05   1.0663927e-04   2.7662446e-04   1.8958095e-05   1.4409368e-05   3.0700441e-05  -3.5930581e-05  -1.0226280e-05  -2.2204560e-05   3.5286361e-05  -5.3402189e-05  -8.9589594e-05   4.9278824e-05  -2.4978255e-04  -2.7713252e-04  -2.8408153e-06  -1.5536575e-04  -1.9607517e-04   2.5641875e-05   8.6142652e-05
  -7.9000427e-05  -5.3220239e-05  -9.5219671e-05  -1.3714479e-04  -2.7304430e-05  -1.0322125e-04  -5.8501970e-05   2.5795849e-05  -1.7426950e-04  -8.0042380e-05  -1.9113788e-05  -6.6867571e-05   6.3609601e-05   7.1656887e-06  -2.0691883e-05   1.3833369e-05   2.2539632e-05  -1.6879829e-05  -1.5017553e-04  -1.7068156e-05  -1.0179882e-04  -1.4779685e-04  -1.3589686e-04  -4.6124883e-04  -1.3512436e-04   1.5897134e-04  -1.0381469e-04  -1.9696994e-04  -8.6734522e-05  -9.0274016e-06   1.1157160e-05   1.0120103e-04  -1.0722262e-04   6.8944661e-05   7.7198623e-05   7.6250173e-05  -3.3615885e-05  -2.4590905e-05  -2.8023238e-05   5.2457679e-05  -1.2328330e-04  -2.2472876e-04  -8.1608880e-05  -9.3598937e-04  -2.3369191e-04  -8.2463441e-05  -1.5707730e-04  -8.6351924e-05  -2.1131602e-04   5.8434016e-05
   6.1060118e-06  -7.7075987e-05  -1.3819974e-04  -9.0239220e-05  -1.5520709e-05  -1.2628690e-04  -7.5138846e-06   3.3774868e-05  -2.8064640e-04  -9.8036413e-05  -2.3764720e-05  -1.0063582e-04   4.5645713e-05   1.6598840e-05  -6.1194121e-05   2.5449641e-05   6.5202312e-06  -4.3816603e-05  -5.3023576e-04  -6.3908141e-05  -1.3005179e-04  -2.0968607e-04  -7.8028883e-05  -4.0533138e-04   1.0621599e-04  -1.1343369e-06  -7.9469268e-05  -2.0280955e-04  -1.6545066e-04  -1.0285200e-05   1.0816046e-04   1.4966298e-04  -9.8261058e-05   5.0805163e-05   2.3479133e-05  -3.7582849e-06  -1.3189075e-05  -3.4246212e-05   1.4029387e-06   6.0665679e-05  -3.5685924e-05  -1.1635981e-04  -2.0583662e-05  -1.0976139e-04   3.7439750e-05  -1.4162796e-04  -1.6652154e-04   2.8251021e-04   3.4037304e-05   5.5153650e-05
  -9.3141760e-05  -9.0218709e-05  -1.3739137e-04  -1.4475052e-04  -6.6297231e-05  -1.3210849e-04   2.9812456e-06   1.9931607e-05  -2.8507295e-04  -1.1530412e-04  -5.8044348e-05  -1.2723927e-04   3.0428795e-05  -6.6759203e-06  -2.6017453e-05   1.5928206e-05  -6.4740748e-06  -5.1947849e-05  -2.8546923e-04  -6.3543492e-05  -1.6796675e-04  -1.8163172e-04  -3.3714582e-04   1.3532669e-04   9.4641960e-05  -1.4745460e-04  -1.0771829e-04  -1.5988034e-04  -1.6572959e-04   2.1544887e-05  -4.7728732e-05   1.9306171e-04   1.0122917e-04   5.2092346e-05   7.5861186e-05   5.1665214e-05  -1.4897299e-05   1.6562055e-05  -2.6427018e-05  -1.3202592e-05  -9.3514638e-05  -7.9699901e-05  -2.5506812e-04  -7.3972577e-04  -3.9220566e-04  -6.1414001e-05  -1.2245945e-04   1.0079137e-04  -5.8266894e-05   6.9967005e-05
  -2.5099973e-04  -8.0457125e-05  -5.2529329e-05  -1.3029139e-04  -2.7802511e-05  -1.0136412e-04   2.3367891e-06   5.6140718e-05  -2.7331800e-04  -9.8861419e-05  -1.4882063e-05  -9.4478273e-05   8.4816720e-06   1.8278357e-05  -6.9202244e-05   3.7423732e-05   1.6716536e-05  -3.9356091e-05  -1.9556096e-04  -3.2276490e-05  -1.2956480e-04  -1.9097333e-05  -7.3974115e-05  -6.4915506e-04  -1.4511321e-04  -2.1059008e-04  -3.3052715e-05  -1.8737861e-04  -1.4421456e-04  -1.0431230e-05  -1.1300681e-04   1.5549459e-04   4.8591311e-05   1.0838894e-04   1.3768763e-04   4.5543176e-05   1.2914107e-05  -3.1527223e-05  -1.8767672e-05   5.5991390e-05  -9.5773888e-05  -2.1219188e-04   5.1648399e-06   1.2998370e-03  -5.0711595e-05   6.4557316e-05  -1.5827536e-04  -2.2783384e-04  -1.1698722e-04   2.4681502e-05
  -1.4919884e-04  -6.4248088e-05  -1.1778967e-04  -9.1012022e-05  -3.7375248e-05  -1.6400230e-04   9.5781515e-06   5.3075332e-06  -3.8210209e-04  -9.4132854e-05  -2.9148508e-05  -9.2410621e-05   7.1010841e-06   3.3957975e-05  -7.6244753e-05   1.1701984e-05   5.9269849e-05  -4.2510146e-06  -1.7521995e-04  -4.2194632e-05  -1.7118706e-04  -1.6332048e-04  -1.6786804e-05   3.8005508e-04   1.7798124e-04  -8.9035770e-05  -1.1380759e-04  -2.6374598e-04  -5.1662642e-05  -8.6197188e-06  -1.6080205e-04   6.5624074e-05  -2.5963020e-05   2.4019726e-05   3.3772150e-05   3.1053969e-05  -2.2930355e-05  -4.4326556e-05  -1.3943989e-05  -7.9914542e-05  -1.2798078e-04  -1.1559008e-04  -1.4804253e-04  -2.5433541e-04  -1.0222606e-04   9.0597350e-05  -1.3596423e-04  -9.3629817e-05  -3.6860563e-04   3.0631210e-05
  -2.4616765e-04  -7.8809666e-05  -9.2542345e-05  -1.1811822e-04  -9.8775490e-05  -1.2559035e-04  -3.8405648e-05  -2.7452365e-05  -2.9444363e-04  -1.1651544e-04  -3.1670657e-05  -1.2951829e-04  -8.2467277e-06  -9.7545135e-06   3.4172110e-05   1.0556424e-05   4.1879641e-05  -4.6419122e-05   3.0491251e-04  -4.6450587e-05  -1.8885320e-04  -2.3660883e-04  -2.4858667e-04  -3.1952345e-04   4.9532311e-05   4.7773083e-05  -1.3174278e-04  -1.1848381e-04   8.6910150e-06   1.7157730e-05   8.7928405e-05   5.9255937e-05   6.5954628e-05   5.2897569e-05   6.0391620e-05   3.7290956e-05  -1.8271530e-05  -1.1310077e-05  -4.0102681e-05  -7.0123337e-05  -1.1539490e-04  -1.8947331e-04  -1.6497547e-04  -2.2660664e-04  -3.8525800e-04   1.7777599e-04  -1.6184642e-04  -5.5758552e-05  -3.2228156e-04   3.9562830e-05
  -2.2977359e-04  -6.7430694e-05  -1.2753576e-04  -1.1108733e-04  -5.8438993e-05  -1.2528947e-04  -1.1476465e-04  -2.6559150e-05  -1.1712379e-04  -1.1662587e-04  -5.3426666e-05  -1.6585739e-04   3.6287911e-06   1.2636438e-05  -2.8825682e-05   2.6593103e-05   4.0059298e-05   1.4932854e-06  -4.0058709e-05  -5.1507715e-05  -1.6177137e-04  -1.1720089e-04  -1.9513896e-04  -2.1749186e-04   1.2834727e-04  -1.4547903e-04  -5.8235571e-05  -2.3631386e-05  -5.8636004e-05   3.0034451e-05   1.1107377e-04   7.3988216e-05  -5.7571084e-05   4.8330763e-05   5.1366362e-05  -2.7111215e-05   1.7372340e-05   1.7476663e-05   1.4742518e-06   1.4553755e-05  -1.2184560e-04  -1.5233306e-04  -1.8585821e-05  -2.3057520e-04  -4.4184807e-04   9.0774396e-05  -1.6134088e-04  -7.7806988e-05  -1.5897822e-04  -4.3906344e-05
  -2.3822060e-04  -8.7042688e-05  -1.1537867e-05  -1.0128585e-04  -1.5976148e-05  -1.3968072e-04   1.0056426e-05  -1.9775012e-05  -8.1584658e-05  -9.5657400e-05  -4.6234683e-05  -1.1855220e-04   1.3304068e-05   9.4096567e-06  -6.0432492e-05   4.1817781e-05   7.7777717e-05   7.5428707e-06  -4.6106863e-05  -3.3597720e-05  -1.0058825e-04  -9.5433992e-05   1.2849481e-04  -1.9897704e-04  -2.7635958e-04  -2.8581606e-05  -1.0375738e-04  -8.0485028e-05  -1.0028353e-04   1.7195872e-06  -1.0458707e-04   5.8898775e-05   1.6757214e-04   5.7659188e-05   5.7190129e-05   9.9998506e-05   6.1076520e-05   1.8512845e-05   1.9796928e-06   9.1952927e-05  -1.3355944e-04  -6.1303625e-05   1.1544332e-05   3.2343619e-04  -3.6443313e-04   2.5549487e-04  -1.0902933e-04  -1.8685016e-04  -4.8015532e-05   2.1986347e-05
  -1.2772412e-04  -5.8208178e-05  -1.7676079e-05  -5.6233632e-05  -8.4775238e-05  -9.1031601e-05  -1.2611996e-06  -5.8650079e-05  -2.0404599e-04  -9.1869049e-05  -1.7964478e-05  -6.7705827e-05  -7.4465738e-06   5.6652589e-06  -6.5847897e-05   2.7454829e-05   3.9116883e-05  -2.6807087e-05  -5.2959716e-04  -2.4510236e-05  -1.4107212e-04  -9.0266927e-05  -8.8716013e-05   1.8643835e-04   2.3023259e-04  -2.5477709e-04  -1.2496709e-04  -3.0131849e-05  -8.8960260e-06   1.2981855e-05  -1.2855284e-04   1.9258574e-04  -1.0338417e-04   6.2025530e-05   6.5732005e-05   4.0948635e-05   2.0232043e-05   2.4472540e-05   4.5639648e-05   1.1172846e-04  -8.9462956e-05  -6.5708038e-05  -9.1204158e-05  -2.9715977e-04   9.0179827e-05  -6.6310320e-05  -9.0111731e-05   1.7216956e-04   6.4076659e-05  -1.8662822e-05
  -1.5561063e-05  -5.7137557e-05  -1.6363710e-04  -9.3645889e-05  -3.0988136e-05  -1.0485886e-04   1.1402109e-06  -2.9113036e-05  -1.7598162e-04  -9.8170654e-05  -8.8032311e-06  -1.4209964e-04   4.8908496e-06   3.5278597e-05  -1.2222677e-05   1.3372796e-05   5.4551259e-05   5.6318540e-06  -9.4719268e-05  -4.7085978e-05  -1.2270347e-04  -1.2891174e-04   5.6626523e-05   1.3846259e-04   2.7443547e-04  -1.8873946e-04  -1.0371744e-05   5.3477313e-05  -5.6945704e-05   2.3965584e-05   2.5446619e-05   1.3161931e-04  -4.6442856e-05   2.3334778e-05   1.1881129e-05   3.3388536e-05   3.4526856e-05   9.5167652e-06   1.0261229e-05   5.1410465e-05  -1.0217870e-04  -8.1004902e-05  -7.8741701e-05  -1.8382665e-04  -6.7010209e-05   3.1930179e-04  -1.0924421e-04   2.6692973e-05  -1.1273720e-04  -4.8799728e-05
  -4.5972647e-05  -5.0962142e-05  -5.6788784e-05  -3.2008531e-05  -5.2974734e-05  -1.0396854e-04   3.6445294e-05   6.0016700e-05  -1.9204222e-04  -9.2355032e-05   3.2702496e-06  -1.3254020e-04  -2.0208141e-05   4.1473093e-05   1.7338261e-05   2.3349416e-05   8.7624903e-05   5.9289618e-05  -8.5795553e-05  -2.7077080e-05  -1.3433900e-04  -1.2655123e-04  -6.1799445e-05  -2.8931806e-04   4.2868298e-04  -1.5032256e-04  -2.2701661e-05  -6.1931059e-05  -4.2303134e-05   1.8563576e-05  -2.1417836e-05   1.4316864e-04   3.0487456e-05   4.3885535e-05   1.0068702e-04   1.0539965e-04   6.6217748e-05   4.7624555e-05   2.9507961e-05  -1.2212232e-05  -1.2722156e-04  -1.5898501e-04  -2.0615940e-04   1.1813280e-04   6.3720843e-05   3.3987663e-04  -8.5461041e-05   6.6279259e-05  -1.9784877e-04   5.7688216e-05
  -4.4633438e-05  -6.2338600e-05  -6.2012761e-05  -8.2559643e-05   6.6082190e-05  -7.9258876e-05   2.7805037e-05  -3.5863388e-06  -2.8834287e-05  -6.7784997e-05   1.8067491e-05  -7.8262601e-05   3.2668202e-05   3.0300909e-05   1.0858401e-04   2.6508305e-05   4.4095552e-05   2.8362394e-05   3.8836009e-04   2.4988718e-05  -5.5456454e-05  -1.0619032e-04  -1.2237478e-04  -8.0035825e-05  -3.4900499e-05   1.8335335e-05   7.7970544e-06  -1.3025403e-04  -3.7248854e-05   2.2204662e-05   9.9896293e-05   1.3672780e-04   1.1204897e-04   1.0049162e-04   1.0519142e-04   1.5908436e-04   9.0601527e-05   2.5090991e-05  -1.8834515e-05  -5.0049443e-06  -4.4372682e-05   6.9863541e-05   3.1757463e-05  -1.6405529e-04  -2.1888589e-04  -5.5532132e-06  -1.0324487e-04  -1.9208052e-04  -2.2706011e-04   1.1978321e-04
   7.1283401e-05  -2.2095655e-05  -9.1138805e-05  -1.7813436e-05   4.6466877e-05  -2.0695682e-06   7.5133619e-05   2.9283618e-05  -8.0352780e-05  -5.1933555e-05   4.4593275e-05  -4.1104551e-05   4.3198623e-05   3.8233742e-05   3.7094782e-05   2.3165712e-05   4.6010900e-05   4.2069812e-05  -2.9012474e-04  -4.7896597e-06  -6.5848435e-05  -1.0126126e-04  -1.5782866e-04   9.8360259e-05   2.9427785e-05  -1.2692843e-04  -1.7569135e-06   2.1553195e-05  -8.2676015e-05   1.8275565e-05   1.2005319e-04   1.0713530e-04  -1.0299128e-04   9.5782510e-05   5.0671433e-06   3.6535417e-05   6.4016451e-05   4.2794814e-05  -1.7276017e-05   6.0959886e-05   9.5692994e-06  -2.4495452e-05   4.0053870e-05   4.5991840e-04  -8.0558573e-05   2.5095459e-04  -6.2828381e-05   2.2409372e-04   1.7311511e-04   5.0946230e-05
   1.0652094e-04  -2.4991268e-05  -2.2815027e-04  -1.9332270e-05  -2.1512002e-05   4.8713162e-07  -7.8560270e-06  -1.7517836e-05  -1.0408643e-04  -4.5825334e-05   4.8057271e-05  -9.4563489e-05   3.2103053e-05   5.2567550e-05   7.1319235e-05   3.1773980e-05   7.0073336e-05   2.2975753e-05   2.5216477e-05   6.2953195e-06  -6.7833964e-05  -9.3154929e-05   2.0224377e-04   2.1389562e-05  -2.1081016e-05   5.6047877e-05  -9.8052347e-05  -1.8531855e-05   5.0355411e-05   1.6738892e-05   1.0360676e-04   2.4882355e-04   2.0014729e-04   3.0230609e-05   6.1822058e-05   1.2814745e-04   1.0329026e-04   6.6230816e-05  -2.2206877e-05   1.0708335e-04  -7.2726543e-05   1.4494261e-05   7.6905650e-05   4.3296078e-04  -1.7268157e-04   7.9503909e-05  -2.8225246e-05   1.5310678e-04  -8.6578810e-05   5.8184480e-05
  -5.6660432e-05  -1.3409644e-05  -6.0851296e-05  -5.2991858e-05  -8.5790045e-05   2.9368226e-05  -2.7398983e-05  -2.5700210e-05   9.4540184e-05  -5.0859988e-05   4.3677654e-05  -1.1173054e-04   1.8305231e-05   6.5858818e-05   7.6137876e-05   3.2075681e-05   7.7426907e-05   5.4416632e-05   4.6459958e-05   1.1516694e-05  -2.1046812e-05  -1.2746428e-05  -7.9763686e-06   4.9156919e-05   1.6196519e-04  -8.1005070e-05   1.1049486e-05  -3.0737519e-06   1.6624033e-05   3.3964294e-05   1.5117585e-05   7.5515389e-05   2.1846348e-04   2.2153601e-05   8.7130116e-05   1.8921022e-04   1.1085401e-04   9.7230870e-05   1.9151988e-05   1.2915040e-04   1.1763515e-05  -1.8464640e-05  -1.8378398e-04   3.7246099e-04   2.0205311e-04   2.2911842e-04  -1.8326076e-05   1.5481413e-04   1.9141239e-04  -3.9177823e-05
   3.0586081e-05  -4.4682001e-06  -6.4900432e-06  -1.7845085e-05  -3.3195745e-05  -1.3375066e-05   8.3858969e-05   3.6431291e-05   1.4805095e-04  -1.7293542e-05   8.0343998e-05  -3.7978018e-05   5.6790730e-05   8.5212312e-05   6.6419547e-05   5.3963246e-05   8.0451762e-05   2.7249867e-05   1.7671198e-04   5.3057440e-05   3.8431415e-05   3.1840966e-06   6.6997745e-05   8.7523187e-04   2.5653513e-04   2.7652082e-04  -7.4082586e-06   4.2581396e-05  -1.5317357e-05   1.0571453e-05   1.1278150e-04   2.4467037e-04   1.6459574e-04   1.2058209e-04   2.2225140e-04   1.6976899e-04   1.0836801e-04   6.2616586e-05   1.6841572e-05   4.0858022e-06   1.3102707e-05   4.9297239e-05  -1.3536411e-04  -2.2267282e-05   1.8915290e-04  -5.6902947e-05  -2.0376305e-05   7.8476332e-05   3.0076332e-04  -1.9131910e-05
  -2.8618450e-05   2.5225621e-05  -7.6279095e-05   3.1750795e-05  -5.5115575e-05  -1.7519889e-05  -4.0943196e-05   8.0843907e-05   2.8702433e-04   3.5613693e-06   8.9480163e-05  -2.5701429e-05   6.2171042e-05   9.1779344e-05   6.3965213e-05   4.1665036e-05   6.9353875e-05   3.6947578e-05  -4.5131190e-05   5.8184392e-05   3.4850971e-05  -9.9970957e-06   1.4451747e-04   3.3697302e-06   5.0965144e-04   4.8151971e-05  -5.3697822e-05   1.9829558e-05  -1.1769920e-04   2.5986332e-05   2.0189445e-04   1.9092500e-04   2.9088760e-04   1.2057240e-04   9.5869174e-05   1.3102335e-04   1.6578846e-04   7.6587283e-05   3.1493411e-05   1.3530266e-04  -1.1839573e-05   5.8657948e-05   1.8525770e-04  -7.6728460e-04   1.7180496e-04   7.9072510e-05   6.0891693e-06  -5.2316922e-05   1.8486143e-04   5.1007464e-05
   8.8576584e-05   2.2125372e-05   3.1317228e-05  -1.7041266e-05  -1.2767085e-04  -2.8558759e-05   8.8519419e-06   2.2557137e-05   5.2636104e-05   9.1207157e-06   1.0536562e-04  -5.2379652e-05   1.0288090e-04   7.5581280e-05   7.2390569e-05   2.1895534e-05   7.0851849e-05   5.5402365e-05  -9.9423130e-05   3.2414693e-05   3.7777590e-05   3.9968116e-05  -1.6695285e-05   3.0866708e-04   1.9612121e-04  -5.6793037e-06   8.2252564e-06   4.3947464e-05   2.5706335e-05   3.5556346e-05   9.5211246e-05   3.9527740e-04   2.1825205e-04   3.5003763e-05   1.3380525e-04   1.6457043e-04   1.2839139e-04   6.8677306e-05   1.5299758e-05   1.4928658e-04   7.9245474e-06   4.4089382e-05  -3.8101636e-05   3.4326260e-04   3.6320108e-04   6.6711211e-05   1.1709284e-05   2.9578083e-05   9.6107588e-06   1.1968796e-04
   8.7710847e-05   2.4249501e-05  -1.2769215e-04   6.5219233e-06  -6.6877736e-05   2.5713296e-05   4.2875631e-06   3.5510719e-05   1.6933889e-04   5.8690080e-06   1.1947955e-04  -5.4504089e-05   9.8672557e-05   9.3247065e-05   1.1302750e-04   2.5691281e-05   6.9824324e-05   1.0397628e-04   1.5923896e-04   4.3864518e-05   4.1915784e-05   1.8435961e-04  -4.2790540e-05  -3.5315726e-04   3.9239963e-05  -6.6272994e-05  -2.0522857e-05  -1.8313522e-06   1.2896478e-04   3.2680335e-05   1.5804027e-04   2.6507344e-04   2.2237579e-04   6.0924725e-05   2.6763204e-04   2.0224393e-04   1.2576340e-04   1.0108997e-04   9.2048249e-06   1.2382500e-04   2.0885129e-05   1.2065170e-04   3.2006900e-04   1.5239084e-04  -4.9332215e-05   7.0202586e-05  -5.3281174e-06   3.8984517e-04   2.2992118e-04   2.9874309e-05
   1.4424880e-04   5.3531621e-05   7.3955911e-05   7.7614430e-05  -1.6592545e-05   9.2459464e-05   7.4067946e-05   1.8241712e-05   2.4606663e-04   3.4485653e-05   1.5751367e-04  -1.2986256e-05   7.9028687e-05   7.9894977e-05   1.7176163e-04   1.2061741e-05   5.8026490e-05   7.8160287e-05   2.7533283e-04   9.6529831e-05   1.0512270e-04   1.0247996e-04  -1.1304100e-04   4.1913500e-04   1.3378287e-04  -6.5457054e-05   2.6490326e-05   7.8850928e-05  -4.5573790e-05   4.4036937e-05   2.4662624e-04   2.7120634e-04   2.1007852e-04   1.2891096e-04   1.2068334e-04   2.2590948e-04   1.8069199e-04   8.1323102e-05  -1.6963271e-06   2.3064272e-04   3.8430626e-05   1.9485984e-04  -2.4351171e-04   6.9964502e-04   5.5505795e-04   3.7791126e-04   9.6237618e-06   3.1467926e-04   3.1550095e-04   8.1203922e-05
   2.4459467e-04   5.5300516e-05  -6.2222862e-05   4.6134835e-05  -8.9084861e-05   1.2202290e-04   6.1683495e-05  -1.9377554e-05   1.9082730e-04   2.4087596e-05   1.5924255e-04   5.5469695e-06   9.7383861e-05   1.2689899e-04   2.1590693e-04   3.1555468e-05   8.1183200e-05   8.1277503e-05   7.1793247e-04   9.3495946e-05   1.1500145e-04   9.4169285e-05   5.0696653e-05  -2.7182028e-05   5.5387551e-05  -8.0331985e-05   3.0556923e-05   1.0509585e-04   1.3601971e-05   2.4969646e-05   2.1009981e-04   2.3453170e-04   2.3328680e-04   1.0059708e-04   3.0157162e-04   1.2411903e-04   1.7735362e-04   9.2619965e-05   2.8696184e-05   5.9833066e-05   1.1876204e-04   1.8019938e-04   1.0989646e-04   3.0930270e-05   3.6900662e-04   7.7098317e-05   2.2798793e-05   6.3092953e-06   3.0648784e-04   4.4861654e-06
   8.9639820e-05   5.1892683e-05  -9.6947897e-06  -5.4423740e-06   7.6223871e-05   6.5012682e-05   7.9515710e-05   1.9557798e-05   1.6111771e-04   3.0785133e-05   1.5041110e-04  -4.6397061e-05   1.5180990e-04   1.2297225e-04   1.9305953e-04   3.8311973e-05   1.2309539e-04   1.0986436e-04   1.4386846e-04   1.1617964e-04   9.8664044e-05   1.2434996e-04  -8.7600572e-05  -1.0864076e-04  -1.5962943e-04   1.7989736e-05   1.4088509e-05   2.4624160e-04   1.4199497e-04   4.8620175e-05   2.3404139e-04   3.5300251e-04   5.4684415e-04   1.1663310e-04   2.4305347e-04   2.0367977e-04   2.5277116e-04   1.0608924e-04   1.1178839e-05   1.5709871e-04   8.8132343e-05   1.9180546e-04   2.2406728e-04   3.6712593e-04   2.5916204e-04   3.3840077e-04   1.9965892e-05   2.8696079e-05   2.5674162e-04  -4.8385278e-05
   1.7063484e-04   5.3081432e-05   2.0790441e-05   9.2395876e-06  -5.8708200e-05   6.0473954e-05   2.6024900e-05   4.1086900e-05   1.8920701e-04   3.0597261e-05   1.6735200e-04  -2.7520568e-05   1.3028547e-04   1.1589405e-04   2.0373726e-04   5.7300284e-05   8.4906067e-05   1.2498388e-04   4.3536906e-04   1.2738591e-04   1.2225867e-04   9.2845199e-05  -2.9692028e-05   3.7507441e-05   3.4641944e-05   5.9036392e-05   1.9125844e-05   9.9762598e-05   1.2175366e-04   3.3052122e-05   2.2274540e-04   2.5223379e-04   2.7988866e-04   1.2463846e-04   1.8302325e-04   2.2605684e-04   2.1615067e-04   1.1248846e-04   2.0175445e-05   2.1184498e-04   1.3550307e-04   8.3404389e-05  -5.4813863e-05  -4.0684780e-04   1.9724367e-04   2.0362932e-04   4.0009301e-05   2.6326621e-04   2.3363472e-04   2.6085557e-04
   1.5073983e-04   7.7984703e-05  -2.8029810e-05   5.9767764e-05  -3.7334474e-05   1.0695028e-04   7.2641436e-05   1.0563742e-04   2.1951145e-04   3.2600332e-05   1.5251753e-04   5.0777694e-06   1.4891938e-04   1.3909405e-04   1.9622632e-04   4.7800138e-05   1.0389047e-04   1.2492719e-04   2.9759551e-04   1.3734163e-04   1.0507990e-04   2.0447497e-04   4.0966590e-04   3.2156036e-04   1.2258622e-04   2.3870952e-04   4.9485698e-05   1.5273211e-04   8.8220522e-06   2.7828626e-05   1.5820937e-04   2.3997058e-04   1.2441189e-04   9.8832519e-05   1.9927452e-04   2.9223796e-04   2.0442644e-04   1.2875012e-04   4.1009462e-06   2.1908316e-04   7.5719086e-05   1.1905553e-04   1.1185613e-04   7.6474622e-04   2.7482395e-04   2.0819830e-04   2.1470914e-05   2.3357371e-04   3.3245466e-04   7.1331291e-05
   1.1559181e-04   5.5846594e-05  -3.7404290e-05   3.2719137e-05  -1.1289968e-05   1.2413340e-04   3.6443598e-05  -2.0462744e-06   2.6565310e-04   3.7009610e-05   1.4875032e-04  -2.8963332e-05   1.4567919e-04   1.0554219e-04   3.1462507e-04   2.5038196e-05   1.2271263e-04   1.2168453e-04   4.4557350e-04   1.4222205e-04   9.2385781e-05   2.4221493e-04  -8.1068792e-05   7.6893368e-05   7.5461372e-05   6.2679588e-05   9.1537207e-05   2.1968374e-04   8.0178950e-05   3.8764658e-05   6.4173699e-05   2.9032715e-04   2.8125395e-04   1.0778200e-04   2.1118359e-04   2.5479557e-04   2.1900136e-04   1.3147756e-04   4.0514551e-05   1.9154265e-04   1.7463541e-04   1.5201807e-04   2.1572116e-04   7.8609446e-04   1.2709985e-04   1.9716070e-04   1.5530946e-05  -1.7377391e-04   4.2457192e-04   2.0083942e-04
   3.1452946e-04   7.1643604e-05   1.3705432e-04   5.3718490e-05  -1.3857656e-05   5.6438657e-05   6.3022017e-05   4.2905664e-05   2.1880120e-04   2.5505509e-05   1.5719597e-04  -7.1076211e-05   1.7981516e-04   1.0791404e-04   2.8983486e-04   6.7686138e-05   1.3659900e-04   1.8494176e-04   3.4663075e-04   1.4326524e-04   8.9871806e-05   1.5448174e-04  -1.0819973e-04   9.1486872e-05   8.0921373e-04   1.0008765e-04   9.6780816e-05   2.1139946e-04   6.1748775e-05   7.2834679e-05   1.6470267e-04   3.7698456e-04   3.0310993e-04   7.5989919e-05   2.2997985e-04   2.8021823e-04   2.6105053e-04   1.5763812e-04   3.6609264e-05   1.8861200e-04   1.4682494e-04   1.6675057e-04  -1.2798890e-04   4.3423024e-05   7.6645124e-04   3.5886114e-04   4.2837924e-05   1.4374866e-04   5.1127502e-04   9.7936900e-05
   2.5365801e-04   9.2401890e-05   1.4045658e-04   5.9930098e-05   2.1049033e-05   7.8940458e-05   1.3063660e-04   3.2973338e-05   2.9172710e-04   4.2905482e-05   1.4099205e-04   2.6813463e-05   1.7955224e-04   1.4658520e-04   2.0502000e-04   5.2076815e-05   1.3746539e-04   1.6699093e-04   1.5321681e-04   1.4276485e-04   1.3642661e-04   9.0628520e-05   2.1610719e-04  -5.5189588e-04   8.7245171e-05  -7.2208197e-05  -3.7726979e-05   1.9784855e-04  -1.5402760e-05   4.6883921e-05   1.5368927e-04   3.9761601e-04   4.2733131e-04   1.4240084e-04   2.4890437e-04   2.4239815e-04   2.0218008e-04   1.4169812e-04   7.4576703e-05   2.4559992e-04   3.6142977e-05   1.7155473e-04   1.9959061e-04   6.3629990e-04   1.3283211e-04   1.8204137e-04   2.3540184e-05   6.4920867e-05   2.7460008e-04   1.4864429e-04
   1.9744049e-04   7.3487565e-05   6.8952460e-05   6.2079882e-05   6.2056177e-05   4.3400265e-05   3.0341003e-05  -1.5876589e-05   3.0555704e-04   3.6118592e-05   1.5583707e-04  -3.4791249e-06   1.5169944e-04   1.0724238e-04   1.4593349e-04   4.5275992e-05   1.4408834e-04   1.1482955e-04   4.4911256e-04   1.5434538e-04   9.8165758e-05   1.8088023e-04   1.4857200e-04  -2.6231626e-04   1.0217574e-04   1.3950678e-04   1.1934315e-04   1.8551947e-04   1.2207263e-04   5.0764273e-05   3.1430105e-04   4.1479248e-04   3.7315843e-04   1.3995539e-04   2.9905545e-04   2.6068484e-04   2.2458129e-04   1.5582723e-04   1.1510630e-05   2.4067942e-04   1.3391765e-04   5.8987127e-05   1.7068758e-04  -2.0408642e-04   4.9943483e-04   1.0427687e-04   2.1599948e-05   3.8724803e-04   3.1206463e-04   1.2367868e-04
   1.9896591e-04   7.0084199e-05   6.2064762e-05   4.1571791e-05   7.8648009e-05   9.3833711e-05   4.5295001e-05  -3.5726127e-05   3.3430479e-04   3.7282607e-05   1.5102587e-04  -2.6322741e-05   1.7717600e-04   1.2802056e-04   2.6791391e-04   5.1619354e-05   1.4884840e-04   1.7706843e-04   5.0116720e-04   1.2863339e-04   7.9454185e-05   1.7493477e-04  -2.2844500e-04  -5.7822414e-04   2.2512839e-04   5.1365864e-06   3.9737261e-05   2.7729690e-04   8.3445819e-05   6.5941880e-05   2.7835727e-04   2.9217632e-04   4.0416591e-04   9.3813927e-05   2.3637639e-04   2.4803352e-04   2.3008238e-04   1.8519118e-04   6.9744245e-05   3.2819321e-04   1.7897891e-04   1.2793942e-04   3.3140811e-04   7.8413845e-04   3.3639040e-04   2.6920909e-04   1.0060119e-06   1.9923938e-04   2.9520938e-04   1.4477917e-04
   2.1578235e-04   7.9771431e-05   1.5142975e-04   1.0186520e-04  -1.6531594e-05   1.5225647e-04   2.8363749e-05   9.9108300e-05   3.4305319e-04   5.7422501e-05   1.7871401e-04   3.2654325e-06   1.6958758e-04   1.1994159e-04   2.7628726e-04   8.0675520e-05   1.5942533e-04   1.9878484e-04   4.0439761e-04   1.3948682e-04   1.3752723e-04   1.7165564e-04   1.7846622e-04   2.6900764e-04   3.6474798e-04   9.4362418e-05   1.2020092e-04   1.6398645e-04   8.6798616e-05   6.4327593e-05   3.6220509e-04   3.1144044e-04   2.9110184e-04   1.7697203e-04   3.6099824e-04   2.0775446e-04   2.3698597e-04   1.7553543e-04   3.4793655e-05   1.9366530e-04   1.3202135e-04   2.1412146e-04   1.5788237e-05   2.1034597e-04   3.2352989e-05   2.0342368e-04   4.7637004e-05   2.2643378e-04   4.2111261e-04   1.0140453e-04
   2.7893961e-04   9.1778616e-05  -2.9244366e-05   9.2673843e-05   6.3702479e-05   5.0241128e-05   7.5022333e-05  -2.2509201e-05   2.5195288e-04   5.0595892e-05   1.5500617e-04   1.0515957e-05   1.8838925e-04   1.1729354e-04   3.7031676e-04   8.3974264e-05   1.6457551e-04   1.8388123e-04   1.6512792e-04   1.2974191e-04   1.0794900e-04   1.5359171e-04   1.3235071e-05   2.0569246e-04   2.7480975e-04   1.1584428e-04   8.9769368e-05   1.9513856e-04   9.9664190e-05   6.6865803e-05   1.7306459e-04   2.3901647e-04   2.1012698e-04   1.5560417e-04   2.7654791e-04   2.7045887e-04   2.3845844e-04   1.9181527e-04   4.6602756e-05   2.2740115e-04   1.4130992e-04   1.2589968e-04   8.7754226e-05   9.8143402e-04   3.8512971e-04   1.9080298e-04   4.0272949e-05   4.2209754e-04   2.5634182e-04   1.9397670e-04
