  -6.5187132e-04   4.1744086e-05  -3.8622846e-04  -4.3542197e-04  -5.6898303e-04   2.4835518e-04  -7.1961585e-05  -3.0828553e-05   1.2297010e-05   2.8813563e-04  -5.0702633e-04   4.0955775e-04  -4.9020664e-04  -3.9615924e-04  -8.1922350e-05  -3.6727055e-04  -3.3928611e-04  -2.0810685e-04  -4.1317815e-04  -1.2010421e-04   9.1197336e-04   1.9432782e-04  -2.6423161e-04   4.6670827e-04  -1.9801776e-04   4.3522933e-04   3.3513570e-04   1.7561381e-04  -2.6951361e-04  -4.1605959e-05  -1.0434499e-04  -3.2021047e-04   2.1810355e-04   2.9170761e-04   6.9755937e-05   5.8376008e-05  -2.0392940e-06   2.5106363e-05   2.8642101e-04   2.4469558e-04   9.3270581e-05   2.0848513e-04   3.2295269e-04  -6.9701491e-05  -2.3709355e-04  -6.4791151e-04   8.6254491e-05  -3.0258944e-04   1.2911289e-04  -1.0202031e-03
  -7.7356416e-04   6.1248844e-05  -6.0443749e-04  -3.8549444e-04  -6.0397474e-04   2.8716464e-04  -8.6616972e-05  -7.6114186e-05   6.9907808e-05   3.2134246e-04  -4.8217128e-04   4.6184193e-04  -5.2168936e-04  -4.5984355e-04  -1.8748947e-04  -3.7282909e-04  -3.2276550e-04  -2.4088098e-04  -5.4569414e-04  -1.2710234e-04   8.9406734e-04   2.6192554e-04  -2.3992174e-05  -3.1264906e-04   1.1458631e-04   5.1245588e-04   2.4335920e-04  -8.0037069e-05  -3.2250845e-04  -6.2066072e-05  -1.6684837e-04  -3.4096447e-04  -6.0034701e-05   2.6737482e-04   1.2129174e-04   5.0585990e-05   4.9969411e-05   3.0076644e-05   2.2113266e-04   3.7706015e-04   1.2960538e-04   1.5765816e-04   3.4560869e-04   8.7970693e-04   3.1385993e-04  -7.0657278e-04   5.4651162e-05  -2.6213346e-04  -1.9803854e-04  -9.9805126e-04
  -8.1063143e-04   3.7471269e-05  -4.7727977e-04  -4.5474630e-04  -6.6972722e-04   2.9807800e-04  -1.1832840e-04  -4.8501828e-05   8.0727250e-06   2.9552935e-04  -4.8483891e-04   4.7378783e-04  -5.1082956e-04  -4.4002308e-04  -7.2421106e-05  -3.7679315e-04  -3.3461349e-04  -1.9341122e-04  -2.5604718e-04  -1.5170085e-04   8.6873508e-04   2.5968015e-04  -3.0435572e-04   5.9434510e-04   1.4276215e-04   4.6802338e-04   2.8959979e-04   3.1417891e-05  -2.6712552e-04  -4.1028703e-05  -7.0475180e-05  -2.4080984e-04  -1.0380038e-04   2.6911756e-04   2.4933373e-05   6.7590394e-05   1.4851055e-05   9.0494150e-06   2.5524900e-04   5.7515420e-04   7.0044385e-05   1.3717476e-04   4.1545380e-05   4.1155485e-04  -1.1600310e-04  -6.0862658e-04   6.4483327e-05  -1.0930805e-04   2.0381463e-04  -9.8555954e-04
  -7.3227234e-04   2.5260882e-05  -3.2573185e-04  -4.1218044e-04  -6.9118419e-04   3.1427343e-04  -1.6689804e-04  -6.8950270e-05  -4.4601187e-05   2.6546567e-04  -4.7439747e-04   4.0974587e-04  -5.6279416e-04  -3.8679928e-04  -1.3620482e-04  -4.1945564e-04  -3.3730338e-04  -2.4932355e-04  -6.9062482e-04  -1.3514387e-04   7.7552628e-04   3.0062054e-04  -2.7562664e-05   6.7170581e-04  -3.7572303e-04   5.0692272e-04   2.5690001e-04   1.1752270e-04  -2.6380442e-04  -1.8429178e-05  -8.9606125e-05  -2.9253427e-04  -9.1953509e-05   2.6666309e-04   2.3234417e-05   1.9540206e-05   5.6780074e-05   1.8917975e-05   2.8655890e-04   2.3166300e-04   1.6170803e-04   1.0192132e-04   3.0458710e-04   2.4809560e-04   1.7739600e-04  -4.4120898e-04   9.4625124e-05   2.7583003e-06   1.2178540e-04  -9.9657837e-04
  -6.7100767e-04   3.2803320e-05  -3.2788128e-04  -3.5457703e-04  -6.4304541e-04   2.8005466e-04  -2.7676224e-05  -7.4413629e-06   1.8238934e-05   2.2764095e-04  -4.3054664e-04   4.9391470e-04  -4.8487110e-04  -3.5656721e-04  -3.7958223e-05  -3.9988692e-04  -3.3619351e-04  -1.7163726e-04  -2.1261144e-04  -9.5993222e-05   7.8574341e-04   3.0361666e-04   9.5651485e-05   1.9543128e-04  -2.1520763e-04   3.0868858e-04   2.0109843e-04  -6.6424051e-05  -2.9511462e-04  -3.5484823e-05  -1.0137771e-04  -1.7514684e-04   4.9331651e-05   3.0003500e-04   5.7534944e-05   7.9197569e-05   8.0751059e-05   4.1531552e-05   2.6524934e-04   5.2145851e-04   1.1426451e-04   6.9483875e-05   5.1905704e-04   1.2679185e-03   2.5054236e-04  -5.7119731e-04   7.1617593e-05  -5.8760429e-06   2.3533218e-04  -1.0300917e-03
  -6.7193212e-04   4.8706446e-05  -4.3876161e-04  -4.2800274e-04  -7.5891375e-04   2.3804069e-04   1.0725213e-05  -6.4723732e-05  -8.9314191e-05   2.2115064e-04  -4.4868543e-04   4.8163909e-04  -4.7593229e-04  -3.2342944e-04  -9.0643342e-05  -4.0296852e-04  -3.0904653e-04  -2.0506550e-04  -4.2729228e-04  -1.1271695e-04   7.5763190e-04   3.3718563e-04   1.4168731e-05   1.1079930e-03   4.9153168e-04   3.5327623e-04   1.9016335e-04   5.8652888e-05  -3.9563447e-04  -3.8514558e-05  -1.4905707e-04  -1.8123348e-04   6.3389991e-05   3.1079171e-04   9.5866628e-05   9.3076233e-05   9.2709357e-05   2.8363938e-05   2.8152997e-04   3.9186620e-04   1.1422174e-04   1.0463344e-04   2.1615869e-04   1.2594949e-03   1.8640643e-04  -5.3860911e-04   4.2028689e-05  -6.2569365e-04   2.8740940e-06  -9.1530784e-04
  -7.9827436e-04   2.5476793e-05  -3.8193297e-04  -4.4817748e-04  -6.3840015e-04   2.1274328e-04  -1.1395982e-04  -1.1848602e-04  -1.6580700e-04   1.9750216e-04  -4.7550481e-04   4.2525789e-04  -4.9634266e-04  -3.8372391e-04  -4.2887459e-05  -4.1045804e-04  -3.4569879e-04  -2.3621455e-04  -5.3372758e-04  -1.6778894e-04   6.8953761e-04   2.2822448e-04  -2.5429015e-04  -1.7351104e-04  -1.0737981e-04   4.2961587e-04   3.5139063e-04   8.5767962e-05  -2.1080306e-04  -7.7608865e-06  -1.2253181e-04  -2.8230814e-04   1.1189611e-05   2.5148544e-04   8.3032362e-05   9.4402407e-05   3.1422431e-05   6.5579909e-05   3.0162255e-04   4.9580430e-04   2.1717949e-04   1.2777701e-04   3.4309342e-04   6.3264498e-04   3.1838010e-04  -5.4118416e-04   7.2752089e-05   1.3952731e-04  -1.4829155e-04  -1.0104608e-03
  -7.4362307e-04   1.5368800e-05  -3.5271532e-04  -4.7538485e-04  -6.1505008e-04   2.6239204e-04  -5.9697661e-05  -4.5223194e-05  -1.9212544e-04   1.7041400e-04  -4.8439653e-04   4.1925340e-04  -5.3487811e-04  -3.5673261e-04  -1.5041948e-04  -4.0396125e-04  -3.6479553e-04  -2.3535348e-04  -8.6113537e-04  -1.0713529e-04   6.8137847e-04   3.0354084e-04  -3.1636046e-05   2.0588788e-05  -2.2174748e-04   5.3468189e-04   2.5434227e-04   3.0378993e-05  -3.2030328e-04  -4.2859032e-05  -9.1911033e-06  -3.2486775e-04   1.5778036e-04   3.5065430e-04   1.6215883e-04   1.8079852e-05   1.2616238e-04   3.7384943e-05   2.4985743e-04   3.7512532e-04   1.2503433e-04   1.7806818e-04   2.5053316e-04   6.1970879e-04   2.5351535e-04  -7.3094323e-04   1.0461306e-04  -2.1300955e-04   1.9951136e-04  -9.3972334e-04
  -6.1278330e-04   3.5335845e-05  -3.8039190e-04  -3.8638891e-04  -6.7698595e-04   2.6857818e-04  -8.4805666e-05   1.5047218e-05  -3.3624077e-05   1.8143840e-04  -4.5056449e-04   4.7600991e-04  -4.9673702e-04  -3.5812886e-04  -2.5985306e-05  -4.0227326e-04  -3.7843254e-04  -2.3052667e-04  -3.2255825e-04  -1.0869612e-04   6.4853061e-04   2.4791193e-04  -2.0294350e-04  -2.0202248e-04  -3.0555599e-04   4.4819256e-04   2.7068914e-04   1.1195103e-04  -2.7885145e-04  -4.2533360e-05  -6.6507040e-05  -1.2629019e-04  -1.1624594e-04   3.0368482e-04   1.4601652e-04   8.5180116e-05   2.2085331e-05   2.3755025e-05   2.9972938e-04   3.5897485e-04   2.0030705e-04   5.2117775e-05   9.7156926e-06  -2.6146814e-04   2.3328008e-04  -6.2441948e-04   8.1282109e-05  -7.7327125e-04   4.9768521e-05  -1.0820067e-03
  -7.5407838e-04   2.5959112e-05  -3.8961243e-04  -4.3494051e-04  -7.5814396e-04   2.7716474e-04  -6.0920716e-05  -4.2944808e-05  -4.0379833e-05   1.7664328e-04  -4.9215014e-04   4.0898076e-04  -4.9950439e-04  -3.9734630e-04  -1.5469859e-04  -4.2446036e-04  -4.0515119e-04  -2.2585635e-04  -6.5615546e-04  -1.5695194e-04   4.0375046e-04   3.1220945e-04  -1.6818791e-04  -3.0031876e-04  -5.1993768e-05   4.9684691e-04   2.7263933e-04   1.2027413e-04  -3.2703916e-04  -4.4124234e-05  -1.5063089e-04  -2.9685194e-04   5.6652596e-05   2.7043789e-04   1.5222136e-04   5.2025902e-05   3.4593893e-05   1.3585384e-05   2.8864181e-04   4.4287340e-04   9.0298141e-05   2.1866405e-04   3.7948045e-04   1.7125391e-04   2.5033701e-04  -7.5827684e-04   9.2944647e-05  -3.3084516e-04   4.4921011e-04  -9.8548317e-04
  -6.1531999e-04   1.6527130e-05  -3.7148947e-04  -4.5299323e-04  -6.5655296e-04   2.2652390e-04  -1.1409303e-04  -5.5649114e-05  -1.8251118e-04   2.5893576e-04  -4.8863731e-04   3.2566924e-04  -5.3410843e-04  -3.7095355e-04  -6.9119611e-05  -4.1926294e-04  -4.3073451e-04  -2.4187018e-04  -8.2335062e-04  -1.3386905e-04   3.1297363e-04   1.3649167e-04  -2.1231564e-04  -3.8654509e-04  -1.2096055e-04   2.5640058e-04   3.2347458e-04   1.5530271e-04  -2.2605887e-04  -3.8453647e-05  -2.0676838e-04  -2.6815830e-04  -2.1080647e-04   2.1724288e-04   1.9545466e-04   5.4046581e-05   5.2298794e-05   2.0820271e-05   2.9955342e-04   1.3865446e-04   1.3646128e-04   1.7439801e-04   4.5449860e-04  -5.6627509e-04  -4.3823056e-05  -7.2245236e-04   6.6656736e-05  -1.7373630e-05   6.7740933e-05  -9.9288439e-04
  -7.6644419e-04   2.9141122e-05  -2.1428651e-04  -3.6583754e-04  -6.1533152e-04   3.3567371e-04   1.9399904e-05   1.0237650e-05  -1.3818025e-05   3.2756469e-04  -4.6625501e-04   3.7469144e-04  -5.1200099e-04  -4.0634960e-04  -1.5921982e-04  -3.9688818e-04  -4.3646366e-04  -2.7894264e-04  -2.6234935e-04  -1.3078615e-04   2.6370431e-04   8.5064072e-05   2.4340023e-05   1.5224882e-04  -8.9261695e-05   4.3190620e-04   3.4120708e-04   5.2074527e-05  -2.4979061e-04  -5.9266564e-05  -2.6427369e-04  -2.8405854e-04  -2.5303994e-04   2.8642663e-04   1.4165152e-04   1.2923183e-04   1.2676188e-04  -1.2822714e-05   2.6257909e-04   4.5267443e-04   1.1671583e-04   2.4263078e-04   6.7950481e-05  -6.1070015e-05  -4.1615138e-05  -5.8212434e-04   1.1978027e-05  -2.2160064e-04  -6.1197519e-05  -9.4108441e-04
  -7.8971934e-04   1.9357809e-05  -2.7678162e-04  -4.4705303e-04  -6.6182920e-04   3.5118248e-04  -3.8615250e-05  -5.9940172e-05  -1.3706647e-04   2.9773341e-04  -5.0305674e-04   3.1201096e-04  -5.1655754e-04  -4.1587956e-04  -7.3638061e-05  -3.6134684e-04  -4.3989238e-04  -2.9713102e-04   8.2355757e-05  -1.5954577e-04   2.0908663e-04   6.7889356e-05  -3.2041362e-04  -1.9040968e-05  -1.4373494e-04   2.8492539e-04   2.9842395e-04   1.9344353e-04  -2.8787248e-04  -7.6861274e-05  -1.4265742e-04  -3.4320843e-04   7.5847674e-05   2.1012448e-04   1.8872123e-04   3.5157140e-05   7.4018346e-05  -7.0362589e-06   2.8509679e-04   2.3568604e-04   1.0937038e-04   6.3402214e-05   2.7592666e-04   3.4064444e-04   7.2947449e-05  -6.6956453e-04   1.2423329e-04   3.3116859e-05   7.4512914e-06  -9.9131616e-04
  -7.5141818e-04   1.5619040e-05  -3.8555247e-04  -5.0570356e-04  -6.5556681e-04   3.4957350e-04  -7.0750968e-05   2.0069663e-05  -6.6808163e-05   2.5684416e-04  -5.0196209e-04   2.3255349e-04  -5.3323526e-04  -3.8788101e-04  -1.6402437e-04  -3.7570772e-04  -3.9947053e-04  -2.5857508e-04  -5.3351402e-04  -1.5019281e-04   2.0209873e-04   3.5062974e-05  -1.8738554e-04  -4.9133709e-04   4.8979309e-05   4.4076194e-04   2.7917986e-04   2.8463959e-04  -2.7826161e-04  -2.9812078e-05  -2.1795637e-04  -2.5964945e-04  -1.1814681e-04   1.8588199e-04   1.5833136e-04   7.9680387e-05   7.7854180e-05  -4.6810283e-06   2.5146766e-04   4.1207214e-04   1.7808998e-04   2.0198067e-04   4.8957515e-04   1.0414490e-03  -2.6247046e-05  -4.3660149e-04   1.0448833e-04   2.2957957e-04   1.7991336e-04  -9.3016971e-04
  -6.8644085e-04   2.7343567e-05  -3.4203805e-04  -5.1069801e-04  -5.6256470e-04   2.7487575e-04  -5.0015944e-05  -4.0491166e-05   5.5477554e-05   2.7535908e-04  -4.7984524e-04   1.6034406e-04  -4.9550296e-04  -3.8575323e-04  -1.6564780e-04  -3.7326411e-04  -4.5347936e-04  -2.6923939e-04  -9.0794761e-05  -1.1664523e-04   2.2919827e-04   4.3851596e-05  -2.5143987e-04  -6.8112742e-04  -9.6611395e-05   5.3913676e-04   3.6870278e-04   2.4773533e-04  -1.8284342e-04  -4.1715124e-05  -2.1885212e-04  -1.2805496e-04  -1.9631183e-04   1.9081910e-04   2.0834003e-04   1.2733188e-04   1.3474298e-04   1.0065152e-05   2.9723483e-04   3.2211089e-04   1.6770989e-04   1.4622908e-04  -6.9968555e-05   6.1224709e-04   1.7488370e-05  -7.7639706e-04   5.3975367e-05  -1.6403788e-04   3.6173089e-05  -1.0186610e-03
  -6.0187193e-04   3.8884253e-05  -4.8835023e-04  -5.0663290e-04  -5.7781761e-04   2.6963503e-04  -8.0260470e-05  -3.9913553e-05   1.3781108e-04   4.1793674e-04  -3.5737711e-04   3.2066819e-04  -4.4907714e-04  -3.9101602e-04  -1.1189334e-04  -3.5861356e-04  -4.4700661e-04  -2.5155820e-04  -3.1925345e-04  -1.1899023e-04   2.1032582e-04   7.5995420e-05   1.3529847e-04   5.4656841e-05  -1.2292888e-04   4.8818186e-04   3.0023497e-04   9.6657925e-05  -2.7585862e-04  -7.4380092e-05  -1.6668979e-04  -2.5804006e-04  -8.9165405e-05   2.2911161e-04   2.5735478e-04   1.1576508e-04   1.1240114e-04  -3.1154384e-05   2.8908887e-04   4.4587458e-04   1.9410820e-04   2.2189299e-04   4.1661178e-06  -1.7687878e-04   1.5599231e-04  -8.6893054e-04   6.6124026e-05  -2.1288410e-04   5.6686862e-05  -1.0626003e-03
  -8.2467089e-04   4.4086046e-05  -3.5335368e-04  -4.8041210e-04  -6.1898545e-04   3.4278978e-04  -5.8080310e-05  -7.1626520e-05   1.2909055e-04   4.6200975e-04  -4.2436161e-04   1.9807839e-04  -5.0752447e-04  -4.3766433e-04  -8.6463471e-05  -3.7246532e-04  -4.5333116e-04  -2.6882632e-04  -4.9919274e-04  -1.5031369e-04   1.7535708e-04   6.1079416e-05  -3.5304978e-04  -5.4061727e-04   2.2508668e-04   2.6870635e-04   3.0488902e-04   6.0574541e-05  -2.3567851e-04  -7.1266462e-05  -1.6101213e-04  -3.1136366e-04  -6.3718588e-05   1.8212163e-04   2.2846738e-04   1.9032157e-04   1.0886975e-04   2.1252737e-05   2.9562175e-04   2.7479453e-04   2.0909993e-04   2.6463016e-05   1.5457554e-04   1.0895316e-03   8.8836314e-05  -7.1024097e-04   9.4115232e-05  -7.6436110e-05   4.2236614e-04  -9.8729075e-04
  -6.3505850e-04   5.5304125e-05  -5.6205946e-04  -5.3745456e-04  -5.8769231e-04   2.9087206e-04  -2.6111527e-05  -9.8431476e-05   2.4380475e-04   3.5731486e-04  -3.8617509e-04   2.2636027e-04  -4.5117628e-04  -3.5915594e-04  -7.4197647e-05  -3.6335035e-04  -3.6453750e-04  -2.2015179e-04  -5.6946559e-05  -6.4794629e-05   2.1281904e-04   3.9636274e-05  -1.9824783e-04  -5.3913671e-05   1.8626514e-04   3.5394987e-04   3.9354622e-04   2.6990741e-04  -1.9175024e-04  -4.9822673e-05  -1.9980277e-04  -1.6797047e-04   4.9692208e-05   2.4352010e-04   1.8740332e-04   2.3573598e-04   1.8366658e-04   4.2081952e-05   2.5439935e-04   3.8738962e-04   1.7806857e-04   2.6454966e-04   1.4732555e-05   8.7825808e-04   2.4512544e-04  -7.3154405e-04   1.0613861e-04  -8.6311030e-04  -1.3659630e-04  -1.1066513e-03
  -6.8418781e-04   8.7216227e-05  -4.8830820e-04  -4.2616381e-04  -6.7845680e-04   2.9208223e-04  -1.4563650e-05  -1.0196871e-06   2.3752637e-04   2.8807239e-04  -3.5075677e-04   3.0904089e-04  -4.0739268e-04  -3.3150299e-04  -1.0094617e-04  -3.7157166e-04  -3.3983198e-04  -2.4692976e-04  -3.5043209e-04  -7.4499603e-06   2.2856401e-04   1.5605496e-04  -8.1451457e-05  -2.0251628e-05   1.7101597e-04   4.1300798e-04   3.4097291e-04   1.4647607e-04  -2.7810258e-04  -6.4572087e-05  -4.3191085e-05  -1.6362715e-04  -1.2794662e-04   2.6576780e-04   2.2755894e-04   1.4243386e-04   1.6449840e-04   6.4869790e-05   2.5013171e-04   3.5580009e-04   2.7859636e-04   2.4550012e-04  -1.3970454e-04  -2.4446033e-04   6.2881358e-04  -7.9000148e-04   1.1778023e-04  -9.1797185e-05   3.3684645e-04  -9.7301754e-04
  -5.9372757e-04   1.0284357e-04  -3.0076405e-04  -4.5965106e-04  -6.3396856e-04   3.5656779e-04  -1.3620146e-04  -1.9644513e-05   1.2294379e-04   2.3417387e-04  -3.2717545e-04   2.5247899e-04  -3.9373792e-04  -3.2368151e-04  -9.1194896e-05  -3.5384018e-04  -2.8257005e-04  -2.0036500e-04  -1.8426109e-04  -2.6225629e-05   2.2673806e-04   1.4428598e-04  -3.5704783e-05  -1.5765542e-04   1.1407174e-04   4.5958511e-04   3.0486719e-04   2.0961600e-04  -2.0302787e-04  -4.2580556e-05  -5.7444624e-05  -1.0677877e-04  -8.7038177e-05   2.2967583e-04   3.1448351e-04   2.1487632e-04   1.1354852e-04   8.8989262e-05   2.6883790e-04   5.2070781e-04   2.0504247e-04   2.1618341e-04  -1.9152307e-05   1.3909257e-06   2.2031419e-04  -5.6231476e-04   1.4696157e-04   3.4143744e-05   1.0055237e-04  -1.0085891e-03
  -6.0963369e-04   8.4044143e-05  -5.4651120e-04  -4.9875985e-04  -5.7896192e-04   2.8557135e-04  -8.9907247e-05  -3.8611030e-05   3.7004013e-04   2.2013253e-04  -3.1577461e-04   2.0594704e-04  -3.7962862e-04  -3.4246800e-04   4.4159427e-05  -3.5302978e-04  -2.5607395e-04  -2.3942285e-04  -3.5660030e-04  -2.0860275e-06   2.5671982e-04   1.7390586e-04  -2.3121563e-04  -3.3889024e-04  -2.5412621e-04   2.8761750e-04   3.7032124e-04   2.2743794e-04  -2.7898318e-04  -2.6711630e-05  -6.6862420e-05  -7.0002417e-05   6.3772830e-05   2.0411413e-04   2.4612041e-04   2.1001218e-04   1.9362726e-04   9.1571426e-05   3.2626148e-04   4.3589814e-04   2.4762319e-04   2.1394412e-04   3.5141798e-04   6.5975427e-04   4.8922066e-04  -7.2454568e-04   1.0025676e-04  -2.5704553e-04   2.8093648e-04  -9.8216266e-04
  -5.3138891e-04   1.0946400e-04  -5.2624178e-04  -4.1305303e-04  -6.2154437e-04   2.9670118e-04  -3.9672530e-05  -5.3459527e-05   2.6356985e-04   2.0943880e-04  -3.4162900e-04   2.7314073e-04  -3.5596979e-04  -3.4148793e-04  -3.9379840e-05  -3.4289015e-04  -3.0050403e-04  -2.2924095e-04  -7.3337498e-05  -4.2142972e-05   2.9255202e-04   1.6561421e-04  -1.4814879e-04   9.6813346e-05  -9.3254843e-05   4.1865295e-04   3.8357085e-04   2.4458673e-04  -2.0303216e-04  -5.4540647e-05   1.0147123e-04  -1.9086583e-05   1.4549002e-04   3.1980596e-04   2.4292883e-04   2.7506164e-04   1.9332315e-04   6.0745897e-05   3.6111748e-04   4.6257072e-04   2.2674214e-04   1.8284742e-04   1.0902443e-04  -1.4584004e-04   1.5789844e-04  -6.5753615e-04   9.7936958e-05   7.3604449e-04   4.9927004e-04  -9.3493983e-04
  -7.4310112e-04   2.7416887e-05  -3.2621657e-04  -4.2009342e-04  -6.2930374e-04   4.9365056e-04   9.0211674e-05  -1.3172699e-05   4.2158095e-04   3.3077059e-04  -4.4963032e-04   2.9637170e-04  -5.1298039e-04  -4.4461974e-04  -1.0275396e-04  -3.3418415e-04  -4.6167118e-04  -2.3801228e-04  -4.4675203e-04  -1.5897052e-04   1.4065336e-04   9.3988383e-05  -2.3812147e-04  -8.2406291e-04   1.3471009e-04   6.2375178e-04   4.4788877e-04   1.9914802e-05  -3.0713310e-04  -6.5727079e-05  -4.0875973e-05  -2.9025725e-04   2.2918313e-05   3.7572661e-04   2.2986937e-04   1.7890305e-04   2.5394460e-04  -8.4442845e-06   3.8996525e-04   5.0637464e-04   2.4366389e-04   3.5557087e-04   2.0409931e-04   5.0413003e-04   2.8013389e-04  -8.2007033e-04   6.8552486e-05   4.8528476e-05   3.8563047e-04  -7.7705231e-04
  -8.0926623e-04  -4.1110772e-05  -3.1691737e-04  -3.9804340e-04  -5.2105344e-04   6.2229828e-04   1.0406988e-04  -1.0608937e-05   3.3588053e-04   4.2533290e-04  -7.1008562e-04   1.7181336e-04  -6.6002680e-04  -5.6781265e-04  -2.2090875e-04  -3.5020223e-04  -5.3290359e-04  -1.6358461e-04  -6.0816389e-04  -4.3040802e-04   8.5940883e-06   2.1688121e-04  -2.7864127e-04   1.0749602e-05  -4.7011700e-04   7.4496929e-04   4.1153206e-04  -5.3522886e-05  -3.6536093e-04  -8.0339138e-05  -1.5331732e-04  -2.6568581e-04  -1.4925745e-04   4.5539357e-04   2.1141396e-04   3.8671069e-04   2.9560796e-04  -4.3678851e-06   4.2914343e-04   6.3145964e-04   3.7252248e-04   2.6795411e-04   1.2931977e-04   1.1538401e-03   3.6979376e-04  -7.3720317e-04   4.9805793e-05  -1.4695851e-04   3.3408430e-04  -8.2042627e-04
  -7.6870166e-04  -1.4029060e-05  -6.5740081e-04  -3.8537581e-04  -6.7727314e-04   6.4778182e-04   5.7573860e-05  -3.2786269e-05   2.3125876e-04   2.6521023e-04  -7.0625608e-04   3.1840726e-04  -6.5839937e-04  -6.3810259e-04  -2.6198136e-04  -3.2486572e-04  -5.7243550e-04  -1.6380701e-04  -6.0040311e-05  -4.7537536e-04  -1.0153581e-05   3.1489157e-04  -1.2852585e-04  -2.2373909e-04  -4.9916503e-05   6.4846472e-04   4.0929398e-04  -1.7598565e-04  -3.3721686e-04  -1.0772560e-04  -8.3801744e-05  -3.7230947e-04  -1.0525475e-04   5.0028996e-04   3.0635641e-04   3.7735843e-04   2.1478016e-04  -2.1112464e-05   5.0615985e-04   7.1986835e-04   3.1342596e-04   2.9571203e-04   7.8422003e-05   4.5973869e-04  -4.4983135e-06  -8.1544521e-04   9.1290982e-05  -4.4062770e-05   3.3380272e-04  -8.8031974e-04
  -7.8804919e-04  -2.2428176e-05  -4.3890913e-04  -4.1890040e-04  -6.4414355e-04   6.6768035e-04   1.3028181e-04  -2.2882861e-05   4.7565802e-04   2.5462991e-04  -7.0716219e-04   2.5812339e-04  -6.8286754e-04  -6.2941940e-04  -2.0400697e-04  -3.3716139e-04  -5.5229675e-04  -1.8483192e-04  -5.8446622e-06  -4.1422914e-04   3.3448243e-05   1.7048235e-04  -2.6655940e-05  -8.9211186e-05  -3.3079261e-05   5.8850250e-04   4.2493432e-04  -7.8485631e-05  -3.7579701e-04  -1.2289610e-04  -2.4288424e-04  -1.5664390e-04  -3.1255026e-04   5.0267344e-04   3.0277381e-04   3.2122066e-04   2.3479133e-04  -4.0274968e-05   4.1669715e-04   6.8886590e-04   2.9364155e-04   2.0565535e-04   3.6795795e-04   4.9261184e-04   8.4336026e-04  -7.1745401e-04   8.7381646e-05  -1.8587052e-04   1.3638624e-04  -8.2484272e-04
  -9.5552509e-04  -3.4478300e-05  -5.1699940e-04  -4.1878884e-04  -6.8201544e-04   6.4850302e-04   1.4314476e-04  -8.8995257e-05   3.9584740e-04   1.0353569e-04  -7.2526379e-04   1.9025744e-04  -6.8138400e-04  -6.7059783e-04  -3.5674457e-04  -3.3630757e-04  -5.8900844e-04  -2.2839141e-04  -3.4057137e-04  -4.2427081e-04  -3.3645588e-06   1.7744243e-04  -1.4899491e-04   4.0513626e-04  -2.3581654e-04   6.1217195e-04   3.6548040e-04  -2.3943082e-04  -3.0088838e-04  -1.5020235e-04  -1.7765723e-04  -2.9949608e-04  -2.0224263e-04   4.9189042e-04   3.6034075e-04   3.7486988e-04   1.9676425e-04  -6.1852174e-05   4.3333662e-04   5.8953726e-04   3.3258487e-04   1.9201310e-04   7.5205455e-05   7.8467384e-04   1.7548006e-04  -8.3085848e-04   3.0682670e-05   3.6254301e-04   2.1324623e-04  -8.3812454e-04
  -8.2262215e-04   5.6642170e-06  -3.1627287e-04  -3.5819152e-04  -6.8513630e-04   6.0040475e-04   6.1457489e-05  -1.0978213e-04   3.9171873e-04   6.9983085e-05  -6.7827135e-04   2.2499301e-04  -6.5120193e-04  -6.9366238e-04  -3.0324195e-04  -3.2227742e-04  -5.5067695e-04  -2.5225649e-04  -3.8816128e-04  -3.7943144e-04   4.5117711e-05   1.0784022e-04  -3.2812657e-04  -5.4683548e-04  -8.6437030e-05   5.7033711e-04   4.0404501e-04  -2.0729861e-04  -4.4607534e-04  -1.5086039e-04  -2.1514950e-04  -2.5208711e-04  -1.8812667e-04   4.1082763e-04   2.3553582e-04   3.4508819e-04   1.6698893e-04  -4.4276218e-05   3.8854993e-04   5.2853854e-04   2.2044253e-04   2.9844244e-04   2.9413126e-04   8.1859680e-04   1.9513047e-04  -7.4260810e-04   2.3110046e-05  -2.1256784e-04   5.0301303e-04  -8.3307654e-04
  -7.7461568e-04  -4.7333237e-06  -5.1714736e-04  -4.1264159e-04  -5.6137249e-04   5.4506666e-04   8.3134983e-05  -9.8741511e-05   3.3983553e-04   1.4217386e-05  -6.7060569e-04   1.8189661e-04  -5.9085159e-04  -6.2570284e-04  -2.6362485e-04  -3.1967045e-04  -5.1445171e-04  -2.2920789e-04  -5.0408306e-04  -3.6552313e-04   1.6022392e-05   1.8721358e-04  -2.9170958e-04  -3.8289113e-04  -2.7106109e-04   4.0968508e-04   2.7248790e-04   6.9737194e-05  -3.9778239e-04  -1.2596292e-04  -1.6182345e-04  -3.4998442e-04  -2.8523151e-04   4.2607170e-04   1.8833407e-04   2.2801304e-04   1.7053404e-04  -5.2788705e-06   4.2279452e-04   5.2875804e-04   2.4479948e-04   2.7982859e-04   8.6993787e-05   2.8591062e-04   2.0016586e-04  -7.4873352e-04   8.2727507e-05  -1.8902656e-04   6.8518933e-04  -7.3486264e-04
  -7.7809871e-04   5.7789207e-06  -3.7826097e-04  -3.7074945e-04  -6.7769701e-04   5.3759612e-04   2.1097479e-05  -2.1061373e-06   2.5014768e-04  -3.0133691e-05  -6.6093379e-04   2.9389109e-04  -5.7039293e-04  -5.7348603e-04  -2.9990610e-04  -2.9401833e-04  -4.4436636e-04  -2.0412011e-04  -3.6169161e-04  -3.1366901e-04   3.3103730e-05   2.0941683e-04  -9.9012919e-05   1.0398373e-04  -3.7313101e-05   4.9053738e-04   4.3910937e-04  -6.8321191e-05  -3.6821005e-04  -1.4377438e-04  -1.3210140e-04  -1.7004770e-04  -1.8861158e-04   4.6091329e-04   3.0712856e-04   2.6558872e-04   1.3958645e-04   5.1102916e-06   3.9482105e-04   6.7954289e-04   2.2777636e-04   3.9553848e-05   1.7459600e-04   6.5588398e-04   2.5381270e-04  -8.7522372e-04   7.1460410e-05   9.1537971e-05   1.5776693e-04  -8.4009714e-04
  -7.8447594e-04   2.5578809e-05  -3.3942674e-04  -3.5269145e-04  -6.4294547e-04   5.3750561e-04   6.3442516e-05  -8.1175916e-05   2.6486928e-04  -5.8176120e-05  -6.4528832e-04   2.6781927e-04  -5.4836617e-04  -5.2491442e-04  -2.3961156e-04  -3.2349650e-04  -4.5073000e-04  -2.6236707e-04  -3.4509998e-04  -3.0540233e-04   3.9905492e-05   9.9221230e-05   6.4156957e-05  -3.5734400e-05  -3.2656915e-06   4.0478155e-04   3.5925140e-04  -3.7119898e-05  -3.5277684e-04  -1.2447360e-04  -1.3880160e-04  -1.6521168e-04  -7.5440403e-05   4.1820458e-04   2.6125301e-04   3.7740867e-04   1.6195608e-04   9.8170749e-06   3.4152306e-04   3.3272311e-04   3.4491793e-04   1.8252950e-04   2.5994788e-04   4.8807167e-04   3.5149441e-04  -7.7098509e-04   8.2594845e-05  -6.7585053e-05   1.9981364e-04  -7.9787109e-04
  -8.1658567e-04   6.9865705e-06  -3.5497773e-04  -3.7353797e-04  -5.9987820e-04   5.0172437e-04  -2.5213199e-05  -9.2267328e-06   2.0027136e-04  -1.0596649e-04  -6.1750208e-04   2.8962069e-04  -5.2271941e-04  -5.1154487e-04  -1.9753206e-04  -3.2817569e-04  -3.8495223e-04  -1.7803728e-04  -1.3173955e-04  -3.0809952e-04   2.1709546e-05   1.3604680e-04   5.0900049e-05  -5.2654085e-04  -3.3358441e-04   8.1979396e-04   3.7518013e-04   1.2854596e-04  -3.0785426e-04  -1.0261792e-04  -5.6673314e-05  -2.1353169e-04  -2.3621861e-04   3.6995063e-04   1.9006027e-04   2.0056673e-04   1.4657869e-04   2.6970916e-05   3.6491256e-04   5.2175304e-04   2.0539071e-04   1.6194713e-04   2.4768815e-04   1.1506319e-04  -1.2382252e-04  -6.0291321e-04   8.6065229e-05  -1.2845469e-04   2.8272567e-04  -8.5925742e-04
  -6.4055459e-04   5.8561163e-05  -3.3824082e-04  -3.0658132e-04  -6.2431116e-04   5.6478329e-04   1.0914882e-04   4.5470959e-05   2.9306722e-04  -1.3831913e-04  -6.0025946e-04   2.7634524e-04  -5.2507478e-04  -4.8573496e-04  -1.3656542e-04  -3.2008707e-04  -3.4167487e-04  -1.8913868e-04  -5.5453554e-04  -2.3789973e-04   5.7388144e-05   2.4730415e-04   1.6574257e-04  -3.6822728e-04  -1.3444509e-04   8.6517684e-04   2.5636813e-04  -6.4693100e-05  -3.3212380e-04  -1.0060312e-04  -4.0270483e-05  -1.2616177e-05  -1.5940396e-04   4.4909044e-04   3.0685018e-04   1.6074059e-04   1.1439900e-04   4.6159013e-05   2.9506863e-04   4.9205002e-04   3.5983845e-04   2.7060267e-04   3.0213929e-04   4.8637681e-04   1.3435498e-04  -6.7576190e-04   1.8342865e-04   8.2856954e-05   3.7392392e-04  -7.7823550e-04
  -6.5688923e-04   3.1661202e-05  -4.1658679e-04  -3.1943386e-04  -5.9364334e-04   3.6648632e-04  -1.7685146e-05  -7.0210190e-05   1.3292009e-04  -1.1958511e-04  -5.2905054e-04   3.0163594e-04  -4.5943112e-04  -4.2073120e-04  -1.2905008e-04  -3.1600220e-04  -3.4221212e-04  -1.8412599e-04  -4.9883028e-04  -1.9219569e-04   5.6639903e-05   1.2919419e-04  -1.8166545e-04  -4.9339584e-04  -4.4062053e-05   7.7396136e-04   3.0116274e-04   1.6581007e-05  -3.4067378e-04  -7.9789279e-05  -6.0480274e-05  -2.0033534e-04  -1.1287307e-04   3.5355805e-04   2.2977339e-04   1.8843052e-04   1.0344581e-04   4.3268377e-05   3.5420549e-04   4.2760107e-04   2.5387481e-04   2.6195790e-04   4.4212505e-04   1.4763298e-04   3.4109084e-04  -8.4378646e-04   1.1655822e-04   2.0164947e-04   3.0512796e-04  -8.3657488e-04
  -5.6135986e-04   3.4886674e-05  -3.0119723e-04  -4.0946883e-04  -6.7716814e-04   2.9636221e-04  -4.7324033e-06  -5.3309588e-05  -1.5546442e-05  -1.3689825e-04  -5.2207714e-04   2.1789917e-04  -4.3902409e-04  -3.9439689e-04  -1.2477243e-04  -2.9663107e-04  -2.7069703e-04  -1.9564983e-04  -2.7057773e-04  -1.9641376e-04   6.8778107e-05   3.7979673e-05  -2.7648214e-04  -6.2371470e-04  -1.6429191e-04   5.6767795e-04   3.8836338e-04   1.6404633e-04  -3.1104381e-04  -5.6160832e-05  -1.0732701e-04  -1.9204662e-04  -2.2233227e-04   3.5195544e-04   2.2851430e-04   2.7268476e-04   1.5039634e-04   7.0778318e-05   3.1005021e-04   4.7226757e-04   2.3835657e-04   1.7561157e-04   2.0322505e-04   7.9799938e-04  -2.3258955e-05  -6.8348803e-04   7.1576054e-05  -1.4935150e-04  -9.8522956e-05  -8.8213652e-04
  -7.2889164e-04   6.7470995e-05  -2.7431507e-04  -3.4984128e-04  -6.6308270e-04   3.8397446e-04   5.4074506e-05  -6.1823281e-05   9.2722788e-05  -1.4317277e-04  -5.3551450e-04   3.2004260e-04  -4.4939082e-04  -4.2494113e-04  -1.2642998e-04  -3.3177558e-04  -3.3638769e-04  -2.1806161e-04  -4.4269493e-04  -1.4652121e-04   5.2276690e-05   9.0981790e-05  -7.9295569e-05  -1.1868431e-04   4.3771451e-04   5.7899981e-04   2.5004600e-04  -4.2016294e-05  -4.8196528e-04  -9.5762909e-05  -2.8111659e-05  -1.9881128e-04  -7.7936756e-06   3.8489801e-04   1.8926029e-04   1.7744079e-04   9.8648423e-05  -1.9482781e-05   3.3222398e-04   4.1768086e-04   2.7917983e-04   2.0143954e-04   4.5018160e-04   9.8207290e-04  -2.0100926e-04  -5.9134210e-04   6.5257635e-05  -1.1081567e-04   3.3619574e-05  -8.6852204e-04
  -6.3344976e-04   5.0353887e-05  -1.8625744e-04  -3.4032873e-04  -6.7031273e-04   3.7645487e-04   2.2437534e-05  -2.1960304e-05   5.1576739e-05  -1.6382535e-04  -5.2039797e-04   2.9159951e-04  -4.2906418e-04  -4.0790372e-04  -1.6665325e-04  -3.0640443e-04  -3.1498005e-04  -2.6731374e-04  -4.7490650e-04  -1.6656429e-04   2.8863691e-05   5.7873727e-05  -1.7153436e-05  -3.9703218e-04   2.5020621e-04   4.7699222e-04   2.9286277e-04  -5.3953660e-05  -2.6954419e-04  -1.0345645e-04  -1.4041162e-04  -2.5832349e-05   5.3113166e-05   3.6804864e-04   2.4249232e-04   1.9499265e-04   1.0089234e-04   2.2781764e-05   3.2176432e-04   3.6980928e-04   2.3242085e-04   2.4261058e-04   3.5555000e-04   1.1372116e-04  -1.8697481e-04  -6.5253588e-04   9.9317724e-05   1.9149420e-04   1.5297675e-04  -8.4393495e-04
  -7.9674681e-04   3.0649771e-05  -3.1822856e-04  -4.2909975e-04  -7.5525203e-04   2.4772782e-04   2.6555530e-05  -2.3316155e-05  -1.3096475e-05  -3.9921375e-05  -5.0697505e-04   1.8277990e-04  -4.1838712e-04  -4.2951672e-04  -1.1752752e-04  -3.2111414e-04  -3.3742256e-04  -2.7018847e-04  -1.8811630e-04  -1.3455654e-04   7.1002345e-05   1.3636536e-06  -4.8623397e-04  -1.4240151e-04  -2.2299125e-04   5.6922348e-04   2.7042883e-04  -5.9495131e-05  -3.4800399e-04  -8.2225881e-05  -1.6941458e-04  -1.8459176e-04  -1.9153564e-04   3.0775389e-04   2.3736517e-04   1.9143871e-04   8.7681896e-05  -1.5063016e-06   3.5474557e-04   4.7553968e-04   2.2219127e-04   1.3594452e-04  -4.5158409e-05   8.3678920e-04  -3.3335924e-05  -6.0863380e-04   8.6465967e-05   8.1937767e-05   1.0022841e-04  -8.2946336e-04
  -7.6608895e-04   3.4710301e-05  -3.5199910e-04  -3.4943529e-04  -6.5712148e-04   3.4254306e-04   1.4190283e-05  -2.2383318e-05   8.5812469e-05  -7.6323377e-05  -5.4971757e-04   2.3494542e-04  -4.7276539e-04  -4.0041021e-04  -1.8774478e-04  -3.6116369e-04  -3.5196458e-04  -2.3013930e-04  -4.4063639e-04  -1.5656557e-04   2.5213450e-05  -5.5011482e-05   1.5907493e-04  -7.1544026e-05  -6.8814376e-07   4.0956613e-04   2.0433508e-04  -1.8464234e-04  -3.6072862e-04  -1.1658842e-04  -1.5107568e-04  -2.1804284e-04  -3.1645785e-04   3.5896798e-04   1.7750196e-04   1.7667770e-04   8.9466987e-05  -9.3121616e-06   2.8078031e-04   5.3175935e-04   2.4891770e-04   1.7949646e-04   1.9529069e-04   9.2138356e-04   1.2995311e-04  -7.3351979e-04   1.0343764e-04   2.3084224e-04  -4.1875672e-05  -8.3664886e-04
  -8.3534367e-04   3.7536658e-05  -4.1514967e-04  -3.6326124e-04  -5.8953848e-04   3.2292606e-04  -1.8524055e-05   6.9270510e-07   4.0516832e-05  -1.2896219e-04  -5.2318018e-04   2.6487195e-04  -4.5624442e-04  -4.3254168e-04  -1.0105234e-04  -3.5423075e-04  -3.2483923e-04  -2.7215606e-04  -6.3706056e-04  -1.7938110e-04   2.5909569e-05   1.7003423e-04  -7.7235913e-05  -1.8699336e-04   4.9525952e-05   5.3382688e-04   2.0155343e-04  -9.2863200e-05  -3.2080107e-04  -7.9078556e-05  -1.2451137e-04  -2.5074012e-04  -6.6116227e-05   2.8753205e-04   1.8254918e-04   1.0692007e-04   9.2293383e-05   6.6122402e-06   3.0954767e-04   5.2354846e-04   1.7070930e-04   1.9291606e-04   1.4482993e-04   5.3151179e-04   1.7092310e-04  -5.4080237e-04   6.5841028e-05   2.6293285e-04   2.5063287e-04  -8.0220459e-04
  -8.5884146e-04   1.9243700e-05  -3.2619116e-04  -3.5876542e-04  -5.6603766e-04   2.3692878e-04   3.2662341e-05  -3.1519019e-05   1.6813463e-05  -1.4618164e-04  -5.5142184e-04   1.8163295e-04  -4.2742791e-04  -3.8432502e-04  -6.7455767e-05  -3.3076992e-04  -3.2311832e-04  -2.5529065e-04  -7.5653970e-04  -1.6450039e-04   1.8825078e-05  -3.9757924e-06  -1.2703432e-04   1.2148134e-04  -4.3993592e-04   5.5159116e-04   2.4250791e-04  -6.8655179e-05  -3.0185666e-04  -6.6994813e-05  -2.2261836e-04  -2.1834312e-04  -2.2022775e-04   3.7309542e-04   1.5999375e-04   2.0360660e-04   8.6868138e-05  -3.1498230e-06   3.2245248e-04   3.6841701e-04   2.9856176e-04   5.1453790e-05  -9.0683963e-05   2.6331696e-04  -1.0659238e-04  -6.4828451e-04   7.8367673e-05   2.0585886e-04  -1.0095617e-04  -7.7936426e-04
  -6.9354521e-04   3.1398533e-05  -3.3419370e-04  -4.0629946e-04  -5.5972981e-04   2.8437359e-04   3.3462846e-05   2.4770183e-05   8.0263999e-06  -1.3777106e-04  -5.0392898e-04   2.2901071e-04  -4.2185799e-04  -3.4546692e-04  -1.4863719e-04  -3.2290802e-04  -3.3037394e-04  -2.3185453e-04  -5.2134570e-04  -1.1738326e-04   2.3964250e-05  -1.2485772e-05  -3.4558307e-05   3.0457383e-04   2.5333979e-04   4.8839388e-04   2.5053194e-04  -7.3138668e-05  -3.1407693e-04  -1.0770242e-04  -8.8936969e-05  -1.9073207e-04  -1.7741248e-04   3.5902494e-04   1.3541357e-04   1.8842843e-04   1.0510536e-04  -4.6168930e-06   2.8922426e-04   4.0922585e-04   2.3345303e-04   1.7836128e-04   4.0693034e-04   7.8614755e-04   2.3519910e-04  -7.4295612e-04   5.8134767e-05  -5.0069683e-04   1.5389764e-04  -7.8132242e-04
  -7.4705557e-04   5.9140009e-05  -3.6043429e-04  -3.6659883e-04  -6.2527088e-04   2.9930618e-04   4.6704627e-05   7.8343008e-05   1.4319176e-04  -1.4609039e-04  -4.9804366e-04   2.3679400e-04  -4.5911997e-04  -3.8458817e-04  -5.9912174e-05  -3.3944563e-04  -3.2738104e-04  -2.9163758e-04  -2.8335841e-04  -1.4340397e-04   2.4536146e-05   6.7831083e-05  -5.7618170e-05   2.6497440e-04   3.0620382e-04   5.0617574e-04   1.9267466e-04  -8.6734806e-05  -3.4027002e-04  -8.0062906e-05  -1.2086663e-04  -1.4491704e-04  -3.0201519e-04   3.4724272e-04   1.9769972e-04   1.8999857e-04   6.2851919e-05  -1.3059828e-05   2.8030577e-04   4.7804686e-04   2.5499784e-04   1.4712785e-04   3.6248891e-04   5.0012677e-05  -1.2742585e-04  -5.7054526e-04   8.5790925e-05  -5.8559468e-05   5.9774600e-05  -9.4394514e-04
  -7.5964344e-04   5.5253204e-05  -2.8082536e-04  -4.2196957e-04  -6.0816278e-04   2.3942217e-04   6.1801834e-06  -5.0276598e-05   3.1553041e-06  -1.4732820e-04  -5.0720922e-04   2.0845525e-04  -4.4839591e-04  -3.6362137e-04  -9.6515490e-05  -3.4125286e-04  -3.2022642e-04  -2.6730870e-04  -4.8683290e-04  -1.7015946e-04   1.0615928e-05   9.3924282e-05  -2.5132537e-04  -5.3591961e-05  -4.5515248e-04   3.3523055e-04   1.9338325e-04  -3.4547193e-05  -3.6862059e-04  -5.2710871e-05  -6.0387829e-05  -3.0414984e-04  -1.3142075e-04   2.8016724e-04   1.7664576e-04   2.2232025e-04   1.0265296e-04  -2.7806071e-05   3.2055160e-04   5.1924743e-04   2.1722086e-04   2.5602919e-04   3.5554214e-04   2.3988074e-04   3.3043147e-05  -6.8758725e-04   9.1792812e-05   3.7467187e-05   7.9292469e-05  -8.5595663e-04
  -6.6645525e-04   3.5386973e-05  -3.7519439e-04  -4.2119200e-04  -6.4291962e-04   2.4553281e-04   6.7701571e-05   1.9769748e-05   2.2160561e-05  -1.6411004e-04  -5.0167815e-04   1.6821382e-04  -4.5372889e-04  -3.7982975e-04  -8.4216328e-05  -3.6447559e-04  -3.0340292e-04  -2.8899845e-04  -5.2902714e-04  -1.4573785e-04   7.3679944e-06  -1.2049643e-05  -6.9250338e-05  -3.0509601e-04  -2.4108410e-04   3.7769545e-04   2.5463899e-04   5.3327758e-06  -2.9187021e-04  -3.7361151e-05  -7.0393100e-05  -3.1068650e-04  -1.0967248e-04   3.3311138e-04   1.2284472e-04   1.4620951e-04   8.7009525e-05  -2.0401187e-05   3.0235419e-04   4.2285962e-04   2.7464988e-04   1.5241516e-04   1.4746989e-05   1.9414163e-03  -8.2664083e-05  -7.5174758e-04   7.7888137e-05  -5.0890434e-05   1.2100822e-04  -8.4990443e-04
  -7.0599339e-04   6.9866896e-05  -2.8871241e-04  -3.1781502e-04  -6.7316805e-04   3.4309254e-04   8.3386425e-05  -3.9660588e-07   1.3864634e-04  -1.5077787e-04  -4.5898769e-04   2.5201580e-04  -4.1291834e-04  -3.2748459e-04  -4.6630692e-05  -3.4283556e-04  -3.1335565e-04  -2.7037843e-04  -6.1074353e-04  -9.6906959e-05   2.9495999e-05   2.2641223e-05  -2.3718014e-05  -2.0144045e-04  -3.7390791e-04   6.6296215e-04   1.9458150e-04  -1.0571313e-04  -3.8346645e-04  -6.5548971e-05  -7.3344796e-05  -1.7599617e-05  -1.9253837e-04   3.1793359e-04   2.2192470e-04   2.6929585e-04   1.0233042e-04  -5.9764780e-06   2.9432480e-04   5.8690645e-04   2.0095221e-04   1.5983320e-04   3.5096178e-05  -2.5743252e-04   2.8762509e-04  -7.8305474e-04   4.8766844e-05  -1.8785188e-04   5.7801757e-05  -8.9228322e-04
  -6.6395116e-04   6.3358544e-05  -2.7882011e-04  -3.6270794e-04  -6.0286303e-04   3.1207601e-04  -6.6956673e-05   9.6140619e-05   1.3847783e-04  -1.4481640e-04  -4.6925346e-04   2.1372357e-04  -4.3414204e-04  -3.4794345e-04  -4.9598944e-05  -3.3803773e-04  -2.6444704e-04  -2.9537728e-04  -3.5730540e-04  -1.5054883e-04   2.6762964e-05   5.4161250e-05  -3.5884106e-04  -8.6365122e-05  -1.5190736e-04   6.3758116e-04   1.5484927e-04   5.9586905e-06  -2.5768051e-04  -5.2165458e-05  -3.0861302e-05  -2.9327103e-04  -1.9562313e-04   2.9307962e-04   1.9041756e-04   1.6863382e-04   1.1123123e-04   1.8864306e-05   3.1498226e-04   4.7678401e-04   2.3960287e-04   1.9061976e-04   1.4728247e-04   6.4560334e-04  -7.9147416e-05  -6.3336600e-04   4.3991175e-05  -1.8839879e-04  -1.6130990e-04  -9.2050747e-04
  -7.3175016e-04   5.8650239e-05  -3.1568159e-04  -4.0205198e-04  -5.9416553e-04   2.9874194e-04  -1.6603618e-06  -2.2801700e-05   4.3019754e-05  -1.5224966e-04  -4.6773840e-04   1.7289311e-04  -4.0549887e-04  -3.3528786e-04  -2.8609156e-05  -3.6369561e-04  -2.9489532e-04  -2.1111008e-04  -4.8228985e-04  -9.1331603e-05   4.0371615e-05   6.9930567e-05  -3.0991714e-04  -5.0015782e-04  -3.4098219e-05   5.2672415e-04   2.8246062e-04   1.3379619e-04  -2.6977062e-04  -4.9124243e-05  -1.1858020e-04  -8.1737511e-05  -4.7215399e-05   3.1682994e-04   1.6428696e-04   1.3279237e-04   7.5476375e-05   5.1817809e-05   2.9927693e-04   5.1823707e-04   2.8946227e-04   2.6731347e-04   3.6896867e-04   4.3812805e-04   6.2423467e-04  -7.0794538e-04   6.3341264e-05   2.1395218e-04   3.5538888e-04  -9.2715007e-04
  -7.3879934e-04   8.5476815e-05  -4.4244036e-04  -3.6377867e-04  -6.7772146e-04   2.9521339e-04  -1.9110432e-05  -2.4202338e-05   1.4498380e-04  -1.3418493e-04  -4.1957194e-04   2.6771109e-04  -3.3934278e-04  -3.1507263e-04  -4.1568008e-05  -3.5399775e-04  -2.4871167e-04  -2.2558820e-04  -5.1329262e-04  -9.6923824e-05   7.8360557e-05  -4.4160341e-05  -9.3409770e-05   1.2271838e-04   4.0645467e-05   6.3154509e-04   2.4891002e-04  -5.9934668e-05  -2.9679228e-04  -5.4232842e-05  -7.4862590e-05  -6.5018350e-05  -2.1235470e-04   3.3294712e-04   1.4548814e-04   2.8146655e-04   1.0415148e-04   2.7643642e-05   3.1155144e-04   6.2111113e-04   2.4548429e-04   2.3991340e-04   2.1897134e-04   6.2731258e-04  -1.3058030e-04  -8.0514682e-04   8.7633598e-05   2.9830678e-04  -8.5346619e-05  -8.4674649e-04
  -7.5689045e-04   8.7325898e-05  -3.2512215e-04  -3.1470475e-04  -5.9871894e-04   3.1127856e-04   2.3316383e-05   4.2065163e-05   3.2314118e-05  -1.5965383e-04  -4.2575001e-04   2.5849423e-04  -3.9519611e-04  -3.1494664e-04   1.1405165e-05  -3.2642932e-04  -2.1593161e-04  -2.3008630e-04  -2.7051099e-04  -7.2521660e-05   5.4748838e-05   9.5989344e-05  -2.6991975e-04   1.3122801e-04   2.4401034e-04   6.6083914e-04   1.6380669e-04   5.9080598e-05  -3.1042611e-04  -3.3499455e-05   1.6230872e-05  -7.9060264e-05   7.7870100e-06   2.7391547e-04   2.9164847e-04   2.3448364e-04   1.2215129e-04   5.4472304e-05   2.8900558e-04   3.9684412e-04   1.8959132e-04   2.0173420e-04  -1.6630147e-04   5.9974141e-04   3.2604582e-04  -5.8381003e-04   7.0374437e-05  -3.3869226e-05   1.1836133e-04  -8.5903157e-04
  -7.1248435e-04   7.4869895e-05  -4.0467514e-04  -3.5624232e-04  -5.9945276e-04   2.6058019e-04  -1.4846220e-05  -3.5059365e-05   2.0336927e-04  -1.7358312e-04  -4.5193449e-04   2.1086527e-04  -3.6909044e-04  -2.9024330e-04   5.1081788e-05  -3.3209188e-04  -2.2642818e-04  -2.2332206e-04  -6.8948144e-04  -9.7596137e-05   5.9973823e-05   7.5669428e-05  -7.4777730e-05  -5.7503831e-04   1.2980480e-04   5.1131105e-04   2.3674226e-04   1.4552925e-04  -2.4588587e-04  -2.7543356e-05  -4.9054634e-05  -1.1439768e-04  -7.9960351e-05   3.3246077e-04   2.0735593e-04   3.1549786e-04   1.3953602e-04   7.0690068e-05   2.8931175e-04   6.3970318e-04   1.9065142e-04   1.6959575e-04   3.3253717e-04   8.2507555e-05   2.0119503e-04  -5.8179838e-04   3.3469514e-05  -2.3199808e-04   6.0297352e-05  -9.3666703e-04
  -7.0973462e-04   9.2824288e-05  -3.5548417e-04  -3.3351590e-04  -5.4721028e-04   3.0026358e-04   8.4167314e-06   7.9637764e-05   9.3679169e-05  -1.5565509e-04  -4.0753881e-04   2.5276700e-04  -3.8132101e-04  -3.0969453e-04   1.0497780e-04  -3.4364327e-04  -1.9477632e-04  -1.8556303e-04  -9.2251394e-05  -7.3001480e-05   9.6587952e-05   8.3677704e-05   4.1434676e-05   2.4173679e-04  -1.0763341e-04   4.8762586e-04   2.3561179e-04   7.7386576e-05  -3.0528539e-04  -4.4897344e-05  -1.2735899e-04  -5.4625067e-05   3.7855592e-05   3.5028500e-04   2.4190368e-04   2.6097824e-04   1.6986352e-04   6.8979782e-05   2.9880228e-04   6.8671320e-04   2.3115467e-04   1.3253349e-04  -5.2768009e-05  -2.5590768e-04   5.4705550e-05  -6.9937855e-04   8.7849650e-05  -1.3570744e-04   1.6337032e-04  -9.4907120e-04
  -6.8182830e-04   1.0405859e-04  -3.3644191e-04  -3.2296483e-04  -6.2214717e-04   2.7727048e-04   1.7217641e-05   2.9633235e-05   2.3600896e-04  -1.5843274e-04  -4.0806370e-04   2.6452943e-04  -3.5065640e-04  -3.0854254e-04  -6.1556835e-05  -3.3761672e-04  -2.1028043e-04  -2.4182184e-04  -3.2700290e-04  -7.3835705e-05   6.9030990e-05   7.4609728e-05  -5.5786219e-05  -4.2542187e-04   1.0671301e-04   3.7145565e-04   2.4452838e-04   1.4960533e-04  -3.6025923e-04  -2.7433760e-05  -9.3729483e-05  -8.4808504e-05  -1.7669665e-04   3.2270045e-04   1.6989681e-04   3.3808174e-04   1.6101600e-04   8.3659397e-05   3.3611903e-04   4.6689052e-04   1.4510131e-04   1.4765729e-04   2.6004357e-04  -5.3461536e-04   4.7627508e-04  -5.1073014e-04  -9.1926904e-06  -1.6342801e-05   1.6544302e-04  -8.6591888e-04
  -7.3570345e-04   8.9649860e-05  -2.4450856e-04  -3.6721450e-04  -5.6668039e-04   2.4925059e-04  -9.1481204e-05  -1.1151936e-05  -2.0433577e-05  -1.7420464e-04  -4.1824425e-04   1.8458103e-04  -3.7345476e-04  -3.0516676e-04  -3.1604957e-06  -3.2738355e-04  -1.6120335e-04  -1.3892565e-04   1.0883771e-04  -6.1891289e-05   8.0390542e-05   4.0029990e-05  -2.5130183e-04  -2.5423449e-06  -1.9643192e-04   3.0114845e-04   2.2984501e-04   2.1632988e-04  -2.4621401e-04  -2.0411655e-05   7.4632462e-06  -1.6259635e-04   5.1769937e-05   3.5986071e-04   2.1166851e-04   2.1654670e-04   1.8750697e-04   7.9824793e-05   3.0801576e-04   6.1630772e-04   2.8431584e-04   1.8189108e-04   4.5325502e-05   4.6355784e-04  -3.4251563e-05  -6.1668857e-04   7.0625581e-05  -4.5637478e-04   1.0432279e-04  -8.9104567e-04
  -6.2797137e-04   1.1735953e-04  -2.9384665e-04  -2.6113511e-04  -6.3663896e-04   3.0797944e-04  -9.1010234e-06   9.4357027e-05   1.9122152e-04  -1.7158822e-04  -4.1204804e-04   2.6788906e-04  -3.4080053e-04  -2.9154809e-04   3.3438875e-05  -2.8777681e-04  -1.8000332e-04  -1.8703355e-04  -1.2615729e-04  -5.0157701e-05   1.1260599e-04   8.7533168e-05  -2.6954361e-04  -7.4511721e-05   1.0442523e-04   5.6188885e-04   2.5766631e-04   1.0783614e-04  -2.6993174e-04  -3.5300451e-05  -1.0903269e-06   2.4358031e-05  -1.6428734e-04   3.1774581e-04   2.5066288e-04   1.9272070e-04   1.5225075e-04   9.8800025e-05   3.3552098e-04   7.0371293e-04   2.0358646e-04   2.0912748e-04   3.0972203e-04   2.3298060e-04  -3.0664192e-05  -4.4945936e-04   4.2380703e-05  -1.4284677e-04   1.8431286e-04  -7.9425069e-04
  -7.0805172e-04   1.2225038e-04  -2.5840988e-04  -3.5392246e-04  -6.4757495e-04   2.7087031e-04   1.9270952e-05   1.1570049e-05   2.4164189e-04  -1.7501469e-04  -4.0725194e-04   2.3848683e-04  -3.3207639e-04  -3.0846053e-04  -1.2461400e-06  -2.9850670e-04  -1.3496606e-04  -2.2126314e-04  -2.3922359e-04  -4.2922919e-05   9.3506176e-05   1.2250936e-04  -7.9407080e-05  -3.7088583e-05   3.3310629e-05   3.9283361e-04   2.8879533e-04   9.7154538e-05  -1.5468907e-04  -7.9866049e-06  -4.6777208e-05  -8.1481623e-05  -6.1089755e-05   3.3662477e-04   2.6422390e-04   2.7205065e-04   1.9912208e-04   1.0336033e-04   3.3879877e-04   4.7774604e-04   2.9774950e-04   1.3718016e-04   3.3325801e-04   2.4329904e-04   5.3752745e-05  -6.1924657e-04   5.8692232e-05  -1.4255420e-04   2.7490218e-04  -8.3181600e-04
  -6.1742432e-04   1.1870553e-04  -1.2005271e-04  -3.4153427e-04  -5.4428203e-04   2.1609683e-04   9.8279133e-06  -2.3014583e-05   1.5143515e-04  -1.8132795e-04  -4.2202519e-04   1.9645678e-04  -3.2526802e-04  -2.6819011e-04  -4.1614137e-05  -2.9120166e-04  -1.2965266e-04  -1.6364560e-04  -4.6150928e-04  -8.5640138e-05   6.8886242e-05   6.8298352e-05  -8.8277098e-05  -3.9414136e-04   2.4120360e-04   5.3728838e-04   3.2805468e-04   2.3995325e-04  -2.2997150e-04  -1.6889844e-05   1.5265708e-05  -5.9429669e-05   4.4925426e-05   3.0626298e-04   2.7508228e-04   2.5041972e-04   2.0377166e-04   1.0197102e-04   3.4252886e-04   5.4002827e-04   2.6501846e-04   2.6859320e-04   4.7728076e-04   2.5706031e-05   4.5054388e-04  -4.7196139e-04   8.1713515e-05   2.3276669e-04   3.1274150e-04  -5.9722306e-04
  -7.1998773e-04   1.1887372e-04  -3.7892527e-04  -2.8113255e-04  -5.9862860e-04   3.5943848e-04   5.5264472e-06   3.1939056e-05   1.8587396e-04  -1.4387067e-04  -4.2401839e-04   2.0533337e-04  -3.1949021e-04  -3.4548386e-04   3.1225849e-05  -2.5499141e-04  -1.6929001e-04  -1.9906266e-04  -4.2311824e-04  -5.2916028e-05   1.1453777e-04   1.3095657e-04  -1.7944480e-04   1.5187571e-04   2.6285365e-05   5.8139651e-04   2.4164256e-04   1.0083675e-04  -2.9276425e-04  -5.5450346e-05  -9.7895041e-05  -1.4253857e-04   1.2718981e-05   3.4273494e-04   2.4593313e-04   3.2041711e-04   2.3592614e-04   7.4887408e-05   4.0999753e-04   4.7062192e-04   3.4429695e-04   1.4516524e-04   6.6474010e-04   3.6338993e-04   5.9108013e-05  -4.8629625e-04   1.0927590e-04   4.0857631e-04  -3.4797726e-05  -6.6959060e-04
  -6.4969587e-04   8.9829875e-05  -2.3341076e-04  -3.5214974e-04  -5.7291274e-04   2.8642462e-04   5.6447931e-05   1.8454553e-05   7.5916476e-05  -1.0466590e-05  -4.0674009e-04   1.6144487e-04  -3.4489017e-04  -3.3349780e-04  -3.4617767e-06  -2.8718266e-04  -2.5546632e-04  -2.0046529e-04  -3.2995286e-04  -1.0179369e-04   7.6002478e-05  -7.3870993e-05  -4.0488376e-04  -1.5534223e-04   1.8851779e-04   4.0427205e-04   1.9763793e-04   2.5615393e-05  -3.3045813e-04  -3.1292020e-05  -1.7726781e-05   1.4647803e-05  -2.2545324e-04   3.6229857e-04   2.7203187e-04   1.4682574e-04   1.7092197e-04   6.8821784e-05   3.3104431e-04   5.6415435e-04   2.9515318e-04   2.8515459e-04   1.9422169e-04  -7.0935333e-05   2.7667035e-04  -5.4561516e-04   1.7233883e-04   1.6890828e-05   1.3994185e-04  -5.3645892e-04
  -6.8590883e-04   5.6984489e-05  -2.5494050e-04  -4.3569706e-04  -5.6375255e-04   2.8240893e-04   8.2994675e-06  -6.4346976e-05   1.1740662e-04  -3.0691772e-05  -4.0733936e-04   1.4260084e-04  -3.5812552e-04  -3.4507189e-04  -5.5866014e-05  -2.9668165e-04  -2.4529261e-04  -2.2287673e-04  -3.7708241e-04  -7.9148653e-05   7.8969286e-05   1.5007316e-05  -1.8885048e-04  -1.7145905e-04  -3.1009104e-04   3.0483416e-04   2.8868552e-04   1.4842329e-04  -2.8392588e-04  -2.3270019e-05  -1.5531134e-04  -6.5841188e-05  -1.8706873e-04   2.9806411e-04   2.0978719e-04   2.9033754e-04   2.0820557e-04   1.0212082e-04   3.7052872e-04   4.1571955e-04   2.7315645e-04   2.5770639e-04   2.1198293e-04  -1.8403633e-04   3.5729576e-04  -5.0114846e-04   6.1307204e-05   1.7756966e-04   3.9900049e-05  -7.5882889e-04
  -5.5841909e-04   8.0876845e-05  -3.2575772e-04  -3.5651628e-04  -5.5770326e-04   3.3589528e-04   2.4303119e-05   8.9526227e-05   3.1849113e-04  -2.9468387e-05  -3.8962474e-04   2.2706746e-04  -3.8376843e-04  -3.3871253e-04  -8.4424501e-05  -2.7902558e-04  -2.5338359e-04  -2.1127152e-04  -2.1508888e-04  -1.0347715e-04   7.7176774e-05  -7.5546421e-05  -5.1762887e-05  -1.0652284e-04  -1.0625111e-04   5.1900384e-04   2.5528853e-04   3.0915890e-05  -2.0812417e-04  -4.7250491e-05  -9.7166594e-05  -1.0301056e-06   1.5453561e-04   3.3711272e-04   2.7432715e-04   2.4947498e-04   1.6836521e-04   1.1281724e-04   3.5692297e-04   4.3424399e-04   2.4340709e-04   2.9683302e-04   4.1533128e-04   1.4179423e-03   2.0739506e-04  -4.7742378e-04   1.1701290e-04   3.2144182e-04   3.0248080e-04  -7.2030711e-04
  -4.8495989e-04   7.1834969e-05  -4.1580622e-04  -3.5859409e-04  -5.8146857e-04   3.0055791e-04   4.8809688e-05   1.1537497e-05   1.9446271e-04  -1.2395580e-04  -4.2000675e-04   2.4526956e-04  -3.7836397e-04  -2.9269452e-04  -2.5709178e-05  -2.8867990e-04  -2.1363779e-04  -1.9840320e-04  -1.0657647e-04  -9.4956449e-05   7.4256241e-05  -5.1002476e-06   7.3332427e-05  -1.0537896e-04   7.9792901e-04   5.2038365e-04   2.6867670e-04   1.7564531e-04  -2.6462862e-04  -3.7472706e-05  -1.1413413e-04   3.1511674e-05   4.2744268e-05   3.1504713e-04   2.7124031e-04   3.5954619e-04   2.1582823e-04   1.1629123e-04   3.7968581e-04   4.4990823e-04   3.1753394e-04   2.4086388e-04   3.4123511e-04   5.7653745e-04  -1.8886848e-04  -6.4904994e-04   8.7671149e-05   1.9361571e-05   1.3431949e-04  -7.2486850e-04
  -6.2910124e-04   9.6670963e-05  -2.4145823e-04  -4.2855632e-04  -5.9319392e-04   2.2092783e-04  -8.8247243e-06   2.9125742e-05   1.5365143e-04  -1.1537539e-04  -3.8077054e-04   1.6408795e-04  -3.0702367e-04  -2.8117828e-04   6.6539003e-05  -2.8667483e-04  -1.9519222e-04  -1.4681772e-04  -4.3628263e-04  -5.8186746e-05   8.2222658e-05   8.7460103e-06  -8.2066417e-06  -1.4785759e-04   1.8951907e-04   2.7424382e-04   2.5982372e-04   2.4896464e-04  -1.7646645e-04  -1.7827280e-05   5.8117112e-05  -6.9519170e-05   4.2874939e-07   2.5231348e-04   3.2139602e-04   2.7537014e-04   2.2090795e-04   1.3305180e-04   3.5231977e-04   4.1058386e-04   3.3128224e-04   1.8765102e-04   1.4128593e-04   8.2406146e-04  -2.5037030e-04  -5.9938856e-04   7.1348295e-05   2.4098431e-04   2.4054547e-04  -9.2172890e-04
  -6.4382271e-04   1.0558585e-04  -4.3876143e-04  -3.3630052e-04  -5.4708694e-04   3.0124825e-04   2.5383182e-05   5.6739558e-05   1.7825636e-04  -1.2981518e-04  -3.5176048e-04   2.5342905e-04  -2.8250329e-04  -2.4925338e-04  -5.5460641e-05  -2.8812903e-04  -1.3107152e-04  -1.6324945e-04  -3.9455644e-04  -8.3897876e-06   1.2499989e-04   2.6864303e-05   8.5080152e-05   6.6498375e-05   2.1520293e-04   4.6937945e-04   2.4308024e-04   2.5803634e-04  -2.1747033e-04  -2.7751612e-05  -1.9041827e-05   4.8907626e-05   8.0974576e-05   3.6606548e-04   3.4475382e-04   2.1038913e-04   1.8866228e-04   1.1838626e-04   3.0589249e-04   5.5071927e-04   3.5777281e-04   2.6935819e-04   4.6100889e-04  -1.2035676e-04  -1.8462809e-04  -6.3737569e-04   3.8016213e-05   7.6242955e-05   4.1962013e-04  -6.9664104e-04
  -5.2028615e-04   1.2874030e-04  -1.7120638e-04  -3.9119044e-04  -5.3595135e-04   3.5280696e-04  -6.7443216e-05   8.2619335e-05   1.4171874e-04  -1.3136103e-04  -3.4865973e-04   2.3334590e-04  -2.8061436e-04  -2.6088912e-04   6.8571717e-05  -2.6338556e-04  -1.7732385e-04  -1.3668874e-04  -2.6634650e-04  -1.9605461e-05   1.2493787e-04   1.9479530e-06  -1.9622616e-04  -2.7198700e-04  -3.6561079e-05   5.4635061e-04   3.0083250e-04   2.4442771e-04  -1.6761156e-04   1.2028745e-06   4.6217439e-05   1.4971428e-04  -7.9521764e-05   3.1135540e-04   3.7619052e-04   1.6159730e-04   2.0228219e-04   1.2847941e-04   3.2591063e-04   5.3059566e-04   2.9676291e-04   2.9090542e-04   3.4636495e-04  -7.8976055e-04   5.8707436e-05  -4.2129046e-04   7.6335949e-05   8.2543906e-05   6.5235625e-04  -8.1730937e-04
  -5.2124460e-04   1.1836684e-04  -2.4145731e-04  -3.6472618e-04  -5.6053686e-04   3.2610435e-04  -1.1153368e-05   6.0849314e-05   3.0775031e-05  -1.5049512e-04  -3.6399413e-04   1.7831313e-04  -3.5075247e-04  -2.5028145e-04   2.9767180e-05  -2.9602798e-04  -1.7385202e-04  -1.5274742e-04  -2.5946007e-04  -3.7940979e-05   9.1514907e-05   6.2764608e-05  -1.6335680e-04  -5.2198669e-04   1.8198717e-04   2.7275909e-04   3.8959683e-04   4.1253405e-04  -1.6951376e-04   4.9383134e-06  -4.2866239e-05   8.8497596e-05  -5.0422481e-05   3.0482822e-04   1.8797789e-04   2.2062988e-04   2.8574406e-04   1.4241380e-04   3.8038893e-04   5.0415640e-04   2.8937458e-04   3.0493250e-04   3.4775893e-04   7.9232716e-04   1.8184505e-04  -4.7111849e-04   5.2022762e-05   8.0833364e-05   2.1888645e-04  -8.5266127e-04
  -5.3227710e-04   1.2152737e-04  -2.0950586e-04  -3.3870476e-04  -5.2122126e-04   2.5248021e-04  -3.1797033e-05   1.6030768e-05   1.1038452e-04  -1.4241909e-04  -3.3278868e-04   2.5192965e-04  -3.1334639e-04  -2.2908680e-04   6.0813167e-05  -2.6567513e-04  -1.3515932e-04  -1.2607794e-04   1.0610156e-05  -1.4504923e-05   1.4352365e-04   5.2274310e-05  -1.5043638e-04  -1.4509329e-04  -8.9868256e-05   6.2840630e-04   3.2969238e-04   2.0956760e-04  -1.8887589e-04  -2.7717557e-05   1.2130948e-04   1.3188696e-04   1.7412343e-04   3.5024219e-04   3.4063839e-04   3.3018630e-04   2.6509978e-04   1.5731473e-04   3.3649910e-04   8.2123233e-04   2.8054800e-04   2.7387266e-04   3.3595620e-04   4.8985920e-04   1.2882764e-04  -5.7444850e-04   8.9886977e-05   2.5674878e-04  -8.7563822e-06  -8.5191167e-04
  -5.7162845e-04   1.5464546e-04  -3.2974302e-04  -3.5455500e-04  -6.5461989e-04   2.7217483e-04  -3.9720373e-05   4.2159718e-05   7.2755400e-05  -1.7284273e-04  -3.0912133e-04   2.3541064e-04  -2.7085654e-04  -2.1217621e-04   1.4237324e-05  -2.8661106e-04  -1.6538415e-04  -1.7768917e-04  -7.2493473e-05  -5.8767987e-06   1.0684365e-04   1.7960515e-04  -1.2917974e-04  -4.6770583e-04   1.9666816e-04   4.6818401e-04   2.8549560e-04   1.9671158e-04  -1.5585410e-04  -1.4043369e-05   6.6101107e-05   4.5739293e-05   1.0473833e-04   3.2338011e-04   3.4203121e-04   1.9371179e-04   2.2093074e-04   1.7860603e-04   3.4437410e-04   4.2813533e-04   2.6667950e-04   3.1800498e-04   1.4050856e-04  -1.2309760e-04   9.6579832e-05  -4.6828721e-04   1.4967333e-04  -7.3993775e-05   1.0668100e-04  -7.6570781e-04
  -5.4903136e-04   1.3789738e-04  -1.4057182e-04  -3.6357075e-04  -6.0832076e-04   2.6818871e-04   3.6575842e-05   4.8442598e-05   2.1354848e-04  -1.7782940e-04  -3.0899612e-04   1.8914783e-04  -2.5532252e-04  -2.4843487e-04   1.1210733e-04  -2.5600800e-04  -1.1440679e-04  -1.4297100e-04  -4.4075522e-04  -2.2076176e-05   1.2661052e-04   9.1445516e-05  -6.4389904e-05  -8.4281317e-05   3.1636161e-04   4.2389482e-04   2.6582580e-04   2.5315411e-04  -1.3704404e-04   7.7734358e-06   9.7502583e-05  -6.9454938e-05  -2.8967258e-04   2.8848698e-04   2.9910044e-04   3.8117057e-04   2.3663265e-04   1.4526173e-04   3.2225909e-04   5.3554436e-04   3.5218245e-04   2.6175991e-04   2.8117010e-04  -2.4207671e-04   2.7539369e-05  -6.4474699e-04   1.2341472e-04  -3.1395187e-04   1.4050231e-05  -7.9565804e-04
  -4.6218466e-04   1.4696395e-04  -2.4577507e-04  -3.2008730e-04  -5.1245483e-04   2.8631944e-04   1.9466901e-05  -1.7101785e-05   3.1793112e-04  -1.7044727e-04  -2.6132556e-04   2.7890955e-04  -2.7194648e-04  -1.8863162e-04   5.4214448e-05  -2.6657557e-04  -1.1689157e-04  -9.7645185e-05  -4.5227407e-06   3.7047350e-05   1.3703371e-04   1.0327142e-04  -1.0179381e-04  -1.7489593e-04   5.6181359e-04   5.2392780e-04   2.8375947e-04   1.9338058e-04  -2.6065798e-04   1.4310709e-06   1.5496863e-04   2.9803230e-05   1.5386882e-04   3.1904943e-04   2.8978710e-04   2.7219611e-04   2.1495376e-04   1.1349939e-04   3.9888607e-04   5.2934984e-04   2.6393720e-04   2.4841362e-04   5.1299436e-04   7.2100846e-04   3.5042827e-05  -5.4777140e-04   1.6387596e-04  -2.5678626e-05   2.0798395e-04  -6.2622840e-04
  -5.5463926e-04   1.4816238e-04  -3.2879083e-04  -3.3690958e-04  -5.3851440e-04   3.1236350e-04   1.8707957e-05   1.5686100e-04   2.6826971e-04  -1.7261053e-04  -2.6353242e-04   2.3406603e-04  -3.0573044e-04  -2.1778925e-04   5.4717326e-05  -2.7894616e-04  -1.7786659e-04  -1.8011671e-04  -3.4378047e-04   4.3250540e-05   1.5033760e-04   7.3042727e-05  -6.0873605e-05   1.4583263e-04   1.1340979e-04   6.1814644e-04   2.7008093e-04   2.2939555e-04  -1.4009683e-04   2.8935428e-05   4.7452537e-05   1.1450193e-04  -2.6925278e-05   3.2212539e-04   3.7330249e-04   2.4938278e-04   2.2186655e-04   1.4320365e-04   3.5604750e-04   4.9974164e-04   3.0411864e-04   2.5223402e-04   3.3649063e-04   7.2302617e-04   5.9254406e-05  -5.2473700e-04   7.8789890e-05   9.5502590e-05   2.9820844e-04  -7.7548251e-04
  -5.6205009e-04   1.4848956e-04  -3.0793241e-04  -3.1983212e-04  -5.8228517e-04   3.1662182e-04   5.2081676e-05   4.5871137e-05   1.0390172e-04  -1.8891691e-04  -2.8288842e-04   2.3178315e-04  -3.0158271e-04  -2.2220852e-04   8.1387770e-06  -2.6712343e-04  -1.2770483e-04  -1.6709785e-04  -1.4941937e-04  -1.5139801e-05   1.1323662e-04   1.3056195e-04  -8.1404803e-05  -7.0989889e-05  -4.7905048e-04   5.9674092e-04   2.2510235e-04   4.1002189e-04  -1.7674027e-04   1.8808383e-05  -9.6915812e-07  -9.5630989e-05   1.5250008e-05   3.2015337e-04   3.3630841e-04   2.8413013e-04   3.0393817e-04   1.6248280e-04   3.3666531e-04   5.7724724e-04   3.1959891e-04   2.1266553e-04   2.9309242e-04   9.1547077e-04   1.0262627e-04  -3.8548600e-04   7.4656753e-05  -1.5142011e-04   2.9466493e-04  -7.1269280e-04
  -5.4115918e-04   1.6469821e-04  -3.4307849e-04  -3.0224249e-04  -5.4996589e-04   3.6095385e-04   4.2826166e-05   8.3081599e-05   3.1512076e-04  -1.6041953e-04  -2.4931418e-04   2.4241296e-04  -2.7023299e-04  -2.2251526e-04   7.4667507e-05  -2.8427513e-04  -1.7711431e-04  -1.6874231e-04  -1.2054876e-04   4.8208669e-05   1.4018061e-04   3.5030342e-05   1.3903910e-04   1.9136968e-04   2.8968156e-05   4.8606776e-04   3.2389243e-04   2.4092931e-04  -2.6212254e-04  -6.4818760e-06   9.5703108e-05   1.4863761e-04   2.0624693e-04   3.2503397e-04   3.4396653e-04   2.8905435e-04   2.5979438e-04   1.4210545e-04   3.3118954e-04   5.9549394e-04   3.6287800e-04   1.8514969e-04   5.9763257e-05   1.1514826e-03   3.3105837e-04  -5.0895824e-04   1.1397929e-04   1.1529661e-04  -6.3976266e-05  -8.4279967e-04
  -4.6931731e-04   1.5604774e-04  -1.2563530e-04  -3.1053153e-04  -5.5393710e-04   2.7319815e-04   3.6567541e-05   3.4676843e-05   1.3241624e-04  -1.7616979e-04  -2.7719705e-04   2.2216153e-04  -2.5703324e-04  -2.1861287e-04   5.7247489e-05  -2.8763869e-04  -1.7908706e-04  -1.5965573e-04  -1.9830413e-04   3.0889405e-05   1.3478626e-04  -2.0643012e-05  -6.2334329e-05  -2.1829973e-04   4.7503531e-04   4.4288032e-04   3.8407306e-04   2.0180017e-04  -2.4488018e-04   1.3145040e-05   3.4934030e-05   1.8060199e-04   6.5025357e-05   2.6607179e-04   3.3374116e-04   3.4644347e-04   2.2371358e-04   1.4242147e-04   3.6180147e-04   5.5644114e-04   2.5115261e-04   1.6314005e-04   3.1624731e-04   9.1614533e-04   2.0614517e-04  -4.6981321e-04   6.9124602e-05   8.0313628e-05   2.7774440e-04  -6.9915340e-04
  -4.8924249e-04   1.4329559e-04  -1.5072865e-04  -3.5048372e-04  -6.0844445e-04   3.2997766e-04   3.5442434e-05   9.3678325e-05   2.2157514e-04  -2.0869609e-04  -3.0360449e-04   1.5659827e-04  -2.8973533e-04  -2.4899503e-04   1.0238763e-04  -2.7380013e-04  -1.3732549e-04  -1.4683983e-04  -1.4535694e-04   9.9642739e-06   1.1730197e-04   4.8943260e-05  -1.8278934e-04  -3.0004192e-04  -9.2638809e-05   4.2328829e-04   3.8590221e-04   3.7296608e-04  -1.3569996e-04   2.2496606e-05   4.9920654e-05  -7.4402233e-05   1.3295840e-04   3.0605940e-04   3.7379528e-04   2.7724993e-04   2.3046152e-04   1.5947498e-04   3.7453245e-04   4.2155592e-04   2.8092816e-04   1.6307212e-04   2.1497115e-04   8.1120474e-05   4.7927699e-04  -3.4308553e-04   6.4591019e-05   3.8337975e-04   4.0224502e-05  -7.9703890e-04
  -4.7436031e-04   1.6272352e-04  -2.3476782e-04  -2.9849814e-04  -6.4831396e-04   2.8212802e-04   8.6890490e-05   3.6205787e-05   2.6228849e-04  -1.9943554e-04  -2.6980627e-04   2.3404091e-04  -2.7293531e-04  -2.2436766e-04   1.2175595e-04  -2.6653640e-04  -1.4364385e-04  -1.5844086e-04  -1.4697990e-04  -1.1750990e-05   1.3420549e-04   7.8213227e-05   5.3088359e-05  -1.9266388e-04   4.4357384e-04   4.7461779e-04   2.6080385e-04   1.5904385e-04  -2.1511942e-04   8.5379334e-06  -9.0157897e-05   4.3120304e-05  -1.2283251e-04   2.9307860e-04   3.4918610e-04   2.1303240e-04   2.9145629e-04   1.5516768e-04   3.3270032e-04   5.8387173e-04   2.4219649e-04   1.8782860e-04  -1.4828808e-05   2.1037961e-04  -1.9264617e-04  -5.1490281e-04   1.1645158e-04  -4.8591322e-05   3.2076091e-04  -8.3180651e-04
  -6.4366928e-04   1.6407816e-04  -2.1342940e-04  -3.0842499e-04  -4.9023674e-04   3.0801332e-04   9.2017232e-05   7.6984739e-05   2.2882165e-04  -2.1681440e-04  -2.8272739e-04   2.0840380e-04  -3.3009474e-04  -2.7354766e-04   7.2097377e-05  -2.8472926e-04  -1.3521092e-04  -1.7453685e-04  -9.5420262e-05  -1.6564596e-05   1.0203772e-04   5.6012621e-05   2.6493386e-04  -1.6096946e-04   2.5236700e-04   3.1092530e-04   3.2610405e-04   1.1864190e-04  -2.2063382e-04   1.6208936e-05   1.5949618e-06  -1.2781600e-05   3.7502556e-05   2.7950932e-04   3.5178786e-04   2.0887569e-04   2.8485930e-04   1.4884197e-04   2.9001432e-04   4.5210900e-04   3.1019413e-04   1.7445571e-04  -4.3629178e-05   6.4866625e-05   3.0713883e-05  -5.6866801e-04   3.4104170e-05  -2.0563495e-04   1.6755398e-04  -8.9041732e-04
  -4.0053544e-04   1.5350235e-04  -2.0282190e-04  -3.3274843e-04  -5.0845725e-04   2.8309159e-04  -2.8958759e-05   4.4477001e-05   1.2305114e-04  -2.4448693e-04  -2.8091980e-04   1.6807253e-04  -2.7781242e-04  -2.5255914e-04   1.3206643e-04  -2.5680879e-04  -1.4801076e-04  -1.6827682e-04  -7.2223350e-04   4.5219698e-05   1.2187487e-04   4.5402445e-05   2.6614152e-04   4.5089208e-04  -7.0421134e-05   5.3470919e-04   2.9628177e-04   1.8506363e-04  -3.6332596e-04  -9.4807820e-06   1.6706988e-05   1.0545084e-05  -6.4723703e-05   3.1903642e-04   3.3929120e-04   2.7006198e-04   2.8762626e-04   1.3623580e-04   2.9169794e-04   5.2132737e-04   3.0750994e-04   6.0262006e-05   1.2450304e-04   1.2195142e-03   6.9495574e-05  -4.9005816e-04   6.6385372e-05  -4.1921987e-04   1.5272976e-04  -8.8661700e-04
  -5.0940452e-04   1.6553198e-04  -3.2096595e-04  -2.6170170e-04  -4.7735896e-04   2.5166196e-04  -7.7992894e-07   1.6720102e-06   8.3123909e-05  -2.5360496e-04  -2.9233526e-04   1.7624941e-04  -3.0967180e-04  -2.2351914e-04   2.9423614e-05  -2.6090941e-04  -1.3363785e-04  -1.5583145e-04  -3.6315844e-04   3.6798832e-05   1.1239718e-04  -5.3052991e-05  -7.9197765e-05   3.7844825e-04  -2.7430509e-04   4.4323536e-04   2.2813019e-04   1.5249359e-04  -2.2034497e-04   1.0401966e-05  -5.1574702e-05   1.0625945e-04  -9.7738357e-06   2.7770639e-04   3.6614607e-04   3.7477555e-04   2.5872045e-04   1.4428812e-04   3.7343419e-04   4.0388849e-04   3.1884812e-04   3.9124152e-05   3.7914331e-04   1.4738913e-04   2.1105200e-04  -5.1921030e-04  -1.2838499e-06  -7.8735517e-05   3.6956128e-04  -8.8134041e-04
  -3.3483270e-04   1.6219822e-04  -3.2571002e-04  -2.4480681e-04  -5.4205942e-04   2.9199716e-04  -3.7652186e-05   9.1016460e-05   1.3340384e-04  -2.6461188e-04  -2.9972882e-04   2.0870524e-04  -3.2342723e-04  -2.4537809e-04  -9.4934483e-05  -2.7049604e-04  -1.3216995e-04  -1.6758888e-04  -7.2785484e-04  -2.9188745e-05   8.5826352e-05   4.0967898e-05  -1.6712656e-04   4.7539020e-04  -1.9181849e-04   2.1847257e-04   2.7257248e-04   1.5020069e-04  -2.0848088e-04   7.9955280e-06   8.5751999e-05   2.8013750e-05   1.5201063e-06   2.7596482e-04   3.0685990e-04   3.4914253e-04   2.2921378e-04   1.3943845e-04   3.5011725e-04   5.4250087e-04   2.8848450e-04   1.2711990e-04   7.7517485e-05   1.3515648e-03   3.6805976e-04  -5.2529876e-04   6.0410584e-05  -2.6595141e-04   5.8918798e-05  -7.6186418e-04
  -4.1640288e-04   1.8341267e-04  -1.7396672e-04  -2.3038546e-04  -4.9154076e-04   3.0246930e-04   1.1978897e-04   7.2536313e-05   1.2315427e-04  -2.6158179e-04  -3.1120668e-04   2.3742154e-04  -2.6131482e-04  -2.3005708e-04   3.2722681e-05  -2.5085051e-04  -1.0194717e-04  -1.7810485e-04  -5.6271453e-04   1.8373623e-05   9.7758297e-05   2.8252020e-05  -6.3025793e-05   1.3621656e-05  -3.0970309e-04   4.7871011e-04   2.4984757e-04   6.6958659e-05  -2.7374169e-04  -1.9091367e-06   8.9687339e-05   1.1155869e-04   8.8280518e-05   2.9187143e-04   2.8534376e-04   1.8929091e-04   1.7048437e-04   1.5285185e-04   3.6865618e-04   5.6941557e-04   2.1257291e-04   3.6683959e-05   2.1655744e-04   4.2868467e-04   1.0087038e-04  -4.8745054e-04   5.4877051e-05  -4.4616163e-04   1.6907793e-04  -8.4977492e-04
  -4.7467207e-04   1.7421736e-04  -3.6214694e-04  -2.6930633e-04  -6.3898147e-04   3.0797254e-04  -3.1194861e-05   1.2335771e-04   1.1023784e-04  -2.8333499e-04  -3.0908172e-04   1.9708101e-04  -3.1927283e-04  -2.6004083e-04  -4.8740781e-05  -2.5831873e-04  -9.6627948e-05  -1.8186022e-04  -1.8869043e-05   3.3081975e-05   9.7072814e-05  -1.6748327e-05  -2.3902250e-04  -3.5189043e-04  -1.8746816e-04   3.2752869e-04   2.6450539e-04   7.7519893e-05  -2.0229103e-04  -1.4710768e-05   7.7124379e-05  -9.4801711e-05  -4.1114201e-04   2.5261016e-04   3.4880848e-04   1.7246550e-04   2.3718325e-04   1.5250959e-04   3.6189199e-04   4.4970051e-04   2.4923775e-04   1.7324284e-05   3.0455107e-04  -2.0013678e-04  -3.6295434e-04  -5.9965032e-04   1.0125166e-05  -9.6673524e-05   8.0118946e-07  -8.1998616e-04
  -3.4324321e-04   1.7171819e-04  -2.7969983e-04  -2.9088988e-04  -5.5499258e-04   3.0364766e-04  -2.4310304e-05   1.3171103e-05   7.2025825e-05  -3.0105666e-04  -3.3578053e-04   1.8175735e-04  -3.0895922e-04  -2.5432967e-04  -5.5619723e-05  -2.4664754e-04  -1.1066832e-04  -1.7049101e-04  -5.0112401e-04   5.1793809e-06   1.0373995e-04   2.8658402e-05   6.2360014e-05   1.7467780e-04   6.9206581e-05   5.6938332e-04   3.2999658e-04   1.3448815e-04  -1.8181799e-04   7.8066005e-06  -1.0254368e-05   3.6314636e-05  -1.2353780e-04   3.2362659e-04   3.2637501e-04   1.3045625e-04   1.7401742e-04   1.4249180e-04   2.8411162e-04   5.2885682e-04   2.0917928e-04  -5.8745331e-06   1.6356746e-04  -4.4568963e-04  -4.5783404e-06  -5.5172114e-04   3.6073954e-05  -7.5795790e-05   8.5881155e-05  -8.0438989e-04
  -4.7713926e-04   1.7517254e-04  -1.8837122e-04  -2.2907497e-04  -5.9263495e-04   2.9706804e-04   3.5179783e-05   7.7233155e-05   1.5426816e-04  -2.9304408e-04  -3.1113424e-04   2.4404847e-04  -3.2506749e-04  -2.0855501e-04  -6.8690148e-05  -2.6678643e-04  -8.8252862e-05  -1.6828327e-04   1.2829322e-04   8.5299862e-06   9.6313044e-05   2.6049840e-05   8.1099759e-05  -2.5502214e-04  -1.1682644e-04   4.9992610e-04   2.5302026e-04   3.0477142e-05  -2.1809242e-04  -8.0915024e-06   1.6633847e-05  -1.4829275e-05  -6.3718144e-05   2.5854321e-04   2.8024879e-04   2.4673468e-04   1.8966003e-04   1.5454669e-04   3.4684612e-04   3.7439913e-04   1.6892924e-04  -1.4464925e-05   7.2113020e-05  -9.4170874e-04   2.2586971e-04  -3.5255193e-04  -6.4613087e-05  -2.8235037e-04   1.1710746e-04  -8.1505883e-04
  -5.9279450e-04   1.6612257e-04  -3.6133599e-04  -2.3927493e-04  -5.7723338e-04   2.6372675e-04   8.8204333e-06   6.8786198e-05   2.3467119e-05  -3.0561539e-04  -3.2331416e-04   1.8501673e-04  -3.0855153e-04  -2.7568667e-04  -1.0549802e-05  -2.6638774e-04  -1.1160123e-04  -1.4567193e-04  -6.3172594e-04   6.3300372e-06   8.1671242e-05  -1.4582825e-05  -1.1328269e-04  -3.3814955e-04   3.9614516e-04   5.8369100e-04   2.4779697e-04   1.1792949e-04  -3.1948250e-04  -4.7574035e-06   4.7255955e-05   3.7717458e-05  -1.7293407e-04   2.6573706e-04   3.0383188e-04   1.9876217e-04   2.2441563e-04   1.5184612e-04   3.5935116e-04   5.8506476e-04   1.9398726e-04   5.7007852e-05   5.8801717e-04   1.6402288e-03  -5.9504076e-05  -6.0298730e-04  -1.7160537e-05  -4.7355716e-04   9.9358891e-05  -8.5831928e-04
  -3.8344946e-04   1.5576236e-04  -3.1896678e-04  -2.8698222e-04  -5.9674837e-04   2.1460399e-04  -2.1803278e-05   3.7545120e-05  -1.6873129e-05  -3.1765975e-04  -3.6126858e-04   1.3037861e-04  -3.6073150e-04  -2.4722566e-04  -8.2567669e-05  -2.5288621e-04  -1.8431348e-04  -1.9840978e-04  -1.5544594e-04   7.5511803e-06   1.0249451e-04   3.6674050e-05  -1.7927511e-04  -3.2739434e-04  -7.2424450e-06   2.6138077e-04   2.3128433e-04   1.8943560e-05  -2.3319582e-04  -1.9428135e-05  -1.1786797e-04  -6.7031127e-05  -2.5883035e-06   3.5422499e-04   1.5384797e-04   3.0779908e-04   2.1536705e-04   1.1214327e-04   3.6606990e-04   4.8422255e-04   2.4833411e-04   8.1482831e-05   3.2508469e-04   6.8697357e-04  -1.8098081e-05  -4.2790556e-04  -3.5954045e-06   1.8379377e-04  -1.1549862e-04  -7.2649453e-04
  -5.0858519e-04   1.5228712e-04  -2.3547676e-04  -2.6325928e-04  -6.1625795e-04   2.9442826e-04   6.3793345e-06   1.3277058e-05  -9.4881616e-05  -2.9136898e-04  -4.0224756e-04   2.1033410e-04  -3.6990640e-04  -2.6889099e-04  -6.7136694e-05  -2.8919039e-04  -2.2801598e-04  -1.9695167e-04  -2.8456992e-04  -6.7341702e-05   2.5848491e-04  -2.5341078e-05   3.6057398e-05   6.0599059e-04   1.9156985e-04   4.7344482e-04   1.4685497e-04  -2.6700925e-04  -4.6132953e-04  -6.0292168e-05   2.4836316e-05  -1.0723276e-05   2.0838193e-05   3.6553000e-04   2.5839862e-04   1.9552490e-04   1.3955672e-04   6.0932030e-05   3.3636225e-04   4.8675665e-04   2.9244338e-04   2.0361172e-04   7.6795928e-04   3.4542731e-04  -1.2878847e-04  -3.6373432e-04   3.7869890e-05  -2.6408365e-04   1.1595023e-04  -6.7380903e-04
  -6.2175456e-04   9.9566838e-05  -2.3036396e-04  -3.2176927e-04  -6.3740491e-04   3.4548645e-04   4.7913287e-05   7.2436160e-05  -1.0534652e-04  -1.0189271e-04  -4.0183062e-04   9.6604577e-05  -3.9930997e-04  -3.3496963e-04  -6.7309418e-05  -3.1224670e-04  -2.9924867e-04  -2.4345900e-04  -4.4116343e-04  -9.9799203e-05   1.6789940e-04  -9.0547706e-05  -7.3819334e-05   3.1004436e-04   3.8380461e-04   6.4286764e-04   2.1906753e-04  -2.2707532e-04  -3.5362015e-04  -7.8609512e-05  -1.8006860e-04  -9.0775706e-05  -1.5700622e-04   3.1453528e-04   2.6954798e-04   2.4625531e-04   1.7696174e-04   4.7656402e-05   3.3454908e-04   6.6606322e-04   2.1852829e-04   1.3348371e-04   3.1090822e-04   7.2953536e-04   1.0014029e-04  -3.8136917e-04   2.8336877e-05   3.6044410e-05  -2.9003424e-05  -7.7363855e-04
  -6.4588606e-04   3.9225379e-05  -3.7853539e-04  -4.0012979e-04  -6.8151450e-04   2.5960826e-04   1.0610154e-04   4.2526284e-05  -1.4175128e-04  -1.9479833e-04  -3.9409468e-04   6.8904010e-05  -4.5817846e-04  -3.8618932e-04  -9.5533040e-05  -2.8695320e-04  -3.4221981e-04  -2.6012782e-04  -5.9078686e-04  -9.5254414e-05   8.9918067e-05  -9.0684975e-05  -1.8818156e-04   1.0692092e-04   3.9877497e-05   4.5416012e-04   2.9975825e-04   4.8303540e-05  -3.8497499e-04  -3.4122320e-05  -2.0696071e-04  -2.2004318e-04  -2.0063887e-04   2.9636940e-04   2.6354264e-04   2.3873478e-04   1.7012839e-04   6.1392784e-05   3.4412628e-04   4.2326952e-04   1.8184655e-04   1.4894453e-04   4.0212378e-04  -1.8484872e-04  -2.1484363e-04  -6.3723471e-04   2.3929537e-05   3.8928829e-05  -5.3274685e-05  -8.2179351e-04
  -5.5395317e-04   9.1178852e-05  -3.3489810e-04  -2.9804351e-04  -6.0696527e-04   3.3481669e-04   4.6246318e-05   6.9390495e-05  -1.2086991e-04  -3.4675893e-04  -4.2933409e-04   2.4482451e-04  -4.1534952e-04  -2.8519347e-04  -1.3447096e-04  -3.1347759e-04  -2.2557478e-04  -2.2702267e-04  -1.1904012e-04  -3.1358621e-05   1.0313017e-04   5.6604840e-05  -2.4755564e-04   5.1917444e-04   4.2978383e-04   7.4981712e-04   2.1459474e-04  -8.7603752e-05  -3.3133163e-04  -4.2043157e-05  -3.5798166e-05  -1.2296604e-04  -1.4883952e-04   3.6570465e-04   2.7632373e-04   1.2776427e-04   2.1175401e-04   9.2639879e-05   3.4973706e-04   6.2794593e-04   2.0307690e-04   7.1233299e-05   1.0361821e-04   8.7063794e-04   1.9621894e-04  -4.0922419e-04   9.7332362e-05  -2.3969894e-04  -5.6401936e-05  -8.4532553e-04
  -6.0783047e-04   1.1307652e-04  -2.3247047e-04  -2.6440594e-04  -6.4774998e-04   3.5362708e-04   1.0448867e-04  -1.0166215e-05  -1.5945996e-04  -3.4080620e-04  -3.8401797e-04   2.4968310e-04  -3.5160329e-04  -2.9322779e-04  -2.2596802e-05  -2.7750261e-04  -2.1607350e-04  -2.1154986e-04  -6.0227694e-04  -6.2152794e-06   1.6053634e-04  -6.0509938e-05  -1.3288401e-05   8.9089379e-05   3.6365518e-04   5.8077963e-04   2.4917937e-04  -4.2246495e-05  -2.9180007e-04  -2.7701510e-05  -5.2735119e-05  -1.4434109e-05  -5.5393825e-06   3.3171641e-04   2.2646338e-04   2.0265042e-04   2.1641697e-04   1.1344240e-04   3.5272088e-04   4.4362692e-04   2.0131160e-04   1.1603304e-04   4.3653199e-04   4.5197955e-04   2.6017003e-04  -5.2098592e-04   3.6835029e-06  -2.2011838e-05  -1.7358542e-04  -8.7771198e-04
  -4.2937713e-04   1.3605545e-04  -4.0253089e-04  -3.2132157e-04  -6.2595640e-04   2.7065570e-04   1.0921736e-04  -1.8136667e-05  -6.4394379e-05  -3.6661749e-04  -3.8203766e-04   1.3692011e-04  -3.5260612e-04  -2.4988267e-04  -2.1571632e-05  -2.9176203e-04  -2.0920220e-04  -2.0894133e-04  -2.2808980e-04   1.9403474e-06   1.3924179e-04  -4.4714539e-05   1.0349262e-04   3.8596793e-04   6.6725879e-05   6.1633612e-04   1.3279109e-04   1.1814576e-04  -2.6226937e-04  -8.2111819e-06  -5.2553627e-05  -8.2004917e-06  -2.7035217e-04   2.6234661e-04   2.1178907e-04   1.7006850e-04   1.9724565e-04   1.2295425e-04   3.5871903e-04   5.6429044e-04   2.6693492e-04   9.5840303e-05   4.2644993e-04   1.5865518e-04  -1.4431421e-04  -4.3604386e-04   2.4723500e-05   8.9679024e-06   8.4509971e-05  -7.7779853e-04
  -4.0810858e-04   1.2641895e-04  -1.3942079e-04  -3.7317650e-04  -5.4490624e-04   3.0779256e-04   3.7740308e-05  -3.4970726e-05  -4.8127982e-05  -3.7434194e-04  -3.6552802e-04   8.0968173e-05  -3.5168076e-04  -2.2840672e-04  -1.2004130e-04  -2.7189279e-04  -1.8001682e-04  -1.9301960e-04  -3.3024661e-04  -6.9065177e-06   1.6151485e-04  -1.6080696e-05  -1.3272729e-04  -2.2632978e-04  -1.0885489e-04   3.2680700e-04   1.8738500e-04   1.5472673e-04  -1.9264063e-04   7.0572933e-06  -1.0817230e-04   8.1893149e-06  -1.7659026e-04   2.4267063e-04   2.3290265e-04   2.6682921e-04   2.2840108e-04   1.0134464e-04   3.6553695e-04   4.0626960e-04   2.5352760e-04   1.4392076e-04   1.5628876e-04  -4.6498235e-04   9.1693968e-05  -5.0561875e-04   5.7844645e-05  -4.5945492e-04   3.2702758e-04  -7.8342872e-04
  -5.4726488e-04   1.5637581e-04  -1.2818315e-04  -2.6457824e-04  -5.6122144e-04   2.6425649e-04   9.5011048e-05   1.2370691e-04   1.8081877e-05  -3.5013704e-04  -3.2883516e-04   1.7951266e-04  -3.3561228e-04  -2.4155850e-04  -6.9175672e-05  -2.5747262e-04  -1.9606146e-04  -2.1555847e-04  -3.3467065e-04   4.5615827e-05   2.3761817e-04  -1.3013318e-04  -5.9535636e-05   3.4515123e-04   4.9345841e-04   4.0557567e-04   2.2026636e-04   2.0773390e-05  -2.8173643e-04  -9.8574692e-06  -4.9384875e-05  -2.9551584e-05  -1.1740160e-04   2.9125233e-04   1.9555166e-04   2.1356478e-04   2.3676823e-04   1.1856791e-04   3.1631958e-04   5.5592833e-04   2.7145544e-04   5.3671069e-05   5.2708999e-04  -4.9719604e-04   2.7534979e-05  -4.5017397e-04   7.1508512e-06  -1.4692638e-04   2.2458640e-04  -6.8012608e-04
  -4.3730435e-04   1.5673212e-04  -2.7591936e-04  -2.8250762e-04  -5.7616906e-04   3.1682683e-04   6.5847380e-05   4.8336657e-05  -3.9630006e-05  -3.2994579e-04  -3.3814984e-04   1.8085066e-04  -3.3436873e-04  -1.9920844e-04  -2.7988477e-05  -2.6386484e-04  -1.5791511e-04  -2.0247091e-04  -2.3622128e-04   4.7395628e-05   2.1768242e-04  -1.4634474e-04  -1.3910601e-04  -2.8468220e-04   4.3589240e-05   4.6788462e-04   1.9223199e-04   9.8670098e-05  -2.9004845e-04  -2.7618926e-06  -6.3352039e-05   3.2552864e-05  -1.0906229e-04   2.3837507e-04   2.5067540e-04   1.8483984e-04   2.5431154e-04   1.1267404e-04   3.6786433e-04   4.5548374e-04   3.2693855e-04   1.8752296e-04   5.0917920e-04   3.8601580e-04  -1.0341804e-04  -4.2736941e-04   8.8595312e-05   4.9162686e-06   1.9572017e-04  -5.7903549e-04
  -3.7694271e-04   1.2966027e-04  -2.5792868e-04  -3.5508943e-04  -5.5268878e-04   2.5169522e-04  -2.0997986e-05   5.9296119e-05  -7.2783905e-06  -3.5438919e-04  -3.6521460e-04   1.1367042e-04  -3.0674206e-04  -2.4511162e-04  -9.9796725e-06  -3.0039565e-04  -2.0710059e-04  -2.4556962e-04  -3.7267682e-04   1.9228717e-05   1.5905812e-04   5.7154062e-05  -3.8698097e-04  -7.1498209e-05   1.8558216e-04   3.9399875e-04   2.4226774e-04   1.7277357e-04  -2.3253902e-04   5.0060930e-06   1.7956396e-05  -9.5724950e-05   5.0747389e-05   1.8116427e-04   1.9850695e-04   1.7065475e-04   2.3886681e-04   1.1223146e-04   3.8605591e-04   2.4717388e-04   3.1956413e-04   5.9299957e-05   6.0990523e-04   6.0443324e-04   6.4909080e-04  -3.2929934e-04   2.0548086e-05  -3.3290600e-04   9.9537610e-05  -7.3130307e-04
  -3.3069571e-04   1.2433997e-04  -1.5905694e-04  -3.7054723e-04  -5.3300941e-04   2.3475330e-04   4.9177539e-05  -9.0615879e-07  -8.0118924e-05  -3.6646446e-04  -3.5536656e-04   1.2037389e-04  -3.1186492e-04  -1.8432879e-04  -8.2007908e-05  -2.7744111e-04  -1.7232874e-04  -1.9409960e-04  -6.0466031e-04   4.3492557e-05   1.3820722e-04  -4.2124018e-05  -1.8987415e-04   4.1049155e-08  -2.6484886e-05   2.5847703e-04   2.2393637e-04   3.1632054e-04  -1.9402112e-04   2.7061600e-05   7.3885691e-05  -2.0617101e-05  -1.1804236e-04   1.8173932e-04   2.5854475e-04   2.0279117e-04   2.6519183e-04   1.4741693e-04   3.6744642e-04   5.2413269e-04   2.2492644e-04   6.0953236e-05   5.3033209e-04   6.0070830e-04   8.4781983e-05  -4.1077193e-04   3.5311681e-05  -2.1989210e-04   3.0008663e-04  -7.4523874e-04
  -4.0041222e-04   1.5298385e-04  -1.9677136e-04  -2.8018054e-04  -5.8651995e-04   3.2065061e-04   9.1656657e-05   8.0359314e-05   1.0732503e-04  -3.3155622e-04  -3.3348327e-04   1.9936754e-04  -3.1656251e-04  -2.0925576e-04  -4.5610515e-05  -2.8781610e-04  -2.2562816e-04  -2.2210176e-04  -4.5732319e-05   2.7894215e-05   1.3547932e-04  -4.9912429e-05  -1.6902818e-04   2.2065113e-04   3.4132175e-04   6.6689670e-04   1.9227233e-04   1.5751540e-04  -2.3223877e-04   1.3015086e-05  -2.7918175e-06   3.9401275e-05  -1.7286914e-04   2.6308274e-04   3.1661947e-04   2.0045476e-04   2.3049286e-04   1.2992219e-04   3.7785209e-04   5.7687185e-04   2.6443414e-04   2.1307837e-04   6.4736989e-05  -4.0081458e-04   1.2078086e-04  -5.5612688e-04   3.3081047e-05  -2.3977090e-04   2.3892627e-04  -7.3010294e-04
  -3.3758822e-04   1.3736756e-04  -3.1375003e-04  -3.0927351e-04  -5.7526462e-04   2.7882395e-04   4.4549270e-05  -9.1159645e-06   3.3431734e-05  -2.7621916e-04  -3.2715235e-04   1.5945277e-04  -3.4446144e-04  -1.9858810e-04  -5.7685451e-05  -3.0777961e-04  -2.4318557e-04  -2.3751907e-04  -4.9308233e-04   1.8008088e-05   1.6159679e-04  -6.8772686e-05  -4.8732996e-05  -4.0015180e-04   1.5839125e-04   2.9430146e-04   2.5065636e-04   2.1264312e-04  -1.7203217e-04   7.5427661e-06  -7.0718081e-05  -9.3661845e-05   2.3628426e-04   2.6046872e-04   2.7552297e-04   3.0291185e-04   2.8891282e-04   1.2299456e-04   3.5422586e-04   4.6844146e-04   2.8518558e-04   2.2750147e-04   4.6900148e-04  -6.1649793e-05   4.7526130e-04  -4.4512539e-04   5.3243621e-05   2.3425835e-04   3.5865436e-04  -8.0361951e-04
  -4.1291121e-04   1.3531034e-04  -2.3793634e-04  -3.3879685e-04  -4.9540913e-04   2.5334794e-04   3.9221570e-05   6.4957814e-05   7.1829418e-05  -2.8587677e-04  -3.4552341e-04   1.3023442e-04  -3.3194356e-04  -2.4607946e-04  -9.2457281e-05  -3.0332600e-04  -2.1931982e-04  -2.0886348e-04  -5.1873340e-04   5.6217727e-06   1.5179675e-04  -2.6834070e-05  -1.8310417e-04  -2.1177805e-04  -3.1127420e-04   3.5589261e-04   2.5432330e-04   3.4123473e-04  -9.4206182e-05   3.5765868e-05  -5.0246603e-05   4.3778138e-05  -1.8513198e-04   2.5221021e-04   2.9675927e-04   1.7881083e-04   3.0151682e-04   1.2073760e-04   3.3793758e-04   3.8608929e-04   2.8319875e-04   1.5519954e-04   1.6583623e-04   9.3443450e-05   5.3303047e-06  -4.5105617e-04   1.0151562e-04  -9.2126225e-05   1.5075761e-04  -6.1896321e-04
  -3.8036954e-04   1.3151258e-04  -1.1173280e-04  -3.4508971e-04  -5.3216587e-04   2.5919999e-04  -2.3289704e-05   6.9265945e-05   4.4997862e-05  -2.9596136e-04  -3.2739397e-04   6.5153683e-05  -3.5342411e-04  -2.2709905e-04  -1.0078956e-05  -2.8629307e-04  -2.1701722e-04  -1.9777502e-04   3.8983610e-05   6.3841122e-05   1.7745743e-04  -4.1576594e-05   1.0741699e-04   4.0025163e-05   8.0698766e-05   3.5608574e-04   2.7601942e-04   1.4891950e-04  -2.8552557e-04   3.4946836e-05  -7.6477183e-05   1.7598473e-05  -6.1763644e-06   2.8093785e-04   3.4512690e-04   1.9945810e-04   3.0292192e-04   1.2298381e-04   3.6839859e-04   5.4714771e-04   2.8396017e-04   2.6324173e-04   9.2934766e-05  -2.3990861e-04   3.4075574e-04  -5.1850325e-04   5.2177820e-05   1.5204166e-04   3.4844337e-04  -7.2082301e-04
  -4.3141999e-04   1.5437386e-04  -1.2988613e-05  -2.8932470e-04  -5.0355942e-04   2.8277308e-04   5.5146047e-05   5.8737613e-05   1.9255352e-04  -2.8568355e-04  -3.1491579e-04   1.1930869e-04  -3.1965502e-04  -2.6483770e-04   3.8534279e-05  -3.0568070e-04  -2.0674612e-04  -2.1306818e-04  -3.2487130e-04   4.3249220e-05   1.8242044e-04   1.0478721e-04  -8.8870853e-05   7.4290694e-04   1.5833961e-05   5.2318838e-04   2.3963436e-04   2.1770605e-04  -1.0149647e-04   2.3014885e-05  -1.9675434e-05   3.8858845e-05  -6.5995271e-05   2.6857475e-04   3.1005288e-04   2.1314676e-04   2.8333729e-04   1.4468373e-04   3.7315441e-04   3.8704646e-04   3.2555108e-04   1.8264657e-04   4.7184830e-04   9.4792858e-04   2.5900004e-05  -4.6577610e-04   7.3388539e-05  -2.3707616e-04   1.5359714e-04  -7.3133718e-04
  -3.0476425e-04   1.3824196e-04  -2.2986821e-04  -2.6548340e-04  -5.0797529e-04   3.0865284e-04   6.4886350e-05   4.2988333e-05   1.7873563e-04  -2.8793508e-04  -3.2034612e-04   1.0085877e-04  -3.6079116e-04  -2.1324317e-04  -4.0835548e-05  -2.8448534e-04  -2.0423342e-04  -1.7692316e-04  -3.9732317e-04   6.3622829e-05   1.6882062e-04   1.8148834e-05  -2.8597933e-04   4.0170355e-04   2.7748698e-04   4.0379341e-04   3.2505163e-04   3.3626988e-04  -1.1778956e-04   2.8748951e-05  -1.9123790e-05   7.1957933e-05   1.5500802e-04   2.7414769e-04   3.3444844e-04   2.7129494e-04   3.4156305e-04   1.2105018e-04   3.7654027e-04   4.0076641e-04   2.7763564e-04   1.6132604e-04   1.1192995e-04   1.2036882e-03   4.8606959e-04  -3.8890663e-04   3.2782031e-05   9.7904936e-05   2.7549666e-04  -6.5113790e-04
  -4.1291167e-04   1.3755177e-04  -2.9186031e-04  -3.3626310e-04  -5.6291412e-04   2.7917622e-04   1.5350299e-04   2.8006400e-05   1.0991377e-04  -2.9140062e-04  -3.4050897e-04   8.3656640e-05  -3.6546003e-04  -2.6374747e-04  -6.1867773e-05  -2.8356709e-04  -2.2973417e-04  -1.6538952e-04  -7.6797151e-05   2.2011511e-05   1.8463003e-04  -1.6114667e-05  -2.9375011e-04   2.6903761e-04   1.0278336e-04   3.9000396e-04   3.2206232e-04   3.7033018e-04  -1.7495881e-04   4.8294030e-05  -1.6370665e-05   1.3774894e-04  -1.7534383e-04   2.9965353e-04   3.6533203e-04   3.0790016e-04   3.4783332e-04   1.6264011e-04   3.2393640e-04   4.8640283e-04   4.0116618e-04   3.4024587e-04   3.5501995e-05   7.0643699e-05   1.2340171e-04  -2.3044361e-04   1.1173684e-04   2.8221353e-04   4.1861547e-04  -6.8272330e-04
  -3.8837999e-04   1.8281267e-04  -6.0527462e-05  -2.6747989e-04  -5.5487436e-04   3.2526281e-04   9.8140656e-05   8.6375374e-05   1.6743250e-05  -2.8837926e-04  -3.2771556e-04   1.5094967e-04  -3.4044558e-04  -2.4194199e-04  -9.6775993e-06  -2.6748129e-04  -1.9430205e-04  -2.2712235e-04  -1.7751627e-05   6.6877939e-05   1.9873788e-04  -3.3060005e-05   1.0723754e-07   2.2224043e-04  -1.5919494e-04   5.1921164e-04   3.7209311e-04   3.1218919e-04  -1.4028684e-04   2.8340073e-05   1.3969457e-04   2.8489039e-05   6.0030445e-05   2.7025290e-04   3.3232020e-04   2.7546106e-04   2.3439918e-04   1.7962742e-04   3.5021984e-04   4.5155361e-04   2.5854787e-04   2.2577340e-04   2.3062498e-04   3.3184316e-04  -1.1033611e-04  -2.8256502e-04   7.5496879e-05  -3.2583391e-04   2.8982147e-04  -6.1495142e-04
  -3.8861556e-04   1.8178730e-04  -2.5612433e-04  -2.4958290e-04  -4.6308243e-04   3.5525116e-04   1.2978651e-04   2.7230291e-05   9.7294243e-05  -2.7720720e-04  -3.2535868e-04   1.3185365e-04  -3.4464744e-04  -2.5373881e-04  -8.0492115e-05  -2.5924333e-04  -1.9006446e-04  -1.9290336e-04   2.3807176e-04   5.1357409e-05   1.7635916e-04   5.1095762e-05  -8.2633633e-05  -4.7903988e-05   1.3411143e-04   3.9867114e-04   3.0812569e-04   3.3100977e-04  -1.8771511e-04   4.6813911e-05   3.7453698e-05   1.0600876e-04   9.2768016e-05   2.6491532e-04   2.8293676e-04   3.4782939e-04   3.2712609e-04   1.8206341e-04   4.0986625e-04   4.4994924e-04   3.5738200e-04   2.0380164e-04   1.4097076e-04  -4.3298100e-04   2.5920066e-04  -2.7669512e-04   1.3546862e-04   1.2400757e-05   2.4788000e-04  -5.7456264e-04
  -4.0364650e-04   1.6959259e-04  -1.9466739e-04  -3.0517631e-04  -4.6647098e-04   3.1486456e-04   1.0588386e-04   1.1226822e-04   1.2460603e-04  -2.7310281e-04  -3.5889712e-04   9.7137869e-05  -3.3556594e-04  -2.1365596e-04  -1.5514062e-04  -2.6519748e-04  -2.0301876e-04  -1.8677345e-04   3.4396100e-05   5.0239880e-05   2.1115184e-04   1.2624408e-04  -2.4039832e-04   1.6228322e-04   2.5547255e-04   4.6550905e-04   3.4856820e-04   3.7074357e-04  -1.3034066e-04   4.7261859e-05   1.4255196e-04   1.1760485e-04  -1.0125160e-06   3.1339741e-04   3.5497118e-04   3.2923854e-04   3.3761081e-04   1.7072733e-04   3.4403932e-04   3.3845537e-04   3.2291940e-04   2.9170752e-04   2.1847950e-04   9.1616745e-04   3.2265103e-04  -5.0027913e-04   8.4968728e-05   2.2543607e-04   2.4608267e-04  -6.5152236e-04
  -3.7208799e-04   1.9684354e-04  -2.2410051e-04  -2.2292529e-04  -5.1927008e-04   3.0873716e-04   1.1536014e-04   6.2118430e-05   1.7259711e-04  -2.6300593e-04  -3.3028304e-04   1.5853693e-04  -3.3597826e-04  -2.5330455e-04   2.2455166e-05  -2.6384974e-04  -2.0045196e-04  -1.2841835e-04  -3.0854531e-04   6.9998896e-05   1.9909002e-04   4.2298257e-06  -1.4964577e-04  -8.5808053e-05   2.6045824e-04   3.9322558e-04   3.3608641e-04   3.7217044e-04  -4.0779127e-05   4.3618493e-05   2.4778996e-05   3.0078241e-05   1.3380982e-04   2.6579996e-04   3.0210405e-04   2.9716970e-04   3.5159569e-04   1.7456315e-04   3.9599300e-04   5.4287247e-04   3.9544376e-04   2.0567598e-04   6.5100676e-04   8.2609867e-04   2.9054072e-04  -3.3919170e-04   1.1293664e-04   4.1646665e-04   3.0067549e-04  -6.9916109e-04
  -3.4194253e-04   2.1261086e-04  -8.3937914e-05  -2.5152261e-04  -4.9598829e-04   3.8833029e-04   8.9772926e-05   9.0545567e-05   1.5744159e-04  -2.5469132e-04  -3.4972854e-04   1.3873308e-04  -3.4844881e-04  -2.6157129e-04  -1.1362726e-04  -2.3804432e-04  -1.9116400e-04  -1.3255110e-04  -3.5294943e-04   5.4861561e-05   1.8998153e-04   1.5723302e-04  -1.9239678e-04   2.2268506e-04   1.6806433e-06   5.8650639e-04   3.4127876e-04   3.9731932e-04  -7.0323418e-05   6.4510743e-05  -2.0406409e-07   1.1414127e-05   1.1659825e-04   2.9338180e-04   3.2886531e-04   3.6694706e-04   3.3238478e-04   1.8362116e-04   3.5164179e-04   4.9649744e-04   3.9086791e-04   1.7593140e-04   3.4943028e-04   8.3113700e-04   2.3729155e-04  -5.8864796e-04   5.6013749e-05  -1.3639827e-04   4.2884672e-04  -6.6989334e-04
  -3.0006486e-04   1.9882078e-04  -5.1042709e-05  -2.5592963e-04  -4.7850184e-04   4.0585993e-04   9.0378526e-05   8.1961603e-05   2.9861569e-04  -2.5978533e-04  -3.2679786e-04   1.7597414e-04  -3.3557665e-04  -2.4902713e-04  -1.8524412e-05  -2.1429767e-04  -1.4361431e-04  -1.7232777e-04   3.0911498e-05   1.2559751e-04   2.9281288e-04   6.3044026e-05   2.9771987e-04   3.3095269e-04   6.3008156e-05   5.8584922e-04   2.1799562e-04   3.5198106e-04  -1.6306453e-04   4.9481634e-05   1.5837385e-04   7.1549577e-05   3.9724732e-04   3.0099528e-04   3.9348929e-04   3.8344000e-04   3.3711112e-04   1.9818573e-04   3.4533680e-04   4.7000544e-04   3.0440476e-04   2.7612777e-04   4.1722998e-04   5.6121778e-04   4.0631759e-04  -3.9470216e-04   1.4121225e-04   9.0250105e-05   4.3713703e-04  -6.0367020e-04
  -2.7094799e-04   1.9901653e-04  -6.2885840e-05  -2.2016361e-04  -4.3768529e-04   3.9037576e-04   2.8218788e-05   1.1506760e-04  -1.6517139e-05  -2.5629907e-04  -3.0699439e-04   2.2943197e-04  -3.1281161e-04  -2.6979885e-04  -5.9627651e-05  -2.5422010e-04  -1.6272831e-04  -1.3745808e-04   2.2886644e-04   1.0761843e-04   2.9971497e-04   7.1203227e-05  -7.5398333e-05  -3.1850275e-04   1.8150218e-04   5.0576334e-04   3.1628244e-04   2.3369663e-04  -6.4728585e-05   4.5789217e-05   9.9633711e-05   1.2585479e-04  -1.9446741e-04   2.7940780e-04   4.0533135e-04   2.9201619e-04   2.8671333e-04   1.9643913e-04   4.1649034e-04   4.5730817e-04   3.0987844e-04   2.7821318e-04   2.8772937e-04   1.3093691e-03   2.1350403e-04  -7.1788928e-04   1.4171372e-04  -1.5997516e-04   1.4639187e-04  -6.3606945e-04
  -3.3327818e-04   2.2704828e-04  -1.0714449e-04  -1.9815269e-04  -4.4781365e-04   3.1623559e-04   9.1386792e-05   6.6140215e-05   9.5571333e-05  -2.5304436e-04  -3.3338185e-04   1.8658819e-04  -3.1740093e-04  -2.5346421e-04  -6.7305671e-05  -2.4439531e-04  -1.6272960e-04  -1.7745153e-04  -2.8694081e-04   6.6792541e-05   2.4642472e-04   5.6647474e-05   6.8199370e-05  -1.6684248e-04   1.2385927e-04   4.0342516e-04   2.8566708e-04   3.6884870e-04  -9.4734562e-05   6.2592007e-05   1.5577098e-04   1.0291962e-04   2.8718455e-04   2.9982621e-04   3.0755586e-04   2.0456793e-04   3.5737848e-04   2.2990332e-04   3.7157803e-04   6.4586086e-04   3.5389641e-04   2.0903778e-04   6.2083884e-04   8.9252461e-04   5.4804049e-04  -3.5985190e-04   1.1005365e-04   4.4888067e-05   3.0489246e-04  -6.0240302e-04
  -1.8035919e-04   2.1284306e-04  -6.9809998e-05  -1.2909542e-04  -4.5398803e-04   4.1869289e-04   1.6045831e-04   9.3756338e-05   9.2610018e-05  -2.5916033e-04  -3.0189578e-04   2.1188977e-04  -3.1629158e-04  -2.4758649e-04   2.7920914e-05  -2.3105917e-04  -1.5319310e-04  -1.6891526e-04  -6.4063228e-05   8.8189168e-05   2.6255960e-04   1.3364034e-04  -7.5156124e-05   1.3523838e-04  -1.8754795e-04   4.7801147e-04   3.1821936e-04   2.7468844e-04  -1.6381241e-04   4.0845673e-05   1.0295001e-04   1.0904607e-04   5.8938299e-06   2.8125214e-04   3.1510927e-04   2.9710267e-04   3.1795309e-04   1.7756174e-04   3.7629617e-04   4.9903383e-04   3.7725957e-04   3.6207651e-04   3.1166943e-05   1.1514759e-03   5.3795247e-04  -1.3135999e-04   1.3727382e-04   2.7141921e-04   4.1380682e-04  -6.3734734e-04
  -2.9816770e-04   2.1641710e-04  -1.1947258e-04  -2.0623278e-04  -4.5652199e-04   3.8693906e-04   1.4670240e-04   6.4019754e-05   1.0201395e-04  -2.6471549e-04  -3.0431486e-04   2.1719626e-04  -3.2336282e-04  -2.4598016e-04  -6.7082910e-05  -2.3525591e-04  -1.8122069e-04  -1.9474897e-04  -3.1023572e-04   6.6393935e-05   2.2034225e-04   1.4508967e-04   1.9647050e-04   2.3208971e-05   2.8186259e-04   5.7319860e-04   2.5831445e-04   3.1039136e-04  -1.2770691e-04   4.8679438e-05   6.6376393e-05   1.7358639e-04   1.5540756e-04   2.9524026e-04   3.9694548e-04   2.4190289e-04   3.3452769e-04   1.8929943e-04   3.7577547e-04   5.1751459e-04   2.9565752e-04   2.5634488e-04   5.9229549e-04  -7.4155330e-05   4.3945023e-04  -3.9010236e-04   1.0339531e-04   2.2772871e-04   5.1534356e-04  -4.9246801e-04
  -2.9691149e-04   2.0595678e-04  -6.7374094e-05  -1.9076325e-04  -4.5286812e-04   3.5507642e-04   1.0750307e-04   1.4992541e-04   1.8141023e-04  -2.7032441e-04  -3.4062960e-04   1.5224460e-04  -3.2968592e-04  -2.7801178e-04  -2.6321817e-05  -2.1881220e-04  -1.5427623e-04  -1.5958518e-04   1.0307175e-04   2.0203786e-05   1.7241249e-04   1.6925795e-05  -2.7475538e-05   3.5775462e-04   1.6105229e-04   4.1227028e-04   3.5018107e-04   3.9407931e-04  -1.1161068e-04   6.5760651e-05   2.9649493e-05   9.6244672e-05   1.4707162e-04   3.3296301e-04   3.7022948e-04   3.7183802e-04   2.8687390e-04   2.0220829e-04   4.2616966e-04   3.5311151e-04   3.4682092e-04   2.8337358e-04   2.0244351e-04   1.6306258e-03   1.8898798e-05  -3.4268422e-04   1.0007755e-04  -4.2751944e-06   2.0906501e-04  -5.3242926e-04
  -3.6386654e-04   2.2385345e-04   2.3355644e-05  -1.3592467e-04  -4.7970301e-04   4.1533614e-04   8.4027561e-05  -3.9831766e-06   4.4696710e-05  -2.5573195e-04  -3.6483727e-04   2.3797556e-04  -2.8294796e-04  -2.7962722e-04  -1.0316751e-05  -2.3850484e-04  -1.9285594e-04  -1.2908208e-04  -1.4951598e-04   1.9128996e-05   2.0742393e-04   1.2834786e-04   3.9894931e-05   2.0791197e-04  -4.9364060e-04   5.6395965e-04   2.7483856e-04   2.3588177e-04  -1.9969929e-04   3.2467138e-05  -1.6030559e-05   1.4347614e-04  -2.2671504e-05   3.5783992e-04   3.4875324e-04   3.1368175e-04   3.4913616e-04   1.8390373e-04   3.4858627e-04   5.7719322e-04   3.7370116e-04   1.2365772e-04   2.8299351e-04   8.8490330e-04   2.8798575e-04  -4.8294629e-04   1.4121487e-04  -1.4291581e-04   5.0686271e-04  -6.9911516e-04
  -2.4742534e-04   1.9099830e-04  -1.0291130e-04  -1.8300556e-04  -5.1952881e-04   4.1531696e-04   9.3470655e-05   8.0975915e-05   1.2712223e-04  -2.6081290e-04  -3.6577400e-04   1.8262235e-04  -3.3638254e-04  -3.0387336e-04  -3.7678485e-05  -2.2204690e-04  -1.8949258e-04  -1.8580635e-04  -5.2845030e-04   1.8306680e-05   1.7454386e-04   2.7728473e-05   1.2019467e-04   1.3076661e-04  -3.0068109e-05   4.7503508e-04   2.3732030e-04   2.7351707e-04  -2.1470834e-04   3.3265311e-05   8.0937898e-06   7.6889926e-05  -1.0691606e-04   3.5553717e-04   3.2514782e-04   3.2654862e-04   2.7143076e-04   2.1194716e-04   3.7077229e-04   6.2971556e-04   3.7873420e-04   2.8237447e-04   2.4163566e-04   1.7182990e-04   2.3164650e-04  -4.3818259e-04   1.4825149e-04   7.4390693e-05   1.0503553e-04  -7.6766242e-04
  -1.4517111e-04   2.5893954e-04  -1.1955242e-04  -2.1059974e-04  -4.7526063e-04   4.5775081e-04   1.4519290e-04  -3.5030385e-05   2.6941599e-04  -2.9885196e-04  -3.5558009e-04   1.7472803e-04  -3.8358796e-04  -3.5790590e-04  -9.7635566e-05  -1.8007061e-04  -1.6610060e-04  -1.6715784e-04  -2.0234531e-04  -2.4027413e-05   1.1582111e-04   3.1521395e-05  -1.2434504e-04  -4.7727092e-04   2.0226906e-04   5.2328710e-04   3.3585625e-04   2.8149190e-04  -2.4686069e-05   2.0828400e-05   1.3199910e-05   4.8824510e-05  -2.9908915e-05   3.1602374e-04   4.0416379e-04   2.7287719e-04   3.1338719e-04   2.2077933e-04   3.4229239e-04   4.2538019e-04   2.9778766e-04   2.1622762e-04   1.5544571e-04   2.3739073e-04   2.3942170e-04  -5.4910168e-04   6.7701309e-05   1.4063985e-04   5.9610153e-05  -8.8441343e-04
  -2.7520728e-04   2.5668988e-04  -2.2269483e-05  -2.4237391e-04  -4.7243605e-04   4.0466161e-04   9.0242116e-05   5.7021953e-05   2.1623584e-04  -2.8170308e-04  -2.5844411e-04   2.6146148e-04  -3.5770744e-04  -3.5963190e-04   7.2053554e-06  -2.2971007e-04  -1.3675781e-04  -1.2022292e-04  -2.6198369e-04   3.2392953e-05   2.1605683e-04   1.1919353e-04  -6.8942863e-05   5.7789416e-04   2.6035379e-04   6.1008031e-04   2.6342800e-04   1.0946719e-04  -2.7407851e-04   3.2614662e-07   4.7493191e-05  -3.5250872e-05   4.9267135e-05   3.9389313e-04   2.9094444e-04   3.5793861e-04   2.5028214e-04   1.8279816e-04   3.3809271e-04   4.8531004e-04   2.5337446e-04   2.1537322e-04  -4.9711023e-05   3.8517575e-04   2.4683756e-04  -7.5979339e-04   2.9396160e-05   5.9763835e-05  -2.0812893e-04  -9.1825222e-04
  -2.0502580e-04   2.4428571e-04  -5.2095336e-05  -2.0481001e-04  -5.1013927e-04   2.6924146e-04  -5.6534154e-06   6.1299681e-05   1.5413937e-04  -2.9309772e-04  -2.3134895e-04   2.5483980e-04  -2.9662508e-04  -2.7731006e-04   6.9531256e-06  -2.4880876e-04  -1.1414428e-04  -1.3020640e-04  -3.9168843e-04   8.2820872e-05   1.5638543e-04   3.0163783e-05   1.6462318e-04  -5.9423596e-04   5.5604981e-04   5.0812261e-04   2.7591072e-04   2.9556910e-04  -1.5531559e-04   5.5525274e-05   7.9734171e-05   6.0429400e-05   2.4979486e-04   3.2826411e-04   3.2863961e-04   2.6261961e-04   2.6310922e-04   1.9349602e-04   3.4597688e-04   3.3446396e-04   2.8111355e-04   8.3279643e-05   2.8401331e-04  -9.5855081e-05   3.2489593e-04  -4.8198152e-04   2.0161146e-05  -4.2405745e-04   6.1945182e-05  -1.0318686e-03
  -2.5357239e-04   2.4642918e-04  -2.4149907e-04  -2.3271465e-04  -4.6418287e-04   3.5327495e-04   5.1834464e-05   4.1401279e-05   2.2447495e-04  -3.4236792e-04  -2.6279889e-04   2.3641935e-04  -3.5090666e-04  -3.1548450e-04  -5.6945642e-05  -2.3037779e-04  -9.8418896e-05  -1.2455121e-04  -5.8283960e-04   9.3301780e-05   1.4959995e-04   5.2855594e-05   1.6384471e-06  -5.5953307e-04   3.3761188e-04   4.6060415e-04   2.8674569e-04   3.9740177e-04  -5.6032630e-05   7.2871189e-05   5.8627949e-05   1.1994955e-04   6.6422152e-05   3.3013060e-04   4.6440883e-04   2.7384111e-04   3.1766907e-04   2.2385929e-04   3.5611444e-04   7.9720136e-04   1.9905403e-04   9.5643838e-05   3.4283272e-05  -2.3465269e-04   3.9818496e-04  -6.1209814e-04   5.3302683e-05  -9.1008440e-04  -4.9529859e-05  -1.0052294e-03
  -3.6448101e-04   2.5173073e-04  -9.0289519e-05  -1.4962423e-04  -4.7197202e-04   3.1569775e-04   1.2348209e-05   1.1091803e-04   7.1138806e-05  -3.2951951e-04  -2.2526149e-04   2.7270053e-04  -3.4387023e-04  -2.6712043e-04  -2.1187559e-05  -2.2628412e-04  -1.0259946e-04  -1.1768816e-04  -7.4069394e-05   7.2338611e-05   2.0643516e-04   6.2244137e-05   2.0154499e-04   1.6359014e-04  -2.3131719e-04   4.4601032e-04   2.4098714e-04   2.5698592e-04  -8.1275750e-05   4.9347174e-05   7.3368486e-05   8.1353450e-05   7.0258517e-05   3.6743958e-04   4.7808906e-04   3.2946232e-04   2.9262548e-04   2.2663450e-04   3.7768806e-04   6.7596941e-04   2.9171444e-04   4.3955963e-05   8.4084990e-05  -3.2321585e-04   1.6882726e-04  -5.9708511e-04  -2.6092746e-07  -2.5083564e-04   6.9579990e-05  -9.0470409e-04
  -3.3954196e-04   2.3248384e-04  -6.7415053e-06  -2.0492918e-04  -4.1372416e-04   3.1022835e-04   9.5165560e-05   6.5324319e-05   2.9639430e-05  -3.5878489e-04  -2.4105706e-04   2.4539436e-04  -2.9746251e-04  -2.6933663e-04   1.4103409e-05  -2.5451207e-04  -9.2220471e-05  -1.2450419e-04  -3.8500645e-04   9.6683791e-05   1.6954275e-04   7.9494657e-06   8.1125609e-07   3.3437990e-04   4.0218301e-04   4.0844348e-04   2.8627439e-04   3.6557618e-04  -1.9206005e-04   6.6107677e-05   2.2366947e-04   8.6094602e-05   1.9466871e-04   3.6743915e-04   3.4417247e-04   3.1909699e-04   3.6018575e-04   2.5393270e-04   3.5411908e-04   3.5177884e-04   1.4167315e-04   1.8593193e-04   2.3709246e-04   1.9204164e-04   2.6741782e-05  -6.5733085e-04  -1.8370361e-05  -2.4367249e-05  -1.8114150e-04  -1.0129557e-03
  -2.6634955e-04   2.2642966e-04  -1.2901361e-04  -1.7871465e-04  -4.8175018e-04   2.5170075e-04   7.9958125e-05   1.2585003e-04   1.8509993e-04  -3.8610568e-04  -2.1103870e-04   2.2916660e-04  -3.3811279e-04  -2.7361015e-04   5.3371878e-05  -2.6739450e-04  -9.6748729e-05  -1.6375982e-04   2.2618095e-05   1.1013934e-04   1.9122272e-04   1.7474480e-04   2.7368122e-04   1.4762569e-04   1.7244254e-04   4.9488572e-04   2.8480598e-04   3.6256056e-04  -1.1180205e-04   8.8011366e-05   2.3549508e-04   4.9974198e-05   1.3804463e-04   2.9360430e-04   3.4275677e-04   2.9147620e-04   3.1390646e-04   2.4345376e-04   3.7665022e-04   4.0175940e-04   2.7916627e-04   2.2359395e-04  -1.7259728e-04   1.5942303e-03   1.2891844e-04  -7.6201302e-04  -4.8042129e-06  -2.3460690e-05   2.2869100e-04  -1.0303581e-03
  -4.0110361e-04   2.3993525e-04  -2.6440600e-04  -1.1431183e-04  -4.4559449e-04   3.1606239e-04   8.0085745e-05   1.1978416e-04   1.7994011e-04  -4.1337384e-04  -2.3959148e-04   2.9182414e-04  -3.4025227e-04  -2.6522909e-04   9.6057585e-05  -2.6471683e-04  -1.0999453e-04  -1.4848118e-04   1.9740124e-04   8.1965518e-05   2.0023616e-04   2.0197546e-04  -8.8193206e-05   2.0690008e-04  -1.8835979e-04   7.0812181e-04   2.5583050e-04   2.9673745e-04  -1.6269721e-04   6.0349561e-05   9.3816932e-05  -6.4822721e-05   8.3915074e-05   4.0841647e-04   4.2947076e-04   2.7402383e-04   3.6598087e-04   2.2438874e-04   4.3929831e-04   5.5245910e-04   2.6535633e-04   1.8047314e-04  -2.3254950e-04   1.1977399e-03   1.9714280e-04  -5.6826539e-04  -2.4306089e-05  -3.9327686e-04  -8.6374603e-05  -9.1428030e-04
  -5.1931117e-04   1.9067754e-04  -2.8604103e-04  -2.8904107e-05  -4.0665467e-04   7.6934701e-04   3.3037970e-04   1.1110026e-04   4.1298589e-04  -1.8973954e-04  -8.4693293e-04   3.8847199e-04  -7.6648372e-04  -6.9644471e-04  -2.1062046e-04  -2.1169853e-04  -6.2895898e-04  -5.4472854e-05  -3.6994423e-04  -7.1928342e-04  -2.1590578e-04   2.8744980e-04  -6.5136366e-05   2.4146108e-04   2.7077793e-04   1.1222759e-03   5.7295279e-04   1.4990805e-04  -2.8298207e-05   1.0306161e-04   5.7533093e-06  -2.2176241e-04  -2.1838849e-04   9.3918690e-04   3.7969634e-04   7.2895305e-04   5.9439748e-04   2.6256140e-04   7.7427860e-04   8.9127274e-04   4.2080513e-04   2.2333434e-04   3.9564955e-04   3.7026295e-04   5.4778409e-04  -1.0678604e-03   1.6122067e-05  -8.8987894e-05   1.5683239e-04  -8.6518424e-04
  -8.7451848e-04   6.9529291e-05  -4.4563647e-05   3.2132106e-05  -4.8885337e-04   1.2665302e-03   4.9664563e-04   7.2968869e-05   6.4417662e-04  -7.5400261e-05  -1.1879778e-03   4.8606956e-04  -9.8864990e-04  -8.4210664e-04  -5.1919796e-04  -2.2670010e-05  -8.0479559e-04   4.4631681e-05  -5.6497357e-04  -9.3984819e-04  -2.8656848e-04   3.9252118e-04   3.7765982e-05  -2.3107009e-04   2.8916812e-04   1.0802703e-03   5.3141866e-04   1.4810331e-04   1.5542548e-04   2.1683962e-05  -5.9389949e-05  -2.2352804e-05  -4.7411249e-05   1.0781359e-03   3.0239628e-04   8.3875220e-04   6.3652312e-04   2.8856573e-04   7.6758809e-04   1.2737002e-03   5.8047788e-04   3.6811471e-04   8.3413126e-04   3.4853589e-04   6.1993027e-04  -1.1958057e-03   1.1013435e-04  -1.3880219e-04   3.2831912e-04  -7.8444951e-04
  -1.1528212e-03  -9.8545770e-06   1.2688987e-05  -1.4039899e-05  -4.8453876e-04   1.2725684e-03   5.0289504e-04   4.4973021e-05   6.2613288e-04  -1.1780132e-04  -1.2409675e-03   3.3542234e-04  -1.0671598e-03  -8.7388523e-04  -6.2990317e-04  -7.4593285e-05  -9.0962608e-04  -3.0561885e-05  -8.5657166e-04  -9.7741198e-04  -2.9029217e-04   3.2276695e-04  -3.4997847e-05  -5.7015088e-05   1.4742011e-04   8.9953624e-04   4.6410519e-04   2.2198439e-04   1.4655497e-05   4.0703220e-05   8.2274419e-06  -8.9360101e-06   2.1867393e-04   1.0503317e-03   2.5027184e-04   7.9525268e-04   6.4828160e-04   2.4035912e-04   7.1751943e-04   1.1607992e-03   4.5340508e-04   4.7118281e-04   6.3136115e-04   4.0269966e-04  -3.2086398e-05  -1.2755948e-03   9.2003873e-05   1.2189483e-04   8.2170634e-05  -9.2202821e-04
  -1.1085683e-03   1.6843802e-05  -4.8101392e-05   6.7066412e-06  -5.6057790e-04   1.2567812e-03   4.5944008e-04   1.6054352e-04   7.5931725e-04  -1.2738476e-04  -1.2222608e-03   3.9575429e-04  -1.0558777e-03  -8.8781101e-04  -5.4915511e-04  -1.3491030e-04  -9.3185034e-04   2.8194359e-05  -1.2419627e-04  -9.6181268e-04  -1.8992943e-04   4.1338865e-04   1.0378704e-04  -4.0158589e-04  -6.2993553e-05   1.1365126e-03   4.8911857e-04  -3.2282398e-05   2.3641483e-05   7.1253407e-06  -2.1763406e-04  -1.5798896e-04  -5.3455158e-05   1.0225213e-03   3.5322821e-04   8.3621748e-04   5.4621592e-04   2.0791939e-04   6.4202223e-04   1.1335553e-03   5.7259155e-04   4.1728985e-04   6.1686442e-04   1.7221422e-03   4.4976635e-04  -1.0907818e-03   1.5966429e-05   2.0268151e-04   1.0534012e-04  -6.6513760e-04
  -1.1076590e-03  -9.0376498e-06  -2.5607008e-04  -1.2027777e-04  -5.6900736e-04   1.1186326e-03   3.8294977e-04   2.5376834e-05   6.0585461e-04  -3.3473718e-04  -1.2251862e-03   3.1818799e-04  -9.3127863e-04  -8.1891409e-04  -4.2817998e-04  -2.8975334e-04  -9.2825759e-04  -4.7812802e-05  -2.5112543e-04  -8.8073110e-04  -3.1452480e-04   2.3907074e-04  -3.6797521e-04  -3.6665262e-04   1.6083205e-04   1.1505446e-03   4.1124783e-04   1.6782375e-04  -6.0677965e-05   1.2402548e-05  -2.6796243e-04  -1.8165540e-04   1.6695221e-05   7.3426659e-04   3.0394652e-04   5.4243969e-04   4.0351070e-04   1.6481620e-04   5.6522700e-04   7.5668644e-04   4.4466197e-04   2.1774096e-04   4.3235012e-04  -2.0356337e-04   8.0327016e-05  -7.5135159e-04   7.3589690e-05  -2.5770586e-04   1.5714587e-04  -6.7818677e-04
  -9.6555037e-04  -1.0561284e-05  -4.2185420e-04  -2.3184059e-04  -6.1696931e-04   7.2496297e-04   2.1796455e-04   9.9182573e-05   5.4102084e-06  -4.5737089e-04  -9.2077989e-04   1.8045511e-04  -7.3504791e-04  -6.5705908e-04  -1.9462989e-04  -4.5336960e-04  -8.2055788e-04  -2.2813001e-04  -3.3853759e-04  -6.2226411e-04  -2.9198232e-04   2.8615806e-04  -3.0591321e-04  -2.2860574e-04   2.6062160e-04   6.4556825e-04   3.2899776e-04   3.7368611e-04  -9.3273367e-05   8.1430408e-05  -7.0105712e-06  -1.9767688e-04  -9.0477814e-05   6.0738582e-04   2.8741281e-04   3.4166712e-04   3.0238798e-04   1.5831270e-04   5.2974134e-04   6.9665653e-04   3.0876815e-04   2.0688032e-04   5.2995369e-04   4.6228219e-04   1.2104221e-04  -3.8271787e-04   9.7254837e-05   2.3770555e-04   2.1117013e-04  -5.1113858e-04
  -7.6105550e-04  -7.7393655e-05  -2.7648051e-04  -2.4405360e-04  -5.7820644e-04   5.6973944e-04   2.4849339e-04  -3.1924097e-05  -3.3751596e-04  -4.2614542e-04  -7.5652677e-04   3.9602886e-04  -5.9309020e-04  -5.2943372e-04  -5.4291737e-05  -4.7511529e-04  -7.8223768e-04  -2.1201266e-04  -1.2305149e-04  -5.4621376e-04  -3.0861530e-04   2.4880006e-04  -2.1420333e-04  -1.2175123e-04  -1.3837270e-05   5.9174479e-04   4.3496332e-04   4.2636789e-04  -2.0690556e-04   9.2124108e-05  -1.3343172e-04  -2.0961821e-04   3.7697301e-04   5.6640164e-04   3.4224999e-04   3.9397102e-04   2.9609981e-04   1.6874347e-04   4.2912428e-04   8.5958495e-04   3.4538272e-04   2.3601914e-04   3.8163728e-04   1.3780599e-03   1.6841227e-04  -4.4483881e-04   8.9293411e-05  -3.7719536e-05   1.4610404e-04  -6.2022411e-04
  -8.3128928e-04  -6.8300724e-05  -4.9955660e-04  -1.6639284e-04  -6.2867085e-04   4.7649778e-04   1.7499668e-04   1.8453278e-05  -2.8854943e-04  -3.5693633e-04  -6.7696616e-04   4.6693246e-04  -5.3010025e-04  -4.8457179e-04  -6.7359353e-05  -5.2087876e-04  -7.3714525e-04  -2.1600910e-04  -3.6571684e-04  -4.5543729e-04  -2.8197057e-04   2.0279300e-04   2.2939008e-04  -8.1629369e-05   2.4509715e-04   6.1306328e-04   3.2039636e-04   4.8081076e-04  -1.9722476e-04   8.7590139e-05  -9.2355704e-06  -3.2141339e-04   1.9754252e-05   5.0152786e-04   3.5240001e-04   2.9174078e-04   2.8267127e-04   1.8169354e-04   4.7201919e-04   6.4145360e-04   3.4497751e-04   2.6755958e-04   8.0544101e-05   1.3296834e-04   2.3468833e-04  -2.7719527e-04   9.2509741e-05  -3.1160694e-04   1.7107058e-04  -6.5052899e-04
  -6.8179268e-04  -1.0856154e-04  -3.3821689e-04  -1.8426572e-04  -5.8285607e-04   4.9415824e-04   1.5250925e-04   5.3968750e-05  -4.1173591e-04  -3.1760609e-04  -6.3329987e-04   4.4077393e-04  -5.0316518e-04  -4.3725301e-04   3.9970801e-05  -5.5824377e-04  -6.9693482e-04  -2.2152612e-04  -2.8450508e-04  -4.4158689e-04  -3.4728413e-04   1.4610210e-04   6.7653935e-05   5.0078303e-04  -2.2954002e-04   3.3915378e-04   4.5599666e-04   6.9052697e-04  -1.8310573e-04   1.6182054e-04  -5.6163193e-05  -2.7214905e-04   1.6574684e-04   4.5919657e-04   3.8823049e-04   1.7468703e-04   3.4947981e-04   1.9946383e-04   4.5958496e-04   7.2940270e-04   4.1748301e-04   2.9274696e-04   9.9275181e-05   1.3902913e-03   5.0367590e-04  -2.7479581e-04   2.1829156e-04   1.5305633e-04   1.6039549e-04  -6.6108495e-04
  -7.3612697e-04  -1.2619357e-04  -3.7633628e-04  -1.6736910e-04  -5.9900311e-04   4.8119290e-04   2.2181668e-04  -2.4312292e-06  -4.0171226e-04  -2.7877351e-04  -6.2922575e-04   5.0006248e-04  -4.4429523e-04  -4.5879808e-04   1.0376736e-04  -5.2485510e-04  -7.3050667e-04  -2.2039932e-04  -1.9599657e-04  -4.8294343e-04  -3.6494181e-04   2.1407101e-04  -1.1716562e-05  -3.5520698e-04  -1.6373523e-04   5.1302905e-04   3.6129198e-04   7.1876857e-04  -2.1825841e-04   1.7392286e-04  -5.1387557e-05  -2.0949087e-04  -7.3048570e-05   4.8990041e-04   4.6562869e-04   2.6253232e-04   3.4859389e-04   1.9559548e-04   4.3211618e-04   5.4430665e-04   4.8728089e-04   5.0145126e-04   5.6026888e-04   8.8821672e-04   4.3499414e-04  -3.1859631e-04   3.6001249e-04   6.1683648e-04   2.1504299e-04  -3.7606648e-04
  -7.5876253e-04  -1.3512655e-04  -3.8344093e-04  -2.4228351e-04  -6.2329043e-04   4.4681935e-04   1.5903445e-04  -3.9713123e-07  -4.1413409e-04  -1.8202407e-04  -5.6659250e-04   6.6881650e-04  -4.2121767e-04  -3.7448358e-04   7.6279888e-05  -5.1744137e-04  -7.8265264e-04  -2.4438466e-04  -3.0931566e-04  -4.5948193e-04  -3.8284162e-04   2.2600054e-04  -3.9153598e-04   3.8460962e-04  -1.7767624e-04   6.0067396e-04   3.8128020e-04   4.7433143e-04  -3.7690988e-04   1.7515944e-04   1.0050551e-05  -2.8264863e-04   1.1705940e-04   5.7312223e-04   3.4825344e-04   2.5328150e-04   3.1891576e-04   1.7952416e-04   4.5857567e-04   7.6223077e-04   5.3203304e-04   4.7904416e-04   4.0636014e-04   1.4072450e-04   5.5696216e-04  -1.8890320e-04   3.8630937e-04   3.1110740e-04   2.2461684e-04  -2.9512719e-04
  -6.0344290e-04  -1.3087635e-04  -3.4735681e-04  -2.0369866e-04  -6.5073493e-04   4.3989619e-04   2.1070715e-04   2.5713040e-05  -3.1734159e-04  -1.5928407e-04  -5.4858928e-04   6.5219274e-04  -3.6890770e-04  -4.0515891e-04   1.3154607e-04  -5.3950289e-04  -7.4733683e-04  -1.9786181e-04  -2.7587706e-05  -4.4246184e-04  -3.6001718e-04   2.2697312e-04   9.8101867e-05   6.7415618e-05   3.6834157e-04   4.4774162e-04   3.0759186e-04   5.4752390e-04  -1.7179189e-04   1.6628073e-04  -6.3666979e-05  -1.6892541e-04   8.7996654e-05   4.6287986e-04   3.3992334e-04   3.4282135e-04   2.9967661e-04   1.7981943e-04   4.3831879e-04   7.6537166e-04   4.7499235e-04   4.6617287e-04   2.8001424e-04   8.7776297e-04   4.9905345e-04  -2.4714280e-04   2.5265157e-04   9.9192432e-05   3.7514232e-04  -4.0408588e-04
  -5.4408464e-04  -1.1139936e-04  -4.5333296e-04  -2.4650406e-04  -6.1358436e-04   3.8801489e-04   1.0609878e-04   8.1298858e-05  -2.9714039e-04  -1.2860223e-04  -5.0118967e-04   4.7595988e-04  -3.6375911e-04  -3.9470062e-04   1.3556945e-04  -5.3369673e-04  -7.2548492e-04  -2.3267879e-04   1.5700387e-05  -4.0162681e-04  -3.2411731e-04   3.1008091e-04   2.3406259e-04  -8.5955464e-05   2.5809242e-04   4.8336864e-04   4.2469153e-04   6.2238175e-04  -1.2415228e-04   1.9531744e-04  -7.4587027e-05  -2.3551736e-04   9.6442920e-05   4.6947956e-04   3.7457002e-04   3.3886498e-04   3.5925876e-04   1.6097007e-04   4.3826047e-04   5.5367715e-04   5.1862712e-04   3.6483168e-04   1.0031979e-04   4.3492534e-04   1.9349977e-04  -2.1615736e-04   3.6851509e-04   1.0772610e-04  -3.7120222e-05  -3.9821010e-04
  -7.3607656e-04  -1.2839251e-04  -4.4900170e-04  -2.9007904e-04  -6.0241378e-04   4.8234273e-04   1.4231577e-04   5.4398704e-05  -3.0375621e-04  -1.4077591e-04  -5.3176162e-04   4.7851671e-04  -3.7676279e-04  -4.0759577e-04   1.3100616e-04  -5.1436311e-04  -7.8602479e-04  -2.1836099e-04  -6.7364567e-06  -4.5925449e-04  -3.5693325e-04   2.2159229e-04  -1.6355561e-04  -7.2058698e-04   2.0734087e-05   3.5218208e-04   3.6875712e-04   6.5246737e-04  -2.2954638e-04   2.0850023e-04  -8.6319968e-05  -1.7480075e-04  -7.1530776e-05   4.8933638e-04   3.8919132e-04   3.5670993e-04   3.4553756e-04   2.0483017e-04   4.1904274e-04   6.2724069e-04   5.0236570e-04   4.1153439e-04   3.4032704e-04   2.3524383e-04   2.3691071e-04   6.1529718e-05   4.0748256e-04   1.3184962e-04   1.7082007e-04  -2.3721148e-04
  -6.8257126e-04  -1.2877821e-04  -5.0538889e-04  -2.5775685e-04  -6.7356077e-04   4.7339723e-04   2.0422602e-04   2.0903735e-05  -3.0029373e-04  -1.3098754e-04  -5.4397021e-04   5.4545741e-04  -3.7042669e-04  -3.5167017e-04   1.3202601e-04  -5.1086606e-04  -7.7711418e-04  -2.4742345e-04  -1.7204104e-05  -4.8189022e-04  -3.2487349e-04   2.0296630e-04   1.0811032e-04  -2.4732421e-04  -2.0871738e-04   4.8499153e-04   3.7929928e-04   5.7255430e-04  -2.0954735e-04   2.0240078e-04  -1.0264204e-04  -2.5266275e-04  -1.1916703e-05   5.3455040e-04   4.8386957e-04   3.2979724e-04   4.0597786e-04   1.9752354e-04   4.5750299e-04   7.3193602e-04   5.8047491e-04   4.6301406e-04   2.8788927e-04   1.2809434e-03   6.7416427e-04  -1.1119062e-04   4.4575892e-04   4.2826423e-04   2.9225531e-04  -1.8446773e-04
  -6.3591078e-04  -1.1909096e-04  -4.5093356e-04  -2.1933657e-04  -6.0542399e-04   4.9743493e-04   1.2416640e-04  -4.5566805e-05  -2.7061455e-04  -1.3612783e-04  -5.7227776e-04   5.9764815e-04  -3.5625588e-04  -3.3390988e-04   1.3444426e-05  -5.3295569e-04  -7.3689956e-04  -2.2009216e-04   1.0910640e-04  -4.3879569e-04  -3.5948274e-04   1.5621542e-04   2.0110941e-05  -4.1854035e-04   2.1124474e-04   5.9385330e-04   3.3014797e-04   6.5329584e-04  -2.6092672e-04   2.0713375e-04  -4.7052340e-06  -2.8459751e-04   1.6976174e-04   5.2012817e-04   3.3390196e-04   3.1714031e-04   4.4518421e-04   1.9090035e-04   4.6811526e-04   7.0913113e-04   5.4205710e-04   7.0940721e-04   7.5003010e-04   1.2380187e-03   9.9039217e-04  -1.9481112e-04   5.1140343e-04  -1.5888778e-04   2.0000072e-04  -9.3349467e-05
  -6.8887015e-04  -1.2033660e-04  -4.2558013e-04  -2.4201199e-04  -6.4539904e-04   4.8149304e-04   1.6300500e-04   7.4681930e-06  -2.8676429e-04  -1.3131958e-04  -5.5715727e-04   5.9385196e-04  -3.5337833e-04  -3.4102704e-04   9.7055978e-05  -5.2278698e-04  -7.3521142e-04  -2.1384285e-04   9.5192714e-05  -4.7274673e-04  -3.7998063e-04   3.4251489e-04   6.1048617e-05  -9.5419731e-05  -1.2053434e-04   6.4389803e-04   4.0070925e-04   7.2876393e-04  -2.1815850e-04   2.3296212e-04  -1.1136170e-04  -1.3590723e-04   2.9852778e-05   4.9897190e-04   4.0350753e-04   3.1148185e-04   4.0958723e-04   2.2968985e-04   4.7886209e-04   9.0371474e-04   6.1804883e-04   7.2520407e-04   3.4805480e-04   4.7210342e-04   8.4605062e-04  -2.9985240e-05   4.4708434e-04   4.6530835e-04   4.5672752e-04  -3.1577394e-04
  -5.1112362e-04  -1.1848936e-04  -4.8253982e-04  -2.2363273e-04  -6.8060722e-04   4.7224425e-04   1.4834835e-04  -5.6758065e-05  -3.0437150e-04  -1.4701471e-04  -5.4184545e-04   5.5098749e-04  -3.3524493e-04  -3.1128229e-04   1.1575624e-04  -5.3148897e-04  -6.9905212e-04  -1.7365310e-04  -1.0871197e-04  -4.4708906e-04  -3.5264407e-04   2.4357022e-04   2.8214397e-04   1.0018274e-04  -3.6571053e-04   4.1131835e-04   3.8252471e-04   7.3001982e-04  -1.8357864e-04   2.3066075e-04  -1.9205514e-05  -1.4395750e-04   2.0824019e-04   4.8487334e-04   3.8943722e-04   3.8730624e-04   4.2095399e-04   2.4934989e-04   4.5661881e-04   7.1425014e-04   6.0290442e-04   7.3100062e-04   5.1407138e-04   1.3131729e-03   9.7898464e-04   9.9746750e-05   3.9796063e-04   5.0968857e-04   4.0824065e-04  -1.7614798e-04
  -5.8933435e-04  -8.0807658e-05  -2.9898624e-04  -1.4593595e-04  -6.3852174e-04   5.4418953e-04   1.7871588e-04  -4.9508613e-05  -2.4777907e-04  -1.4199692e-04  -5.1251263e-04   6.5754406e-04  -2.7820261e-04  -3.2458725e-04   1.4615264e-04  -5.3248811e-04  -6.9572520e-04  -1.7079012e-04   2.4148743e-04  -3.9284042e-04  -2.9538255e-04   3.5984296e-04   2.2021167e-04  -2.2563760e-04   5.0533999e-04   6.2959123e-04   4.2597490e-04   6.7579822e-04  -2.1065887e-04   2.1482629e-04  -3.5283520e-05  -1.1289127e-04   2.0234805e-04   5.2828173e-04   3.7973039e-04   3.8656060e-04   4.1284633e-04   2.3500300e-04   4.3747120e-04   8.4991660e-04   4.9463770e-04   4.7560505e-04   3.6684924e-04   8.4661017e-04   2.5314515e-04   1.3793720e-04   3.7815564e-04   3.2147748e-04   4.6872097e-04  -3.9504835e-04
  -5.3976371e-04  -7.9143778e-05  -4.3392723e-04  -1.8002097e-04  -6.5038755e-04   4.8061286e-04   2.0152998e-04   3.7176575e-05  -1.1891237e-04  -1.4456053e-04  -5.0360488e-04   5.9755665e-04  -2.5661814e-04  -2.9485830e-04   1.7396554e-04  -5.1029160e-04  -6.5681658e-04  -1.3944926e-04  -1.5848179e-04  -3.6396997e-04  -3.1372005e-04   3.4908677e-04   3.1226416e-04   8.2150691e-05  -2.6726641e-04   4.6863241e-04   4.2088787e-04   7.1154162e-04  -1.2503366e-04   2.0692826e-04  -9.3870898e-05  -9.0158217e-05   2.9371036e-04   5.0506165e-04   5.4953579e-04   2.5718354e-04   4.0980469e-04   2.2908083e-04   4.7345890e-04   5.6437775e-04   5.8669952e-04   6.0945144e-04   3.3659494e-04   1.1475413e-03   6.1133038e-04   8.6546694e-05   3.6506189e-04   2.8755219e-04   3.5091580e-04  -1.8027597e-04
  -5.6427240e-04  -7.6895165e-05  -3.2059677e-04  -1.8295924e-04  -6.2090094e-04   5.6340854e-04   2.3368426e-04   2.2286002e-05  -2.4235673e-04  -1.3310426e-04  -5.5999146e-04   5.8863917e-04  -2.3914067e-04  -3.0269436e-04   2.8545407e-04  -4.9044413e-04  -6.9164910e-04  -1.8526881e-04  -2.2138686e-04  -4.4985910e-04  -3.4787925e-04   2.7037016e-04  -4.5294608e-05   3.3090881e-05  -3.0326351e-04   2.8427172e-04   3.4387934e-04   7.5335894e-04  -1.6235451e-04   2.5008322e-04  -1.6096814e-05  -9.0351044e-05  -4.9746002e-05   5.4036267e-04   5.0976156e-04   3.8838224e-04   4.2629134e-04   2.6776880e-04   4.9285701e-04   5.4993061e-04   7.5914344e-04   7.3091959e-04   9.4853446e-04   8.8540849e-04   9.3506242e-04   3.8176501e-04   5.9611606e-04   4.4994784e-04   6.1549240e-04   1.0029037e-04
  -4.0545827e-04  -1.0140023e-04  -4.0981706e-04  -2.3412942e-04  -6.4480049e-04   4.8108966e-04   2.1485191e-04  -3.5009030e-05  -3.6262511e-04  -7.6410928e-05  -5.3989550e-04   6.8255857e-04  -2.4615042e-04  -3.0967261e-04   1.9883408e-04  -4.8334638e-04  -6.9909520e-04  -1.3103074e-04   1.4925425e-06  -3.7483187e-04  -3.2489924e-04   2.9747412e-04   3.3006674e-04  -1.1282559e-04  -4.2803145e-05   6.4214895e-04   3.6110569e-04   6.2969839e-04  -1.8335794e-04   2.4158973e-04  -2.4838149e-05   1.6258359e-06   1.8033714e-04   6.0911261e-04   4.9024768e-04   3.6192086e-04   4.2777354e-04   2.7960856e-04   4.6553047e-04   8.7549485e-04   7.0920907e-04   8.4489700e-04   8.8302657e-04   5.8653898e-04   7.4060517e-04   3.0908341e-04   5.7748402e-04   5.4985262e-04   6.2933902e-04   6.1316787e-05
  -6.5254339e-04  -8.9188557e-05  -3.5140337e-04  -1.6455313e-04  -5.5426318e-04   5.2502012e-04   1.9509150e-04   7.5795615e-06  -3.3027629e-04  -8.7799141e-05  -5.3756963e-04   7.2230678e-04  -2.3038858e-04  -3.0632195e-04   2.1154212e-04  -4.7912649e-04  -7.1131816e-04  -1.5353547e-04   2.3932023e-04  -4.3969718e-04  -3.5844810e-04   2.9697502e-04   2.5499478e-04  -4.7383077e-05  -8.6230611e-05   5.1503634e-04   2.9240255e-04   5.5484165e-04  -1.5182763e-04   2.2944318e-04   5.7351294e-06  -1.2416211e-04   6.4121850e-05   5.4743618e-04   4.6692774e-04   4.6128748e-04   4.3838902e-04   2.9572539e-04   5.2442256e-04   8.8837661e-04   7.6885737e-04   8.7789388e-04   5.0529698e-04   5.2164996e-04   6.6813477e-04   1.6313608e-04   5.4466212e-04   4.1127528e-04   5.0959626e-04   5.6555451e-05
  -5.3430459e-04  -9.6988821e-05  -3.9373036e-04  -1.8481490e-04  -5.8759440e-04   5.5786839e-04   2.2514806e-04  -1.2961471e-05  -2.4319917e-04  -9.0548267e-05  -5.3659687e-04   7.2841981e-04  -2.2086377e-04  -3.0774556e-04   2.2432626e-04  -4.9173023e-04  -7.4270036e-04  -1.8042099e-04   6.4114080e-05  -4.3971554e-04  -3.4535758e-04   2.5876064e-04   9.4275791e-05  -2.7067098e-04  -4.3708482e-04   5.6028436e-04   2.9761533e-04   5.2851759e-04  -1.5959394e-04   2.2422218e-04  -2.3120034e-05  -7.5672851e-06   1.5951974e-04   5.1254645e-04   4.5197143e-04   4.0570949e-04   4.5462631e-04   2.9807491e-04   5.2487658e-04   7.7233807e-04   7.7204744e-04   8.0713438e-04   7.6825195e-04   1.8888373e-04   4.8778302e-04   3.5157634e-04   5.0677831e-04   8.0989202e-04   6.4397650e-04   7.3127776e-05
