  -2.9432093e-04  -6.0929143e-04  -3.5636086e-04   9.6412703e-05  -2.1206529e-04  -8.3200075e-04  -1.5592595e-05  -4.4045821e-04   1.4269935e-03   2.4281426e-04  -5.4950971e-04  -7.4373011e-04  -1.0265491e-03  -2.0632577e-04   8.4925530e-05   4.9729832e-04   3.2228962e-04  -9.4548042e-05   1.1138383e-03   5.5334193e-04  -6.9324537e-06  -7.4729812e-04  -1.0578150e-03  -5.1058613e-04  -8.5869164e-04  -3.0435402e-05  -3.9865600e-04  -1.8086228e-04   7.2298327e-04   2.7185282e-05  -3.2942335e-04  -3.5902529e-04  -1.9835217e-03  -9.7636797e-04  -5.4579088e-04  -1.0435346e-03  -9.8028919e-04  -5.7186920e-04  -8.1726415e-05   6.9310103e-05  -5.4794422e-04  -4.6260862e-04  -4.2243881e-04  -1.1882182e-03   4.0357577e-04  -3.0484602e-03   8.6513443e-05   1.8669652e-06   9.3641388e-04  -3.0805257e-03
  -1.4202549e-03  -8.2924741e-04  -8.8660518e-04  -2.1142412e-04  -1.0109597e-03  -1.2956817e-03   3.1245049e-04  -8.6409174e-04   1.4555347e-03  -6.0267233e-05  -1.0827954e-03  -8.7352999e-04  -1.2463469e-03  -6.0471444e-04  -2.1782969e-04   1.3949463e-04   6.9309685e-06  -4.8874749e-04   1.8054058e-03   5.3520640e-04   2.1958127e-04  -4.0861408e-04  -8.7837328e-04  -3.0306538e-04  -1.1784279e-03  -8.4905521e-05  -5.3121522e-04   5.4734026e-04   9.8465034e-04   9.5999894e-05  -9.8194322e-04  -3.2521543e-04  -1.7817299e-03  -8.5213185e-05  -1.6730675e-03  -1.6191009e-03  -4.9012504e-04   5.1248662e-06  -1.4976082e-05  -7.2105686e-05   2.0562561e-04  -8.7052300e-05   1.4695278e-05  -1.8787647e-03   8.6728152e-04  -1.4694582e-03   3.7908790e-04   3.3860418e-04   1.3083296e-03  -2.4714873e-03
  -1.0487365e-03  -4.8428209e-04  -2.4676058e-04   3.3450389e-04  -8.9567469e-04  -8.0072891e-04   1.2084853e-04  -4.1445790e-04   2.7013931e-04   4.1623722e-04  -4.5356623e-04  -5.9858465e-04  -8.5059088e-04  -7.8350286e-06   5.6240289e-05   5.7479832e-04   4.9449888e-04  -1.7847506e-05  -1.6962177e-03   6.9860852e-04   3.4470440e-04  -2.6997144e-04  -7.4328750e-04  -1.9679520e-04  -1.2509536e-03   1.7148683e-04  -4.3906801e-04   7.5045269e-04   1.7312623e-03   1.6160421e-04  -1.7872964e-03  -6.5869116e-04  -1.4848150e-03  -5.3689588e-04  -3.1018365e-04  -1.0564339e-04  -1.1785423e-04   5.0891977e-05   5.2314099e-05  -4.1424096e-04  -3.0687972e-04  -1.7299529e-04  -1.5330006e-04   1.2190413e-03   6.0166296e-04  -2.7583288e-03   2.5440546e-04   1.6980556e-04   1.4019527e-03  -2.8124731e-03
  -1.0176172e-03  -6.2912528e-04  -6.2987488e-04   9.9241515e-05  -1.2363791e-03  -6.1379449e-04   3.3569505e-04  -7.8598125e-04   3.5018197e-03   1.3768536e-04  -5.6401402e-04  -6.9103297e-04  -9.7236387e-04  -3.6077262e-04  -4.1479402e-04   3.2061600e-04   8.4881678e-05  -2.1357853e-04   7.6437864e-04   4.1765149e-04   9.0336609e-05  -6.4238516e-04  -8.5389370e-04  -4.4310139e-04  -9.8012167e-04  -1.7908022e-04  -6.2225043e-04   4.0319056e-04   5.0911243e-04   4.1455627e-05  -1.2333908e-03  -2.3801146e-04  -1.7127757e-03  -7.3350279e-04  -6.1954249e-04   1.4931542e-03   3.8733153e-04  -8.1170531e-04  -1.0957669e-04  -2.9175961e-04  -4.9199391e-04  -4.6614103e-04  -5.5652502e-04  -1.6202885e-03   3.5621060e-04  -2.4020746e-03  -1.0224808e-04  -2.5784751e-04   8.9415401e-04  -3.1976895e-03
  -1.5800197e-03  -8.5037015e-04  -8.9045434e-04  -1.1960361e-04  -7.2075549e-04  -1.4445004e-03  -3.1362241e-04  -1.4113450e-03   3.2650548e-04  -1.6528898e-04  -9.3216309e-04  -8.5709908e-04  -1.3967030e-03  -7.3607330e-04  -8.5750292e-04  -5.5019082e-06  -1.6383828e-04  -3.6010303e-04  -3.3940896e-03   4.4479931e-04   2.0309677e-04  -4.7566611e-04  -1.2196301e-03  -4.9021677e-04   3.6915854e-04  -2.2011565e-04  -5.7217036e-04   9.4452460e-04   1.1806601e-03   1.4665617e-05  -5.1102130e-04  -6.9448352e-04  -1.3698731e-03  -5.6479877e-04  -2.3060625e-03  -7.3995550e-05  -1.3226256e-04   1.6059323e-04  -4.5925750e-05  -3.7478362e-04   3.9991026e-04  -1.9975200e-04  -5.9047696e-05  -1.6447111e-03   5.8760698e-04  -3.3622074e-03   1.8544258e-04   7.4042393e-05   1.5692653e-03  -2.5165211e-03
  -1.0955447e-03  -4.5707449e-04  -4.4788831e-04   2.7575504e-04  -7.5478712e-04  -8.9443865e-04   1.6783473e-04  -4.5692490e-04   2.6900810e-04   3.6300466e-04  -5.8545312e-04  -6.0374837e-04  -9.8987797e-04  -3.1759290e-04   1.1462489e-04   5.1043642e-04   3.5458987e-04  -2.2744096e-04   3.1774966e-03   6.7038834e-04   3.3202619e-04  -2.9070568e-04  -8.8965340e-04  -2.3132378e-04  -3.5974744e-04   5.5476015e-05  -7.1332528e-04   1.8168440e-04   1.1634845e-03   3.0042569e-04  -6.2543334e-04  -1.1026873e-03  -7.3398661e-04  -5.7521893e-04  -1.2106600e-03   6.0119125e-04  -6.7902944e-04   1.1470803e-04   1.0054569e-04  -1.4643607e-04  -5.4565204e-05  -2.7223915e-04  -2.0155388e-04  -1.6887380e-03   5.4428139e-04  -2.1849165e-03  -4.9285136e-05  -2.0306290e-04   1.1845202e-03  -2.8481744e-03
  -1.2281876e-03  -5.6649558e-04  -3.6492560e-04   3.2071371e-04  -4.7594318e-04  -9.7122282e-04   1.6095943e-04  -6.8709959e-04  -1.5688350e-03   1.5691518e-04  -7.8842806e-04  -6.6986866e-04  -9.3347981e-04  -4.8760194e-04   2.4858604e-05   2.9627237e-04   9.0119356e-05  -1.6049584e-04  -1.6457611e-03   3.8897429e-04   6.8402602e-05  -6.3137407e-04  -6.6424959e-04  -3.9056499e-04  -1.1055401e-03  -1.5729325e-04  -5.3218944e-04   6.7277410e-04   9.3611609e-04  -2.1822631e-05  -1.3470332e-03  -1.1194976e-03  -1.2547291e-03  -1.0210917e-03  -1.4324296e-03   6.2471675e-04  -1.1678075e-03  -5.3846667e-04  -2.0485419e-04  -8.3778158e-04  -8.5712259e-04  -5.2773271e-04  -7.6479086e-04  -1.2057832e-03   2.9256090e-04  -2.7866953e-03  -3.2442587e-04  -4.4141870e-04   9.5375878e-04  -3.3726173e-03
  -1.3798699e-03  -9.1521681e-04  -7.1201252e-04  -3.0724957e-04  -1.1310502e-03  -1.2750210e-03   3.3848156e-04  -1.1817248e-03   6.5284001e-04  -2.0308535e-04  -1.0436586e-03  -8.8433624e-04  -1.3369734e-03  -8.2779588e-04  -6.8098458e-04   6.3190600e-05  -1.4161163e-04  -5.9090875e-04  -5.7369713e-03   3.0824926e-04   1.3699284e-04  -5.6486728e-04  -7.7877671e-04  -4.7651242e-04  -9.6561643e-04  -5.3923717e-04  -7.6877250e-04   7.2469842e-04   2.8138520e-04  -1.8561365e-04  -1.2128493e-03  -5.7655340e-04  -1.4189889e-03  -7.6053035e-04  -1.6482989e-03  -1.1849625e-04   7.1611001e-05  -9.2519076e-05  -5.9854454e-05  -8.1069744e-04  -4.6307439e-05  -2.3624954e-04  -3.7099730e-05  -1.1180274e-03   7.1840046e-04  -2.5040309e-03  -1.0970813e-05   2.5537229e-06   1.2773186e-03  -2.7816496e-03
  -7.6025358e-04  -4.9992459e-04  -1.3309756e-04   3.5653930e-04  -4.1350949e-04  -5.5859628e-04   1.0514736e-05  -5.9255544e-04  -1.9933897e-04   4.6596612e-04  -4.0856216e-04  -5.4340332e-04  -8.4312999e-04  -2.6507975e-04  -7.9032630e-05   4.4749319e-04   4.9460784e-04   5.8151447e-05   2.4176114e-03   8.0162514e-04   4.3148911e-04  -2.0572315e-04  -5.2376825e-04  -1.5348094e-04  -1.6203274e-03   6.2619147e-05  -4.1314441e-04   4.3031297e-04   6.4312579e-04   2.2528764e-05  -1.1460845e-03   3.1454052e-05  -9.7937486e-04  -4.6397120e-04  -1.8814334e-03   4.6319611e-04   4.0665784e-04  -2.6377416e-05  -5.2290514e-05   6.0448266e-04   2.1829565e-04  -1.7984124e-04  -1.1913694e-04  -1.2928168e-03   4.9710699e-04  -2.3107729e-03   3.5020919e-05  -1.7362137e-04   8.1069709e-04  -2.8210995e-03
  -9.1937388e-04  -5.4287649e-04  -2.4657079e-04   2.4240378e-04  -6.6852610e-04  -7.2967337e-04  -1.4738223e-04  -3.4018539e-04  -2.0786852e-03   1.4359044e-04  -7.1665482e-04  -5.8340275e-04  -8.9926127e-04  -4.0857290e-04  -3.4565761e-04   1.9027747e-04   1.9196450e-04  -2.3627518e-04   1.2630528e-03   4.1708638e-04   3.3509696e-04  -1.1876252e-04  -6.8485952e-04  -3.6440956e-04  -2.5811899e-04  -2.1179266e-04  -5.9386599e-04   1.4961149e-04   1.7735576e-04  -1.2081878e-04  -1.2431088e-03  -7.2659063e-04  -9.6192112e-04  -7.4625429e-04  -7.0740767e-05  -9.3516317e-04   5.5036007e-04  -5.9433520e-04  -1.8455881e-04  -5.6492147e-04  -7.9682103e-04  -4.2055294e-04  -9.4028271e-04  -6.2702264e-04  -4.1325755e-05  -2.3739627e-03  -1.4941204e-04  -4.5519526e-04  -8.1803548e-05  -2.7837597e-03
  -1.1068402e-03  -8.7739120e-04  -9.6492982e-04  -3.3554866e-04  -6.9175451e-04  -5.4758962e-04  -2.2376416e-04  -7.4016704e-04  -1.1207608e-04  -2.9028184e-04  -1.1851105e-03  -6.4413599e-04  -1.2284676e-03  -7.9798518e-04  -3.5684975e-04  -1.9714373e-04  -6.0412823e-04  -6.5242010e-04  -1.9398814e-03  -1.5336415e-04   3.2897289e-05  -5.2317849e-04  -1.4628979e-03  -4.1113902e-04  -1.9302282e-03  -6.3338794e-04  -5.6562759e-04  -4.3419562e-04  -1.3311069e-04  -4.7399179e-04  -1.5076748e-03   5.5388908e-05  -1.0117400e-03  -1.2740580e-03  -1.6850908e-03   1.1381707e-03  -2.1307272e-04  -2.3794865e-04  -3.1055845e-04   4.6332428e-04  -3.6294179e-04  -2.1734241e-04  -5.7026418e-04  -2.2801808e-03   3.5110136e-04  -1.7329159e-03   2.2444905e-04  -2.2110458e-04   5.3427194e-04  -1.8072729e-03
  -7.4699917e-04  -5.5012148e-04  -5.2311009e-04   4.2580912e-04  -2.6320768e-04  -3.9488738e-04   2.5388299e-04  -2.8359183e-04  -2.6425237e-03   6.6451117e-04  -4.8058419e-04  -1.2801535e-04  -4.7506491e-04  -1.9690792e-04  -3.8491588e-04   1.8608372e-04   2.1817409e-04  -1.8120655e-04  -5.6473184e-03   7.8510493e-04   7.3313934e-04   4.3312946e-04  -4.2826543e-04   1.5359698e-04   5.4668909e-04   4.6337249e-05  -1.4788586e-04  -2.3322772e-04   6.1587756e-04  -1.0191669e-04  -1.5996319e-03  -3.9129416e-04  -6.6234148e-04  -2.6712744e-04  -1.6470985e-04   1.2656624e-03   2.9243331e-04  -1.3274784e-04   2.0192323e-04  -4.9781916e-04   2.4379604e-04   4.8203612e-05  -2.9902530e-04  -1.5984506e-03   1.8893102e-04  -1.7344548e-03   3.7791493e-04  -1.5127231e-04   7.2032685e-04  -1.3569342e-03
  -1.2281699e-03  -4.2180461e-04  -6.2663259e-04   2.5370540e-04  -2.9290409e-04  -8.1062422e-04  -2.1441045e-04  -2.3970880e-04   1.8918919e-03   4.1253728e-04  -6.9788942e-04  -8.3106752e-05  -5.1090441e-04  -1.1614677e-04  -1.5405338e-04   2.2278620e-04  -2.7532356e-05  -3.8686616e-04  -1.7837061e-03   3.4662528e-04   7.0963387e-04   4.0106251e-04  -3.3592377e-04   1.6098522e-05  -1.0568413e-04  -9.3635681e-05  -2.1065242e-04  -3.0189703e-04   1.3878616e-04   3.9660907e-05  -1.0764430e-03  -5.6709273e-04  -2.0414586e-04  -6.1526441e-04   1.0056066e-03  -9.9332552e-05   2.9422721e-04  -1.7498123e-05  -2.6574360e-05  -4.5060617e-04  -5.4970727e-04  -9.5661104e-05  -7.9070742e-04  -2.9813897e-04   9.6895899e-05  -1.1304595e-03   2.3298446e-04  -3.8175166e-04   2.7066862e-04  -1.5139040e-03
  -8.5518014e-04  -7.1386073e-04  -5.7025359e-04  -5.3066302e-05  -7.8842253e-04  -1.0087792e-03  -6.3526840e-04  -6.7891082e-04  -3.0422630e-03   9.3936847e-05  -8.4411493e-04  -1.4114846e-04  -7.1681192e-04  -5.6383602e-04  -6.9562357e-04  -1.2146467e-04  -3.4645814e-04  -5.0155865e-04   1.7599772e-04   9.9225790e-06   3.3366229e-04  -1.4641507e-04  -5.5727590e-04  -2.1077540e-04  -3.2245868e-04  -4.8211619e-04  -6.4360572e-04  -1.3415203e-04  -1.8536871e-04  -2.5397015e-04  -1.0127606e-03  -9.4507483e-04  -9.2553359e-04  -9.3379925e-04   5.1590323e-04  -8.6738652e-04   1.1874023e-04  -2.9382747e-04  -3.2917212e-04  -6.1894156e-05  -1.0798997e-03  -2.8605660e-04  -1.2396112e-03  -7.7673630e-04  -2.3380625e-04  -2.2602803e-03   1.8070334e-04  -5.9022981e-04   1.7416741e-04  -1.7986792e-03
  -9.3089469e-04  -7.0187158e-04  -5.8432407e-04   5.9091672e-05  -3.9216719e-04  -9.8566234e-04  -5.8928522e-04  -7.2524423e-04   3.0241178e-03   6.1740872e-04  -7.7805057e-04   1.0166453e-04  -3.8158536e-04  -2.4937012e-04   2.2700275e-04   3.1198539e-05  -4.7994385e-05  -8.8429661e-05  -2.2708320e-03   6.0675363e-04   8.7179738e-04   6.9340470e-04   1.0846685e-04   3.7419389e-04  -2.5836789e-04   1.4351763e-05  -2.9534710e-04  -2.5763147e-04   8.5582134e-05   2.3726734e-05  -1.3875930e-03  -3.7490365e-05  -5.7417470e-05  -2.3247454e-04  -1.2340620e-03  -1.2559454e-04  -5.2149961e-04   3.5167779e-04   1.7664497e-04  -7.0919591e-04   6.0583727e-05   3.0039949e-04  -4.3028925e-04   1.4918067e-03   2.9537617e-04  -6.8140076e-04   5.3258194e-04  -1.4617004e-04   3.4682083e-04  -1.3297256e-03
  -8.1960944e-04  -4.1676665e-04  -4.2824206e-04   4.2298145e-04  -4.4022675e-04  -5.5622647e-04  -1.3332149e-04  -8.6574454e-04   6.3396161e-03   6.2184560e-04  -5.4781203e-04   1.6975730e-04  -3.5308447e-04  -1.7054663e-04  -3.3974036e-04   1.4895468e-04   2.2302180e-05  -1.2435662e-04  -2.2529459e-03   4.7626166e-04   7.0256501e-04   4.2269082e-04  -2.8903919e-04   1.2638803e-04  -2.4416405e-04   2.0986969e-04  -4.5269658e-04   3.0891257e-04  -7.9179190e-05   1.4751031e-04  -3.5154072e-04  -4.5339920e-04  -6.3143886e-04  -2.6945898e-04  -1.0273358e-03  -1.0910935e-04  -6.3396152e-04  -2.4146766e-04   3.7896720e-05  -4.0504994e-04  -1.5237568e-04   1.0809900e-04  -2.0079424e-04  -1.1963159e-03   3.8779232e-05  -7.8048959e-04   3.5911863e-04  -2.8291257e-04   2.8262998e-04  -1.3610851e-03
  -1.1205102e-03  -6.4744701e-04  -4.5036289e-04   8.2843426e-06  -7.1345712e-04  -1.2815744e-03  -3.1275614e-04  -6.7740201e-04  -1.3748417e-03   1.6804424e-04  -7.4330653e-04  -7.8431913e-05  -8.0779660e-04  -6.1426905e-04  -3.2288957e-04  -8.0230217e-05  -2.5260437e-04  -5.5488298e-04  -3.4911421e-03  -1.2214814e-04   2.2684620e-04  -3.4234545e-04  -8.2474621e-04  -4.2771626e-05  -8.5622846e-04  -1.4114098e-04  -6.9800531e-04   3.6004705e-05  -1.6291098e-04  -2.2916585e-04  -1.7258024e-03  -7.1011489e-04  -1.4498442e-03  -5.9650047e-04  -1.6747679e-03  -4.4378787e-04   9.5816395e-05  -2.0064332e-04  -2.5650527e-04  -5.2370667e-04  -2.7734000e-04  -1.3399450e-04  -1.9280864e-04  -9.4861396e-05  -4.5341523e-05  -5.9235719e-04  -1.1108542e-05  -5.7067355e-04  -1.6606700e-04  -1.4573786e-03
  -1.4162888e-03  -9.3927630e-04  -7.4884802e-04  -4.7864011e-04  -1.2754344e-03  -1.1878418e-03  -6.7679188e-04  -1.0181647e-03  -1.6017194e-03  -1.6760228e-04  -1.1172917e-03  -2.6554876e-04  -1.3066357e-03  -1.0492294e-03  -6.4792758e-04  -4.9326447e-04  -5.7402230e-04  -7.1064947e-04   1.3059929e-04   6.9459740e-05   4.4212266e-04  -1.1460377e-04  -4.5986936e-04  -3.5956007e-05  -1.2865310e-03  -1.7264207e-04  -2.4863271e-04  -7.7636255e-04   1.3233187e-04  -3.7982079e-04  -8.3285995e-04  -6.9079717e-04  -2.8866387e-04  -3.7523903e-04  -1.8965057e-03   9.8501844e-04  -6.5692025e-04  -6.6082051e-05  -1.8054531e-06   1.1899051e-05   7.2424940e-04   3.3004372e-04   4.0748785e-04   1.3677549e-04   3.8009707e-04  -4.9081963e-04   3.4039628e-04  -2.1980142e-05   1.3979104e-04  -9.5276581e-04
  -1.4106645e-03  -5.5109267e-04  -5.9767190e-04   2.6583107e-04  -6.0431170e-04  -9.7907346e-04   2.0335375e-04  -7.9747807e-04   1.6075763e-03   3.4237900e-04  -3.8507866e-04  -4.5412726e-05  -8.4587012e-04  -4.9122109e-04  -6.9887430e-04   3.0611431e-05  -5.6482822e-05  -1.8185032e-04   4.1163061e-03   4.0979512e-04   5.0504430e-04  -9.2572671e-05  -6.8476505e-04   7.0128568e-05  -1.8694092e-03   2.6869532e-04  -3.0806690e-04  -6.3538097e-04   1.3186835e-04  -1.8555262e-05  -8.8406575e-04   7.5290620e-04  -4.0946226e-04  -2.4730118e-04  -1.6687062e-03   9.4300072e-04  -3.8975693e-04  -1.4023998e-04   7.0079346e-05  -2.8298373e-04   7.4048812e-04   3.4020733e-04   5.2961666e-04  -1.0996927e-03   2.3026975e-04  -9.8882557e-04   2.5517575e-04  -6.0735547e-05   1.6286327e-04  -1.1478163e-03
  -7.3345803e-04  -7.0712605e-04  -7.1337301e-04   6.0765098e-05  -7.6270656e-04  -1.2672754e-03  -5.5648782e-04  -6.1867735e-04   1.5071960e-03   8.8059489e-05  -6.8402151e-04  -1.5061777e-04  -9.7769883e-04  -4.4486116e-04  -3.4465460e-04  -1.6365708e-04  -2.7838818e-04  -5.0581922e-04   1.0444149e-03   4.3124026e-05   2.9741143e-04  -3.2826178e-04  -9.8218105e-04  -1.3234721e-04  -1.0679341e-03  -6.3066102e-05  -5.4475362e-04  -1.2231931e-04  -6.8829750e-04  -1.2653068e-04  -9.3841797e-04  -1.2072447e-03  -1.1388620e-03  -6.1172532e-04  -8.9326059e-04  -9.0236421e-04   1.6130102e-04  -5.4930511e-04  -2.5362894e-04  -6.6821702e-04  -3.1546439e-05   5.6651515e-05  -1.3494326e-04  -1.0991181e-03  -3.6126666e-04   2.3209190e-04  -9.2087808e-05  -5.0672953e-04  -2.8747658e-04  -1.5770798e-03
  -1.5439873e-03  -8.5673534e-04  -9.1289909e-04  -2.6635814e-04  -7.7133352e-04  -1.2014966e-03  -4.3973574e-04  -1.0583625e-03  -7.1465940e-04  -2.5533704e-04  -9.9097204e-04  -2.5274130e-04  -1.1335443e-03  -1.0082562e-03  -7.0841267e-04  -4.0746239e-04  -7.6381949e-04  -8.4171741e-04   1.1312920e-04  -4.4667046e-04  -4.6666019e-06  -6.0170132e-04  -1.2037529e-03  -3.1396275e-04   1.7403119e-04  -5.7429244e-04  -6.8153575e-04  -4.1447670e-04  -6.8280706e-04  -4.4666877e-04  -2.0983422e-03  -8.7894185e-04  -9.2864805e-04  -7.1912602e-04  -2.7890457e-04  -1.0642788e-03   1.8049525e-04  -8.1208110e-04  -3.7372299e-04  -4.9948040e-04   1.5778992e-04   1.8978381e-04  -1.2174879e-04  -5.9647957e-04   2.0371305e-04  -1.3073949e-03   4.9905793e-05  -4.0949206e-04   3.3470718e-04  -1.3851491e-03
  -1.0980529e-03  -6.9060607e-04  -7.0849835e-04   1.2939314e-04  -2.0399658e-04  -5.5745617e-04  -3.9402043e-04  -3.1240296e-04  -1.2336823e-04   4.2347398e-04  -5.7330722e-04   1.2558648e-05  -6.3749979e-04  -5.9891207e-04  -3.4435434e-04  -1.2939716e-04  -1.6428258e-04  -3.3063462e-04  -3.9369408e-03   3.4674807e-04   5.3162174e-04   1.3618077e-04  -7.7805883e-04   7.9590143e-05  -1.4275557e-03   1.3775991e-04  -5.6046265e-04   5.2945143e-06   3.5020983e-04   5.7398036e-05  -8.2517264e-04  -4.8388712e-04  -2.0061216e-04  -3.5624419e-04  -1.8333846e-04  -4.6686860e-06  -7.8302232e-04  -1.7369539e-04  -5.1966137e-05  -4.5834531e-04   1.7939590e-05   2.1041631e-04  -1.8950971e-04  -2.1281871e-03   1.9942837e-04  -2.1595436e-03   6.6672575e-05  -4.7810638e-04   5.2180531e-04  -1.3339666e-03
  -6.5913290e-04  -5.8001425e-04  -6.5402320e-04   1.3398613e-04  -1.0498168e-03  -7.5849792e-04   4.1995588e-04  -1.0103567e-03   5.0827921e-03   1.4210711e-04  -7.2616711e-04  -4.1156756e-05  -7.0327666e-04  -6.3330960e-04  -5.4632197e-04  -1.1017874e-04  -2.3001405e-04  -3.0100922e-04   3.0712907e-03   9.7403230e-05   4.1623181e-04   5.9246999e-05  -1.0087566e-03  -1.2931175e-06  -4.8428786e-04  -2.2709480e-04  -2.5684643e-04  -2.6897286e-04  -1.0732510e-04   6.2801912e-05  -8.8115613e-04   3.9634280e-05  -9.0300331e-05  -7.1920996e-04   7.8276079e-04   1.5636453e-04  -3.8371907e-04  -3.6989164e-04  -8.2846294e-05  -6.7996129e-04  -2.2533342e-04  -3.6198122e-05  -2.4838673e-04  -1.1874561e-03   1.1580605e-04  -1.8669888e-03  -1.8748776e-04  -6.4277009e-04   2.0765104e-04  -1.6951814e-03
  -1.0418269e-03  -8.9128950e-04  -9.8708237e-04  -2.3062546e-04  -9.1976160e-04  -1.4888605e-03  -3.8952695e-04  -1.2169898e-03  -2.1606134e-03  -2.6753181e-04  -9.9484099e-04  -2.7032287e-04  -1.1629689e-03  -9.1001228e-04  -5.8467325e-04  -3.8571967e-04  -6.9382240e-04  -7.0123584e-04  -8.4795919e-04  -4.3836344e-04  -2.4420202e-05  -5.3124415e-04  -1.5358765e-03  -3.1410326e-04  -1.5013919e-03  -4.2358469e-04  -4.5945801e-04  -4.4547013e-04  -1.4638247e-04  -4.1349718e-04  -1.4799496e-03  -9.0525782e-04  -1.2601181e-03  -1.0812412e-03   4.3445555e-04   6.2912190e-04  -1.3520670e-04  -8.6704979e-04  -4.5319003e-04  -3.7150592e-05  -4.7334842e-04  -1.4633177e-04  -4.8897089e-04  -1.8872209e-03  -1.4831773e-04  -1.4160771e-03  -1.6089887e-04  -5.2578328e-04   9.2928101e-05  -1.5189999e-03
  -7.8303576e-04  -8.0665358e-04  -9.9416915e-04  -1.1499139e-04  -2.3193237e-04  -1.1403803e-03  -3.7738352e-04  -5.2804279e-04  -2.3639088e-03   3.2509444e-04  -6.6141324e-04  -9.7080789e-05  -8.5445581e-04  -5.0148356e-04   2.4645218e-05  -1.0478713e-04  -8.0132428e-05  -3.3956041e-04   5.0840355e-03   3.7392287e-04   4.9546483e-04   1.4652046e-04  -4.0242643e-04   2.1887916e-05   1.5542857e-04   1.2946263e-04  -7.1727794e-05  -1.2201363e-04  -1.7488548e-04  -8.4478255e-05  -1.6197305e-03  -5.3785375e-04  -4.8412068e-04  -3.5410488e-04  -1.4553430e-03   1.7283866e-03  -1.1826003e-03   3.0158108e-04   8.4430452e-05   3.8743761e-04   4.3799978e-04   2.4866860e-04   2.9330896e-04  -1.4536727e-03   2.2448180e-04  -1.9985077e-03   4.8330643e-05  -2.4803623e-04   4.6076888e-04  -1.2095552e-03
  -1.1657921e-03  -5.8014755e-04  -5.8741693e-04  -4.4578637e-06  -9.4899040e-04  -1.1404720e-03  -1.7748192e-04  -7.3066138e-04  -3.7753053e-03   2.7230871e-04  -6.9995160e-04  -9.6837874e-05  -7.8749721e-04  -4.7033522e-04  -6.4674078e-04  -1.1965894e-04  -1.7406124e-04  -2.5317370e-04   2.3297393e-03   1.0872367e-04   3.8515314e-04  -3.6624238e-05  -5.9088750e-04  -3.2172233e-05  -1.8844237e-03  -1.2092783e-04  -3.7843129e-04  -1.2213785e-04   2.9675686e-04   1.6384281e-04  -1.4709460e-03  -6.3913269e-04  -7.8220718e-04  -6.4186618e-04  -7.5171853e-04   4.8247681e-04  -1.9237577e-04  -6.5512245e-04  -1.0676108e-05  -5.7506794e-04   6.1781332e-04   1.2690912e-04   5.9813003e-05   1.2017290e-04   1.1076305e-04  -7.2583125e-04  -8.3714986e-05  -4.3383532e-04   2.9963013e-04  -1.4698009e-03
  -7.8196923e-04  -7.3279417e-04  -7.7018118e-04  -2.7501894e-05  -8.6844689e-04  -1.3432719e-03  -2.7212864e-04  -5.3192442e-04   1.8946069e-03  -6.3256688e-05  -8.3940272e-04  -2.0383418e-04  -9.7898219e-04  -7.6278677e-04  -4.1957348e-04  -2.7316503e-04  -4.0981238e-04  -5.3819414e-04   9.8037580e-04  -2.1894320e-04   5.3729058e-05  -4.1587700e-04  -8.5758610e-04  -2.3579267e-04  -1.1983039e-03  -2.8675600e-04  -4.2292397e-04   1.0636410e-04   8.8990455e-05   6.1433639e-06  -9.4078644e-04  -6.9809851e-04  -8.7977399e-04  -9.0831291e-04   4.2364473e-04  -1.2393296e-03   3.7929087e-04  -6.2410388e-04  -3.1007570e-04   1.4255045e-04  -3.9354540e-04  -1.2985067e-04  -3.6064140e-04  -2.0777441e-04  -1.7554894e-04  -9.4333332e-04  -3.7254684e-04  -8.4182742e-04  -9.6691329e-06  -1.9529046e-03
  -1.3131616e-03  -1.0886043e-03  -1.0070116e-03  -4.3329649e-04  -6.9364271e-04  -1.8938412e-03  -1.2757748e-03  -1.0310406e-03  -4.6981988e-03  -2.3947508e-04  -1.2032393e-03  -3.1854611e-04  -1.0764835e-03  -9.9690049e-04  -1.9921777e-04  -5.1576254e-04  -5.6683359e-04  -7.0546195e-04   3.2413590e-03  -5.8938760e-05   3.1674383e-04  -1.2863473e-04  -7.8479375e-04  -8.2384729e-05  -6.9561717e-04  -2.4388873e-04  -3.7249725e-04  -3.6068403e-04   5.9778056e-05  -9.1680340e-05  -1.8245142e-04  -4.5716600e-04  -3.6895362e-04  -3.7466519e-04   5.7785283e-04  -3.9749275e-04   3.2763457e-04  -2.5737530e-04   2.4647237e-05  -4.6289957e-04   6.6944951e-04   2.7909572e-04   3.2840687e-04   1.5484395e-04   2.0570413e-04  -1.8095255e-03   1.5742185e-05  -1.1016398e-04   2.3153599e-04  -1.2727368e-03
  -9.0689055e-04  -4.3409757e-04  -4.0330470e-04   3.2854560e-04  -8.4882934e-04  -7.5959408e-04   5.4743694e-04  -4.5300345e-04  -1.4223532e-04   3.0814658e-04  -4.5795104e-04  -1.5807072e-04  -6.5892551e-04  -3.7798035e-04  -1.6496987e-04   1.0962709e-05   2.9712983e-05  -2.5084068e-04   4.4825245e-04   3.8734206e-04   4.3720807e-04   1.0323660e-04  -3.9592246e-04  -1.3107499e-05   3.6875208e-05   4.2725026e-04  -4.2999868e-04   4.8711772e-05  -1.7158032e-04   4.7462885e-04  -4.4511649e-04   7.4466705e-05  -5.7871052e-04  -3.1570601e-04   1.1515162e-03   4.0021847e-04   1.6762789e-04   2.1932708e-06   1.0982469e-04   3.5506696e-04   8.4444718e-04   2.7132386e-04   5.6709535e-04   4.5264015e-04   3.4942426e-04  -3.2163719e-03   6.1191495e-05  -1.4563336e-04   3.4554297e-04  -1.4736354e-03
  -1.0870578e-03  -4.8449278e-04  -6.2037871e-04   3.6349273e-04  -8.4193039e-04  -1.2978243e-03   1.9849705e-05  -2.2161628e-04  -1.9993670e-03   1.3868832e-04  -6.0407550e-04  -2.1043196e-04  -7.2375208e-04  -5.0358608e-04  -1.8262335e-04  -2.4335797e-05  -1.7379991e-04  -4.4515036e-04   3.3539666e-03   1.1222966e-04   2.3740517e-04  -1.5919095e-04  -4.4882583e-04  -2.5425208e-04   3.9648928e-04   1.2235358e-04  -2.0658286e-04  -1.1930791e-04   2.2837406e-04  -7.5104785e-05  -1.3884902e-03  -5.6394865e-04  -4.8326992e-04  -5.6098460e-04  -1.2751762e-03  -1.3880925e-04   3.6917979e-04  -1.8170418e-04  -1.2861224e-04   2.2113076e-04   2.4487986e-04   3.9278584e-05   1.1235574e-04  -4.7371822e-04   3.2932738e-05  -2.1392186e-03  -1.7334949e-04  -3.7257094e-04   3.9713123e-05  -1.6011528e-03
  -1.4537550e-03  -7.2655472e-04  -9.8172750e-04  -2.3350652e-04  -9.6099515e-04  -1.4803687e-03   5.6000161e-05  -9.0658083e-04   1.0526092e-03  -2.6861855e-04  -9.0503227e-04  -3.5918393e-04  -1.0336472e-03  -7.5052597e-04  -5.5822229e-04  -3.8767877e-04  -4.3403433e-04  -5.7601649e-04  -1.7977742e-05  -3.2486729e-04  -3.1677762e-05  -5.5835594e-04  -1.1120790e-03  -3.3523934e-04  -5.8064098e-04  -1.8223922e-04  -4.4742718e-04  -3.4986174e-04   4.3422237e-04  -4.0891427e-05  -9.5471245e-04  -3.8222029e-04  -7.5286225e-04  -7.9174264e-04  -8.8436209e-04   1.1573529e-05  -2.6927300e-04  -8.4770721e-04  -2.9853272e-04  -1.6409570e-03   4.0425482e-05  -1.4802027e-05  -3.1280541e-04   5.6495593e-04   6.5761596e-06  -1.0085454e-03  -1.1579706e-04  -4.5785564e-04   4.1593230e-04  -1.5516281e-03
  -8.6241693e-04  -4.9208727e-04  -3.9692037e-04   4.6467024e-04  -3.9766665e-04  -5.5866019e-04  -8.5128710e-04  -7.7377050e-04  -2.9834770e-03   3.7496752e-04  -5.7759951e-04  -1.0095643e-04  -4.7975677e-04  -4.7264813e-04  -1.6859775e-04   1.0862535e-04   3.3208144e-05  -1.5574558e-04   2.6282277e-03   5.3520303e-04   6.7355385e-04   5.6327018e-04  -2.9263020e-04   1.9647919e-04  -1.3082179e-03   2.1914979e-04  -2.4947524e-04  -7.2716670e-05   4.2685168e-04   2.6340445e-04  -1.6888006e-03  -6.5882533e-04   2.8449905e-04  -3.1184137e-04  -5.8082171e-04  -6.2013260e-04   7.1233936e-04   5.5108601e-05   2.1801920e-04  -4.9205759e-05   2.2235955e-04   2.3827930e-04   7.0083865e-05   5.5817148e-04   1.6011573e-04  -1.1982082e-03   8.4398802e-05  -2.8103919e-04   5.2798522e-04  -1.1825799e-03
  -3.9101735e-04  -2.8726217e-04  -6.7653769e-04   3.2133926e-04  -3.0263564e-05  -2.6160118e-04   3.7169192e-04  -1.6683927e-04   4.2942493e-06   2.2186684e-04  -6.3774129e-04  -8.0300888e-05  -6.2018313e-04  -1.5747565e-04  -2.5500779e-04   1.1011267e-04   1.1899613e-04  -1.5649026e-04  -1.8873995e-03   4.3146466e-04   5.9312535e-04   5.2074174e-04  -3.1674295e-04   8.1173072e-05  -4.3884531e-04   1.5615737e-04  -1.3594906e-04   1.8416475e-05   2.1748195e-04   2.4375253e-04  -9.0351491e-04   3.5292952e-04   2.6073452e-04  -2.7994593e-04   3.6514113e-05  -1.2677921e-03   1.0563604e-03  -4.1684895e-04   1.2181210e-04   1.1379019e-03  -2.2597122e-04   7.9211750e-05  -7.5476171e-05  -1.4659173e-03   3.1756848e-04  -6.6388439e-04  -5.7932011e-05  -4.9864012e-04   2.3559087e-04  -1.1451432e-03
  -4.9804465e-04  -5.4180797e-04  -5.7700166e-04   4.0841504e-05  -7.7420758e-04  -4.5943382e-04  -1.2043287e-04  -8.1967918e-04   4.4135326e-03  -1.3506865e-04  -9.0130500e-04  -2.3358480e-04  -7.3470973e-04  -5.4334552e-04  -1.7225424e-04  -1.4388890e-04  -2.8138724e-04  -4.5069991e-04  -6.9013640e-04  -1.1219883e-05   2.3867785e-04   9.7578079e-05  -8.1282511e-04  -3.5235868e-04  -1.3350822e-03  -2.7147320e-04  -4.6707745e-04  -3.6866151e-04   1.7563782e-04  -3.0371207e-06  -7.4137747e-04  -3.1528535e-04  -1.0599803e-04  -6.2004308e-04  -4.8545943e-04   4.6065007e-04  -2.3566700e-04  -2.4157169e-04  -8.7377819e-05   7.8610516e-05  -9.1459107e-04  -2.8531929e-04  -7.2469737e-04  -4.9759046e-04  -9.9052879e-05  -1.7894527e-03  -3.6582444e-04  -8.8238186e-04   1.3654327e-04  -1.5633350e-03
  -1.3139989e-03  -8.0391456e-04  -7.0352474e-04  -3.6663088e-04  -1.0468242e-03  -1.0779004e-03  -5.0279556e-04  -1.0698503e-03   1.0181295e-03   6.9980495e-05  -9.7975100e-04  -1.7804607e-04  -8.1411313e-04  -5.4970186e-04  -4.9754605e-04  -1.7889202e-04  -2.3234583e-04  -4.0427348e-04   1.6397258e-03   4.5956858e-04   6.7174708e-04   7.0936768e-04  -4.9996201e-04   7.2894807e-05  -9.5944619e-05  -1.0616278e-05  -5.9713871e-04   6.1354873e-04   3.8561830e-04   3.9635204e-05  -2.5084443e-04  -1.3714083e-04   5.2349555e-04  -1.2801841e-04  -3.0734533e-04   9.5490424e-04  -4.7130309e-04  -5.2916323e-04   1.7583572e-04  -8.1131316e-04  -1.9528718e-05   8.9411842e-05  -4.6441046e-04   5.1879953e-04   3.2871403e-04   7.9214833e-06   8.6166277e-05  -4.7064215e-04   5.9315452e-04  -8.6933095e-04
  -2.7546511e-04  -1.8946842e-04  -2.8979772e-04   3.2294734e-04   3.0814772e-04   1.1924252e-04   7.9870754e-04  -5.5829628e-04  -8.0330487e-05   2.7201467e-04  -6.5839075e-04   2.9981695e-05  -3.1558893e-04  -1.6865124e-04  -3.5295519e-04   1.0642995e-04   1.2281277e-04  -5.4529912e-05  -6.7346421e-04   5.0479011e-04   7.2351948e-04   9.5205911e-04  -4.9710291e-04   1.5595650e-04  -4.3850168e-04   7.1090479e-05  -2.4280924e-04   8.6834269e-05   1.4589643e-04   2.6688431e-04   4.0254818e-04  -1.0446210e-04   6.8487658e-04  -2.2102937e-05  -2.2718292e-05  -1.4979915e-04   5.2539277e-04   4.0158018e-04   1.5778690e-04   4.1810027e-04  -1.0010015e-04  -6.6104774e-05  -8.2930218e-04   1.3778771e-04   5.0098350e-04  -3.2512253e-04   5.7138801e-05  -6.3880061e-04   3.7031260e-04  -1.1338254e-03
   3.0242207e-05  -3.1083403e-04  -5.9771293e-04   2.9642071e-04  -1.7047120e-04  -4.7735017e-04  -3.1447766e-04  -7.8504723e-05  -2.6410257e-03   7.1067524e-07  -7.9122069e-04  -5.6408368e-05  -5.4165616e-04  -3.5161746e-04  -1.1025836e-04  -1.2990285e-04  -2.6013213e-04  -4.5112721e-04  -2.4135427e-03   3.4958561e-05   4.9951696e-04   6.6571194e-04  -2.4847855e-04   2.0410795e-05   5.0599669e-04  -1.6657371e-04  -5.0003541e-04  -4.6487601e-04   1.7929610e-04   6.6070323e-05  -1.4313415e-03  -6.5605709e-04   4.4030315e-04  -3.3517933e-04   3.5885314e-04   7.0026744e-04  -3.9884620e-04  -6.3175271e-04   4.9525777e-05   2.2692178e-05  -9.6096721e-04  -3.3492211e-04  -1.1024635e-03   3.7507307e-05   3.8668742e-05  -1.2057623e-03  -2.0592622e-04  -1.0156888e-03   1.2337411e-04  -1.2561505e-03
  -8.4595196e-04  -5.6908926e-04  -7.1518222e-04  -7.4493888e-05  -3.8979019e-04  -6.4491876e-04  -2.6882070e-04  -6.3199888e-04  -9.3103311e-04  -3.7355506e-04  -1.1468352e-03  -2.5547997e-04  -8.7427371e-04  -8.1832276e-04  -7.5304619e-04  -3.4443720e-04  -4.8986357e-04  -7.9169468e-04  -3.8360895e-04  -3.4769482e-04   1.3528386e-04   1.8890998e-04  -1.2114205e-03  -2.7942227e-04   4.4926725e-04  -7.9028041e-04  -4.7515662e-04   1.3499468e-04  -1.0889086e-03   1.1998537e-05  -1.0688502e-03  -1.7770310e-04  -1.7228225e-04  -5.7642203e-04  -1.5787376e-03  -2.2039238e-04  -6.5011508e-04  -6.2151405e-04  -1.3427201e-06   2.4430014e-04  -1.2308368e-04  -9.4458272e-05  -7.0145814e-04   3.4832006e-04   3.8481198e-04  -1.0259580e-03   7.5759497e-05  -5.9608108e-04   5.7861331e-04  -1.1033037e-03
   2.1091076e-04  -1.0204540e-04  -1.5481110e-04   4.6252689e-04  -3.6669921e-05  -5.9431277e-05   1.4393849e-04  -6.4284413e-04   1.4469124e-03   2.5348022e-04  -7.0605363e-04   3.4326509e-05  -3.5996753e-04  -2.1534228e-04   2.6372558e-04   1.8709943e-04   2.8961789e-05  -9.2786227e-05  -9.4888051e-04   4.9222808e-04   7.6534081e-04   1.0078208e-03  -7.2945564e-05   1.4787167e-04   2.6842146e-04  -1.1955903e-04  -9.1487644e-05   1.1554828e-04   2.8499833e-04   3.5725310e-04   1.1053663e-03   2.9703515e-04   6.3579972e-04  -2.3190709e-05   5.0304201e-04   9.7994553e-04   8.1052183e-04  -2.3919551e-04   2.4634672e-04  -4.9238815e-04  -7.5583790e-05  -1.8761270e-05  -7.5566128e-04   1.0407382e-03   2.5697579e-04  -6.2512216e-04   1.6197794e-04  -6.4938056e-04   2.7788786e-04  -1.1547412e-03
   6.2603169e-05  -1.1611968e-04  -3.3336904e-04   4.5105751e-04  -3.2382563e-04  -5.5662094e-06  -2.6603468e-04   1.1537352e-04   5.5286998e-04   1.2573026e-04  -7.5546361e-04  -6.1764777e-06  -3.8059641e-04  -3.0377763e-04  -3.6686429e-04   1.5713442e-04  -1.3136811e-04  -7.9519748e-05   8.1495056e-04   2.7833856e-04   6.3542783e-04   9.4794523e-04  -7.2038913e-04   4.2718319e-05   2.6364540e-04  -1.2099887e-05  -4.8216060e-04  -1.6021283e-04   8.2263658e-05   4.9760967e-04  -6.7429821e-04  -2.2575272e-04   6.0632086e-04  -9.5068950e-05  -2.4498331e-03  -1.1763150e-03  -1.3245569e-04  -4.1080749e-04   8.7707776e-06   1.4950937e-04  -4.2206331e-04  -2.3907688e-04  -9.9445309e-04   1.9744472e-03   4.1075365e-04  -1.8283237e-03  -7.4139309e-05  -9.0466620e-04  -4.0159066e-05  -1.3399645e-03
  -7.2697375e-04  -4.4725116e-04  -6.8769499e-04   1.2786564e-04  -6.9016154e-04  -2.9705296e-04  -9.1306072e-05  -2.8863133e-04  -1.0877487e-03  -2.1763232e-04  -1.0557002e-03  -1.9458866e-04  -7.2139129e-04  -6.4933609e-04  -3.5147613e-04  -2.0382798e-04  -3.8986903e-04  -4.9821794e-04  -5.0794752e-04  -1.7380995e-04   2.5123719e-04   3.7833065e-04  -5.5723818e-04  -2.6729659e-04  -8.9348253e-04  -3.3495628e-04  -7.2391925e-04   5.5865740e-04  -4.1864166e-04   3.6022300e-04   9.5956952e-05   1.3989341e-04  -4.5184715e-05  -5.4921181e-04   3.0466131e-04   1.7989776e-04   3.5498460e-04  -1.2572852e-04  -8.9486522e-05  -4.2440856e-04  -1.1067737e-03  -4.1831037e-04  -1.3061723e-03  -2.0885477e-03  -3.9500548e-04  -1.7552542e-03  -2.9964314e-04  -1.1058543e-03   1.8677577e-04  -1.6594793e-03
  -5.2259228e-04  -5.9580326e-04  -6.5393216e-04   4.5979505e-05  -3.3593469e-04  -5.2851503e-04  -1.0019255e-04  -5.7877228e-04  -5.9840810e-03   6.2407635e-05  -9.0464856e-04  -1.4283927e-04  -4.9736537e-04  -4.9858965e-04  -2.1447291e-04  -3.8123708e-05  -1.4414838e-04  -2.5568600e-04   2.3488982e-03   4.4151707e-04   8.2720548e-04   1.1602240e-03  -4.3348651e-04   1.1609012e-04  -1.2990000e-03  -5.0221879e-05  -4.2742988e-04  -5.9840729e-04   2.9703940e-04   2.7310677e-04  -1.7291503e-03  -6.9532805e-05   7.0474332e-04   7.9059268e-05  -5.6969677e-04   1.1017444e-03   6.3162268e-04   8.9525005e-05   2.1474434e-04  -2.8008953e-04  -3.6124914e-04  -3.8312883e-05  -5.8372744e-04   1.1219650e-03   4.3597046e-04  -1.7705169e-03   2.5638379e-05  -6.3432282e-04   5.8066036e-04  -9.8474848e-04
  -3.7229617e-04  -1.9589343e-04  -4.1664258e-04   4.9404416e-04   4.0702708e-04  -3.5764184e-04  -2.1142290e-04  -4.6631377e-04   3.2823102e-03   1.5021620e-05  -6.9334620e-04  -1.5264926e-04  -5.7010609e-04  -3.2851452e-04  -3.9053537e-04   9.9921941e-05   7.0096023e-05  -1.0284074e-04  -2.2048084e-03   2.7175169e-04   6.9042406e-04   8.4428932e-04  -5.1309320e-04  -5.0913703e-05  -6.4888655e-04  -3.9097285e-05  -2.8115098e-04   1.0842772e-04   9.6846357e-05   2.8476422e-04  -2.2145953e-04   1.6287636e-04   5.6870119e-04  -2.0338962e-04   8.9637114e-04  -8.9612528e-04   9.3128561e-04   4.0786125e-04   1.7811001e-04   5.5887777e-04  -1.0511574e-04  -1.5600659e-04  -5.0814915e-04  -7.2322332e-04   4.0102750e-04  -6.8202784e-04  -4.7548692e-05  -6.4465159e-04   6.9686350e-05  -8.8773883e-04
  -2.3799248e-05  -3.1124681e-04  -5.4327003e-04   2.2690365e-04  -7.7016637e-05  -4.2101619e-04   8.2271363e-05  -5.2402209e-04  -6.2101742e-04  -2.3305316e-04  -1.0366878e-03  -2.6230564e-04  -5.7829829e-04  -4.5746536e-04  -2.4995728e-05  -3.8289665e-05  -2.9111499e-04  -3.0236354e-04   2.7164635e-03  -7.9565369e-05   3.7374784e-04   4.8314023e-04  -8.0023392e-04  -3.7327397e-04  -3.8314512e-04  -2.8954077e-04  -6.5537193e-04   1.7192162e-04  -2.7317004e-04   2.4799569e-04   1.7210860e-04   6.7673442e-05   5.4613699e-04  -2.4915716e-04  -7.6147768e-04   4.7221372e-05   8.2530401e-04  -3.8429440e-04  -1.0913468e-05  -7.4079138e-04  -7.7121763e-04  -4.0893629e-04  -1.0419647e-03   7.4734946e-04  -1.9121412e-04  -1.1586744e-03  -3.2805919e-04  -1.0056861e-03  -5.4698740e-04  -1.3309882e-03
  -1.0052891e-03  -6.3986238e-04  -9.9759421e-04   2.8490849e-06  -1.1765565e-03  -7.9778797e-04  -3.1327267e-04  -2.7715223e-04  -7.4569171e-04  -6.4646971e-04  -1.2952202e-03  -4.5157233e-04  -1.0016966e-03  -7.8851829e-04  -6.2757247e-04  -4.3688857e-04  -5.2961067e-04  -7.5352064e-04  -1.9876042e-03  -5.6406995e-04   1.7237195e-04   2.7665417e-04  -1.0873872e-03  -4.4985884e-04  -1.7651581e-03  -9.4727502e-04  -5.2110804e-04   2.9193773e-04  -5.5841909e-04  -1.3041242e-04  -9.2247088e-04  -7.2410289e-04   7.7337649e-04  -5.3820852e-04  -1.2171350e-03  -3.9794475e-05   8.5865058e-06  -4.9315923e-04  -3.4225598e-04  -5.4729183e-04  -1.1716745e-03  -5.5782258e-04  -1.4933158e-03   5.3334760e-04   5.0175247e-05  -1.1283157e-03  -1.6730216e-04  -8.7739225e-04  -1.8948045e-05  -8.8419236e-04
  -1.1622143e-04  -2.8375440e-04  -8.7771937e-04  -2.7663373e-06  -1.6036734e-05  -1.9032705e-04  -5.0506467e-04  -2.7311032e-04  -8.6054229e-04  -2.9560740e-06  -8.7634305e-04  -2.0803990e-04  -4.5599724e-04  -2.8142030e-04  -3.4200310e-04  -1.2549874e-05  -1.7961959e-04  -2.4594975e-04  -6.5383903e-04   4.0219017e-04   8.9648378e-04   1.2795554e-03  -1.5439773e-04   6.5072723e-05  -6.0041551e-04  -2.5953408e-04  -8.9167865e-05   1.9501556e-04  -3.9254843e-05   4.4240992e-04   5.6079455e-04   3.2302499e-04   8.3445868e-04  -2.9781695e-05  -3.8926458e-04   6.5657077e-04  -8.6859305e-05   4.6785066e-05   1.8474965e-04  -6.0954280e-05  -1.2507959e-04  -3.2397249e-04  -7.8948546e-04   2.0471867e-03   2.7794074e-04  -3.1647648e-04  -6.0369141e-05  -6.9520593e-04   2.9188297e-05  -7.3508726e-04
  -4.1548751e-04  -1.7436965e-04  -2.1187567e-04   2.3382225e-04  -1.7414830e-04  -1.9349896e-05   1.1944528e-04  -1.4722439e-04   7.3115225e-04  -1.2341267e-04  -8.3640573e-04  -2.2988940e-04  -4.4152307e-04  -3.6221792e-04  -5.3327145e-05   1.3617949e-04  -1.3338655e-04  -2.2987793e-04   4.4890186e-03   1.7559936e-04   7.3605229e-04   1.1083676e-03  -2.5751439e-04  -1.2508668e-04  -7.4626267e-04  -3.5112179e-04   7.5615208e-05  -1.0319725e-04   3.9889297e-04   2.3891592e-04   5.7930645e-04   3.4301108e-04   3.4762124e-04  -2.2477655e-04   1.2063880e-03   7.8882620e-04   3.2662769e-04  -3.0416006e-05   2.5240830e-04   3.0682719e-04  -8.7727752e-04  -4.2356903e-04  -1.1828999e-03   4.0460820e-04   2.4859287e-04   4.8658254e-05  -1.9946968e-04  -9.6623582e-04   2.3494539e-04  -9.1699942e-04
  -5.5620790e-04  -3.7459013e-04  -7.4182561e-04  -3.9921090e-04  -1.0155634e-03  -5.2444311e-04  -8.2134426e-04  -3.6808828e-04  -2.2652536e-03  -4.9672922e-04  -1.1848414e-03  -3.6666688e-04  -8.3582825e-04  -5.7152117e-04  -2.3690880e-04  -1.8784782e-04  -5.7682273e-04  -5.1610445e-04   3.1896573e-06  -2.6175487e-04   3.8491565e-04   6.1951316e-04  -1.0480604e-03  -4.0932550e-04  -1.0132035e-03  -8.3180802e-04  -4.4016237e-04  -3.8356869e-04   2.9907090e-04   8.9690679e-05  -7.7709928e-04  -5.0158607e-04   6.0422102e-04  -4.1613588e-04   1.8935191e-04  -1.0047510e-03  -8.9021376e-04  -6.2929228e-04  -1.9916151e-04  -3.9111896e-05  -1.5840715e-03  -6.9775834e-04  -1.5723602e-03  -1.7744745e-03  -1.5730965e-04  -1.2636236e-03  -4.7926302e-04  -1.3650731e-03  -1.5992601e-04  -1.1440625e-03
  -1.1978580e-03  -7.1062235e-04  -8.6907356e-04  -6.6201040e-04  -7.8495988e-04  -4.0514179e-04  -9.9875231e-04  -7.8332779e-04  -5.1016971e-03  -8.5754652e-04  -1.5149690e-03  -5.5908307e-04  -1.1271907e-03  -1.0102720e-03  -7.1709597e-04  -4.7973779e-04  -9.2527346e-04  -8.0515264e-04  -9.6316228e-04  -6.2740856e-04   2.7582821e-04   3.8724422e-04  -1.2348987e-03  -5.1486155e-04  -1.8832849e-03  -1.0436861e-03  -4.9999455e-04   5.5069895e-04  -3.1608570e-04  -8.6436332e-05   1.6109000e-03  -1.0081958e-03   1.3731308e-03  -5.5062037e-04  -1.3315647e-03   1.6879576e-04   4.0424167e-04  -1.7474363e-04  -5.5486998e-05  -5.1809574e-04  -7.8497065e-04  -3.6983512e-04  -1.1962359e-03   1.8587505e-03   3.3238862e-04  -1.1723676e-03  -1.8304249e-04  -9.5308846e-04   1.0561937e-04  -8.4629958e-04
  -5.2818301e-04  -2.1267738e-04  -4.7461534e-04   1.5823160e-06   3.5228084e-05   2.6158450e-04  -2.1731781e-04  -3.3141029e-04  -2.4044979e-03  -9.1010494e-05  -7.7838969e-04  -2.0602203e-04  -5.5682787e-04  -3.7529742e-04  -3.2273922e-04   1.3469678e-04  -2.1216959e-04  -1.0592974e-04   2.9515906e-03   9.1453272e-05   7.4065680e-04   1.1615759e-03  -2.6328705e-04  -1.0009687e-04   4.1405615e-04  -3.9865746e-04  -4.8252719e-04  -2.3128890e-04  -7.3476735e-04   6.5210479e-04  -5.8955426e-04  -3.5233106e-04   1.2319786e-03  -5.0846305e-05   2.0481869e-04   1.1076270e-04   4.1957351e-04  -3.0931568e-04   1.9099166e-04   2.1840376e-04  -8.7870134e-04  -3.4917417e-04  -1.1564989e-03   6.7435019e-04   3.8448785e-04  -5.3675048e-04  -9.8128308e-05  -8.4978680e-04   2.4988796e-04  -9.5379964e-04
  -3.1636070e-04  -2.2914249e-04  -4.4754337e-04  -2.1474858e-04  -4.1783028e-04   2.1393197e-04  -3.5933417e-04  -3.9744901e-04  -1.9861730e-03  -2.4887465e-04  -1.0400505e-03  -2.4942172e-04  -5.0426886e-04  -4.1502982e-04  -1.7413456e-04   7.0283784e-07  -1.7031925e-04  -2.8052999e-04  -9.0155978e-04   3.5089186e-06   5.9890142e-04   9.1418513e-04  -5.5950106e-04  -2.4745255e-04   1.6750131e-05  -4.2046283e-04  -6.3898182e-04   3.0836556e-04  -3.2545402e-04   3.8347350e-04   7.6290697e-04   1.3620142e-04   1.1412185e-03  -2.1276261e-04  -1.8227039e-03   5.8558973e-04   1.1113412e-03   2.2310471e-05   1.2949892e-04  -1.1331170e-03  -1.4091179e-03  -5.5895397e-04  -1.3939644e-03  -1.6575633e-03   1.3007171e-04  -1.7079008e-03  -3.0345106e-04  -1.1569847e-03  -2.5019184e-04  -1.1070918e-03
  -6.1885023e-04  -5.0387002e-04  -7.0030213e-04  -6.0113124e-04  -8.5190090e-04  -6.7219662e-04  -7.0605578e-04  -6.4893049e-04  -3.2437565e-03  -6.3591031e-04  -1.2764002e-03  -4.3416017e-04  -9.6320611e-04  -6.6360197e-04  -2.4431504e-04  -4.2699024e-04  -6.1741431e-04  -6.3493551e-04  -3.5358737e-03  -5.3711858e-04   2.5737030e-04   4.9397763e-04  -9.8204019e-04  -5.3822563e-04  -1.3219150e-03  -7.4379379e-04  -6.2301016e-04   1.4573972e-05   2.4330201e-04   1.6043989e-04   2.3960891e-04  -9.8943477e-04   9.5889153e-04  -6.6505437e-04  -8.9237391e-04  -6.4923731e-04  -6.3817989e-04  -1.1612524e-03  -1.2976716e-04  -5.9161946e-04  -1.7451548e-03  -8.8286196e-04  -1.9808973e-03  -1.4523555e-03  -2.2984545e-04  -1.3861132e-03  -6.0396537e-04  -1.5047211e-03  -4.6102252e-04  -1.5434060e-03
  -8.4361486e-04  -8.4786967e-04  -1.0006452e-03  -6.6937745e-04  -3.3981231e-04  -5.4276804e-04  -1.2885218e-03  -9.3109976e-04   3.5322158e-04  -7.5413735e-04  -1.6709469e-03  -5.4237654e-04  -1.1418464e-03  -1.0942983e-03  -2.7643982e-04  -6.4799155e-04  -8.2192646e-04  -8.2495506e-04   2.4436309e-03  -2.5640157e-04   5.7056238e-04   8.9456374e-04  -8.3325745e-04  -4.5192052e-04  -9.1427582e-04  -9.0164965e-04  -2.5556455e-04   1.7067976e-04   4.5790611e-04  -1.3438871e-04   3.5138457e-04  -5.1358347e-06   1.6246436e-03  -1.8853784e-04   8.9587127e-05  -5.1364404e-05   3.2845939e-05  -2.0886588e-04   6.2213039e-05  -2.8232639e-04  -9.9277159e-04  -4.8709055e-04  -1.3519691e-03  -8.2209863e-04   3.6820571e-04  -1.0504932e-03  -1.9266081e-04  -1.0490800e-03   2.4542804e-05  -9.9224504e-04
  -2.9485609e-04  -2.1434689e-04  -4.7698972e-04  -5.8175534e-05  -3.1641207e-04  -2.0690584e-04  -1.9463419e-04  -3.7185501e-04   5.0578505e-04  -2.6285899e-04  -1.0249995e-03  -2.5621982e-04  -5.5315206e-04  -4.3157706e-04  -2.2252917e-04  -2.2777927e-04  -3.3847219e-04  -2.9064712e-04   3.0070345e-03   2.3257226e-05   6.9283292e-04   1.1291902e-03  -3.6063362e-04  -1.1034073e-04   1.1146084e-03  -4.9057713e-04  -6.8239414e-04  -2.4981619e-04   1.8096896e-05   4.3821780e-04  -6.3699391e-04  -3.2430721e-04   1.2950808e-03  -6.1433442e-05  -4.6046983e-04  -4.6819527e-04   6.1952119e-04  -1.4763128e-04   2.3114687e-04  -1.5904292e-04  -1.0456644e-03  -5.0740520e-04  -1.5490146e-03   3.6105281e-04   1.5062177e-04  -1.2942440e-03  -2.1542635e-04  -1.1162310e-03   2.5230300e-04  -8.7545696e-04
  -7.0266187e-04  -3.4922457e-04  -8.0077484e-04  -1.5758698e-04   4.6680943e-05  -6.2823930e-04  -8.2613528e-04  -5.7324092e-04  -7.5740053e-04  -4.0965236e-04  -1.1835991e-03  -3.0732708e-04  -6.2107609e-04  -5.3413917e-04  -5.2473770e-04  -2.5861122e-04  -4.4282124e-04  -5.0837267e-04  -2.2266831e-03  -2.6291254e-04   4.9223664e-04   9.8719681e-04  -8.3004235e-04  -2.7983059e-04  -8.2055805e-04  -7.4876391e-04  -6.0337159e-04   5.3302974e-06   1.2120645e-04   1.5323011e-04   3.8308109e-04  -3.8929319e-04   9.1280864e-04  -3.7013929e-04  -1.5038295e-03  -3.6567461e-04  -3.9774959e-04  -5.7775824e-04  -2.5963549e-05  -3.6498319e-04  -1.5700125e-03  -7.9320621e-04  -1.8303982e-03  -7.1645525e-05  -9.0212241e-05  -1.4777693e-03  -4.7213031e-04  -1.4334141e-03  -1.8808998e-04  -1.1430188e-03
  -6.5288832e-04  -6.4055098e-04  -8.0588262e-04  -5.4354459e-04  -1.3766275e-03  -2.8585776e-04  -8.1445550e-04  -6.9682649e-04  -3.1774289e-03  -8.0288219e-04  -1.5775901e-03  -5.2695267e-04  -9.6769247e-04  -9.1622246e-04  -8.3906896e-04  -5.8167760e-04  -8.9069334e-04  -7.3514995e-04  -6.2935832e-03  -7.2344561e-04   1.6796864e-04   4.6015219e-04  -1.1083343e-03  -5.7058356e-04  -1.5358938e-03  -9.2388107e-04  -6.5122434e-04   1.3294358e-04  -3.3218210e-04  -2.5321811e-04  -1.1638629e-03  -4.3730231e-04   4.4050449e-04  -9.2160312e-04  -1.6052508e-03  -4.9947406e-04  -6.8697671e-04  -3.1976515e-04  -3.6772990e-04  -8.9701184e-04  -2.2224027e-03  -1.0529036e-03  -2.1278334e-03  -4.6156484e-04  -3.8730149e-04  -1.7464072e-03  -6.8979483e-04  -1.6106347e-03  -6.1869167e-04  -1.3100383e-03
  -6.5513287e-04  -7.7775086e-04  -8.6940674e-04  -6.0579466e-04  -8.7336270e-04  -3.1598171e-04  -7.2181749e-04  -6.6400558e-04   2.7439874e-04  -3.3264697e-04  -1.1931618e-03  -3.7701428e-04  -7.9655257e-04  -7.7579200e-04  -4.5357901e-04  -3.3818127e-04  -5.2810891e-04  -5.5558840e-04   1.7173976e-03   1.4465080e-05   6.5983325e-04   1.1024247e-03  -4.8951257e-04  -2.2520324e-04  -2.4074415e-04  -6.3711859e-04  -4.3499557e-04   2.0886678e-04  -2.3075094e-04   2.1874730e-04  -1.5226562e-04   4.0169467e-05   1.1422345e-03  -4.5433758e-06  -1.5207282e-03  -1.1697398e-03   7.4338366e-04  -2.4223159e-04   1.4012368e-04  -1.1908867e-03  -1.3423347e-03  -5.7005603e-04  -1.4679312e-03  -2.0349885e-03   7.5219927e-05  -1.0549654e-03  -3.1003859e-04  -1.1798940e-03   4.7151800e-05  -8.8214420e-04
  -2.2915892e-04  -3.3328208e-04  -6.7009969e-04  -2.8320376e-04  -2.5164985e-04  -7.6273383e-05  -4.6488005e-04  -4.1624109e-04   8.3087932e-04  -3.5758139e-04  -1.2193812e-03  -3.3371249e-04  -6.0247397e-04  -5.2700413e-04  -1.8760256e-05  -2.5742050e-04  -4.0918551e-04  -3.8959397e-04  -7.4290560e-04  -2.0826152e-05   6.4425380e-04   1.0449941e-03  -9.4593427e-04  -2.7217879e-04  -8.3264417e-04  -5.9423631e-04  -5.4943096e-04  -2.7642096e-04   1.4973454e-05   2.7759565e-04   1.0399498e-03   2.0387241e-04   1.0821407e-03   2.9054130e-05   4.3899658e-05   1.0569743e-05   6.0452434e-04  -3.5184679e-05  -1.4529094e-05  -4.9920840e-04  -1.3438947e-03  -6.5990910e-04  -1.5297768e-03  -2.0325393e-04   1.1055260e-04  -1.0336423e-03  -3.7547210e-04  -1.2686370e-03  -3.5330621e-04  -8.5252762e-04
  -1.0196454e-03  -5.8571354e-04  -6.3941366e-04  -5.5973756e-04  -7.8722870e-04  -3.6460042e-04  -1.0887256e-03  -5.9465284e-04  -3.4971386e-03  -6.3383859e-04  -1.3578510e-03  -4.5796912e-04  -8.3082146e-04  -7.3635962e-04  -2.5143669e-04  -4.2134564e-04  -7.1487465e-04  -4.9758615e-04  -2.2976103e-03  -5.6013331e-04   3.1944041e-04   6.2825251e-04  -9.3474041e-04  -5.1250216e-04  -4.0324172e-04  -8.8092365e-04  -8.5968000e-04   9.5280215e-05  -8.1934361e-04  -1.8955559e-05  -1.2328430e-03  -8.9178805e-04   4.3636066e-04  -7.7159068e-04  -1.0201657e-03  -2.9427905e-04   2.6047329e-04  -5.1583472e-04  -2.1862362e-04   2.3258310e-04  -1.6604968e-03  -9.5330545e-04  -1.9954671e-03   1.9304686e-04  -3.3677247e-04  -1.6167868e-03  -6.6628435e-04  -1.5705492e-03  -5.9539184e-04  -1.2757319e-03
  -6.5145997e-04  -8.2800951e-04  -1.3050735e-03  -6.7585876e-04  -8.5946562e-04  -6.1856513e-04  -1.4109415e-03  -5.0704437e-04   1.1569924e-03  -9.6371747e-04  -1.6818204e-03  -5.9314008e-04  -1.1831744e-03  -1.0905195e-03  -8.6631760e-04  -9.0849103e-04  -1.2006783e-03  -9.4080373e-04  -1.8961247e-03  -9.1503735e-04  -9.1707525e-06   1.1819259e-04  -1.1588804e-03  -7.4681948e-04  -9.2855952e-04  -1.3962381e-03  -8.4131968e-04  -3.3354547e-04  -6.3301984e-04  -1.7824247e-04  -1.4065125e-03  -1.6889549e-04   5.1886396e-04  -1.0143194e-03  -7.0747040e-04  -1.3311144e-03  -3.6306097e-04  -6.2658085e-04  -3.3997410e-04  -3.5049656e-04  -1.4999958e-03  -8.8906498e-04  -1.8684242e-03   4.2309461e-04  -2.6210277e-05  -9.3272165e-04  -4.7290715e-04  -1.3171015e-03  -1.8113022e-04  -9.7368914e-04
  -5.9945614e-04  -4.7253771e-04  -7.9089368e-04  -4.1315649e-04  -4.4271574e-04  -1.1273228e-04  -6.2598742e-04  -6.4188120e-04   8.6722668e-04  -3.6777451e-04  -1.0003276e-03  -3.3143791e-04  -7.7125494e-04  -5.1166851e-04  -2.7365511e-04  -4.2890047e-04  -4.7886826e-04  -3.9437454e-04  -1.5323005e-03  -1.3292214e-04   6.2347110e-04   1.0591100e-03  -4.0969101e-04  -3.3177523e-04  -4.2781941e-04  -6.7054160e-04  -4.2806467e-04   7.7411016e-05  -1.1481327e-04   2.4166783e-04   5.4134591e-04  -3.6476718e-04   6.4173591e-04  -4.6016902e-04  -7.3755952e-04   4.2670980e-04  -4.0460107e-04  -1.7275296e-04   3.4734145e-05   3.4968270e-04  -1.1444379e-03  -6.9905003e-04  -1.6424714e-03  -3.4103825e-04   1.0646121e-04  -1.2769527e-03  -3.7123854e-04  -1.1572806e-03  -4.2345509e-05  -8.0777030e-04
  -7.9403202e-05  -4.1540965e-04  -7.1336637e-04  -2.3781549e-04  -3.5213755e-04  -9.6393102e-05  -2.3445333e-04  -2.8340542e-04   7.9009176e-04  -4.6920587e-04  -1.2584589e-03  -3.6665320e-04  -6.7448942e-04  -6.2567083e-04  -4.7618046e-04  -3.7155190e-04  -5.3473766e-04  -5.1563606e-04  -1.2566162e-03  -1.4181896e-04   5.1899051e-04   9.3217910e-04  -6.9534831e-04  -3.3277940e-04   2.6672421e-04  -7.6801231e-04  -5.6426477e-04  -3.9901730e-04  -6.5528660e-04   7.5862241e-05  -5.8301090e-04  -5.7980529e-04   9.0543937e-04  -1.6858306e-04   8.9318295e-05  -5.6779285e-05   1.0565494e-03  -4.5401356e-04  -3.4361578e-06   1.4112459e-04  -1.4676671e-03  -8.4713590e-04  -1.8723940e-03  -8.4031787e-04   3.8426253e-05  -8.8911277e-04  -5.0808029e-04  -1.4635907e-03  -2.1464798e-04  -1.0000347e-03
  -5.2970485e-04  -6.6876510e-04  -1.0178244e-03  -6.4067886e-04  -6.4351695e-04  -2.2340174e-04  -9.9325285e-04  -9.8457548e-04  -4.5328349e-04  -8.1350084e-04  -1.3877098e-03  -5.2194734e-04  -1.1217024e-03  -9.1836171e-04  -9.5003325e-04  -6.9369533e-04  -7.5457181e-04  -7.6336693e-04   8.0997695e-04  -7.3142222e-04   1.8934258e-04   4.8408663e-04  -1.4263899e-03  -6.7803444e-04  -1.5963794e-03  -1.1661449e-03  -7.2682602e-04  -1.8221044e-04  -5.9237110e-04   7.2631476e-05  -3.1462329e-04  -1.2720128e-03   2.8387038e-04  -9.6602784e-04  -1.5832387e-03  -1.5774405e-03   4.9380807e-04  -1.0160744e-03  -3.1047023e-04  -7.7953807e-04  -2.2826688e-03  -1.0803195e-03  -2.1346624e-03  -2.9354746e-04  -2.6251079e-04  -2.7405114e-03  -7.9274271e-04  -1.7037203e-03  -5.6349672e-04  -1.3810440e-03
  -5.7902781e-04  -9.3845476e-04  -1.2634328e-03  -9.9288858e-04  -7.6027180e-04  -3.3700827e-04  -1.2965830e-03  -1.1045487e-03  -6.9838078e-03  -7.1357650e-04  -1.6650752e-03  -5.7884038e-04  -1.0445928e-03  -1.0838504e-03  -6.9592433e-04  -6.7839894e-04  -9.0455997e-04  -8.5602148e-04  -7.2904484e-04  -2.4990417e-04   5.4991769e-04   9.6787873e-04  -7.9899054e-04  -4.7234778e-04   5.7301546e-05  -9.9627918e-04  -9.9196017e-04   3.6616079e-04  -6.6850553e-05   7.9410878e-05  -3.6391837e-05  -1.0053996e-04   6.9241854e-04  -1.4062291e-04  -3.2498129e-04   1.3078005e-03   5.1930454e-04  -2.3106750e-04  -1.9465602e-05   1.5084847e-04  -1.2034306e-03  -6.8245106e-04  -1.5231624e-03   4.5152145e-04   1.7889007e-04  -7.5652555e-04  -3.6752690e-04  -1.1053631e-03   2.8105247e-05  -7.6725706e-04
  -1.5206513e-04  -2.9729199e-04  -1.0035640e-03  -2.9646439e-04  -5.2153511e-04  -3.5816131e-04  -5.1870244e-04  -8.7505020e-04  -1.2008678e-03  -4.2086822e-04  -1.1448393e-03  -3.9649132e-04  -8.1948767e-04  -5.5762363e-04  -3.3109271e-04  -3.5178935e-04  -5.6461495e-04  -3.2701771e-04   9.5649034e-04  -5.8539415e-05   5.7602191e-04   9.8535791e-04  -5.0589995e-04  -3.4360081e-04  -1.1579350e-03  -7.5298263e-04  -7.2093133e-04   1.8639999e-04  -1.0859755e-04   2.9233136e-04  -2.1859322e-04   4.9708597e-04   8.1555953e-04  -1.1434366e-04  -2.8744235e-03  -7.4640103e-04   2.6086829e-05  -1.7847365e-04   1.5420568e-05  -4.9421327e-05  -1.3835923e-03  -6.9708755e-04  -1.5613264e-03   8.1757598e-06  -1.2320943e-06  -1.3922330e-03  -3.6444506e-04  -1.2351262e-03  -2.2083243e-04  -8.4396556e-04
  -5.8058865e-04  -4.3263796e-04  -3.2752493e-04  -1.9313002e-04  -1.0109235e-03  -5.2820728e-04  -5.5643317e-04   4.1590876e-05  -4.4571303e-04  -6.1459281e-04  -1.2731547e-03  -4.6158704e-04  -9.9543307e-04  -6.3390000e-04  -2.8227223e-04  -4.3061108e-04  -6.0611736e-04  -6.1694864e-04   1.3658192e-03  -4.8375083e-04   3.6117589e-04   7.9945801e-04  -9.5007732e-04  -5.8137579e-04  -3.5696907e-04  -8.8993582e-04  -5.3730159e-04   3.6741483e-05   4.3856318e-05   2.7438322e-05  -2.7938874e-03  -1.4652845e-03  -2.4802290e-04  -8.6620264e-04   9.1221294e-04  -7.1408192e-04  -9.2401711e-04  -4.6072601e-04  -1.1917079e-04  -5.7262013e-04  -1.9515351e-03  -9.9967327e-04  -2.1614893e-03  -7.8093004e-04  -3.4907323e-04  -1.4966934e-03  -6.3567364e-04  -1.4570130e-03  -2.4795640e-04  -1.1265170e-03
  -3.6153992e-04  -7.2499667e-04  -1.1621893e-03  -7.2676042e-04  -5.8969075e-04  -6.8019371e-04  -1.1427257e-03  -7.5307721e-04  -1.4929221e-03  -9.9598616e-04  -1.5606518e-03  -6.3790282e-04  -1.2530596e-03  -9.4322651e-04  -6.0452666e-04  -7.3130970e-04  -8.3476142e-04  -8.3762390e-04  -3.3191619e-03  -7.7740074e-04   4.8588816e-05   3.1427870e-04  -1.3410781e-03  -7.6247565e-04  -4.8993854e-04  -1.2722784e-03  -7.4199401e-04  -2.4008361e-04  -3.9063583e-04  -8.9447829e-05  -1.6207306e-03  -6.9580739e-04   2.5200003e-04  -9.3038555e-04   7.8087189e-04   8.9137648e-06   5.5262086e-04  -6.5072573e-04  -1.4332520e-04  -1.2082796e-05  -2.0941666e-03  -1.0817873e-03  -2.2282552e-03  -2.2507422e-03  -5.4331013e-04  -1.9359085e-03  -6.1310013e-04  -1.4407274e-03  -4.5122032e-04  -1.1249451e-03
  -5.5900885e-04  -6.2191347e-04  -8.2680967e-04  -5.8946264e-04  -9.5253595e-04  -5.2758591e-04  -6.4100616e-04  -6.9687545e-04  -1.1021401e-03  -3.9929664e-04  -1.2433018e-03  -4.3614503e-04  -8.1321585e-04  -4.9888011e-04  -4.1173134e-05  -4.1781817e-04  -4.1348676e-04  -4.1878951e-04  -1.5041388e-03   1.2154856e-05   6.1983935e-04   1.1534785e-03  -7.5733138e-04  -3.5014973e-04  -9.1039325e-04  -5.6096475e-04  -7.2943122e-04   4.5914447e-04  -5.6524633e-04   1.4719595e-04   1.7984925e-03   6.2783295e-04   1.1767478e-03  -3.7505855e-05   3.8835802e-04  -6.0427989e-05   5.5698998e-05  -2.1902610e-04   1.0984214e-04   1.3503173e-04  -9.0841035e-04  -6.7000970e-04  -1.3852583e-03  -2.3473473e-03   7.7372904e-05  -6.0392637e-04  -3.1632284e-04  -1.1244373e-03   2.2502005e-04  -8.1006641e-04
  -5.5489055e-04  -2.6752430e-04  -3.9630628e-04  -2.3492333e-04  -2.6521753e-04   6.3812338e-05  -7.7583280e-04  -6.1801373e-04  -1.6436187e-03  -4.0418367e-04  -1.0906809e-03  -4.2246387e-04  -5.9722975e-04  -3.8787769e-04  -5.5465562e-04  -3.3159959e-04  -3.9725378e-04  -2.8713810e-04  -1.7040917e-03  -3.3753808e-05   5.6738872e-04   9.7186014e-04  -5.5922405e-04  -3.7346294e-04  -2.4449723e-03  -6.5085979e-04  -6.1042741e-04   3.8655574e-04  -5.3500652e-04   2.8678949e-04   4.7908651e-04   1.1272608e-04   1.3991564e-03  -5.9792070e-05  -1.1518527e-03  -1.4226167e-03  -9.9150883e-04  -8.5312924e-05  -8.8620573e-06  -1.9517211e-05  -1.6655052e-03  -7.7007757e-04  -1.7242769e-03  -8.1279475e-05   1.9614001e-04  -6.5125118e-04  -4.0793847e-04  -1.2542505e-03  -4.4568058e-04  -9.7292929e-04
  -5.9616769e-04  -4.8623123e-04  -6.9657661e-04  -5.0261279e-04  -7.8860822e-04  -7.4416253e-04  -6.6123245e-04  -6.1325653e-04   1.0252707e-03  -7.3359034e-04  -1.2507568e-03  -5.1868299e-04  -8.3809142e-04  -7.0244161e-04  -5.8603345e-04  -3.7632624e-04  -7.2320714e-04  -5.9659220e-04  -1.5042928e-03  -4.1798435e-04   2.4961255e-04   6.2276231e-04  -1.1784323e-03  -6.3447631e-04  -5.9483363e-04  -1.0823666e-03  -6.1839854e-04  -2.5376843e-04  -3.3117787e-04  -5.4018084e-05  -2.5286034e-04   2.7077459e-04   9.6246100e-04  -6.0615403e-04   6.5656764e-05  -2.9986291e-04  -1.3113380e-03  -5.6380680e-04  -1.3352805e-04  -1.1283895e-03  -1.9226877e-03  -1.0114193e-03  -2.0599773e-03  -1.1816124e-03  -1.0070730e-04  -6.6358759e-04  -6.5918156e-04  -1.5716648e-03  -6.6607806e-04  -1.2562037e-03
  -1.1467434e-03  -6.6703331e-04  -9.9683192e-04  -7.4629969e-04  -1.0751731e-03  -4.8073209e-04  -1.2506228e-03  -6.0041802e-04  -2.7454065e-03  -1.0377696e-03  -1.5402472e-03  -7.0204574e-04  -1.1693180e-03  -9.7344263e-04  -9.9390710e-04  -8.2593522e-04  -1.0165105e-03  -8.8534545e-04  -3.6754290e-04  -6.0611771e-04   2.7085494e-04   6.5575808e-04  -7.7572279e-04  -5.9673545e-04  -1.0322500e-03  -1.3352599e-03  -9.3877991e-04  -1.2032186e-04  -7.2906405e-05  -1.9967686e-04   6.9789408e-04  -5.8156939e-04   8.4715523e-04  -3.5764027e-04  -1.4874717e-03   2.3483283e-04  -3.8191289e-04  -5.1038014e-04  -3.4392451e-05  -4.9478520e-04  -1.1762716e-03  -7.0868654e-04  -1.5128214e-03   1.0381705e-03   3.5084624e-05  -7.9550280e-04  -3.0106405e-04  -1.0507707e-03   2.4960365e-04  -8.7126350e-04
  -1.3676865e-04  -1.5847159e-04  -3.8673056e-04  -1.4360726e-04   1.3113928e-04   6.6649588e-04  -1.5718855e-04  -2.8993722e-04  -1.7538524e-03  -3.3256999e-04  -9.3984825e-04  -3.4658608e-04  -4.8746562e-04  -5.0414115e-04  -3.7086580e-04  -2.7843803e-04  -2.7084808e-04  -2.2494742e-04  -2.2500914e-03   7.1932285e-05   6.1007484e-04   1.1729882e-03  -7.9190335e-04  -2.0271399e-04  -1.9037932e-04  -6.5407256e-04  -5.4779812e-04   5.6794775e-04  -1.6058500e-04   2.1220371e-04  -1.0011418e-03   4.3485785e-04   6.1319082e-04  -1.4313254e-05  -8.7129429e-04  -2.0169238e-04   6.1083835e-04  -4.5204439e-04   9.3404051e-05  -8.0889331e-05  -1.3751483e-03  -6.1464868e-04  -1.5704347e-03   5.0734630e-04   3.8558067e-04  -1.0367264e-03  -2.3411850e-04  -1.0517436e-03   1.5864358e-04  -7.5338961e-04
   2.1255440e-04  -2.6888281e-04  -3.9743976e-04  -4.5120676e-05  -7.3389354e-04  -7.6840006e-05  -6.2170241e-04  -3.6875621e-04  -1.3613396e-03  -5.0508894e-04  -1.1573915e-03  -4.1256769e-04  -6.7496882e-04  -4.7704650e-04  -1.3790578e-04  -1.9150585e-04  -4.3128614e-04  -3.6474492e-04  -3.7047747e-03  -2.0316387e-04   4.4762305e-04   9.7184995e-04  -1.0709928e-03  -4.2913278e-04  -3.6400868e-04  -8.8701083e-04  -5.4561149e-04   1.8897829e-04  -4.9682730e-04   2.8782763e-04   1.8240889e-03   4.6749177e-05   1.2837533e-03  -1.0998108e-04  -1.3356446e-05  -4.0108091e-04  -5.7685189e-04  -4.3097517e-04  -7.3881289e-05  -3.4498930e-04  -1.8157768e-03  -8.1488263e-04  -1.7368696e-03  -3.9943692e-04  -2.6681590e-07  -2.1968507e-03  -4.5345750e-04  -1.3505761e-03   5.2932537e-05  -9.5182168e-04
  -5.1686360e-04  -5.4598076e-04  -7.9247955e-04  -5.6132535e-04  -2.7401739e-04  -6.1899127e-04  -9.2478655e-04  -2.9419808e-04  -2.1522683e-03  -8.5306604e-04  -1.3122656e-03  -5.8240641e-04  -1.0286079e-03  -8.1873580e-04  -2.3306238e-04  -5.3127331e-04  -7.7960367e-04  -5.7791907e-04   6.3406996e-04  -6.3598715e-04   1.3057076e-04   4.8239579e-04  -1.3467332e-03  -7.1971776e-04  -9.2427793e-04  -1.2759862e-03  -7.6605321e-04  -6.0656479e-05  -1.1968756e-04  -4.0672570e-05  -4.8356745e-04  -4.2423123e-04   5.3154799e-04  -9.4597595e-04   1.1805262e-03   4.5087459e-04   8.2678773e-04  -2.5334391e-05  -5.1164361e-06   7.1079825e-04  -2.0248548e-03  -1.1163434e-03  -2.2550023e-03  -3.0184728e-03  -4.5240793e-04  -2.5607783e-03  -6.1507901e-04  -1.4393544e-03  -3.4463752e-04  -1.0229535e-03
  -7.6569087e-04  -5.3070061e-04  -5.1255286e-04  -4.3196604e-04  -5.6998013e-03  -1.2293131e-03  -1.5748414e-03  -1.3619164e-03  -3.1597764e-04  -4.3803037e-04  -1.1983098e-03  -4.2202135e-04  -6.6802360e-04  -6.3329650e-04  -2.3309783e-04  -4.2356891e-04  -4.4212199e-04  -4.2165592e-04  -6.8407711e-03   3.0616844e-05   6.3441030e-04   1.1541664e-03  -5.4381927e-04  -4.3553414e-04  -7.3354377e-04  -7.5381208e-04  -2.2093859e-03  -3.1237365e-04  -1.0633828e-03  -5.1654794e-04  -1.4953415e-03  -5.4852269e-04   1.4578309e-03  -1.2580166e-04   7.2898911e-05  -4.4520438e-04   4.2290831e-04  -3.0477313e-04   2.0517367e-04   2.5987200e-04  -9.7578357e-04  -6.8651122e-04  -1.5914423e-03   6.5295229e-04   9.9777215e-05  -4.7821621e-04  -2.3465330e-04  -1.0422522e-03   2.1889430e-04  -5.2759476e-04
  -4.9471803e-04  -1.7430022e-04  -6.3713157e-04  -1.3208535e-04  -6.0463062e-06  -1.9231720e-05  -1.0351728e-04  -5.4836122e-04  -2.2358762e-03  -3.7194311e-04  -8.3362684e-04  -3.5322297e-04  -3.6259473e-04  -3.2157995e-04  -2.4604314e-04  -2.0277649e-04  -2.7233179e-04  -1.2893473e-04  -1.0861682e-03   9.4613781e-05   5.5772136e-04   1.2004863e-03  -8.3635747e-04  -2.6625546e-04   2.6786790e-04  -8.3744625e-04  -5.1120290e-04  -7.3567542e-05  -1.6150787e-04   3.9937647e-04   9.5517322e-04   3.6987796e-04   1.7809661e-03  -1.9266674e-05   5.2423321e-04  -4.9999740e-04   1.1805401e-03  -4.0578685e-04   1.7589709e-05   4.7251426e-05  -1.4539340e-03  -7.5895275e-04  -1.6617943e-03  -1.0764181e-03   5.0191091e-05  -3.6513078e-04  -3.1069771e-04  -1.1389462e-03   1.5695661e-04  -5.2937923e-04
  -1.3953485e-04  -3.4997205e-04  -6.1026227e-04  -2.6368225e-04  -5.4788037e-04  -3.3003671e-04  -5.6172622e-04  -2.6113359e-04  -3.3423356e-03  -6.5472454e-04  -1.1298843e-03  -4.6514880e-04  -6.7602878e-04  -4.6670565e-04  -3.8439277e-04  -3.7378757e-04  -4.6952319e-04  -4.3788448e-04   4.3037790e-03  -3.2494898e-04   2.1455958e-04   6.9651264e-04  -8.2124583e-04  -6.1990932e-04  -8.9734170e-04  -9.2136610e-04  -5.6846224e-04  -1.5140005e-04  -6.2725670e-04  -8.0485639e-05  -1.3374373e-03   2.5874553e-05   4.3596604e-04  -3.2353340e-04  -1.5038672e-03  -7.6438766e-04   3.2432601e-04  -7.4452249e-04  -1.2604127e-04  -5.6386815e-04  -1.3898477e-03  -9.5006474e-04  -1.8069828e-03  -1.2315937e-03  -1.5136552e-04  -7.9855736e-04  -5.7141861e-04  -1.2792001e-03  -3.6806901e-04  -8.3665189e-04
  -5.0720089e-04  -6.1985641e-04  -1.0053236e-03  -7.1912928e-04  -1.0222010e-03  -5.0607405e-04  -1.0394941e-03  -4.1061710e-04   2.1659974e-03  -7.6995743e-04  -1.2128543e-03  -6.0032407e-04  -8.8016957e-04  -8.3822792e-04  -5.9627747e-04  -4.7255005e-04  -6.5948127e-04  -7.2178856e-04   1.5135515e-03  -1.3317991e-04   3.9274208e-04   7.6354091e-04  -4.9655570e-04  -4.3025523e-04  -6.8972708e-04  -5.9890299e-04  -5.0462532e-04  -1.6653522e-04  -5.2304519e-04   5.4853095e-05  -7.1886764e-04   4.3230754e-04   9.6620328e-04  -1.4630216e-04  -1.8507330e-05  -1.4597386e-04  -2.1779802e-04  -4.1734648e-04   1.2918023e-04   1.1669873e-03  -6.6837593e-04  -4.6083433e-04  -7.4592698e-04   4.2766449e-04   1.8546463e-04  -1.1404631e-04  -1.1574945e-04  -6.6095521e-04   3.4097102e-04  -3.1801951e-04
  -2.8084056e-04  -1.2313851e-04  -3.1630168e-04   9.4545903e-05  -1.0943243e-05   5.2793673e-04  -2.6149367e-04  -4.2917050e-04   9.9393178e-04  -3.9336114e-04  -5.9283088e-04  -4.1121591e-04  -3.9630148e-04  -1.7299820e-04  -3.4736906e-04  -1.9450222e-04  -1.2412567e-04  -1.3510193e-04  -2.4907391e-03   3.4228891e-05   4.1451168e-04   8.1105821e-04  -2.0951840e-04  -4.1428977e-04  -1.5074124e-03  -3.4715421e-04  -3.7259041e-04   7.6711309e-05  -3.7901406e-04   2.3997016e-04   1.5744462e-04   2.9840023e-04   7.4234529e-04  -5.3389034e-05  -1.9994227e-04   1.0617069e-03   1.1906788e-03   6.4848165e-05   1.5467360e-04   6.9305074e-04  -1.2302425e-04  -4.3327498e-04  -6.8728998e-04  -9.6705341e-04   2.5535902e-04  -7.3823985e-04  -6.3579515e-05  -4.9190933e-04   9.4925526e-05  -3.5424353e-04
  -7.8530819e-04  -2.6020632e-04  -2.1111128e-04  -1.7997126e-04   1.9958163e-04  -7.3726161e-04  -6.4443250e-04  -1.7343224e-04  -1.8315041e-03  -4.7287697e-04  -7.1400969e-04  -4.3816803e-04  -6.7906152e-04  -3.9500382e-04  -4.1517382e-04  -1.5067244e-04  -2.6468918e-04  -1.3820495e-04   2.1623816e-04  -2.0135524e-04   1.5570520e-04   3.3724317e-04  -4.5873469e-04  -5.6416547e-04   2.7755616e-04  -4.1212246e-04  -4.2290377e-04  -1.8402068e-04  -2.8827003e-06   1.2766996e-04  -6.0141273e-04   2.8140584e-04  -1.1732825e-04  -3.2017354e-04  -3.7025291e-04   6.6115701e-04   3.1729342e-04  -3.1866113e-04  -1.2668289e-04   3.6879439e-05  -7.8509917e-04  -5.4180506e-04  -8.4756914e-04  -1.1521441e-04  -6.4935499e-05   5.8441467e-05  -2.3563622e-04  -6.6315098e-04  -4.0399795e-04  -4.6889190e-04
  -8.0837827e-04  -5.4653973e-04  -7.6784735e-04  -5.4991973e-04  -4.4830242e-04  -6.2619086e-04  -8.3980564e-04  -9.6288451e-04   3.6922656e-04  -7.8798248e-04  -1.0269000e-03  -5.5637927e-04  -8.5579517e-04  -6.0490228e-04  -4.2037669e-04  -5.1777385e-04  -6.1451312e-04  -5.4902176e-04  -5.7103520e-04  -6.0415972e-04  -2.0984016e-04  -1.8306688e-04  -8.5475302e-04  -8.1405108e-04  -8.2249352e-04  -7.6565897e-04  -4.9147755e-04  -1.1766414e-04   2.2316324e-04  -3.6573556e-04  -4.9868145e-04  -3.1766098e-04   1.8543632e-04  -5.9092662e-04  -2.3893428e-03  -9.6020824e-04  -2.1927185e-06  -5.9491710e-04  -3.1563453e-04  -2.9082850e-04  -8.9194294e-04  -6.6795800e-04  -7.8250177e-04   3.5045281e-04   7.3482290e-05  -3.2644218e-04  -1.2909515e-04  -4.6715492e-04  -5.7275713e-05  -4.1227377e-04
  -6.5238669e-04  -3.3634200e-04  -4.6127470e-04  -1.0090564e-04  -3.5955978e-04  -4.1839294e-04  -8.0898887e-04  -5.5899477e-04   5.6800549e-03  -1.4712478e-04  -3.9925432e-04  -3.3622474e-04  -4.5601162e-04  -9.9794714e-05  -4.1323510e-04  -1.0175263e-04  -1.5523937e-04  -1.4684838e-04   1.7446469e-03   3.0284759e-04   4.5713142e-04   7.0409069e-04  -2.0489558e-04  -1.8339328e-04   1.2716631e-04  -2.0206551e-04  -2.6976923e-04  -4.8414725e-04  -1.5044006e-04   3.0312320e-04   9.5344160e-04  -2.3395874e-04   9.0022216e-04   2.4596535e-04  -1.6856855e-03  -6.3400267e-04   4.8625072e-05  -1.9557857e-04   9.6445103e-05   1.5131143e-03   4.9787846e-05  -2.9193528e-04  -2.6878464e-04  -5.1449769e-04   7.1176044e-05  -1.4479867e-04   1.4214389e-04  -1.1978931e-04   2.5703025e-04   5.8751324e-05
  -9.3582482e-04  -8.8740213e-05  -4.1005982e-04   1.5411036e-04  -7.5854105e-04  -8.6561740e-05   4.0797755e-04  -3.1359025e-04   4.7014295e-03  -2.0542058e-04  -3.1957051e-04  -3.0473070e-04  -3.9374002e-04   6.3740452e-05  -3.5938079e-04   1.3687919e-04  -1.6400240e-04   1.4886355e-05  -1.4227664e-03   1.4375405e-04   3.6705312e-04   5.1747641e-04  -3.0341340e-04  -3.4290942e-04  -6.0464273e-04   3.7796777e-05  -2.4510815e-04  -4.3167986e-04  -2.6878429e-04   2.7261407e-04  -1.6330978e-03   7.0077414e-04   6.3136790e-04  -1.1491084e-04   2.6188069e-04   1.7221192e-04   3.2825556e-04  -1.8955757e-04   7.4076204e-05  -2.8535799e-04  -1.1297657e-05  -3.4102384e-04  -4.7321795e-04   1.5327549e-03   1.1393607e-04  -5.0621496e-05   7.6027944e-05  -2.2133431e-04   1.4666102e-05  -2.5108666e-04
  -1.5835061e-05  -2.4442983e-04  -6.0846604e-04  -1.7211698e-04  -1.5674972e-04  -4.2632071e-04  -3.8048835e-04  -1.5682301e-04  -4.5048604e-03  -4.7140100e-04  -5.7867076e-04  -3.5524942e-04  -5.4802356e-04  -2.7109793e-04  -3.0451297e-04  -1.0180701e-04  -2.9700540e-04  -1.5222709e-04  -5.3954177e-04  -2.2533475e-04   4.6329918e-05   1.3820751e-04  -4.2159081e-04  -5.8068172e-04  -1.1438361e-03  -4.2281245e-04  -2.2690906e-04  -7.3785712e-05  -1.6980444e-04   1.4241948e-04   7.2656258e-04  -4.0838445e-04   4.8574051e-04  -2.2909543e-04  -5.5079942e-04   1.5159824e-04   8.4316751e-05  -5.0970173e-04  -1.8977519e-04  -5.6452391e-04  -8.3785661e-04  -5.2735739e-04  -5.4602325e-04  -2.3821984e-05  -1.6578840e-04  -1.3795925e-03  -1.6767455e-04  -5.3459936e-04  -1.6210391e-04  -5.4977572e-04
  -1.5441414e-03  -5.4623419e-04  -5.4295413e-04  -4.4574874e-04  -1.4944479e-03  -1.2128728e-03  -7.8181922e-04  -5.6552311e-04   2.2623700e-03  -7.5915566e-04  -8.8946294e-04  -4.6982049e-04  -8.0244511e-04  -6.6968222e-04  -3.2244605e-04  -4.6646511e-04  -6.5390213e-04  -4.8012921e-04  -3.5492943e-03  -6.8316894e-04  -3.1116302e-04  -3.8915104e-04  -1.3188920e-03  -7.0078863e-04  -9.0464950e-04  -7.2511437e-04  -6.0869486e-04  -7.1831746e-04   3.1827796e-05  -1.9242110e-04  -8.1694464e-04  -7.3952181e-04  -7.0716460e-06  -4.5335956e-04   1.6207136e-03  -2.9000876e-04  -7.5999793e-04  -5.3963333e-04  -3.3578073e-04  -7.8984024e-04  -4.1773339e-04  -3.7295397e-04  -6.6172425e-04  -1.9534776e-04   1.9647517e-04   1.0228093e-03   1.1054474e-04  -2.1337271e-04   1.1065957e-04  -2.3831855e-04
  -3.0034230e-04  -8.9775654e-05  -1.9285796e-04   2.0042309e-04  -2.8257607e-04  -2.9389386e-04  -1.0407353e-04   8.6920038e-05   6.7841873e-05  -3.1028456e-05  -2.9893682e-04  -1.8792591e-04  -1.5473136e-04  -9.5466930e-05  -1.6253277e-04   9.7544988e-05   9.8824690e-05   3.0260069e-05  -5.3486269e-04   2.6018466e-04   3.5744588e-04   5.6028343e-04  -7.7250355e-05  -2.4104647e-04   2.3991230e-05   3.2215434e-05   1.6423527e-04  -7.6252174e-05   6.8613321e-05   1.3142815e-04   6.5529993e-04   5.7312369e-04   9.5673412e-04   1.8767019e-04  -1.3388543e-03   1.4001952e-03   1.0159938e-03  -1.4064673e-04   4.8745165e-05  -6.5967120e-04   2.1579155e-05  -1.9411634e-04  -2.0743675e-04  -5.4233719e-04   1.2443392e-04  -1.1503998e-03   2.2382569e-04  -1.2060656e-04   1.2124159e-04  -2.8070633e-04
   1.0576737e-04   4.9020022e-05  -2.7610609e-04   1.7774352e-04  -4.7984725e-04   5.7259032e-05   1.9760613e-04   1.7558971e-04  -5.0243801e-03  -1.2577954e-04  -2.5156216e-04  -1.6550299e-04  -1.0158571e-04   5.9762526e-05  -1.3295368e-04   3.4969027e-05  -6.4543747e-05  -1.1008412e-05  -2.3906122e-04   1.7675759e-04   2.9339423e-04   4.9419125e-04  -2.7610126e-04  -3.1248867e-04   1.0201366e-04  -3.6101419e-04  -1.9752327e-04  -6.3335901e-05   1.1151069e-04   1.6383073e-04  -2.4928365e-04   1.4539283e-04   6.1493367e-04  -1.8468000e-04   7.2027330e-04  -3.3823436e-04   7.2251068e-04   7.0306858e-05   6.0626621e-06   7.7439228e-04  -6.4330688e-04  -3.2545641e-04  -6.5829360e-04   1.2107473e-03   2.9092166e-04  -3.5710465e-05   6.9120790e-05  -2.3573027e-04   2.2081558e-05  -3.2182338e-04
  -3.5139112e-04  -2.3096347e-04  -4.6931361e-04  -2.1408181e-04  -3.9114270e-04  -6.1953859e-04  -3.0380025e-04  -6.3118007e-04  -3.3116361e-04  -5.7024515e-04  -5.7184481e-04  -3.5980658e-04  -4.6268196e-04  -4.3948519e-04   6.4042360e-05  -1.8620107e-04  -2.8511643e-04  -2.1072873e-04   6.8286835e-04  -3.2695394e-04  -4.1056868e-05   1.9641962e-05  -8.4177573e-04  -5.5192196e-04  -1.3354925e-03  -3.2275502e-04  -7.9596555e-04   2.0006152e-04  -4.0919954e-04   1.7126088e-04  -9.4808225e-04  -2.0977091e-04   3.9405355e-04  -5.3206756e-04   1.1809905e-03   5.2731781e-04   6.8727613e-04  -3.2030980e-04  -3.3863471e-04  -8.7828370e-04  -8.8283687e-04  -5.7240017e-04  -8.6853298e-04   3.6831383e-04   3.9465533e-07  -5.8333704e-04  -2.3989013e-04  -4.6624371e-04  -4.2460737e-04  -4.1024748e-04
  -5.7389640e-04  -5.4081582e-04  -9.1265299e-04  -6.2080764e-04  -7.6592824e-04  -3.9773638e-04  -4.8162136e-04  -7.1799586e-04   1.8538310e-03  -8.7611482e-04  -1.0309306e-03  -5.7773222e-04  -9.1276469e-04  -5.4331240e-04  -2.3896771e-04  -5.2762381e-04  -7.4664020e-04  -5.2425155e-04   2.2545820e-03  -2.2710674e-04   1.9714690e-04   3.4163659e-04  -3.1111049e-04  -6.2178657e-04  -1.1298883e-04  -4.7690968e-04  -4.4461084e-04   3.7895856e-04  -4.7844386e-04   5.7070607e-05   6.2523293e-04   5.5617408e-04   3.3335012e-04  -8.1576873e-05   1.4520485e-03  -7.4820896e-04  -2.5153553e-04  -4.1900892e-04   3.8677746e-05   2.5035290e-04  -1.0878283e-04  -3.2896191e-04  -6.9367845e-05  -2.5040586e-04   2.1974968e-04  -1.4700616e-03   1.0630732e-04   1.3342412e-05   4.3210697e-05   2.9301611e-04
   1.5520447e-04   5.0526928e-06  -2.4537861e-04   6.8704787e-05  -3.4814421e-04   2.5512814e-05  -1.7057743e-04   2.1212931e-04  -4.4209664e-03  -3.3682014e-04  -2.2083349e-04  -3.8956237e-04  -4.1857528e-04   8.3038876e-06  -3.2768145e-04   8.5199150e-05  -1.8340883e-05   5.4852877e-05   4.7254628e-03   7.8681223e-05   3.2871691e-04   4.7476185e-04   9.2868329e-05  -3.5321532e-04  -9.9545243e-05  -1.0179969e-04  -2.2828866e-05   1.0405577e-04   1.8072868e-04   9.9505967e-05  -6.5493101e-04   3.9493063e-04   7.4069062e-04   2.5530843e-04   1.2605535e-04  -9.0741256e-04  -6.3582353e-04  -6.5418485e-06   9.2044444e-05  -2.8263943e-04   5.7017984e-04  -1.2944336e-04   2.4007932e-04  -9.0645226e-05   2.7530614e-04   9.6894841e-04   1.2072708e-04   1.8414423e-04  -2.5521585e-06   2.9536203e-04
  -4.6956597e-04  -1.2550766e-04   1.3995188e-04  -2.3194012e-05   4.2707831e-04  -3.1183247e-04   8.1104212e-05   2.6795210e-04  -2.9920759e-03  -4.8579107e-04  -2.8585561e-04  -4.3344157e-04  -4.5134925e-04  -1.7324400e-04   1.4202399e-04  -1.7375183e-05  -1.0934432e-04  -6.4377273e-05   1.2522789e-03  -1.7261424e-04   9.8898628e-05   6.7729692e-05  -3.9856567e-04  -3.8136324e-04  -4.0249521e-04  -2.0334957e-04  -3.5278869e-04   1.0730501e-04  -1.7553492e-04   1.3717567e-04  -7.6673680e-04  -6.5693480e-04   1.0678679e-03   1.0531081e-04  -2.4887268e-04  -6.4549927e-04  -8.2687085e-04   4.7103731e-05  -9.0152571e-05  -7.3472137e-04   1.7260556e-05  -3.3030839e-04  -1.2826049e-04  -5.7130132e-04   6.6544424e-05   1.2750749e-03  -7.5908727e-05  -1.4633332e-04  -2.0749298e-04   1.0428357e-04
  -2.3042757e-04  -3.3347745e-04  -8.3417451e-04  -3.8985698e-04  -5.0801074e-04  -7.6730241e-04   7.1695060e-05  -2.6582196e-04   2.2421279e-03  -8.3300367e-04  -6.4345531e-04  -5.2610837e-04  -5.6315697e-04  -3.5772767e-04  -2.6989105e-04  -2.7717603e-04  -4.7465926e-04  -3.4723943e-04   3.1693100e-03  -4.8384111e-04  -1.3759274e-04  -6.1728177e-05  -7.4267667e-04  -6.6094939e-04   5.7137472e-04  -4.6178733e-04  -2.0529574e-04  -6.1805782e-05  -3.4065990e-04   2.3021877e-05  -1.2228421e-03  -1.8831629e-04   8.3723913e-05  -4.1975622e-04  -1.0100558e-03  -3.2228042e-04   7.5350213e-04  -4.1834282e-04  -1.8430203e-04  -2.8424361e-04  -7.7636418e-05  -2.3721058e-04   1.2536763e-04   8.9371641e-04   9.4503514e-05  -4.5313756e-04   9.9255063e-05   5.5868852e-05  -5.3731041e-05   5.5187533e-04
  -3.3212002e-04  -6.7141722e-05  -3.1834788e-04   1.6830745e-04  -1.7950934e-04   1.4749606e-04   1.6013284e-04  -1.1271996e-04  -1.0505099e-03  -2.3364194e-04  -1.8892779e-04  -3.3784431e-04  -1.5943535e-04   1.0332983e-04   8.5610256e-05   1.1642803e-04  -3.5233777e-05   5.9123555e-05   2.3894855e-03   1.5190511e-04   3.2475099e-04   5.1972788e-04  -4.1687355e-04  -2.7593769e-04   2.9243159e-04   1.7682932e-04   3.7558179e-04  -2.1867210e-04   4.8571802e-04   5.1781826e-04  -9.0035598e-04   2.0990940e-04   2.6182449e-04   9.4365198e-05  -1.2146311e-03   1.3229022e-03   2.8065778e-04   1.5811186e-04   5.8573050e-06   1.1417056e-03   3.6052021e-04  -4.1222749e-05   3.2697531e-04   1.7667720e-03   1.8121619e-04  -1.0167009e-03   2.3464351e-04   3.4083423e-04   1.9384836e-04   5.0544372e-04
   4.8912031e-04   4.4726908e-06  -1.6044907e-04   5.6816625e-05  -7.4320800e-05   2.9164506e-04   5.7933963e-04   9.1067041e-06   4.2471788e-03  -2.9750899e-04  -1.0697297e-04  -3.1056779e-04  -1.0266667e-04  -5.4570423e-06  -2.9197929e-04   3.4871522e-05  -8.7928354e-05   1.3078649e-04  -1.0791114e-03   1.0029137e-04   1.9179963e-04   2.9611136e-04   9.5220617e-05  -3.4610077e-04  -1.1681574e-03   7.2582361e-06  -5.6746759e-04   2.3501685e-04   5.0915718e-05   3.7853565e-04   8.1097300e-04   4.3324125e-04   2.3093267e-04   1.4769347e-04  -1.1981976e-03   6.5062352e-04   4.0752476e-04  -5.6304998e-05   3.0957654e-05   7.0472260e-04   1.7481363e-04  -1.3625805e-04   1.5976383e-04  -1.1358960e-03   4.7401973e-05  -3.1769616e-04   3.5094505e-05   1.4921486e-04   2.7920672e-04   3.1502350e-04
  -2.5216863e-04  -3.1687130e-04  -2.7837339e-04  -2.1113467e-04  -3.7944803e-04  -3.4345331e-04  -1.9126129e-04  -5.3933723e-04   4.3900710e-04  -7.2768476e-04  -4.3032190e-04  -5.1845866e-04  -4.0106772e-04  -3.5599721e-04  -2.6726368e-04  -2.5901632e-04  -3.4399194e-04  -2.2075238e-04  -3.6575750e-03  -3.3919228e-04  -1.2304659e-04  -1.5609368e-04  -4.8535518e-04  -5.5930344e-04  -1.9848009e-03  -3.5482179e-04  -3.2560920e-04  -4.8406667e-04  -7.9669437e-05   4.8221362e-05  -2.1111820e-04  -8.2450488e-04   1.3535122e-04  -6.3750318e-05  -1.6145704e-04   3.7901780e-05   1.6698640e-04  -2.5735411e-04  -2.0305457e-04  -5.1783444e-04  -4.9633807e-05  -2.6946410e-04  -1.1495946e-05  -7.6482305e-05   1.2559877e-04  -3.1256967e-04   9.3037706e-05   1.8544770e-04   4.4365797e-06   2.5223513e-04
  -2.9130786e-04  -6.8128524e-05  -2.8997855e-04   4.9094386e-05  -5.6446303e-04   2.6559402e-04   1.8072761e-04   1.3214504e-04  -8.7774335e-04  -1.0160846e-04  -7.3751726e-05  -2.0643494e-04  -1.0327445e-05   2.0761229e-04  -1.0095213e-04   1.9001764e-04   1.6712138e-04   1.5927055e-04   2.4508631e-03   4.0872075e-04   4.2751600e-04   6.3944538e-04   2.3760885e-04  -1.7479660e-04   5.9708545e-04   1.3588907e-04   2.9249865e-04   4.6175998e-04  -3.0014457e-04   4.1094533e-04   4.2471036e-04   6.3516124e-04   1.0453839e-03   4.8039554e-04  -3.7450960e-04  -1.4839567e-03   3.8991097e-04   5.5680473e-05   2.7648816e-04   1.2433470e-03   2.1758105e-04  -2.1490889e-05   1.9565225e-04   1.7691457e-03   2.7933769e-04   1.1652679e-03   2.4941095e-04   2.8236312e-04   3.3582145e-04   4.7361598e-04
   1.9134587e-04   2.3127797e-04  -5.9800357e-05   4.7554399e-04  -2.1952021e-05   5.4827769e-04   9.3392329e-05  -2.8703051e-05   3.7465181e-04  -1.2192429e-04  -6.1392231e-05  -1.3328095e-04  -1.5587746e-05   1.6612219e-04   3.1288117e-04   2.4440771e-04   1.6458644e-04   1.8227637e-04  -2.8558734e-05   3.7885070e-04   3.4873743e-04   6.4201781e-04   2.8611207e-04  -2.3191443e-04   9.3327463e-04  -1.1968817e-05   1.5746639e-04   5.1740202e-04   9.0098758e-05   2.6795187e-04   1.4227700e-03   4.3733857e-04   7.4726989e-04   3.7253325e-04   5.9711124e-04   1.8187922e-04   9.5704338e-04   4.2694091e-04   7.3583549e-05   7.0493581e-04  -1.5633229e-04  -1.3407764e-04  -5.4365140e-05  -1.0419175e-03   2.3637914e-04   3.1548848e-03   1.2950158e-04   9.0825750e-05   3.7481317e-05   4.1208579e-04
   6.9420748e-05   2.9443640e-05  -2.7471504e-04   1.2915849e-04  -7.5391389e-04   9.8383441e-07   3.5921912e-05   2.7916778e-04  -1.5022997e-03  -4.2821857e-04  -3.1605651e-04  -2.3789635e-04  -1.9334638e-04  -2.6263850e-05  -1.6357322e-04   1.6605356e-05  -9.0034904e-05  -1.0578841e-04  -1.3761871e-03  -6.4966560e-05  -8.7061253e-06   1.4921532e-04  -1.9847273e-04  -3.2792034e-04   7.5310707e-04  -3.1472379e-04  -3.2256899e-04  -5.8816611e-05   1.6126205e-04   6.8069123e-05  -4.5883895e-05  -3.1764919e-04   4.0301314e-04   2.1851400e-04  -1.0355245e-05  -2.5195975e-04   3.3491605e-04   3.1076427e-04  -4.3791286e-05  -9.6615765e-04  -3.8584101e-04  -3.0740010e-04  -3.1670544e-04   7.0588652e-04  -3.4555429e-05  -6.2319846e-04   1.0164440e-04   6.4033688e-05   1.8552699e-04   5.6277734e-04
  -3.3045522e-04   1.3261552e-04  -9.6119096e-05   2.9300511e-04  -1.2894871e-04   1.3933434e-04  -1.1989222e-04   9.0092923e-05   2.4078994e-03   3.4414625e-05   2.1682166e-04  -7.4448675e-05   1.2107672e-04   3.1008996e-04   5.7888957e-04   3.2551849e-04   3.8749917e-04   3.2244448e-04   1.0001612e-03   6.4351852e-04   5.6165690e-04   9.1785879e-04   6.3797034e-04   1.0669735e-04   8.2559476e-04   3.5262224e-04   2.0712738e-04   8.0267497e-04   5.1207101e-04   3.6809145e-04   1.0944882e-03   1.5186869e-04   1.4604605e-03   5.9729454e-04   1.9868888e-04   9.5939735e-04   1.1621339e-03   5.8196846e-04   4.3363587e-04   5.6427001e-04   7.2377425e-04   1.9474585e-04   3.2062759e-04   2.1938258e-03   4.0766352e-04  -8.9627021e-04   4.9677753e-04   4.2933761e-04   4.7162024e-04   1.0063149e-03
   2.6955936e-04   5.2552921e-04   3.6816066e-04   8.6319179e-04   6.1366934e-04   1.0028895e-03   6.9201074e-04   7.1874307e-04   4.6544240e-04   1.1504832e-04   3.3152383e-04   7.4218133e-06   5.3266430e-04   4.3438841e-04   1.6426723e-04   5.3430401e-04   4.1079699e-04   3.2337510e-04   2.8350158e-03   7.0051802e-04   5.3048762e-04   8.7504950e-04   1.8091897e-04  -4.7615129e-05   8.1806793e-04   5.1591260e-04   1.6675003e-04   5.4463249e-04  -1.1831899e-04   5.3382514e-04   3.2828122e-04   1.1813062e-03   1.1699261e-03   3.1306691e-04   1.1369163e-03   2.0546753e-04   5.7420810e-04   6.0493290e-05   4.1783400e-04   9.2881982e-04   4.1784512e-04   1.0631367e-04   2.2425005e-04   1.2796461e-03   4.6596621e-04  -4.2250576e-06   4.2265360e-04   4.1538110e-04   3.2665255e-04   7.7777181e-04
   2.9813455e-04   3.3258161e-04   7.8979800e-05   4.4266885e-04   6.1278749e-04   5.2878127e-04   3.7250223e-04   3.0138277e-04   2.7986567e-03  -1.8741333e-04   5.8019094e-05  -6.3392290e-05   1.0405487e-04   2.8238766e-04   1.1059211e-04   4.6749544e-04   1.4358654e-04   1.9860874e-04  -2.4413233e-04   3.0232361e-04   2.0774854e-04   5.7605526e-04  -2.3521052e-04  -1.9412878e-04   3.9285028e-04   8.5486892e-05   3.8719337e-04   9.5101271e-04  -3.1352480e-04   3.5335013e-04   1.9814754e-03   6.6032371e-04   7.2214217e-04   5.1601417e-04  -1.2100878e-03   1.0498550e-03  -3.3833986e-04   6.1134849e-04   8.0285274e-05  -1.3620434e-04  -4.0493367e-04  -8.0650483e-05  -2.0007072e-04   4.6684392e-04   1.7974450e-04   1.0644781e-03   2.4465602e-04   1.4053889e-04   2.4433961e-04   6.0343574e-04
   1.6907073e-04   2.6407739e-04   1.1563978e-04   5.4965966e-04  -6.3908294e-05   1.1574770e-03  -7.2408508e-04   1.3214174e-04   2.3602952e-04   2.0005601e-04   2.3781275e-04   4.3130643e-05   3.7897105e-04   8.0681860e-04   4.6590430e-04   6.7670638e-04   5.5993750e-04   4.2815198e-04   4.3237037e-03   9.8929438e-04   6.6854915e-04   1.1818641e-03   8.8862755e-04   2.7222093e-04   3.9471453e-04   4.2401557e-04  -4.1809970e-05   1.0269083e-03   8.2939077e-04   8.2069141e-04   1.3607027e-03   8.0569834e-04   1.6653583e-03   9.4671117e-04   1.1744376e-03  -5.2746857e-04   6.7453802e-04   9.5915451e-04   5.6280982e-04   1.0614822e-03   9.6621673e-04   3.4152844e-04   5.0975534e-04  -8.9120230e-04   8.3606766e-04  -6.6029979e-04   7.0508313e-04   6.8605592e-04   1.1473884e-03   1.1453202e-03
   9.6376362e-04   7.8639231e-04   6.8830058e-04   9.7260927e-04   7.5147365e-04   1.1469662e-03   6.8616093e-04   5.8435363e-04  -1.1564785e-04   2.5935218e-04   5.3818332e-04   1.4682139e-04   5.8213301e-04   8.7930926e-04   1.0086652e-03   8.9440885e-04   7.9218857e-04   7.8948191e-04  -1.2097108e-03   9.2406443e-04   6.6107715e-04   1.2672052e-03   1.1477255e-03   2.2877136e-04   7.0574152e-04   7.8999496e-04   4.6996734e-04   6.5545470e-04   8.3823933e-04   6.6330429e-04   5.7859404e-04   1.1672034e-03   1.2887547e-03   1.0421381e-03  -3.6009937e-04   1.4964688e-03   1.3235350e-03   1.0311351e-03   5.8737671e-04   3.8400697e-04   7.9044275e-04   2.8516547e-04   4.5506176e-04   1.8554875e-03   6.9648388e-04   4.3042618e-04   6.5113266e-04   6.0135860e-04   7.4685126e-04   1.2109926e-03
   7.0405670e-04   6.4256723e-04   7.7037688e-04   6.3481292e-04   5.4810662e-04   1.1047770e-03   6.7446049e-04   6.8062986e-04  -4.2413105e-03  -7.2552182e-05   1.7260300e-04   3.5673374e-06   3.3935666e-04   5.6931144e-04   7.1237545e-04   6.6118670e-04   4.8727173e-04   5.0660397e-04  -1.7793587e-03   5.1557826e-04   3.1120825e-04   7.6795381e-04   5.7123130e-04  -4.6723926e-05  -1.9630644e-04   2.8494079e-04   1.6641762e-04   6.5448968e-04   3.8380013e-04   6.2880962e-04   2.5123672e-03   8.8036242e-05   1.1047932e-03   4.2725410e-04  -1.0512000e-03   3.1277473e-04   7.1210571e-04   4.6799931e-04   3.8782496e-04   3.4108016e-04   2.1468126e-04   9.2330345e-05   2.9179524e-04  -2.4718940e-04   5.4361264e-04   3.9565182e-04   3.8785764e-04   3.1790382e-04   3.0649779e-04   7.8073551e-04
   2.1571606e-04   2.9196744e-04   7.0255956e-05   3.2916715e-04  -5.4888730e-04  -1.9946962e-04   2.9225976e-04   2.4619041e-04  -2.6289446e-03   1.3436519e-05   1.1292987e-04  -4.8854028e-05   2.3980219e-04   3.4162629e-04   3.6472842e-04   6.4519740e-04   5.7559647e-04   4.6452871e-04   3.5629743e-03   8.7648572e-04   6.1553868e-04   1.1731414e-03   9.9542912e-04   2.7583918e-04   1.2316199e-03   5.2218180e-04   6.9102296e-04   9.8155625e-04   1.1134751e-03   5.8048131e-04   1.4455952e-03   7.2401611e-04   1.2494721e-03   6.1655301e-04   6.1834784e-04   1.7170621e-03   1.3220786e-03   6.2715792e-04   6.3076004e-04   1.3082497e-03   1.0029498e-03   5.2566984e-04   6.4092875e-04   1.9831946e-03   9.6993492e-04   1.8494759e-03   8.5536897e-04   9.2003535e-04   1.1297236e-03   1.2735018e-03
   7.7941304e-04   1.0862782e-03   1.0080728e-03   1.5073848e-03   7.7143294e-04   1.4725400e-03   1.3065020e-03   5.8965228e-04   6.9247748e-05   3.8287911e-04   7.3290936e-04   1.8422159e-04   7.9464517e-04   9.7228884e-04   9.4018102e-04   1.0309997e-03   1.1136213e-03   8.1913534e-04   1.2522632e-03   1.2006554e-03   7.2117016e-04   1.2957553e-03   1.1819574e-03   3.2323899e-04   8.9829916e-04   7.7393180e-04   5.8340473e-04   1.1489838e-03   7.8681740e-04   9.7757264e-04   2.0964858e-03   1.7963576e-03   1.3644607e-03   1.0602550e-03   1.5799770e-03   3.8399381e-04   7.4976753e-04   1.2711061e-03   6.2822673e-04   5.5578974e-04   8.6049334e-04   4.6745929e-04   6.0526130e-04   3.4362231e-03   7.0690695e-04   1.2032189e-03   8.6202403e-04   8.7234465e-04   8.9113833e-04   1.2742373e-03
   5.3542317e-04   9.2658825e-04   7.1303162e-04   1.1003333e-03   7.4602530e-04   1.0757946e-03   2.9184687e-04   8.8652008e-04   6.6679539e-03   1.5992884e-04   6.8766851e-04   1.6205125e-04   6.6066015e-04   9.6552097e-04   8.7092444e-04   1.0390121e-03   8.1530731e-04   8.5147517e-04  -2.6033781e-03   9.2329300e-04   4.8429551e-04   9.4259094e-04   5.0483434e-04   1.2296218e-04   5.7983655e-04   3.1970494e-04   5.2102120e-04   6.2567164e-04   6.3110422e-04   6.8546244e-04   2.2946745e-03   8.9107791e-04   1.0385154e-03   9.6685515e-04   3.2092186e-04   8.7059423e-04   8.9605403e-04  -1.5601025e-05   4.8767769e-04   6.2641688e-04   5.0282018e-04   2.5809064e-04   1.6057452e-04   5.1957445e-04   5.1238341e-04  -1.1564519e-03   5.9455301e-04   4.2936479e-04   6.8439689e-04   8.3066704e-04
   5.5737578e-04   6.0587301e-04   5.1691843e-04   4.9180532e-04   4.1505889e-04   7.9451327e-04   2.4532372e-04   5.9130124e-04  -1.3156109e-03  -2.0296316e-04   2.4000330e-04  -4.1472984e-05   4.4422000e-04   5.5475935e-04   4.1324858e-04   5.4024346e-04   4.3680493e-04   4.3269136e-04   4.9212814e-04   3.8529831e-04   1.7040671e-04   5.2806566e-04   4.9829495e-04  -1.2163857e-04   4.2238313e-04   6.6347056e-05   1.1565278e-04   8.3888898e-04   9.1367483e-04   4.6640064e-04  -2.5366273e-04   3.9881273e-04   5.4654788e-04   5.3656107e-04   4.8421213e-04   1.0177281e-03   7.7071629e-04  -1.6042005e-04   1.1436347e-04   1.5269275e-04  -5.4975948e-04  -1.6336238e-05  -2.3300142e-04   8.4733852e-04   2.4722714e-04   1.6640234e-04   2.6987094e-04   8.9989117e-05   2.0786065e-04   3.7296105e-04
   4.8257041e-04   4.2110751e-04   2.2164735e-04   3.7500335e-04  -1.7658078e-08   4.9343618e-04   2.9292281e-04   5.4789055e-04   4.0296409e-03   1.8236815e-04   5.3808244e-04   5.1217521e-05   6.5720757e-04   6.8650232e-04   9.1081735e-04   8.8756485e-04   7.4071495e-04   5.7428336e-04  -8.8354648e-04   1.0291875e-03   6.7594409e-04   1.2726862e-03   7.4607501e-04   3.1295771e-04   7.3479547e-04   7.1461702e-04   6.5485638e-04   1.2407890e-03   6.8045378e-04   8.9373696e-04   3.2328048e-03   9.0611354e-04   1.3585417e-03   1.0068287e-03   1.1289652e-03   1.2364634e-03   9.9830970e-04   1.2169380e-03   7.7595038e-04   6.4754934e-04   9.7673538e-04   4.9804040e-04   6.4903597e-04   1.1021376e-03   8.7496254e-04   7.1152952e-04   8.0967194e-04   6.8152888e-04   1.3492901e-03   1.3367258e-03
   2.0047298e-03   1.1766625e-03   1.1167744e-03   1.3531015e-03   5.0430489e-04   1.2763345e-03   6.5564265e-04   1.0175505e-03  -7.0022681e-04   3.8328776e-04   6.8283814e-04   2.1780723e-04   9.7122794e-04   1.0844754e-03   9.9863450e-04   1.0789912e-03   9.7184739e-04   9.2927815e-04  -2.4550944e-04   1.1708525e-03   7.0474594e-04   1.2759711e-03   8.6336007e-04   4.6394143e-04   1.5842323e-03   6.2483456e-04   8.9193997e-04   1.2869125e-03   1.0690693e-03   9.7870547e-04   1.0166332e-03   1.2016847e-03   1.3292134e-03   1.0699902e-03   9.4487448e-04   5.0829881e-04   4.0536150e-04   9.2613237e-04   7.2632084e-04   5.8696431e-04   6.4523349e-04   4.9445039e-04   5.5136491e-04   1.1672393e-03   8.6593867e-04   3.2196525e-03   7.0211693e-04   5.9850543e-04   7.5446890e-04   1.1833285e-03
   5.9143518e-04   1.0129422e-03   1.1452796e-03   1.0979516e-03   1.0366911e-03   8.9768448e-04   8.1853999e-04   4.2542582e-04  -2.8750075e-03   8.0706392e-05   5.3276494e-04   9.1690272e-05   7.5690448e-04   9.2462095e-04   9.1128249e-04   9.0708898e-04   8.3519798e-04   7.0810376e-04   2.1250935e-03   7.1827800e-04   3.7947527e-04   9.3815668e-04  -5.6329253e-07   2.4644478e-04  -9.9665148e-04   3.0902942e-04   5.8391260e-04   3.2979788e-04   9.0626610e-04   9.8119129e-04   7.0875534e-04   4.8396585e-04   1.0835005e-03   5.2355626e-04   1.4437230e-05   3.0986211e-04   1.0828471e-03   5.7758437e-04   3.7435681e-04   8.3532574e-04   2.7103696e-04   1.5552016e-04   2.2465033e-04   2.8162110e-03   5.8741414e-04   2.8525251e-03   4.0674800e-04   2.6877740e-04   3.8036055e-04   8.2309701e-04
   5.8720465e-04   6.2084146e-04   8.0521801e-04   5.4379803e-04   4.7955947e-04   4.0607183e-04   4.0533341e-05   3.8046564e-04  -4.2050933e-03  -2.8744250e-04   1.4337008e-04  -1.0372829e-04   2.3546780e-04   6.1143615e-04   4.2674629e-04   4.7636844e-04   4.5097340e-04   4.3669867e-04   1.8408871e-03   2.7376844e-04   6.5457607e-05   4.4501081e-04  -1.7236753e-06  -2.2912337e-04   1.4815964e-03   1.0947784e-04   3.1283897e-04   7.0074364e-04   2.3382121e-04   2.6052812e-04  -7.0767454e-04   3.7742575e-04   5.7555392e-04   3.7900684e-04  -8.8289363e-04   5.9499958e-04  -3.6545028e-04   4.0328255e-04   1.3861334e-04   1.3000355e-04  -5.9341581e-04  -8.1677346e-05  -2.1823359e-04  -2.2892852e-03   6.2072300e-05   6.2344288e-06   1.1408079e-04  -9.3717616e-05  -1.1136250e-04   2.1661021e-04
   4.2494730e-04   4.2493307e-04   4.0173737e-04   4.6758549e-04  -5.8714239e-05   5.0102663e-04   8.6896349e-04   4.5633153e-04   3.2326484e-03   1.6911236e-04   3.9000230e-04   4.1269461e-05   5.6669273e-04   6.9939019e-04   6.1086257e-04   8.1673870e-04   8.5225760e-04   7.6770002e-04   2.4915969e-03   1.0270516e-03   6.4217130e-04   1.1918684e-03   1.0124843e-03   3.7424339e-04   1.1800699e-04   5.0147518e-04   8.5607194e-04   8.6211466e-04   1.0598870e-03   7.0759305e-04   1.0847996e-03   1.9534617e-03   1.6782442e-03   8.1368978e-04   2.4393927e-03   1.9828363e-03   1.2885524e-04   9.3874568e-04   5.7353813e-04   1.3456804e-03   1.0243064e-03   4.2646410e-04   5.9092569e-04   2.0596068e-03   7.0859463e-04   2.0395985e-03   5.5283174e-04   4.1126306e-04   7.2450575e-04   8.7776291e-04
   4.9460214e-04   1.0597387e-03   9.0826390e-04   1.2950853e-03   4.0463277e-05   1.9666408e-03   6.0586189e-04   7.8366423e-04   8.8432515e-03   2.9959891e-04   5.4210820e-04   1.9185417e-04   7.7441259e-04   1.0411947e-03   7.9181010e-04   1.0783991e-03   8.7905425e-04   9.0270571e-04   1.9723917e-03   9.7918918e-04   6.1941752e-04   1.1300292e-03   6.6205784e-04   3.6514760e-04  -2.3162084e-04   8.6555089e-04   4.2828391e-04   6.0364953e-04   1.4696643e-03   8.5469481e-04   8.3249761e-04   8.0873695e-04   1.3262046e-03   8.9083164e-04   8.7979628e-05   1.2161569e-03  -2.5518113e-04   1.0203568e-03   6.2335882e-04   2.3878207e-04   6.6418591e-04   2.8424777e-04   2.0479185e-04   1.3234306e-03   6.8249012e-04   8.6838496e-04   4.5543403e-04   2.4164136e-04   2.3547828e-04   7.0925459e-04
   1.3609133e-03   8.7707315e-04   6.0161535e-04   9.8148058e-04   9.6804113e-05   7.5638556e-04   8.5214467e-04   6.2028854e-04   2.4873763e-04   4.0097575e-06   3.7557477e-04   5.6070960e-05   5.0147844e-04   7.9862401e-04   7.1781303e-04   9.1211777e-04   6.8967411e-04   6.2945660e-04  -2.1068549e-03   5.5902672e-04   3.1296944e-04   7.5634598e-04   2.9570828e-04  -1.0165414e-04   1.1365961e-03   2.6219519e-04   6.1750202e-04   5.4161571e-04   4.3668950e-04   6.3940854e-04   1.1817082e-03   9.7103056e-04   1.3076555e-03   6.2860205e-04   3.8298807e-04   7.2719573e-05   2.1649788e-04   4.9847027e-04   3.3320059e-04   2.5037621e-04  -1.1882862e-04   5.1965442e-05  -2.0635250e-04   2.4747315e-03   2.3768535e-04   9.5275283e-04   1.3350789e-04  -9.9779776e-05  -1.6106920e-05   1.2594477e-04
   7.0119940e-04   4.5793230e-04   8.5040432e-05   2.3492695e-04   1.2113472e-03   7.4800639e-04  -5.5411627e-05   6.3779252e-04  -2.9975767e-04  -3.7449959e-04  -1.1684800e-04  -1.2128937e-04   5.9267943e-05   2.0992701e-04   3.4262004e-04   3.8438957e-04   1.2074696e-04   1.7473788e-04  -1.5773053e-03  -4.0896542e-05  -5.2030267e-05   1.7720328e-04  -2.7863403e-05  -1.6894362e-04  -1.6346737e-04  -4.2403783e-04   3.3938297e-04   8.2453521e-04  -4.4374665e-05   3.1325690e-04  -7.3518744e-04   5.3821859e-04   5.5717549e-04   8.0367034e-05   9.9177740e-04  -3.1223020e-04  -1.0959273e-03   1.4652788e-04  -2.4459892e-05   6.9444395e-05  -5.0563255e-04  -2.8094917e-04  -5.6297274e-04  -1.3404691e-03  -1.5922420e-04  -7.7558303e-04  -1.3530692e-04  -3.7572204e-04  -2.9683011e-04  -2.3969154e-04
   1.2987558e-04   2.3949273e-04   1.1949663e-04   4.4226571e-04  -7.4522739e-04  -7.1096183e-05  -3.3893546e-05   4.2139544e-04   1.1812085e-03   1.2888937e-04   1.9533055e-04   4.8810714e-05   3.3882930e-04   5.2377133e-04   6.8070117e-04   6.1927427e-04   4.6852263e-04   4.1535700e-04   3.1811991e-03   6.4106769e-04   4.8950431e-04   9.6899096e-04   1.1864086e-03   2.2769452e-04   1.3738062e-03   3.6468366e-04   4.6358182e-04   8.5732341e-04   1.0987982e-03   8.2909060e-04   2.3512726e-03   1.2477580e-03   1.3492206e-03   5.3942262e-04   2.2961251e-03   1.8897997e-03   9.5030182e-04   4.9286714e-04   5.3017540e-04   3.1346045e-04   5.1668711e-04   2.2332864e-04   1.6921600e-04  -2.7128585e-04   5.0584559e-04  -7.3465599e-05   2.3925529e-04   1.3851719e-04   2.3604097e-04   2.3372030e-04
   1.6495305e-03   8.6078531e-04   6.6189119e-04   9.4807788e-04   8.3721249e-04   7.3954259e-04   9.0240542e-04   6.1273674e-04   4.6647280e-03   2.0145832e-04   3.3133628e-04   1.3529295e-04   3.7162864e-04   7.3505577e-04   9.5662638e-04   6.7643583e-04   5.2629033e-04   4.5000791e-04   9.8701753e-03   9.1186829e-04   5.0591520e-04   9.6542743e-04   4.5218572e-04   1.6222606e-04  -1.0518054e-03   4.4396208e-04  -4.2778635e-04   7.5571937e-04   2.1803320e-05   3.8933492e-04  -1.0006097e-04   7.8737637e-04   1.1394379e-03   4.1293321e-04   9.7388838e-04   1.2203739e-03   1.0730358e-05  -6.1152154e-05   5.0899590e-04   2.1763610e-04   1.8802992e-04   1.0911946e-04   1.0261607e-04   1.5971124e-03   1.9879601e-04   4.6337623e-04   1.5687726e-04  -1.8978059e-04  -1.3236125e-04   7.2988228e-06
   9.5653278e-04   5.5474363e-04   4.8690333e-04   5.1204796e-04   3.3665288e-04   4.5367496e-04   3.0166819e-04   4.5522879e-04   1.5239535e-03  -9.2498805e-05  -6.8735426e-05   4.5591176e-05   2.9547093e-04   5.1225367e-04   3.4988974e-04   4.3917180e-04   3.0411623e-04   3.1012809e-04   3.6627357e-03   3.3726689e-04   1.7492546e-04   4.5893047e-04  -2.5724142e-04  -1.4020437e-04   1.3976653e-04  -1.0162114e-04   3.3722882e-04   1.0602365e-03   3.9121090e-04   3.2100300e-04  -5.4638997e-05   2.6459384e-04   8.6154189e-04   2.4334485e-04   2.2249538e-03   1.6605864e-04   6.7087990e-04   2.0596442e-04   9.4269133e-05  -8.6545642e-04  -6.1375514e-04  -1.7979139e-04  -6.0713885e-04  -5.1024707e-04  -9.2473398e-05   5.1451434e-04  -1.5648802e-04  -5.8509567e-04  -3.8250009e-04  -4.8170009e-04
   1.0718318e-04   2.2291430e-04  -2.5337987e-04   6.8392190e-05   1.9954728e-04   5.1655644e-04   6.2186166e-04   1.8184169e-04   5.8661521e-05  -4.4567374e-04  -5.3042755e-04  -1.3350610e-04  -1.8017182e-04   1.6412454e-05   9.7122029e-05   9.7278295e-05  -2.3526957e-04  -5.4325450e-05   3.8768405e-03  -2.5138105e-04  -1.7967551e-04  -5.5627184e-05  -1.9270950e-04  -4.1024701e-04  -5.1075254e-05  -6.3894910e-04   1.0058933e-04   7.1417075e-05   5.7550421e-04  -3.3724704e-05   3.4412209e-04  -4.3340650e-04   6.8734726e-04  -4.4828546e-04   4.2472388e-05  -1.1205977e-03  -6.6342216e-04  -3.1232499e-04  -1.9947077e-04  -7.4199087e-04  -1.3183537e-03  -5.5156316e-04  -1.0489286e-03   6.2590640e-05  -4.3847767e-04   2.7613307e-04  -4.5173024e-04  -8.2308589e-04  -7.4035843e-04  -8.4522937e-04
  -2.0556145e-04  -1.0230709e-04  -2.3375715e-04  -6.6081513e-05  -7.6695636e-04   1.7841274e-04  -3.0125843e-04   9.2045964e-05   3.1956143e-04  -1.8620933e-05  -2.9404912e-04  -2.0946512e-05   9.7699987e-05   7.1586881e-05   1.4261129e-04   1.5473447e-04  -2.9016999e-05   9.1245485e-05  -8.0892019e-04   3.4421202e-04   3.4778137e-04   6.4987282e-04   4.5468498e-04   1.1063884e-04   1.2406405e-03   3.0462693e-06   2.9602560e-04   9.5339480e-04   2.3356646e-04   4.5977990e-04  -2.2821409e-04  -3.2805288e-04   8.5132680e-04   5.1887095e-05  -1.4705954e-03  -1.1192840e-03   3.7127433e-05  -2.8462667e-04   1.9754175e-04   8.9921139e-04  -1.2342702e-04  -1.6874730e-05  -4.7610538e-05   1.8380298e-03   1.3598816e-04  -4.7304132e-04  -2.8014101e-05  -3.0006599e-04  -1.1322206e-04  -2.8116061e-04
   4.2678392e-04   4.2236040e-04   5.9002843e-05   4.9077289e-04   6.5477965e-05   6.2471209e-04   7.1197544e-04   3.8869344e-04  -3.9968868e-03   7.4202697e-05  -6.6506444e-05   8.0589947e-05   1.6512866e-04   4.7143511e-04   1.3774267e-04   2.8309520e-04   2.2987231e-04   1.4968064e-04   7.7012624e-04   4.4472943e-04   3.1823918e-04   6.1097887e-04   2.9492009e-04   1.2047721e-04   4.1424047e-04   1.2680446e-04   2.5987238e-04   4.0478876e-04   4.6222712e-04   5.9760502e-04  -6.9540343e-04   6.6604308e-04   2.9352639e-04   1.1195753e-04  -7.9772522e-04   1.6349866e-05  -6.4354844e-04   1.0911292e-04   1.8381976e-04   9.4768254e-04  -6.5939443e-04  -9.1784030e-05  -3.5796830e-04   1.0533038e-03   5.7444857e-05   8.1208086e-04  -1.2010995e-04  -5.4215844e-04  -1.0736890e-04  -4.1094309e-04
   2.3099994e-04   2.9685759e-04  -1.8769532e-04   1.6163151e-04  -2.2188500e-04   4.3637637e-04   4.1947336e-04   9.5672178e-05  -1.4092727e-03  -1.7232141e-04  -3.7582140e-04  -1.0405138e-05  -4.8507700e-06   5.9766680e-05   2.7953973e-04   6.2841400e-06  -1.4202583e-04  -4.8888345e-05  -2.7043347e-03  -1.7603992e-04   2.4339170e-06   1.4430219e-04   4.0489220e-05  -2.3787469e-04  -9.9117402e-04  -3.5873905e-04  -1.3187283e-04   9.2498976e-04   8.4359781e-06   1.2173135e-04  -5.4027513e-04   6.3019950e-04   3.0914924e-04  -1.0596169e-04  -6.9528690e-04  -8.0650783e-04   7.4780975e-05   1.2302933e-04  -1.4669175e-04  -3.0531024e-04  -9.0799027e-04  -3.6831415e-04  -7.8660558e-04   5.6573376e-04  -2.8873936e-04  -1.7000162e-03  -4.1276400e-04  -8.5606176e-04  -6.4390630e-04  -8.9521799e-04
  -2.7308584e-05  -1.2087066e-04  -4.4982188e-04  -4.5713905e-04  -2.3371796e-04  -2.6044634e-04  -6.4992468e-04  -7.4223462e-05   8.4990094e-04  -5.4953975e-04  -6.8983570e-04  -1.5861646e-04  -4.5281884e-04  -2.7828859e-04  -4.2789732e-05  -2.2901616e-04  -6.7614974e-04  -3.2103335e-04  -1.4835832e-03  -7.1457837e-04  -3.4738614e-04  -2.6144081e-04  -5.1078893e-04  -4.9158611e-04  -3.0429414e-04  -7.6282513e-04  -4.7120827e-04   1.4489064e-04  -1.8549853e-04  -8.7448379e-06   1.1622314e-04  -1.8931876e-04  -1.0216022e-03  -7.4680219e-04  -5.7194527e-04   5.8844453e-04  -2.5610780e-04  -3.7717362e-04  -3.5768317e-04  -2.9809811e-04  -7.5014390e-04  -4.4694298e-04  -7.4219168e-04  -4.1104705e-04  -3.7406420e-04  -9.5877558e-04  -3.1192342e-04  -6.9502491e-04  -4.5684917e-04  -5.9176306e-04
   1.1953768e-05   4.0866704e-05  -2.8472400e-04   3.2583794e-06   2.0968851e-04  -4.4981451e-05   9.7101169e-05   7.5330827e-05   2.8348656e-03   1.0091481e-04  -1.8963659e-04   7.0182563e-05   7.9381491e-05   1.5459435e-04   5.2434916e-05   9.6351461e-05   2.9789260e-05   1.2666269e-04   1.1288616e-03   1.9590525e-05   2.8446768e-04   5.3429935e-04   3.8771320e-04   1.1135224e-04  -5.8383285e-04  -5.9109898e-05   3.2205408e-04   5.3521228e-04   2.3704744e-04   1.7880107e-04   1.2773363e-03   5.8064586e-05   6.5733836e-04  -5.0488788e-06  -2.1787315e-04   4.4822236e-04  -6.4255844e-04  -1.5991894e-04   1.1293728e-04  -3.6679674e-04  -4.9571274e-04  -2.3376635e-04  -4.8038125e-04   3.3161463e-04  -2.5173137e-04  -3.0264846e-04  -1.7974759e-04  -6.4813136e-04  -2.2694263e-04  -6.0260174e-04
   1.0923880e-04   1.9837842e-04  -1.5003547e-04   5.7015968e-05  -3.5133224e-04   3.3577133e-04   3.9876805e-04  -1.2940336e-04   2.4816240e-03   5.2320192e-05  -3.3808922e-04   1.0574354e-04  -1.1424781e-04  -1.4183333e-04   5.0022245e-05   3.4452311e-05  -2.2914419e-05  -1.8135528e-05  -1.6286579e-03   1.1615672e-05   1.3183350e-04   2.7313738e-04  -3.4372136e-04  -1.4446164e-04  -5.0534865e-05  -3.9106933e-04   1.1114599e-05   3.7736125e-05  -1.7961773e-05   1.3472680e-04   1.0447103e-03  -6.6147273e-04   6.6092849e-04  -3.4477699e-04  -4.3075247e-04   9.4956587e-05   9.5201040e-06  -4.6911568e-04  -4.7860460e-05  -4.1701781e-04  -5.2075938e-04  -3.0278423e-04  -7.2805269e-04   1.1036340e-03  -3.8762204e-04   6.2967284e-04  -3.3961027e-04  -8.1439101e-04  -6.9215294e-04  -8.7332720e-04
   1.2398374e-04  -1.4906013e-04  -4.1127371e-04  -1.7849020e-04  -4.7442818e-04  -4.6506917e-04  -1.4733140e-04  -4.7744211e-04   1.2218526e-03  -2.9445987e-04  -6.2578364e-04  -2.2943344e-05  -4.2316577e-04  -2.9948947e-04  -1.3559710e-04  -2.7339644e-04  -5.7282537e-04  -3.7604143e-04  -4.7777281e-03  -5.3586194e-04  -2.2677593e-04  -1.7988795e-04  -6.0759898e-04  -1.9701972e-04  -2.8397993e-04  -8.0707477e-04  -2.2082422e-04   1.8662176e-04   8.3875209e-05  -2.9669927e-05  -4.6731113e-04  -8.5686857e-04   1.8922017e-04  -6.8194751e-04   1.7857738e-04  -1.9137041e-03  -7.6184799e-05  -7.7430648e-04  -4.5074252e-04  -5.1106536e-04  -1.3415227e-03  -6.2598934e-04  -1.1041936e-03  -1.6886765e-03  -7.0688064e-04   1.9203835e-04  -6.3145056e-04  -1.2189174e-03  -1.3305942e-03  -1.3141761e-03
  -8.8851858e-04  -4.4433333e-04  -6.4376870e-04  -7.1224006e-04  -5.0996762e-04  -4.1840546e-04  -1.1132408e-03  -3.1584199e-04  -7.3179899e-04  -2.2539642e-04  -8.6350198e-04  -1.0510263e-04  -4.7929838e-04  -4.7340104e-04  -5.1333982e-04  -4.5298587e-04  -6.3876080e-04  -5.0137565e-04  -3.3762946e-03  -3.1136043e-04   1.1101100e-04   1.7156062e-04  -3.1917091e-04  -1.5299878e-04   1.0424987e-03  -6.1480264e-04  -4.1762691e-05   1.6606598e-04  -5.1116542e-04  -3.2048626e-04  -1.5953882e-04   8.2813604e-05   3.4390835e-04  -2.6623780e-04  -1.2185118e-03   3.2843210e-04  -1.2592709e-03  -3.1364130e-04  -1.0841561e-04   3.6985621e-05  -5.1880785e-04  -2.7386632e-04  -3.6767861e-04  -1.1295499e-04  -5.4068957e-04   1.6661764e-04  -2.2097658e-04  -6.1907031e-04  -5.4983480e-04  -7.5775245e-04
   4.5420064e-05   5.7755846e-05  -4.5104828e-04  -1.3680145e-04   5.2050837e-05   4.3689579e-05  -2.5095418e-04  -1.9209337e-04  -2.3899416e-03   4.3117245e-05  -4.7329598e-04   7.8809957e-05  -2.0958472e-04   1.1057478e-04  -5.3647000e-05  -7.9101010e-05  -2.1048129e-04  -1.9926925e-05  -5.8709411e-04  -1.9086745e-04   1.8414680e-04   2.6911809e-04  -2.3349514e-04  -1.2409428e-04  -6.8544160e-04  -3.7751847e-04  -1.3591899e-04   3.2136770e-04  -5.3181666e-05   2.3181997e-04  -4.1932138e-04  -9.0775581e-04   5.7234045e-04  -3.0113728e-04  -1.5345630e-03   3.6302363e-04   2.4051496e-04  -3.4413952e-04  -5.5547211e-05  -5.1481498e-04  -4.6881376e-04  -2.5551283e-04  -6.1690382e-04  -8.1724866e-04  -6.5368651e-05   9.6350902e-04  -2.6244210e-04  -6.9641432e-04  -3.5731102e-04  -8.5016416e-04
  -2.6511545e-06  -6.5906395e-05  -3.5617183e-04  -1.2676293e-04  -4.6525314e-04   1.3568857e-05  -3.2662041e-04  -1.6370082e-04  -1.2744628e-03  -1.1195623e-04  -5.5865559e-04   3.3399025e-05  -4.7720500e-04  -2.9116130e-04   1.6399061e-04  -2.7568510e-04  -4.3363395e-04  -1.5947872e-04   3.6195798e-03  -4.4664010e-04  -4.5809087e-05  -7.6065269e-05  -7.5114146e-04  -9.4911789e-05   1.9819463e-04  -5.7251676e-04  -2.0991599e-04  -2.6513595e-04  -3.0829984e-04  -1.4200420e-04   3.3185520e-04   2.0572428e-04   1.4662028e-04  -6.3374604e-04   1.3254950e-03   5.8576239e-05  -3.7689769e-04  -6.7395682e-04  -3.2462669e-04  -5.0106837e-04  -1.1172022e-03  -5.3371664e-04  -1.0317334e-03  -1.2233384e-03  -7.1254728e-04  -1.9426821e-03  -4.9130537e-04  -9.7081176e-04  -6.7549397e-04  -1.0797556e-03
  -7.8320026e-04  -4.6235928e-04  -1.0129844e-03  -6.4022007e-04  -2.4372418e-04  -7.8101258e-04  -6.6355348e-04  -3.1905834e-04  -5.1932079e-03  -4.9407530e-04  -1.0025672e-03  -9.1796108e-05  -7.6110929e-04  -6.2722422e-04  -5.2690698e-04  -6.3117739e-04  -8.7042752e-04  -4.7516168e-04  -1.9279981e-03  -9.1607188e-04  -3.4513336e-04  -4.6886000e-04  -8.3324721e-04  -4.1215614e-04  -1.2984588e-03  -8.8913582e-04  -4.0059746e-04  -5.2879186e-04  -4.2803481e-04  -1.2645494e-04  -2.5395403e-04   1.9173245e-05  -2.8519810e-04  -1.0266654e-03   7.7809213e-04  -1.2384050e-03  -8.3509786e-04  -4.6057848e-04  -4.6809274e-04  -3.8591446e-04  -8.4360020e-04  -4.3247803e-04  -9.0036198e-04  -1.9022037e-04  -5.3454272e-04  -2.1774651e-04  -2.9818231e-04  -7.3824544e-04  -6.4774964e-04  -7.3404494e-04
  -5.8986741e-04  -1.1668143e-04  -4.6654246e-04  -2.2597759e-04  -5.0076901e-04   5.1763386e-04  -3.9027675e-04  -8.4972162e-06   3.2625084e-03   1.6420294e-04  -5.4291944e-04   1.5623707e-04  -2.8707716e-04  -1.8233783e-04  -3.5168743e-04  -2.2211463e-04  -1.6808805e-04  -1.7960796e-04   1.6417878e-03  -9.4258634e-05   2.7491810e-04   4.5161686e-04  -2.2650244e-04   9.3316397e-05   8.6540403e-04  -3.0989671e-04  -2.3279710e-04  -3.2290633e-04   1.1156316e-04  -6.6503417e-05  -1.8394535e-03  -9.1102178e-04   1.1171161e-06  -3.4019261e-04   1.3904826e-03  -1.0668704e-03  -1.1254344e-04  -5.0278264e-05  -7.5643184e-05  -9.2309921e-05  -6.9295865e-04  -2.3173876e-04  -5.6510244e-04  -7.0611836e-04  -3.7907774e-04  -1.8815692e-03  -1.9992712e-04  -6.5957697e-04  -5.7018554e-04  -7.8289350e-04
  -1.1271766e-04  -4.1280040e-05  -4.7216204e-04  -1.2131976e-04  -3.9903057e-04  -1.1780127e-04  -4.6915558e-04   2.1675004e-04  -5.4029152e-03   2.4180730e-05  -6.1098242e-04   1.2549847e-04  -1.8927919e-04  -2.2145790e-04  -1.6601868e-04  -2.0677368e-04  -2.0358972e-04  -1.4285612e-04  -5.1717283e-03  -1.7898215e-04   1.4704454e-04   1.8928865e-04  -6.9251488e-05   6.1105791e-05  -5.7647525e-05  -4.4777725e-04  -2.9343055e-04   3.2287653e-04  -2.2117783e-04  -5.8699115e-05   1.3445540e-03   4.0162026e-04   1.4349217e-04  -6.9288956e-04   3.0291802e-04  -2.1716172e-04  -4.9487915e-04  -4.5386323e-04  -1.6793795e-04  -1.0035549e-03  -7.3651044e-04  -3.5549811e-04  -7.1949122e-04  -1.6170846e-03  -4.7358667e-04  -2.7318517e-04  -3.6383621e-04  -8.6997019e-04  -7.0877856e-04  -1.1587908e-03
  -3.5847625e-04  -2.7245076e-04  -5.1222811e-04  -3.8198457e-04  -7.3133130e-04  -4.7361880e-04  -6.9061603e-04  -7.5682660e-04  -3.0370595e-05  -3.1625823e-04  -8.3291816e-04  -1.9242798e-05  -6.2092155e-04  -6.1426254e-04  -2.8208681e-04  -5.4660119e-04  -6.5954996e-04  -4.4045979e-04  -2.8014053e-03  -6.8445416e-04  -1.7025410e-04  -2.6727922e-04  -7.3168561e-04  -2.8905203e-04  -1.8190684e-04  -6.3861773e-04  -9.2094560e-05  -2.8468930e-04  -2.9332784e-04  -2.6149667e-04  -5.6254986e-04  -6.8624981e-04  -6.4843080e-05  -9.0560265e-04  -1.2413344e-03  -4.1196137e-04  -5.8420905e-04  -8.4906205e-04  -4.4948800e-04  -2.6509096e-04  -1.4049730e-03  -6.2802027e-04  -1.1889756e-03   4.4658664e-04  -7.6666404e-04  -8.7445328e-04  -4.5863399e-04  -1.0384095e-03  -7.5924612e-04  -1.1304163e-03
  -1.0168917e-03  -2.6853709e-04  -8.3047966e-04  -5.3900218e-04  -5.3864165e-04   1.8235948e-04  -7.9449418e-04  -3.5748334e-04  -2.1847931e-03   1.5644447e-04  -6.4268039e-04   1.2009322e-04  -1.8838230e-04  -2.3188381e-04  -3.7048076e-04  -3.4822326e-04  -2.6291510e-04  -9.1433685e-05  -8.2513485e-05  -5.1633750e-05   3.5646631e-04   4.7417491e-04  -1.5978601e-04   1.5770108e-04  -1.6703197e-03  -2.6339843e-04  -3.5002286e-04   2.0403831e-04  -3.0637969e-04  -2.4844685e-05  -4.7377482e-05  -2.7249844e-04  -2.0019684e-04  -5.0525728e-04   1.3502821e-03   8.6318085e-04  -2.0873807e-04  -3.8898695e-04  -2.7103215e-05   1.1857162e-04  -4.7802489e-04  -2.0708994e-04  -6.8217202e-04  -3.0174872e-04  -2.7002467e-04  -8.7327469e-04  -1.6030732e-04  -6.6090532e-04  -4.1354646e-04  -8.1474311e-04
  -3.8725638e-04  -4.4665660e-05  -2.0814525e-04  -5.2752908e-05  -6.9734355e-04  -1.9999941e-04  -2.4940344e-04  -1.3927851e-04   1.9701871e-03   1.3937007e-04  -5.5961206e-04   1.9438806e-04  -2.7056609e-04  -2.6210427e-04  -3.8761861e-04  -2.1924265e-04  -2.4521272e-04  -2.2191691e-04  -6.3174835e-04  -1.2026404e-04   2.7526854e-04   3.9564547e-04  -3.3360405e-04   8.7708970e-05   8.8423700e-04  -4.2144192e-04  -3.8315874e-04  -2.7656699e-05   6.6712097e-04  -8.4434569e-06  -1.3251721e-03   2.6620854e-05  -1.3664812e-04  -3.9612944e-04  -2.6983779e-04  -5.6900410e-04   5.4257072e-04  -5.0919404e-04  -2.3856337e-04   5.0012866e-05  -7.0407259e-04  -3.0985838e-04  -6.7958096e-04   7.7257672e-04  -5.3422211e-04  -1.7729022e-03  -2.3961900e-04  -7.9548993e-04  -6.5064809e-04  -1.0523659e-03
  -7.6917518e-04  -2.3014072e-04  -6.1400415e-04  -2.7492721e-04   2.5314000e-04   2.9355933e-05  -6.4610114e-04  -4.6433712e-04   8.7434403e-04  -1.8356011e-04  -7.9875352e-04   7.8578960e-05  -3.5445965e-04  -4.6091244e-04  -1.9925485e-04  -4.6271266e-04  -5.3607713e-04  -3.3025452e-04  -2.2508679e-03  -4.6730018e-04  -5.7302743e-05  -3.9514514e-05  -1.0177913e-03  -2.0821264e-05  -7.0450704e-05  -5.1861082e-04  -5.9777935e-04  -3.5295161e-04   4.1219633e-04  -2.3194830e-04   8.0798159e-04  -8.3232799e-04  -2.0505064e-05  -5.8965554e-04  -2.2433631e-03  -5.9639639e-04  -8.2235149e-04  -3.1054142e-04  -3.3144653e-04  -6.7233684e-04  -1.3648520e-03  -5.0764601e-04  -1.0843087e-03  -2.7515308e-04  -7.1992597e-04  -1.3699882e-03  -4.4714834e-04  -1.0734143e-03  -1.0795154e-03  -1.3815628e-03
  -7.4551668e-04  -4.2233427e-04  -8.7358640e-04  -3.2242198e-04  -4.0237828e-05  -3.7162175e-04  -8.4729056e-04  -5.2401284e-04   3.2498210e-03   2.1565644e-04  -7.0986862e-04   1.6028958e-04  -2.8049995e-04  -3.5335275e-04  -1.2696856e-04  -2.5085002e-04  -3.1498959e-04  -1.6369423e-04  -6.7813275e-04   4.4676981e-06   3.3608382e-04   4.6204933e-04  -9.6032811e-05   3.0435709e-04  -5.3385377e-04   6.3784842e-05  -2.2012336e-04   1.2646317e-04   1.0421487e-04   1.6672544e-04   5.4415523e-05   3.7341585e-04   4.1150211e-04  -3.0992192e-04   1.7269398e-03  -2.5535136e-04   6.8252841e-05  -2.0292692e-04   7.1285045e-05   6.8087371e-05  -2.9292190e-04  -1.2261892e-04  -5.1921909e-04  -6.4897427e-04  -3.1058837e-04  -9.2651113e-04  -5.5639808e-05  -5.7360082e-04  -3.6076267e-04  -6.2216935e-04
  -9.4475858e-05  -2.5039823e-05  -3.4689676e-04  -1.0972637e-04  -8.6670792e-05  -2.5349251e-05  -8.0243459e-05   2.9950133e-05  -2.3891767e-03   1.8157772e-04  -4.7881098e-04   2.1801883e-04  -8.9935937e-05  -2.9741094e-04  -5.9219961e-05  -2.3679793e-04  -1.5840599e-04  -1.4313127e-04  -4.2633535e-04  -8.8073786e-05   2.4161060e-04   3.6053415e-04  -1.1263995e-04   1.8420863e-04  -5.3289020e-04  -1.4680911e-04  -7.6888260e-05   7.8483383e-05   3.4178852e-04  -2.1470738e-05   1.5542661e-03  -9.4805681e-04   3.9685060e-07  -2.7375598e-04  -1.4045669e-03  -2.3967394e-04   3.7056228e-04   3.0508423e-05  -1.5774027e-04   1.9735166e-05  -2.9946704e-04  -1.5087298e-04  -3.5411349e-04  -1.5051783e-03  -3.7160920e-04  -6.0278882e-04  -8.6230830e-05  -6.2535546e-04  -4.9881602e-04  -5.7631632e-04
  -4.6512860e-04  -9.2636416e-05  -3.4764066e-04  -2.5646188e-04  -6.9024361e-04  -2.2683039e-04  -1.0331823e-04  -1.4096955e-04  -2.7702723e-03  -1.0106391e-04  -5.8980315e-04   9.1505113e-05  -3.4244629e-04  -2.3434762e-04  -3.5771113e-04  -3.3226208e-04  -4.3882147e-04  -4.1758255e-04   1.1850578e-03  -5.4508058e-04  -6.9773319e-05  -1.9624116e-05  -3.7773952e-04   2.0777486e-04  -2.2219453e-04  -5.1523780e-04  -3.8394827e-04  -6.4791803e-04  -2.4756023e-06  -1.4202461e-04  -4.3424123e-04   2.2428544e-04  -3.8314200e-04  -6.0422672e-04  -1.1115887e-03  -1.5321022e-03  -6.1119732e-04  -8.8417198e-04  -2.9796007e-04  -9.5333031e-05  -5.8442319e-04  -3.8358322e-04  -7.8484166e-04  -1.5866897e-03  -4.7726225e-04  -2.5273659e-04  -3.1614932e-04  -7.8078511e-04  -1.1072234e-03  -1.0450230e-03
  -4.6204627e-04  -3.8297175e-04  -8.8991656e-04  -2.8844154e-04  -4.6523160e-04  -6.2668056e-04  -5.9158850e-04  -4.3227526e-04   2.6186875e-03   1.8883910e-04  -5.6166126e-04   1.0829836e-04  -2.1190890e-04  -1.2858065e-04  -1.2801189e-04  -1.4085752e-04  -1.2985121e-04  -2.2255334e-04  -1.9320123e-03   2.0000884e-05   3.1641818e-04   4.0566979e-04   4.2760614e-05   3.4228386e-04   4.9208803e-04  -5.1539118e-05   1.1578833e-04  -9.9434248e-05   3.6173663e-04   1.1093649e-04  -4.9003476e-04   8.7920798e-06   3.2608581e-04   2.1085772e-05   1.4310041e-03   2.7140195e-04  -3.9780038e-04   2.9273049e-04   1.2051688e-05   3.2772927e-04   2.2997119e-04   2.2679185e-05  -1.0923651e-04  -4.7265267e-04  -1.4013459e-04  -7.5946137e-04   1.2337264e-04  -2.9784167e-04  -3.0028247e-04  -3.3237896e-04
  -1.6074549e-04   1.4097149e-04  -2.1039478e-04   1.2795230e-04  -3.4188587e-04  -1.7019356e-05  -4.0069289e-04   2.4413326e-04   4.4893642e-04   2.2596544e-04  -2.0491295e-04   1.9741071e-04   1.1504965e-06  -3.7713460e-05   1.5135318e-04  -5.7334248e-05  -4.3174245e-05   1.5675039e-04  -1.4765862e-03   1.2340255e-04   2.8252244e-04   4.4970764e-04   9.2787057e-05   2.6316350e-04   5.6340772e-04   1.0743421e-04  -2.5256746e-04   1.3614888e-04   6.3568389e-04   4.4307464e-05  -5.7597383e-04   3.5203225e-04  -5.1708968e-05  -2.2877004e-05   4.1879091e-04  -9.9130080e-04   1.8069535e-04  -4.5152166e-04   9.7350867e-06  -2.6578849e-04   1.1560885e-04  -7.2747367e-05  -2.7607604e-05  -2.3710411e-03  -2.2882292e-04   6.7936716e-04   1.1832619e-04  -3.3738735e-04  -3.7525638e-04  -3.0795488e-04
   1.6784326e-06  -2.5955393e-05  -4.0547643e-04   2.2326465e-05  -4.3657530e-04  -9.7125039e-06  -3.1682235e-04   1.7128947e-06  -2.5487428e-03  -2.4491404e-05  -4.7105725e-04   9.1145288e-05  -2.4443195e-04  -1.7634244e-04   7.7168988e-05  -1.6171727e-04  -1.1873734e-04  -2.1412594e-05  -2.1196969e-03  -1.9383164e-04   4.9789858e-05   1.2181354e-04  -3.1643288e-04   1.0167795e-04  -3.3711451e-05  -2.8642232e-04  -1.8578579e-04  -5.3342746e-04   2.6455054e-05  -9.5489755e-05  -1.0270436e-03  -2.9862157e-04   2.3574250e-04  -4.0608173e-04   7.5243815e-04  -1.1005361e-03   6.9355313e-04  -3.0729486e-04  -2.4699711e-04  -4.5171965e-04  -4.7725454e-04  -2.6739261e-04  -5.0682260e-04  -2.6659557e-04  -4.4519448e-04  -2.0180591e-03  -9.1951129e-05  -6.1303360e-04  -7.2734809e-04  -8.1732846e-04
  -4.7043004e-04  -2.2215681e-04  -5.5006938e-04  -3.1303518e-04   5.5685139e-04   2.7257204e-04   4.2383153e-06  -4.8628877e-04  -1.4640890e-03   2.3609104e-04  -3.8538224e-04   1.1074835e-04  -2.2957780e-04  -8.5050684e-05  -8.8102563e-05  -9.8330711e-05   2.5981573e-05   6.3242886e-05  -4.5782207e-03   2.8365600e-04   4.0272146e-04   6.3974794e-04  -1.4967104e-05   5.1541452e-04   7.4417144e-04  -1.2137574e-05  -3.7520880e-05   6.3551229e-06   6.0470874e-04   2.6237595e-04  -9.9835073e-05   2.3888452e-04   3.4342075e-04  -3.6725874e-07  -7.4488815e-04  -1.6971780e-05  -2.9553060e-04   2.0418179e-04   1.0884665e-04  -1.7295252e-04   6.1281549e-04   1.4779852e-04  -1.2323821e-04  -7.2250914e-05   1.1922442e-04  -1.4991761e-03   3.5292920e-04  -8.1034515e-05  -2.9285930e-04  -5.6349167e-05
   3.9066144e-04   3.3803176e-04   9.9452220e-05   4.8374353e-04  -1.2115038e-05   1.2908038e-04   3.7174733e-04   1.1480816e-04  -8.1280613e-04   2.9546028e-04  -2.4605848e-04   2.0717866e-04   7.3181276e-05   2.2649010e-04   2.6789753e-04   2.2445875e-04   2.2294905e-04   3.4658180e-04  -3.8674482e-04   2.5415808e-04   4.0673208e-04   6.4485741e-04   3.1730458e-05   3.9092463e-04  -4.0250030e-04   2.1748632e-04   1.9380615e-04  -6.0002905e-05   3.5175844e-04   2.2401469e-04   5.5247924e-04  -2.0570244e-04   4.9786974e-04   1.1821695e-04   1.5153628e-03   6.2913989e-04  -4.1815358e-05  -5.2882828e-05   1.0507525e-04   9.5280801e-04   1.7896175e-04   5.7516674e-05   4.4743632e-05  -1.3083924e-03  -7.5844771e-05   5.1054789e-04   3.3639863e-04  -1.1563293e-04  -2.0324874e-04  -2.0740414e-04
   4.1064544e-04   2.9342447e-04  -4.2756819e-05   1.9788567e-04   1.0554811e-04   3.1488962e-04   6.2678166e-04   1.8245651e-04  -1.5173611e-03   5.6751280e-05  -2.9529913e-04   1.4644489e-04  -5.6511300e-05   2.0295160e-04  -2.4535955e-04   2.1795538e-05   5.9078506e-05   1.5509348e-04   1.2312648e-03  -1.2163635e-05   1.2853566e-04   3.2002211e-04  -4.1802513e-04   1.1681386e-04  -1.2856332e-03   2.3758115e-05   1.3028349e-04   8.2653336e-05   8.1917096e-06   2.4836557e-04  -1.0546449e-03  -5.2886939e-05   6.0393650e-04  -2.8966044e-04  -5.8015238e-04  -7.0929195e-04   4.5067896e-04   1.8606355e-04  -6.4816180e-05  -7.7756733e-04   8.8411893e-05  -1.3344627e-04  -3.8249692e-04  -1.5192376e-04  -3.2275982e-04  -1.6250521e-04   9.7894204e-05  -3.7609987e-04  -1.5644557e-04  -3.8202159e-04
  -5.5184599e-04  -5.9387377e-05  -4.0433012e-04  -1.6661370e-04  -3.8524385e-04   7.7446275e-05  -4.5479214e-04  -3.2771160e-04   1.3365143e-03  -2.8435126e-05  -5.0655671e-04   3.2146792e-05  -2.5542208e-04  -2.7116123e-04  -1.6836276e-04  -1.3931186e-04  -1.2166234e-04  -1.1446299e-04   1.2556702e-03   2.1409582e-04   3.5038590e-04   6.7956303e-04   2.0998805e-04   3.8458852e-04   1.0775645e-04   1.0826706e-04   5.2540094e-05   2.5323642e-04   1.7239239e-05   2.4534756e-04   2.2517226e-03   3.8919729e-04   4.3145739e-04   1.0165028e-05   2.2212986e-03   1.3790171e-03   4.7092879e-04   5.4690917e-04   2.6497815e-04   2.4035206e-04   3.1212188e-04   2.3491684e-04   2.9158138e-04   4.1508581e-04   3.7496741e-04   2.7130595e-03   4.9582805e-04   8.0689846e-05   2.1255975e-05   3.4392148e-04
   5.0106162e-04   5.1574188e-04   1.7630729e-04   6.0639606e-04   1.7035213e-04   4.2545167e-04   2.6713323e-04   2.5071748e-04   2.9449956e-03   4.0032368e-04   1.7508572e-05   2.5991199e-04   3.5297283e-04   3.6861861e-04   1.4441540e-04   3.3115415e-04   5.2192039e-04   4.3950454e-04   7.9248799e-04   5.8686052e-04   4.7799430e-04   7.8097777e-04   4.4437428e-04   5.2391249e-04   3.3203085e-04   2.7814263e-04   2.4673986e-04   3.7672199e-04   2.4894203e-04   3.6945683e-04   1.1184450e-03   9.7160635e-04   1.1461469e-03   3.8176938e-04  -7.9124153e-04   1.6049067e-03   9.1458735e-04  -1.2605451e-04   3.0868655e-04   4.9728417e-04   5.1157497e-04   2.8535203e-04   8.2796505e-05   1.5139634e-03  -3.0750867e-05   1.4344449e-03   5.4730097e-04   7.6473189e-05   4.0514226e-04   1.7367452e-04
   1.0746715e-04   4.5459569e-04  -1.0449664e-04   5.6329276e-04   2.8843171e-04   2.8102309e-04  -1.3112808e-04   4.5441781e-04   1.0448162e-03   2.2831064e-04  -1.4637818e-04   2.2429753e-04   1.6005141e-04   4.9926917e-04   6.4078654e-04   3.1214254e-04   2.9391560e-04   2.6003996e-04   1.1290150e-04   2.5107598e-04   2.8772390e-04   5.3068885e-04  -2.7756494e-05   3.9577857e-04   3.3275611e-04   2.3578342e-04   4.8062444e-04   1.3193562e-04  -5.4373781e-05   4.2577417e-04   1.6981138e-04   1.6118854e-04   5.0797645e-04   7.0100323e-05   2.6408074e-05  -9.4525376e-04   3.0589488e-04   4.4506954e-04   1.3639621e-04   3.8268394e-04   2.4176548e-04   2.6291766e-05  -7.5223397e-05   1.6261304e-04   1.5752917e-04  -4.1728787e-04   2.9905266e-04  -1.9783265e-04  -3.6582712e-04  -1.0737158e-04
