  -6.0213235e-04  -5.3170248e-04  -3.3473983e-04  -6.2244933e-04  -6.7805384e-05  -2.5189505e-04   1.2022699e-04  -2.9918019e-04  -4.9651409e-03  -6.1380223e-04  -7.0406520e-04  -6.6714728e-04  -4.1691374e-04  -3.3128433e-04  -4.9323273e-05  -9.9829522e-05  -2.2317957e-04  -6.0494990e-06  -2.4729627e-03  -2.9856706e-04  -1.7139416e-04  -3.5450741e-04  -5.4285204e-04  -3.7713570e-04  -4.7722601e-04  -2.1487473e-04  -1.7555428e-04   8.2757651e-05   3.3024320e-05  -1.4300890e-04  -1.3921014e-04  -6.5810973e-04  -4.4957947e-04  -4.1567654e-04   1.9345902e-03   1.0240136e-03  -5.0809013e-04  -5.7206751e-04  -1.9323010e-05  -8.5446105e-04  -1.0020655e-04  -9.8780201e-06   3.4389680e-04  -7.5265045e-05  -2.6764889e-04   5.8132585e-04  -2.4206129e-04  -1.3972139e-04   9.0548900e-05   4.2168854e-04
  -1.1486430e-03  -9.1584306e-04  -4.7195243e-04  -1.0751429e-03  -9.2235830e-04  -9.0133108e-04  -4.8711666e-04  -6.6111516e-04   1.3215384e-03  -9.4420591e-04  -7.9986634e-04  -8.3259627e-04  -7.2348467e-04  -7.0520357e-04  -3.0015208e-04  -3.4392672e-04  -7.2336855e-04  -5.5674301e-04  -1.4107189e-03  -8.6265639e-04  -5.0253514e-04  -8.5848116e-04  -1.4157533e-03  -5.9809518e-04   6.0003402e-04  -2.9122477e-04  -1.6562000e-04  -5.7623949e-04  -4.2678451e-04  -1.2452522e-04  -8.6990924e-04  -1.0510639e-03  -6.7734218e-04  -6.2717957e-04   7.4292521e-04   6.0093129e-04  -1.0208065e-03  -3.6825513e-04  -1.9834649e-04  -1.2512678e-04  -2.7276945e-04   1.2465203e-04   4.1523893e-04   1.1223704e-04  -2.0664676e-04   9.1900566e-04  -2.6975460e-05   9.5736053e-05   2.7742438e-04   7.3240389e-04
  -8.0883218e-04  -5.4883678e-04  -1.8160001e-05  -2.2172411e-05  -4.1498130e-04  -4.4074340e-04  -9.4016534e-05  -2.2204530e-04  -1.1029699e-04  -4.0790247e-04  -5.5061764e-04  -5.5731979e-04  -4.2865943e-04  -1.1205515e-04   1.8281324e-04  -2.5632746e-05  -1.2223347e-04  -8.2564489e-05   3.1581414e-03  -1.2582913e-04   5.7506177e-06  -1.1100798e-04  -2.3107980e-04  -2.3955846e-04  -3.0949508e-04   1.4338394e-04  -4.9906067e-04   5.6016276e-04   1.8434107e-04   6.6918678e-06  -6.3672604e-04  -5.5803044e-04  -3.8099408e-04   6.1962099e-05   8.5059990e-04   1.3156411e-04   8.2334889e-05   9.6888478e-05   1.6511757e-04  -1.2207411e-04   5.1281706e-04   2.3732385e-04   5.3257454e-04  -4.9332774e-04  -1.6779054e-04  -2.9897274e-04   1.5239552e-05   1.8964449e-04   3.4756487e-04   8.0747518e-04
  -5.8397115e-04  -5.3489627e-04  -4.2335520e-05  -3.7922693e-04  -8.2304596e-04  -2.7399720e-04  -3.2761438e-06   4.8190977e-05  -5.9911777e-04  -4.8585923e-04  -5.2572892e-04  -5.8956177e-04  -3.9945898e-04  -1.7066002e-04   1.0489396e-04  -1.3129986e-04  -2.2422228e-04  -9.0934402e-05  -1.9699237e-03  -2.3096218e-04  -1.1461824e-04  -2.7180734e-04  -4.3393942e-04  -3.9219690e-04   3.6892012e-05  -1.0484835e-05  -3.7910356e-04  -1.3098311e-04  -6.8561472e-05  -2.2933958e-04  -1.1577324e-03  -3.4320159e-04  -2.2136871e-04  -1.1456627e-04  -1.9131378e-04  -2.1252649e-04  -3.6773324e-04  -4.3687268e-04  -4.5576985e-06   3.0894563e-04   1.8531311e-04   5.9302478e-05   2.1759974e-04  -1.6494551e-04  -3.0772359e-04   1.9103059e-04  -2.1926290e-04  -1.2778933e-04  -5.7189704e-06   4.6815965e-04
  -1.1522132e-03  -7.5308280e-04  -4.9300073e-04  -9.5744035e-04  -7.2063366e-04  -6.7329523e-04  -4.5946359e-05  -9.9499659e-05  -1.8647014e-03  -8.0450042e-04  -6.5364572e-04  -7.4945611e-04  -6.7912124e-04  -6.9722481e-04  -2.4973328e-04  -3.9025844e-04  -4.9692258e-04  -4.0606825e-04   1.5786381e-03  -7.1830658e-04  -4.0127375e-04  -6.5712439e-04  -4.2260883e-04  -7.3096290e-04  -1.3958512e-05  -1.7740090e-04  -5.6422973e-04   3.9131878e-04  -2.7935332e-04  -3.0317859e-04  -1.2693055e-04  -6.0971896e-04  -8.7086548e-04  -3.1458208e-04   9.0086221e-04  -6.9768733e-04  -1.2305985e-03  -2.5013235e-04  -1.9579598e-04  -1.9085451e-04  -3.1296618e-04  -2.1023436e-04  -4.3063210e-05  -9.9654112e-04  -8.2073914e-04  -3.0692507e-04  -3.6942348e-04  -2.9351277e-04  -5.5776040e-05   3.7823402e-04
  -7.0090173e-04  -8.4244093e-04  -7.9025968e-04  -7.4340065e-04  -8.8504306e-04  -9.3348144e-04  -1.0171147e-04  -6.4127555e-04   1.8487632e-03  -4.1832440e-04  -5.4655166e-04  -6.1403995e-04  -4.6619977e-04  -2.6833857e-04  -1.9008502e-04  -7.5452743e-05  -1.5241654e-04  -5.5118075e-05  -3.0781983e-03  -1.9059511e-06   8.0878133e-05  -3.3661483e-06  -2.5994278e-04  -1.2608079e-04   2.4308506e-04  -1.7704971e-05  -3.6347998e-04   1.8461203e-04   6.3460285e-04  -7.6734195e-06  -2.5336051e-04  -6.6096976e-04  -4.4944652e-05   9.4526898e-05  -3.7744702e-04  -2.0470671e-04   6.1204232e-04   2.7840212e-04   2.5232651e-04  -4.8288977e-04   5.2359258e-04   2.6480312e-04   6.5423758e-04   5.9989450e-04  -3.2810112e-05   2.0994982e-04  -2.0977877e-05   1.0804003e-04   2.7027688e-04   8.5839670e-04
   4.6084195e-05  -4.4911259e-04   1.2059188e-05  -2.2155597e-04  -3.2514139e-04  -1.3135269e-04  -2.3110234e-04  -6.0869832e-05  -7.6827651e-04  -3.7191572e-04  -4.2351562e-04  -5.2560441e-04  -4.2301882e-04  -2.6231221e-04   1.4324387e-04   3.3553522e-05  -1.1097520e-04  -5.9957401e-05   2.6730099e-04  -5.4884877e-05   2.3192857e-05  -9.7646625e-05  -3.5878445e-04  -2.0255188e-04  -2.3792023e-04   2.9722726e-04  -3.1145808e-04   1.9115694e-04   1.2252332e-05   4.1106364e-04  -6.2933413e-04   2.1693615e-04  -2.5619671e-04  -4.3819200e-05  -5.4799608e-04  -1.5835954e-04   5.1705010e-05  -9.3834344e-05   1.4000530e-04  -4.0138155e-04   3.2945373e-04   1.4373921e-04   6.1361020e-04  -9.3767740e-04  -2.1301520e-04   1.2300370e-03  -1.1953455e-04  -6.4548018e-05   1.3528540e-04   4.7213119e-04
  -9.5404306e-05  -6.1007682e-04  -3.7050477e-04  -7.1086385e-04  -4.8159432e-04  -4.4822483e-04  -4.6593032e-04  -1.4371351e-04  -4.4878596e-03  -6.5063377e-04  -7.8607874e-04  -6.3402508e-04  -5.1099260e-04  -4.0703357e-04  -3.4314167e-04  -2.1229847e-04  -3.8893585e-04  -1.2345388e-04   1.1505954e-03  -4.2346786e-04  -2.5225108e-04  -4.5326163e-04  -5.9086917e-04  -3.8311054e-04  -7.8345896e-05  -3.2974419e-04  -8.0558978e-04  -4.0074892e-04  -2.6939492e-04  -2.4124901e-04  -3.2832270e-04  -8.2733802e-04  -4.9655081e-04  -3.4169614e-04   6.0290651e-05  -7.2373188e-04  -4.7683684e-04  -2.8740813e-04  -8.1000107e-05  -8.7587323e-05  -2.8232834e-04  -1.1669984e-04  -9.6362746e-05   1.7630764e-04  -4.2020567e-04  -3.6663143e-04  -4.1269310e-04  -3.4439799e-04  -2.8587016e-04   2.0708301e-04
  -8.0731069e-04  -9.8796678e-04  -6.3002284e-04  -1.2858674e-03  -1.5435347e-03  -1.3337845e-03  -8.1806933e-04  -2.4408760e-04  -2.2471016e-03  -8.0696691e-04  -1.1036613e-03  -7.5586338e-04  -7.8565720e-04  -5.9471518e-04  -4.9924693e-04  -3.4828481e-04  -5.9450668e-04  -4.2386612e-04  -2.0762566e-03  -3.0141984e-04  -5.4530123e-05  -1.2237389e-04  -4.0691684e-04  -2.6913619e-04   2.5742137e-04  -2.0522698e-04  -1.4137161e-04   2.9356629e-04   1.3882733e-05   1.0094525e-04  -1.5550324e-03   1.5225909e-04  -2.6989533e-04  -1.9407307e-04  -7.3079608e-04  -1.1799150e-04  -1.3038110e-04   2.2020949e-04   1.9957834e-04   5.9318286e-04   5.2395480e-04   2.5437071e-04   4.8950274e-04   2.8666115e-04  -2.3636183e-05   9.9388650e-04   2.8347391e-05   1.5104833e-04   2.5271991e-04   8.2309626e-04
  -2.8672250e-04  -4.1777064e-04  -2.0882804e-05  -2.4941532e-04  -2.1706393e-04  -3.2082287e-04  -2.4396535e-04  -3.5756573e-04  -1.4315954e-03  -2.9529000e-04  -4.9223314e-04  -5.0328724e-04  -1.9600616e-04  -1.3592195e-04  -2.1807871e-04   1.0155590e-04  -2.0323746e-06  -1.1312574e-04   5.5759388e-04  -3.9299550e-05   5.0366489e-05  -1.5754977e-05  -5.4693472e-04  -1.4502449e-04  -5.5265520e-04   4.2872933e-05   8.8778434e-06  -1.6327591e-04   3.6123401e-04   1.7862178e-04   1.1994611e-05   1.2820080e-04  -4.8940077e-05  -2.9630961e-05   1.7375083e-03   5.2453834e-04   6.4398750e-04   2.4006572e-04   2.3630541e-04  -1.7111338e-04   4.5350287e-04   2.6505699e-04   7.4447575e-04   7.2362804e-04  -2.3047850e-04  -3.9362105e-05  -3.8590747e-06   1.5234441e-04   3.1612910e-04   6.3894247e-04
  -8.2189054e-04  -4.6984499e-04  -1.3378287e-04  -4.3293901e-04  -7.0074637e-04  -5.3615274e-04   2.0472081e-04  -1.1059843e-04   9.8189781e-04  -4.7343833e-04  -4.9052160e-04  -5.7253655e-04  -4.2171153e-04  -4.1684124e-04   1.0792702e-04   1.1298787e-05  -1.5733337e-04  -6.4081818e-05   1.8609620e-03  -2.7332848e-04  -1.4636580e-04  -2.3936646e-04  -4.3506111e-04  -2.8370795e-04  -1.8674746e-04   1.0230217e-04  -8.3053412e-05   2.2985099e-04  -2.4812380e-04   2.6528669e-05  -1.4898705e-03  -4.2013501e-04  -5.2660075e-04  -1.3899489e-04  -2.2267314e-04  -2.1065821e-06  -1.1618191e-03  -3.4963028e-04  -4.3902724e-05  -6.4267608e-04   7.4331598e-05  -4.2744930e-05   1.8787193e-04  -2.7002380e-03  -4.1475912e-04  -3.0821899e-04  -2.8559842e-04  -1.1126642e-04  -1.5018934e-04   3.1113895e-04
  -5.4207287e-04  -8.3103374e-04  -6.2202691e-04  -1.0699640e-03  -8.1436551e-04  -8.6612103e-04  -2.5935695e-04  -2.3889626e-04  -3.1175986e-03  -8.3301292e-04  -9.0374349e-04  -7.1517134e-04  -7.8705780e-04  -6.6930568e-04  -2.9932766e-04  -2.7598470e-04  -6.4856146e-04  -4.7072012e-04  -1.8789833e-04  -8.0982147e-04  -4.4502754e-04  -7.3370495e-04  -1.2264426e-03  -6.1665202e-04   1.5974150e-04  -5.0020480e-04  -7.1659224e-04  -4.4973509e-04  -1.0735339e-03  -3.8463989e-04  -6.5141910e-04  -3.0168743e-04  -6.7904883e-04  -8.7167619e-04   2.2230850e-04  -5.8669295e-05  -7.5144327e-04  -2.8619496e-04  -3.2582931e-04  -8.3037413e-04  -2.2820721e-04  -1.5984522e-05   2.4866639e-04  -8.8406401e-04  -5.3077261e-04   1.3129528e-04  -1.6485470e-04  -1.7851817e-05   2.1041570e-04   5.8747863e-04
  -9.1458589e-04  -6.8401993e-04  -4.7337151e-05  -4.7462955e-04  -2.3643347e-04  -1.1863964e-04  -2.4400481e-04  -1.8187476e-04  -1.9401652e-03  -2.8580677e-04  -4.1351619e-04  -4.9346947e-04  -3.5220364e-04  -2.1266167e-04   1.0123811e-04   7.3871612e-05  -4.1643554e-05   7.8376026e-05   5.7650026e-04   1.0718294e-05   1.2052216e-04   4.7799120e-05  -1.5292609e-04  -2.0228463e-04  -4.0713022e-04   3.1987744e-04   5.1766714e-05  -2.2991991e-04   2.9841778e-04   1.0138765e-04   2.1291546e-04   4.2144116e-04  -3.5659038e-04   1.3548040e-04  -4.2258974e-04   4.4232962e-04   3.9760111e-04   5.0233211e-06   2.4977629e-04   5.7738484e-04   6.4210134e-04   2.8596137e-04   6.1289559e-04   1.0935569e-03   7.6345001e-05  -8.1803271e-04  -4.4285871e-06   1.1364003e-04   1.5707356e-04   7.2470907e-04
  -1.0836578e-03  -4.2288681e-04  -8.6875465e-05  -3.5421064e-04   4.8059860e-04  -1.3682085e-04  -3.4094707e-04  -5.1179271e-05   2.2721542e-03  -3.7598997e-04  -4.9902371e-04  -5.2958110e-04  -3.9576288e-04  -3.5922436e-04  -2.4353166e-04  -4.6857081e-06  -1.3955585e-04  -5.4923734e-05  -4.3333671e-03  -1.5644552e-04   2.8230827e-06  -1.2553553e-04  -7.0150796e-04  -1.4602594e-04  -3.5425695e-04   2.6400053e-04  -4.3719143e-04  -8.9224734e-05  -2.5193984e-04  -1.3939069e-04   3.7033044e-04  -5.3695583e-04  -5.9722760e-04   5.6873607e-05  -2.4723297e-04   5.4856774e-04  -7.7718793e-04   7.7424935e-05   9.5395430e-05  -7.8413650e-05  -1.5902927e-04   1.0781068e-04   4.2599029e-04  -5.3819193e-04  -2.1813221e-04  -5.8642577e-04  -1.8259321e-04  -5.4121982e-05  -2.9737933e-04   6.4545695e-04
  -8.7452447e-04  -7.7021215e-04  -2.9603849e-04  -8.0955005e-04  -2.1456061e-04  -8.5336244e-04  -4.7780189e-04  -5.4631324e-04  -5.3941522e-04  -7.1153743e-04  -7.2751322e-04  -6.6983822e-04  -5.9566606e-04  -5.6102552e-04  -3.4718416e-04  -2.8584676e-04  -5.6349731e-04  -4.2427826e-04  -2.9085556e-03  -7.2480494e-04  -3.2401999e-04  -6.4311491e-04  -6.4331054e-04  -4.7406121e-04  -1.1753269e-05  -3.8671980e-04  -2.1980739e-04  -2.6974538e-05  -1.7973178e-04  -4.7023740e-04  -2.0644807e-03   2.3777755e-04  -6.0889428e-04  -5.9183157e-04  -5.8123498e-04  -1.2043208e-03  -8.9603744e-04  -4.3841614e-04  -2.4032827e-04  -4.7111468e-04  -2.1071034e-04  -1.8303026e-04   9.2631999e-05  -9.0772961e-04  -6.8686472e-04  -4.5606348e-04  -4.7692648e-04  -3.2246820e-04  -4.4564702e-04   1.3393731e-04
  -1.4113185e-03  -1.1114880e-03  -5.8304222e-04  -1.3150238e-03  -8.8914193e-04  -1.0740826e-03  -7.0032716e-04  -7.6900457e-04   2.0724460e-03  -7.0310803e-04  -1.2015708e-03  -7.6090876e-04  -8.3172438e-04  -7.6860527e-04  -4.1641205e-04  -4.1563899e-04  -5.3715141e-04  -4.5800116e-04   3.2418584e-03  -2.5974493e-04  -3.2723983e-05  -1.6009875e-04  -1.1844663e-03  -2.9715945e-04   1.1986760e-04  -2.7329783e-05  -5.8126904e-04  -2.3245612e-04   1.6395173e-04  -1.8113884e-04   1.0793757e-03   2.2848955e-04  -4.7054695e-04  -2.2519696e-04   5.3894753e-04  -5.6340534e-05  -4.5707703e-04  -5.4576984e-05   1.2646208e-04   2.0991452e-04   4.2911110e-04   2.6827233e-04   7.5190805e-04  -8.5220562e-04  -2.6116066e-04   5.6195725e-04  -5.7525231e-05   7.6115008e-05  -3.6536021e-05   7.1758288e-04
  -6.7860837e-04  -5.4011744e-04  -3.0520616e-05  -4.0112060e-04  -9.5554075e-04  -4.9611722e-04  -6.5879105e-04  -1.3025325e-04  -1.5594559e-03  -3.7893938e-04  -4.9692515e-04  -5.3795119e-04  -4.4372032e-04  -2.1578069e-04   1.2870085e-04  -9.3127543e-05  -1.0520054e-04  -8.7345230e-05  -3.0901162e-03  -1.5888597e-04   2.7907383e-05  -1.7677381e-04  -3.6170118e-04  -2.0733633e-04   4.4713740e-04   2.6133069e-04  -3.3850371e-04  -1.9609061e-04   4.4557068e-04   4.0497329e-05  -1.1037962e-03  -2.2795688e-05  -3.7073801e-04   5.0781724e-05  -8.8939728e-04   2.3515204e-04  -7.6385477e-04  -4.9450467e-05   4.4633929e-05  -6.0056639e-04   1.2886582e-04   1.6052165e-04   6.6229707e-04  -7.2445150e-04  -2.1299293e-04  -1.1033202e-03  -1.0227889e-04   5.7266596e-05   4.4057266e-05   5.5385375e-04
  -4.2689175e-04  -6.9279689e-04  -3.2440451e-04  -6.2235870e-04   6.0178569e-05  -6.3369481e-04   1.5089300e-04  -2.8597884e-04  -3.6267829e-03  -5.7647499e-04  -7.1663508e-04  -6.2190252e-04  -5.5228424e-04  -4.9809366e-04  -4.3021931e-04  -1.7858179e-04  -2.0415708e-04  -1.8688561e-04   1.1483930e-03  -5.4163672e-04  -2.0647486e-04  -5.1662099e-04  -6.0070743e-04  -4.8956164e-04  -7.5764803e-04  -7.8561257e-05  -4.3142500e-04  -3.4758393e-04  -6.0520752e-04  -1.2575484e-04  -5.1375403e-04  -2.8609260e-04  -2.9464718e-04  -2.2501840e-04  -8.7332260e-04  -3.9723280e-04  -6.0448435e-04  -7.3240988e-04  -1.9253037e-04  -2.1230415e-04  -2.0102743e-04  -1.0781830e-04   1.9316627e-04  -8.1786868e-04  -6.0335163e-04   1.2799128e-04  -3.6141509e-04  -2.4915635e-04  -3.3846227e-04   1.9258448e-04
  -1.1162277e-03  -1.0132096e-03  -7.4423343e-04  -1.2341437e-03  -1.0087154e-03  -9.9912530e-04  -7.0377981e-04  -4.0469799e-04  -7.8789901e-04  -9.1410469e-04  -9.3180651e-04  -8.0816558e-04  -8.2886696e-04  -7.8403082e-04  -5.0091575e-04  -5.0259981e-04  -5.8278639e-04  -5.8586779e-04  -7.6603703e-04  -8.2610612e-04  -4.4967874e-04  -8.9718774e-04  -1.2974826e-03  -5.9658452e-04  -1.7126274e-03  -2.0293539e-04  -5.7839608e-04  -2.5359500e-04  -5.0837628e-04  -5.1766919e-04  -1.0471138e-03  -1.0755979e-03  -6.5990456e-04  -4.6474292e-04   1.8431343e-03  -1.9001808e-04  -1.2673068e-04  -5.7721772e-05  -2.2848591e-04  -3.3243347e-04   2.1849657e-04   1.6424514e-04   4.2403958e-04  -1.2463415e-03  -2.4454083e-04  -1.1127020e-03  -7.3018258e-05   1.1113676e-04   4.5411009e-05   6.5966061e-04
  -6.7274563e-04  -6.4863177e-04  -2.5006817e-04  -4.5705610e-04   2.9438149e-04  -7.5692247e-04   3.3578886e-05  -1.8446814e-04   1.7697322e-03  -3.6645375e-04  -5.1741744e-04  -5.5110600e-04  -4.9337902e-04  -2.8154245e-04   2.2099286e-05  -5.6464578e-05  -1.7236086e-04  -7.6910153e-05  -7.6798198e-04  -1.2805893e-04   2.1463271e-05  -1.9276359e-04  -2.3680620e-04  -3.8970940e-04  -3.5815788e-04  -1.1191630e-05  -3.0619308e-04  -1.8831999e-04   1.6027891e-05  -3.3084856e-05  -6.6774286e-04  -5.0322007e-04  -5.1646604e-04  -2.1351135e-04   1.3647954e-03  -1.3826096e-06  -1.0600348e-03  -2.9635002e-04  -1.3289224e-04   5.8129709e-04   2.7313060e-04   2.6925400e-04   6.6452008e-04   2.2423183e-04  -3.7407043e-04  -4.8842333e-04   7.1786062e-06   4.7053061e-05  -2.0279173e-05   6.0001132e-04
  -7.9338398e-04  -1.0944677e-03  -5.7129667e-04  -1.0713602e-03   1.1586647e-04  -4.1345161e-04  -2.7627990e-04  -4.2283753e-04   2.2540060e-03  -8.5900980e-04  -5.8447855e-04  -9.0201257e-04  -6.1575731e-04  -4.7872067e-04  -2.5737853e-04  -2.4827482e-04  -4.8604645e-04  -1.6574138e-04  -1.6744183e-03  -5.0081010e-04  -1.9475495e-04  -5.9917703e-04  -8.5307530e-04  -6.8805087e-04  -1.2991680e-03  -1.6343867e-04  -2.8657573e-04  -1.5336063e-04  -5.0191500e-04  -8.2845887e-05  -2.2832607e-03  -8.1553866e-05  -8.1559311e-04  -1.1693002e-04   5.4377067e-04  -1.8757519e-04  -2.3177519e-04  -3.8448768e-04  -1.2188301e-04   7.3046406e-04   2.5591167e-04   1.7545857e-04   3.8707283e-04   3.2842733e-04  -5.6237320e-04  -6.9498077e-05  -2.0190228e-04  -2.3716426e-05  -5.2272397e-05   5.1901641e-04
  -1.4605247e-03  -1.3153985e-03  -9.0330327e-04  -1.6978215e-03  -1.0501172e-03  -1.1614119e-03  -8.4247172e-04  -7.4662536e-04   1.2999740e-03  -1.2826917e-03  -9.8358805e-04  -1.0935623e-03  -8.9503778e-04  -7.9283543e-04  -3.4117798e-04  -6.2972750e-04  -8.8276312e-04  -7.0828898e-04  -2.5235044e-03  -1.1494538e-03  -5.1573303e-04  -1.2515773e-03  -1.6464681e-03  -1.0036096e-03  -1.4032255e-03  -5.0645211e-04  -5.3720194e-04  -6.6813955e-04  -8.9970313e-04  -5.2975287e-04  -7.0162956e-04  -1.6391774e-03  -1.2170749e-03  -4.1661694e-04  -2.3928804e-04  -2.5160369e-04  -1.1336317e-03  -8.7416364e-04  -4.5465474e-04  -6.5243081e-04  -1.0786185e-04  -9.8139033e-05   1.8209101e-04  -1.1566663e-03  -7.2622363e-04   4.8148725e-04  -2.5740310e-04  -1.7745112e-04  -2.4708945e-04   7.7446183e-04
  -1.2860573e-03  -1.6282231e-03  -1.1491154e-03  -1.4673749e-03  -6.6492631e-04  -1.1936253e-03  -7.0126279e-04  -3.9707680e-04   2.0030576e-03  -8.3702704e-04  -7.0445728e-04  -9.2025060e-04  -6.0914835e-04  -5.7015184e-04  -5.5561779e-04  -2.1988254e-04  -5.3611776e-04  -1.0545812e-04   4.3749553e-03  -1.6007129e-04  -1.8469051e-04  -5.5834802e-04  -6.2485639e-04  -4.5067302e-04  -9.8047755e-04   9.3308139e-05  -3.2042095e-04  -4.3348887e-04   2.2200227e-04   5.0449657e-05  -3.8234363e-04  -3.8940303e-05  -6.0047369e-05  -1.8645533e-04  -6.6871569e-04   9.7260397e-04   2.5227026e-04   7.8502941e-05   7.2154835e-05   5.5017637e-04   8.9695555e-04   4.5221456e-04   9.2393567e-04   9.8522776e-04  -2.9186261e-04   6.4671488e-04   9.3993171e-05   1.7402573e-04   1.4318840e-04   1.1595178e-03
  -7.2431343e-04  -1.1037381e-03  -6.0502265e-04  -9.0817938e-04  -4.8832939e-04  -1.3269904e-03  -2.7481987e-04  -2.4076593e-04  -4.3099704e-03  -6.8279100e-04  -3.6947400e-04  -7.6462899e-04  -3.8232171e-04  -4.0183085e-04  -4.6978684e-04  -1.5378107e-04  -3.0891004e-04  -1.7693166e-04  -5.0822657e-04  -3.2361483e-04  -1.8506536e-04  -5.8596558e-04  -4.2020594e-04  -4.5763756e-04  -1.6164971e-05   5.0516242e-06  -6.8936555e-04   2.0211128e-05  -2.1934950e-04  -5.4829270e-05  -3.8471230e-04  -7.5977261e-04  -4.1925453e-04  -7.1929375e-05  -3.6703356e-04   9.6707394e-05  -6.8983727e-04  -1.6580948e-04  -6.3643944e-05   8.6395268e-04   5.1333167e-04   3.6269921e-04   8.1952050e-04   1.1473022e-04  -1.9222900e-04   2.5739870e-04  -4.1073083e-05   9.1740338e-05  -1.1530897e-04   9.7701070e-04
  -1.6411752e-03  -1.2259445e-03  -7.2390726e-04  -1.3367442e-03  -9.5471262e-04  -1.1939052e-03  -6.1707775e-04  -5.4768694e-04  -8.6699706e-04  -9.9188089e-04  -7.0688286e-04  -8.9938770e-04  -7.0160575e-04  -4.9123348e-04  -1.7318224e-04  -4.5304440e-04  -8.1093924e-04  -4.8371821e-04  -1.3749859e-03  -7.9877890e-04  -5.2861212e-04  -1.0715002e-03  -1.3268798e-03  -6.1872223e-04  -1.0582280e-03  -2.5975937e-04  -5.1941455e-04  -1.7995347e-04  -3.4967656e-04  -3.7247341e-04  -1.1235500e-03  -9.6660637e-04  -1.3481511e-03  -6.0286792e-04  -1.6429733e-03   9.7814162e-05  -1.0627569e-03  -7.8553823e-04  -3.5153248e-04  -5.0469086e-04   9.7438766e-05   3.0630876e-05   4.5054968e-04  -6.3759340e-05  -5.3462654e-04   1.4696720e-04  -3.7203036e-04  -1.8514945e-04  -2.4561316e-04   4.5459630e-04
  -1.9688189e-03  -1.6051629e-03  -1.1541247e-03  -1.6971559e-03  -1.0390065e-03  -1.2938909e-03  -3.7179299e-04  -7.6429261e-04  -1.2393754e-03  -8.1016414e-04  -8.0435578e-04  -8.6501526e-04  -5.3423562e-04  -6.8876887e-04  -4.4754043e-04  -3.7451225e-04  -5.8946619e-04  -2.0410311e-04  -5.2163787e-03  -3.2187629e-04  -1.8894441e-04  -5.4553559e-04  -8.3971192e-04  -4.8934645e-04  -2.6140449e-04  -5.8252455e-05  -3.2620915e-04  -7.5007141e-05  -1.2524228e-04  -5.6976503e-05   2.5593213e-04   4.3349410e-04  -3.9381805e-04   7.4853502e-05   8.9184195e-04   6.3883694e-04   2.8758944e-04   1.7865554e-04   3.9037051e-05   4.0894115e-04   8.4646640e-04   4.8436117e-04   1.0542591e-03  -3.2021079e-04  -1.5388973e-04   1.2485875e-03   8.5242435e-05   2.9318818e-04   1.7404347e-04   1.2450466e-03
  -1.4984438e-03  -9.4948104e-04  -4.7427701e-04  -7.4015686e-04  -6.0812867e-04  -1.1129562e-03  -3.0659387e-04  -2.3276874e-04  -3.1643510e-03  -5.8348011e-04  -3.3922284e-04  -6.8393454e-04  -4.7152609e-04  -2.3731074e-04  -1.6080566e-04  -9.4143936e-05  -3.3461765e-04  -9.8180142e-05  -7.2809140e-04  -1.7015408e-04  -1.4649163e-04  -4.8993254e-04  -3.7079409e-04  -2.5545835e-04   2.1189729e-04   4.8376514e-05  -3.8366797e-04  -4.0534802e-04  -2.7007345e-04  -3.9342963e-04  -1.4866481e-03   2.6789462e-04  -5.7282991e-04  -1.5667811e-04  -9.3025906e-04   7.8823423e-04  -9.6516666e-04   8.2638973e-05   4.6038895e-05   1.3244034e-04   6.6698150e-04   3.8095587e-04   8.6140580e-04   6.1585358e-04  -2.0003473e-04  -2.9629939e-05  -1.9207129e-05   1.4075681e-04  -1.3099273e-05   9.7045093e-04
  -1.2123497e-03  -1.1139208e-03  -7.1855803e-04  -1.1666290e-03  -5.1872549e-04  -5.2174577e-04  -6.6748686e-04  -2.7765002e-04   2.1140357e-03  -7.8544137e-04  -4.4785280e-04  -7.3135691e-04  -5.5905548e-04  -4.9219280e-04  -4.1840124e-04  -3.1637470e-04  -4.9889676e-04  -2.4037035e-04   2.2278887e-03  -5.5349985e-04  -3.6992325e-04  -8.9214009e-04  -4.6948573e-04  -4.6265041e-04  -1.2495217e-03   7.3483566e-06  -4.9252569e-04  -6.3484724e-05  -5.1303441e-04  -1.2313061e-04  -1.0113095e-04  -8.5803382e-05  -1.0925460e-03  -3.4477093e-04   1.2271020e-04  -3.3152985e-04  -4.6755973e-04  -5.1842042e-04  -2.8794236e-04  -1.7156568e-04   1.6652716e-04   7.3173556e-05   4.5347557e-04  -2.7172139e-04  -3.1174015e-04   1.9767358e-04  -3.1413831e-04  -2.0237218e-04  -6.6080800e-04   6.2335975e-04
  -1.7413617e-03  -1.3517479e-03  -1.4172102e-03  -1.5048577e-03  -3.6797384e-04  -1.4815771e-03  -1.1407005e-03  -9.0476178e-04  -1.0264650e-03  -1.0775513e-03  -9.6795888e-04  -8.5894566e-04  -8.9018123e-04  -9.6734060e-04  -3.3646653e-04  -7.2936423e-04  -8.3331624e-04  -6.6107174e-04  -3.1906178e-03  -6.1423075e-04  -3.0722079e-04  -7.5324980e-04  -8.8259944e-04  -3.6997534e-04  -5.3034147e-04  -3.9895767e-04  -5.3616957e-04  -2.8606824e-04  -5.6769006e-04  -4.3923670e-04  -1.0475910e-03  -4.7867830e-04  -7.5867865e-04  -4.8564481e-05  -1.7355785e-03  -3.3975896e-04  -4.6505782e-04  -1.8388340e-04  -1.4204794e-04   3.0785849e-04   1.0321898e-03   3.5374760e-04   8.1805896e-04   2.9242363e-05  -1.6496531e-04   8.7294617e-04   2.9225008e-05   2.1668921e-04   2.6849390e-04   1.0038649e-03
  -7.8835798e-04  -8.5920858e-04  -8.1220822e-04  -6.5875985e-04  -2.8305585e-04  -6.2239036e-04  -9.9469707e-06  -3.7589020e-04  -2.0752760e-04  -5.2391284e-04  -4.4576416e-04  -5.9471419e-04  -3.0014204e-04  -3.2629998e-04  -3.9019776e-04  -1.8546803e-04  -2.6250308e-04  -1.7388561e-04  -2.2387388e-03  -2.7037790e-04  -1.2600586e-04  -4.7071584e-04  -1.6514010e-04  -1.7603346e-04   1.2355686e-04   2.2537820e-04  -1.0017458e-04  -6.2381051e-04  -5.2760239e-04  -7.8508412e-05  -2.3493923e-03  -1.0421982e-03  -6.3545513e-04  -3.5462454e-05  -9.8278304e-04  -6.3711451e-04   3.2555350e-04   3.1775402e-05  -5.9915208e-05  -6.2185369e-05   2.3036099e-04   3.5113413e-04   8.4387371e-04  -2.4215192e-04  -2.6998940e-05   1.2470094e-03  -2.8711477e-06   1.1619966e-04   1.0670011e-04   7.9772138e-04
  -1.0427865e-03  -1.0058233e-03  -4.6632803e-04  -8.7450061e-04  -9.1640250e-04  -7.5257802e-04  -2.3020169e-04  -1.4170601e-04  -2.7004620e-03  -6.8573328e-04  -6.1044819e-04  -6.4249506e-04  -4.9031142e-04  -3.9521381e-04  -2.0844268e-04  -2.3684236e-04  -4.2968747e-04  -2.2379961e-04  -6.9629867e-04  -4.9244968e-04  -3.1220436e-04  -7.3935097e-04  -5.8001687e-04  -4.2779138e-04  -1.0441173e-04  -2.4295489e-04  -4.9512577e-04   5.9598900e-05  -4.8760686e-04  -2.3640206e-04  -9.3614007e-04  -8.0736907e-04  -1.0700058e-03  -3.5530463e-04   7.0807189e-05  -9.2671413e-05  -1.5878321e-04  -3.6782134e-04  -2.9883755e-04  -2.1095407e-04   9.1813585e-05   1.2041043e-04   2.9630642e-04  -6.7535287e-04  -4.0921947e-04   1.3254370e-04  -2.9457131e-04  -1.5365981e-04  -2.9548479e-04   4.4598765e-04
  -1.3314770e-03  -1.2659156e-03  -1.1069212e-03  -1.3524640e-03  -1.2150559e-03  -1.0290213e-03  -1.4199680e-03  -3.9127754e-04   3.6527964e-04  -1.0370219e-03  -8.1983471e-04  -7.8755274e-04  -9.0574927e-04  -7.1725569e-04   1.5683694e-08  -5.5457954e-04  -7.9401588e-04  -6.3280965e-04  -5.0938698e-03  -8.6170027e-04  -5.6805485e-04  -1.1523531e-03  -1.1375889e-03  -6.7505485e-04   4.7581675e-04  -4.7483962e-04  -2.3080732e-04  -6.0783903e-04  -7.9655816e-04  -4.0051548e-04  -1.5327958e-03  -6.0169806e-04  -4.8092936e-04  -4.7083676e-04  -8.1473961e-04  -5.0708768e-04  -7.6671087e-05  -3.2451248e-04  -3.6334217e-04   2.5264724e-04   4.8317597e-04   3.0279034e-04   6.3198979e-04   1.1332335e-04  -1.7303662e-04   1.2427543e-05  -5.0751845e-05   1.8160077e-04  -3.0439316e-05   8.9581113e-04
  -1.2457245e-03  -9.1113849e-04  -6.1632443e-04  -7.4641802e-04  -1.1893919e-03  -9.0697815e-04  -2.7188807e-04  -9.2138660e-05   1.8676240e-03  -4.9094931e-04  -4.4067917e-04  -5.7033234e-04  -4.3838166e-04  -3.1617720e-04  -2.3437847e-04  -1.3320355e-04  -2.7549310e-04  -3.0851245e-04   1.2661191e-03  -2.3671625e-04  -1.6030636e-04  -4.4676682e-04  -6.4028380e-04  -1.8857613e-04   3.6437772e-04  -1.9423553e-05  -6.1263978e-05  -6.8724394e-04  -4.6819690e-04  -1.9602197e-04  -4.6689276e-04   5.1381692e-05  -5.5290281e-04  -3.1801182e-04  -2.8294514e-04  -4.4855714e-04  -4.4763269e-04  -1.2722117e-04  -9.8620803e-05   4.2722211e-04   5.3964398e-04   3.2801644e-04   4.1900499e-04   1.0069022e-04  -1.5975590e-04  -9.4885087e-05  -3.8971193e-05   1.3165388e-04   3.1106509e-04   8.1440294e-04
  -1.2062232e-03  -9.1943954e-04  -6.3494919e-04  -8.1747916e-04  -1.1139914e-03  -1.3283986e-03  -8.6382590e-04  -2.7184523e-04  -3.7001880e-04  -6.2268483e-04  -5.3492124e-04  -5.9807522e-04  -3.5806320e-04  -2.7502354e-04  -1.1529491e-04  -2.7485876e-04  -4.5311108e-04  -3.1270669e-04  -9.1370585e-04  -4.3539825e-04  -2.8074445e-04  -6.4444274e-04  -6.5749878e-04  -2.8335486e-04  -9.1795280e-04  -2.1510727e-04  -3.9877676e-04  -2.7332111e-04   5.6580702e-05  -2.1969083e-04  -9.4454054e-04   1.4869939e-04  -5.0791242e-04  -3.3573763e-04  -9.0815010e-04  -8.4973528e-04   2.2859468e-04   1.2074495e-04  -2.2862680e-04   4.9996912e-04   1.7632387e-04   1.1690373e-04   3.2946543e-04   2.8405720e-04  -4.7247647e-04   1.9320355e-04  -2.6946070e-04  -1.8578397e-04  -3.3289008e-04   3.3505607e-04
  -1.3508113e-03  -1.1785384e-03  -1.2783541e-03  -1.2628529e-03  -4.0190286e-04  -1.1178054e-03  -8.9749630e-04  -5.4666022e-04  -4.1797548e-03  -9.3531405e-04  -8.4426854e-04  -7.5014954e-04  -8.6804235e-04  -7.7414041e-04  -4.0199416e-04  -5.4506841e-04  -7.7466428e-04  -5.2675896e-04  -1.9111487e-05  -7.3786010e-04  -4.9878244e-04  -1.0215779e-03  -8.9683820e-04  -5.2559230e-04   1.2433631e-04  -3.4318454e-04  -7.5562019e-04  -3.4942216e-04  -6.5308792e-04  -2.4509494e-04   3.0154348e-04  -7.5845065e-04  -8.7451516e-04  -6.8311521e-04   5.3948013e-04  -1.7268873e-04   8.1601051e-05  -5.1299360e-04  -2.6735262e-04  -4.3798478e-05   3.1943875e-04   3.2726311e-04   5.6223717e-04   2.3314352e-04  -1.8220021e-04  -6.8675022e-04  -3.1535707e-05   1.7503049e-04   2.0176829e-04   8.5946248e-04
  -1.1331966e-03  -7.6029741e-04  -5.5544090e-04  -5.3790328e-04  -6.1607087e-04  -3.6294360e-04  -1.1864154e-04  -1.8692393e-04   2.9446301e-03  -4.1247916e-04  -3.8269578e-04  -4.8358974e-04  -4.0523274e-04  -2.6549288e-04  -2.9922486e-04  -1.0598669e-04  -2.1880296e-04  -6.4595122e-05  -1.0427848e-03  -1.4084562e-04  -6.9410366e-05  -3.9837277e-04  -7.3856208e-04  -2.8126210e-04  -6.1151339e-04  -1.2626147e-04  -9.4406685e-05  -2.6778766e-04  -5.2689982e-04  -1.3862297e-04  -1.2242809e-03  -3.6142662e-04  -9.3362964e-05   3.9945593e-05  -1.0020122e-03  -3.0134493e-04  -6.9991953e-04   1.4520827e-04  -1.1079029e-04  -3.6221536e-04   5.2055548e-04   3.5583845e-04   7.1092905e-04  -3.9016426e-04  -3.1930930e-04   2.4289110e-04  -6.3671750e-06   1.2361293e-04   1.3445989e-04   7.1340444e-04
  -1.1576441e-03  -7.9291372e-04  -4.7680040e-04  -8.1564212e-04  -8.0559129e-04  -5.9543626e-04  -5.5751519e-04   1.9042823e-04   7.4755878e-04  -5.4770807e-04  -4.5925207e-04  -5.1907107e-04  -2.3073045e-04  -4.4799023e-04  -4.0289300e-04  -1.7351125e-04  -3.4036537e-04  -1.6952975e-04   8.3603170e-03  -2.1567423e-04  -2.1017079e-04  -5.4786768e-04  -6.7065278e-04  -2.7983348e-04   1.1447835e-03  -9.0470494e-05  -6.7787210e-04  -1.4592244e-04  -5.0600938e-04  -9.3133516e-05  -1.6570635e-03  -2.0869463e-04  -8.6594047e-04  -2.8876640e-04   4.9518363e-04   3.1020367e-04  -8.2651322e-04   5.7962803e-05  -1.5013899e-04   3.7750998e-04   1.8078244e-05   9.0085960e-05   3.0092979e-04  -1.6221362e-04  -2.5678086e-04   2.3778924e-04  -2.4645677e-04  -1.4325258e-04   7.6123033e-05   5.1775144e-04
  -1.2653393e-03  -1.0414546e-03  -1.0034331e-03  -1.1752005e-03  -6.2206964e-04  -9.0370583e-04  -4.6322201e-04  -4.3473422e-04  -3.2177661e-03  -8.9056516e-04  -7.0846110e-04  -6.8423460e-04  -6.3733716e-04  -7.3246757e-04  -4.8464927e-04  -5.5271306e-04  -5.4740719e-04  -5.5044849e-04  -2.9655437e-03  -7.1662426e-04  -3.9373839e-04  -8.3598541e-04  -7.6019397e-04  -3.4236535e-04   5.9374230e-05  -4.2441234e-04  -3.4944402e-04  -2.1294803e-04  -3.8170483e-04  -3.0351512e-04  -1.2995929e-03  -3.9609443e-04  -4.8516574e-04  -4.4949364e-04   1.3217912e-04   4.4048397e-04  -4.3793410e-04  -1.5739386e-04  -1.8092776e-04  -2.5567581e-04   3.9364785e-04   3.8939249e-04   5.6827080e-04  -3.6886361e-04   8.8458037e-05   5.8821833e-04   1.0894562e-04   2.6269205e-04   4.4530138e-04   1.0473621e-03
  -9.1018254e-04  -5.7433854e-04  -2.9718247e-04  -1.6034293e-04  -6.5385510e-04  -3.0231479e-04   2.0659722e-04  -6.1909077e-06   3.6592779e-03  -2.5393951e-04  -1.2479673e-04  -3.9213424e-04  -1.1296419e-04  -1.2089796e-05  -2.5842201e-05   5.9911745e-05   7.5112235e-05   9.1899092e-05  -1.2138067e-03   9.7178978e-05   1.1151479e-05  -1.7856612e-04   1.3292207e-04  -3.8573056e-05  -1.3619635e-03   2.7624008e-04  -2.3144971e-04  -6.6907887e-05   4.5759443e-04  -7.7708850e-05   2.1992924e-03   2.5793708e-05   2.4760793e-05  -9.3971343e-05   2.0492268e-04  -5.0123665e-04   4.3373316e-04   2.5823971e-05   5.5052769e-05   6.5011985e-04   6.9973135e-04   4.4119236e-04   7.5148325e-04   3.8113289e-05  -5.5683227e-05   8.5035199e-04   1.5744061e-04   3.3081823e-04   2.4840547e-04   9.8301354e-04
  -9.2630327e-04  -5.5737415e-04  -4.0564180e-04  -4.2570554e-04  -5.8962647e-05  -8.0890290e-04  -2.8618058e-04  -4.1993757e-04   3.7397491e-04  -3.5767848e-04  -1.5313855e-04  -4.3645865e-04  -3.3831364e-04  -2.4263264e-04   7.5272087e-06  -8.0720238e-05  -1.7248779e-04  -5.8296508e-05  -6.9917022e-04  -1.5781363e-04  -9.7903219e-05  -4.3647786e-04  -4.7240651e-04  -2.8275506e-04  -2.9032907e-04  -2.0736245e-06  -5.2289042e-04   1.2811384e-04   1.2953306e-04  -7.9020050e-05  -8.9176849e-04  -1.1974395e-03  -5.9432862e-04  -7.4049967e-05  -7.4175949e-04   2.0737921e-04  -1.7794533e-04  -1.8378692e-04  -2.3813787e-04  -1.7511305e-04   2.6317034e-04   2.1884358e-04   4.3411509e-04   3.2953493e-04  -2.0829945e-04  -1.3042977e-05  -1.0347507e-04   1.2995365e-04  -3.0901422e-06   5.4921093e-04
  -2.1134356e-04  -8.7174698e-04  -7.3274912e-04  -9.1277284e-04  -9.5014315e-04  -5.9565133e-04  -7.4656692e-04  -3.7216378e-04  -5.9574307e-04  -7.7557465e-04  -5.4559915e-04  -5.9724058e-04  -3.9750483e-04  -4.5220120e-04  -3.7852585e-04  -3.3691345e-04  -4.7156800e-04  -3.3985582e-04   6.3011138e-04  -5.9456384e-04  -4.0784341e-04  -8.3094102e-04  -8.0654048e-04  -3.0526883e-04  -6.4789376e-04  -4.2966631e-04  -7.5256388e-04  -1.8131429e-04  -6.2788540e-04  -4.0592719e-04  -1.2141403e-03  -2.9590234e-04  -3.6822571e-04  -2.1222603e-04  -8.1677869e-04   2.3372100e-04  -5.7170319e-04  -3.7589498e-04  -2.8140860e-04   1.0102678e-04   5.8113033e-04   4.2126526e-04   5.4549042e-04   7.2482374e-04   8.9367211e-05  -3.0401308e-04   1.8301373e-04   3.5015985e-04   8.9724077e-04   1.0258285e-03
  -8.2015316e-04  -4.8456530e-04   1.9549995e-04  -8.2245628e-05  -8.0795377e-04  -1.0685148e-04   4.5069304e-04   1.2804058e-04  -2.0160682e-03  -8.7850298e-05  -1.1726663e-04  -2.5866373e-04   4.1761279e-05   1.1567813e-04  -1.9380928e-05   2.9593258e-04   1.1678835e-04   1.2088608e-04   5.1714461e-03   3.0127610e-04   1.5635898e-04   4.0506642e-05   4.6864475e-04   1.4284607e-04   7.5125914e-05  -8.3891719e-05  -3.3847240e-04   1.4822044e-04  -2.7533251e-04  -1.0275862e-04   3.0910841e-04  -6.5246463e-04   4.0161851e-04   2.7975472e-04   7.0365745e-04   1.0483804e-04  -4.2185307e-04   3.4465862e-04   7.8015473e-05   9.3853794e-04   8.6597790e-04   5.0949113e-04   6.9750112e-04  -9.8577270e-04   1.7658340e-04   8.6843496e-04   2.8346747e-04   4.5612958e-04   5.1921350e-04   1.0795839e-03
  -4.5262635e-04  -3.2724169e-04  -1.1666908e-04  -2.1813287e-04  -6.1672687e-04  -3.7779662e-04   2.7489549e-04   2.0303065e-04  -4.7061054e-04  -1.7000911e-04   2.4371995e-05  -2.5140136e-04   4.2568412e-05  -3.1997490e-05  -7.9769678e-05   1.4422259e-04   2.6075631e-05   1.9639901e-04  -3.7960066e-03   1.6921411e-04   5.6839026e-06  -1.2303621e-04   2.2049574e-04   1.3335746e-04   1.2167965e-03   2.0976043e-04  -5.1143132e-05   2.2622738e-05  -5.2266859e-04  -1.2094954e-06  -5.7373202e-04  -1.6479204e-04   1.0296179e-04   1.7458196e-04   4.2173476e-04   9.1811753e-04  -3.7179826e-04   6.8944893e-05  -6.8932655e-05   5.8333890e-04  -3.8384380e-05   2.8080691e-04   4.4326836e-04  -1.2970285e-03  -1.4609040e-05  -3.5475680e-04   5.0384242e-05   2.0709515e-04   2.9314615e-05   7.5979100e-04
  -1.0030848e-03  -5.8504916e-04  -6.0212292e-04  -6.4226263e-04   2.2941027e-04  -7.9280417e-04   1.7330147e-04  -3.4840940e-04  -8.5737847e-04  -5.5234763e-04  -3.0484243e-04  -4.1256571e-04  -2.5250824e-04  -2.8404332e-04   3.9496354e-05  -1.8154588e-04  -2.5318595e-04  -1.3615053e-04   7.5411814e-04  -3.8704442e-04  -2.9458990e-04  -5.8240595e-04  -4.5690752e-04  -2.4150412e-04  -3.7841665e-04  -2.9178313e-04  -5.7669426e-04  -2.9302610e-04   6.5103383e-04  -3.5932855e-04   2.1776941e-04  -4.8360138e-04  -3.8361360e-04  -1.8180734e-04   7.1095472e-04  -4.3063369e-04  -3.6547619e-05  -4.4220887e-04  -3.5545873e-04  -8.1061327e-05  -9.8070566e-05   8.8098241e-05   1.5916620e-04  -8.2315295e-04  -4.0622873e-04   6.4826163e-04   7.6124584e-06   9.2583541e-05   2.7648159e-04   7.8949606e-04
  -5.0384685e-04  -5.8436533e-04  -2.1607749e-04  -3.8512590e-04  -9.2335610e-04  -1.1203429e-04  -3.3945087e-04  -3.1470228e-04  -1.7329144e-03  -9.8438650e-05   1.9106064e-05  -2.5607407e-04  -8.3337924e-05  -6.6929533e-06  -5.1001229e-05   1.8517843e-04   1.1346797e-04   1.2727345e-04   2.0287742e-03   2.7509750e-04   1.6032907e-04   1.0546169e-04   2.1626491e-05   2.8566568e-04   4.3082703e-04   1.7901442e-04  -3.9169265e-04   5.1621202e-04   1.2802545e-04   5.6027616e-06  -7.7983912e-04   2.5699672e-04   4.3591677e-05   4.0149895e-04   8.4924378e-04   6.2816788e-04   7.6061190e-04   3.6984042e-04   1.5423505e-04   1.3279677e-03   6.8337435e-04   5.3629657e-04   7.5752044e-04  -2.3714175e-04   2.0504629e-04   5.9995271e-04   2.9138644e-04   4.3143349e-04   4.6289508e-04   1.0536805e-03
  -2.9431292e-04  -2.1102553e-04   1.8699691e-04  -3.0469703e-06  -5.0318864e-04  -3.5853888e-04   5.2568235e-04   3.0916694e-04   2.5102915e-03  -8.5506399e-05   1.3006391e-04  -1.8094582e-04   1.4544323e-04   1.1164685e-04  -1.5607841e-04   2.8679732e-04   1.7874585e-04   3.2178903e-04  -4.4061160e-03   2.4532698e-04   6.7025991e-05  -4.9747803e-05   9.7588818e-05  -4.3456666e-06   1.3977198e-04   9.3527568e-05  -1.6840629e-04   9.0855705e-05   4.2136470e-04  -4.7398349e-05   2.6184984e-04   7.2260576e-05   1.7379713e-04   1.2332181e-04  -1.3641629e-04  -1.1133255e-04   1.1740651e-04   4.2602318e-04  -5.7515874e-05   1.9739191e-04   2.8759701e-04   3.4044459e-04   5.4903340e-04  -1.1060799e-03   3.0343138e-04   1.4833718e-03   1.1746262e-04   2.2581311e-04   4.0228956e-04   8.8719814e-04
  -2.6206340e-04  -4.1655212e-04   7.4751624e-05  -3.0830657e-04   2.4018678e-04  -3.6187575e-04   4.5247052e-05  -7.2316994e-05   1.1050011e-03  -4.5651343e-04  -2.5025211e-04  -3.5735572e-04  -1.1768403e-04  -2.4963237e-04   6.1095991e-05  -7.4562748e-05  -1.8399328e-04  -1.8666372e-04  -3.4114462e-03  -2.6269138e-04  -2.4051784e-04  -4.9459265e-04  -4.1737966e-04  -2.3215830e-04  -1.2552611e-03  -2.3643475e-04  -1.7903688e-04   1.7939456e-05   2.7929113e-04  -9.6639509e-05  -5.7140738e-04  -5.0162541e-04  -6.2034134e-04  -6.0033362e-05  -8.0197817e-04  -1.0732750e-03  -6.2585302e-04  -3.9007951e-04  -3.6081343e-04   4.2493315e-04   2.6912252e-05   3.8948579e-05   1.5143247e-04   3.4550056e-04  -2.1385674e-04   6.7219301e-04  -2.2138585e-04  -7.2284696e-05   5.1739684e-05   3.9014232e-04
  -7.7657221e-04  -7.7152468e-04  -5.5286894e-04  -9.5705112e-04   2.6505996e-04  -8.0989482e-04  -1.0338748e-05  -7.2492624e-04   3.0604713e-03  -3.0677314e-04  -3.0246575e-04  -3.6726164e-04  -1.9834409e-04  -2.0268450e-04   7.1753566e-06   4.0510487e-05  -1.3656697e-04  -5.0156861e-05  -7.9509325e-04   1.4567838e-04   3.4869474e-05  -9.7959375e-05  -3.7025078e-05  -7.3069656e-05   2.9884893e-04  -1.3434608e-04  -8.2949646e-06  -1.6264405e-04   1.7451275e-04  -2.1313834e-04  -1.5623410e-03  -5.6511932e-04  -1.8573197e-04  -1.6147351e-04   5.6736555e-04  -8.9688686e-04  -6.3522946e-04   1.0836014e-04   1.2779478e-05   1.1809233e-03   4.3196717e-04   4.8373875e-04   6.8333786e-04  -8.8367373e-04   8.7741493e-05   2.0811136e-03   2.1447591e-04   4.1177851e-04   7.2634616e-04   1.0844470e-03
  -6.1412633e-04  -2.2853052e-04   3.6010981e-05  -4.4127282e-05  -4.2547152e-04  -6.8026280e-04   2.4254280e-04   2.0511290e-04   4.6937371e-04  -1.9060841e-04   7.3602359e-06  -2.4421170e-04   5.7707553e-06   1.8404971e-04   4.2426796e-04   1.4062726e-04   5.4069609e-05   1.5451077e-04   3.9213714e-03   3.3466067e-04   1.5981233e-05  -1.8828666e-04   7.6661752e-05  -8.3113337e-05   3.4975534e-04   9.4926450e-05  -1.1991588e-04   2.8364242e-05   1.4852991e-04  -5.8488131e-05   2.6573177e-04  -7.9990918e-04  -6.1242032e-04   1.5619800e-04  -3.4450705e-04  -3.4874780e-04  -5.7569653e-04  -1.1849514e-04   9.9312538e-06   1.0386126e-03   6.3433975e-04   3.5461423e-04   5.1164097e-04  -8.1846071e-04   1.0733399e-04   6.3520874e-04   1.0209888e-04   2.8101567e-04   5.5762171e-04   8.8981941e-04
   1.9660106e-04  -4.1595657e-04  -2.5827475e-04  -3.8538355e-04  -3.1658352e-04  -4.4385772e-04  -2.9450003e-04  -3.5748110e-04  -3.3572142e-03  -4.2677918e-04  -1.6159021e-04  -3.6049401e-04  -1.1394818e-04  -1.5757233e-04  -5.9297607e-05   4.2496191e-05  -2.0976849e-04  -8.8560228e-05   1.5285395e-03  -2.6437821e-04  -2.5359614e-04  -5.2541093e-04  -8.5853075e-04  -2.9521229e-04   5.0244125e-04  -1.2585965e-04  -7.8469981e-05  -4.8591313e-04  -3.5253490e-04  -3.4533380e-04  -1.5268839e-03  -4.7352139e-04  -6.4685394e-04  -3.7302645e-05  -9.6359308e-04  -1.5715781e-03   1.4075304e-04  -4.3707772e-04  -2.1098703e-04   1.4885941e-04   4.9132632e-06   4.7818685e-05   1.8987458e-04  -1.0250282e-03  -4.4513927e-04  -3.8815860e-04  -2.5240448e-04  -9.1895556e-05  -1.9757290e-04   6.3262647e-04
  -4.8024667e-04  -8.2649529e-04  -5.8786856e-04  -1.0027597e-03  -7.3645916e-04  -1.0315501e-03  -8.3799375e-04  -1.9187099e-04  -4.2483429e-03  -5.9019402e-04  -5.2985427e-04  -5.1435136e-04  -2.9217033e-04  -3.8585902e-04  -4.9569504e-04  -2.7005697e-04  -2.8943605e-04  -4.1371008e-04  -3.6687797e-03  -1.2799360e-04  -1.6467689e-04  -3.8021835e-04  -3.3537508e-04  -9.9515419e-05  -7.3734240e-04  -1.9265714e-04  -1.8992426e-04  -9.7757780e-05  -4.5080038e-04  -1.0373647e-04   5.5282208e-04   1.0666670e-04   1.0383608e-04  -1.1809479e-04   2.7919884e-04  -1.5990398e-04   6.8524729e-05  -3.3614604e-04  -1.1679123e-04   7.3367957e-04   7.2589924e-04   3.9837928e-04   7.1158522e-04  -1.1545542e-03   8.6394182e-05   5.7808671e-04   1.0940604e-04   2.3746074e-04   7.7468180e-04   1.0748751e-03
  -2.9509972e-04  -3.5279067e-04   1.0806398e-05  -1.7275284e-04   6.3577504e-04  -9.4439936e-05   6.9081201e-04  -4.0525632e-04   1.1720606e-05  -2.4681864e-04   2.9813218e-05  -3.0626816e-04   9.1685779e-06  -2.0489599e-05  -1.3153693e-04   9.5027375e-05   4.6970261e-05   1.0820866e-04  -1.5227887e-03   1.9178564e-05  -5.2484258e-05  -2.1327472e-04   3.1024069e-04   9.7608805e-05  -1.5188725e-04   9.9604804e-05  -3.6297660e-04  -1.0093868e-04  -2.0572564e-04   2.3912256e-05  -3.9865781e-04   6.7144702e-04   1.5166293e-04   3.9629510e-04  -1.1535421e-03   5.8667647e-05  -3.2360910e-04  -3.9652648e-05   1.7833028e-05  -2.0875680e-04   4.0440910e-04   2.9025087e-04   3.1547071e-04   6.4475456e-04   4.9485978e-05   1.0197368e-04   9.9319532e-06   1.4139572e-04   6.6958449e-04   8.5363514e-04
  -4.0804854e-04  -4.5782558e-04  -1.2035792e-04  -4.7420617e-04  -5.5167964e-04  -4.0158335e-04   3.4467498e-04  -4.1485828e-04  -9.2559413e-04  -4.5054193e-04  -2.2032332e-04  -3.5811530e-04  -1.2868800e-04  -1.7117753e-04  -1.0980436e-04  -4.8482849e-05  -2.4247948e-04  -1.5340462e-04  -2.2102208e-03  -2.1276809e-04  -2.4313017e-04  -5.1482406e-04  -5.9874804e-04  -2.5747871e-04   6.5399002e-04  -2.9754246e-04  -3.7469721e-04   2.8202194e-04  -7.2113553e-04  -2.7341081e-04   1.4137480e-04  -4.1361540e-04  -3.9995078e-04  -9.0952017e-05   1.6136935e-05  -4.2973596e-04  -7.1932783e-04  -3.0791145e-04  -2.6260383e-04   4.4299974e-04  -4.2171430e-04  -3.8664806e-05  -4.3699118e-05  -6.4230186e-04  -4.3082505e-04  -3.5257635e-04  -3.2396897e-04  -2.3789823e-04   4.9775973e-04   4.4485499e-04
  -9.1856736e-04  -7.3188019e-04  -7.5074565e-04  -9.7787182e-04  -5.3847890e-04  -6.2685902e-04  -5.5598188e-04  -4.0359097e-04  -3.3234309e-03  -3.0340944e-04  -2.7301727e-04  -3.6532205e-04  -1.7089554e-04  -3.0352920e-04  -1.1523011e-06  -5.5366800e-05  -1.5337198e-04  -9.1409529e-05  -2.6026732e-05   4.1638068e-05   1.3688806e-05  -1.0582452e-04   3.4719505e-05   4.9603710e-05  -2.7990795e-04   2.8990203e-04  -3.6896692e-04   4.1403930e-04  -1.4173072e-04  -9.0562535e-05   2.4244469e-04  -1.9858162e-04  -2.2282622e-04   1.4071463e-04  -9.3799405e-04   7.5785688e-04   7.2712346e-04   1.0762943e-04   9.8628743e-06   4.1690888e-04   3.1811744e-04   4.0569872e-04   5.2205502e-04   8.2029248e-05   1.3430539e-04  -1.2091442e-04   1.2651947e-04   2.1628090e-04   7.4449065e-04   1.1142202e-03
  -8.9220288e-05  -1.9341307e-04  -1.5688405e-04  -1.1092711e-04  -1.4306130e-04  -2.7920044e-04  -3.6365127e-05   1.4413883e-04  -9.3088206e-04  -1.5576005e-04  -8.1112528e-05  -2.1783740e-04  -8.1916496e-06   1.3472480e-04  -2.4004384e-04   2.7678421e-04   2.1266776e-06   1.6929476e-04   3.1446139e-03   1.2260348e-04   1.1644801e-05  -7.4318799e-05  -2.0829105e-04   1.2630435e-04   8.4748154e-04  -2.7075026e-05  -8.5215564e-05   3.8208280e-04  -1.8940744e-04  -1.3996862e-04   4.1035039e-04   3.8971161e-04  -2.3699304e-04  -9.7371740e-05   3.5721360e-04  -4.8667906e-04  -3.5249005e-04  -4.7446174e-05   4.5096105e-05   8.6885347e-04   4.8517389e-04   3.2145056e-04   3.9494463e-04   1.3657246e-04  -7.6850389e-05   1.7163153e-03   2.1227213e-06   8.1473416e-05   7.0356455e-04   8.7493617e-04
  -7.4877474e-04  -3.7791245e-04  -3.1985578e-04  -5.8945344e-04  -8.0830901e-04  -3.7787834e-04   2.9690458e-05   8.8470653e-05   9.2730095e-04  -3.6465173e-04  -1.6019974e-04  -2.7583988e-04  -1.7895715e-04  -9.2667833e-05  -3.1701749e-04  -1.1392526e-04  -1.5916118e-04  -1.9168605e-04  -1.7404398e-03  -3.1705888e-04  -2.3589373e-04  -4.1879583e-04  -6.2960788e-04  -1.5163126e-04   3.8064296e-05  -2.8594476e-04  -3.5838594e-04  -1.6670678e-05  -6.0879817e-04  -1.8022320e-04  -6.7351537e-04   4.9888203e-04  -5.1198591e-04  -1.6491179e-04   2.1757709e-03  -1.0817496e-03  -1.0439542e-03  -1.7050969e-04  -3.6552144e-04  -7.4746745e-04  -5.1224476e-04  -3.6161338e-05  -9.9282493e-05  -1.4421321e-03  -3.3147956e-04   1.9457458e-04  -3.1132929e-04  -2.2356895e-04   2.5148550e-04   5.3737959e-04
  -5.7947874e-04  -6.8868167e-04  -6.0289656e-04  -6.5029424e-04  -8.0360263e-04  -6.1843370e-04  -5.8673741e-04  -3.9276454e-04  -1.9390461e-03  -9.5171403e-05  -2.2055559e-04  -2.0715548e-04  -1.8647643e-04  -2.0296800e-04   1.1589304e-04  -5.5398182e-06  -9.4586554e-05   6.7055640e-05   2.4195965e-03   2.8332628e-04   1.0876710e-04   1.1275536e-04   3.9455452e-04   2.4547538e-04   1.0177646e-04   3.8484261e-05  -1.4128131e-04   2.3315687e-04  -5.0191738e-05   9.4651848e-05   1.6939415e-03   2.5518872e-05   3.1261225e-05   2.2501545e-04   6.9824973e-04  -2.3568825e-04   4.0128065e-04   3.5399971e-05   3.7259244e-05   4.7609952e-04   8.9202693e-04   4.7397224e-04   4.7154204e-04   1.2007842e-03   3.0175271e-04   4.1915497e-04   2.1722222e-04   2.0404262e-04   5.5868499e-04   1.2640347e-03
  -3.3789550e-04  -8.5555803e-05  -7.8274548e-05  -1.1211875e-04   3.9687159e-04   6.3578540e-04   5.4649560e-04   2.9615487e-04   7.5815798e-04   7.8039964e-05   1.2471620e-04  -6.5422850e-05   1.5788106e-04   1.2963125e-04   2.6606607e-05   3.3674738e-04   1.4949447e-04   1.9008432e-04  -5.0108746e-04   2.5692550e-04   1.4960724e-04   8.7175911e-05   1.6496604e-04   1.3489537e-04   1.1710734e-03   5.1438441e-05   7.3865504e-06  -2.4101995e-04   2.8767445e-05   2.4945906e-04   1.5346525e-04   6.0353742e-04   2.7622338e-04   4.8754908e-05   2.6891369e-04  -9.4401279e-05  -3.1352873e-04   3.5376585e-04   5.2221185e-05   3.7505545e-04   2.2717688e-04   3.2100602e-04   4.0638880e-04   1.7138823e-03   8.4293300e-05   2.1687883e-03   1.1490435e-04   1.9402021e-04   8.3338621e-04   9.8119932e-04
  -2.1481319e-04  -2.1962184e-04  -1.2119981e-05  -2.5897557e-04   1.7495437e-04   7.2165982e-05   4.7499256e-05  -1.2014651e-04  -2.6007306e-03  -1.5147310e-04  -3.5927034e-05  -1.3863473e-04  -5.8496647e-05   2.6030912e-05   7.6406199e-05  -5.0596595e-06  -1.1593624e-04   6.1762898e-05   5.4220692e-04  -4.0106647e-06  -1.0973083e-04  -2.8270556e-04  -3.7908638e-04   2.2455373e-05  -4.6330344e-04  -1.3288548e-05  -4.6748327e-04  -3.4966762e-04   3.5998377e-04  -2.2207304e-04   1.1707407e-03  -2.1495539e-04  -2.3236619e-04  -1.0602090e-04  -4.6501842e-05   3.2966473e-04  -1.2409920e-04  -2.6986640e-04  -1.9967750e-04   2.6003463e-04  -4.3083116e-04   3.2566644e-05  -9.8650080e-06   6.9267629e-04  -2.8911268e-04  -3.8736375e-04  -2.1526174e-04  -1.9860938e-04  -8.1089027e-05   4.9903867e-04
  -5.7615765e-04  -5.5698853e-04  -6.3506461e-04  -7.1458111e-04  -1.5234851e-04  -8.0155634e-04  -3.7608214e-04  -1.3321763e-04  -1.4893214e-03  -1.3706561e-04  -2.8895930e-04  -2.1989849e-04  -1.4718826e-04  -1.8723014e-04  -2.8354028e-04  -4.0821484e-05  -1.9791676e-04  -6.3114079e-05   2.2285739e-03   1.3474347e-04   1.3488586e-04   8.0215388e-05   5.3189055e-05   2.2912408e-04   5.4980308e-05   6.2078689e-05  -2.2742691e-04  -6.7251176e-04   2.0816112e-04  -1.1421162e-04   4.9986009e-04   4.1278629e-04   2.2230698e-04   4.2186386e-04  -6.2656146e-04  -7.9964497e-04  -7.9882803e-04   1.2070823e-05   1.2779902e-04  -1.0593396e-04   3.5773957e-04   5.1104213e-04   4.6766747e-04   1.7489042e-03   2.9239469e-04   1.6210132e-03   2.9347147e-04   3.5542413e-04   8.4103446e-04   1.2275027e-03
  -5.1199429e-04   4.0060266e-05   4.8327813e-04   2.1133461e-04   1.8612291e-04   5.9907965e-04   4.8197346e-04   5.4486218e-04   6.6461805e-03   2.5241319e-04   1.5006047e-04   4.7766320e-05   2.3211933e-04   2.2115109e-04   6.7273417e-04   3.0269954e-04   2.1307486e-04   3.1820187e-04   1.2185691e-03   2.7263453e-04   2.2132703e-04   2.3699670e-04   3.3235850e-04   2.8213143e-04  -3.3239942e-04   3.0658691e-04   1.0806964e-04  -2.9249688e-05   5.4614746e-04   8.5209766e-05   2.0129561e-04   1.4802176e-04   1.5463636e-04   4.4738152e-04  -6.7680207e-04  -5.5158944e-05   5.1441230e-06   3.6232057e-04   1.5798764e-04   1.3538422e-03   6.0758315e-04   4.9760717e-04   4.3989171e-04  -6.9537200e-04   3.0532750e-04   8.4571337e-04   2.1571705e-04   2.5721453e-04   8.5980940e-04   1.0802596e-03
  -3.8183015e-04  -3.1364390e-05   2.1637084e-04   1.7116645e-05  -1.2892159e-04   1.0693449e-04   5.8713782e-04   1.4271958e-04  -3.2926041e-03   9.2357885e-05   1.8051034e-04  -5.1890474e-06   1.7645961e-04   1.2495159e-04   1.2040234e-04   1.8119518e-04   7.9800695e-05   6.5270309e-05  -1.2481512e-03   7.4080053e-05   3.2242311e-05   1.7210286e-05   1.5368646e-04   9.0469897e-05  -5.2362366e-04   1.4978589e-04   1.0444764e-04   2.3471477e-04  -2.2570524e-04   9.2728405e-05  -1.0911199e-03  -5.7227514e-04   3.2599251e-05  -1.1321999e-04  -1.6354424e-03   3.5794626e-05   1.1022070e-05   6.8040346e-05  -8.1766149e-05  -6.7065621e-04   3.0241237e-04   1.4707680e-04   6.6639506e-05  -1.1190865e-03   3.5316996e-05  -4.0066685e-04  -8.8604538e-05  -6.2708838e-05   2.7000063e-04   6.4115255e-04
  -5.7212758e-04  -4.5180091e-04  -5.7075660e-05  -7.5650460e-04  -5.6495005e-04  -4.2422710e-04  -6.4265204e-04  -1.4925453e-04  -1.2171592e-03  -2.9967289e-04  -2.5935972e-04  -1.6030141e-04  -1.9226989e-04  -2.7939898e-04  -3.7648206e-05  -5.8433227e-05  -3.8124321e-04  -2.1816428e-04   1.8880962e-03  -3.1919160e-04  -2.6670881e-04  -4.3143317e-04  -3.0907893e-04  -6.9407331e-05   1.2726065e-03  -3.6911468e-04  -5.9898238e-04  -1.8762019e-04   1.1724570e-04  -5.4508413e-04  -1.5052823e-04   2.5687236e-04  -2.7943676e-04   2.1310820e-05   5.6878681e-04   2.7952975e-04  -6.1345048e-04  -8.2637380e-05  -1.5604078e-04  -1.9166656e-04   6.4501847e-04   4.1266522e-04   5.0335022e-04   2.7106935e-04   2.2236239e-04   1.3055172e-03   2.0922610e-04   2.5782009e-04   9.3627110e-04   1.2178504e-03
  -6.7951754e-05   5.6697223e-05   3.9746368e-04   2.1118406e-04  -3.1745731e-04   9.1408539e-05   4.2460329e-04   4.4663172e-04  -1.5899949e-03   3.8273403e-04   3.1036237e-04   1.2521172e-04   2.0723678e-04   3.7931904e-04   6.0548923e-06   3.3103229e-04   3.3289153e-04   2.4059218e-04   1.2272013e-03   3.7787276e-04   2.3831145e-04   2.9463766e-04   3.4210010e-04   3.2100076e-04   1.7241042e-03   5.2418397e-04  -1.4429806e-04   1.8104896e-04   2.9008547e-04   2.5402411e-04   3.5483824e-04   4.5640577e-04   2.8330417e-04   4.2027771e-04   8.3429256e-04   4.5719757e-05   4.6688324e-04   2.6269688e-04   2.2842883e-04   1.2582275e-03   9.1485499e-04   5.3878565e-04   5.5425946e-04   1.2113404e-03   3.8316491e-04   2.8918131e-04   2.4971450e-04   4.1873887e-04   8.1640325e-04   1.1570656e-03
   7.0779635e-05   2.6191447e-05   3.2669737e-04   7.4465126e-05  -1.9934075e-04   5.3542625e-04   7.7723421e-04   4.6975433e-04  -4.8609446e-03   1.9976485e-04   8.8646135e-05   7.5045929e-05   7.0531678e-05   3.8941801e-04  -2.7790058e-05   1.6230575e-04   1.6722499e-04   1.4176006e-04  -2.8490943e-03   2.1964767e-04   7.9237063e-05   2.1395388e-05   1.4305472e-05   1.3405192e-04   1.1514641e-04   1.8783382e-04  -2.1866246e-04  -2.3996810e-04   5.6228071e-04  -1.1978348e-05   2.3699146e-04  -3.2065116e-04  -1.4938845e-04   3.7650325e-04  -4.7126052e-04   1.9396492e-05  -7.3914630e-06   3.3696815e-05  -1.9270245e-05   2.9194143e-04  -5.1085226e-05   2.3576745e-04   1.5768292e-04  -1.7665216e-03   5.9978909e-05   1.1636420e-03  -3.9644525e-05   6.3928768e-05   4.1908585e-04   8.7982666e-04
   1.0480620e-04  -3.2722205e-04  -5.8809705e-06  -4.5960606e-04   2.7985539e-05  -3.3733450e-04  -3.6971952e-04   1.7827794e-04   2.1236083e-03  -1.8711001e-04  -2.5012420e-04  -1.5672248e-04  -2.4515274e-04  -8.1559752e-05   2.3807526e-04  -3.8128768e-05  -2.3525847e-04  -2.3190089e-04  -4.9313726e-03  -3.3982599e-04  -2.4447884e-04  -4.2355026e-04  -3.8604489e-05  -1.5279443e-04  -1.3649968e-05  -3.1544495e-04  -3.3546702e-04  -2.2601450e-04  -1.4690249e-04  -1.5372057e-04  -4.5404141e-04  -6.5814407e-04  -5.1603361e-04  -3.0195661e-04   4.4949187e-04   9.8127138e-04  -1.6658322e-04  -3.4334752e-04  -3.0690903e-04  -6.0584105e-05   1.1924853e-04  -4.7168451e-05  -6.5927459e-05  -1.8722228e-04  -2.8252145e-04  -5.6130986e-05  -3.1707229e-04  -2.2549054e-04   2.8242468e-04   5.8057590e-04
  -1.0426525e-03  -5.3842284e-04   4.0178547e-05  -6.2002795e-04  -1.2631726e-04  -2.3164220e-04  -1.9629236e-04  -2.0951561e-04   7.0790481e-04   1.3108819e-04  -8.3668288e-05  -8.9747358e-05   1.8579150e-05  -1.3295215e-04  -6.0571688e-06   1.8810277e-04  -2.2112692e-05  -5.8475329e-05   3.8508594e-04   2.1137955e-04   1.5896111e-04   1.7670578e-04   1.0361001e-03   3.0393634e-04   6.2447821e-04   2.5609118e-04   4.2941043e-05   1.9771872e-04  -1.8934702e-04   2.1940516e-06   1.7379791e-03  -4.4339459e-04  -1.6062349e-04   2.9680831e-04  -3.6266494e-05  -9.0979639e-04   8.6737366e-04   3.0772839e-04   1.1323301e-04   3.4018722e-05   5.8418215e-04   4.4958183e-04   5.9755374e-04  -1.4356499e-05   3.1929850e-04   8.4042846e-04   9.4058239e-05   2.7989605e-04   4.6865837e-04   1.1843814e-03
   3.8274634e-04  -7.0267793e-05   3.1517580e-04  -1.3129733e-04   1.3050287e-04   2.0007361e-04   5.6012190e-04   3.6175718e-04  -6.9821451e-04   1.2506098e-04   1.2538566e-04  -4.8481328e-05   6.8290406e-05   2.0727741e-04  -4.0157811e-05   3.1876328e-04   1.3485087e-04   1.3184195e-04  -3.1627081e-03   2.0533011e-04   9.6704265e-05   1.1723876e-04   5.0484773e-04   1.8575205e-04   3.4387232e-04   2.2499618e-04   1.5191852e-05   2.7078833e-05   1.2573371e-04   1.3625760e-04   7.8010402e-04   2.2065583e-04  -1.1444416e-04   2.3365085e-04  -6.7023508e-04   3.8411378e-04  -7.3131366e-04   5.4294715e-04  -2.1520347e-05   6.0104224e-04   2.5035752e-04   3.0175562e-04   4.1162153e-04   6.0504448e-05   2.1477579e-04   1.1996591e-03  -5.4168871e-05   1.4174842e-04   3.0573743e-04   9.5999154e-04
   3.0572407e-04  -2.6207892e-04  -8.3714607e-05  -4.2073539e-04   1.5501922e-04  -3.0511006e-04  -1.6243636e-04   2.2228320e-05   2.2817622e-03  -1.4669444e-04  -1.3951362e-04  -1.5433427e-04  -2.1834926e-04  -2.2609274e-04   2.0508849e-04   3.7932492e-05  -1.0917925e-04  -4.2923712e-05  -2.9139733e-04  -2.6404514e-04  -1.8487664e-04  -3.3410508e-04  -6.6189351e-04  -1.7981128e-04  -2.7312111e-04   4.7718560e-05  -1.8553475e-04  -5.0988372e-05   1.5485175e-04  -3.2443230e-04  -2.8848133e-04  -5.3534529e-04  -3.0046474e-04  -1.6893634e-04  -2.3090992e-04  -2.2111226e-04  -1.5191956e-04  -2.8629933e-04  -1.5527126e-04  -1.9335764e-04  -2.3064208e-04  -3.3349272e-05  -1.5220911e-05  -6.6797849e-04  -5.4857657e-05  -5.6128972e-04  -3.6377722e-04  -1.8768889e-04  -4.7764894e-05   3.6294811e-04
  -1.1309002e-03  -6.0737354e-04  -6.5671100e-04  -8.0347544e-04  -3.8982759e-04  -7.8919198e-04  -2.4181372e-04  -3.3175849e-04   3.6012981e-04  -4.8141598e-04  -4.8178996e-04  -3.6530723e-04  -4.7978220e-04  -4.0274512e-04  -1.2116350e-04  -2.4935169e-04  -5.8572268e-04  -3.2357336e-04   7.3026167e-03  -3.1117719e-04  -1.5327857e-04  -4.1148314e-04  -1.7748981e-04  -9.8520730e-05  -9.7736053e-04  -3.4263253e-04  -3.6819954e-04  -2.6029203e-04  -3.1803371e-04  -2.3734351e-04  -3.1684665e-04  -8.6056089e-06  -3.8079734e-04  -4.8856702e-05  -1.0956934e-03   5.7207420e-04   3.0716314e-04   3.0932034e-04  -5.1769843e-05  -2.4564166e-04   4.1094169e-04   3.3313464e-04   4.5956235e-04   5.0859229e-04   1.2968134e-04   1.0751107e-03  -6.9827101e-06   1.7162261e-04   5.8780238e-04   1.0190795e-03
   6.6135646e-05  -1.4602293e-04   2.3878398e-04   3.7504007e-05   2.0108360e-04   3.3210486e-04  -1.1569100e-04   5.5720157e-04  -4.9104118e-03   5.1729206e-05   1.3383872e-04  -1.0089862e-04  -5.6584369e-05   8.4490071e-05   2.7465896e-04   2.6062355e-04  -1.7092032e-05   1.0024155e-05  -4.1078520e-03   1.4666573e-04   3.0454696e-05  -2.3847719e-05  -7.5082418e-05   1.7384774e-04   5.2039692e-04  -3.9195555e-05   1.9211942e-04  -2.2052824e-04   7.7956845e-04   1.4964039e-04   8.5075299e-04   3.1779939e-04  -1.4141599e-04   5.7143552e-06  -4.7815932e-04  -1.1182332e-03   5.2199430e-05  -2.4723064e-04   4.3930304e-05   3.5749516e-04   2.1423583e-04   2.6258442e-04   5.2917236e-04  -5.6741532e-04   1.4695081e-05  -4.1130345e-04  -7.4708601e-05   7.0656759e-05   3.1733673e-04   7.0305797e-04
  -2.6000172e-04  -1.6364164e-04  -1.1693660e-04  -3.1407876e-04  -1.8718700e-04  -2.1506785e-04   8.7749577e-05   4.6115491e-04  -6.1116884e-03  -1.2142956e-04  -5.2366100e-05  -1.8564246e-04  -8.0473452e-05  -4.2962136e-05   2.0536243e-04   7.2420262e-05  -1.2032137e-04  -7.4696572e-07  -2.3187804e-03  -7.8041841e-05  -1.3719742e-04  -3.0263411e-04   2.0100817e-04  -1.3317846e-04  -4.0579616e-05  -5.5005643e-05  -1.7180467e-04  -2.0384947e-04   3.4811997e-04  -8.2468578e-06  -1.5726659e-04   4.6360891e-04  -4.9461040e-04   9.7172648e-05   1.2471815e-04  -7.8616227e-04  -8.3263578e-05  -1.6513362e-04  -1.3747321e-04   6.5195875e-04  -3.4728760e-04  -3.2084383e-05   5.6051293e-05   4.2720034e-04  -2.5230530e-04   1.0468665e-03  -4.0688753e-04  -2.5479094e-04  -1.4578324e-04   2.3008310e-04
  -6.7852373e-04  -5.2384840e-04  -6.8286783e-04  -8.0356305e-04  -7.9288386e-04  -4.0528632e-04  -3.2130498e-04  -4.3005354e-04  -7.0160814e-03  -4.9239007e-04  -4.7511916e-04  -3.6363496e-04  -5.1137916e-04  -3.8010479e-04  -1.7468748e-04  -3.6600305e-04  -5.9639697e-04  -4.3465479e-04   1.2778556e-03  -5.7495537e-04  -4.3598423e-04  -6.9281360e-04  -4.9924734e-04  -3.6050819e-04  -3.5009460e-04  -3.4483324e-04  -1.4316304e-04  -1.4927398e-04   7.8977297e-05  -3.6610692e-04  -2.5770718e-03  -1.3683325e-04  -8.4697333e-04  -4.2163109e-04  -5.0054723e-04   1.8343674e-04  -6.0141063e-04  -5.7024165e-04  -4.0527387e-04   3.1117941e-04  -7.2277780e-04  -1.6471776e-04  -2.0323024e-04  -2.0424800e-03  -3.8531053e-04   2.3015708e-04  -3.0336983e-04  -1.4037143e-04  -1.1311721e-05   4.2285843e-04
  -1.7653449e-04  -3.8546158e-04   5.1252489e-05  -2.2994298e-04  -1.0208684e-03  -2.5616093e-05  -3.5699792e-05   2.2806016e-05  -3.7034168e-03   5.2570344e-05   9.9443139e-05  -1.5384829e-04  -1.2912060e-05   5.9019894e-05  -6.7583598e-05   6.9882444e-05  -2.3996678e-05  -4.9958689e-06  -7.0535240e-04   2.3115316e-04   9.7843171e-05   7.9126570e-05   3.5735477e-05   2.3432747e-04  -4.0161183e-05   8.9684028e-05  -3.8600436e-05   4.9148475e-05  -5.1994174e-04  -6.6261004e-05  -1.1615970e-04   5.5258058e-04   1.8639913e-04   1.4067579e-04  -3.8358910e-04  -8.7528734e-04   1.7235678e-04   5.5575464e-04   9.1170274e-05   8.2244072e-04   5.5500318e-04   2.1690215e-04   5.7739194e-04   3.6947423e-04   4.4671484e-05   1.9933851e-03  -1.3757074e-04   7.8701232e-05   3.8222142e-04   6.4446335e-04
  -3.2825620e-04  -1.5686970e-04   3.2093278e-05  -2.4736402e-04   5.5644527e-05   1.5921581e-04   1.1670603e-04   2.2511771e-04  -1.2228581e-03  -1.0588442e-05  -2.2928753e-04  -1.7172225e-04  -4.9276641e-05   2.1388402e-04   2.5087720e-04   5.0735038e-05  -3.2178254e-05   7.0635228e-06   4.0011164e-03   5.0744125e-05  -1.7143473e-05  -1.0623790e-04  -9.6411422e-05   1.8565510e-05   8.6689362e-04   7.5811324e-05  -1.4616983e-04  -1.4505938e-04   2.3482814e-04   1.4411951e-04  -6.5380044e-04  -3.0463250e-04   2.0003517e-04  -4.0858446e-05   1.6070223e-04   1.6390155e-03   7.7631982e-04   1.1017029e-04   2.4401841e-05   4.4413019e-04   5.1304742e-05   8.8379602e-05   2.2716874e-04   1.2297437e-03  -1.2613219e-04   8.0734870e-04  -3.0870119e-04  -3.1635082e-05   1.9601149e-04   4.4332279e-04
  -7.1163353e-04  -2.9214303e-04  -2.8901958e-04  -5.9114065e-04  -6.1238621e-05  -3.7233112e-04  -1.3532855e-04  -1.3157801e-04  -2.5567258e-04  -3.1927234e-04  -4.0193537e-04  -3.1964915e-04  -2.2410632e-04  -2.1015847e-04   6.5617103e-05  -1.3819436e-04  -3.3672721e-04  -2.3696056e-04   3.6092906e-03  -3.5078725e-04  -3.2737601e-04  -5.2121852e-04  -4.8447552e-04  -2.1334380e-04   1.8753966e-04  -2.3141011e-04  -4.0235839e-04  -7.8514575e-05   1.1629822e-05  -2.0097269e-04  -7.7674609e-05  -4.3113271e-04  -4.0229491e-04  -2.8965302e-04   4.3173161e-05  -2.3328999e-04  -9.1237237e-04  -3.0223661e-04  -2.2227946e-04  -6.2140275e-04  -1.9520195e-04  -2.4007790e-04  -3.0167788e-04   3.4528927e-04  -4.4686435e-04  -1.1202862e-04  -6.0477981e-04  -5.0232449e-04  -1.0943996e-04  -1.3478886e-04
  -1.0636126e-03  -6.9811905e-04  -6.6512299e-04  -1.0081141e-03  -6.0306425e-04  -6.3044281e-04  -9.1931794e-04  -3.9422783e-04   1.2756650e-03  -2.4934890e-04  -4.3867843e-04  -3.5857820e-04  -3.8785738e-04  -4.8013291e-04  -3.3981612e-04  -1.9588349e-04  -3.7244198e-04  -3.0685376e-04  -3.5687519e-04   8.2494131e-05  -3.2461710e-05  -9.8470977e-05  -3.0542669e-04  -2.1237593e-05  -6.5513031e-04  -6.2664476e-05  -1.8701518e-04  -9.0693349e-05   3.4324350e-04  -2.9246823e-05  -9.9202058e-05   1.8204348e-05  -5.6368964e-07   1.2538386e-04   1.3456431e-03  -9.3106058e-04   2.9116505e-04   4.3816687e-04   1.2813894e-04  -1.3806277e-04   5.2983337e-04   2.6887804e-04   2.8811154e-04   8.3190814e-04   2.7978118e-05   1.6422895e-03  -6.3898842e-05   1.0522307e-04   3.9653369e-04   6.0070533e-04
  -7.7250472e-05  -1.0636329e-04   3.4459168e-04  -1.5167812e-04   4.5875451e-04  -1.4193659e-04  -4.9611612e-05   1.4555991e-04  -1.8030858e-05   6.9166131e-06  -4.1074574e-05  -1.8593980e-04   1.1133237e-04   1.1774901e-04   1.9048613e-04   1.5099363e-04   6.3710082e-05   7.0727256e-05   4.7545275e-04   1.8670892e-04   2.3602110e-05  -1.5618249e-05   1.2729822e-04   2.4125808e-05   8.7938286e-05   6.5948087e-05  -1.8569802e-04   1.2840239e-04  -1.8168900e-04   4.6285131e-05  -9.2231639e-05  -7.2800140e-05  -7.7205565e-05   7.8258650e-05   7.2773901e-04  -4.9809035e-04   6.7680253e-04   2.8184467e-04   9.8869365e-05   5.7346525e-04   2.7037124e-04   1.7603533e-04   3.7083070e-04  -1.1151680e-03   4.1931795e-05   1.4416559e-03  -1.6688471e-04  -1.2943740e-06   1.5783896e-04   5.5387156e-04
  -3.0282690e-04  -2.9968831e-04  -1.6179244e-04  -4.7971783e-04  -6.4264757e-05  -2.8577898e-04  -4.1591926e-04  -2.7429775e-04  -3.8896958e-04  -2.9532483e-04  -3.1819334e-04  -3.3033788e-04  -2.4944363e-04  -2.5556919e-05   1.2742545e-04   6.6788448e-06  -2.8228169e-04  -1.6923419e-04  -3.4496951e-04  -2.3121078e-04  -2.2520444e-04  -4.2898927e-04  -4.4405772e-04  -1.2353031e-04   5.0267461e-04  -2.3915108e-04   1.0022819e-04  -7.6089076e-05  -2.5691887e-04  -1.9372486e-04  -2.1252269e-04   9.0053992e-04  -5.6964695e-04  -1.3056834e-04  -6.1906915e-04  -5.0178979e-04  -4.4747250e-04  -1.5546259e-04  -2.2389200e-04  -5.5688503e-04  -2.3090462e-04  -1.1463260e-04  -2.0495636e-04  -7.0407102e-04  -3.7421717e-04   1.1297048e-03  -4.5759894e-04  -2.9263616e-04  -6.8898429e-05  -4.3155879e-07
  -7.0039608e-04  -6.5679784e-04  -5.9541233e-04  -1.0170259e-03  -8.3316362e-04  -9.7903959e-04  -5.7202420e-04  -2.9022401e-04  -2.0710956e-03  -6.7384873e-04  -7.4802537e-04  -5.2560144e-04  -4.3815907e-04  -5.7178258e-04  -5.4989039e-04  -3.7869811e-04  -7.6052384e-04  -4.5735858e-04  -1.2585183e-03  -8.2861370e-04  -5.3636392e-04  -8.5779722e-04  -7.5515598e-04  -4.7493423e-04  -3.5952200e-04  -5.4019148e-04  -2.5537770e-04  -6.0145173e-04  -2.2052941e-04  -5.7521183e-04  -1.3083481e-03  -7.7023666e-04  -7.9001364e-04  -5.1931501e-04   2.0062351e-03  -1.8557957e-03  -6.9551250e-05  -1.1266772e-04  -3.6957010e-04  -3.1110321e-05   7.4740788e-06  -2.9673145e-05   1.7967341e-04   2.0395967e-04  -1.1340890e-04   4.4892495e-04  -1.9321332e-04  -1.7858763e-05   2.2883092e-05   4.3124874e-04
  -1.1899575e-03  -3.5211936e-04  -1.2946040e-04  -4.2197481e-04   1.2369636e-04   1.1278113e-04  -1.3304477e-04   3.5731235e-04   8.4023634e-03  -7.1698858e-05  -1.3972959e-04  -2.6116151e-04  -2.5930399e-06   1.4324801e-04   2.8522109e-04   5.2975865e-05  -1.8300311e-04   4.9320344e-05   3.4334746e-03   1.8710787e-04   2.6250651e-05  -1.0582872e-04   6.3610956e-04   3.3805401e-05  -3.9430280e-04  -4.1525185e-05   3.7113723e-06   1.4171224e-04   4.3250629e-04  -1.1305382e-04  -1.9111320e-04   2.9718749e-05  -3.5942870e-04  -5.0488496e-05  -9.5744134e-04   7.9189596e-04  -8.0810481e-04   2.0423275e-04   5.8052788e-06  -1.3994992e-06   4.1704951e-04   1.3720740e-04   3.2614093e-04   1.1344158e-04  -8.6360764e-05   9.4784721e-04  -1.2114336e-04   3.8158461e-05   2.2316905e-04   4.6138593e-04
  -8.5921632e-04  -3.0744710e-04  -5.3302228e-05  -4.1784992e-04   8.9652262e-05  -7.3417636e-05   2.8068954e-04   2.5843279e-04  -1.5542252e-04  -2.4552571e-04  -1.6218923e-04  -3.2399694e-04  -1.1563894e-04  -5.6736408e-05  -1.3349031e-04   4.1522915e-05  -5.0536462e-05  -6.3865878e-06  -1.2260748e-03  -1.5624192e-04  -1.5772699e-04  -2.8056104e-04   4.6438505e-05  -2.0119462e-04  -1.2710798e-04  -8.4603686e-05  -3.3616110e-05   2.4003489e-04   8.8686938e-05   3.9869083e-05  -9.9432643e-04  -3.2494136e-04  -5.8202242e-04  -2.1959791e-05   5.3463219e-04   8.4100186e-04  -1.7367370e-04   1.6173447e-04  -5.3525069e-05  -1.7531522e-04  -1.6260472e-04  -6.6992125e-06   1.7943421e-04  -2.3562109e-04  -3.0927671e-04   2.0238318e-04  -3.8581458e-04  -2.3331777e-04   6.0749855e-05   1.5390886e-04
  -1.1073169e-03  -6.0103164e-04  -8.3330233e-04  -9.3306968e-04  -8.3475129e-04  -6.7122182e-04  -2.2117900e-04  -5.3876320e-05  -4.9318848e-03  -6.0746504e-04  -5.3165056e-04  -4.9803819e-04  -5.3887261e-04  -3.5774117e-04  -6.0500711e-04  -2.6041979e-04  -5.1874091e-04  -3.2558586e-04  -2.2685716e-03  -5.4594973e-04  -4.6510453e-04  -7.7951374e-04  -7.5640966e-04  -3.2285386e-04   2.0142517e-04  -4.4015364e-04  -4.9863796e-04  -4.0504229e-04  -6.0640054e-04  -4.0918193e-04  -6.2916806e-05  -1.0199487e-03  -9.5153891e-04  -4.0336646e-04  -4.9821712e-05  -4.1132010e-04   3.4278561e-04  -2.8957936e-04  -4.3732539e-04  -1.5894076e-04  -6.0572033e-04  -1.8397196e-04  -3.0913553e-04  -1.0348278e-03  -4.6167531e-04   1.2428468e-04  -3.1795944e-04  -8.6986089e-05  -2.7099560e-04   4.1687541e-04
  -1.9678501e-04  -6.0211594e-04  -3.3925451e-05  -6.4243586e-04  -4.0599151e-04  -7.3730643e-04  -1.7458196e-04  -2.9482273e-04   2.2344601e-04  -2.1035770e-04  -3.0279934e-04  -3.6364948e-04  -1.5720038e-04  -3.7643509e-05  -3.8619040e-05   4.0731902e-06  -1.1542843e-04   2.2633361e-05  -2.8957801e-03   4.5269626e-05  -3.6739460e-05  -5.0055267e-05  -1.9264048e-04   7.2962168e-05   6.7931120e-05  -3.4319703e-05  -3.0555783e-04  -1.3977045e-04   3.4786301e-04   1.4026399e-05  -1.0709197e-03  -1.4085000e-05  -2.0586036e-04  -7.2954368e-05   1.4086370e-03   1.0178420e-03   5.8264850e-05   9.9711433e-05   5.9777540e-05  -1.8857141e-05   4.7214888e-04   1.7412106e-04   3.0527834e-04   7.8028371e-04  -9.4369207e-05   3.7414499e-04  -1.4769040e-04   5.5872733e-05   3.2536816e-04   4.9570488e-04
  -3.0133760e-04  -3.8799658e-04  -2.3887618e-04  -4.7400428e-04  -5.6813669e-04  -3.3078779e-04  -2.6833510e-04   4.1458316e-06   2.6624901e-03  -2.8263405e-04  -3.3221068e-04  -3.5433986e-04  -3.2172570e-04   2.5208545e-05  -8.9093255e-06   3.0188139e-06  -1.0853063e-04  -9.9754769e-05  -9.2394563e-04  -8.7910477e-05  -1.3604341e-04  -2.5355234e-04  -7.1218121e-04  -2.6610924e-04   3.1371674e-05   1.2765678e-04   2.4437890e-05   1.8943672e-04  -3.5490913e-04  -2.5426777e-04  -1.3696859e-06   1.7925006e-05  -4.8018745e-04  -3.6437018e-04   1.2150693e-03  -4.9194420e-04  -3.2526386e-04  -5.9093851e-05  -9.6892087e-05   6.5073988e-04   1.3410171e-04   1.3488241e-05   1.0469388e-04  -5.8439415e-04  -1.2678545e-04  -1.3382887e-04  -2.7437854e-04  -1.0182467e-04  -2.3454634e-04   3.4196803e-04
  -6.4385601e-04  -6.1303779e-04  -9.3545724e-04  -7.2045147e-04   1.9753852e-04  -4.3670216e-04  -6.3184102e-04  -1.7167995e-04  -1.5323822e-04  -6.3140108e-04  -6.2330795e-04  -5.3200201e-04  -3.4678268e-04  -4.4143148e-04  -2.5751861e-04  -3.6641237e-04  -4.5891834e-04  -2.1735078e-04   8.0432970e-04  -5.1998592e-04  -4.4678239e-04  -6.8302016e-04  -3.3174604e-04  -3.5035223e-04   4.6551210e-04  -3.0650164e-04  -2.1856633e-04  -1.2674298e-04  -3.1771936e-04  -4.1638507e-04  -7.6516462e-04   4.1010912e-04  -6.9047819e-04  -4.5607946e-04  -3.0507328e-04   3.4336859e-04  -1.2372789e-03   1.8249428e-05  -4.4829294e-04  -2.2798748e-04  -1.5858324e-04  -4.8046757e-05   1.2664226e-04   6.5548207e-05  -1.7429826e-04   4.2350587e-04  -1.4184986e-04   9.2571696e-05   1.9614617e-04   5.3648197e-04
  -3.2982981e-04  -4.4871453e-04  -2.9071880e-04  -1.9744152e-04   1.7343950e-04  -3.4503496e-04   5.4938660e-04  -1.5310524e-04   1.0884169e-03  -9.8499353e-05  -2.1665667e-04  -2.7830256e-04  -9.0146488e-05   2.1424392e-04  -3.0783372e-04   4.4258773e-05  -3.1929718e-05   1.1162902e-04  -1.4320501e-03   3.1815472e-04   6.5257977e-05   4.4059045e-05  -6.6403081e-05   4.8133566e-05   2.2764677e-04  -1.9741381e-05  -2.2109722e-04   4.7118923e-05   5.0181308e-04   5.2538522e-05  -9.1068941e-05   6.5194166e-05   1.9478537e-05   1.4746543e-04   5.0462643e-04   8.7711134e-04   7.3337389e-05  -7.7689285e-05   1.0771909e-04   6.7429699e-04   6.6860905e-04   2.4082154e-04   6.1906280e-04   1.0889867e-04   4.9632249e-06   9.4150892e-04   2.7544143e-05   2.2652470e-04   3.8145264e-04   6.6200021e-04
  -4.6678874e-04  -2.4339974e-04  -6.5981458e-06  -1.1419232e-04  -5.8756505e-05  -1.5162838e-05   2.1752926e-04   2.5543987e-04  -1.0813866e-03  -1.8356554e-04  -2.6766714e-04  -2.7522381e-04   1.2230800e-04   1.4189006e-04   2.7935708e-05   7.5859542e-05   1.6620475e-05   8.9169182e-05   2.6795345e-03   5.1414940e-05  -6.2514177e-05  -1.7096693e-04  -4.4862970e-04  -1.9818928e-05   2.7169287e-04   1.7153101e-04  -1.4119405e-04  -2.9420753e-05  -1.1678147e-04   6.5213375e-05   9.2040823e-04   2.0036470e-04  -7.3136725e-06   2.2024334e-04   5.7673152e-04   9.9146774e-04  -2.7696055e-04   4.1605053e-06  -4.9143011e-05   5.5954902e-04   2.0893622e-05   9.8788478e-05   3.6765734e-04   1.5115340e-03  -2.0031331e-04  -5.2835740e-04  -1.4323676e-04   1.0086102e-04   2.9580941e-04   3.8485014e-04
  -3.2553059e-04  -4.8176869e-04  -3.4190080e-04  -6.9847133e-04  -7.8411547e-05  -5.7909451e-04  -3.1901459e-04  -1.2039579e-04   4.1568931e-03  -5.4529455e-04  -4.5369050e-04  -4.3792426e-04  -2.9574314e-04  -4.3578944e-04  -3.3686848e-04  -7.6652803e-05  -4.0060596e-04  -1.5674804e-04   2.7117151e-04  -3.0012277e-04  -3.5606447e-04  -6.2257977e-04  -6.5881701e-04  -2.7295854e-04  -9.8898294e-05  -2.8828840e-04  -5.1195224e-05  -2.3348311e-04  -4.1823085e-05  -1.7622221e-04  -3.1207158e-04  -1.1165182e-03  -6.6249899e-04  -6.3767016e-04  -6.4548361e-04  -1.2430199e-03  -1.6232330e-05  -2.1456509e-04  -3.5917948e-04  -3.3012015e-04  -2.7231636e-04  -1.0268900e-04   1.9943544e-04  -2.3639032e-03  -1.6284645e-04  -7.8254018e-04  -1.0309729e-04   9.8383185e-05   3.0155209e-04   4.1075115e-04
  -4.8901461e-04  -4.0176322e-04  -1.0394886e-04  -3.1011729e-04  -7.1886810e-04   1.7175062e-04  -2.5534155e-04  -8.8567504e-05   1.2127591e-05  -2.8832419e-05  -8.7986002e-05  -2.0793325e-04   1.1080399e-04   1.2285881e-04  -8.7154847e-05   2.0633216e-04   2.4381091e-04   1.6577398e-04   4.3629555e-04   4.1775111e-04   1.6652756e-04   2.1822361e-04   6.8153400e-04   2.0236813e-04   8.4678199e-05   1.7827144e-04   2.6737840e-04  -1.7372222e-04   1.6132556e-04   2.1455655e-05   1.0485195e-03   1.0101408e-04   1.9691340e-04   3.2488682e-05   1.7259858e-03   1.1185610e-03   8.4001257e-04   3.8950189e-04   1.2520450e-04   9.4823819e-04   4.7174710e-04   4.1743630e-04   8.1834884e-04   6.9679372e-04   1.7095460e-04   5.9963885e-04   2.0323666e-04   4.3918961e-04   3.3271528e-04   7.8549690e-04
  -5.0428271e-04  -1.3520847e-04   2.3520079e-05   1.7500784e-04  -6.7333865e-04   4.2941188e-06   1.4068007e-04   2.7005663e-04  -2.0316914e-04  -3.9746759e-05  -4.9056689e-05  -1.6437900e-04   2.0494251e-04   2.6186788e-04   1.2728076e-04   2.8924603e-04   2.3815883e-04   1.6299485e-04  -2.6545378e-03   3.2100943e-04   1.0488777e-04   1.5311927e-04  -2.7996159e-04   9.8636294e-05   1.1451145e-04   2.7649119e-04   9.8262528e-05   2.5262611e-04   2.2029647e-04  -1.3859395e-05  -8.4473676e-04  -5.7083409e-04   2.9395267e-04   4.6058232e-04   2.0321046e-03   1.3401601e-03  -3.0482901e-04   4.5693756e-04   1.0181606e-04   8.2095561e-05   2.9842125e-04   2.5399902e-04   5.9726636e-04   6.8238056e-05   5.9412265e-05   7.9300982e-04   6.7131929e-05   3.7655965e-04   3.1110048e-04   4.4865298e-04
   2.7085337e-04  -2.1764338e-04  -3.2056480e-05  -1.1027075e-04  -3.8090945e-04   6.5767497e-04  -7.2908813e-07  -4.4751781e-04  -1.1861592e-03  -4.0897293e-04  -1.8947232e-04  -3.1867030e-04  -1.4997365e-04   3.6836740e-05   2.5130980e-06   2.2233860e-05  -5.3835192e-05   2.3026778e-05   7.5293123e-04  -1.4373961e-04  -1.7474461e-04  -3.3129714e-04  -5.1729113e-04  -1.5301292e-04  -3.4518985e-04  -1.3603678e-04  -7.8193509e-05  -1.2065307e-04   8.0548867e-05  -1.3868288e-05   4.6217244e-04   5.0565909e-04  -6.2501017e-04  -2.5492717e-04  -6.1788748e-04   2.9020326e-04  -2.2652853e-04  -2.5184199e-04  -1.6719788e-04  -4.2159736e-04  -1.0285912e-04  -9.8144337e-06   1.2116867e-04  -1.4522489e-03  -1.1056287e-04  -7.7149639e-04  -1.5865192e-04   4.3353502e-05   2.6769092e-04   2.0959477e-04
  -3.1283920e-04  -4.0747298e-04  -2.4765241e-04  -4.2579559e-04  -5.5693468e-04  -1.1564080e-03   4.3013806e-05  -4.1082316e-05  -4.4469611e-04  -3.3941407e-05  -6.0051716e-05  -2.4122164e-04   7.1005532e-05   6.5388223e-05   2.3236935e-04   2.2381758e-04   1.8965805e-04   1.1858319e-04   1.0491095e-03   3.1347980e-04   1.4270713e-04   2.3574215e-04   2.4571261e-04   1.8331921e-04   1.9064001e-04   2.8754477e-04   2.1931717e-04   3.5926778e-04   3.7422893e-04  -2.6488662e-05   1.0699381e-03   7.5011223e-04  -5.4965913e-04   4.3954977e-04  -1.4059233e-03  -3.3938180e-04   5.1982864e-04   7.8850827e-04   2.5846652e-04  -1.6924615e-04   9.4919920e-04   5.0649192e-04   9.2969462e-04   1.2147849e-03   2.0282449e-04   1.1738465e-03   3.3901923e-04   6.7609496e-04   7.9413725e-04   1.0368662e-03
  -2.5125704e-04   1.1384726e-04   4.3639450e-04   9.1430302e-05  -2.4334577e-04  -2.4731582e-04   3.4638221e-04   7.8060135e-04   4.1651123e-04   3.1119802e-05   1.4383228e-04  -1.5470928e-04   2.5880404e-04   4.9522298e-04   5.7656369e-05   3.9871744e-04   3.2383637e-04   3.3401779e-04   3.5367778e-03   4.4644886e-04   1.4081504e-04   2.3148868e-04   4.3826169e-04   2.5825635e-05  -6.4311207e-05   3.7080850e-04   2.8272500e-04  -1.7517901e-05  -2.3003604e-05   1.1242799e-04   1.2348992e-03  -4.2273950e-05   1.5586111e-04   3.3587092e-04  -2.8164819e-04   1.0203490e-03   5.4258853e-04   8.3149545e-04   1.9856470e-04  -4.0404341e-04   6.2377047e-04   3.8359643e-04   8.3445892e-04   8.9083839e-04   2.8131582e-04   1.8198345e-03   2.5043287e-04   6.4725423e-04   5.6937028e-04   9.2971290e-04
  -4.2313355e-04  -1.5339149e-04   3.8637142e-04  -1.3758863e-04   1.9123025e-04  -4.8058704e-04  -4.1924461e-05   1.8238965e-04   3.0539406e-03  -2.7353951e-04  -1.4931553e-04  -2.9258034e-04   1.8796411e-04   1.6390915e-04   3.3816783e-04   2.7221447e-04   8.0711456e-05   2.0849636e-04   6.4231717e-05   1.3416948e-05  -1.9486979e-04  -3.1588518e-04  -1.0927292e-04  -1.2492166e-04  -1.4274284e-03   5.4868351e-06  -1.9819592e-04  -1.5374164e-04   1.4212717e-04  -1.8190006e-04   7.3281059e-04  -4.1273277e-04  -4.1297753e-04   1.2449992e-05  -1.4012210e-03   9.4001397e-04   2.1909078e-04  -1.3506808e-04  -7.3624295e-05   1.8559274e-04   3.8997512e-04   1.8539332e-04   4.4043793e-04  -4.3093660e-04   1.6147060e-04   6.9520436e-04  -1.6286880e-05   3.1920327e-04   1.9584711e-04   5.5083528e-04
  -6.0302578e-04  -4.9518736e-04  -5.1435840e-04  -6.3226453e-04   1.6955241e-04  -4.4689683e-04  -4.7955045e-04  -3.3157310e-04   3.4394294e-03  -3.8405714e-04  -3.4691254e-04  -4.4188916e-04  -9.2367860e-05  -1.3063048e-04   3.7708104e-04  -3.6580142e-05  -5.1465999e-05  -1.3235192e-04   3.3711139e-03   2.4545871e-04  -2.6846769e-07   3.4647295e-05  -3.3660632e-04   2.6737924e-05  -4.9398779e-05  -9.1356931e-05   3.5013174e-05   3.9459058e-04   4.7951093e-04  -2.7555077e-05   1.8338229e-03  -9.5814976e-05  -4.3715867e-05   1.5460097e-04  -1.5314764e-03   1.2506869e-03   3.4264332e-04   4.2053062e-04   1.8526448e-04   2.5970509e-04   1.1982605e-03   5.6931574e-04   9.9432736e-04   5.4896460e-04   4.2050309e-04   2.3048730e-03   4.0853815e-04   8.6518022e-04   7.4747304e-04   1.1435146e-03
  -3.6329470e-04   7.3435302e-05   6.5765221e-04   1.0967554e-04  -4.1072528e-04   2.5939243e-04   3.3884193e-04   2.0459144e-04  -2.2666855e-03  -2.8991606e-05   1.4174034e-04  -2.1432270e-04   3.6759759e-04   4.7793330e-04   2.4839881e-04   3.9146098e-04   2.9861715e-04   3.5369539e-04   3.5895826e-03   4.2074674e-04   1.0203339e-04   1.3492066e-04  -1.1575774e-04   7.8716796e-05   7.6990895e-04   2.6076069e-04   1.9073607e-04  -5.6819401e-05   2.2579779e-04   9.1863825e-05  -2.5858902e-04   1.5195960e-04   1.2318364e-05   1.2541047e-04   1.1095380e-03  -1.2667730e-03   5.1536958e-04   2.5552019e-04   2.6453176e-04   5.9470774e-05   5.5258779e-04   4.5600760e-04   7.9898362e-04   3.3882915e-04   3.6434905e-04   5.2940944e-04   3.0461274e-04   7.5561361e-04   6.3820742e-04   9.7093155e-04
   2.5490639e-05  -5.3708449e-05   2.4507483e-04  -1.3866574e-04   2.5175614e-04   4.6963436e-05   8.8591245e-04   2.2052454e-04  -1.9078088e-03  -3.1763368e-04   1.2845950e-05  -2.9446121e-04   9.1759583e-05   1.3203573e-04   3.1828118e-04   3.8137264e-04   2.1936877e-04   1.6069686e-04  -2.3793723e-03   8.7113272e-05  -1.4352093e-04  -2.3169629e-04  -2.3908371e-05  -2.4376212e-05   1.0346585e-04   9.4596187e-05  -3.3740071e-04   2.7331736e-04   3.4503068e-04  -2.7353606e-05   1.0260607e-03  -2.3359367e-04  -2.3449188e-04  -9.6624113e-05   2.2836741e-04  -3.8051084e-04  -8.9328259e-04  -9.9281839e-05  -1.4607403e-05   6.6850212e-04  -6.5339693e-05   1.1629300e-04   4.5645429e-04  -1.7920247e-03   1.7369734e-04  -9.1207080e-04  -3.5627316e-05   2.7467072e-04   1.8585852e-04   5.2930223e-04
  -5.7793420e-04  -5.1454210e-04  -1.6658117e-04  -7.8604190e-04  -8.0705434e-04  -6.9721631e-04  -1.5738487e-04   1.7038944e-04  -5.0315505e-04  -7.2388776e-04  -4.9170793e-04  -5.4369750e-04  -3.5640062e-04  -2.3144091e-04  -3.1611987e-04  -6.2611267e-05  -2.8770787e-04  -1.9688073e-04  -2.0408686e-03  -4.1269130e-04  -4.2460451e-04  -7.1297761e-04  -7.9369592e-04  -4.6998926e-04  -6.8876507e-05  -4.2122623e-04  -2.3423266e-04   3.5866928e-05  -5.6611781e-04  -5.0457480e-04  -7.3948491e-04  -2.8593885e-04  -1.2980851e-04   1.5734725e-04  -1.0453063e-03   4.3723403e-04   2.2193539e-04   4.6353307e-05  -4.6521476e-05   3.7839648e-04   3.6858278e-04   3.2410916e-04   4.0496865e-04   5.0914916e-04   1.8849650e-04   3.0415790e-04   2.2250705e-04   5.2145007e-04   5.9184944e-04   9.0673036e-04
  -3.0062176e-04  -5.3098927e-05   9.9367724e-05  -1.1473196e-04  -2.0778400e-04   1.4200626e-04   3.5866458e-04   2.7932643e-04   8.0092333e-04  -2.8675143e-04  -4.5556961e-05  -3.4882250e-04   2.1013849e-04   4.1189216e-04   4.1473462e-04   4.1014623e-04   3.8119656e-04   2.8402562e-04  -1.6866247e-03   3.7740052e-04   1.0463877e-04   2.1984830e-04  -4.0980839e-04  -9.7729593e-05   1.1276300e-03   2.7519255e-04   4.9806351e-04   1.8758721e-04   3.3651738e-04  -9.3966271e-05   3.7537527e-04   1.5388927e-05   2.0656928e-04   5.1564653e-04  -1.9374582e-03   9.0865570e-04   4.4032058e-04   2.5404239e-04   7.8888166e-05   5.4778467e-04   2.5527831e-04   3.3263880e-04   5.7077711e-04   2.3154082e-04   2.6806674e-04   3.2495108e-04   2.0060147e-04   5.1355420e-04   3.5227128e-04   1.0083654e-03
   6.0644333e-04  -9.7583208e-05   2.6172632e-04  -6.4912536e-05   4.8368314e-04  -5.5410876e-04  -3.3125497e-04   9.6338124e-05  -1.7008408e-03  -4.8704882e-04  -1.5996794e-04  -4.4461715e-04   6.4917120e-05   4.0411987e-04   1.5389088e-04   3.0328901e-04   1.2997109e-04   2.9561069e-04  -7.6928490e-04   1.4032236e-04  -5.5517994e-05  -8.9113564e-06  -3.9675934e-04  -1.4899565e-04   2.9618933e-04   6.9862108e-05   3.8975594e-04  -2.8830409e-04   8.7069435e-05   6.5491295e-05  -8.5137197e-04  -1.2723914e-04   2.2384769e-04  -6.1449718e-06   3.2161071e-04   4.1928980e-04   4.1865872e-04   1.8078868e-05  -8.5588927e-06  -2.0295859e-04  -1.5966683e-04   3.3006785e-05   2.5268111e-04   6.6550361e-05   1.5289598e-04  -2.2781710e-04  -1.0042442e-04   1.5774849e-04   2.2723795e-04   4.6221670e-04
  -1.6565267e-04  -3.7662531e-04  -3.3805484e-04  -6.0511631e-04  -5.9418402e-05  -7.4825168e-04   1.0839946e-04  -4.7524821e-04   5.9402439e-05  -8.1569760e-04  -5.0478056e-04  -5.9283787e-04  -2.1827727e-04  -2.5405371e-04  -1.7908042e-04  -1.5454709e-05  -2.3742238e-04  -1.4889741e-04   1.6509793e-03  -4.2968630e-04  -3.7756556e-04  -4.6264636e-04  -5.0881295e-04  -4.0081653e-04  -1.6938463e-03  -3.8301246e-04  -2.9685299e-04  -3.3453279e-04  -2.5022161e-04  -3.5795197e-04  -1.2248951e-03   1.9896301e-04  -3.7966867e-04  -3.1220049e-04  -1.6194258e-03  -7.9296116e-04  -2.5182776e-04   3.3952724e-06  -2.0598256e-04   5.1786023e-04  -9.5532268e-05   4.9560011e-05   8.3353305e-05  -9.9262944e-04  -4.1377483e-05  -4.4018467e-04   7.6767930e-05   3.0066207e-04   5.4472854e-04   7.5342803e-04
   4.9581904e-06  -1.0112148e-04   1.6764509e-04  -1.8729488e-05  -6.5314624e-04   2.7058937e-04   3.3344815e-05   1.5149120e-04  -2.6116967e-03  -2.9923886e-04  -6.5368229e-05  -3.6830842e-04   8.1970647e-05   3.4151465e-04   8.3039748e-05   2.9213558e-04   2.6578608e-04   4.4760926e-04   1.3026297e-03   3.5574863e-04   1.0455099e-04   2.1401740e-04   9.4335752e-05  -9.5730120e-06  -8.0751552e-04  -3.6485122e-05  -1.9540728e-04   1.0558281e-04   5.5666437e-04   9.2060283e-05   9.4964186e-04   2.6423810e-04   2.0293906e-04   2.1586459e-04   2.3050761e-04  -5.9128378e-04   5.6944217e-04   4.6166566e-05   1.3463074e-04  -1.6917524e-04   2.3182247e-04   1.5990440e-04   4.0502995e-04   6.1653956e-04   3.6525278e-04   5.0551706e-04   1.2105761e-04   3.4834561e-04   6.8930181e-04   7.7010476e-04
   7.0586248e-05  -2.4969411e-05  -8.2975994e-06   4.8942959e-05   9.0774382e-04   2.4569855e-04   1.9967895e-04  -1.0905677e-04  -6.7582325e-04  -4.2795701e-04  -1.7828868e-04  -4.1313749e-04   3.7812806e-05   2.3277247e-04   2.5895977e-04   1.4195775e-04   8.9815228e-05   1.7226326e-04   1.9163666e-03   1.4826468e-04  -3.7160764e-05   9.7888777e-05  -3.7427784e-05  -1.9851264e-04  -6.8229408e-04   3.5344514e-05   1.0343864e-04   3.2278843e-04   3.3432010e-04   8.7950139e-05   3.9065233e-04   3.2560571e-04   3.0640941e-04  -8.7535358e-05  -8.0767117e-04  -4.3714140e-04   4.8590047e-04  -1.7047198e-04   6.0916827e-05   7.1197381e-04  -1.2781975e-04  -1.7890112e-05   1.6637410e-04  -7.0986251e-04  -3.4104025e-05   9.9948246e-04  -1.3244723e-04   4.4555036e-05   3.8862380e-04   5.0494558e-04
  -5.9175440e-05  -3.7772511e-04  -1.4779060e-04  -4.2185085e-04  -7.7575346e-04  -3.4359162e-04  -3.4995214e-04   3.7317193e-05  -3.0141450e-03  -7.5341237e-04  -3.9730614e-04  -5.6786067e-04  -1.4610575e-04  -1.3886490e-04   7.7448758e-06  -1.7615933e-04  -2.2831632e-04  -6.0143902e-05  -2.2587054e-03  -3.2639073e-04  -3.5351468e-04  -3.9678952e-04  -4.4403371e-04  -4.7532417e-04  -5.4885470e-04  -3.5951784e-04  -2.4018559e-04   1.7293589e-04  -2.6565764e-04  -1.8136713e-04  -5.1129009e-05  -4.4249548e-04  -2.9740811e-04  -5.8609614e-04  -1.4341372e-03  -1.6469277e-03   2.2350620e-04  -1.5744727e-04  -1.0799920e-04   1.1106002e-03  -2.8131995e-04   1.4406417e-05   1.5070758e-04  -3.1476901e-04   1.4584468e-04   4.5802424e-04   1.0738546e-04   1.9177137e-04   4.5073268e-04   6.8541494e-04
  -5.3723761e-07  -1.9444466e-05   2.6458158e-04   1.9395382e-04  -7.8304329e-06  -2.8680934e-04   6.1340077e-04   3.4516788e-04  -1.2310304e-03  -1.8550341e-04  -3.8902508e-05  -2.7164156e-04   2.4036154e-04   4.7426569e-04   2.2403836e-04   2.8129466e-04   3.3603649e-04   2.3657650e-04  -1.3010885e-03   4.6536760e-04   1.6750266e-04   4.1221551e-04  -4.3261378e-05   8.5358251e-06   1.8451234e-03   1.6484628e-04   6.6779619e-05   1.4617396e-04   5.3095585e-04   2.7958612e-04   1.3789446e-04   1.3018337e-03   3.8211167e-04   2.2662565e-04   1.0439124e-03   9.0486585e-04   1.0647260e-03   5.7164801e-04   2.5019905e-04   1.1881712e-03   1.2933202e-04   1.6012440e-04   2.8489757e-04  -4.5380753e-04   3.2276532e-04   6.9310958e-04   1.6215352e-04   2.4789033e-04   4.2507163e-04   7.7941734e-04
   4.2474683e-05  -1.7911382e-06   4.5266142e-04   1.2932377e-04   4.8425724e-04   1.8493667e-04   2.7925108e-04   1.1853022e-04   1.2558062e-03  -2.7328415e-04  -9.7447606e-05  -2.6635351e-04   7.0317896e-05   2.2216995e-04   1.9663578e-04   2.5158506e-04   1.9328551e-04   3.5223083e-04   1.3803279e-04   2.0356651e-04   2.2712431e-05   1.2080301e-04  -1.6563844e-04   6.2549851e-05   1.7515315e-04  -3.7212012e-05   3.1058720e-04  -1.4308929e-04   5.3785252e-04   2.8396178e-05   1.3851553e-04   1.2793778e-04   2.5573355e-04   2.1313819e-04  -1.8281164e-03   3.7010925e-04   3.0571898e-04   1.7889365e-04   1.5887855e-04   6.7466282e-04  -3.8561669e-05  -4.0778807e-05  -6.3007610e-05   8.4319070e-04   1.9039281e-04   1.6246350e-04  -8.9235720e-05  -7.3996169e-05   1.0555172e-04   3.7887564e-04
  -5.6930340e-04  -2.6574635e-04  -1.5800488e-04  -2.9556279e-04  -3.9125534e-04   2.1102547e-04  -1.0249399e-04  -9.7066968e-06   4.1585150e-03  -6.0127897e-04  -4.7455856e-04  -4.7701536e-04  -2.0090220e-04  -4.5786353e-05  -1.5833776e-04   4.7689887e-06  -1.2482802e-04  -5.1267216e-05  -2.8447297e-03  -2.8035921e-04  -2.7726934e-04  -3.0222372e-04  -3.8298889e-04  -3.6419489e-04   1.9764111e-04  -3.3904039e-04  -4.6962293e-04   3.5619928e-04   2.5297233e-04  -1.6009821e-04   9.9758012e-04  -1.0015782e-04  -5.4717157e-04  -2.4006121e-04   1.3831692e-03  -9.1820216e-04   3.6046570e-04   1.5507794e-04  -2.4567626e-04  -5.0997670e-04  -7.6315546e-04  -3.1257022e-04  -4.5858815e-04   7.3088479e-05  -2.2317059e-05   4.8081373e-04  -3.8152415e-05  -4.2256241e-05   7.3465856e-04   5.0637370e-04
   1.3815344e-04  -1.0225276e-04   1.2415589e-04   2.5879359e-04   8.8266563e-04   2.9025367e-05   5.0269783e-04  -8.3782899e-05   1.9460896e-03  -1.0565095e-04  -1.7155991e-04  -2.5381744e-04   1.2938233e-04   2.9434002e-04  -7.6505734e-05   2.7842898e-04   3.0863105e-04   3.1076212e-04   1.3141761e-03   4.9569580e-04   2.4568834e-04   5.2757422e-04   6.9651207e-05   1.3992039e-04   6.5133086e-04   1.2551829e-04   3.5769818e-04  -1.2176307e-04   2.1771225e-04   2.7730165e-04   1.4331844e-04   4.7658433e-04   8.7702047e-04   4.4449157e-04   9.0308371e-04   6.2810403e-05  -2.9873269e-04   7.0920767e-04   3.7935414e-04   3.4057902e-04   3.7410708e-05   1.6780765e-04   2.1389240e-04   2.7626703e-04   3.1276670e-04   1.7974075e-03   1.7602681e-04   1.6768934e-04   6.8745698e-04   7.7656523e-04
   2.1813890e-04   1.8277355e-04   2.6484893e-04   1.5562639e-04   6.7167501e-05   1.0572367e-04   6.1801187e-04   5.3504744e-04  -3.1329149e-03  -1.1566157e-04   1.5224718e-05  -2.3529628e-04   2.4561715e-04   2.7347630e-04   3.7921275e-04   4.5878274e-04   2.4798932e-04   2.2910815e-04  -1.6187297e-04   3.3177476e-04   1.5257541e-04   3.2354536e-04  -1.5118731e-04   1.2404245e-04   4.1905549e-04   1.6695722e-04  -2.1957603e-04   2.0339106e-04   1.1079649e-04   2.7299134e-04   7.7966554e-04   6.4422563e-04   6.2624441e-04   3.6206975e-04  -1.3167071e-03  -4.2763213e-04   2.3344303e-04   8.0536483e-05   2.5901062e-04   1.0950530e-03   2.1432858e-04  -3.7926467e-05   4.4965600e-05   1.6354905e-03   2.7208379e-04  -2.3516027e-04   2.8133849e-05  -2.4236479e-05   4.8175442e-04   5.6363142e-04
  -3.9656337e-05  -5.6938774e-05   2.1387832e-04  -3.6090589e-04   1.8809941e-04   3.1397332e-04   2.4213412e-04  -2.8009410e-04   8.3408202e-04  -4.2545222e-04  -3.3819917e-04  -3.7026411e-04   3.4384604e-05   1.1415655e-04   8.8465102e-05   1.2288052e-04  -2.9443783e-05  -3.0584120e-05   5.3652108e-04  -7.8784178e-05  -1.0038394e-04  -4.4655582e-05  -3.4268276e-04  -2.1041735e-04   2.4263428e-04  -1.2844335e-04  -2.2177921e-04   4.6649462e-04   5.8962152e-05   1.4855036e-04  -4.7857955e-04   3.0903984e-04   2.3940305e-04   2.9027287e-04  -1.2481045e-03   2.7462878e-04  -6.4204837e-04   7.6766199e-05  -4.7620371e-05   6.3596445e-04  -9.3140925e-04  -3.6822623e-04  -5.2183727e-04   9.4466587e-04   2.2086457e-05   1.8805296e-04  -2.5030677e-04  -4.4111264e-04   1.8893393e-04   4.9681639e-05
  -4.9706869e-04  -3.0499240e-04   2.1024642e-04  -2.2772340e-04   2.5597948e-04   2.1130612e-04  -2.0289575e-04   1.0613819e-04  -3.8040269e-03  -1.4295180e-04  -2.5105942e-04  -2.4902498e-04   2.0110115e-04   1.2954637e-04   2.8669601e-04   2.6035265e-04   2.9125129e-04   2.8066721e-04   5.8299117e-04   5.1617430e-04   2.8216356e-04   4.7649821e-04   1.3456015e-04   1.5966463e-04   6.3232979e-04   2.3160400e-04   2.6062861e-04   3.3383686e-04   2.1250256e-04   3.4572146e-04   1.8629457e-03   7.6026126e-04   7.4132829e-04   3.7920789e-04  -1.5571908e-04   2.2726510e-04   1.5621117e-04   5.4751750e-04   4.0797799e-04   1.0580246e-03   1.0244409e-04   1.8945795e-04   3.1823121e-04   1.8293624e-03   6.4925075e-04   1.5076528e-03   2.0337773e-04   1.7852383e-04   8.4713072e-04   7.9764455e-04
   1.4668770e-04   2.1967677e-04   5.8585254e-04   3.8736485e-04   2.0345915e-06   1.4890305e-04   4.2433833e-04   3.0275004e-04  -3.5802994e-04  -5.2449188e-05   7.4896176e-05  -2.1209721e-04   1.8830493e-04   3.8109350e-04   4.2912061e-04   4.8370624e-04   3.8318132e-04   4.2105705e-04  -1.8293916e-03   5.2665011e-04   2.4792136e-04   4.8008471e-04  -5.6119898e-05   9.9130637e-05  -2.1725641e-04   5.8923259e-05  -3.1205142e-05  -5.7448244e-05   1.0668651e-03   3.5261188e-04   6.7894656e-04   6.3112605e-04   4.2358888e-04   4.0176572e-04   7.6581689e-04   2.9974748e-04   8.4113347e-04   5.7032763e-04   3.1961378e-04   1.5954199e-03  -4.2230633e-04   1.5076069e-05  -8.6727436e-05  -5.5575563e-04   4.1730652e-04   8.2122075e-04   6.8690031e-05   2.1122116e-05   5.2041351e-04   6.9756969e-04
   9.9327008e-05  -1.5039931e-05   1.3910141e-04   7.6332173e-05  -1.1246737e-04   4.3221422e-05  -2.4742621e-04   1.4078990e-05   2.2440534e-03  -3.0359448e-04  -1.6373009e-04  -3.0990140e-04   3.2831085e-05   6.3091866e-05   2.0490453e-04   1.7504650e-04   7.2570823e-05   2.0519608e-04  -1.4046452e-03  -9.2309892e-06  -7.3807423e-05  -2.4455570e-05  -5.5010554e-05  -2.2284876e-04  -1.6487054e-04   1.1484517e-05  -5.8513295e-05  -2.0361054e-04   2.4168234e-04  -7.0990613e-06  -9.6496515e-05   9.9105937e-06   1.8328620e-04   1.1294330e-04  -6.4499240e-04   2.8965197e-04   6.1960332e-04  -9.4333198e-05   8.6728636e-05  -6.1607204e-04  -6.1442604e-04  -2.7242798e-04  -2.6041499e-04   1.2795551e-03  -2.1141059e-05   4.3454525e-04  -2.4239108e-04  -3.0226712e-04   5.8237376e-05   9.1824979e-05
  -9.1591341e-05  -3.8473654e-04  -5.6476105e-04  -5.5616279e-04  -3.3732271e-04  -2.3537179e-04   1.3346867e-04  -3.3060153e-04   1.1683515e-03  -7.0615124e-04  -6.3651527e-04  -5.5316772e-04  -2.7420945e-04  -2.9641582e-04  -9.0660615e-05  -1.5346806e-04  -2.9541465e-04  -3.4764456e-04   1.9718627e-03  -3.3447848e-04  -1.8759363e-04  -2.7223755e-04  -7.6630746e-04  -2.0894756e-04   3.8534252e-04  -3.2591738e-04   2.3571086e-04   4.0625328e-05   1.3959556e-04  -1.1449736e-04   9.3359931e-04   8.5092778e-04  -4.8949209e-06   2.3025570e-04  -8.9587690e-04  -8.1584032e-04   6.8781554e-04   2.1193355e-04   2.0537253e-04  -4.0424376e-04   2.6327290e-04   9.8961493e-05   1.4482028e-04   4.2629716e-04   4.4182254e-04   1.4179872e-04   1.0706014e-04   1.5979109e-04   6.0309726e-04   6.8244251e-04
   9.0502453e-04   5.5364722e-05   3.8990294e-04   2.4399387e-04   7.4034807e-04   6.4963655e-04   6.1904127e-04   4.5465442e-04   1.2555849e-03  -1.0552285e-04   1.6440816e-05  -2.2262515e-04   1.4506382e-04   2.9582230e-04   1.4549823e-04   3.4827314e-04   3.1404363e-04   4.6877141e-04  -3.3327987e-04   3.8758077e-04   1.3768948e-04   1.8468220e-04   6.2213757e-04   4.6942412e-05   5.5985467e-04   1.3935387e-04  -4.8749487e-05  -9.4429997e-05   3.0353051e-04   2.0248294e-04   6.0784846e-04  -2.9286930e-05   5.5130624e-04   3.1853924e-04  -1.5793504e-04  -4.2625665e-04  -3.5598874e-04   4.2945688e-04   3.2692647e-04   1.2989894e-03   2.4136605e-04   4.2559524e-05   1.8215500e-04   7.3189568e-04   4.1725702e-04   1.0087915e-03   6.6963323e-05   3.3847857e-05   6.1426044e-04   5.3559506e-04
  -1.7512427e-04  -6.0681714e-06   3.2129948e-04   3.9178201e-05   6.2215677e-04   2.9315427e-04   2.1439664e-04   7.8098907e-05  -2.1721052e-03  -2.5040380e-04   1.3331626e-05  -3.2030841e-04  -5.5946468e-05   1.1382604e-04   2.5418381e-05   1.3583373e-04  -5.5233077e-06   2.1440210e-04  -6.1282702e-04   1.4936476e-04  -4.4879787e-05  -4.1268726e-05  -5.6325464e-04  -1.6274567e-04   7.5493765e-05   9.4596326e-05   3.6491067e-04   9.3169889e-05  -2.4549497e-04  -1.2293362e-04   1.3829864e-03   4.4381723e-04   1.5279747e-04  -2.3587960e-04  -2.0320690e-03  -1.7959188e-04  -5.3080206e-04   3.9977714e-04   9.8026670e-05   2.0168489e-05  -5.1578908e-04  -2.1381211e-04  -2.2346710e-04   6.5170572e-04  -8.9453213e-05   7.8625430e-04  -2.2352405e-04  -1.6179687e-04   1.6282056e-04   3.6371141e-04
  -5.6554016e-04  -4.3574377e-04  -4.8639125e-04  -5.8144651e-04  -3.5417511e-04  -5.6149217e-04  -9.8723622e-06  -2.0485397e-05   3.4065268e-04  -6.7661452e-04  -4.5493353e-04  -5.2704755e-04  -3.2482139e-04  -2.4980592e-04  -5.4369834e-06  -1.8348271e-04  -3.9698833e-04  -1.5313399e-04  -5.3471926e-04  -4.0365133e-04  -3.5560195e-04  -4.9381843e-04  -2.8912944e-04  -5.0404452e-04   1.3034077e-03  -2.9094642e-04   1.6121117e-05   3.6849795e-04  -3.3920232e-04  -2.2519087e-04   7.0020405e-04  -7.3361356e-04  -4.7160269e-04  -1.2651210e-04  -7.2340335e-05  -1.7378095e-04  -9.2833198e-04   1.2311447e-04  -1.5220327e-04   2.3529003e-04  -1.8720380e-04  -2.6427660e-04  -1.5435008e-04   1.2350631e-04  -8.5932385e-05   3.1742908e-04  -8.8350826e-05   1.7748915e-05   5.6294445e-04   6.5590488e-04
   5.8704277e-04  -1.3585924e-04   1.2396823e-04   6.5562643e-05   7.3645456e-04   1.9931872e-04   3.0269095e-04   7.8811550e-05  -6.1784469e-04  -1.7169880e-04  -5.1775842e-05  -2.8996833e-04   8.2750186e-05   2.4935679e-04   7.0065194e-05   2.5245096e-04   8.3853192e-05   2.6740850e-05   2.9077302e-04   3.4770314e-04   1.5964327e-04   2.6620438e-04  -5.8474526e-04  -5.0120751e-05   1.7856264e-04   1.6969859e-04  -1.4166368e-04   2.7254471e-04   5.0417939e-04   1.0618225e-04   1.5099162e-04   1.1223215e-03  -4.2600560e-04   3.2924398e-04   5.7694496e-04   1.6690514e-03   2.4886616e-04   1.0218746e-04   2.0528812e-04   1.7141816e-04   3.7370226e-04  -2.3705905e-05   6.2420651e-05  -1.7970128e-03   2.0101627e-04   1.9915032e-03  -2.0759406e-05  -3.0295201e-05   4.6383584e-04   4.9868401e-04
  -7.2086645e-05  -7.2864328e-05   2.1521842e-04  -1.1111645e-04   2.7771143e-04   2.9688518e-04   3.9187237e-04  -3.0871735e-05  -5.7719508e-04  -3.0741291e-04  -8.9061541e-05  -3.0880861e-04  -1.2009051e-04   1.2133756e-04   4.6337886e-05   8.6648353e-05   4.4045377e-05   1.5001706e-04   4.4063358e-03   1.4492101e-04  -1.1391904e-05   4.8635298e-05  -6.0107576e-04  -2.3770711e-04  -2.1202461e-04  -8.1112157e-05  -1.0674442e-04   2.4694952e-04  -5.6612422e-05   1.3041489e-04  -9.1149763e-04   1.6446714e-04  -1.1769777e-04  -1.2196938e-04   1.2377903e-04  -6.1048969e-04   7.1036171e-05  -4.1491061e-04   5.5647302e-05   2.5500078e-04  -8.2353385e-05  -2.5610568e-04  -1.2794351e-04  -7.4094755e-04   1.4446230e-04  -1.7072150e-04  -2.4593135e-04  -2.0736884e-04   8.2356491e-05   2.0376591e-04
  -5.1375697e-05  -3.7836988e-04  -3.2116458e-04  -5.6257122e-04  -2.7541653e-04  -4.5891455e-04  -3.7580426e-04   3.9413873e-05   1.3287360e-03  -6.6727336e-04  -4.4267526e-04  -4.9621740e-04  -2.8675408e-04  -2.6668876e-04  -2.3769606e-04  -1.3870759e-04  -3.8517342e-04  -2.4405993e-04  -8.9106627e-04  -3.3064003e-04  -3.3843101e-04  -5.2649673e-04  -1.3296762e-04  -3.9822020e-04  -5.5597298e-04  -2.8773348e-04  -2.7144028e-04  -6.5480519e-05  -4.7635398e-04  -1.4747906e-04   2.6804393e-05   2.1334659e-04  -5.3697132e-04  -2.6310101e-04   7.6256273e-04  -3.2628616e-04  -7.2035921e-04  -3.1945526e-04  -1.4155188e-04   1.3962619e-04  -9.3085808e-05  -1.6098346e-04  -4.6429195e-05   1.3989019e-04   7.4632844e-05  -1.3105569e-03  -4.8909507e-05   5.6969886e-05   4.5841307e-04   6.2457763e-04
  -3.1206183e-04  -7.1994138e-05   1.9165204e-04   1.4660486e-04  -5.9092621e-04   2.0345164e-04   3.0167287e-04   2.6582969e-05   3.6646209e-03  -1.5970938e-04   8.2591578e-05  -3.1299272e-04   1.9636476e-05   1.2048850e-04  -4.0662521e-06   3.6030682e-04   1.2868749e-04   1.0933691e-04  -2.7002462e-03   3.8393779e-04   1.5877743e-04   1.8749853e-04  -1.4491873e-04  -1.1599996e-04  -6.0738799e-05   6.5405904e-05   1.2828269e-04  -6.3167950e-05  -4.9857485e-05   8.8925110e-05  -6.8096539e-05   1.4595206e-04   5.6719693e-04   2.3516275e-04   8.0652785e-04   8.9163030e-04  -3.9359010e-04   2.7197573e-04   3.2336422e-04   5.7751115e-04   1.3564133e-04   4.9532009e-05   4.3430482e-04  -4.5568548e-04   3.3210241e-04   9.1639487e-04   5.3182201e-05   1.4340034e-04   1.0254951e-04   5.7524361e-04
   2.6818534e-04  -9.3593502e-05   6.0420600e-05   1.2228493e-05   9.6190424e-04  -3.4703684e-05   2.7808893e-04   1.4166259e-04   2.6705366e-04  -2.7656433e-04  -1.9583464e-04  -3.0737155e-04   3.2761131e-05   5.5511620e-05  -1.2162940e-05   1.4578608e-04   1.1210448e-04   1.8363791e-04   2.6509054e-03   2.1868006e-04   3.1534913e-05  -7.9569936e-06  -2.2162037e-04  -3.5151068e-04   8.6193206e-04  -5.4803990e-05   3.6008592e-04   6.7453853e-05  -1.5890760e-04   2.6097635e-04   1.3718996e-03   6.0147350e-04   1.6370870e-04   1.1368308e-04  -1.9670432e-03   9.8171050e-04   4.9678597e-04   2.7535093e-04   1.9365318e-04   2.6574856e-04  -2.3642567e-04  -1.4656034e-04   1.9105210e-05   1.4435048e-03   4.8159774e-05  -5.2770646e-04  -1.6774486e-04  -4.6652443e-05  -1.0157951e-04   3.5075285e-04
  -3.3133029e-04  -3.6109562e-04  -2.7125207e-04  -5.1169132e-04  -1.5833673e-04  -3.5577518e-04  -3.5331168e-04  -2.9077134e-04   3.4540689e-03  -6.3785136e-04  -3.2764985e-04  -4.9197645e-04  -2.7755168e-04  -2.8386299e-04  -5.0697949e-05  -1.2708011e-04  -3.7007578e-04  -1.7962948e-04  -1.2293235e-04  -2.8711589e-04  -3.3187235e-04  -5.2398752e-04  -4.6668574e-04  -4.4551474e-04  -1.7307776e-03  -5.3138385e-04  -2.1943965e-04  -3.3025324e-04  -3.3596970e-04  -3.0849429e-04   5.2660290e-04   1.2826308e-04  -4.1483322e-04  -6.0165511e-04  -1.1376912e-03   4.1334573e-05   1.6781170e-04  -1.8707789e-04  -1.5222607e-04   2.7643301e-04  -5.0016475e-04  -2.4716297e-04  -9.3205643e-05  -4.7652316e-04  -3.3766188e-05   5.5790151e-05  -3.6188252e-05   7.1523675e-05   5.2490208e-04   4.7169233e-04
  -1.0404538e-04  -1.1114054e-04  -1.2624212e-05   7.1026261e-05   1.0902005e-04  -2.5777888e-04   2.5545809e-04   1.8197894e-05  -7.1097945e-04  -1.0350559e-04  -2.1085028e-05  -2.5553344e-04   2.5348656e-04   2.4130638e-04   6.6790449e-06   2.1098249e-04   1.7572939e-04   1.9391584e-04  -4.3048412e-03   4.5594166e-04   2.0061468e-04   3.8055083e-04   4.2956349e-04  -4.4983310e-05  -3.9346237e-04   1.7782928e-04  -1.3359085e-04   7.1288814e-04   2.3120300e-04   3.3133899e-04   1.4925982e-03   1.8075837e-03   5.6631042e-04   3.8158728e-04   7.1035360e-04   1.1036568e-03  -2.1926095e-04   6.4418236e-05   3.8136647e-04   6.3577911e-04   5.5572728e-04   1.0933843e-04   2.5575206e-04   7.9436513e-04   3.6913296e-04   1.0924822e-03   1.4140147e-04   2.2571773e-04   5.1944295e-04   7.2803808e-04
  -5.8271101e-04   1.1337407e-04   2.4352060e-04   3.7833408e-04   5.7915644e-05   2.3438824e-04   1.6146648e-04  -7.1365495e-05  -1.4354241e-03  -1.3468289e-04   5.2127285e-05  -2.2764222e-04   7.3395073e-05   1.8421642e-04   8.6755485e-05   3.4109291e-04   2.3679943e-04   1.5115338e-04   3.5596851e-03   3.3136195e-04   6.8541354e-05   1.6071278e-04  -3.3379142e-04  -1.0483016e-04  -1.0930673e-03   1.0275310e-04  -2.4448002e-05  -1.4815581e-04  -2.0625681e-04   2.2535361e-04  -8.6517067e-04  -2.3753481e-04  -2.9903557e-04   7.9954123e-05  -7.2521664e-04   3.4388676e-04  -4.6591400e-04   4.0550827e-04   1.7100965e-04   7.5962889e-04  -2.3464471e-04  -2.8511005e-05   3.2960463e-04   7.5744130e-05   1.8413311e-04   1.1703953e-03  -3.4318346e-05   5.9079634e-05   3.6069870e-04   4.6072691e-04
  -3.2190682e-04  -2.5776910e-04  -3.5768724e-05  -3.3406293e-04  -5.8918161e-04  -1.0754699e-04   1.3123163e-04  -7.3997893e-05   1.7062355e-03  -4.8531804e-04  -2.7094354e-04  -3.6976609e-04  -1.3210173e-04  -1.0137870e-04  -1.1055247e-04  -3.7600537e-05  -1.5558385e-04  -2.4627090e-05  -2.6907674e-03  -1.4256657e-04  -2.2756084e-04  -3.2882555e-04  -4.4059634e-04  -3.3931711e-04  -6.3938246e-04  -1.7228989e-04  -7.8051446e-05   6.9967311e-05  -2.1078273e-04  -1.1533892e-04  -1.7621742e-03  -7.6049729e-04  -1.9844811e-04  -3.5907174e-04  -4.6454510e-04  -3.8267706e-05   1.2117291e-04   2.5863303e-05  -9.2608891e-05   1.4898977e-04  -3.9546724e-04  -2.6962493e-04  -1.7939346e-04   6.8263215e-04   7.0597765e-05  -1.5106349e-04  -9.8309298e-05  -4.3614455e-05   3.1612656e-04   4.3949045e-04
   6.4636602e-05  -2.3126566e-04   1.3314757e-04   5.0991926e-05   2.3643974e-04   1.1386909e-04  -2.3560366e-04  -4.0179697e-05  -8.4192137e-04  -7.3738112e-05   3.5186509e-05  -2.1650318e-04   4.5359178e-05   3.0307443e-04   1.1868643e-04   2.5491635e-04   2.3997747e-04   3.0277556e-04  -1.6573274e-03   5.0387904e-04   2.1715956e-04   3.5593210e-04   4.5016911e-04   6.1741957e-05   4.6889498e-04   3.4942594e-04  -3.2356696e-04   4.1993198e-04   1.1083806e-04   2.4641491e-04   1.0877190e-03   1.0343051e-03   3.6670378e-04   3.0372952e-04   1.0539658e-03   6.1376370e-04   6.8682525e-04   4.2342738e-04   4.3967232e-04   7.5880112e-04   3.0918937e-04   1.7741087e-04   4.3497232e-04   1.6251539e-03   2.1117699e-04   1.3557269e-03   2.0232257e-04   3.7918013e-04   3.9225037e-04   8.8000699e-04
   4.9815761e-05   8.7352586e-05   4.7390058e-04   2.8808357e-04   8.1129529e-04   8.2865387e-05  -4.1098134e-05   2.2780530e-04   6.4687319e-03  -1.0241604e-04   5.5366130e-05  -1.9361271e-04   1.9993418e-04   3.8941653e-04   3.2303360e-04   2.4447011e-04   1.8930920e-04   3.4960255e-04  -4.0864707e-03   4.0197422e-04   1.1348984e-04   2.6971556e-04  -1.8276906e-04   4.8044745e-05   5.6725001e-04   2.3545022e-04  -9.8521916e-05   2.2514990e-04   3.6069041e-04   2.2125599e-04   7.3850225e-04   4.9170479e-04   1.8828633e-04   5.3529907e-04  -3.7020873e-04   4.1282750e-04  -8.5135125e-06   2.6176823e-04   3.2057278e-04   6.4944610e-04   1.0055423e-04   7.7619086e-05   2.8260559e-04  -9.7525329e-04   1.8490426e-04   1.3270380e-03   7.1777518e-05   2.7476539e-04   5.1592314e-04   5.7212927e-04
  -1.9190247e-04  -1.5144283e-04  -8.9009816e-05  -2.7149622e-04  -1.0423460e-04  -6.5881584e-04   2.1602426e-04  -1.1592897e-04   5.2940613e-03  -3.9167047e-04  -1.8993323e-04  -3.4863190e-04  -3.9240467e-06   5.9562084e-05   1.0392108e-04   6.1394523e-05  -1.6116890e-05  -3.2653901e-05   8.6025521e-04  -7.4758056e-05  -1.9720496e-04  -2.0697742e-04  -4.8193520e-05  -3.7587114e-04  -8.5188738e-05  -1.4393647e-04  -4.3419746e-04  -2.2067254e-05   1.9743328e-04  -2.8344308e-04  -2.5638088e-05   8.5324813e-05  -2.7772214e-04   6.4787106e-05   1.1231446e-03   5.2221661e-04   3.4715113e-04   9.3476352e-05   2.9076245e-05   1.2426499e-04  -5.5249647e-04  -2.0224793e-04  -1.7537804e-04  -9.1096223e-04  -9.9852085e-05  -2.4383489e-05  -2.3162186e-04  -1.2570068e-04   4.2147527e-05   2.4772919e-04
  -1.3413912e-04  -4.7500752e-04  -6.8580288e-05  -5.3181144e-04   6.5225840e-04  -5.0375785e-04   2.2999700e-05  -4.0761093e-04   2.8582218e-03  -2.2614244e-04  -1.3598871e-04  -3.3082283e-04   1.6095344e-05  -1.3549201e-04   1.7309203e-04   9.7097698e-05   1.9310859e-04  -3.4054185e-05   1.6601135e-04   3.2177981e-04   1.2209598e-04   2.7226025e-04  -1.4336480e-04  -4.9777933e-05   2.1612931e-04   1.6036318e-04   3.2621124e-04  -1.6019773e-04  -1.9829744e-04   2.1458350e-04   1.5046339e-03  -1.0662937e-05   4.2323829e-04   1.1804937e-04  -9.9194469e-04  -7.3802941e-05   9.0435270e-04   4.3591109e-04   3.9874014e-04   4.8468930e-05   2.1637327e-04   2.3900469e-04   5.7179522e-04   6.2003429e-04   5.1623984e-04   4.2449860e-04   2.0320542e-04   3.8773759e-04   2.8531085e-04   8.8659028e-04
   1.8937675e-04   3.8481005e-05   2.4997751e-04   2.4961244e-04  -2.3076298e-04   2.0545782e-04  -2.4451542e-04   1.3730774e-04   8.0023347e-05  -8.1716578e-05   2.0059980e-04  -2.3211897e-04   2.8163710e-04   1.8924302e-04   1.7015797e-04   3.2708811e-04   2.1139786e-04   2.3678526e-04   5.5569451e-04   3.2427159e-04   7.2673378e-05   1.3259768e-04  -4.0142007e-05  -6.0157759e-05   5.1082950e-04   3.2211276e-05  -8.7014945e-05   1.7020505e-04   6.5212208e-04   2.8317180e-04  -1.0865742e-03  -1.2096552e-04   4.1024780e-04   2.1459594e-04   9.1731903e-04  -2.3434620e-04  -8.0068246e-04   2.9040067e-04   2.9421190e-04   8.5505063e-04   3.0841588e-04   1.3244503e-04   4.5892730e-04  -3.5496481e-04   1.5777859e-04   4.8981659e-04   7.6041804e-05   3.4487213e-04   3.4518586e-04   8.2558434e-04
   1.4770121e-04  -5.1411891e-05  -5.8002643e-05  -1.0877648e-04   3.9653046e-04  -4.7871599e-04  -1.5060123e-04  -1.5106585e-04  -1.6317317e-03  -3.6356447e-04   2.9973248e-06  -3.7875617e-04   6.7890658e-05   1.0614785e-04   1.0148999e-05   4.0576262e-05  -7.7885903e-05  -5.3353701e-06   3.3719226e-04  -8.2674538e-05  -2.2479358e-04  -3.2966401e-04  -2.5413159e-04  -3.9747436e-04  -3.6581844e-04  -1.7143787e-04  -6.5962311e-05  -4.0507060e-04  -1.5082336e-05   2.0467494e-05  -9.0707577e-04   4.8509915e-04  -1.9408860e-04  -2.8408651e-04  -1.6790547e-04  -6.5574725e-04  -9.8134566e-05   1.9611535e-04  -4.0348925e-05  -4.0961703e-04  -2.2075996e-04  -1.9982623e-04  -2.9860275e-05  -3.9031339e-04  -1.2793033e-04  -6.1330723e-04  -2.3639988e-04  -4.3998942e-05  -1.1719188e-04   2.3668689e-04
  -6.2147412e-04  -5.6647306e-04  -4.7014354e-04  -6.1681063e-04  -2.9652091e-04  -4.0824979e-04  -6.7848968e-04  -3.0187186e-04  -2.1015652e-03  -7.5400894e-04  -3.6719255e-04  -5.6997029e-04  -4.3966313e-04  -4.0385147e-04  -2.8895767e-04  -2.9132012e-04  -4.2000404e-04  -2.1708792e-04  -6.6008192e-04  -2.3290188e-04  -2.8251586e-04  -4.2733026e-04  -8.4002834e-04  -5.1673566e-04   8.1064994e-05  -1.0679868e-04  -2.5331334e-04  -6.8166933e-04  -3.3706255e-04  -2.2861431e-04   1.1083758e-03  -9.8533956e-06  -2.0576715e-04  -2.5093043e-04   1.5545083e-03  -8.9284418e-05   1.4119194e-04   4.9844768e-04   4.0140490e-05   6.5918418e-04   2.5512226e-04   8.9942594e-05   4.0617716e-04   9.1950795e-05   3.4216928e-04   7.6320948e-04   6.5974120e-05   3.8008680e-04   5.0381955e-04   9.1494998e-04
  -6.4228254e-04  -3.6507619e-05   4.3879444e-04   2.2941288e-04   1.6589933e-04  -3.7039110e-05  -2.2050710e-05   2.1119430e-04  -5.4906639e-03  -2.0419936e-04   4.5354322e-05  -2.9121019e-04  -4.6474826e-05   1.3218205e-04   2.9775943e-04   1.3616741e-04   1.0000170e-04   2.6077271e-04   1.5124709e-04   1.5843009e-04  -6.1808219e-05  -3.7319445e-05  -1.4464365e-04  -1.8807797e-04  -8.1330939e-04   1.5747466e-04  -2.0345095e-04   4.9398517e-05   8.2816224e-04  -2.5323065e-05   1.0280006e-03   1.3000664e-04  -4.3992186e-04  -1.0871407e-04   2.9403000e-04  -3.0987605e-04   4.0530224e-04   2.0472052e-04   1.7480977e-04   4.9778326e-05   6.5487024e-05   7.8544006e-05   6.2241789e-04  -2.5197183e-04   1.7140595e-04   1.3775578e-03  -1.6511963e-06   3.9943081e-04   3.0503160e-04   6.8284641e-04
  -4.5047692e-04  -1.7350480e-04  -2.9789307e-04  -2.1696749e-05   7.2039409e-05  -4.1928361e-05  -6.0459435e-05   1.0799323e-04  -1.6797355e-03  -4.1384663e-04  -2.0660050e-04  -3.8690327e-04  -9.5171716e-05  -3.5090688e-05  -1.8970766e-04   3.9565602e-05   5.1364779e-05   1.3375506e-04   2.4157751e-03  -9.0203845e-05  -2.5493320e-04  -4.0925478e-04  -3.4861534e-04  -3.2555556e-04  -5.7227648e-04  -5.6350480e-05  -8.3338076e-05  -1.7960467e-05  -4.1061547e-04  -1.6365530e-05   7.6415238e-04   3.4361370e-04  -3.5935972e-04  -1.9101219e-05  -1.0589399e-05  -2.2916470e-04  -4.1041026e-04  -2.0027583e-04  -5.9798171e-05   3.1286887e-05  -2.2430348e-04  -1.7244753e-04   1.5201594e-04  -7.7414254e-05   9.4532850e-05  -3.4616899e-04  -2.9537096e-04   1.8668570e-05  -5.7265293e-05   3.7883458e-04
  -5.2304548e-04  -4.9713143e-04  -4.8808759e-04  -7.4459880e-04  -4.7675861e-04  -6.1731302e-04  -4.0361390e-04  -5.6931906e-04   1.8659992e-04  -7.7007338e-04  -3.6430339e-04  -5.8705686e-04  -4.8279556e-04  -3.6619476e-04  -5.5061694e-04  -3.5668418e-04  -5.5233249e-04  -3.5842496e-04  -2.1285126e-03  -5.7294458e-04  -5.6732196e-04  -8.4241433e-04  -4.3345607e-04  -6.2483468e-04   5.1242980e-05  -5.0065905e-04  -1.6815355e-04  -1.4410277e-04  -3.5887831e-04  -3.5662571e-04   1.9742530e-04  -3.1410300e-04  -6.3386478e-04  -2.7707929e-04   1.0267193e-03  -6.2455161e-04  -3.5725461e-04   1.2002943e-04   1.2295296e-05  -7.8578031e-04   9.1041569e-05   3.0480369e-05   3.7413044e-04   7.2035694e-04   6.9634494e-05   3.6153808e-05  -1.0461976e-04   2.3997469e-04   1.6617480e-04   8.4396999e-04
  -2.5546582e-05  -1.5260282e-04   1.7838583e-04   2.5249040e-04   2.0928704e-04  -8.9003413e-04  -2.0513135e-04   2.6978331e-04   5.0135069e-03  -2.3868388e-04  -6.3698739e-05  -3.6189394e-04   4.1967472e-05   9.7658696e-05  -1.4754691e-05   1.3049027e-04   6.7947010e-05   2.6014453e-04  -2.6297203e-04   1.4489300e-04  -1.1893411e-04  -9.2186689e-05  -2.9142811e-05  -2.8705719e-04  -1.2682475e-03   4.6025772e-05   1.8687018e-04   3.5618872e-05   1.9821842e-05   4.7026515e-05  -3.4379907e-06  -4.0688791e-04  -9.7641147e-05   1.7908870e-04  -5.2202953e-04  -1.3877254e-04  -1.4825379e-04  -1.6950055e-04   1.4950367e-04  -2.9523537e-04   3.3563483e-04   6.5466302e-05   5.2533572e-04   4.7340197e-04   8.8888330e-05   1.5641280e-03  -7.4597105e-05   2.7145725e-04   3.2272231e-04   7.6000148e-04
  -1.4736627e-04  -1.5273275e-04   2.7782665e-04  -9.0148147e-05  -1.7688715e-05  -1.5915962e-04   2.9475533e-04   5.1537174e-04  -3.0946673e-03  -3.9528043e-04  -1.9656177e-04  -4.3781113e-04  -1.1971905e-04   2.4564815e-05   2.1585394e-04  -9.0569556e-05  -4.5181296e-05   1.1055762e-04  -2.0416214e-03  -1.1415283e-04  -2.5825616e-04  -4.1566152e-04  -1.9748387e-04  -3.6720870e-04   2.6903415e-04   6.6851171e-05  -9.2652634e-05  -4.3086856e-04  -5.9146627e-05   3.5915746e-05  -5.7121133e-04   1.0196013e-04  -3.0963737e-04  -5.7843848e-05  -1.1005660e-03   4.8224023e-04  -4.3435645e-04  -2.1418183e-04  -3.7242989e-05  -3.4960458e-04  -2.1695769e-04  -1.9630327e-04   8.3159990e-05  -6.2420929e-04   4.9238573e-05  -6.3274230e-04  -3.5943577e-04  -6.5564564e-05  -8.7112385e-05   2.2953349e-04
  -7.3400501e-04  -5.4636761e-04  -4.5303267e-04  -6.7923433e-04  -1.0446037e-04  -1.0746614e-03  -3.1971963e-04  -1.5461292e-04  -7.0968103e-03  -7.9753320e-04  -5.2046968e-04  -6.1471545e-04  -4.3949956e-04  -3.8431535e-04  -3.9928334e-04  -2.7169552e-04  -4.1594089e-04  -3.7101319e-04   1.4877272e-03  -6.2804250e-04  -5.8899977e-04  -8.5428188e-04  -3.6597604e-04  -6.8689085e-04  -6.3363370e-04  -3.3168463e-04  -6.5486744e-04  -3.3896239e-04   4.4260261e-04  -3.4529364e-04  -4.5465759e-04  -7.4948760e-04  -5.3752714e-04  -7.1832002e-04  -9.2403620e-04  -8.3071366e-04  -4.9457472e-04  -4.4814320e-04  -2.2748890e-04   1.3052094e-04  -2.0555184e-05  -2.6543753e-04   1.8472495e-04  -2.8574618e-04  -9.8472901e-06  -6.0272473e-04  -2.4990010e-04   1.2681092e-04   2.2869845e-04   5.9286924e-04
  -8.9412165e-04  -2.5648306e-04  -7.1429160e-05  -2.0717776e-05  -7.4622204e-04  -2.9410043e-04  -7.7656267e-05   1.7685030e-04  -3.5315838e-03  -2.5865063e-04  -8.0824422e-05  -3.9356557e-04   2.5544374e-05   8.5576039e-06   5.1618335e-05   1.7155395e-04   1.5780990e-04   2.1212854e-04  -1.6222836e-03   1.9253520e-04  -1.7201724e-05  -4.5034001e-05  -1.9282223e-04  -2.7573077e-04  -5.2088610e-04   6.5326552e-05   7.1770519e-05  -1.5014474e-04   6.0904346e-04  -1.8282130e-04   7.0485013e-04   3.7782331e-04  -1.1602313e-04   2.0351998e-05  -1.2280970e-03   1.0959838e-04   5.3201343e-06  -1.0208615e-04   1.9979081e-04   1.0263784e-04   5.7605080e-06   2.8325103e-05   4.0499502e-04   5.9862714e-04   3.7667243e-05  -1.0712098e-03  -1.6881607e-04   2.0232949e-04   5.2646344e-04   5.5888767e-04
  -7.1506409e-05  -1.1754775e-04  -1.1046304e-04  -8.8203506e-06   1.0945175e-04  -8.3039908e-05   4.1174519e-04   4.4794266e-05  -5.3726318e-03  -3.4130146e-04  -1.8206921e-04  -3.7827535e-04   9.8857799e-06  -9.7021593e-06  -1.0120495e-04  -3.4848268e-05   5.9955662e-05   7.8450699e-05   3.8515443e-03   1.1120961e-05  -1.2419412e-04  -2.0227548e-04  -3.9835478e-04  -2.5481984e-04   1.0168721e-04  -2.1777692e-05  -2.6375290e-05  -9.6015297e-05   1.2890642e-04   1.3953319e-05   7.7773898e-04   7.5534906e-04  -2.5253970e-04  -1.2290294e-04  -1.6049336e-03   5.1992454e-05   2.8837219e-04  -2.9340861e-04   9.0114081e-05  -2.5156856e-04  -5.8097088e-05  -1.6442011e-04   2.3933279e-04  -1.6292419e-04   1.7048236e-05   6.4118841e-04  -3.6012754e-04  -2.2845890e-05   8.8789540e-07   2.8326220e-04
  -6.9249183e-04  -3.6819701e-04  -4.4641935e-04  -5.7454495e-04  -2.9925728e-04  -5.2155124e-04  -4.1238341e-04  -2.7581927e-04   3.8441934e-03  -6.7551428e-04  -3.3569615e-04  -5.5395847e-04  -3.6014212e-04  -3.9941346e-04  -2.8187953e-04  -1.8569073e-04  -4.0673898e-04  -1.4964741e-04   9.7166433e-04  -4.6730740e-04  -4.4876331e-04  -6.3191348e-04  -8.5352507e-04  -6.5400667e-04  -1.4067946e-03  -2.5935360e-04  -4.0404001e-04  -2.6512082e-04  -4.3280618e-04  -2.3901991e-04  -1.4668021e-03   1.6337830e-04  -5.4523302e-04  -2.8365903e-04  -3.0380403e-04  -3.6354936e-04  -1.2969143e-04  -6.0939539e-04  -1.5924836e-04  -6.2207296e-04  -4.6185419e-04  -4.6623003e-04  -3.2228412e-04   7.4537806e-05  -5.6457845e-04  -1.2507708e-03  -6.7664700e-04  -5.3648435e-04  -9.0714508e-05  -5.5042288e-05
  -8.5490214e-04  -6.9260981e-04  -6.4360013e-04  -8.4382226e-04  -9.5886219e-04  -6.6992600e-04  -7.9218484e-04  -4.1107461e-04  -1.3691958e-03  -4.3199002e-04  -3.1960083e-04  -5.0265930e-04  -3.8609502e-04  -3.2045550e-04  -1.5948486e-04  -1.3239360e-04  -1.2186720e-04  -1.8475900e-04   1.9661081e-03   6.2697822e-05  -4.8236678e-05   4.5717406e-06  -8.9317091e-06  -1.7891220e-04  -1.7712098e-05   1.4007374e-04  -2.2936311e-04  -2.6392608e-04   5.1070342e-04   7.3783151e-05   4.6111629e-04   4.1719215e-04   2.3521445e-04   2.1485658e-04   3.2237879e-04  -1.4680641e-05   4.7444960e-04  -2.9761921e-05   2.3686672e-04   1.1904511e-03   6.2201419e-05   4.8540198e-05   3.2301928e-04   1.1106455e-03   1.4705569e-04   7.8838173e-04  -1.7676373e-04   1.4191665e-04   2.3137502e-04   7.0598559e-04
  -3.8551609e-04  -1.1271152e-04  -1.6383450e-04   6.2653635e-05  -3.0445919e-04  -1.5354677e-04  -4.1239051e-04  -9.3118499e-05   3.0707009e-03  -2.5216263e-04  -1.3848318e-04  -3.7856348e-04  -2.4925432e-05   6.2664316e-05   3.6604426e-05   1.1867780e-04  -3.9314149e-05  -2.1971649e-05   6.6637812e-04   6.8995862e-05  -4.7506255e-05  -4.5672055e-05   1.5297749e-06  -2.8947808e-04  -9.7815029e-04  -1.6352646e-05   1.1054938e-04   1.7408394e-04   1.2325612e-04   1.6813152e-04   2.3515806e-04  -1.5575145e-04  -4.5367779e-04  -5.1455900e-05   3.5490180e-04   2.9914724e-04   5.9715286e-04   1.8854359e-04   1.6433162e-04   3.5117604e-04   8.8085901e-05  -7.9432677e-05   2.3180559e-04   3.8869560e-04   7.3012079e-06  -1.0708887e-03  -2.7439455e-04   7.0186354e-05   1.7387568e-04   4.6410452e-04
  -2.5343342e-04  -3.0115159e-04  -2.1189231e-04  -1.2459615e-04  -1.9686355e-04  -3.3029920e-04   5.4774381e-04   2.2746224e-05   8.8537514e-04  -4.3389029e-04  -2.7640574e-04  -4.3633996e-04  -2.2080723e-04  -6.9226837e-05  -2.8615407e-04  -1.9562901e-04  -1.2000534e-04  -1.5599802e-04   8.5047632e-04  -2.4749458e-04  -3.3340487e-04  -5.5317540e-04  -3.4579486e-04  -3.4323955e-04  -2.2979541e-04  -2.3535687e-04   9.6712625e-05  -2.0048168e-04  -4.1731360e-04  -3.6200922e-04  -7.6766149e-04  -4.0211182e-04  -9.5374516e-04  -2.5288874e-04   5.2710500e-04  -1.3107688e-03  -2.2366449e-04  -2.1313918e-04  -1.2247043e-04  -5.3146330e-04  -3.4101831e-04  -4.0355601e-04  -2.8222098e-04   3.7011635e-04  -2.0491023e-04  -6.9042813e-04  -5.6264561e-04  -3.2341114e-04  -2.6828999e-04  -2.2728347e-05
  -1.1221853e-03  -6.6017383e-04  -4.4019613e-04  -8.8785280e-04  -7.3263072e-05  -7.0336496e-04  -2.6625727e-04  -7.5017168e-05  -1.0838689e-04  -8.2470791e-04  -6.3484156e-04  -6.2327739e-04  -4.9620576e-04  -5.8262650e-04  -2.6616498e-04  -4.0389516e-04  -5.0148962e-04  -4.8286180e-04   3.9946969e-04  -6.8725942e-04  -4.9322355e-04  -7.3884701e-04  -6.5472815e-04  -5.6167226e-04  -7.0337881e-04  -5.1392318e-04  -4.2356635e-04  -2.8846471e-04  -5.5589050e-04  -3.7097477e-04  -2.0806739e-04  -6.6623325e-04  -2.4332375e-04  -5.8744755e-04   2.8541064e-04  -9.5229865e-05   9.6668425e-04  -1.9630291e-04  -3.6736285e-05   7.9252629e-04   2.6349106e-04  -8.8732239e-05   1.8324047e-04   2.4159480e-04   1.8294129e-04  -6.3985230e-05  -2.2334568e-04  -8.2339997e-05   5.3132098e-04   4.4594292e-04
  -7.1655662e-04  -7.9323865e-05  -8.9715657e-05   2.0578830e-04  -1.7265951e-04  -1.4245699e-04   3.0473340e-04   1.5135542e-04   1.7918784e-03  -2.5841664e-04  -1.4249042e-04  -3.4415806e-04  -2.5864019e-05   5.0588809e-05   3.5297338e-04   1.2806628e-04   1.0928265e-04   1.3877010e-04   1.7549541e-03   1.5581197e-04   5.0553681e-06  -1.4206360e-06  -3.5082563e-04  -2.5673985e-04  -2.5242462e-04   9.4285089e-05  -1.9677813e-04   1.3533575e-04   2.1189821e-04  -5.3251046e-05   6.5367098e-04   5.9589889e-04   6.6502951e-05   2.5385400e-04   4.1505479e-04   3.8809009e-04  -2.9219617e-04   6.2025494e-05   1.8400331e-04   6.1299332e-04   1.6548714e-04  -3.7996029e-05   1.3772900e-04   3.8189263e-04   4.3703115e-04   3.7347418e-05  -2.3326639e-04  -3.6820562e-05   2.2796899e-04   3.6212360e-04
  -8.9117486e-05  -1.4583694e-04  -1.3729255e-04  -1.0804687e-04  -3.8941871e-04   1.6671981e-04  -4.4778353e-04   2.1832577e-04  -1.3424796e-03  -3.5657594e-04  -1.0389153e-04  -3.8997186e-04  -9.3056762e-05   4.9262930e-05   2.0807504e-04  -1.0975091e-05  -1.1148781e-04   3.2366297e-05   3.3418373e-03  -5.5729128e-05  -1.4559834e-04  -2.2042118e-04  -4.0589593e-04  -3.4558080e-04  -1.9776438e-05  -1.0697679e-04  -3.3062595e-05   1.0764821e-04   1.2013824e-05  -8.7029635e-05   2.5407263e-04   4.7925569e-04  -2.4248862e-04  -1.1304253e-04  -7.1796024e-04  -3.4418350e-04   3.7254147e-05  -1.3152263e-04  -6.8863861e-05   4.3554869e-04   6.6253640e-05  -2.9183831e-04  -2.4211342e-05  -8.9306984e-04  -2.6869748e-04   4.1396578e-04  -5.2091945e-04  -3.1407282e-04  -3.2652562e-04  -2.5024081e-05
