  -8.6952969e-05  -4.3692406e-05  -2.6861730e-04  -1.7249721e-04  -5.0237117e-04  -1.4676047e-04  -4.4589568e-04   5.2148840e-05  -5.7858136e-04  -2.0480345e-04  -9.5289154e-04  -5.6080945e-04  -2.7446015e-04  -1.0944737e-04  -7.2549708e-05  -1.1342987e-04  -2.2995782e-04  -1.5440500e-04  -5.6894723e-04  -8.5345586e-04  -7.8288373e-04  -1.2834733e-03  -6.0739834e-04  -8.8389206e-04  -5.2623020e-04  -9.8720461e-04  -5.4671784e-04   2.1727322e-04  -6.7286089e-04  -8.1995624e-04   3.2619323e-04   4.0773630e-05  -7.0348236e-04  -5.8138132e-04  -1.5563306e-03  -2.1304042e-04  -8.5470721e-04  -3.3038799e-04  -8.3773868e-04   1.4695558e-05  -1.0746786e-03  -5.9756875e-04  -1.4555271e-03  -3.5018395e-04  -6.2968192e-04  -2.5208488e-03  -1.8221233e-03  -1.8361615e-03  -1.5712152e-03  -1.6337372e-03
   1.7996760e-04   2.6382695e-04   3.4342016e-04   4.3769693e-04  -4.2624370e-04  -4.2040899e-04   4.1796573e-04   9.3389746e-05  -1.3545524e-04   3.2762898e-04  -6.1184296e-04  -3.9379697e-04   8.9300032e-05   4.7785780e-04  -2.3082190e-04   3.9378184e-04   4.5514340e-04   3.2468126e-04   5.5067625e-04   7.4590331e-05  -2.1006343e-04  -4.8729169e-04   1.2018448e-04  -3.3918931e-04   6.3144027e-05  -4.6020513e-04  -1.4741463e-04  -2.6285119e-04  -4.3646083e-04  -3.3082446e-04   1.7021227e-03   1.0111453e-03  -1.4315336e-04  -1.7467202e-04  -5.9351866e-04  -7.4227682e-05  -9.4164308e-04   4.4169507e-04  -3.1252077e-04  -3.4638462e-04  -1.1600117e-03  -4.8580309e-04  -1.3184840e-03   3.1236370e-04  -4.9952400e-04  -1.2444323e-03  -1.7161614e-03  -1.6877340e-03  -1.6678448e-03  -1.5171124e-03
   4.7890024e-04   3.2823122e-04   3.9326766e-04   3.7306146e-04  -3.2924899e-04   4.9459570e-05  -1.6322511e-04   3.9332232e-04   3.1494536e-03   1.6387881e-04  -7.3105178e-04  -4.1791602e-04   1.6413222e-04   4.0339871e-04   1.7432349e-04   2.8289887e-04   2.2431469e-04   2.2319914e-04   4.2596308e-04  -1.3207074e-04  -3.8135520e-04  -7.7676045e-04  -2.5033558e-05  -5.9143169e-04  -6.2911102e-04  -5.7531195e-04  -1.1668316e-04   5.2573603e-05   4.2676456e-05  -4.4029701e-04  -1.3406413e-04   2.5570684e-04  -3.0088422e-04  -1.9996709e-04  -1.8321659e-03  -1.1417777e-03  -8.4647152e-04  -3.2776225e-05  -5.8216933e-04   2.6190048e-04  -1.4733371e-03  -6.7060400e-04  -1.4256219e-03  -5.8699836e-04  -5.6885020e-04  -2.4383117e-03  -1.9076016e-03  -1.9769480e-03  -1.9564845e-03  -1.9159229e-03
   4.4652941e-05   8.3568586e-05  -3.5815381e-05   7.2492344e-06   3.0978431e-04  -2.2293609e-05  -8.9248708e-05   5.4197691e-05  -2.6612545e-03  -1.7591413e-04  -1.0228798e-03  -5.8281788e-04  -2.8384870e-04  -6.6786801e-05  -2.2746925e-04   5.0981511e-05  -7.5229284e-05   3.5946410e-05   1.0404461e-03  -6.1921199e-04  -6.2953663e-04  -1.1278086e-03  -2.7035171e-04  -5.2503630e-04   8.7371909e-06  -8.2839711e-04  -5.0961768e-04  -2.0783387e-04  -8.2947424e-04  -1.0763016e-03  -8.9774758e-04   1.8494732e-04  -3.7665042e-04  -3.6465461e-04  -2.8551809e-04  -4.8312469e-04  -5.4873928e-04   1.9639016e-04  -4.7750937e-04   5.0411618e-04  -9.2449063e-04  -4.1934790e-04  -1.2725386e-03   4.9232057e-04  -4.2769246e-04  -1.3576521e-03  -1.6100772e-03  -1.6515478e-03  -1.4523452e-03  -1.4342982e-03
   1.1402988e-04   5.4590189e-04   5.6010811e-04   8.9040707e-04  -1.9906372e-04   6.4149330e-04   7.7880017e-04   7.7848243e-05  -1.0063685e-03   4.8683144e-04  -3.8906612e-04  -2.3799179e-04   4.0161415e-04   5.7483790e-04   2.2848112e-04   5.8996689e-04   6.3106098e-04   5.4527144e-04   2.3855693e-03   3.7501723e-04  -2.1169531e-04  -2.1492508e-04   4.9756945e-04  -2.1261825e-04  -2.6161497e-04  -8.9018489e-05   4.3471806e-05  -2.9816624e-04   1.0348840e-04  -2.6308640e-04  -2.9908973e-04   2.9002409e-04   3.7171253e-06   2.2800722e-04   3.3918463e-04   5.1711511e-04   2.0042140e-04   6.5043400e-04  -1.8426254e-04   5.9810391e-05  -7.2839932e-04  -2.6778626e-04  -9.5129025e-04   1.0195554e-03  -2.5514519e-04  -3.5845771e-04  -1.5176713e-03  -1.4809637e-03  -1.5963347e-03  -1.3237927e-03
   4.7039788e-04   5.2429934e-04   5.6445826e-04   7.6143019e-04   2.7047392e-04   1.0540144e-04   5.9335190e-04   2.2963391e-04  -1.9713228e-03   2.7901825e-04  -4.3846772e-04  -3.2121595e-04   2.4515527e-04   3.9610593e-04   3.8743441e-04   3.6151864e-04   4.3544648e-04   4.3171068e-04  -9.7179390e-04   2.6341957e-05  -3.3877423e-04  -5.4277945e-04  -4.3253800e-05  -4.1847973e-04  -2.1451410e-04  -3.0204817e-04   2.9484075e-04   2.2834100e-05  -2.2893363e-04  -5.4165832e-04   1.8673037e-04   1.5306525e-05  -2.0975186e-04   1.6542697e-04  -3.9948078e-04   4.6988763e-04   1.3702469e-04   2.3558956e-04  -3.9433737e-04  -1.9169567e-04  -1.0177895e-03  -4.4467926e-04  -1.0861930e-03   8.8895910e-04  -5.4215558e-04  -2.2687067e-03  -1.7487345e-03  -1.6900981e-03  -1.6594538e-03  -1.6379793e-03
   4.2702636e-04   2.7099799e-04   2.2647606e-04   2.0577258e-04   1.4532362e-04  -3.3294223e-04  -3.8255595e-05   4.1518826e-05   4.0486240e-04  -8.5064217e-05  -7.3489029e-04  -4.9208431e-04  -2.7011716e-04   1.6531878e-04   3.2766772e-04   2.2321953e-04   2.3876903e-04   9.3446390e-05  -3.0534575e-04  -5.0236954e-04  -6.2577019e-04  -9.5883198e-04  -3.9403309e-04  -6.1030418e-04   9.4512805e-05  -5.7585060e-04  -3.8178152e-04  -2.6222770e-04  -2.0431051e-04  -7.8118930e-04  -1.0016623e-03   7.4692078e-05  -6.7338138e-04  -2.2600743e-04  -2.3866283e-04  -1.2936215e-03  -2.2458058e-05  -6.3267810e-04  -7.2028110e-04  -9.1396621e-04  -1.7081265e-03  -6.0479174e-04  -1.3551052e-03  -8.5100095e-04  -5.5339833e-04   5.3125495e-05  -1.7247965e-03  -1.7099101e-03  -1.5365196e-03  -1.4956328e-03
   8.6739048e-04   4.3918996e-04   1.6290466e-04   6.7174702e-04  -3.0033803e-04   4.4792602e-04   7.9510181e-04   3.5509185e-04   1.9817769e-03   3.1202703e-04  -4.5411556e-04  -3.1521262e-04   2.0910129e-04   4.2834971e-04   3.3431029e-04   5.6890736e-04   6.4667704e-04   5.2808359e-04  -1.2393509e-03   3.7619408e-04  -4.9777627e-05  -1.8953325e-04   2.9123420e-04  -2.3254336e-04   5.7633023e-04  -7.9332742e-05   9.7577264e-05   3.7143918e-04  -1.1558743e-04  -9.9957782e-05   2.3292656e-04   8.3273050e-04   3.5601520e-04   2.4063316e-04   9.0448011e-04  -4.4231754e-05   2.9317220e-04   5.1735516e-04  -1.6359574e-05   7.3821144e-04  -7.7229715e-04  -1.6003904e-04  -7.9238764e-04  -1.6845838e-03  -1.3182181e-04  -9.1656717e-04  -1.4156441e-03  -1.3839839e-03  -1.2848394e-03  -1.3484390e-03
   3.8955011e-04   7.2757649e-04   7.2044070e-04   8.9098484e-04   2.8199074e-05   7.7383086e-04   1.1956184e-04   1.3532791e-04  -1.3033632e-03   2.9768216e-04  -3.9365707e-04  -3.2251037e-04   3.2668409e-04   5.6515669e-04   4.2714426e-04   6.6085794e-04   6.1293982e-04   6.6305569e-04   4.4311406e-03   3.5806760e-04  -8.6411332e-05  -2.6875568e-04   4.1976033e-04  -2.0702528e-04   5.4156891e-04  -2.5194595e-04   2.0215324e-04   2.7343334e-04   4.1574400e-04   1.0154516e-06  -1.0904759e-03   7.3307235e-04   4.4158543e-05   6.7710551e-04   3.9915752e-04  -1.3990182e-04   2.0129648e-05   6.3618290e-04  -1.6751738e-04   2.0278167e-04  -8.0154801e-04  -3.0358939e-04  -8.8405184e-04   2.9045572e-05  -1.3816176e-04   6.0859311e-04  -1.5935999e-03  -1.4584467e-03  -1.3882347e-03  -1.5406788e-03
   1.1395710e-03   4.4884233e-04   4.8763267e-04   5.7864137e-04  -2.8105921e-04   1.2620595e-04   5.3138723e-05   3.4530956e-04   1.1545309e-03  -3.4012246e-05  -5.8568513e-04  -4.8847590e-04   6.3071740e-05   3.2022488e-04   2.8580881e-04   4.9538456e-04   4.9477571e-04   3.5474898e-04  -3.5140982e-03  -1.9862416e-04  -3.8495671e-04  -6.3016347e-04  -3.8394361e-04  -5.8010750e-04   1.0429711e-04  -5.1184691e-04  -1.0933258e-05   1.1175161e-05   9.9883822e-05  -5.4531399e-04   5.2666961e-04   6.7082612e-04  -4.7296584e-05  -5.6245830e-05   1.8464934e-05  -4.3957084e-04  -1.3698298e-04   2.2556024e-04  -4.6712608e-04   2.3441587e-04  -1.5273130e-03  -5.9840910e-04  -1.3448314e-03   3.3239590e-04  -5.0263264e-04  -1.0261025e-03  -1.9200573e-03  -1.8384611e-03  -1.8035654e-03  -1.8910958e-03
  -2.0402487e-04   1.9651244e-04   3.6079746e-05   8.3445575e-06   4.7144303e-04  -1.4028185e-04  -1.6556948e-04   9.9146258e-05   7.9078093e-04  -2.5912287e-04  -9.8263391e-04  -6.5436837e-04  -1.7371499e-04   5.8996684e-05  -5.8157304e-05   1.7654373e-04   1.0635903e-04   2.2511433e-04   1.5320024e-03  -4.6185622e-05  -2.7481522e-04  -3.6258277e-04   7.0158691e-05  -3.5358852e-04   4.5184913e-04  -6.1019766e-04  -1.9120710e-04   3.5797048e-04   1.8384175e-04  -3.7193843e-04   5.6380185e-04   1.4750835e-03  -1.5551542e-04   4.1911344e-04   2.1190383e-03   2.5181276e-05   6.6294608e-04   3.8480968e-04  -1.9229465e-04   1.1941523e-03  -3.3095558e-04  -2.8861655e-04  -1.0198720e-03   5.4451398e-04  -8.9605302e-05  -8.0656324e-04  -1.5546294e-03  -1.5168141e-03  -1.2860609e-03  -1.2941898e-03
   1.1580759e-03   9.0890221e-04   7.5434148e-04   1.0855226e-03   5.4942170e-04   1.0152133e-03   3.4720352e-04   6.2551547e-04  -3.8090346e-03   2.2206067e-04  -3.2264242e-04  -3.6701583e-04   3.6189193e-04   6.0987443e-04   3.8382396e-04   6.8124966e-04   7.0813647e-04   6.1229005e-04   3.7888056e-03   4.2913217e-04  -7.0840222e-05  -9.3029616e-05   6.9955469e-04  -2.4809610e-04  -1.7489227e-04  -2.0918569e-04   3.2044534e-04   1.7796204e-04   4.7293305e-04  -7.8691395e-05   6.5064803e-04   1.1641083e-03   3.4735014e-04   6.7328021e-04   9.4204961e-04  -8.5654057e-04  -4.7023906e-04   7.1400346e-04  -1.1814194e-04   7.4587844e-04  -7.2957069e-04  -3.3895895e-04  -1.0077958e-03   5.6747580e-04  -1.4621347e-05  -6.8822375e-04  -1.6229798e-03  -1.5153522e-03  -1.3524935e-03  -1.2121178e-03
   9.8491809e-04   6.9245620e-04   6.6452991e-04   6.8934745e-04   6.1895017e-04   4.2680572e-04   2.8781718e-04   4.0269719e-04   2.8762200e-03  -1.3965483e-04  -4.7587603e-04  -5.5442000e-04   1.6829408e-04   3.3540826e-04   5.4746447e-04   5.6809658e-04   4.8386253e-04   5.6973705e-04   2.1786999e-04   3.3722325e-05  -2.8890415e-04  -4.2836540e-04  -3.9763032e-05  -7.0123666e-04  -2.7717353e-04  -4.2458525e-04  -1.2448757e-04   1.6485818e-04  -3.8035645e-04  -4.6381287e-04   1.0249707e-03   6.0206017e-04   3.2797971e-04   3.6529821e-04  -1.1655928e-03  -1.6807561e-04  -2.6467803e-04  -1.9930389e-04  -4.4155979e-04  -7.1024522e-05  -1.7369831e-03  -6.3710194e-04  -1.3332731e-03  -4.9058377e-04  -3.0650216e-04  -1.1896811e-03  -1.9426298e-03  -1.8266571e-03  -1.7423630e-03  -1.4649215e-03
   5.2518846e-04   9.8948505e-05  -5.6058267e-05   1.5503021e-05  -8.3949715e-05  -2.5482048e-04   4.4833443e-05   6.1807317e-05   2.0570518e-03  -5.9679960e-04  -8.8448724e-04  -8.4036426e-04  -2.4179797e-06  -7.0746821e-05   2.6620106e-05   9.5929419e-05   9.3864772e-05  -3.6933761e-06  -1.9653551e-03  -5.9498992e-04  -6.5314735e-04  -9.8319550e-04  -8.6722802e-04  -9.6275681e-04  -3.0136658e-04  -9.6560590e-04  -1.2079941e-04   1.0466294e-05   2.9745732e-05  -6.5788819e-04  -5.0906237e-04   5.3648924e-04  -1.6300964e-04  -9.1492046e-05  -7.4426585e-04  -6.6972699e-04  -2.6696906e-04  -3.3872391e-04  -8.7315717e-04  -8.3032674e-06  -2.0129834e-03  -9.2364429e-04  -1.5605058e-03  -2.9357054e-04  -4.9688661e-04  -1.0252769e-04  -1.9850868e-03  -1.8842816e-03  -1.6878650e-03  -1.3301221e-03
   4.2017843e-04   2.0565469e-04   2.1536657e-04   4.0807526e-04   2.9607528e-04   7.2897720e-04   3.1751316e-04   2.9725956e-05  -3.1311947e-03  -2.4222497e-04  -5.8439304e-04  -7.1999268e-04   2.0057294e-05   2.1456149e-04   2.4608645e-04   5.0623721e-04   4.0509063e-04   4.0074025e-04   1.0476970e-03   2.8012425e-04  -1.5048534e-04  -3.0699547e-04  -2.0574183e-04  -8.1355014e-04   1.1272629e-03  -3.7307973e-04   1.1732308e-04   4.3119918e-04   4.4859259e-04  -2.9774450e-04   3.7443099e-04  -2.9125795e-04   5.3730438e-04   4.1751983e-04  -7.0531685e-05  -1.2351405e-03  -2.6236108e-04   3.5087729e-04  -3.7311838e-04   5.4121966e-04  -1.2024140e-03  -5.8079505e-04  -1.1259902e-03   3.1017471e-04  -2.8446194e-04  -2.9068463e-04  -1.3878634e-03  -1.7181267e-03  -1.4134801e-03  -1.2300297e-03
   7.0667255e-04   1.9848386e-04   4.7525312e-04   3.5846853e-04   3.0777030e-04   3.1559990e-04   8.3567866e-05   4.6773389e-04  -2.8713062e-04  -4.4661446e-04  -6.6639466e-04  -8.0956065e-04   8.1490020e-05   2.0590569e-04   3.2874139e-04   3.3959371e-04   3.3720775e-04   4.8066943e-04   5.8425410e-04  -7.9180216e-05  -2.8716450e-04  -4.7928427e-04   1.2440589e-04  -1.0248240e-03  -2.1603203e-04  -5.8116583e-04  -8.8503482e-05   1.1974549e-04  -3.5133879e-04  -3.8904039e-04   6.2623562e-04   3.4556797e-04   4.0367254e-04   4.8214724e-04   3.5393678e-04  -3.5650289e-04   9.7473589e-05   3.8705555e-05  -3.7590152e-04  -6.7800058e-05  -1.1773717e-03  -5.9661036e-04  -1.3874504e-03  -5.2044651e-04  -3.3368697e-04  -4.4791479e-04  -1.3969284e-03  -1.8797277e-03  -1.6281117e-03  -1.3611581e-03
   3.0794702e-04   1.1953312e-05  -2.1638109e-04  -1.7416225e-05   6.6274649e-04   1.3655119e-04   1.9011939e-04   5.9051774e-05   5.8981015e-05  -8.1923505e-04  -9.9971110e-04  -1.0706111e-03  -2.0938316e-04  -3.3688757e-05   4.2137242e-05   3.8567847e-05   3.0370809e-05   6.5787722e-06   1.6186243e-03  -5.1904150e-04  -6.3690997e-04  -9.8678633e-04  -5.4842583e-04  -1.3563198e-03  -1.1627079e-03  -1.2052255e-03  -2.7792490e-04   3.2764747e-05  -5.2341155e-04  -5.6122668e-04   8.9261244e-04   2.7642588e-07  -3.5826472e-04   2.5264791e-04  -1.5984896e-03  -6.1911973e-04  -2.6143278e-04  -1.1017157e-04  -7.5966230e-04  -3.4949978e-04  -1.5694309e-03  -8.8100991e-04  -1.5332955e-03  -1.7995566e-04  -6.6290156e-04  -1.4026454e-03  -1.4410680e-03  -1.9494598e-03  -1.4268770e-03  -1.3605399e-03
  -4.7821424e-05  -2.9611178e-05   3.0432077e-04   2.3274870e-04   1.6337079e-05   3.7356711e-04  -1.1784933e-04  -1.3920804e-04   2.9791326e-03  -4.2353701e-04  -5.8825267e-04  -9.5239369e-04  -1.1763447e-04   2.1715702e-04   4.2184375e-04   4.6318417e-04   4.8907218e-04   3.0481283e-04   2.6751587e-03   1.3215214e-04  -1.6494673e-04  -3.5557404e-04   9.4693292e-05  -9.0520037e-04  -1.9353782e-04  -5.6741113e-04   3.1804634e-04   2.9807698e-04   8.5213273e-05  -1.2623641e-04   1.0445435e-03   9.9436659e-04   1.7756823e-04   5.8491505e-04   1.2598399e-04  -5.7246034e-06  -2.0358264e-06   5.2966544e-04  -2.5410907e-04   1.4266530e-03  -7.7378587e-04  -4.6641121e-04  -1.0167017e-03  -5.8722467e-04  -1.4742473e-04  -1.7454557e-03  -1.1782844e-03  -1.6191425e-03  -1.3639642e-03  -1.0552491e-03
   6.3893275e-04   2.3214653e-04   1.3288725e-04   5.0371292e-04   4.2311483e-04   4.5640842e-04   4.4066002e-04   2.1658505e-04  -1.0023427e-03  -4.1738962e-04  -5.1878858e-04  -9.5430086e-04   6.0542992e-05   3.8922636e-04   3.4301935e-04   4.5152439e-04   4.9883337e-04   4.4245194e-04   3.1444950e-03   1.1016895e-04  -2.6093901e-04  -4.4152606e-04   3.0923093e-05  -9.5512357e-04  -9.2988444e-04  -5.9176504e-04   5.5910165e-05   6.4250350e-04  -3.4666969e-04  -1.6757919e-04   3.2116729e-04   1.6307057e-04   4.4083703e-04   2.5724206e-04   1.0205618e-03  -4.4898473e-04  -2.1218914e-04   3.9169259e-04  -3.1644184e-04   1.2409624e-04  -1.0871983e-03  -5.5582647e-04  -1.3468917e-03   3.0411562e-04  -1.9552893e-04  -1.6102201e-04  -1.3179493e-03  -1.6706975e-03  -1.4304084e-03  -1.2805405e-03
  -4.2741201e-05  -5.0936574e-06   4.7539354e-05  -4.2806350e-05  -4.8266564e-04   1.5687851e-04   1.8870714e-04   2.4514622e-04   8.4115489e-04  -6.7061494e-04  -7.2684593e-04  -1.0498977e-03  -2.2050348e-04   8.1754779e-06   2.5699442e-04   1.5783752e-04   1.9059694e-04   2.0191635e-04  -1.4672235e-03  -4.0040285e-04  -5.6098087e-04  -8.4933150e-04  -3.0147147e-04  -1.1629866e-03  -8.3298271e-04  -9.5491420e-04  -1.8444371e-04   3.3371313e-04  -2.1777922e-04  -6.7885191e-04   1.2638539e-04   5.0030311e-04   3.5420468e-04  -2.0381811e-05   7.8797195e-04  -6.6930824e-04   2.3332158e-04  -9.6064059e-06  -6.4122555e-04  -2.0728583e-04  -1.6228327e-03  -8.5069111e-04  -1.6610264e-03  -4.9879687e-04  -5.1543768e-04  -1.6442986e-03  -1.6091662e-03  -1.9246839e-03  -1.6462592e-03  -1.5617952e-03
  -5.1874220e-05  -2.4109294e-04  -1.7783698e-04  -2.5532107e-04  -6.9103895e-05   4.6187397e-05  -6.9047854e-04   7.4891186e-06   7.7209697e-04  -5.0318555e-04  -7.8263244e-04  -1.0288017e-03  -1.9945551e-04   1.4547202e-04   1.1453476e-04   2.6663844e-04   3.9960729e-04   2.1648902e-04  -1.6131384e-03   7.6620272e-05  -2.1600284e-04  -2.6375582e-04  -3.8404887e-05  -8.2189956e-04   2.5713065e-04  -4.3227023e-04   5.9007994e-05   1.4603720e-04  -1.5028135e-04  -3.1664930e-04  -1.4052815e-03   6.4417941e-04   3.0134595e-04   3.6494172e-04  -8.0942764e-04   5.7107903e-04   2.4604643e-04   3.5917110e-04  -1.4724737e-04   5.5508240e-04  -5.3828669e-04  -3.4717083e-04  -9.1350975e-04  -1.8592720e-04   3.8816510e-05  -6.3637842e-04  -1.0331054e-03  -1.3662119e-03  -8.8153925e-04  -8.4726349e-04
   2.8051308e-04   4.5479994e-04   5.1705609e-04   6.5193686e-04   3.0945888e-04   9.0604235e-04   2.4128330e-04   5.0413777e-04  -3.9173753e-04  -2.1038983e-04  -3.6812364e-04  -8.1255112e-04   1.8737583e-04   4.9072510e-04   4.7746577e-04   6.5607391e-04   5.6060986e-04   5.9538084e-04  -1.6535291e-03   1.9244947e-04  -1.0750290e-04  -1.7380898e-04  -1.8595041e-04  -7.3668873e-04   4.5827351e-04  -3.5045008e-04   4.5896284e-04   7.5860182e-04   1.9855911e-04  -6.7452136e-05   8.4861339e-04   9.4484416e-04   4.3747056e-04   7.6597865e-04   6.9380819e-04  -6.4647305e-05  -1.6512403e-04   7.2900922e-04  -1.7341237e-04   1.4008876e-03  -9.5965370e-04  -3.8742568e-04  -9.4968668e-04   1.9159429e-03  -1.1252164e-04  -3.6286248e-04  -1.0205001e-03  -1.3936819e-03  -1.1135036e-03  -1.0913393e-03
   7.0369664e-05   1.1784294e-04   3.3345030e-04   1.8881859e-04   1.7783877e-04   1.2529563e-04   5.4618555e-05   3.7565123e-04  -3.5547570e-03  -5.8526255e-04  -5.7555054e-04  -9.7150682e-04  -1.0565678e-04   3.2345142e-04   2.8333653e-04   3.6019119e-04   3.0902316e-04   2.9217626e-04  -5.0825336e-05  -2.1427021e-04  -3.9479090e-04  -6.8768376e-04  -3.7622731e-04  -1.1593234e-03   1.5413335e-04  -8.2649186e-04  -3.7894669e-04   1.1567762e-05  -4.5075690e-04  -6.0426333e-04   3.5534776e-04   5.4177077e-04  -4.7632384e-05   4.0199727e-04  -3.4487070e-04  -2.2425188e-04  -5.9441209e-04   1.5268217e-04  -5.3164834e-04   2.3387061e-05  -1.3632332e-03  -5.7311315e-04  -1.5096727e-03  -1.1473956e-03  -3.0848267e-04   4.1448973e-05  -7.8668358e-04  -1.7252904e-03  -1.6153100e-03  -1.1428046e-03
  -1.0499098e-04  -3.7585892e-04  -3.0148617e-04  -5.0827325e-04  -4.4061805e-04  -3.1316257e-04  -5.1804399e-04  -2.3222974e-04  -1.2724623e-03  -8.0017699e-04  -9.5324405e-04  -1.0401300e-03  -2.6181492e-04  -9.0109665e-05  -4.8109414e-05  -1.0713135e-05  -6.7140674e-05  -5.9230948e-05   3.2512000e-04  -2.5270830e-04  -4.5320997e-04  -7.5513771e-04  -3.7954751e-04  -9.3540316e-04   9.3230570e-05  -8.2194811e-04  -4.0412249e-04   3.5957134e-04  -4.4101718e-04  -5.7651097e-04   6.4683903e-05  -1.0432189e-04   1.6369726e-05   5.5553153e-04   6.9058256e-04  -4.8168167e-04   9.1119939e-05   6.3644588e-04  -3.8802307e-04   3.0488762e-04  -7.5659063e-04  -2.8669153e-04  -9.0477808e-04   1.2285567e-03  -3.7636946e-05   8.0043823e-04  -5.2984967e-04  -1.3712558e-03  -7.1466994e-04  -3.8607686e-04
   4.9890153e-04   2.4384921e-04   6.1474292e-04   6.3773990e-04   4.9959368e-04   7.8686036e-04   1.6865243e-04   3.9751918e-04  -3.0349558e-03  -7.0613220e-05  -2.0540955e-04  -6.6552794e-04   1.7487034e-04   5.4594968e-04   4.1591877e-04   6.7169208e-04   8.3124690e-04   7.3424180e-04   1.6301672e-03   2.9636660e-04  -5.7577603e-05  -9.8008000e-05   3.2932023e-04  -5.5878318e-04   1.7046354e-04  -1.5005108e-04   2.4467384e-04   2.2927790e-04   1.3838454e-04   8.0867532e-05  -8.0740853e-04   5.1748665e-04   2.6519137e-04   8.9238893e-04  -6.9733162e-04   4.1178730e-04   8.3005184e-04   3.5705016e-04  -1.4715476e-04   1.0642528e-04  -7.8369549e-04  -1.9688024e-04  -7.6851872e-04  -1.4729074e-03   1.7579131e-04   3.0356247e-04  -5.0725014e-04  -1.1290148e-03  -6.8617438e-04  -4.1229613e-04
   1.2054008e-04   1.9212073e-04   2.2398696e-04   3.0109801e-04   3.7790259e-04   3.3342864e-04   2.2411640e-04   2.4886685e-04  -3.5103306e-03  -2.3366608e-04  -3.5939112e-04  -6.5072562e-04   3.2911458e-04   5.3954340e-04   4.6801238e-04   5.2603194e-04   6.4033474e-04   5.6734373e-04   1.4454940e-03   6.6773893e-05  -1.3146167e-04  -2.4616395e-04  -2.4055180e-04  -6.5812492e-04   1.0545768e-03  -3.7729094e-04  -9.3717659e-05  -1.0497591e-04   6.0601462e-05  -1.8383024e-04  -7.7267794e-04   1.0788309e-03   2.2214142e-04   5.3975102e-04   1.3979377e-03  -1.0191803e-03   4.4295980e-04   1.5058659e-04  -3.5213874e-04   3.2887669e-04  -5.1103404e-04  -3.6590712e-04  -1.0530342e-03   2.2800450e-04  -8.2813167e-05   5.4292621e-05  -7.1276032e-04  -1.3833730e-03  -1.0812967e-03  -7.1602827e-04
  -1.8655512e-05  -1.2789406e-04   3.0054449e-05   1.6771667e-04  -1.4004382e-04   1.3728073e-04  -3.0438663e-04   1.3356513e-04  -2.7292522e-04  -5.8236829e-04  -6.3504168e-04  -7.9864752e-04  -2.1299755e-05   2.8992700e-04   2.2752921e-04   3.4892204e-04   2.5543923e-04   3.2327641e-04  -1.0865033e-03  -3.0945792e-04  -3.8097761e-04  -6.3908962e-04  -3.3247512e-04  -1.0440181e-03   8.1450329e-04  -8.5602532e-04  -3.0305455e-04   1.8296734e-04  -7.0640061e-05  -5.0726772e-04  -3.7362428e-05   4.3815016e-04  -5.2554451e-04   3.6088000e-05   9.9290069e-04  -1.0046829e-03  -2.4144549e-04   1.1491980e-04  -5.2101759e-04  -1.7677151e-04  -1.1245043e-03  -4.1159702e-04  -1.1800001e-03  -9.0394035e-04   2.5926096e-05  -1.0750451e-03  -5.5773120e-04  -1.1703564e-03  -8.9098827e-04  -5.0062791e-04
  -1.2734716e-04   2.2933836e-04   3.6244190e-04   5.5549055e-04   3.3961228e-04   9.3913410e-04   2.2547864e-04   4.9939379e-04  -7.0064107e-04  -4.4364031e-05  -3.2729827e-04  -5.4390036e-04   2.8129466e-04   6.0847850e-04   3.5092855e-04   7.5211172e-04   8.7282108e-04   6.8388641e-04  -1.2328182e-03   5.2260404e-04   1.8344182e-04   1.4144411e-04  -2.7017555e-05  -3.7522454e-04   1.0456931e-04  -1.6364413e-04   2.5902782e-04   6.5832923e-04  -4.3289467e-05   1.2280753e-04  -1.0378326e-04   7.8643160e-04   2.4128782e-04   5.0244562e-04   1.0512297e-03   1.3687280e-03   4.5666093e-04   7.9090765e-04   2.3614377e-05   1.0667336e-03  -1.0331438e-03  -1.1946077e-04  -7.2789355e-04   7.9650512e-05   2.7854959e-04   3.1040440e-04  -2.8269496e-04  -1.0007403e-03  -5.6192151e-04  -4.2243235e-04
   6.8822067e-04   3.6946466e-04   4.1431771e-04   6.5633847e-04  -9.3293995e-05   4.3784181e-04   2.4917570e-04   3.8359026e-04   7.2256167e-05  -4.6937683e-05  -1.7681920e-04  -5.0021044e-04   3.1525854e-04   7.3422166e-04   5.4609095e-04   6.9066149e-04   8.3272927e-04   5.5132993e-04  -2.2888288e-04   3.3947165e-04   8.7979337e-05  -1.4642418e-05  -1.1688655e-04  -4.6238911e-04   1.0318477e-04  -2.3985896e-04  -7.2880603e-06   7.9020864e-04   1.0669747e-04  -1.1397252e-04   8.9659478e-04   9.7462337e-04   2.2254843e-04   6.7695539e-04   5.5043434e-04   1.8454515e-04   3.7716460e-04   4.1036672e-04  -1.5638335e-04   1.1506872e-03  -7.0834061e-04  -2.0007756e-04  -1.0413913e-03   4.4347311e-04   2.1160142e-04   2.9334798e-04  -3.8255326e-04  -1.0264731e-03  -6.9252378e-04  -6.0107920e-04
  -2.9252733e-05   1.1217181e-04  -4.6740301e-05   1.0401498e-04   4.8470596e-04   3.3046686e-04   3.9372983e-04   1.6857538e-04   2.7656986e-04  -3.9932330e-04  -5.6075194e-04  -6.2967301e-04   1.5009403e-04   4.2783786e-04   3.7849555e-04   4.0158947e-04   5.1406008e-04   4.5437587e-04   1.9632641e-03  -1.3929667e-04  -2.3585607e-04  -4.5377700e-04  -2.2124598e-04  -7.9747144e-04   3.6425152e-04  -5.5433955e-04  -5.9878838e-04   2.9620645e-04  -1.1417499e-04  -4.6251345e-04  -2.4574860e-05   1.4813572e-04  -1.2204140e-04   7.8142075e-05   8.2055340e-04  -1.2687531e-03   5.9346785e-04  -1.4731954e-04  -4.4204062e-04  -2.1678252e-05  -1.1028087e-03  -5.0927041e-04  -1.4403498e-03  -7.8513101e-04  -1.7384450e-04  -8.5157121e-04  -7.0826395e-04  -1.3925319e-03  -1.3142335e-03  -9.6268026e-04
   3.9278294e-04  -2.4114567e-04  -3.6294290e-04  -3.3041343e-04  -6.5841881e-04   3.5763096e-05  -1.7576468e-04  -9.8005949e-05   7.7007287e-05  -2.7573804e-04  -6.0133636e-04  -6.5190211e-04   1.4328907e-04   3.8510186e-04   4.3833154e-04   3.4992892e-04   5.0224911e-04   3.9537789e-04  -2.1037357e-03   2.5362606e-04   8.9461500e-05   3.1051186e-05  -1.0034948e-04  -5.4844801e-04   5.2480912e-04  -2.9059147e-04   1.4733999e-04   5.2468141e-04   1.5798068e-04  -1.3592967e-04  -4.7099512e-04   1.1296062e-03   2.6832387e-04   8.3039876e-04   1.2702971e-04   1.9920865e-04   6.9877604e-04   2.6783883e-04  -1.5547153e-05   2.9344999e-04  -5.3251669e-04  -9.4328920e-05  -7.4144517e-04   1.7595952e-03   3.1347931e-04   2.7395666e-04  -2.4188707e-04  -9.3394460e-04  -5.8296655e-04  -3.7600691e-04
   9.6500968e-04   2.6932359e-04   4.0569800e-04   4.3329404e-04   5.5065771e-05   1.0176456e-03   3.5184954e-04  -1.5045669e-04   3.8332561e-05  -9.2924223e-05  -2.6773912e-04  -4.7424753e-04   4.2100134e-04   5.7342736e-04   6.0695974e-04   6.5509003e-04   7.9241925e-04   4.2531191e-04  -1.0467152e-03   3.7773754e-04   1.5241500e-04   6.9236456e-05   2.3802553e-05  -6.1609625e-04   2.7640405e-04  -2.9160606e-04  -1.0320138e-04   5.3373497e-04   3.0726194e-04  -2.3444474e-05  -3.4760046e-04   9.5664838e-04   4.0378288e-04   4.4437789e-04   8.2179433e-04   5.0746108e-04   4.8486778e-05  -2.4386374e-05  -1.8029140e-04  -4.7724892e-04  -7.3154538e-04  -1.0890058e-04  -8.9450867e-04   4.6888157e-04   1.4964984e-04  -5.5968958e-05  -3.0713872e-04  -9.6585043e-04  -6.8800873e-04  -4.6309983e-04
   8.7606604e-06   1.1757453e-04   2.1055498e-04   2.9532242e-04   2.8286097e-04   1.8569760e-04  -6.6068897e-05   3.4630985e-04  -1.8285092e-03  -3.4087073e-04  -3.9735899e-04  -5.6322786e-04   9.2477945e-05   4.9813912e-04   5.1601866e-04   4.3700400e-04   4.5030343e-04   3.0421634e-04   1.7436672e-03  -7.2725238e-06  -7.4966803e-05  -2.6984484e-04  -6.9664515e-05  -7.9528918e-04   7.3616329e-04  -6.4718880e-04   6.4885746e-05   4.0914133e-04   5.1375177e-05  -3.0243088e-04  -6.9002470e-04   7.4023940e-04   2.5888256e-04   2.1681945e-04   8.2116382e-04  -1.2218426e-03  -2.9496814e-04   6.8771379e-04  -4.3744963e-04   2.6065068e-04  -7.5242692e-04  -4.2864346e-04  -1.2417103e-03   1.2156509e-03  -1.2300911e-04   5.2994344e-04  -5.5097509e-04  -1.1895926e-03  -1.0149089e-03  -8.4519782e-04
  -1.7793696e-04  -2.0428620e-04  -7.3389063e-05  -2.8540692e-04  -1.1948619e-04  -3.3980861e-04  -2.8952217e-04  -2.8013150e-04   1.8878215e-03  -6.3791033e-04  -8.4308663e-04  -7.4229616e-04  -5.6681209e-05   1.3593810e-04   2.5477941e-04   1.0369020e-04   9.9155754e-05   4.2772477e-05  -1.7817476e-04  -1.4750905e-04  -1.0982549e-04  -3.2554564e-04  -3.7274306e-04  -7.0014549e-04   1.0800240e-04  -7.9011352e-04  -8.1461942e-05   6.4578565e-04  -6.1818666e-04  -3.8195765e-04   8.3940203e-04   1.9178429e-04   3.9048254e-04   3.5666057e-04   3.8912572e-04  -6.5389881e-04  -1.8608154e-04   2.5548408e-04  -3.0485628e-04   3.3155899e-04  -8.3403266e-04  -1.8675826e-04  -7.5118063e-04   1.3185268e-03   9.1332971e-05   1.2781330e-04  -2.4953272e-04  -9.2230889e-04  -5.3678360e-04  -4.3077863e-04
   1.6974620e-04   2.4217517e-04   3.5944468e-04   4.9200887e-04   3.3602110e-04   1.1824809e-03   2.6072480e-04   4.6160055e-04   2.9820811e-03  -1.7220323e-04  -2.4330996e-04  -4.7587417e-04   2.0894190e-04   6.2219275e-04   5.6909007e-04   5.3340214e-04   5.2938890e-04   5.8799610e-04   3.3472378e-03   1.8650829e-04   9.7445532e-05   4.2194839e-05  -2.5218731e-04  -5.9594220e-04  -6.1680464e-04  -4.2921127e-04  -1.4749407e-04  -8.6049185e-05   1.4429081e-04  -4.9273447e-05   5.7588023e-04   1.0677682e-03   4.8123940e-04   5.4899708e-04   2.8181658e-04  -5.1517546e-04   8.9260825e-04   2.3283526e-04  -2.5057761e-04   4.3932570e-05  -3.9286903e-04  -1.4709619e-04  -7.1162375e-04  -3.1541055e-04   1.0230252e-04   2.9237775e-04  -1.7833516e-04  -9.0662477e-04  -6.7442376e-04  -4.6481259e-04
   1.6160448e-04   1.0188113e-04   3.0210504e-05   2.6793210e-04   7.7554956e-05   3.7455049e-04   2.5683117e-05   2.8758071e-04  -1.6674139e-03  -1.5578646e-04  -3.1780530e-04  -4.7902041e-04   2.4105530e-04   4.2998331e-04   2.9360733e-04   4.2093123e-04   3.8351896e-04   3.0375781e-04  -5.9034891e-04  -9.3831899e-05  -1.5028693e-04  -3.6394442e-04  -7.8700781e-05  -6.5715500e-04   3.4048888e-04  -3.1739572e-04  -1.2420634e-05   3.9513817e-04   1.1376136e-06  -2.1152011e-04   4.4392800e-04   4.5321262e-04  -1.6888835e-04   9.3164454e-05   2.2562419e-04  -9.1385545e-04   2.0788902e-04   1.6969837e-04  -3.4895464e-04  -2.6111427e-04  -6.2762958e-04  -2.3434722e-04  -9.6888095e-04  -1.4168736e-04  -9.2466966e-05  -5.8489828e-04  -3.6572249e-04  -1.0399666e-03  -9.5258956e-04  -7.5462827e-04
  -2.1588002e-04  -2.1842799e-04  -1.2529847e-04  -3.6098808e-04  -1.4012370e-04  -1.5098110e-04  -5.2094820e-05  -2.0655034e-05   6.3578709e-04  -6.0059811e-04  -7.5343344e-04  -7.0392172e-04  -2.0532661e-04   1.1043295e-04  -5.5960631e-06   1.2822809e-04   1.5865191e-04  -6.8114707e-05  -2.0856203e-03  -4.2555109e-04  -3.2154101e-04  -6.6582696e-04  -4.2919518e-04  -9.8981534e-04   7.0953196e-05  -8.1860082e-04  -7.2626746e-04   4.3364333e-05   1.2079917e-04  -6.2389788e-04   6.5774412e-04   4.5125798e-04  -2.6706144e-05   2.0512581e-04   1.3092345e-03  -7.5241452e-04  -8.6211425e-05   8.9388581e-05  -3.6635200e-04   5.6239334e-04  -8.0854172e-04  -8.4063482e-05  -7.9152500e-04   1.4096284e-03  -3.2096490e-05   5.1170147e-05  -7.3504518e-05  -7.8722870e-04  -7.2989694e-04  -3.7992216e-04
   3.8121030e-04   2.0618594e-04   2.5201190e-04   2.7016725e-04   6.1765040e-04   4.2676867e-04   8.4689161e-04  -1.3209703e-04  -3.6125947e-03   6.1622618e-06  -1.6165484e-04  -4.3404524e-04   2.6863726e-04   6.1504624e-04   6.7369331e-04   5.0679327e-04   6.1870442e-04   5.0060177e-04   5.0187963e-03   3.6989219e-04   5.7735153e-05   8.9020839e-05  -3.2360465e-05  -4.6790030e-04   9.9584740e-04  -2.6544274e-04   1.6871908e-04   9.6295560e-05   4.8304035e-05  -1.9822535e-04   1.1212787e-03   5.7747425e-04   2.1105648e-04   3.2190559e-04   2.3456455e-04   8.1877643e-04   3.0404961e-04  -7.2750445e-05  -1.4125541e-04  -4.6718886e-04  -3.4857157e-04  -1.4218748e-05  -7.7682908e-04  -3.9747453e-04   1.0053560e-04   2.8076771e-04   1.2834852e-05  -7.3126954e-04  -5.2938284e-04  -2.4538866e-04
   3.9161995e-04   2.8022638e-04   1.8664841e-05   2.5366250e-04   1.1090592e-04   5.0756225e-04   5.0315366e-04   2.7048020e-04  -2.3335963e-03  -1.8153575e-04  -3.4842695e-04  -4.8471740e-04   1.1938573e-04   4.2685054e-04   5.0187518e-04   4.8909517e-04   3.5401466e-04   4.2630837e-04  -1.2648181e-03   1.2734497e-05  -3.0692049e-06  -1.6615426e-04  -1.2465884e-04  -7.1705703e-04   3.2109156e-04  -4.1976533e-04  -1.8378807e-04   2.5508841e-04  -5.2233081e-04  -1.2787148e-04  -6.3681306e-04   4.2499695e-04   4.4697482e-04   3.4724819e-04   2.4130270e-06  -4.7083368e-04  -6.4382875e-05  -1.2905280e-04  -3.3808930e-04  -4.8225195e-04  -9.4698754e-04  -2.0107521e-04  -1.1553748e-03   1.3829061e-03  -1.2038153e-04  -3.4082908e-04  -2.4314717e-04  -1.0077835e-03  -9.3003630e-04  -6.1112980e-04
  -2.8452091e-04  -3.0793995e-05  -4.9199683e-05  -3.7861511e-04  -4.0740983e-04   9.3045099e-05  -9.1160211e-05   1.9649307e-04  -4.2244447e-03  -5.0542917e-04  -6.0077029e-04  -6.3148508e-04  -1.5963326e-06   1.5442928e-04  -1.6905316e-04   8.7540175e-05   1.1721379e-04  -4.0994873e-05   4.7440983e-05  -5.0717260e-04  -3.6340073e-04  -6.0907454e-04  -2.6751461e-04  -8.4624643e-04  -2.3411821e-04  -7.3212956e-04  -8.8444569e-05   5.2946794e-04  -5.2432169e-04  -5.2693480e-04   8.0329504e-05  -6.2414753e-04   1.0087084e-04   1.5910189e-05   1.9288433e-04  -1.4636066e-03  -8.2324099e-05   3.7878056e-04  -2.9829456e-04   1.1846389e-04  -7.1643811e-04  -1.0426035e-04  -7.1673369e-04   2.4723602e-03  -1.0269834e-04   2.9484250e-04  -4.8372134e-05  -7.6500699e-04  -6.4647867e-04  -3.6858584e-04
   2.3080314e-04   3.1390318e-04   2.9952181e-04   3.1212863e-04   5.2630104e-04   4.2153205e-04   1.1294230e-04   4.5985877e-04  -2.5806162e-03  -3.6625621e-05  -2.8672392e-04  -4.1430737e-04   1.6077458e-04   5.1725673e-04   1.4882795e-04   4.9411459e-04   4.8444836e-04   2.8779806e-04  -1.6191752e-03   2.3967946e-04   6.1048646e-05  -2.0524414e-05  -2.7163155e-04  -4.3714483e-04   6.6658144e-04  -4.8500803e-04  -4.1626298e-04   6.7631848e-04   6.0979724e-05  -2.9476834e-04   1.9715918e-04  -2.5659261e-04   6.3398847e-04   4.6511315e-04  -5.3682487e-04  -2.3650231e-04  -6.7035551e-05   2.2830105e-04  -1.8169572e-04  -3.2234591e-04  -1.0557096e-03  -1.7087715e-04  -9.3327672e-04   6.4438151e-04  -8.8676396e-05  -1.7204805e-04  -8.0036407e-05  -7.6048082e-04  -6.8127492e-04  -3.6643440e-04
  -3.1045903e-04   2.4118458e-04   3.2719294e-05   1.3115845e-04  -1.9299638e-04   9.5762531e-05  -4.5777604e-05   1.9952218e-04   5.0918793e-04  -3.7135798e-04  -4.1335105e-04  -5.0165947e-04  -4.9339014e-05   2.8468051e-04   1.4416481e-04   1.9663514e-04   2.6044459e-04   1.4400887e-04   8.8213669e-04  -1.6741657e-04  -7.3360308e-05  -1.4820721e-04  -4.5839857e-04  -8.1676303e-04   3.3311019e-04  -6.3298084e-04  -5.7810073e-04   6.2052050e-04  -3.5762409e-04  -4.3462988e-04  -6.3185120e-04   9.1484172e-04   8.2701976e-05   1.2330124e-04  -3.1716586e-04  -8.3411013e-04   3.8487755e-04  -1.7716420e-04  -3.9160872e-04  -1.4876871e-04  -1.2747291e-03  -4.0646680e-04  -1.2361249e-03   1.4515066e-03  -1.3732199e-04   2.7159942e-04  -3.4382491e-04  -1.0633599e-03  -7.9896324e-04  -6.7475130e-04
   2.1084675e-04  -1.9180798e-04  -5.5123988e-04  -5.1798241e-04  -4.8975990e-04  -2.3630371e-04  -5.5252745e-05  -2.5005615e-04   1.5932455e-03  -7.3649501e-04  -7.9635420e-04  -7.0334505e-04  -2.6665759e-04  -7.2505459e-06  -6.5515007e-05  -1.4445731e-04  -1.6185855e-04  -2.3039314e-05  -4.5088300e-04  -4.0657213e-04  -1.4166626e-04  -3.0660510e-04  -9.8847246e-05  -8.6327118e-04   3.7085556e-04  -7.6217047e-04  -2.0183688e-04   3.0161042e-04  -5.7075289e-04  -4.8564328e-04   1.8575895e-04   9.2372147e-04   4.4752561e-04  -9.8279081e-05   7.8045024e-04  -2.5325015e-04   7.8686935e-05   5.8594759e-04  -3.9823435e-04   8.9082765e-05  -7.3470746e-04  -2.5392813e-04  -8.8982540e-04   9.8864001e-04   1.6332528e-05   7.1480544e-04  -1.0827346e-04  -8.6366880e-04  -4.6748397e-04  -2.8804888e-04
  -5.4578450e-05   1.5917960e-04  -1.4888195e-04  -1.0188489e-05   4.5103152e-04   3.1440149e-04   2.3982950e-04   3.6201553e-05  -2.3840521e-03  -3.1172021e-04  -3.4033877e-04  -5.0303328e-04   8.0327460e-05   3.4753871e-04   3.3624595e-04   2.0309849e-04   3.3789821e-04   1.9954024e-04  -2.7466293e-03  -4.9588041e-05   3.2452412e-05  -6.0497823e-05  -6.7508503e-05  -6.3142792e-04   4.4373184e-04  -5.1993463e-04   2.4473740e-04   2.5586359e-04   1.6429789e-04  -3.0467540e-04   8.0974313e-04   2.9430838e-04   1.0563858e-04   2.7003777e-04  -4.3697670e-04  -4.9932237e-04  -6.2658743e-05   7.8622819e-05  -3.0878620e-04   3.2388468e-04  -9.9840609e-04  -2.6916081e-04  -1.0285081e-03   6.3138147e-04  -6.1505147e-05   1.6426783e-04  -1.4993449e-04  -8.7799836e-04  -5.9667748e-04  -4.2177978e-04
  -1.4781090e-04   3.2988497e-05  -1.8808102e-04  -8.4228675e-05  -5.9374950e-05   3.8966953e-04  -1.8898724e-04   6.3609550e-05  -1.8665249e-03  -4.7278189e-04  -5.7572697e-04  -5.7787419e-04  -1.3283663e-04   1.3229443e-04   3.5759444e-05   1.2676278e-04   1.9521487e-04   2.7677585e-05  -1.7036083e-03  -2.5031850e-04  -1.6644843e-04  -2.7951025e-04  -1.9239598e-04  -7.4885838e-04   5.6557049e-04  -7.5677963e-04  -4.9405958e-04   2.8126486e-04   3.1026296e-04  -5.2343018e-04  -5.1930349e-04   3.5948714e-04  -6.1061815e-05  -1.9422498e-04  -3.7999006e-04  -1.4042393e-03  -8.1897510e-05   4.6402543e-05  -6.1372935e-04  -6.2515918e-04  -1.1214965e-03  -5.6812412e-04  -1.3837601e-03  -8.6465763e-04  -3.2779842e-04   1.0415596e-03  -4.0497427e-04  -1.1984624e-03  -9.7955519e-04  -8.1952254e-04
  -2.4139149e-04  -1.4544284e-04  -6.3070451e-04  -2.5458451e-04  -5.9138431e-04  -1.3829197e-04  -4.1642244e-04  -3.3166911e-04  -3.1963857e-03  -2.5260577e-04  -4.4294278e-04  -5.4243515e-04   3.4971603e-05   2.2850886e-04   4.3118486e-04   2.1215316e-04   2.3507448e-04   1.0935190e-04  -5.2225019e-04   3.3507462e-05   1.5816200e-04   1.1789102e-04   3.0678150e-04  -4.6767012e-04   5.5449957e-04  -4.3467266e-04  -8.9838504e-05   2.2739462e-04   3.8035651e-05  -1.9283514e-04  -2.4735005e-04   1.3101132e-06   1.1417211e-04  -1.0974299e-04  -9.8288013e-04  -9.9600735e-04  -3.6827283e-04   3.0202183e-04  -1.5770536e-04   1.1502687e-03  -8.4757491e-04  -1.5948567e-04  -9.3501981e-04  -7.8858291e-05  -7.6632250e-06  -1.2259082e-04  -3.4617267e-05  -7.0216728e-04  -4.1049323e-04  -3.8048587e-04
  -1.3839077e-05   2.3578368e-04  -9.8174656e-05   8.7156128e-05   2.4364483e-05  -2.3848550e-04   2.6046418e-04   1.4401616e-04   4.4253357e-03  -2.1728899e-04  -2.8768732e-04  -4.1293126e-04   1.1103960e-04   3.3298702e-04   4.9197994e-04   2.3805359e-04   3.1871023e-04   3.5754853e-04  -5.1397958e-04   6.2417639e-05   1.0376823e-04   5.4643100e-05  -1.1889721e-05  -6.2783808e-04   1.7874991e-04  -5.4111675e-04  -2.1222935e-04   3.3905570e-04   3.9891113e-04  -2.4282245e-04   1.0655683e-03   1.7182964e-04   2.0214473e-04   2.3122286e-04   4.6670125e-04  -9.7808591e-04  -5.7839334e-05   3.8997599e-04  -3.4205738e-04  -1.9096700e-04  -1.3088655e-03  -3.3324049e-04  -1.1355107e-03   1.7260739e-03   7.0921800e-05  -8.5541888e-06  -1.2270255e-04  -8.3761028e-04  -5.4286217e-04  -5.2326330e-04
   3.7716387e-04   7.9557649e-05  -2.4694132e-04  -1.0551506e-04  -2.9694667e-04   9.5545205e-05  -4.0917841e-04  -2.4933720e-04  -2.8439180e-03  -4.7406592e-04  -4.8248254e-04  -5.2504527e-04  -1.3124730e-04   8.6722132e-05   1.7407627e-04   3.5326790e-05  -3.9278526e-05   5.0608909e-05   3.2679731e-04  -3.5601962e-04  -1.5405820e-04  -3.2950897e-04  -1.2809728e-04  -7.1735744e-04  -3.9638337e-04  -7.5195573e-04  -6.0141789e-05   3.4044799e-04  -1.8664071e-04  -3.3954359e-04  -6.7095913e-05  -2.2359067e-04   1.9540744e-04   4.0390156e-04  -9.8264578e-04  -1.5054949e-03  -9.8029486e-05   1.0274112e-04  -3.1977374e-04  -3.0484397e-04  -5.7667482e-04  -1.7425447e-04  -8.3767186e-04  -9.9830795e-04   4.6978992e-05  -3.3568230e-04   1.2361789e-04  -5.2795158e-04  -3.2686029e-04   2.7301151e-06
  -6.0833525e-05   4.2886139e-04   2.4579783e-04   3.7566671e-04   1.1955344e-04   8.1766199e-04  -2.1026167e-04   1.0209434e-03   8.1706501e-04   3.8249862e-05  -8.7191096e-05  -2.7697810e-04   2.4018627e-04   4.8617835e-04   3.5348863e-04   4.9759564e-04   5.0211995e-04   4.7690832e-04   1.6673465e-04   3.7111426e-04   3.4214085e-04   3.5828465e-04   1.2607248e-04  -4.0804475e-04   5.2817521e-04  -3.6148238e-04   1.0367530e-04   7.2248175e-04  -1.8783520e-04   6.3987914e-05   3.9084273e-04   5.5012462e-04   4.4323623e-04   3.7650942e-04   2.2584308e-04  -4.4060790e-04  -3.6901564e-04   4.2859139e-04  -1.3327737e-04   2.6455667e-04  -4.6693627e-04  -1.2428693e-05  -6.4856204e-04   5.2709202e-04   3.2771012e-04   1.0620055e-03   2.4730811e-04  -4.3718758e-04  -1.9242406e-04  -1.1967203e-04
   9.5638633e-04   4.6484239e-04   2.1679417e-04   3.1943680e-04   2.7282396e-04   6.4871262e-04   6.2406511e-04  -1.1039128e-04   2.0892839e-03  -1.1901436e-04  -1.5820711e-04  -3.1837044e-04   2.9367174e-04   4.3584814e-04   6.9897569e-04   3.3141486e-04   2.7520666e-04   2.6382130e-04   1.3952118e-03   2.0337316e-04   1.7970939e-04   6.3697276e-05   8.5432031e-05  -5.0555775e-04   6.5872952e-04  -4.4238553e-04  -5.0565042e-04   7.4682361e-04   1.5427890e-04  -2.3458192e-04  -4.3503783e-04   2.4830151e-04   3.4178105e-05   5.2167739e-05  -1.2191833e-03  -1.0249743e-03  -5.3886772e-04   2.4958985e-04  -2.1900274e-04  -4.5745230e-05  -1.1566996e-03  -2.4500350e-04  -7.6226832e-04  -6.3051522e-04  -2.1134078e-05   6.0180092e-04   8.4796913e-05  -5.9949671e-04  -4.7542845e-04  -3.1552601e-04
   1.4080048e-04   1.0312843e-04  -3.1199295e-04  -1.2848174e-04   6.2802760e-04   5.4467851e-05  -2.3437865e-04   2.7682999e-04   2.8989909e-03  -2.9322239e-06  -2.3111861e-04  -3.9118252e-04   1.8088416e-04   4.5399979e-04   5.9837528e-04   3.9205872e-04   3.7019388e-04   3.6404838e-04  -1.1110322e-03   3.7367688e-04   4.0766553e-04   4.4152583e-04   4.1169630e-04  -3.0561484e-04   7.9763716e-04  -1.5645604e-04   2.3184510e-04   4.2943013e-04   3.0257614e-04  -6.3217616e-05  -8.7182177e-04   2.5745183e-05   8.6110568e-04   5.2477705e-04  -1.0808424e-05  -3.9861741e-04   4.7426610e-04   4.3631304e-04   7.8516059e-05   7.9457997e-04   4.2875361e-04   2.5211627e-04  -1.0675035e-04   1.3365449e-03   4.7343946e-04   1.7561431e-03   5.7849142e-04   6.0810737e-05   1.5467788e-04   5.2370608e-04
   3.4646672e-04   6.7580293e-04   5.7834928e-04   6.4626464e-04   7.5693271e-04   6.7620323e-04   5.7647925e-05   2.6784360e-04   5.2042515e-03   2.1192319e-04   1.7155416e-04  -1.6167802e-04   5.4120406e-04   7.0979190e-04   5.1561475e-04   6.7594595e-04   6.5953430e-04   5.9241272e-04  -3.9636579e-04   5.1114307e-04   4.9980317e-04   4.3758759e-04   1.2374902e-04  -1.8090426e-04   5.4804952e-04  -1.9506238e-04   3.4457888e-04   3.0095727e-04   5.2058516e-04   7.6425684e-05   1.6143552e-03   1.0953000e-03   7.1137620e-04   6.3779153e-04   2.8630017e-04  -2.4550728e-04   1.0944992e-04   5.3341530e-04   2.2316148e-05  -1.9597843e-04   2.8587359e-05   1.6686317e-04  -2.5985570e-04   1.4842148e-03   3.9581113e-04   1.0107139e-03   5.3782162e-04   3.6280540e-05   1.1443508e-04   5.4667500e-04
   4.5755043e-04   4.8018867e-04   2.9159218e-04   3.1585147e-04   5.2478741e-04   5.5625901e-04   5.1900250e-04   1.5208675e-04  -1.1350319e-03  -9.3370609e-06   1.0007273e-04  -2.5821026e-04   3.5588592e-04   6.5944850e-04   3.8230052e-04   5.5170403e-04   4.5635001e-04   5.1997678e-04  -4.8064641e-04   2.3471158e-04   2.6716554e-04   1.7199237e-04  -1.1716092e-04  -6.2922155e-04   9.9705195e-04  -4.6528809e-04  -3.7777601e-04   3.8235902e-04   3.2326175e-04  -8.8945511e-05   1.6454038e-03  -6.1796576e-04   4.4976253e-04   4.2091418e-04   1.5627496e-03  -1.1619551e-03   2.5906801e-04   1.1631724e-04  -2.5841084e-04  -5.3128260e-05  -2.1851705e-04  -4.3930839e-05  -4.8365109e-04   1.5198735e-03   2.7463012e-04   1.3461147e-04   4.5452171e-04  -3.9934683e-05   1.6030995e-04   4.8086903e-04
   3.2760919e-04   4.1788383e-04   4.3921312e-04   4.2741781e-04   3.2360243e-04   4.0735494e-04   3.3753077e-04   4.3904787e-04  -3.2468009e-04   3.5432004e-04   2.7354964e-04  -9.2608825e-05   5.4409337e-04   8.6230959e-04   4.9841171e-04   8.6969201e-04   8.6020055e-04   9.9421514e-04   4.7774065e-05   7.7806372e-04   6.8244355e-04   7.9563964e-04   9.1781461e-04  -7.2042269e-05   3.9074343e-04   1.0226684e-04   2.2006892e-04   4.8137183e-04   6.8699836e-04   3.0074123e-04   1.0856520e-03   1.9897555e-03   8.5057167e-04   1.1611894e-03   8.9459593e-04   8.6191366e-04   1.0485442e-03   1.1782284e-03   3.5330487e-04   1.0461960e-03   4.2051091e-04   5.5925036e-04   1.9956962e-04   9.3589399e-05   7.7242882e-04   1.2240036e-03   1.0328379e-03   5.7075446e-04   7.5071689e-04   1.2802985e-03
   1.8266028e-04   7.2923815e-04   9.9129952e-04   7.5676956e-04   3.4561180e-04   9.2203321e-04   4.3861064e-04   6.3665269e-04  -1.6043206e-04   4.0723683e-04   6.0208136e-04   3.0927076e-05   7.8640267e-04   9.5532683e-04   9.6196041e-04   1.0493597e-03   9.5108361e-04   8.4215892e-04   4.3293051e-03   7.4534462e-04   6.7234237e-04   7.1059208e-04   5.6717527e-04  -1.8048756e-04   6.9566641e-04   1.2864533e-04   1.6257289e-04   6.1714562e-04   2.4841694e-04   3.3294133e-04   1.6757647e-03   8.0662902e-04   1.0441543e-03   1.2499038e-03   2.2885497e-03   2.4587818e-04   8.2637131e-04   1.0988377e-03   9.9622550e-05   2.6046083e-04   2.9621087e-04   5.0722703e-04   1.8025422e-04   3.1964367e-03   7.4848928e-04   3.1284683e-03   1.0586265e-03   5.6815014e-04   6.4587215e-04   1.2594101e-03
   5.6762766e-04   5.1122776e-04   6.9936755e-04   4.1508224e-04   5.6667067e-04   1.0121114e-03   2.5009824e-04   7.3038990e-04   3.0148614e-04   1.7583139e-04   4.6918407e-04  -1.7824679e-05   4.7032282e-04   8.2438759e-04   8.0132013e-04   8.1619580e-04   7.3553319e-04   6.8553613e-04  -9.7776391e-04   4.1141899e-04   3.7316867e-04   3.2450946e-04   1.3180794e-04  -3.2598097e-04   6.6549354e-04  -1.7159042e-04   4.9181515e-05   7.5600395e-04   2.8340961e-04   1.9357129e-05   2.4609026e-04   4.8369411e-04   6.6884514e-04   7.6496502e-04   1.8362387e-03  -8.6724618e-04   1.6388460e-04   4.5496676e-04  -1.6552376e-04  -6.8514026e-05   5.2664953e-04   3.9014872e-04   1.3826831e-04   9.7570254e-04   4.7269158e-04   1.8908539e-03   1.1131506e-03   4.9532077e-04   4.4561570e-04   1.1275563e-03
   7.0704473e-04   5.1719812e-04   6.5595011e-04   6.1834574e-04   7.2474458e-04   9.0406172e-04   7.6217070e-04   8.4586866e-04   4.2007235e-03   4.2803213e-04   7.6889677e-04   1.3999311e-04   8.0998673e-04   1.0867475e-03   1.3618666e-03   9.8646316e-04   8.6621963e-04   1.0288683e-03   8.6674961e-04   1.0342288e-03   7.7012472e-04   9.7031757e-04   8.6035911e-04  -5.9229995e-05   6.4957596e-04   3.4851005e-04   4.7113255e-04   8.7773637e-04   9.8592846e-04   1.6960838e-04   3.8313179e-04   1.2554666e-03   1.3285369e-03   1.4607782e-03   1.7798617e-03   5.9833057e-04   3.9664927e-04   1.2666655e-03   4.0449374e-04   9.5706183e-04   9.2764723e-04   9.7220176e-04   5.6671147e-04   1.9476020e-03   9.9349185e-04   1.1049925e-03   1.6722122e-03   1.1856244e-03   9.7706495e-04   1.9288699e-03
   1.2583329e-03   8.2359684e-04   1.3588533e-03   9.7359542e-04  -1.2792461e-04   1.0664306e-03   6.8645622e-04   9.1185572e-04  -2.9073260e-03   6.4222870e-04   1.0366041e-03   2.9662382e-04   1.1313455e-03   1.3296494e-03   1.1795947e-03   1.2192279e-03   1.1844028e-03   1.0583991e-03   2.9845960e-03   1.0584671e-03   7.5973378e-04   9.0561190e-04   9.7668299e-04   1.1589746e-04   1.2834416e-03   2.3487129e-04   6.1185291e-04   8.7416836e-04   1.0646444e-03   6.0669606e-04   1.2280715e-03   4.1734966e-04   9.1439264e-04   1.4207073e-03   1.7490878e-03  -8.9908477e-05   9.2252501e-04   1.0105636e-03   2.5636217e-04   6.2009960e-04   8.2075433e-04   8.8648603e-04   5.4329907e-04   4.5965216e-04   9.5097697e-04   1.8355213e-03   1.7084973e-03   1.1986732e-03   9.3952491e-04   1.8070544e-03
   8.2090270e-04   8.1240165e-04   8.4877724e-04   8.7206863e-04   4.9991906e-04   1.0837916e-03   1.1602776e-03   7.9092768e-04   1.7613575e-03   4.7528153e-04   8.4288768e-04   2.4030535e-04   9.0893655e-04   1.0830521e-03   1.6635497e-03   1.0195501e-03   9.9544704e-04   8.6798728e-04  -8.6600432e-04   6.6970091e-04   4.6583876e-04   5.4604316e-04   2.5401425e-04  -9.5421419e-05   1.0173593e-03   2.5295830e-04   4.7274688e-04   4.7649705e-04   5.5198011e-04   4.9974751e-05   1.1126415e-04   2.6009721e-04   2.3206197e-04   9.6500048e-04  -5.2573683e-04   7.9092628e-04   1.0017531e-03   8.9466921e-04  -1.4139047e-05   1.3537672e-03   7.0389715e-04   6.8388082e-04   3.1736525e-04   1.7671589e-03   7.5252779e-04   1.2497777e-03   1.4813449e-03   1.0587577e-03   4.9113831e-04   1.4338668e-03
   6.3135644e-04   5.4254947e-04   8.2148617e-04   5.7389837e-04   3.8242925e-04   6.8913522e-04   5.4365647e-04   6.7626534e-04   1.6332513e-03   7.6389610e-04   1.0014162e-03   3.6010012e-04   9.3477889e-04   1.1575259e-03   1.1609041e-03   1.1692796e-03   1.1807953e-03   1.0231661e-03   3.1991684e-04   1.1523064e-03   7.6607772e-04   9.7464374e-04   1.0178543e-03   3.0314864e-04   1.4687666e-03   6.6920411e-04   4.7716513e-04   9.3050813e-04   3.6992095e-04   4.3309209e-04   1.0999225e-03   9.3767786e-04   1.0430496e-03   1.1459250e-03   1.4216467e-03   8.5176970e-04   1.0264798e-03   1.1161470e-03   5.8158353e-04   1.4970965e-03   1.4731268e-03   1.1533689e-03   1.1436465e-03   2.1383907e-03   1.0496345e-03   2.5832194e-03   1.9979500e-03   1.6362218e-03   1.3795360e-03   2.0500247e-03
   1.5806945e-03   1.0540440e-03   1.2855054e-03   1.2258544e-03   8.3308679e-04   1.3132481e-03   9.7849604e-04   9.9684170e-04  -1.4115397e-03   1.0228222e-03   1.3540838e-03   5.6362606e-04   1.2248183e-03   1.4600558e-03   1.2953315e-03   1.4182816e-03   1.3331531e-03   1.1620803e-03   6.5194891e-04   1.1652043e-03   7.7397923e-04   1.0396461e-03   1.0487417e-03   4.0155314e-04   9.9044479e-04   6.4469071e-04   1.0652118e-03   8.1012415e-04   8.7857281e-04   4.6120700e-04   5.3203589e-04   1.0924804e-03   1.0628175e-03   9.1285317e-04  -4.2969050e-04   1.7017488e-03   1.2805338e-03   1.3650971e-03   4.7384234e-04   1.2072342e-03   8.4062410e-04   1.1494720e-03   9.0185192e-04   5.8197120e-04   1.1272888e-03   1.3848080e-03   1.9626352e-03   1.5544957e-03   1.0732306e-03   1.8512330e-03
   1.0349812e-03   9.0043823e-04   9.9950866e-04   9.1358175e-04   8.9732767e-04   1.3945433e-03   5.5947510e-04   8.7468798e-04   1.6955484e-05   7.9150882e-04   1.1434697e-03   4.4846060e-04   1.1733258e-03   1.3235681e-03   1.1580762e-03   1.1660757e-03   1.1167548e-03   1.0841831e-03   3.9192435e-04   8.0202927e-04   4.9761735e-04   5.4880290e-04   8.7986473e-04  -3.1527247e-06   5.1533297e-04   2.3563957e-04   3.8549461e-04   6.1610731e-04   8.0470386e-04   1.6315303e-04   4.7512827e-04   3.1127981e-04   7.9384487e-04   8.2658097e-04   3.8779300e-04   1.1770203e-03   1.0495724e-03   6.4163044e-04   2.1292501e-04   7.8550278e-04   4.4055755e-04   8.5122831e-04   6.2501919e-04   7.1446243e-04   8.1417616e-04   2.4242564e-03   1.6766641e-03   1.3473801e-03   7.1386894e-04   1.5064015e-03
   7.8157219e-04   5.7901267e-04   8.5010275e-04   4.1016805e-04   7.7972672e-04   5.5640790e-04   4.6596836e-04   4.8914959e-04  -2.2863834e-03   6.3994731e-04   8.0914848e-04   3.0363473e-04   9.1093365e-04   9.0470019e-04   1.3962516e-03   1.0403773e-03   9.8423776e-04   9.2872739e-04   1.2376345e-03   9.9301548e-04   6.4186554e-04   7.8740745e-04   8.4717135e-04   4.4577151e-05   1.3906054e-03   4.9285707e-04   2.7612349e-04   1.2688783e-03   6.2778121e-04   2.9858988e-04  -3.4816636e-05   1.9923374e-03   1.0141537e-03   1.3276892e-03   2.5922400e-03  -3.7566258e-04   1.4772991e-03   1.4035723e-03   5.5221620e-04   1.2510628e-03   1.1345408e-03   1.2246381e-03   1.1050409e-03   1.1514969e-03   1.1749583e-03   2.1626600e-03   2.1220185e-03   1.8011895e-03   1.3292924e-03   2.1038067e-03
   1.3348325e-03   1.1619211e-03   1.4621412e-03   1.2977108e-03   1.0278367e-03   1.0879571e-03   9.0775156e-04   1.1497248e-03  -2.8283587e-03   1.0617204e-03   1.4812244e-03   5.8203487e-04   1.3250113e-03   1.4760679e-03   1.2908310e-03   1.3619282e-03   1.2737112e-03   1.0615397e-03  -2.3037495e-04   1.1993845e-03   7.6528889e-04   9.4762637e-04   8.1272243e-04   2.9892460e-04   2.0302997e-03   6.3633936e-04   5.3747604e-04   1.3971768e-03   8.7411079e-04   5.5629777e-04   1.8685106e-03   1.4349354e-03   1.0234043e-03   9.3759771e-04   2.2187068e-03   7.1897608e-04   5.9123104e-04   1.1005421e-03   4.7143974e-04   1.6699549e-03   9.0432196e-04   1.1917449e-03   1.1450483e-03   2.3202568e-03   1.0202910e-03   1.7667636e-03   2.0851863e-03   1.7126800e-03   1.1384911e-03   2.0680835e-03
   1.2965660e-03   1.0270367e-03   1.2939402e-03   9.6778967e-04   4.9619254e-04   9.6047233e-04   7.3518860e-04   6.4836111e-04   1.9030630e-03   8.4138411e-04   1.3264695e-03   5.1035959e-04   1.1145731e-03   1.2738804e-03   9.2657754e-04   1.1469686e-03   9.9171430e-04   9.0912875e-04   2.8499863e-03   7.4049423e-04   5.2942912e-04   6.3442322e-04   5.8799895e-04   9.2008726e-05   1.0538516e-03   4.0441164e-04   2.6876337e-04   1.0668456e-03   3.3540945e-04   2.3051938e-04   2.8169758e-04   3.3056704e-04   5.6976656e-04   1.0634848e-03   2.7328145e-04   4.2534372e-04   9.0858527e-04   7.2321162e-04   1.8892108e-04   1.9905852e-04   1.0425153e-03   9.3064539e-04   8.0269855e-04   2.1621312e-03   6.3999312e-04   1.8892984e-03   1.7961167e-03   1.4410344e-03   1.2645295e-03   1.6662040e-03
   3.8731773e-04   6.3555170e-04   8.9092663e-04   3.7060981e-04  -1.8883812e-04   5.2125228e-04   2.9396356e-04   6.4548233e-04   5.1694986e-04   4.8377414e-04   9.6433365e-04   2.9342831e-04   7.9558452e-04   9.8633824e-04   9.7506517e-04   9.3248091e-04   6.2363409e-04   7.2258653e-04   7.2229881e-04   3.6417803e-04   2.1174867e-04   6.9748152e-05   4.1413354e-04  -1.6821218e-04   7.6671538e-04   2.1957011e-04   2.4420925e-04   4.2232370e-04   2.8881495e-04  -7.0137983e-05   4.6438965e-04   8.3035574e-04   7.9942303e-04   7.6132215e-04   1.1439780e-03   8.8324409e-04   1.0708476e-03   7.1552541e-04   3.2580859e-04   9.2282437e-04   1.2675558e-03   1.1097788e-03   1.0025102e-03   1.3711617e-03   7.5808371e-04   2.3436225e-03   2.1216033e-03   1.7364154e-03   1.5698435e-03   2.0914527e-03
   1.1735485e-03   1.1521600e-03   1.1801851e-03   1.0657825e-03   9.4865612e-04   1.0929264e-03   1.0655712e-03   9.3480316e-04   7.2742492e-04   1.1966978e-03   1.5192991e-03   6.4369070e-04   1.2096578e-03   1.4747102e-03   1.2546036e-03   1.3399229e-03   1.2718686e-03   1.1989644e-03   5.0504627e-03   1.0944125e-03   7.0639089e-04   7.7086984e-04   7.1536226e-04   3.7704289e-04   7.7698583e-04   9.1665122e-04   4.8105139e-04   9.1342028e-04   6.0522935e-04   4.5196657e-04   1.6927382e-03   7.1345380e-04   8.5888017e-04   1.0230293e-03   3.4987552e-03   8.6199725e-04   1.2241288e-03   1.0749508e-03   5.0126051e-04   1.1537093e-03   9.8599191e-04   1.2110004e-03   1.0273348e-03   3.3839699e-04   6.8476913e-04   1.8720203e-03   2.1763172e-03   1.8829232e-03   1.3967213e-03   2.0909728e-03
   1.2633326e-03   1.0951308e-03   1.2944840e-03   1.0444327e-03   5.6146382e-04   9.0463756e-04   1.0199910e-03   1.3463200e-03   4.7050463e-03   1.0749248e-03   1.5438874e-03   6.2705140e-04   1.1031234e-03   1.2881536e-03   1.3278110e-03   1.2512765e-03   1.2510316e-03   9.5180626e-04   1.3157447e-03   8.4472774e-04   5.6115381e-04   5.9473817e-04   3.0830281e-04   8.3886553e-05   1.5467758e-03   4.5001996e-04   7.6241192e-04   7.9345756e-04   6.6777231e-04   2.6457352e-04  -1.1903344e-04   1.4088204e-03   6.6945679e-04   8.1034697e-04   1.8567367e-03   1.5750566e-03   4.5103105e-04   5.6331599e-04   3.2883786e-04   2.8095543e-04   6.4336945e-04   9.2621782e-04   7.8906567e-04   2.4373971e-03   6.0258183e-04   4.3105023e-04   1.9209657e-03   1.6293384e-03   1.0219563e-03   1.6165073e-03
   1.0077431e-03   8.7467401e-04   8.4155780e-04   5.7681749e-04   6.4438232e-04   8.4509992e-04   6.3565333e-04   5.1339687e-04   2.8765590e-03   7.3244894e-04   1.0570240e-03   4.6687986e-04   8.7674474e-04   1.0188835e-03   1.0696978e-03   8.7115029e-04   7.8186457e-04   5.5832893e-04  -1.7346282e-03   4.4253151e-04   2.7034688e-04   2.4181906e-04   2.2658089e-04  -2.9230437e-06  -3.6088223e-04   3.9037030e-05   2.6630791e-04   7.6539547e-04   5.8123772e-04   6.9701935e-05  -2.9747788e-04   2.3074735e-04   3.1190319e-04   5.2931614e-04   1.1008953e-03  -4.0155044e-04  -1.3082771e-04   3.6772227e-04   8.8949171e-05   1.1522903e-03   5.6067114e-05   7.9427805e-04   2.5391881e-04   1.8549911e-03   6.1773660e-04   1.7115406e-03   1.9576342e-03   1.5001869e-03   9.0633426e-04   1.5774104e-03
   8.0958306e-04   1.0478707e-03   1.0164432e-03   1.0071547e-03   7.5562642e-04   1.1986085e-03   1.0861957e-03   9.4972679e-04   3.6217177e-03   1.1961762e-03   1.4986719e-03   6.7199295e-04   1.1821107e-03   1.3155489e-03   1.0967905e-03   1.1755433e-03   1.1843470e-03   8.7144057e-04   2.3780770e-03   1.0204876e-03   7.5640489e-04   9.3614554e-04   4.1022137e-04   2.4146237e-04   1.0371668e-03   4.1455176e-04   9.5336640e-04   1.1631816e-03   8.8134187e-04   4.8969645e-04  -4.8188402e-05   9.0886588e-04   8.2943158e-04   9.8305324e-04   8.4164290e-04  -9.6418837e-04   1.0804449e-03   1.1223867e-03   4.2451994e-04   1.3049982e-03   8.3639385e-04   9.6385507e-04   7.3562626e-04   8.8560244e-04   7.0467853e-04   3.1002877e-05   2.0122034e-03   1.6975217e-03   1.1380317e-03   1.8183170e-03
   1.0629650e-03   1.0795905e-03   9.6152985e-04   1.0317101e-03   6.5896410e-04   1.1423847e-03   3.4734519e-04   1.1031817e-03   8.0609339e-04   1.0222015e-03   1.2973655e-03   6.2828895e-04   9.7225723e-04   1.0406146e-03   1.1412182e-03   1.0018426e-03   8.8153122e-04   6.8947009e-04  -2.1608230e-03   7.6153927e-04   5.8355276e-04   6.1331742e-04   4.8394030e-04   7.5458964e-05   1.4986420e-03   2.9025518e-04   4.9893156e-04   1.1747263e-03   7.6703308e-04   2.5829050e-04  -4.4656792e-04   1.0184004e-03   1.9277571e-04   5.8176304e-04   1.5275056e-03  -2.4463856e-04   1.5363992e-03   2.4978395e-04   2.5896629e-04   9.1365841e-04   5.4187578e-05   6.9974846e-04   4.2772043e-04   8.7692140e-04   4.8890227e-04   6.7918468e-04   1.7330825e-03   1.4127198e-03   8.0151641e-04   1.6538434e-03
   4.2622464e-04   7.3315774e-04   6.5211143e-04   4.8359716e-04   1.5394134e-04   8.2113588e-04   6.5945741e-04   3.4487672e-04   6.5966588e-03   6.2282319e-04   9.2555245e-04   4.3782318e-04   6.9585687e-04   7.8944367e-04   8.2092697e-04   6.0865196e-04   5.1699259e-04   2.9689108e-04   3.1622436e-03   2.2857563e-04   2.3178427e-04   1.1393641e-04   2.9324795e-04  -1.7961772e-04   1.3577208e-03  -6.0779126e-05   2.7812834e-04   5.5052538e-04   8.3412720e-05   8.7122280e-05  -2.2652323e-04   1.5065439e-04  -2.2937775e-05   4.4834748e-04   9.9777000e-04  -9.4010722e-04   1.5159765e-04  -2.3446446e-05  -1.4327145e-04   1.8731119e-04  -2.8936722e-04   4.4383397e-04   9.1934104e-05   1.0272849e-03   2.2331104e-04   5.6612666e-04   1.6427861e-03   1.1942098e-03   7.9433300e-04   1.3774695e-03
   1.1108683e-03   8.5384725e-04   8.3080115e-04   6.6611118e-04   7.2362483e-04   7.6633174e-04   1.1259003e-03   4.8866059e-04   9.6160348e-04   1.0508243e-03   1.3848438e-03   6.1235734e-04   8.7700645e-04   9.9594868e-04   9.8224112e-04   8.3401316e-04   8.8438677e-04   6.4530963e-04   1.6589710e-04   8.7698951e-04   6.8238820e-04   7.1062939e-04   5.5208831e-04   1.9424497e-04   6.2423578e-04   4.6005921e-04   8.2911312e-04   8.3802722e-04   6.8079284e-04   3.2889514e-04  -2.4527998e-04   7.5869518e-04   4.7243704e-04   4.4737753e-04   1.2890362e-03   2.9060344e-04   8.4020483e-04   6.5126404e-04   3.4478793e-04   5.6361390e-04   7.8994164e-04   7.4241939e-04   5.4449780e-04   4.1337474e-04   5.3481740e-04   5.8593601e-04   1.7579519e-03   1.4024369e-03   1.0561998e-03   1.5517140e-03
   1.0958838e-03   9.7605644e-04   8.1652909e-04   7.2763395e-04   8.6561410e-04   9.1770518e-04   6.7486579e-04   1.0290300e-03   9.9344435e-04   1.0169604e-03   1.2720008e-03   6.4037339e-04   8.6711068e-04   8.0989709e-04   1.0416962e-03   7.9311349e-04   7.5840007e-04   5.9704919e-04   2.4324770e-03   6.7141291e-04   5.0555519e-04   4.9584679e-04   2.4891659e-04   3.3903307e-05   1.8879848e-03   2.5342286e-04   3.2020797e-04   3.7594634e-04   3.8407752e-04   1.4134136e-04  -6.1722641e-04   3.4765023e-04   4.1821421e-04  -3.1812928e-05   7.4614922e-04   2.4461120e-04   8.3345512e-04   2.3139249e-04   2.3847970e-04   9.9268660e-04   1.7165745e-04   6.3351175e-04   2.9615482e-04   1.3968929e-03   4.0810378e-04   2.8314746e-03   1.5407774e-03   1.1542119e-03   9.0029510e-04   1.3540846e-03
   7.7008893e-04   7.2259415e-04   4.4555159e-04   3.4642854e-04   3.0947593e-04   4.2843563e-04   2.5373441e-04   3.1282910e-04  -2.3185753e-03   6.8806036e-04   1.0501132e-03   5.0128531e-04   5.0964119e-04   6.4088660e-04   5.8735744e-04   4.5818643e-04   4.1561175e-04   2.2660827e-04   6.9177005e-04   1.7811015e-04   2.1382389e-04   5.7417550e-05  -2.4383007e-04  -2.3646309e-04   3.5069470e-04  -1.2688198e-04  -1.1024972e-04   3.4978797e-04   4.9510045e-04  -8.3011480e-05   1.2028723e-03   2.8978355e-04   2.2116599e-04   2.2352446e-04   7.6795585e-04   5.4717076e-04   3.1426118e-04   4.5830014e-04   2.0886873e-04   4.7349909e-04   4.0756527e-04   6.5905682e-04   4.3190402e-04   2.2195922e-03   4.8441245e-04   1.8894231e-03   1.7076603e-03   1.3862089e-03   9.5225510e-04   1.5296156e-03
   1.1197629e-03   1.1077663e-03   1.0320628e-03   1.0850615e-03   1.3504261e-03   1.0296190e-03   6.3807488e-04   8.7558135e-04   1.8752827e-03   1.2353370e-03   1.4695615e-03   7.3981792e-04   7.4139092e-04   9.1762515e-04   1.2208985e-03   7.9367944e-04   9.3896437e-04   7.3578866e-04   9.1745786e-04   8.2088157e-04   6.2971609e-04   7.1070425e-04   3.1993329e-04   2.0239194e-04   1.5972720e-03   4.7773946e-04   6.9185963e-04   9.0848200e-04   8.1549532e-04   4.6395999e-04  -4.9894559e-04   3.6864469e-04   5.5083504e-04   4.9725000e-04   1.7343865e-03   1.0211936e-03   1.0040135e-03   5.8787054e-04   3.4278198e-04   2.7112474e-04   5.6673342e-04   6.7152287e-04   5.1808706e-04   2.1595072e-03   5.4341170e-04   1.5046349e-03   1.7032298e-03   1.2663057e-03   8.9054921e-04   1.5006852e-03
   4.0068460e-04   9.7533525e-04   9.5994462e-04   8.1416761e-04   1.1935316e-03   5.9712853e-04   6.3750189e-04   9.3872310e-04  -3.1271280e-05   1.0435781e-03   1.3338006e-03   6.7165360e-04   6.0426485e-04   8.8510051e-04   7.3803368e-04   6.9000764e-04   6.9808849e-04   4.4200383e-04  -7.6955132e-04   5.5183802e-04   4.8425785e-04   3.9346487e-04   7.0520735e-04  -2.4894289e-05   1.1625525e-03   1.9372697e-04   7.3126220e-04   5.8643322e-04   8.9311122e-04   2.2734501e-04   6.5173750e-04  -5.1129272e-04   2.4878504e-05   3.3930410e-04  -3.9457946e-04   8.4785436e-04   5.8192259e-04   2.0146352e-04   1.9337762e-04   5.2688812e-04   3.9091671e-04   4.4270509e-04   4.2820422e-04   4.7844797e-04   2.0034735e-04   2.0801786e-03   1.4161420e-03   1.0884529e-03   5.1138678e-04   1.3477220e-03
   6.3520623e-04   6.8824441e-04   5.9519283e-04   4.1868107e-04   8.5013860e-04   6.3628977e-04   8.8170881e-04   5.1634980e-04  -6.7243032e-05   1.1413964e-03   1.3323411e-03   6.1302527e-04   6.0970976e-04   6.7130703e-04   7.8465266e-04   6.0532702e-04   6.3954294e-04   5.9745333e-04   3.9320005e-04   9.3421084e-04   7.3123223e-04   8.1708533e-04   3.8531772e-04   1.9250120e-04   4.5633345e-04   2.8484239e-04   2.6409570e-04   6.3307391e-04   5.7142490e-04   3.8072121e-04   2.8036009e-03   1.5478478e-03   4.7443141e-04   5.0685433e-04   1.8857293e-03   1.9279202e-03   1.4425275e-03   5.7188777e-04   6.2459754e-04   5.0911790e-04   8.9780043e-04   8.7959477e-04   8.0398849e-04   1.3713371e-03   7.0298108e-04   2.5826055e-03   1.9244071e-03   1.5458075e-03   1.0529960e-03   2.1363858e-03
   1.5085946e-03   1.2268118e-03   1.1139183e-03   1.1442835e-03   8.9853053e-04   1.5540717e-03   1.1461286e-03   9.7444496e-04   1.1859824e-03   1.4545416e-03   1.6815418e-03   8.7348901e-04   1.0127716e-03   1.1586117e-03   1.0598075e-03   9.4308396e-04   1.0296506e-03   8.3878794e-04   3.1063438e-03   1.0905296e-03   8.5074414e-04   9.1993518e-04   8.0258341e-04   2.2386151e-04   1.1816863e-03   4.7267025e-04   2.3045954e-04   6.5803860e-04   8.7066804e-04   3.7312447e-04   1.9185380e-03   1.3554166e-03   6.6596200e-04   5.5326748e-04   9.4980036e-04  -1.5369956e-04   5.5373425e-04   7.6298515e-04   5.6392082e-04   4.0201569e-04   9.1678818e-04   8.5808407e-04   6.8551244e-04   1.8517562e-03   6.4850668e-04   2.6578174e-03   1.8343609e-03   1.4891460e-03   1.1048692e-03   1.8947162e-03
   1.0541141e-03   9.8220527e-04   1.0613404e-03   9.0351718e-04   7.2802452e-04   8.1494986e-04   5.0960475e-04   7.6069147e-04  -3.1308387e-03   1.1727604e-03   1.5852329e-03   7.0356124e-04   8.1717339e-04   7.4326404e-04   9.1946800e-04   7.5744803e-04   7.2705711e-04   5.0040986e-04   5.0200021e-04   6.5351959e-04   5.3101371e-04   4.2792666e-04   3.7301093e-04   3.8306694e-05   1.1347996e-03   2.7917617e-04   3.7017147e-04   1.1712463e-03   2.4513010e-04   1.8540351e-04   2.4775634e-04  -2.5876076e-04   4.5895253e-04   4.7410306e-04  -3.1840289e-04   1.3846613e-03  -2.8172071e-05   5.4937892e-04   1.0724947e-04   7.2538079e-04   2.0541530e-04   5.1717798e-04   4.4444436e-04   1.4391275e-03   2.5860345e-04   1.1763122e-03   1.6288913e-03   1.3176097e-03   7.3754654e-04   1.8580642e-03
   7.8064937e-04   8.7134150e-04   1.3533060e-03   1.0587760e-03   1.0688839e-03   6.8632746e-04   9.8197849e-04   6.2894123e-04   2.1487090e-03   1.5442183e-03   1.8538735e-03   8.7650388e-04   9.6454733e-04   9.4462407e-04   7.4422196e-04   1.0231133e-03   1.0472254e-03   9.1771910e-04   1.6126747e-03   1.2972533e-03   1.0229332e-03   1.1149360e-03   8.4477296e-04   5.0507934e-04   1.1949409e-03   6.3390931e-04   4.9279380e-04   1.0642812e-03   8.3754346e-04   6.5331184e-04   2.3628579e-04   1.0361742e-03   7.8859663e-04   1.4120900e-03   6.6295598e-04   1.1743763e-03   7.3466962e-04   1.0980607e-03   7.8312977e-04   1.4472655e-03   1.2537694e-03   1.0986177e-03   1.2057783e-03   5.9887813e-04   9.0217666e-04   3.4583115e-03   2.0622867e-03   1.8411053e-03   1.3414443e-03   2.3958881e-03
   9.8669261e-04   1.1904367e-03   1.5843026e-03   9.8534254e-04   1.2272433e-03   1.3396019e-03   1.3901691e-03   1.2429153e-03   4.4070482e-03   1.6697501e-03   2.1076845e-03   1.0115918e-03   1.1429538e-03   1.1411620e-03   1.0919379e-03   1.1380740e-03   1.0459261e-03   8.2641287e-04   6.0290180e-04   1.2888433e-03   9.5954858e-04   1.0470110e-03   1.0280301e-03   3.9409951e-04   1.3950956e-03   7.6280971e-04   7.2567392e-04   7.8645837e-04   8.4344205e-04   7.8933954e-04   1.6607289e-03   9.7147858e-04   4.1998149e-04   9.1573288e-04   7.5478537e-04   1.5352148e-03   1.3962295e-03   1.1377101e-03   5.7448988e-04   9.4736653e-04   1.3174947e-03   1.0747211e-03   1.2693974e-03   1.1366019e-03   9.0518122e-04   1.8421228e-03   1.9746341e-03   1.8327924e-03   1.0600876e-03   2.2145675e-03
   1.6815379e-03   9.4269775e-04   1.1118613e-03   9.2107389e-04   1.5579145e-03   1.0652380e-03   6.8016507e-04   8.2540256e-04   2.7123669e-03   1.4179230e-03   1.9140585e-03   9.4851211e-04   9.3401567e-04   9.6934667e-04   7.1064668e-04   9.1401883e-04   7.3308591e-04   6.0403539e-04   2.4550117e-04   8.8168454e-04   6.4438966e-04   6.2743697e-04   5.9880596e-04   2.0818361e-04   7.1496400e-04   4.7800253e-04   7.6759217e-04   7.2712352e-04   5.4806873e-04   1.4409672e-04   2.6699484e-03   5.3846010e-04  -1.1706117e-05   4.6047839e-04   9.0556918e-04  -2.5094289e-04   5.8485888e-04   4.6631385e-04   2.9422279e-04   6.9164688e-04   7.1305019e-04   8.2213728e-04   7.6116581e-04  -5.3291663e-04   5.8810756e-04   1.6735236e-03   1.7766125e-03   1.6465916e-03   1.1708051e-03   2.1219437e-03
   1.1391271e-03   9.5987931e-04   1.1456336e-03   1.0869425e-03   1.0406671e-03   1.2038909e-03   9.9965243e-04   1.0488300e-03   5.3183711e-03   1.8477686e-03   2.1565179e-03   1.1169327e-03   1.1325633e-03   1.1791202e-03   1.0370683e-03   1.3082749e-03   1.0988539e-03   8.3482271e-04   1.1718575e-03   1.4986749e-03   1.0910665e-03   1.3400898e-03   1.2972780e-03   5.7146983e-04   1.2129965e-03   9.6419058e-04   7.8186812e-04   8.7355031e-04   7.9883769e-04   6.5840752e-04   1.6102652e-03   8.5813663e-04   9.8893372e-04   1.5993690e-03   1.6643719e-03   8.9674717e-04   1.1197178e-03   1.3536514e-03   9.8285649e-04   9.1208296e-04   1.7404164e-03   1.3863348e-03   1.6664137e-03   8.5777516e-04   1.1559259e-03   1.0614746e-03   2.2178052e-03   2.0356413e-03   1.4424594e-03   2.5982920e-03
   1.5040350e-03   1.3836464e-03   1.6004596e-03   1.4708693e-03   1.4669657e-03   1.2087526e-03   1.8583358e-03   1.3290101e-03   3.6285107e-03   2.0284601e-03   2.3227728e-03   1.2832560e-03   1.4246415e-03   1.3197154e-03   1.0101063e-03   1.4720195e-03   1.4086640e-03   1.1671343e-03   2.9887538e-03   1.5683693e-03   1.0569284e-03   1.2461296e-03   1.2333733e-03   6.9417857e-04   1.1302433e-03   9.6352707e-04   7.7954569e-04   1.0731334e-03   1.0368616e-03   7.0153497e-04  -5.9768447e-04   1.2414861e-03   9.3977776e-04   1.3306403e-03   1.4758811e-03   1.0111870e-03   6.9104339e-04   1.0312111e-03   7.5199042e-04   9.9962542e-04   2.0211367e-03   1.4226234e-03   1.7142978e-03   2.5682347e-03   1.0647512e-03   2.8157786e-03   2.2603220e-03   2.1252832e-03   1.6858296e-03   2.5666615e-03
   1.0434312e-03   1.1370316e-03   1.4215565e-03   1.0891333e-03   1.1376420e-03   1.1112378e-03   1.0926109e-03   1.1937511e-03   2.1497742e-03   1.6079079e-03   2.1421146e-03   1.0975413e-03   1.2793735e-03   1.1994777e-03   1.2370539e-03   1.1324950e-03   9.0723677e-04   9.0948137e-04  -5.4623769e-03   1.0903240e-03   6.6046318e-04   6.9271435e-04   7.8935194e-04   4.2508385e-04   2.2937660e-03   6.9360831e-04   6.5120112e-04  -8.4762134e-05   8.9472072e-04   6.4409850e-04  -6.5846078e-04   5.1990867e-04   5.1484356e-04   8.4263011e-04   1.0560448e-03   4.7592033e-04   4.0403515e-04   9.7643468e-04   5.7483657e-04   8.6003792e-04   1.3736656e-03   1.3079669e-03   1.5114817e-03   2.8453476e-04   5.9231726e-04   2.5511556e-03   2.1558078e-03   2.0347270e-03   1.2528015e-03   2.1718412e-03
   1.2006217e-03   8.8883756e-04   1.2456219e-03   8.9808169e-04   9.0809521e-04   2.3211107e-04   8.4482617e-04   7.5101579e-04   6.7669470e-03   1.5817648e-03   1.6559865e-03   1.1308292e-03   1.0215124e-03   9.9783868e-04   7.5723755e-04   9.7929116e-04   8.8831323e-04   6.5152155e-04  -3.2259901e-03   9.7759150e-04   6.0327683e-04   8.3052658e-04   1.0012101e-03   6.9970475e-04   6.0105865e-04   7.5530243e-04   5.4722250e-04   5.5026374e-04   1.3960203e-03   7.5322436e-04   1.5014544e-03   1.2504042e-03   7.2352088e-04   1.0560594e-03   1.2406071e-03   1.6166265e-03   1.0324897e-03   1.3237430e-03   1.0512489e-03   1.4216967e-03   2.0870776e-03   1.7833262e-03   2.0404281e-03   2.8924879e-03   1.2869557e-03   3.4679312e-03   2.7120076e-03   2.4675152e-03   1.8690248e-03   2.8630453e-03
   1.2633635e-03   1.6122953e-03   1.7653739e-03   1.8967607e-03   1.4463968e-03   1.4358214e-03   1.3037472e-03   1.1912422e-03  -7.4882148e-04   2.3237199e-03   2.5162944e-03   1.6102830e-03   1.6003124e-03   1.5567187e-03   1.0543192e-03   1.5164348e-03   1.3787155e-03   1.2504843e-03   3.6675562e-03   1.5451688e-03   8.9077238e-04   1.2378434e-03   1.4559469e-03   1.0782108e-03   2.5181477e-03   1.3623382e-03   1.1724852e-03   9.2994160e-04   1.0417243e-03   8.6537353e-04   1.5644013e-03   1.2452961e-03   8.8051526e-04   1.6184582e-03   2.6131282e-03   1.8815488e-03   9.2227367e-04   1.4263833e-03   1.0904277e-03   1.6441738e-03   2.0430039e-03   1.7751215e-03   1.9605858e-03   2.6767075e-03   1.2400636e-03   2.2507762e-03   2.5786308e-03   2.4516797e-03   1.6320000e-03   2.6403754e-03
   1.5811796e-03   1.4608125e-03   1.7323956e-03   1.5423462e-03   1.3307492e-03   1.1744772e-03   1.3963199e-03   1.6812430e-03   5.0784992e-03   2.1396950e-03   2.3269621e-03   1.4860206e-03   1.5516587e-03   1.4572598e-03   1.4483389e-03   1.3938602e-03   1.2720852e-03   1.2180766e-03  -2.3386478e-04   1.1969971e-03   6.9905177e-04   9.1095577e-04   1.3064705e-03   7.9503172e-04   3.3457304e-04   9.0715924e-04   1.0302688e-03   6.1366142e-04   1.0536764e-03   7.7319000e-04   1.4224135e-03   1.9104116e-05   6.7055959e-04   1.2368078e-03   1.3655261e-03   1.0062935e-03   9.4403955e-04   1.1322004e-03   7.9770479e-04   1.1676082e-03   1.2837676e-03   1.4749399e-03   1.6142487e-03   1.7857255e-03   8.7541371e-04   1.8821446e-03   2.2689837e-03   2.1291533e-03   1.1819969e-03   2.1848462e-03
   1.2657036e-03   1.0148300e-03   1.2749553e-03   9.5045130e-04   1.6182500e-04   6.9203746e-04   1.1997964e-03   9.8123623e-04   7.0091006e-03   1.7250988e-03   1.9459469e-03   1.2468897e-03   1.1370649e-03   1.1127760e-03   1.1326399e-03   1.0490998e-03   8.1001467e-04   8.3838182e-04   2.2936352e-03   6.7924330e-04   3.6210951e-04   4.4619231e-04   8.3161145e-04   4.1623838e-04   2.0591319e-03   6.1085226e-04   3.2290895e-04   5.9682113e-04   1.0091137e-03   3.0025741e-04   7.3579280e-04   9.6849009e-04  -1.4126966e-04   3.3190555e-04   8.6650904e-04   3.7698937e-04   7.1269053e-04   6.1158929e-04   4.6524522e-04   3.0624075e-04   8.6602994e-04   1.2144672e-03   1.3405902e-03   6.8588468e-04   7.5352227e-04   1.3652394e-03   2.1736801e-03   2.0533004e-03   1.3372829e-03   2.2151186e-03
   1.1790234e-03   1.3218737e-03   1.4676377e-03   1.5953426e-03   8.2617736e-04   1.0361770e-03   1.0160060e-03   1.0943470e-03  -2.2377888e-05   2.2108331e-03   2.2807966e-03   1.4361064e-03   1.2782487e-03   1.4889762e-03   1.0951428e-03   1.4787576e-03   1.2693959e-03   1.0199276e-03   9.5808244e-04   1.3816428e-03   8.7709230e-04   1.2072013e-03   1.6050729e-03   1.0110461e-03   1.6606948e-03   1.2026100e-03   6.5969501e-04   1.6983534e-03   1.2921651e-03   8.6551218e-04   2.2419954e-03   1.3742577e-03   5.0029811e-04   1.1778926e-03   2.5190152e-03   5.1549368e-04   1.2843951e-03   1.4379972e-03   1.0663971e-03   8.3490857e-04   1.9532996e-03   1.5958309e-03   1.8458782e-03  -1.4572663e-04   1.0177046e-03   2.1672240e-03   2.3430947e-03   2.1930593e-03   1.6477808e-03   2.2628894e-03
   2.5476762e-03   1.4484002e-03   1.6475652e-03   1.2565042e-03   1.0434780e-03   9.6969411e-04   1.5194458e-03   1.0367334e-03   1.2885244e-03   2.1712431e-03   2.2613488e-03   1.4709617e-03   1.3605659e-03   1.4254408e-03   1.1796698e-03   1.4218364e-03   1.2620975e-03   1.0632189e-03   3.7740048e-03   1.1852529e-03   7.3064072e-04   9.7301032e-04   9.6559623e-04   8.0266892e-04   1.3030407e-03   9.1369514e-04   1.0177508e-03   8.5975678e-04   5.7952269e-04   8.9276937e-04   1.7284829e-03   3.5394100e-04   2.1838676e-04   6.9158478e-04   4.0463434e-04   5.3559680e-04   8.6547190e-04   1.0552631e-03   8.8880485e-04   5.2383453e-05   1.4563572e-03   1.3889679e-03   1.4381775e-03   9.7447081e-04   8.2640507e-04   1.4656669e-03   2.0886913e-03   2.0206214e-03   1.4169799e-03   2.1099774e-03
   1.9005521e-03   1.1447251e-03   1.2808241e-03   1.0873127e-03   9.7362028e-04   1.0140379e-03   8.6434145e-04   9.3228725e-04  -9.9774741e-04   1.7955994e-03   1.9508151e-03   1.2840467e-03   1.1877201e-03   1.0634286e-03   5.8964727e-04   1.1927693e-03   9.2514919e-04   7.9618942e-04   1.5805000e-03   6.7492493e-04   3.9028947e-04   4.7199902e-04   8.5361238e-04   4.2968048e-04   8.4855281e-05   6.1323855e-04   8.2424056e-04   6.1235164e-04   6.7264843e-04   3.7783905e-04  -1.3277085e-04   8.2664477e-04   4.6167643e-05   5.0148519e-04   1.3874096e-03   4.7841157e-05   3.1966731e-04   2.8768161e-04   4.3953705e-04   3.8698915e-04   8.1757503e-04   1.0502068e-03   1.0959918e-03  -1.7484254e-04   4.0297786e-04   1.4566877e-03   1.6813171e-03   1.5423521e-03   8.7888492e-04   1.5745525e-03
   9.3573768e-04   8.7919860e-04   7.0619921e-04   5.4317911e-04   6.8748050e-04   5.6312722e-04   6.9243438e-04   5.5425568e-04   4.9590911e-03   1.6679609e-03   1.5674509e-03   1.0995044e-03   8.6834107e-04   8.5323770e-04   1.2403129e-03   8.8122470e-04   8.1496895e-04   4.9491087e-04   6.7788560e-04   8.8412053e-04   5.7653157e-04   8.4851880e-04   7.8439299e-04   5.8620295e-04   1.4068749e-03   9.2578423e-04   6.2230666e-04   9.2612376e-04   8.5570052e-04   4.8931257e-04   8.8839268e-04   1.0245541e-03   6.6169287e-04   7.1071519e-04   1.4531638e-03   3.1181384e-04   1.2054285e-03   7.9376012e-04   9.1169274e-04   1.4513703e-03   1.5709862e-03   1.3176185e-03   1.6528635e-03   5.2272424e-04   6.8618223e-04   4.2498755e-04   1.9890340e-03   1.8681048e-03   1.2491404e-03   1.9984117e-03
   1.3916484e-03   1.4502110e-03   1.5408812e-03   1.4262703e-03   1.7039545e-03   1.0578623e-03   1.1184767e-03   1.1225874e-03   1.6371497e-03   1.9626159e-03   2.1126103e-03   1.3073225e-03   1.1520255e-03   1.2065142e-03   1.1545446e-03   1.2021814e-03   1.1711417e-03   8.4117375e-04  -6.6843041e-04   1.0027795e-03   6.4389920e-04   8.6444180e-04   7.2221982e-04   7.7584566e-04   1.7450673e-03   7.5033284e-04   9.0518506e-04   1.0299971e-03   1.0579390e-03   7.7071600e-04   1.5937972e-03   4.8001303e-04   1.2589675e-04   6.1711302e-04   1.8811590e-03   8.5069455e-04   1.0493759e-03   8.5924071e-04   8.2952675e-04   6.8243197e-04   1.1465907e-03   1.2171190e-03   1.3180227e-03  -2.9759991e-05   6.6136569e-04   1.5881696e-03   1.8326271e-03   1.7176007e-03   1.0662059e-03   1.8414396e-03
   1.7663011e-03   1.2531704e-03   1.2715223e-03   1.0979091e-03   1.0708681e-03   1.3063600e-03   1.0925255e-03   9.7253924e-04   3.1031810e-03   1.6808982e-03   1.8385992e-03   1.1353749e-03   9.1571035e-04   9.3668839e-04   8.3344209e-04   9.5124624e-04   8.4622152e-04   7.0019130e-04  -2.4949508e-03   7.0060574e-04   4.1378802e-04   5.0456799e-04   5.9070764e-04   4.3935920e-04   1.2910363e-03   4.6747879e-04   6.0386234e-04   8.2634570e-04   3.7132055e-04   3.3615666e-04   8.7124447e-04  -3.0399297e-04   1.4139207e-04   1.6806352e-04   1.9160898e-03   4.1139999e-04   3.8592328e-04   3.6979176e-04   4.3736986e-04   7.4871408e-04   6.9316779e-04   8.3192741e-04   7.5738830e-04  -8.9106086e-04   3.4371525e-04   7.4538845e-04   1.4783897e-03   1.3233095e-03   6.0040981e-04   1.3949880e-03
   6.9068512e-04   8.7711157e-04   4.0750168e-04   5.1441015e-04   3.6092068e-04   6.9141347e-04   7.2207663e-04   8.5996964e-04   1.4812988e-04   1.2412952e-03   1.3454095e-03   8.9831621e-04   5.9307372e-04   6.2173320e-04   6.7776785e-04   6.2879256e-04   3.3115924e-04   2.7450011e-04   4.0087048e-03   6.3252274e-04   3.9307610e-04   5.8402051e-04   6.6075765e-04   2.4231600e-04   1.1827407e-04   4.2746437e-04   2.4841054e-04   8.1005687e-04   5.0918182e-04   3.5899502e-04   1.9641793e-03   7.1764918e-04   2.3582169e-04   5.5877498e-04   2.9861240e-04   4.4188710e-04   4.0298246e-04   6.1504170e-04   8.0738153e-04   5.8331672e-04   1.2932301e-03   1.1183986e-03   1.1549931e-03   7.0326954e-05   5.6729035e-04   1.2276133e-03   1.7377507e-03   1.5149919e-03   1.1126391e-03   1.7583251e-03
   1.1101315e-03   1.2587145e-03   1.3460848e-03   1.2274007e-03   6.9406920e-04   1.0590223e-03   1.6008987e-03   1.1108554e-03   2.1979422e-03   1.7424588e-03   1.9757953e-03   1.1116794e-03   1.0019768e-03   1.1154233e-03   8.8738633e-04   9.4282132e-04   8.9486066e-04   7.1838195e-04  -1.4033426e-04   9.1828703e-04   6.0269429e-04   7.5510261e-04   9.1213762e-04   4.0025415e-04   7.5611303e-04   6.7002833e-04   6.3600199e-04   8.6428487e-04   2.4306352e-04   4.8482258e-04   9.1181690e-04   7.8922079e-04   4.8353424e-04   7.7583938e-04   1.0696078e-03   1.1164179e-03   4.3057260e-04   8.3206769e-04   7.1922131e-04   6.1481312e-04   1.1469912e-03   9.7463385e-04   1.1781497e-03   3.7548668e-04   5.2262133e-04   2.5009844e-03   1.5895366e-03   1.4794114e-03   9.5029664e-04   1.6535568e-03
   8.5518911e-04   1.0844725e-03   7.6940469e-04   8.5791462e-04   9.3788141e-04   5.1169825e-04   1.3272108e-03   1.0118855e-03  -6.5116200e-04   1.3946531e-03   1.6187278e-03   9.4194454e-04   9.3075115e-04   8.4744481e-04   6.2364672e-04   7.1339018e-04   6.8433769e-04   4.6458322e-04   9.1473194e-04   5.7773868e-04   4.0096522e-04   3.8235728e-04   4.5903620e-05   1.0549641e-05   7.9088984e-04   5.5814971e-04   2.0903027e-04   6.2336348e-04   5.0967600e-04   3.5380380e-04   4.0177640e-04   6.5402169e-04  -2.5650057e-05   3.7252370e-04   5.5729392e-06   5.8535615e-04  -4.5154633e-05   4.3139374e-04   3.2395968e-04  -9.0882626e-05   6.3900353e-04   7.0892839e-04   6.5818516e-04   1.5813990e-03   1.8815490e-04   1.9542989e-03   1.2428465e-03   1.1390566e-03   3.8780764e-04   1.4662325e-03
   6.3716841e-04   6.4589852e-04   7.6873944e-04   1.1205528e-04   1.0252801e-03   6.3312662e-05   6.1315257e-04   4.1002737e-04  -9.8611403e-05   9.5000083e-04   1.2481925e-03   6.2397419e-04   4.0144744e-04   5.0366233e-04   3.4972577e-04   3.0325374e-04   1.2140325e-04   1.0211076e-04   2.3077699e-04   4.5669920e-04   3.6022582e-04   3.8988914e-04   4.5779999e-04  -5.6231049e-05   6.1835151e-04   1.5933152e-04   3.3642579e-04   1.0172388e-03   3.1195037e-04   8.4031621e-05   6.0257857e-04   1.1213688e-03   4.0372618e-04   4.7769322e-04   6.3474762e-04   1.1461498e-03   6.2517682e-04   3.6679910e-04   6.0281937e-04  -3.3138451e-04   9.3270646e-04   9.0014125e-04   9.3067624e-04  -4.0823701e-04   4.2907434e-04   5.7015015e-04   1.5713975e-03   1.3590687e-03   9.6819643e-04   1.9844372e-03
   1.1687676e-03   1.0578433e-03   1.1167696e-03   9.4001839e-04   1.3681989e-03   7.1291428e-04   1.0647615e-03   9.4181596e-04   1.7234598e-03   1.3926597e-03   1.7367259e-03   8.3589449e-04   7.8331464e-04   8.6487504e-04   7.2460040e-04   7.4608368e-04   5.3218869e-04   5.3068704e-04   3.7904871e-03   8.2524656e-04   6.4142572e-04   6.9537701e-04   8.5816765e-04   1.6515318e-04   7.8132818e-04   4.0446635e-04   4.4796846e-04   3.3897429e-04   8.9379022e-04   5.3646701e-04   3.4363204e-04  -5.3761451e-05   7.9963345e-04   3.1826732e-04  -2.9738911e-04   1.1417284e-03   7.7720080e-04   1.4334740e-05   5.6520157e-04   5.4774829e-04   8.6072070e-04   8.7936310e-04   9.7497436e-04   1.0250912e-03   5.3808017e-04   1.2450337e-03   1.4533136e-03   1.3440562e-03   8.9574553e-04   1.9716176e-03
   8.8408368e-04   7.8779075e-04   8.3547493e-04   6.6379528e-04   1.0083164e-03   4.9136818e-04   5.5500912e-04   9.8181365e-04   1.6112827e-03   1.1487190e-03   1.5777953e-03   7.3047040e-04   5.2089832e-04   6.8385742e-04   1.8506699e-04   4.8755610e-04   4.5130466e-04   3.1299016e-04   2.7003111e-03   5.3509302e-04   4.0607969e-04   3.7002700e-04   3.2860084e-04  -1.5946735e-04  -8.4752095e-04   1.9315659e-04   8.9978530e-05   3.5973964e-04  -1.3096489e-04   1.5494657e-04  -1.1013778e-03  -5.9255515e-04   3.4939143e-04   2.0664948e-04  -1.0336055e-03   1.8033503e-04   5.1429746e-04   3.3709884e-04   2.0656097e-04   8.7915978e-04   4.6872348e-04   6.2718749e-04   4.7685322e-04   3.4138383e-04   1.5297541e-04   9.7479927e-04   1.1223954e-03   9.6238207e-04   5.1690958e-04   1.4613187e-03
   7.9738576e-04   4.4581809e-04   5.0029584e-04   1.2211372e-04  -1.3242567e-04   3.8021349e-04   2.6796595e-04   4.4797082e-04  -1.1453053e-05   7.9557841e-04   1.2181936e-03   5.1036879e-04   2.4705403e-04   2.3786613e-04   8.3136976e-05   6.3704960e-05  -1.8718190e-05  -1.2618743e-04  -8.8633463e-04   3.3563562e-04   3.6706813e-04   3.2520073e-04   7.2385126e-04  -1.1424229e-04   5.0781469e-05   3.0906868e-04   3.7295633e-04   2.5525867e-04   1.9315755e-04   1.6676995e-04   1.0400066e-03   8.1382977e-04   7.4164930e-04   6.1817770e-04   8.8439032e-04   5.5099686e-04   2.8771930e-04   4.0403279e-04   4.8268400e-04  -9.9741039e-05   5.5888615e-04   8.8098500e-04   9.6916739e-04   6.8498944e-04   5.3772522e-04   2.5903594e-03   1.4474206e-03   1.2591848e-03   1.0661166e-03   1.8633533e-03
   1.1293645e-03   1.0841617e-03   1.1481938e-03   1.0881327e-03   7.0664560e-04   8.1307866e-04   1.3298857e-03   8.2537759e-04   2.3325698e-03   1.5207282e-03   1.9033380e-03   9.0261904e-04   9.0277963e-04   8.2587631e-04   5.4836972e-04   6.6494447e-04   7.4213505e-04   4.2720258e-04   7.7310782e-03   9.5016166e-04   7.2338647e-04   8.6666411e-04   1.1935380e-03   1.0632732e-04   9.8833616e-04   6.4675638e-04   4.6247235e-04   6.6179264e-04   1.8421272e-04   4.9054314e-04   2.0020320e-03   7.8255002e-04   6.2393426e-04   5.4568797e-04   7.3179178e-04   2.0567296e-04   3.4219283e-04   7.1875425e-04   5.9665198e-04   6.1021256e-04   1.0094288e-03   9.7641099e-04   1.2250828e-03  -3.4121546e-04   5.0213898e-04   7.4123614e-04   1.4600543e-03   1.3402893e-03   1.0300224e-03   1.6953491e-03
   1.8578987e-03   8.8439119e-04   1.0266873e-03   6.4280262e-04   2.1815808e-04   9.9319231e-04   4.0509269e-04   7.9965498e-04  -1.1717553e-03   1.3115095e-03   1.7272421e-03   8.1926043e-04   5.8351120e-04   5.8772747e-04   7.2497129e-04   4.9307849e-04   4.7459090e-04   2.5692926e-04  -3.4543527e-03   7.0292351e-04   5.4266548e-04   5.9721910e-04   6.1489781e-04   9.6083233e-05   9.2096091e-04   3.0917727e-04   6.1203726e-04   8.4110121e-05   7.9451565e-05   2.1388999e-04   2.3262615e-03  -4.7738064e-05  -4.1776169e-05   1.2414319e-04   1.8776639e-03   1.3205812e-03   9.1752427e-04   3.5798532e-04   1.9992427e-04   1.3862435e-04   5.7542720e-04   6.4791529e-04   7.8086409e-04  -1.2317362e-03   2.8315134e-04   1.1118967e-03   1.1665960e-03   1.0014066e-03   5.9777568e-04   1.2490640e-03
   7.3022366e-04   5.1961205e-04   3.6427303e-04   1.6663061e-04   3.3854041e-04   2.0189863e-04   5.9742341e-04   4.6585154e-04   8.3436128e-03   8.7491958e-04   1.1313943e-03   5.7182781e-04   2.7079400e-04   2.8275969e-04   5.1303228e-05   9.4351504e-05   4.4795121e-05  -1.6297532e-04  -1.4174121e-03   1.7410713e-04   2.3224640e-04   8.2029677e-05  -1.6187708e-04  -1.6840643e-04  -2.9565769e-04   1.1253785e-04   2.3869443e-04  -9.0568195e-05  -3.0370525e-04   1.1128002e-05   8.4543682e-04  -6.1429205e-04   5.3974870e-04   4.0653357e-04   1.7044473e-03  -1.1122044e-04   1.4494787e-03  -3.0291907e-04   2.9879238e-04   7.7826768e-04   9.4111322e-04   7.8366505e-04   8.7478670e-04   1.6915186e-03   6.3910766e-04   2.1379497e-03   1.3862238e-03   1.3454035e-03   9.6545671e-04   1.5741149e-03
   1.2126410e-03   9.3123154e-04   1.0992882e-03   9.7618910e-04   9.5986493e-04   9.5538143e-04   8.4488915e-04   9.4113569e-04   2.1325131e-03   1.5864475e-03   1.7887485e-03   8.8738301e-04   9.0491178e-04   6.3513929e-04   6.6017377e-04   6.3780241e-04   7.1097922e-04   6.6684809e-04   1.5600286e-03   1.1721492e-03   8.4593683e-04   9.4429130e-04   1.0525534e-03   3.2575434e-04   9.2182239e-04   7.2570227e-04   2.4006427e-04   4.7116150e-04   7.4642611e-04   6.2141533e-04   1.2245850e-03   5.5570260e-04   1.1069165e-03   5.3689349e-04   6.7961391e-04   3.4548424e-04   7.7121606e-04   6.5436598e-04   5.6460983e-04   1.4633527e-03   1.1822402e-03   1.0400444e-03   1.0513505e-03   1.6253433e-03   6.2519696e-04   1.0331685e-03   1.5920171e-03   1.5036596e-03   1.1903886e-03   1.7547192e-03
   1.5437049e-03   8.1844942e-04   1.1999188e-03   7.6828944e-04   8.5717841e-04   6.1025127e-04   1.2173644e-03   5.6814065e-04   2.0161436e-03   1.3410145e-03   1.6418569e-03   8.2717818e-04   7.4141595e-04   5.2103953e-04   7.7218103e-04   5.2781473e-04   4.9595913e-04   3.8200681e-04  -1.8411212e-03   7.8271219e-04   6.2298053e-04   5.2005867e-04   7.8570610e-04  -3.8214781e-05   1.7584646e-03   2.9957885e-04   1.6948015e-04   1.2856790e-04   4.6183189e-04   2.3063432e-04   2.8344357e-04  -2.1522497e-04   7.7596877e-04   5.5618503e-04  -1.1791007e-03   3.1879530e-04   6.5031163e-05  -1.3484684e-04   1.8809290e-04   5.4151309e-04   6.8527093e-04   8.8218553e-04   1.0965866e-03  -1.9594190e-04   3.9786214e-04   3.0825657e-03   1.3689911e-03   1.2435879e-03   5.9970078e-04   1.4952476e-03
   7.8192318e-04   4.5827139e-04   5.0819211e-04   1.4643522e-04   2.7394065e-04   2.9841455e-04   4.7698090e-04   7.5043563e-04  -1.7286942e-03   9.3700696e-04   1.2280016e-03   6.1703468e-04   4.0821088e-04   1.7192296e-04   9.7120006e-05   2.1357869e-04   1.2967638e-04  -1.1965268e-04   1.0737838e-03   3.4013725e-04   2.7774097e-04   3.8256985e-05  -9.5878213e-06  -2.6374465e-04   2.4427622e-04  -6.2436746e-05   2.3171361e-04  -1.5527557e-05   4.1550817e-04  -1.5391014e-04   7.9322758e-04  -4.1259715e-04  -9.7129181e-05  -2.2262032e-04   9.2520547e-04   4.5331355e-04  -3.4202691e-04  -5.6592509e-04  -8.6528948e-05  -5.2512082e-04   2.2885478e-04   5.2679930e-04   6.4670690e-04   7.1785733e-04   1.4654105e-04   3.2851147e-04   1.2478799e-03   1.1563376e-03   8.1797899e-04   1.4501503e-03
   6.9882488e-04   5.1856402e-04   8.7306922e-04   4.7631233e-04   1.1592289e-05   7.9967658e-04   4.8060127e-04   9.3944074e-04   3.3951440e-04   1.3860929e-03   1.5869567e-03   7.8263925e-04   7.0765847e-04   5.5289152e-04   9.0152223e-04   4.3883017e-04   5.4933026e-04   4.7389828e-04   3.7706058e-04   1.0861792e-03   7.8631041e-04   8.5027405e-04   7.9327292e-04   3.0355345e-04   1.3248301e-03   7.2059972e-04   5.0844660e-04   2.3297546e-04   4.7198735e-04   3.0193865e-04  -4.6675105e-04   3.9457134e-04   7.5485918e-04   8.2099700e-04   1.2406307e-04   1.0773182e-03   9.1897899e-05   2.7482980e-04   6.6588889e-04   6.1896298e-04   1.7294752e-03   1.1971082e-03   1.4377375e-03   9.7017345e-04   7.5286918e-04   1.9775196e-03   1.7461189e-03   1.6962253e-03   1.1002372e-03   1.8030425e-03
   5.5884424e-04   8.3496369e-04   1.1043743e-03   8.9968625e-04   3.6923226e-04   7.5918785e-04   6.2760891e-04   6.6340598e-04   1.1612864e-03   1.6352445e-03   1.5708080e-03   9.7226066e-04   8.2196132e-04   5.7903130e-04   7.6328166e-04   6.1111891e-04   6.8379083e-04   6.3010107e-04   3.3575685e-03   9.9626742e-04   7.2393368e-04   8.2938775e-04   5.9186411e-04   5.0855515e-04   1.0387545e-03   6.1669765e-04   4.3672664e-04   3.0415147e-04   6.8554515e-04   3.7318055e-04   1.5014420e-03   5.4568477e-04   2.2668476e-04   5.9729762e-04   1.9268111e-03   3.0716413e-04   9.0329081e-04   6.6794647e-04   4.7484291e-04   1.3315424e-03   1.2697611e-03   1.1192225e-03   1.4026719e-03   5.5133435e-04   6.1361771e-04   1.2937936e-03   1.7211410e-03   1.7803087e-03   9.0574956e-04   1.7982278e-03
   1.0225284e-03   6.8474561e-04   5.5334251e-04   3.6235602e-04   5.6345097e-04   2.2371007e-04   5.2866992e-04   3.1091811e-05   1.0000193e-03   1.2647897e-03   1.2337149e-03   8.6498895e-04   5.8842456e-04   1.9685175e-04   1.8414097e-04   4.7093496e-04   4.2799753e-04   9.4566538e-05   8.3090062e-04   5.2309642e-04   3.4850655e-04   2.6466715e-04   7.0018496e-04   1.5912460e-04  -1.7310366e-04   3.7648604e-04   3.7110661e-04  -1.3463949e-04   2.8050327e-04   6.4571374e-05   1.1191010e-03  -6.7086103e-06  -2.1949701e-04   9.7935990e-05   1.1027707e-03  -1.3949696e-03   8.7721151e-04   9.5277130e-05   1.7868985e-04   2.9617251e-04   4.8240495e-04   7.6963124e-04   8.2132401e-04  -2.4286623e-04   3.5620481e-04   7.7347615e-04   1.3244052e-03   1.3224385e-03   8.4248272e-04   1.3291525e-03
  -2.0950680e-04   3.5048113e-04   9.5883981e-05   1.4108879e-05  -1.2079878e-04  -5.2600272e-04  -1.7959130e-04   9.6807344e-06   4.0201000e-03   8.7128254e-04   8.0151105e-04   6.5339019e-04   2.3476148e-04   5.5368291e-05   5.1763082e-06  -1.3687272e-05  -3.4272620e-05  -1.1021117e-04  -2.0819076e-03   1.9044059e-04   2.9490929e-04   3.2644421e-05   2.1071733e-04   1.1327925e-05   9.6999411e-04  -7.0638147e-05   1.3409222e-04   2.4051106e-04   9.3020335e-06   1.7906798e-04   2.7168330e-04   4.9844239e-04  -1.8477711e-04   1.0815106e-04   2.0613142e-04   9.8077522e-04   1.8378325e-04   4.2192775e-04   4.0819304e-04   4.1392341e-04   9.4656355e-04   9.5289090e-04   1.2153240e-03   1.3219625e-03   6.1997515e-04   6.5208977e-04   1.5974414e-03   1.5956319e-03   1.1124541e-03   1.4938626e-03
   1.0050611e-03   9.2285074e-04   9.1957941e-04   9.1044611e-04   6.6127762e-04   7.0969714e-04   5.3877285e-04   8.7849493e-04   8.6905522e-05   1.7172820e-03   1.5225629e-03   1.0011639e-03   7.0987415e-04   6.3688558e-04   9.4308832e-04   6.2166032e-04   6.5536174e-04   5.3388439e-04   2.5810203e-05   9.9957827e-04   9.3874551e-04   7.3271216e-04   1.3308768e-03   5.7121733e-04   9.9008880e-04   7.8067189e-04   4.7849945e-04   8.5962203e-04   7.6967268e-04   6.1378075e-04  -6.6747562e-05   5.9334142e-04   2.5536321e-04   6.1662064e-04   3.4384208e-04   6.8840088e-04   5.7357596e-04   2.2658907e-04   5.5350014e-04   3.2564342e-06   1.3007676e-03   1.0090275e-03   1.2839950e-03  -2.9399185e-04   5.7407020e-04   7.2268146e-04   1.6397461e-03   1.6136775e-03   1.1535039e-03   1.4027408e-03
   4.5024671e-04   8.7781978e-04   8.8591792e-04   7.4646890e-04   5.1785301e-04   1.0972302e-04   1.6922945e-04   6.2767282e-04  -6.7957782e-04   1.2900705e-03   1.2423130e-03   1.1842372e-04   5.7736586e-04   4.4716464e-04   6.5923942e-04   5.3414184e-04   4.9419492e-04   4.4488450e-04   2.7055261e-03   7.9313858e-04   8.8239892e-04   2.7581607e-04   6.5241667e-04   8.4911945e-04   7.5979298e-04   5.9765240e-04   3.9659790e-04   7.2099158e-04   5.7534309e-04   4.7467279e-04  -2.5860712e-04  -4.8793695e-04  -7.5344491e-05   2.7489281e-04   9.6567743e-04   9.4855868e-04   3.4176940e-04   4.6247253e-05   3.3262884e-04   2.4513999e-04   5.2375218e-04   8.3200430e-04   9.4404840e-04   1.4030558e-04   4.0928577e-04  -1.8014986e-04   1.4042021e-03   1.2820753e-03   8.7712414e-04   1.1522322e-03
  -3.0608389e-05   5.1270082e-04   2.6985700e-04   2.4260467e-04   5.1852339e-04  -1.1433931e-04   5.0395122e-04   5.6827540e-04   1.0359811e-03   2.3291123e-04   9.1159367e-04  -9.9174120e-04   3.2970699e-04   7.0796152e-05   5.6152599e-04   1.8001060e-04   1.4832165e-04  -7.2797433e-05  -3.9744875e-03   1.9112292e-04   4.7247723e-04  -1.6219434e-04   4.0131793e-04   1.2126309e-04   1.0776593e-03   1.2651016e-04  -5.8314821e-05   5.4195721e-04   3.5132575e-04  -1.5406715e-05  -9.8662206e-04   3.6493485e-04   1.0233412e-04  -2.2724584e-04   6.6086807e-04   5.6426405e-05  -4.0428486e-04  -4.4182834e-04   3.4646921e-05   4.4411107e-04   9.0383299e-05   4.6982773e-04   4.0872718e-04  -1.1385290e-04   4.6917590e-05  -6.1297219e-04   1.1719746e-03   1.0732515e-03   6.6403270e-04   7.6254661e-04
   2.4152752e-04   4.3542875e-04   2.5358697e-04   3.6112120e-04   3.6104273e-05   1.2274650e-04   4.6217476e-04   6.3025317e-04   2.2960526e-03   1.2102876e-03   9.4604335e-04   2.3378398e-04   5.0976046e-04   3.3586170e-04   6.5501244e-04   3.8822187e-04   4.8245778e-04   3.1020530e-04  -1.1105408e-03   6.7957398e-04   7.3877349e-04   7.2900130e-04   1.0778838e-03   6.3349173e-04   1.3170420e-03   5.6509499e-04   3.4717566e-04   4.9041363e-04   3.8684421e-04   5.7954981e-04   3.0538699e-04   4.3616776e-04   3.2283651e-04   3.6596647e-04  -6.1783311e-04   6.6666352e-04   1.0592300e-03   7.2976161e-04   5.9711607e-04   1.3849679e-03   9.3406264e-04   9.0310234e-04   9.2886586e-04   1.0924601e-03   6.3210027e-04   1.3698025e-03   1.3884475e-03   1.2928706e-03   1.0518013e-03   1.0678062e-03
   4.5721181e-04   8.7198749e-04   6.2815985e-04   6.2115566e-04  -2.2988314e-04   3.2645802e-04   8.3686219e-04   5.1876804e-04  -4.2001666e-03   1.1067020e-03   9.5499755e-04   5.6956103e-04   5.9708511e-04   4.3851527e-04   7.2439876e-04   4.6667352e-04   4.0355636e-04   4.1116530e-04  -4.3496143e-04   5.0972833e-04   5.5185979e-04   5.3147686e-04   6.6657929e-04   3.3003860e-04   6.3708918e-05   5.1603501e-04   1.7474184e-04   6.1926409e-04   8.4378186e-04   2.8069818e-04   7.7034388e-04   4.5856612e-04   3.4362078e-05  -5.2102473e-06   1.5337714e-04   5.4266345e-04   6.9451495e-04   2.5528265e-04   2.8249924e-04  -2.3180692e-04   4.2983724e-04   6.3879584e-04   7.1884290e-04   1.0194776e-03   3.2509762e-04   1.3778027e-04   1.1263062e-03   9.8218769e-04   8.7491580e-04   7.6538086e-04
   3.0536766e-04   5.4167747e-04   3.2234262e-04   2.9789985e-04   2.7599183e-04  -2.7855040e-04   5.5026513e-04   1.4893302e-04   3.8640178e-04   6.5623439e-04   6.9703197e-04   4.4442556e-04   2.9888347e-04   5.8844089e-05   1.3569869e-04   1.6282994e-04   1.3773894e-04   1.6565932e-04   4.9224560e-04   1.0357548e-05   2.1237916e-04   1.1312029e-04  -3.0197181e-05   1.5632808e-04  -3.6678376e-04   7.8686295e-05   2.0793649e-04  -6.3764412e-05  -1.7109321e-04  -2.2554539e-05   7.0224307e-04   1.0698230e-04  -3.0869749e-04  -3.5933868e-04   8.1884564e-04  -5.4683391e-04  -4.1685693e-05  -8.3091050e-05  -2.5266021e-05  -1.6887186e-04  -4.3283906e-04   2.2417026e-04   1.9121190e-04   8.7753008e-04  -2.4937550e-05   1.8604412e-03   7.4581098e-04   5.6636677e-04   2.5987241e-04   1.8522270e-04
  -2.6327663e-04   2.9247944e-04   3.0197157e-04   1.0558397e-04   1.4548605e-04   4.4168399e-05  -2.3083882e-04  -2.0914015e-04   9.3164074e-04   8.4876973e-04   6.6895719e-04   4.8428364e-04   3.4940845e-04   2.1359207e-04   1.3791921e-04   3.3595157e-04   2.5863381e-04   6.4873158e-05  -1.6136016e-03   6.5452798e-04   6.4244791e-04   7.2150369e-04   6.6893903e-04   2.8657695e-04   6.6317909e-04   2.6948150e-04   2.4152128e-04   3.6257278e-04   6.9077348e-04   3.7066828e-04  -7.8570587e-04   4.5857273e-04   6.2928343e-04   3.2416559e-04   6.5015728e-04  -2.0545257e-04   4.6687454e-04   2.3394864e-04   3.4646719e-04   6.6064560e-04   6.7417492e-04   5.5901852e-04   5.9352117e-04   1.5735838e-03   3.9483322e-04   6.4474146e-04   1.0308214e-03   8.0813095e-04   6.5747451e-04   7.0885668e-04
   9.2245440e-04   7.0482155e-04   4.7573604e-04   6.3707057e-04   2.1752562e-04   5.5142457e-04   6.3081807e-04   3.8556167e-04   5.6290240e-03   7.8758993e-04   7.4133096e-04   5.0281303e-04   3.6835592e-04   4.4099399e-04   9.2824390e-05   2.7446428e-04   2.4194364e-04   2.4020557e-04   6.6265638e-04   3.5434664e-04   4.8347289e-04   4.2736510e-04   6.0135801e-04   1.9380146e-04  -1.7524591e-04   2.5772720e-04   1.2189148e-04   4.9786054e-04   9.3329785e-04   1.1209679e-04   1.2105932e-03   1.1540458e-04   1.5321671e-04  -6.0704569e-05  -1.5226948e-03  -2.6522664e-04   3.0433186e-04   2.8280175e-04   1.5963447e-04  -8.4200926e-04   1.0446167e-04   3.8941938e-04   3.3038281e-04   3.6830906e-04   1.0407645e-04  -2.3595973e-04   7.9323066e-04   5.5400573e-04   5.2687962e-04   3.7874311e-04
   2.8529090e-05   3.6267770e-04   6.5839682e-05   5.0165247e-05   1.0533315e-03   2.1851221e-04   9.3898234e-06   5.8296846e-05  -1.2841928e-03   4.1705670e-04   4.0425043e-04   3.1607214e-04   6.5211738e-05  -7.2488024e-06   2.7933964e-04  -8.8532888e-06  -1.6615375e-04  -1.8436625e-04  -6.3791720e-04  -2.5023843e-04   1.0932307e-04  -1.0428482e-04  -5.6196266e-04  -2.3815650e-04  -3.4155947e-04  -2.0897506e-04  -3.7869159e-04   2.7677367e-04   5.1353749e-05  -1.3473172e-04   4.8947037e-04  -6.3798559e-04  -2.9626768e-04  -4.5656587e-04  -3.5402295e-03  -8.0556265e-04   3.1518342e-05  -5.5719301e-04  -1.9875972e-04  -9.6141006e-04  -5.2958785e-04  -3.9462699e-05  -4.7315403e-05  -5.9569970e-04  -1.4961105e-04  -2.5061445e-04   3.8392635e-04   2.6230307e-04   3.7311853e-05  -1.0384942e-04
  -1.0581093e-04   1.1620474e-06  -3.3660163e-04  -4.6544973e-04  -7.0053648e-04  -1.2905229e-04  -8.1720493e-05  -1.4013993e-04  -9.7588700e-04   4.9390720e-04   2.0099395e-04   2.3574711e-04   1.0471131e-04  -9.0474103e-05   9.9112811e-05  -3.6851226e-05  -9.4419294e-05  -1.4021528e-04   5.1692547e-03   3.4472559e-04   5.5327988e-04   4.6293324e-04   3.4472477e-04   7.5123062e-05   3.4319214e-04   2.7359743e-04  -2.5635108e-04   2.8459649e-04   8.6539163e-05  -1.4218038e-05   1.0565938e-03   2.3382838e-04  -1.7749870e-04   8.3754494e-05   2.8322731e-05  -1.9362173e-04  -1.4369990e-04   1.1416422e-04   3.8877249e-04   3.1468365e-04   4.0668470e-04   4.4020475e-04   5.2625983e-04   1.5955991e-03   2.9303273e-04   2.5782737e-04   8.8341901e-04   7.0138875e-04   7.5692189e-04   5.7001290e-04
   1.0607615e-03   7.2839583e-04   5.4778781e-04   6.1060546e-04   6.7069312e-04   2.5920189e-04   4.6075572e-04   4.0317792e-04  -6.7979778e-04   7.4623851e-04   5.5541075e-04   4.2122076e-04   2.9418265e-04   2.1837161e-04   2.0452481e-04   2.4902230e-04   2.1671312e-04   1.2283451e-04   2.8062728e-03   4.3502753e-04   5.7110563e-04   5.1624794e-04   5.9666322e-04   1.5888820e-04   4.8388707e-04   2.4396709e-04   2.1374157e-04   1.7673259e-05   5.7793153e-04   2.8890543e-04   1.0804544e-03   7.0602988e-04   1.3331592e-04   1.7677370e-05   5.8227993e-04   7.5813691e-04   6.8609510e-04   1.5723982e-04   2.4518822e-04  -8.1601646e-04   1.0358931e-04   3.3694939e-04   3.1141815e-04   5.5836659e-04   2.9568642e-04   5.4188154e-04   7.9814612e-04   5.5956934e-04   4.4722561e-04   2.6880432e-04
   2.1437442e-04   4.7105228e-04   3.5112724e-04   3.7285313e-04   3.7775381e-04   9.7801174e-05   4.9264781e-04   3.2088367e-04  -2.0586930e-03   5.0552754e-04   5.1166647e-04   2.9312586e-04   1.6260282e-04   1.7947127e-04   6.6204004e-05  -1.9184037e-05  -1.6055624e-04  -1.6561442e-05  -4.4356231e-03  -2.0731704e-05   2.8736299e-04   1.0544424e-04  -1.6516219e-04  -2.6946096e-04   5.0245720e-04  -3.0232494e-04  -3.8638944e-04  -4.0986680e-04  -1.2476195e-04   1.9800418e-05   3.3202163e-05  -3.2570647e-04  -3.0656552e-04  -3.0909709e-04   4.9456581e-04  -5.8414572e-04  -3.9786758e-04  -8.5509988e-04  -9.4056319e-05  -7.3046447e-04  -3.9990578e-04  -1.6713536e-06   1.3356342e-04  -2.1943438e-04  -1.2935384e-04  -2.3833927e-04   5.0188706e-04   3.1813869e-04  -3.6188394e-05   1.8747960e-05
   2.0578608e-04  -6.8858804e-05  -1.6301408e-04  -4.0185192e-04  -1.5361766e-04   1.3525442e-04  -1.8982799e-04  -2.8966271e-05   6.5238285e-04   3.1117338e-04   2.7818512e-04   1.4621810e-04  -1.3430235e-04  -2.0048158e-04  -1.5110634e-05  -1.8248102e-04  -3.3868582e-04  -3.2377697e-04  -1.7991561e-03   2.4404256e-04   5.2605779e-04   4.3629625e-04   1.9075038e-04  -3.8217517e-05   4.5974628e-04   5.1485331e-05  -4.1527671e-04   2.0628408e-04  -1.0925310e-04   5.7470046e-05   7.3451409e-04   6.0522236e-04   4.7178191e-04   2.2060667e-04   9.1043510e-04   9.0119219e-04   3.9855315e-04   1.0484001e-04   3.3350513e-04   4.7133985e-04   4.2279297e-04   4.4760108e-04   3.6858502e-04  -8.1633661e-05   3.9666845e-04   1.2417510e-03   8.9083827e-04   6.6858745e-04   4.2354365e-04   6.8955356e-04
   5.3285965e-04   5.8002846e-04   8.1972795e-04   4.6173114e-04   2.5002367e-04   9.1740396e-04   8.5021206e-04   4.5337054e-04   3.6611471e-03   8.0420374e-04   7.7684480e-04   4.4403382e-04   2.7023410e-04   4.1552095e-04   1.2345877e-04   2.5906885e-04   2.9127573e-04   1.6747200e-04   2.7763033e-03   4.3004320e-04   6.0948892e-04   5.8004190e-04   8.9261163e-04   7.8421159e-05  -8.4773928e-05   2.7525684e-04   7.8222009e-05   1.4797237e-04   8.4204512e-05   1.5638414e-04   7.0907571e-04   1.8772132e-04   1.0368694e-04   2.4177552e-04   1.9730558e-04   1.6348467e-03   2.0847674e-05  -2.2755989e-05   1.7664346e-04   4.6834862e-04   2.5508393e-04   3.4372421e-04   3.3830508e-04   9.7757962e-05   3.4697977e-04  -1.9733659e-04   8.2795357e-04   6.3407473e-04   5.4714357e-04   4.9081061e-04
   1.0772411e-03   4.2738504e-04   2.4895166e-04   3.0597879e-04   3.9604414e-04   1.6578082e-04   1.9922016e-05   2.5574258e-05   6.9504156e-04   5.3310208e-04   6.5321324e-04   3.7299757e-04   2.2714635e-04   1.9943983e-04  -8.6819950e-05   5.2635758e-05  -9.0224654e-05  -4.5860237e-05   8.3379057e-04   4.3100510e-05   3.2943231e-04   7.1609364e-05  -1.9446555e-04  -1.1022944e-04  -1.3010442e-03   1.4611342e-05  -4.1625754e-04  -1.4151123e-04  -4.0022674e-04  -9.7164972e-05   9.8092994e-04  -6.5448513e-04  -2.1976244e-04  -1.4489831e-04   7.7255856e-04  -2.2339825e-04  -4.5988392e-04  -8.1745535e-04  -5.9745656e-05  -1.9699140e-04  -1.1263460e-04   1.0997312e-04   9.4275791e-05   3.8811477e-04  -4.4429380e-05  -5.4084550e-04   4.7919352e-04   2.6825385e-04   6.7054832e-05   9.9016237e-05
  -1.2036221e-04   1.9822368e-05  -5.2707710e-05  -2.4677685e-04  -6.5495165e-05  -7.5938347e-05   1.2549921e-04  -3.1169297e-04  -2.9245571e-03   2.7379385e-04   3.3937563e-04   2.3442911e-04  -1.2786532e-04  -1.5206447e-04  -4.0373465e-04  -3.4183226e-04  -4.4830475e-04  -3.3064216e-04  -2.8105099e-03  -2.7632568e-04   1.5625940e-04  -1.2056547e-04  -1.6875702e-04  -1.7990566e-04  -2.1685567e-04  -2.2001064e-04  -1.6625749e-04  -2.5382312e-04  -8.9659751e-04  -1.3968949e-04  -7.7149208e-04   1.9753558e-04  -5.5023690e-04  -8.5928048e-05   3.1761095e-04   1.0050719e-03   1.0752178e-04  -1.7294929e-04   1.8484528e-04   6.8745756e-04   6.1501563e-04   3.5470125e-04   3.6471008e-04  -1.1898948e-04   4.9227511e-04   1.8974408e-04   7.7237864e-04   4.6311360e-04   7.3480088e-04   5.6780863e-04
   5.6264596e-04   6.8131858e-04   7.8378903e-04   7.6343754e-04   5.1314401e-04   6.9512136e-04   6.0301204e-04   4.9109454e-04   2.8265025e-03   1.1313159e-03   1.0320997e-03   6.6693116e-04   3.9354828e-04   3.7614326e-04   2.2308703e-04   1.7816716e-04   2.2874358e-04   1.6554764e-04  -4.0223624e-04   5.3448492e-04   5.6639372e-04   5.4792088e-04   7.1655971e-04   2.7181883e-04   1.8853156e-04   5.0554710e-04   1.1558275e-04   1.5261215e-04   2.6403379e-04   9.1249196e-05   3.4976390e-04   7.6600269e-04   8.0571976e-05  -1.4436824e-04  -3.8764768e-04   7.9197693e-04  -9.0639900e-05  -8.0814178e-05   3.4270322e-04   9.0270834e-05   7.6785963e-04   3.7828053e-04   5.9523358e-04   1.5516368e-03   3.0636438e-04   1.0521036e-03   7.4115791e-04   5.2978104e-04   4.2451938e-04   4.1970643e-04
   2.7826958e-05   5.1427371e-04   5.7110208e-04   4.7873784e-04   7.2102528e-04  -1.2465277e-04   3.9186198e-04   5.5688282e-04  -2.8590674e-03   9.5245586e-04   7.0564565e-04   5.8872008e-04   3.5943507e-04   4.2551535e-04  -1.7545544e-05   1.8445806e-05   6.4352262e-06  -9.6135322e-05  -5.0704455e-04   2.1226075e-04   4.1443482e-04   2.5785679e-04   3.5503125e-04   1.0800146e-04  -6.1985990e-04   1.2756862e-04  -6.1791012e-05  -2.0664344e-04  -5.9765938e-04   1.1242121e-04  -1.7481645e-04   5.0907477e-04  -2.8016811e-04  -2.7538280e-04   4.6815205e-04  -2.5763624e-05   7.0253108e-04  -3.6198026e-04   5.3092928e-05  -2.7668747e-04  -2.9414360e-04   1.4381751e-04   1.4013662e-05   2.3581155e-04   4.4439934e-05  -1.3667537e-04   4.3043989e-04   2.1734592e-04   3.1160377e-04   3.9277074e-05
  -2.6326717e-04   1.5586389e-04  -1.3997391e-04  -1.1301920e-04  -3.8209718e-04  -1.8091853e-04  -8.0514066e-05  -1.9108002e-04   6.0251663e-03   5.1799417e-04   3.2174747e-04   4.1453922e-04   4.2961277e-05   2.7273694e-05  -5.5791050e-05  -3.5970859e-04  -4.6665114e-04  -2.4063466e-04  -7.9507922e-04  -2.7568048e-04   7.3749572e-05  -2.5396244e-04   1.9084115e-04  -2.9629681e-04  -3.9700422e-04  -1.5178818e-04  -3.2355849e-04  -3.9046202e-04  -6.3711213e-04  -2.8761133e-04  -7.3552370e-04  -2.3388816e-04  -1.6167619e-04  -6.9350703e-04  -1.2914020e-03  -1.4027400e-04  -2.8618191e-05  -8.2949223e-04  -1.5537468e-04  -3.2584183e-04  -2.4576266e-05   6.6687237e-05  -6.6148263e-05  -2.0320335e-04   1.1886734e-04   1.0668644e-03   4.2042471e-04   1.9183708e-04   3.9576931e-04   2.3015100e-04
   3.8842062e-04   4.2374997e-04   4.9550761e-04   4.7700742e-04   7.0650422e-04   6.2181946e-04   3.7764036e-04   4.2620371e-04   5.8322080e-04   1.0412489e-03   7.2672393e-04   6.4481451e-04   1.2360781e-04   3.8663103e-04   1.8877396e-04   1.1845117e-04   9.4573239e-05   8.6748048e-05   1.1802602e-03   5.4656825e-04   6.0004729e-04   6.0629152e-04   6.4265670e-04   3.2001309e-04  -1.1418329e-04   4.1268274e-04   3.7502227e-04   8.6251648e-06   5.7645427e-04   1.9692909e-04   5.3944305e-04   3.8636752e-04   1.6043229e-04  -3.8366161e-06  -9.3066873e-04   3.0974860e-04   6.2223793e-05   1.2044292e-04   2.4506805e-04   3.6901183e-04   1.3278374e-04   1.9294313e-04   2.8701045e-04  -6.7667424e-04   1.9466590e-04  -1.5189851e-04   4.1831416e-04   2.4967539e-04   4.6836116e-04   2.7429298e-04
   4.1290306e-04   3.6082551e-04   3.6582144e-04   1.6365039e-04   8.1923773e-04  -4.6634781e-05   1.7495750e-04   1.8553485e-05   2.9778569e-03   7.7723025e-04   6.7470525e-04   5.3953676e-04   2.9995586e-04   1.9533483e-04  -2.2419804e-04  -9.2637463e-05  -1.1105214e-05  -2.5149260e-04  -2.6079339e-03   2.5788177e-04   3.5938746e-04   1.9684139e-04   2.1572226e-04  -1.2325957e-04  -4.2006388e-04   4.6945395e-05  -4.4871945e-04  -4.8499383e-04  -4.4884629e-04  -9.5211035e-05  -4.0055747e-04   9.2960472e-05  -2.1034948e-04  -1.2336804e-04  -2.1214881e-04   5.0626672e-04  -2.3006537e-04  -1.3223248e-04  -5.5672663e-05  -4.5866566e-04  -2.1411639e-04  -4.1023926e-05  -5.7907793e-05   7.4532604e-06  -2.7814633e-05   8.1722328e-04   1.1818115e-04   4.4080771e-05   9.9656914e-05  -1.9055644e-05
  -2.0649079e-05   3.8574035e-05  -5.2729656e-04  -2.7557136e-04   4.4526852e-05  -2.5455095e-04  -7.3470821e-04  -3.1575223e-04   1.5788455e-03   3.3344430e-04   1.6259671e-04   2.7954209e-04  -1.1309295e-04  -1.8953838e-04  -3.8896562e-04  -5.3217058e-04  -5.6675600e-04  -5.8266538e-04  -3.0185482e-03  -3.8029617e-04  -5.5082128e-05  -4.3354527e-04  -4.6839696e-04  -4.6974316e-04  -4.6743627e-04  -4.6237212e-04  -6.0189114e-04  -3.5425072e-04  -3.9197883e-04  -4.4238791e-04  -1.0709144e-03  -8.0471678e-04  -5.2577199e-04  -7.0109544e-04  -1.2561382e-03  -7.5571629e-06  -1.1717495e-04  -5.7003851e-04  -2.9157949e-04  -9.6651097e-04  -7.0544204e-04  -2.3691540e-04  -3.9570659e-04  -1.4495031e-03  -1.0152868e-04  -2.4743521e-04   3.6950994e-05  -9.5899311e-05   1.4483854e-04   9.5561445e-06
   3.1681685e-04   1.5003237e-04   8.9782021e-05   1.5501327e-04   2.5874507e-04  -4.4306862e-04   6.9153670e-04   1.2672556e-04   2.5511258e-03   7.0365961e-04   5.9923122e-04   3.7982283e-04   1.0963688e-04   1.0804707e-04  -4.5693407e-05  -1.8298227e-04  -1.7230683e-04  -3.7133851e-04   1.8700160e-03   3.3804317e-04   4.1030796e-04   2.4588295e-04   3.0715743e-04  -1.2656972e-04   5.8208546e-04   1.3978677e-04  -6.0053877e-05   1.1570001e-04   3.2220257e-04   1.6087768e-04  -2.7331812e-04  -2.5643662e-04  -3.5173062e-04  -2.6929201e-04  -5.3583836e-04  -9.3481073e-04  -3.4850367e-04  -5.5397535e-04   8.4860047e-05  -4.9568596e-05   1.6557417e-04  -3.9526218e-05   2.5993409e-06   7.8752654e-04   1.6666764e-04  -6.8257831e-04   8.6966742e-05   1.2941251e-04   2.0985209e-04   1.5701491e-05
  -2.4114303e-04   1.8213077e-04   1.0538513e-04   8.3849955e-06  -2.3057667e-04  -1.3964197e-04  -3.3145424e-04  -1.4190889e-04  -1.2771835e-04   4.7019319e-04   4.0406271e-04   2.8485170e-04   3.0158792e-05   3.6854394e-06  -6.6759836e-05  -3.4176660e-04  -3.6230858e-04  -4.3840596e-04  -2.7991147e-03   2.1745936e-05   2.0296039e-04  -6.7625377e-05   1.9455017e-04  -2.5738197e-04   1.1616464e-04  -5.1061903e-05  -3.7779519e-04  -5.1767670e-04  -5.7131314e-04  -2.1754504e-04  -1.1315279e-03  -6.4808683e-04  -2.9587536e-04  -3.7001792e-04   1.1300003e-03  -6.6218700e-04  -5.4469821e-04  -5.6169101e-04  -2.2305653e-04  -9.4431575e-04  -1.5284504e-04  -1.8413371e-04  -2.1772807e-04   1.1329357e-04  -1.3743315e-04   5.6012016e-04  -1.2740765e-04  -1.9176368e-04   2.6832737e-05  -8.1933422e-06
   2.2458086e-04  -1.3119241e-04  -4.6880192e-05  -4.9099693e-04  -2.2214086e-05  -5.4321025e-04  -6.3533109e-04  -2.7195437e-04   2.0533075e-04   1.2826559e-04   8.1773498e-05   1.0889626e-04  -3.0175145e-04  -5.0197839e-04  -2.4756658e-04  -5.9538160e-04  -7.3824206e-04  -4.7237027e-04   2.4270276e-03  -5.3392636e-04  -1.4778088e-04  -5.1622983e-04  -2.7470538e-04  -4.9155345e-04  -1.2620818e-03  -5.5501994e-04  -5.2816788e-04  -4.1259109e-04  -2.4739723e-04  -4.7903808e-04   3.0619942e-04  -4.8885518e-04  -7.3358178e-04  -4.8208315e-04  -5.2339508e-04  -9.0326922e-04  -3.7353183e-04  -4.7920522e-04  -6.0631526e-05  -4.2108347e-04   3.4127841e-04  -6.3476007e-05   2.4711996e-04  -5.0801615e-04   6.8990244e-05  -7.3172658e-04   4.7450030e-05   1.1430070e-04   1.9173785e-04   3.4408775e-04
   4.9511611e-04   2.7661180e-04   8.5199914e-05   1.8679950e-04   1.3771535e-04   2.2910665e-04   2.1145833e-04   1.8727314e-04   5.5754874e-03   6.0692214e-04   5.5495428e-04   3.2119273e-04   7.6555094e-05  -5.7220284e-05  -9.5333991e-05  -2.2487328e-04  -2.4666919e-04  -2.3136039e-04   6.2326924e-04   2.5896967e-04   2.6388370e-04   1.6442747e-05   4.5511399e-05  -1.2373416e-04  -1.2757417e-04   2.3301599e-04  -3.1814101e-04  -3.6433601e-04  -2.4351839e-04  -9.3264549e-05   1.8960061e-04  -2.8341234e-05  -3.8055249e-04  -4.4633582e-04   2.6589757e-04   4.6877973e-04  -3.4406051e-04  -1.5654763e-04   2.3948707e-05   1.0672359e-04   2.2720720e-04  -5.1027218e-06   3.8375563e-04   2.1334020e-03   5.9265749e-06  -4.4085385e-04   3.1922267e-05   6.4851811e-05   2.0496514e-04   2.8153090e-04
   1.8747152e-04   6.1256062e-05  -2.8944620e-05   3.1246913e-05  -5.1126783e-05  -6.2486372e-04   1.6527217e-04  -1.5852963e-04   4.3345550e-03   4.4514050e-04   5.0031603e-04   2.2220689e-04  -2.5801428e-04  -3.0894103e-04  -6.4671208e-04  -4.1806253e-04  -3.4824558e-04  -3.5671331e-04   2.0989903e-05  -1.7981422e-04   3.2107266e-05  -2.5457150e-04  -5.2888652e-05  -3.4837020e-04  -2.0700695e-04   2.2003238e-05  -2.2279522e-04  -8.8366313e-04  -3.3846640e-04  -4.2764971e-04  -1.2786692e-03  -6.2443753e-04  -7.3012523e-04  -4.1539490e-04  -1.4589499e-03  -2.8703178e-04   9.6298827e-05  -2.6640121e-04  -2.1461479e-04   1.2442200e-04  -1.7507392e-04  -1.7495765e-04   2.8519283e-04   1.3204174e-04  -2.5663944e-04  -7.1623182e-04  -1.9499098e-04  -1.4166918e-04  -3.1056619e-04  -3.9112721e-05
  -5.9560442e-04  -2.7422878e-04  -2.9635170e-04  -6.6899037e-04  -2.0040234e-05  -5.5825087e-04  -5.7772198e-04   2.5898951e-05  -1.5086657e-03   4.8251793e-04   2.4089738e-04   1.7431065e-04  -2.5646490e-04  -4.3082202e-04  -3.1078650e-04  -3.4661993e-04  -3.5428346e-04  -2.7103981e-04   1.9156020e-03   2.8719413e-04   3.2366876e-04   1.6160111e-04   3.7083600e-04  -1.2511139e-04   4.8369158e-04   2.8747469e-04  -4.2215284e-04  -4.2337051e-04  -2.6026019e-04   8.8856359e-05  -9.3645923e-04   1.5852983e-04  -1.8695717e-04  -8.1206323e-05  -5.3928012e-04  -7.8108261e-04  -2.0469853e-04   5.3928624e-04   2.7934238e-04   2.1387436e-04   9.2887366e-04   2.4581762e-04   6.8001280e-04   1.5077702e-03   2.3737332e-04   5.6750458e-05   2.6164696e-04   4.6539851e-04   3.7994029e-04   4.1990151e-04
  -3.5468664e-04   4.2241486e-04   6.3542748e-04   5.3199567e-04   4.2894346e-04   8.8886773e-05   4.1294700e-04   3.8873107e-04   6.0678311e-03   8.3001115e-04   7.2599365e-04   4.2165362e-04   1.8709093e-04  -7.3604409e-05  -3.7148525e-04  -1.0204923e-04  -9.8522709e-05   3.2653930e-05  -5.0109602e-04   3.7101997e-04   2.9619929e-04   1.1917928e-04   3.4246946e-04   4.2290398e-05   4.4663680e-05   3.7933065e-04  -1.4013519e-04  -3.0111556e-04   2.3895828e-04  -9.5006704e-05  -1.7891508e-03  -3.2789723e-04  -5.1435793e-04  -1.6476084e-04  -9.1555034e-04   4.2358073e-04   5.2849759e-05  -1.6956890e-04   1.5844077e-04   1.0065609e-03   6.1027583e-04   2.3365711e-04   5.1180978e-04   4.0791093e-04   4.9384966e-05  -1.0076272e-03   1.9402687e-04   4.0229503e-04   1.6459996e-04   3.3190186e-04
  -9.3629729e-05   1.6556072e-04   1.4946923e-04   8.4962821e-06   4.0765121e-06  -4.0361416e-04   7.9968639e-05   8.6492866e-05   8.4793894e-04   6.1970868e-04   5.3560286e-04   3.5337056e-04   6.9596055e-05  -2.7683523e-04  -1.0098282e-04  -2.4911348e-04  -2.9438283e-04  -1.7267991e-04  -3.1739760e-03  -6.9773174e-05  -5.9643721e-06  -3.2967250e-04   2.4927314e-04  -2.2122711e-04  -5.1856902e-04   2.6492140e-04  -1.8750070e-04  -7.5712294e-04  -1.6092981e-05  -2.6780824e-04  -4.7925476e-04  -6.6281587e-04  -9.6083409e-04  -3.4812646e-04  -1.3126867e-03  -7.4310642e-04  -7.9454930e-04  -3.3992206e-04  -2.0647132e-04  -1.0969733e-03   3.3416410e-04   3.1457177e-05   1.7687038e-04  -4.6685300e-04  -9.1892223e-05   8.3086174e-04   1.8701775e-04   4.2166238e-04   1.8185786e-04   3.9218331e-04
   2.6499887e-04   2.7576342e-04   4.7542257e-04   5.7317398e-04  -4.0495358e-04   7.6029406e-05   5.4240227e-04   4.9010076e-04   9.8175323e-04   1.0845496e-03   8.2996377e-04   5.4959406e-04   3.2146942e-04  -1.7698652e-05   4.6191457e-05   5.5591408e-05   1.2167009e-04   2.1581388e-04   2.1336311e-03   6.5970671e-04   5.2423321e-04   3.4665258e-04   5.5463752e-04   3.5358066e-04  -5.1203966e-05   7.4232119e-04   2.0784505e-04  -4.1953017e-04   2.8378726e-04   3.1102842e-04  -2.8274729e-04   1.3906148e-04   7.2104199e-06   4.0391111e-04   1.6048329e-03   8.7516259e-05   4.0042115e-04   4.2022343e-04   4.3192101e-04   1.1606711e-04   1.1684861e-03   4.7892239e-04   9.0832979e-04   1.4411351e-03   1.8256286e-04   1.4243239e-03   4.0584014e-04   6.8453391e-04   4.3982908e-04   5.4269860e-04
   5.0550746e-04   4.3481874e-04   5.7456788e-04   6.4866827e-04   1.0110994e-03  -1.2849667e-04   8.1739394e-04   1.5637136e-04   1.5561986e-03   9.7170501e-04   9.6175203e-04   4.8500512e-04   3.2089249e-04   4.8381913e-05  -1.8133635e-04   1.6109357e-04   1.4117536e-04   1.5478981e-04  -6.9926376e-04   4.9594959e-04   3.9659569e-04   7.8846839e-05  -2.3481451e-04   6.6251916e-05  -2.4616096e-05   4.8125407e-04   7.3101590e-05  -6.3873606e-04   1.6037292e-04  -1.8855209e-05   1.1953121e-03  -1.6182156e-04  -3.8743258e-04   4.5913621e-04  -2.4310339e-04   1.0246816e-03   1.5906082e-05  -7.0348186e-05   1.7300578e-04   3.1873566e-04   5.8876636e-04   2.8778482e-04   8.5243653e-04   2.7249026e-04   8.6886517e-05  -2.2583157e-04   2.1422688e-04   5.9935864e-04   1.7986698e-04   3.4835376e-04
   1.3152709e-04   1.9588655e-04   2.0602401e-04   1.1333280e-04   6.7564324e-05  -1.3285333e-04  -5.2304858e-05   3.2301978e-04   2.7128474e-03   5.9978169e-04   5.0464389e-04   2.9559273e-04   1.2563170e-05  -2.6285765e-04  -4.0376577e-05  -8.5107400e-05  -1.8129531e-04  -1.6579096e-04  -4.3515669e-04  -9.5494426e-05  -1.2738499e-05  -4.6460013e-04   3.0522695e-04  -3.5510174e-04  -6.5563037e-04  -4.6812625e-06  -1.0660799e-04  -6.4365205e-04  -3.3074501e-04  -3.7148310e-04  -1.1991907e-03  -1.3242055e-04  -5.8415113e-04  -4.4744168e-04   7.8809354e-04  -7.2373642e-04  -1.1693744e-04  -5.5134681e-04  -6.1765102e-05  -4.9602351e-04   7.7453547e-04   2.9022264e-04   9.1272919e-04  -7.8292657e-04   2.0417530e-04   1.1581316e-03   3.6442233e-04   7.7284069e-04   3.5319079e-04   3.7160850e-04
   8.0947508e-04   4.9649447e-04   6.8349042e-04   8.9990639e-04   5.6802755e-04   3.9578258e-04   1.7553158e-04   8.7200792e-04   2.5785745e-03   1.1313638e-03   9.7813155e-04   5.3201010e-04   4.2008946e-04   2.2468728e-04  -1.0307390e-04   4.5045343e-04   3.3234883e-04   4.7721772e-04  -1.6904949e-03   7.0874160e-04   5.8834680e-04   3.5589444e-04   7.6636119e-04   2.3817361e-04   5.4534362e-04   6.4766424e-04   1.0252071e-04  -2.2652613e-04   2.8592642e-04   2.5745149e-04   9.2222611e-04   5.0543866e-04   1.1328718e-05   3.1316973e-04   1.9371283e-04   1.2678967e-03  -2.1736453e-04   4.3369696e-04   4.3156330e-04   6.9070479e-04   1.1800438e-03   5.2116875e-04   1.0997540e-03   6.1972562e-04   3.6486963e-04  -6.1758159e-04   4.7596497e-04   9.3111710e-04   4.5845535e-04   4.9896212e-04
   4.8924610e-04   4.8193603e-04   9.7419345e-04   7.2233379e-04   7.2941382e-04  -1.9760030e-04   5.1049347e-04   2.9148223e-04  -2.2050857e-03   1.0145520e-03   9.8083832e-04   4.9204211e-04   4.1688295e-04   2.4378648e-04   3.0878844e-04   3.8650777e-04   3.3069358e-04   3.3073104e-04  -3.0819417e-03   3.9592577e-04   3.8330516e-04   5.5469714e-05   7.1700499e-04   4.6379562e-05   2.7109450e-04   4.9866445e-04   3.2111187e-04  -4.7298922e-04  -1.6774169e-05   1.1920572e-04   3.2143435e-04   3.4879992e-04   8.3429382e-05   4.3736049e-04  -8.2504243e-04  -6.0874753e-04  -8.1152184e-04  -7.2550778e-05   2.3515894e-04   3.3611903e-04   9.5349312e-04   3.3253295e-04   7.5580197e-04   3.8878532e-04   7.0354849e-06  -7.7234517e-04   2.7281881e-04   6.9778651e-04   3.6078610e-04   3.0679718e-04
   4.1957293e-04   1.4635183e-04   2.7399353e-04   2.2077761e-04   1.2007941e-04  -5.9076835e-04   2.8556993e-04  -4.4460045e-04   3.2187577e-03   5.8589032e-04   5.0007267e-04   2.5323045e-04   1.8361083e-04  -1.3314138e-04  -3.9813307e-04   5.3541116e-05  -1.0108163e-04  -4.9846487e-05   1.8389068e-04  -1.2608622e-04  -2.4948736e-06  -4.3990678e-04  -1.0721021e-04  -2.9395230e-04  -7.1306620e-04   9.9193399e-05   2.8015103e-04  -6.5175467e-04  -3.5620775e-04  -3.3720632e-04  -5.2093645e-04  -6.0381187e-04  -7.2178768e-04  -3.6875470e-04   7.0282258e-04  -2.5257484e-06  -7.4157619e-04  -3.7074805e-04  -1.4554070e-04  -7.0743327e-04   1.6120650e-04   1.4239643e-04   6.8496895e-04  -2.3530233e-04  -4.9894716e-05  -6.5611169e-04   2.3027105e-04   5.3764111e-04   3.0649829e-04   2.8839009e-04
