   1.5526064e-03   9.0014352e-04   7.9381134e-04   1.0353125e-03   7.3201023e-04   8.8586280e-04  -2.2869506e-04  -2.6052207e-04  -1.6043635e-04   3.3385310e-04  -5.8421533e-04  -1.2416769e-04  -4.4316039e-05   5.3535547e-05   1.0087559e-04   3.7179221e-04   5.2403379e-04  -6.6153024e-04  -1.3962896e-03   1.0437400e-03   6.6367624e-04   1.3515179e-03  -5.4968166e-04   2.6726315e-04   2.7075414e-05  -1.1327715e-03  -3.6090333e-04   5.9271290e-04  -2.0240319e-04  -7.7847726e-06  -3.6945267e-04  -1.5432344e-04   2.8741520e-04  -2.4203989e-03  -1.4668853e-04   1.2774703e-03  -3.2776347e-04  -2.4036752e-04   4.0813143e-04  -2.4089853e-03  -2.9355513e-03  -2.7928858e-03  -2.7275681e-03  -1.2760061e-04   4.2406490e-04  -1.9941097e-03   1.8920048e-04   1.2400176e-04  -7.7689835e-04  -2.9966044e-03
   2.0386155e-03   1.2408646e-03   1.2112806e-03   1.5691340e-03   9.2692417e-04   1.0452559e-03   1.5343890e-04  -1.8204824e-05  -1.8505163e-03   8.8626076e-04   2.1069576e-05   1.3435578e-04   3.8118396e-04   5.7035033e-04   2.7149005e-04   8.0918765e-04   1.1005795e-03  -3.1342130e-04  -4.4757823e-04   1.8093261e-03   1.1838352e-03   2.0902480e-03   2.7403171e-04   5.3130067e-04   2.1183940e-03  -5.6984427e-04  -2.8231257e-04   1.1032945e-03   6.3059840e-04   4.9008505e-04   5.9155555e-04   7.4524625e-04   3.0139994e-04  -1.9453553e-03  -4.7468382e-04   6.6897477e-04   2.3455416e-04   1.9187086e-04   4.8608863e-04  -2.3431818e-03  -3.4761592e-03  -2.7555707e-03  -2.8033035e-03  -6.3061406e-04   2.9521732e-04  -1.1503282e-04   1.5070863e-04  -6.2004106e-06  -1.1063421e-03  -3.2281100e-03
   2.2956801e-03   1.2200176e-03   1.1744560e-03   1.3508979e-03   5.1881059e-04   1.5784624e-03   1.2324729e-04   4.2937172e-06   3.1324197e-03   6.4954063e-04  -2.8661170e-04   4.1988420e-05   3.1465810e-04   2.6386784e-04   1.7345486e-04   7.0374599e-04   9.1304199e-04  -4.8729902e-04   1.0223299e-03   1.5361769e-03   1.0189522e-03   1.8179286e-03   3.3473782e-04   4.5441007e-04   3.8166650e-04  -9.0762012e-04  -4.7353280e-04   2.4652196e-04   6.3841103e-04   3.5048806e-04   1.5592879e-03   8.3030562e-04   4.3160818e-04  -1.9817720e-03  -1.3308684e-04   5.5560452e-04   6.5974763e-04   1.0153020e-04   3.8629910e-04  -1.3190911e-03  -3.9394633e-03  -3.0599104e-03  -3.2113993e-03  -1.4420090e-03   1.8482312e-04  -3.4403792e-03  -1.5595507e-04  -2.9670115e-04  -1.9738427e-03  -3.5620886e-03
   2.4135904e-03   8.3771633e-04   7.0001569e-04   9.4610726e-04   2.0147246e-04  -3.8089427e-05   3.5794848e-04  -3.1211504e-04   5.4941239e-04   2.6052748e-04  -5.9324445e-04  -1.3918316e-04  -2.9329221e-05  -6.5023611e-05   7.0240072e-05   3.3433389e-04   6.7374192e-04  -8.5357478e-04   2.4646730e-04   1.3536165e-03   9.9923904e-04   1.7776611e-03  -1.7828753e-04   3.9678390e-04  -2.1969470e-04  -1.0813022e-03  -3.8004445e-04   4.1110037e-04   6.4734620e-04   1.4343706e-05   6.1947003e-04   3.1626510e-04   8.7688112e-04  -1.9202812e-03   2.9621171e-04   2.5904988e-04   5.6789053e-04   2.5960043e-04   4.6770042e-04  -1.9628461e-03  -3.3034300e-03  -2.7138849e-03  -2.6481906e-03   9.3285245e-04   4.3467589e-04  -1.8077550e-03   2.5442950e-04   1.2981021e-04  -8.8110840e-04  -3.0486325e-03
   2.8892297e-03   1.3842852e-03   1.3543299e-03   1.6441080e-03   8.1715256e-04   1.8032078e-03   5.0463475e-04  -1.7730422e-04  -1.2234870e-03   9.1964158e-04   1.0644423e-04   1.8213468e-04   5.7187880e-04   4.9031706e-04   4.2740948e-04   8.7575649e-04   1.2012940e-03  -1.5373758e-04   1.0624129e-03   1.9517636e-03   1.2684535e-03   2.2315786e-03   2.9711556e-04   6.9474342e-04   2.6129215e-04  -6.6835497e-04  -2.2976263e-04   2.7248994e-04   5.7397777e-04   2.8848267e-04   1.4837340e-03   1.2989771e-03   9.4541354e-04  -2.0725657e-03   1.9229180e-04   1.0620334e-04   8.5038767e-04   3.7331943e-04   6.0657156e-04  -1.3400306e-03  -3.1797891e-03  -2.7275032e-03  -2.7698260e-03   1.4315724e-03   3.1439416e-04  -2.2857694e-03   2.1992842e-04  -4.4214403e-06  -1.0572184e-03  -3.1234308e-03
   1.8167190e-03   1.3358649e-03   1.3871809e-03   1.3485197e-03   6.3613948e-04   1.3849988e-03   3.3251659e-04  -1.0906091e-04  -2.2888782e-03   6.8718573e-04  -2.5072807e-04   8.8499830e-05   4.3538539e-04   4.0940542e-04   3.0686706e-04   7.0847827e-04   1.0186125e-03  -3.5377033e-04   8.6356822e-04   1.4763633e-03   1.0474995e-03   1.8521848e-03  -3.9402925e-04   3.4019619e-04   6.8539975e-04  -7.6459569e-04  -1.2144220e-04   5.1465665e-04   3.3742026e-04   1.7564207e-04   2.1296982e-03   8.6879096e-04   9.7160059e-04  -2.0768491e-03  -9.8439481e-04  -6.0921028e-04   2.9693305e-04  -1.2301610e-04   3.4508534e-04  -1.8856130e-03  -3.8971729e-03  -3.0523171e-03  -3.2278572e-03   1.0097945e-03   2.9863839e-04  -3.3260661e-03  -1.1184894e-04  -3.5801297e-04  -1.5359743e-03  -3.5743667e-03
   1.9499176e-03   8.6564868e-04   7.7219278e-04   1.0303152e-03  -9.9930194e-06   6.5078889e-04   1.6808326e-05  -1.3846459e-04   4.1154656e-03   3.0757079e-04  -6.8131014e-04  -1.3502211e-04   1.8524082e-05   8.9288777e-05   1.2659475e-04   3.0952122e-04   5.3690793e-04  -8.4254472e-04   6.8341743e-04   1.4519590e-03   1.0365575e-03   1.8482303e-03  -3.4225057e-04   4.0375892e-04   1.0571142e-03  -1.0329770e-03  -8.4328395e-04   5.5698963e-04   1.9253639e-04   5.6789351e-05   1.6055437e-03   9.4736251e-04   7.5256755e-04  -1.8009386e-03   2.1912363e-06   5.7802862e-04   3.3449894e-04   2.9985289e-04   4.4991836e-04  -1.9472078e-03  -3.2995436e-03  -2.7158265e-03  -2.6357234e-03   1.1467108e-03   5.7735963e-04   1.0364247e-04   2.5723214e-04   1.4611789e-04  -9.8048756e-04  -3.0728136e-03
   2.3237709e-03   1.4615385e-03   1.1773811e-03   1.7540820e-03   2.7528903e-04   1.9398249e-03   9.2539284e-04   2.1425757e-04  -2.1948253e-03   9.3617640e-04   1.0543285e-05   1.8926780e-04   4.1966469e-04   5.0052960e-04   1.6254475e-04   8.9697086e-04   1.1782526e-03  -2.1061291e-04   4.0141344e-03   1.7908731e-03   1.2992969e-03   2.2963884e-03  -6.3441621e-05   6.6451362e-04   1.4835956e-03  -5.5266148e-04  -2.2375208e-04   8.6277555e-04  -2.3397579e-04   3.4778527e-04   1.4192617e-03   9.7601814e-04   1.1047806e-03  -1.7691624e-03  -2.9055803e-04   1.9574854e-04   5.0098373e-04   3.3183291e-04   5.4016220e-04  -1.7431867e-03  -3.6020451e-03  -2.7295519e-03  -2.8161155e-03   6.8315992e-04   4.1507438e-04  -3.0948941e-03   2.1075332e-04   1.6745831e-05  -1.0127540e-03  -3.1535823e-03
   2.2017541e-03   1.2671323e-03   1.3655156e-03   1.2941521e-03   8.0652477e-04   1.3835125e-03   2.8992043e-04  -4.6486020e-04  -5.4407521e-04   6.8706501e-04  -3.4100446e-04   1.0605803e-04   3.0059062e-04   3.6781139e-04   2.2745295e-04   7.6534221e-04   1.1128510e-03  -3.4328343e-04  -2.3370201e-03   1.6339305e-03   1.1045180e-03   1.9508414e-03  -1.1265651e-05   3.3338642e-04   9.7559841e-04  -9.3124091e-04  -6.9124869e-04   3.0359239e-04   4.3251849e-04   8.8340552e-05   6.3796528e-04   8.4381475e-04   6.1447686e-04  -1.7475311e-03  -4.8401629e-04   8.6333422e-04   9.0656389e-04   5.1275996e-04   3.2768567e-04  -2.5419567e-03  -3.8156155e-03  -3.0638804e-03  -3.2185060e-03  -1.1809753e-03   3.7105376e-05  -1.9264042e-03  -1.2243522e-04  -3.8341898e-04  -1.6742519e-03  -3.5429464e-03
   1.6660645e-03   9.2070975e-04   8.0962019e-04   9.4613060e-04   1.9251460e-05   5.9312291e-04  -4.8929470e-04  -1.5980568e-04  -2.6988727e-04   2.2802000e-04  -7.1344327e-04  -9.6019110e-05   7.7228935e-05  -1.6989540e-04   1.4923523e-04   3.5751922e-04   5.8703707e-04  -7.6509593e-04  -1.9778057e-03   1.0602184e-03   7.6785707e-04   1.5707138e-03  -2.0115722e-04   1.5411353e-04   8.0834673e-04  -1.2473097e-03  -6.4787152e-04   2.4983301e-04  -6.7866073e-05  -6.6352928e-05   4.7303963e-04   5.3088454e-04   8.3961774e-04  -2.0161048e-03   1.3568104e-03  -4.6822042e-04   1.0016696e-03   4.9506524e-04   2.3507235e-04  -2.2339041e-03  -3.3705039e-03  -2.8120617e-03  -2.9858758e-03  -3.4783068e-04   3.3617052e-04  -1.7790418e-03   1.3166128e-04  -8.5820982e-05  -9.7003288e-04  -3.0772451e-03
   1.7021039e-03   1.3319140e-03   1.2430147e-03   1.4400909e-03   7.9913554e-04   1.2264169e-03  -1.1930908e-04  -2.3823958e-04  -1.2350959e-03   8.2308304e-04  -1.8980085e-04   1.8257258e-04   5.2280561e-04   4.7052253e-04   1.6256928e-04   8.9658925e-04   1.1928380e-03  -2.4476985e-04  -1.5615848e-03   1.8220331e-03   1.2327480e-03   2.2027735e-03   2.1957536e-04   6.3404220e-04   1.0808421e-03  -8.3926338e-04  -1.6084447e-04   3.4538121e-04   2.2656462e-04   5.2527420e-04  -7.1947870e-06   9.0669561e-04   7.8964618e-04  -1.9030897e-03  -6.1946826e-05   9.8780112e-04   5.1405688e-04  -1.2297467e-04   4.7851057e-04  -8.3298475e-04  -3.0825962e-03  -2.7939694e-03  -2.8917417e-03  -4.4198087e-04   2.5660440e-04  -2.4967417e-03   1.0898394e-04  -1.9036597e-05  -1.0550084e-03  -3.2693313e-03
   2.0472195e-03   1.2891771e-03   1.2567423e-03   1.6412039e-03   9.0853992e-04   1.2357256e-03   2.2992028e-04  -5.7664340e-05  -5.0586328e-04   5.9422245e-04  -3.7600994e-04   6.8662630e-05   2.5812603e-04   3.7667208e-04   3.3192526e-04   6.1985111e-04   9.0884417e-04  -4.0904229e-04  -4.8628121e-04   1.4485714e-03   1.0191046e-03   1.9133694e-03  -2.1858986e-04   4.1442431e-04   1.2197272e-03  -9.5726503e-04  -3.5519528e-04   3.6790466e-04  -4.2192117e-04   7.1325405e-05   3.5685851e-04   1.3272066e-03   8.2776701e-04  -2.1633785e-03  -1.0922931e-03  -2.3167371e-05   5.5962708e-05   3.0334273e-04   2.5336043e-04  -2.7199073e-03  -3.6650053e-03  -3.0577965e-03  -3.2642607e-03  -1.5411427e-03   8.2149876e-05  -2.9946503e-03  -2.2433919e-04  -4.7555642e-04  -1.6818371e-03  -3.5565097e-03
   2.1433015e-03   8.5330982e-04   9.1293798e-04   8.6560502e-04   1.8750523e-05   6.2727189e-04   1.6220784e-04  -6.2061311e-04  -1.4638861e-03   1.5986622e-04  -7.6305517e-04  -1.1087953e-04   5.9234917e-05  -2.1526139e-04   2.3242013e-04   4.1712919e-04   4.9019553e-04  -8.0737809e-04   2.7956215e-03   8.8750682e-04   5.5445440e-04   1.3048757e-03  -8.7760738e-04  -1.2604262e-05   2.2900173e-04  -1.3742277e-03  -5.9177412e-04   3.4801537e-04  -6.7872985e-05  -9.4305862e-05   1.3750428e-04   3.2557608e-04   1.9665266e-04  -2.8304413e-03  -2.9260173e-04  -7.3462178e-04  -6.3795393e-04  -1.3613378e-04  -5.3938937e-05  -2.0546014e-03  -3.7250540e-03  -3.0158700e-03  -3.1319801e-03  -1.3656954e-03   1.2436970e-04  -1.1224713e-03  -7.0669907e-05  -2.0648398e-04  -1.3667471e-03  -3.3648966e-03
   1.4269233e-03   1.0405701e-03   1.2503861e-03   1.2480855e-03  -3.4565677e-05   8.0877158e-04  -4.5565880e-04  -1.5032278e-04   5.8476967e-03   6.9813803e-04  -3.4205909e-04   1.8584278e-05   3.5076303e-04   3.4665325e-04   4.6928082e-05   5.9138279e-04   1.0080056e-03  -2.9968948e-04  -3.0863641e-03   1.6731304e-03   1.0881067e-03   2.0476994e-03  -4.9738141e-05   4.2522134e-04   8.3355926e-04  -8.6803263e-04  -3.5765202e-04   2.5733281e-04   4.4749962e-04   1.8766597e-04   1.4485605e-03   5.4882775e-04   6.7872176e-04  -2.1128561e-03   1.3401203e-03   6.8855792e-04   9.0219348e-04   2.6145801e-06   3.0729183e-04  -1.7477567e-03  -3.2989148e-03  -2.9110257e-03  -2.9613941e-03  -4.0493309e-04   1.4469746e-04  -2.8320099e-03  -1.3033165e-05  -2.5319430e-04  -1.2856579e-03  -3.2193344e-03
   2.3276703e-03   1.1048056e-03   1.2129606e-03   1.3508684e-03   7.1130419e-04   8.3526445e-04  -1.3778644e-04  -7.3537136e-05   4.6334257e-03   7.9550548e-04  -3.7035681e-04   1.0665573e-04   3.6175636e-04   9.8459263e-05   2.6138214e-04   6.5985677e-04   1.0626520e-03  -3.8747620e-04   7.7280850e-04   1.3199700e-03   6.9292885e-04   1.5028606e-03  -4.0378622e-04   4.7526549e-04   4.1441678e-04  -6.5577979e-04  -4.8455104e-04   2.7993383e-04   5.7758577e-04  -6.4254855e-05   4.0927532e-04   1.5264869e-04  -1.9090666e-04  -2.0296427e-03  -2.0260722e-03   6.3882518e-04   1.2417475e-04   1.3477159e-04   2.1660967e-04  -1.0288307e-03  -2.9857657e-03  -2.9617082e-03  -2.9247305e-03  -9.2488277e-04   3.2699303e-04  -1.4728997e-03  -3.0630882e-04  -3.0358930e-04  -1.1279418e-03  -3.2877254e-03
   1.8849224e-03   6.4129953e-04   4.5681209e-04   6.8088283e-04   2.8293801e-04  -4.2938837e-04  -9.2622975e-04  -5.9217995e-04   3.8469450e-03   4.1084056e-04  -6.6028011e-04  -1.0913677e-04  -2.0780225e-04  -5.3173892e-04  -5.6163047e-04   1.7390582e-04   3.7127384e-04  -7.6771819e-04   3.8986810e-04   4.1310233e-04  -6.6431254e-05   2.5138384e-04  -9.2694734e-04   1.7200453e-04   7.8084890e-04  -9.7978942e-04  -4.4457187e-04  -3.8650961e-04   1.2618040e-05  -4.6520092e-04  -1.1013075e-03  -1.1213598e-04  -1.7493926e-03  -2.7003677e-03  -2.3841008e-04   1.3015487e-03  -3.9334418e-04  -3.2470949e-04  -9.1800823e-05  -2.6209601e-03  -2.3932888e-03  -2.0873947e-03  -1.9771219e-03  -3.4206801e-03   7.8605558e-04  -1.0961236e-03  -3.3190381e-04  -4.6699406e-05   2.4009560e-04  -1.7397708e-03
   8.5120054e-04   5.3843268e-04   3.9516095e-04   7.5438106e-04  -4.7456063e-04  -3.8389085e-04   2.8704957e-05  -6.0149888e-04   4.0664521e-04   1.2345290e-03  -5.4659293e-05   2.2786514e-04  -3.0205843e-05  -3.6639081e-05  -1.0787880e-04   3.5419554e-04   5.2351959e-04  -4.8061131e-04  -8.9318288e-04   6.6664047e-04   1.9896035e-04   2.1561820e-04  -2.2553145e-04   5.7030213e-04  -4.6501250e-04  -1.0241472e-04  -2.8461678e-04  -8.8873327e-05   2.9673259e-04  -2.0592190e-04   2.9612391e-04  -6.9555209e-04  -1.0128113e-03  -2.1110771e-03  -7.0842914e-04  -4.1307569e-05   1.1051376e-04   1.2304747e-04   2.6281303e-04  -8.1656669e-04  -1.1535807e-03  -1.3223247e-03  -9.7653846e-04  -2.0573433e-03   5.9458741e-04  -2.5301999e-03  -3.0770566e-04  -4.0597159e-05   5.3093998e-05  -1.3493994e-03
   5.4095173e-04   4.0313473e-04   1.3945659e-04   5.5029645e-04  -1.4080182e-05  -5.2181573e-04   8.2398576e-05  -9.4507943e-04   1.2093103e-03   8.0710067e-04  -2.1848007e-04   2.4481776e-06  -2.3756921e-04  -1.7769197e-04  -2.0412976e-04   1.5024460e-04   1.6693714e-04  -5.7636475e-04   2.0018267e-03   3.0440770e-04   4.4158601e-06  -2.0901450e-04  -3.6210701e-04   4.1245195e-04  -7.2296534e-04  -1.6844741e-04  -6.0161913e-04  -7.3728326e-05  -2.3104221e-04  -2.8731502e-04  -8.6189708e-04  -5.0612225e-04  -1.2837837e-03  -1.8780984e-03  -6.6019762e-05   5.0551658e-05  -9.1515417e-04  -3.3888491e-04  -7.5148404e-05  -1.5529239e-03  -2.2175162e-04  -1.4300401e-04   8.5378226e-05  -2.1957613e-03  -1.0354234e-04  -8.9088664e-04  -5.3679396e-04  -5.2390940e-04  -4.0536158e-04  -1.1525850e-03
   1.1078497e-04   2.1144948e-05  -1.9481237e-04   8.2772327e-05  -4.0958083e-04  -7.8547443e-04  -8.9280348e-04  -6.7089923e-04   3.4101612e-03   2.6860667e-04  -5.1036803e-04  -2.7714478e-04  -6.1653659e-04  -7.2804891e-04  -4.9970573e-04  -1.8442993e-04  -6.6943379e-04  -8.6504687e-04   5.1714561e-04  -4.6096501e-04  -6.3121866e-04  -1.1591673e-03  -4.1234589e-04   9.4050432e-05  -7.3362509e-04  -3.5916959e-04  -7.1362010e-04  -2.1481050e-04   1.5016976e-04  -3.0728208e-04  -9.2069199e-04  -1.0077762e-03  -1.6647156e-03  -1.4186265e-03  -1.5969533e-03  -7.9918426e-04  -7.9669739e-04  -6.7568425e-04  -1.1114986e-04  -8.5507432e-04   5.7674584e-04   5.1982258e-04   8.6478767e-04  -4.0371066e-05  -3.3128116e-04  -7.9646830e-05  -2.4381334e-04  -4.1547095e-04  -2.2027330e-04  -2.6368647e-04
  -5.5543979e-04   2.4612772e-04   1.2864055e-04   5.2384753e-04  -4.1875459e-04  -5.0229928e-04  -9.3796465e-05  -4.9357204e-04  -8.0968451e-04   1.0320096e-03  -1.4982047e-05   5.9492795e-05  -1.1381186e-04  -1.3365314e-04  -1.1047967e-04   2.3860404e-04  -9.8502496e-05  -3.5121426e-04   5.7740742e-03   2.0607794e-04  -2.2404775e-04  -5.4988818e-04   3.0950728e-04   3.7349929e-04   4.6653464e-04   3.4693172e-04  -4.6761346e-04  -7.6870981e-04   5.9791584e-04  -5.6446544e-05  -7.0940919e-04  -2.5051279e-04  -1.0649876e-03  -8.3429518e-04  -3.3171067e-04  -4.2579669e-04   2.4002054e-05  -1.9885559e-04  -5.0341707e-05  -3.7651355e-04   1.0001800e-04   5.3357542e-04   5.4460473e-04  -4.2364077e-04   7.7714631e-06  -1.0249858e-03  -3.1924970e-04  -4.7071176e-04  -8.2757993e-05  -3.7530527e-04
  -2.6118429e-04   1.7139957e-04   3.4588684e-05   3.2077701e-04  -5.3775299e-04  -1.0810503e-03   3.0875491e-04  -5.4929120e-04   2.9148170e-04   9.5467997e-04  -7.2385730e-05   9.6576754e-05  -1.5895524e-04  -2.7248735e-04  -1.6992463e-04   2.1135724e-04  -2.1553572e-04  -5.9389783e-04   4.5026408e-04  -8.2276179e-05  -4.6228673e-04  -9.1682695e-04  -3.1716793e-04   3.3614537e-04  -8.0891029e-04   1.8010360e-04  -2.5609214e-04   3.3470700e-05  -6.4950334e-05  -7.8700723e-05  -1.2959361e-03  -1.1367651e-03  -1.2265978e-03  -1.2775871e-03  -2.4341929e-03  -4.4113718e-04  -3.4245496e-04  -4.7922868e-04  -1.9873818e-04  -4.4592490e-04   2.2293044e-04   3.4282345e-04   1.4389749e-04  -1.1233746e-03  -3.1785626e-04  -6.7030737e-04  -6.3673587e-04  -7.8720361e-04  -6.4371340e-04  -6.5458752e-04
  -8.7011274e-04  -1.8025440e-04  -4.1172665e-04   5.9953829e-05  -7.1347691e-04  -1.1500957e-03  -4.5659591e-04  -1.0205305e-03  -5.1019527e-03   5.0105754e-04  -4.6634715e-04  -2.7754304e-05  -3.6917409e-04  -6.2831660e-04  -6.9490308e-04  -1.9529009e-04  -6.7827309e-04  -9.6265232e-04   9.7666087e-04  -6.4732064e-04  -8.2264387e-04  -1.3984361e-03  -5.8808527e-04   7.8074474e-05  -8.8005950e-04  -4.2513951e-05  -4.1004692e-04  -5.8534625e-04  -5.0915167e-04  -4.5155003e-04  -5.3333363e-04  -3.4866275e-04  -1.1324245e-03  -8.4105285e-04  -1.6249949e-03   6.8113365e-04  -5.7598285e-04  -2.3102244e-04  -1.8890103e-04  -4.9855938e-04   1.0427006e-03   6.0644437e-04   7.6302368e-04  -8.6489570e-04  -1.7005614e-04  -5.3679873e-04  -3.0947171e-04  -3.5415182e-04   7.7336292e-05   1.8265330e-04
  -5.1354588e-04   1.3385819e-04   3.1238716e-04   7.1864406e-04  -5.2264973e-04  -6.1072042e-04   2.6999103e-04  -3.1231213e-04  -7.8319333e-04   1.2510041e-03   2.1684532e-04   2.4090003e-04   5.2240302e-05  -2.4630554e-05   2.1620830e-04   3.2491845e-04   1.9934292e-05  -3.7542696e-04   1.4075867e-03   1.5050090e-04  -3.2617972e-04  -6.4782065e-04   3.2719839e-04   5.3240184e-04  -4.4725667e-04   5.3060421e-04  -1.9613343e-04  -1.5778358e-04  -1.3489039e-04  -2.1282004e-04  -1.8664917e-03  -8.8740961e-04  -8.6679729e-04  -1.5263683e-04  -1.6149650e-03  -1.5673874e-03  -8.6415891e-04  -1.6603898e-04   2.9139066e-05  -7.8305852e-04   5.9249974e-04   7.0413068e-04   8.1136462e-04  -1.6386906e-03   1.8459735e-04   2.6031648e-04  -3.1106002e-04  -2.8767128e-04  -1.3358136e-04   2.5019477e-04
  -2.2755183e-05   7.3324962e-05   6.7894573e-05   3.1619077e-04  -7.0269301e-04  -6.3580461e-04   5.6612649e-04  -3.0536822e-04  -1.7188425e-03   8.7634526e-04  -1.6809769e-04   8.8419263e-05  -2.3486942e-05  -8.1111793e-05  -3.5321806e-04   1.9130575e-04  -2.5302442e-04  -4.1827542e-04  -3.7359115e-04  -1.5726646e-04  -5.3198700e-04  -1.0114107e-03  -1.6096738e-04   2.3993191e-04  -4.9843226e-04   3.6061395e-04   8.7419859e-05  -2.3592668e-04   3.1084788e-04  -4.1547533e-05  -1.0839354e-03  -6.7907112e-04  -1.0138227e-03  -4.0748966e-04  -1.7707031e-05  -4.6338857e-04  -4.7657365e-04  -4.3932998e-04  -6.1008905e-05  -4.9623469e-04   4.1559830e-05   5.6220748e-04   6.6463626e-04  -1.5384954e-03   1.0266911e-04   6.7467103e-04  -5.2804098e-04  -4.4967016e-04  -3.4637029e-05   2.2894818e-04
  -5.2387244e-04  -4.8085637e-04  -3.8708033e-04  -2.7471469e-04  -7.9304294e-04  -1.2603273e-03  -4.0796580e-04  -1.1427237e-03  -2.9452818e-03   3.1792425e-04  -2.2325502e-04  -1.0363858e-04  -3.8600035e-04  -7.6579076e-04  -8.0583221e-04  -2.0745803e-04  -9.1145356e-04  -8.9300470e-04   4.4293986e-03  -8.1635901e-04  -9.7663864e-04  -1.7270558e-03  -6.3298468e-04  -2.6768845e-04  -1.3521148e-03  -4.1229159e-05  -4.7806054e-04  -1.0459268e-03   4.8388029e-05  -4.8434318e-04  -1.8435742e-03  -1.3647215e-03  -1.8545270e-03  -8.1037072e-04   1.2897823e-03   3.6987988e-04  -6.4922497e-04  -6.4776751e-04  -1.8221485e-04  -4.1659366e-04   8.4481563e-04   6.1759254e-04   4.3130483e-04  -5.1071297e-04   1.5729712e-04   5.8677298e-04  -3.1392663e-04  -3.5827613e-04  -2.5051688e-05   4.8803622e-04
  -2.7151650e-04  -2.9403603e-04  -1.2576673e-04   1.4003520e-04  -1.8858354e-04  -6.6515600e-04  -2.3445889e-04  -2.1465083e-04   1.8846027e-04   7.9031510e-04   5.6443354e-05   2.1019181e-05   9.6568692e-05  -1.6058917e-04   1.3391113e-04   3.1115659e-04  -3.0974668e-04  -3.6194740e-04  -1.4530385e-03   4.9312363e-05  -3.3980497e-04  -9.3809521e-04   1.6564861e-04   1.2146429e-04  -1.2246114e-03   3.2214678e-04  -4.0947885e-04  -4.7956361e-04   7.8035948e-05  -1.4102664e-04  -8.9904224e-04  -6.0542091e-04  -7.8019779e-04  -2.6572065e-04   4.9740367e-04  -1.9901892e-04   5.2486919e-04  -4.9970148e-04   1.2636074e-04  -7.6541508e-04   4.7817046e-04   7.0941314e-04   8.9828001e-04  -3.8948882e-04   1.8630190e-04  -4.7381991e-04  -2.9202428e-04  -2.0711983e-04   2.6323355e-04   4.4630794e-04
  -4.1036107e-04  -1.8590127e-04   2.7647568e-04   1.0539447e-04  -4.8478367e-04  -1.0649090e-03  -1.4763723e-04  -5.0301745e-04   8.7175221e-04   6.0151005e-04   3.9913048e-05  -6.9047906e-05   1.7939630e-05  -2.4654181e-04   2.2287091e-04   1.4753413e-04  -4.2736743e-04  -3.4200848e-04   2.3135622e-03  -1.6039569e-04  -4.7183168e-04  -1.1639469e-03  -2.8269031e-04   9.5229945e-05  -5.4528826e-04   3.7620831e-04  -3.9763599e-05  -3.5850250e-04   2.2901699e-04  -2.6997025e-04  -1.0171203e-03  -1.3962433e-03  -1.0698072e-03  -3.4603878e-04   1.0981084e-05  -4.0569867e-04  -2.4761760e-04  -3.5104842e-04  -4.3488155e-05  -1.1420671e-03   6.0844404e-04   4.7929163e-04   4.4315532e-04  -1.4860418e-03  -9.3339615e-05  -1.9071915e-03  -5.5563758e-04  -4.5418445e-04  -2.7371923e-04   1.6694817e-04
  -8.7933318e-04  -5.3728849e-04  -4.1422312e-04  -3.3592290e-04  -1.1308250e-03  -1.2801304e-03  -7.6505064e-04  -9.3694055e-04   3.1292350e-03   1.6513214e-04  -2.2371895e-04  -2.7667006e-04  -3.0009361e-04  -6.0252048e-04  -2.4090843e-04  -1.2316613e-04  -8.0550119e-04  -9.1299624e-04  -1.0775228e-03  -6.2208896e-04  -7.9816970e-04  -1.6841616e-03  -7.6587824e-04  -3.5360316e-04  -3.9310855e-04  -1.3847580e-05  -3.2000121e-04  -4.0213161e-04  -8.0985099e-04  -6.6590309e-04  -2.5838532e-03  -5.6867680e-04  -1.7886457e-03  -5.2906165e-04  -1.2224049e-03   2.4285662e-04  -3.4209134e-04  -5.4692040e-04  -2.8881305e-04  -5.3048471e-04   3.4498223e-04   5.3551560e-04   7.8387401e-04   6.0193660e-04  -2.4330071e-05   1.0884033e-03  -3.8353147e-04  -1.8668562e-04  -1.1733214e-04   4.6675224e-04
  -5.5471365e-04  -3.2514406e-04   9.0383437e-06  -2.1644293e-05   4.8295638e-05  -5.8442872e-04   1.5978213e-07  -6.2887970e-04  -2.8766526e-03   6.3351751e-04   1.8631460e-04  -9.9289835e-05   1.8242883e-04  -1.3483234e-04  -2.4722115e-04   2.8139199e-04  -2.4920478e-04  -2.8108517e-04   2.6157128e-03   2.5220474e-04  -2.3273662e-04  -8.8792323e-04   2.6501043e-04   1.9345064e-04  -1.4362740e-03   5.0233433e-04  -1.9413867e-04  -4.7975002e-05   1.1290858e-04  -3.5752813e-04  -6.5817387e-04  -5.2372296e-04  -4.4685489e-04   6.3918029e-05  -6.8198115e-04  -6.6581398e-04  -7.0804328e-04  -3.7795369e-04  -6.0748466e-06   3.7781538e-05   3.8894851e-04   5.9777230e-04   7.5991330e-04  -4.2778291e-04   1.1517025e-04  -8.4386949e-05  -4.3894918e-04  -1.5037648e-04  -2.4035106e-05   2.5860372e-04
  -5.8275554e-04  -3.2834805e-04   1.0997844e-04  -9.1101538e-05  -9.1104832e-04  -7.0086395e-04   1.9275353e-04  -3.2914453e-04  -1.8228299e-03   3.7730747e-04   1.1070768e-04  -2.9856022e-04   1.9805973e-04  -2.0544267e-04   6.4474161e-06   2.9061417e-04  -4.4559382e-04  -4.8759542e-04  -2.2594768e-04  -1.0055639e-04  -3.7860891e-04  -1.2545028e-03  -3.1750716e-04  -2.0796614e-04  -5.7507452e-04   1.7817313e-04  -1.9235919e-04  -4.5304460e-04   1.9090861e-04  -2.3947764e-04  -2.1520963e-04  -9.9747989e-04  -7.9414161e-04  -4.5217390e-04   3.9863147e-04   3.9697532e-04  -2.1072286e-04  -5.5498799e-04  -6.7957968e-05  -5.7868321e-05   8.2080624e-05   3.1528479e-04   2.9391385e-04   6.2536812e-05  -1.8942950e-04   1.0542586e-03  -6.4579630e-04  -4.8917532e-04  -4.4270197e-05   1.4077252e-04
  -6.8743411e-04  -6.3141546e-04  -4.1277413e-04  -5.5102480e-04  -2.0362496e-04  -1.2725418e-03  -3.0129459e-05  -3.9038918e-04   2.7716774e-04  -4.1667015e-05  -1.8981703e-04  -4.3998280e-04  -1.3551749e-04  -6.0469820e-04  -2.9410652e-04  -1.4712983e-04  -8.6834765e-04  -7.7418506e-04   2.0069245e-03  -6.5096724e-04  -7.4531406e-04  -1.6695337e-03  -8.9064729e-04  -4.3473573e-04   1.0061318e-04  -2.3224344e-04  -1.0007442e-04  -5.6867622e-04  -1.0534270e-04  -3.5863408e-04  -2.5867741e-03  -1.6991114e-03  -1.6097385e-03  -2.6467093e-04  -6.3477288e-04  -1.6281231e-03  -8.3473988e-04  -6.3876581e-04  -3.2124788e-04  -7.6099933e-04   1.9241605e-04   2.6689249e-04   2.2158648e-04   9.0353904e-05  -5.0003844e-05   3.8593786e-04  -5.1530590e-04  -3.6510505e-04   3.1266786e-04   5.2265183e-04
  -8.4530492e-04  -5.2733434e-04  -1.0779725e-04  -1.6702866e-04  -7.7873253e-04  -7.6229102e-04   1.0908001e-04  -3.7583968e-04  -2.2850549e-04   4.7801778e-04   2.5123957e-04  -2.2627860e-04   2.5100430e-04  -3.3252494e-05  -1.6166861e-05   3.2039313e-04  -3.3856381e-04  -2.7972428e-04   1.1948991e-03   1.3602104e-04  -1.4428994e-04  -8.1953168e-04   7.6799246e-05  -3.1512256e-05  -1.8747502e-03   3.8687288e-04  -1.8631743e-04  -2.2159287e-04   3.1766563e-04   6.4473788e-05   3.3669305e-04  -4.2800431e-04  -3.9921916e-04   1.6687658e-04   1.3551302e-03   1.4564316e-04   1.3584795e-04  -5.3129543e-04   1.4379834e-04  -8.4229765e-07   6.5618521e-04   6.4906717e-04   8.5755420e-04   1.4219880e-04   2.8866561e-04  -1.3400108e-04  -3.4372215e-04  -1.4486379e-04   5.2660744e-04   6.2016922e-04
  -6.0481328e-04  -3.2071921e-04   2.6735457e-04  -7.8618243e-05  -2.7226566e-04  -5.5573724e-04  -1.7776524e-04  -3.8543544e-04  -3.0978250e-03   4.6368368e-04   3.3460546e-04  -1.9114067e-04   2.9949244e-04   2.6768215e-05  -9.9642966e-05   4.0231206e-04  -2.7680531e-04  -3.0984785e-04  -1.1258076e-03   1.5008605e-04  -2.5106169e-04  -9.7418076e-04  -3.2168033e-04  -1.6481343e-04  -3.3541702e-04   3.5941359e-04   7.8775600e-05  -3.3172880e-06   4.3507121e-04  -1.9103134e-04  -1.2481569e-03  -4.2485681e-04  -7.9594878e-04   2.2802626e-05  -3.8784486e-04   3.9690669e-05  -4.1898282e-04  -2.5546298e-04   7.5427430e-05  -8.8675512e-04   3.9235849e-04   5.1537168e-04   3.9817151e-04  -1.0558901e-03   2.2695461e-04  -5.6445284e-04  -5.6829333e-04  -2.9011432e-04   2.3553248e-04   4.9338315e-04
  -7.5084547e-04  -4.5888082e-04  -1.2830812e-04  -1.9510108e-04  -5.5579178e-04  -7.5532531e-04  -5.2883849e-04  -4.7299656e-04  -3.3879392e-03   1.3795684e-04  -2.0941823e-04  -2.4842087e-04  -4.9867040e-06  -4.1995678e-04  -4.4408903e-04   6.2569008e-05  -5.7187059e-04  -5.5699685e-04  -1.4190059e-03  -4.4064297e-04  -5.6656823e-04  -1.3722518e-03  -5.0026178e-04  -2.5245576e-04  -1.3211755e-03   1.4544842e-04  -5.0233246e-04  -7.0382725e-04   6.0640727e-05  -4.7957245e-04  -2.1632598e-03  -8.9379563e-04  -9.1172411e-04  -2.6848455e-04  -1.5742676e-03  -9.3633123e-04  -1.0543795e-03  -6.0329400e-04  -1.6176885e-04   1.7672600e-04  -5.6861452e-05   1.6441369e-04   4.1547391e-05  -2.0087948e-03  -1.6350932e-04  -1.1259423e-03  -7.5774407e-04  -5.3098419e-04   4.3025619e-04   3.0911498e-04
  -2.1255882e-04  -5.2682805e-04  -1.9788147e-04  -2.3276317e-04  -7.5664843e-04  -8.2828529e-04  -5.2585558e-04  -5.4762332e-04   6.9934648e-04   5.7687878e-04   2.5002245e-04  -8.8706562e-05   1.7674720e-04  -6.2953077e-05   3.2992095e-05   3.4798298e-04  -1.5500128e-04  -2.8955383e-04   3.2779190e-03   2.3929673e-04  -8.1424274e-05  -6.0814049e-04   1.6368780e-05   5.9067821e-05   8.0500802e-05   4.1543753e-04   3.0275731e-04  -4.5386673e-04   9.2711259e-04   1.9251897e-04   1.3561324e-04   2.1016719e-04  -7.3725538e-04   3.8875284e-04  -7.0406531e-04  -1.1598904e-04  -1.9244269e-05  -9.4727708e-05   1.3472812e-04   2.0986203e-04   5.9989549e-04   6.2673294e-04   8.7378692e-04   5.6454563e-04   4.5366967e-04  -8.5730564e-05  -4.3686535e-04  -1.5120622e-04   7.7808858e-04   8.2808547e-04
  -4.1644846e-04  -1.1758190e-04   2.6275159e-04  -6.4543936e-05  -1.5059265e-04  -5.2398135e-04  -2.0398023e-05  -4.0990853e-04   4.4936659e-03   7.2757388e-04   2.6879195e-04   1.8890296e-05   2.4762185e-04   8.4689193e-05   8.7792505e-05   4.6477828e-04  -8.0923281e-05  -2.9819331e-04   2.6904775e-03   1.4191927e-04  -3.2285304e-04  -7.8985066e-04   2.1567193e-04   5.9390377e-06  -3.0154650e-04   3.6610384e-04  -2.7242256e-04   8.0172002e-05  -3.8903838e-04   8.9267494e-05  -4.5047305e-04  -3.8746797e-04  -9.8886562e-04   7.5755891e-04  -4.1995093e-04   1.5927221e-03   3.8578766e-04   8.5195032e-05   2.0339421e-04  -1.5243244e-03   7.9348031e-04   5.8431819e-04   8.7480759e-04   8.0601819e-04   3.7035608e-04   2.4601263e-03  -5.2888249e-04  -2.4676730e-04   1.4192966e-04   9.2357205e-04
  -4.5416466e-04  -2.7462022e-04   1.9474895e-05  -1.2497170e-04  -5.9156615e-04  -4.4537731e-04  -3.2159322e-04  -4.0020977e-04  -2.9618046e-03   3.9879300e-04   1.3152391e-04  -6.6247980e-05   1.6529739e-05  -2.1100900e-04   7.1601062e-06   2.4751297e-04  -3.0582459e-04  -4.3724893e-04  -1.2917541e-03  -1.6201736e-04  -5.7037332e-04  -1.2681865e-03  -3.5892500e-04  -1.9083846e-04   1.8409926e-05   3.2408899e-04  -2.0019470e-04  -3.4284039e-04  -2.2913827e-04  -9.0585025e-05  -1.6986150e-03  -1.2047314e-03  -1.5876477e-03  -2.9427730e-04  -1.5866440e-03   3.3660096e-04  -9.0863218e-04  -3.0118122e-04  -1.1923954e-04  -8.3534617e-04  -2.2187103e-04   2.8525488e-04   6.3487818e-04  -1.1417265e-03  -1.1421894e-04   2.3608719e-04  -8.3946279e-04  -5.5154169e-04   3.0280213e-04   3.4336635e-04
  -1.1770449e-03  -5.8979355e-04  -4.1763022e-04  -2.8869719e-04  -6.7885476e-04  -7.9908996e-04  -2.1967094e-04  -7.9548050e-04   1.9242738e-03   5.6900794e-04   1.5430336e-04  -1.0510824e-04  -7.9019941e-07  -1.2979715e-04  -4.2893764e-05   3.8864836e-04  -2.1719739e-04  -3.0086050e-04  -1.7016600e-03   2.5521024e-04  -1.4860493e-04  -6.3797616e-04   4.7500941e-04   7.6105709e-05   1.0440513e-03   4.0930804e-04   2.6034599e-05   5.3977597e-05   1.1298364e-04   1.4614427e-04  -1.1954093e-03  -3.6984196e-04  -7.8366388e-04   2.8251504e-04  -4.0473897e-04   8.0991350e-04   4.6893349e-04   3.5069330e-04   1.1965921e-04   1.0558794e-03   9.6053450e-04   6.8112515e-04   7.2230853e-04   1.9516997e-04   4.8689378e-04   1.4571168e-03  -4.9775146e-04  -2.0945648e-04   7.4962596e-04   7.4279221e-04
  -4.6538324e-05  -6.5283559e-05   3.4503217e-04   1.3812236e-04  -6.3775328e-04  -3.3335539e-04  -4.4038796e-05  -2.8982072e-04  -9.8522019e-04   7.2510674e-04   2.2123882e-04   4.4515229e-05   3.7855704e-04   1.8902370e-04   1.4575080e-04   5.4141087e-04  -9.7259806e-05  -1.1098501e-04  -2.8013298e-03   1.7714631e-04  -2.0496020e-04  -6.8764749e-04   5.0443766e-04   1.1342296e-04   4.6067164e-04   3.2146939e-04   1.2030666e-04  -1.8683021e-04   4.3047700e-04  -1.0258163e-05  -4.9883896e-04   6.5694046e-05  -3.9389310e-04   4.9937633e-04   6.3678232e-04   9.1579905e-06  -1.0238729e-04  -1.8739278e-04   2.0085923e-04  -6.6592568e-04   7.9283759e-04   5.1844557e-04   7.1963354e-04  -1.0420345e-03   3.7615068e-04  -6.3268573e-04  -6.1710336e-04  -2.8100761e-04   5.1245006e-04   7.3879934e-04
  -4.4464791e-04  -3.1803807e-04  -1.4580335e-05  -3.1796273e-05  -1.9407687e-04  -6.7628344e-04  -1.0468985e-04  -5.4777344e-04  -4.0151444e-03   3.4227551e-04   1.8876918e-04  -1.5663213e-04   1.5250976e-04  -1.8501366e-04  -4.6542056e-05   2.6168214e-04  -3.4930345e-04  -3.3991845e-04  -9.0020336e-04  -2.2893354e-04  -5.0374889e-04  -1.2596759e-03  -3.0463142e-04  -1.9964406e-04  -3.5868961e-04  -1.0106894e-05  -6.4882108e-05  -2.0335041e-04   4.0377810e-04  -4.8010660e-04  -1.1910965e-03  -1.3739570e-03  -1.0396163e-03   1.0801802e-04  -7.8840309e-04   4.5580705e-04  -2.7294099e-04   1.3526771e-04  -2.7082104e-04  -7.3642109e-04  -1.9436638e-04   2.4895335e-04   1.7909170e-04  -7.4237853e-04  -4.7508864e-05  -5.2543946e-05  -9.0335571e-04  -5.7481421e-04   9.0179397e-05   1.8196089e-04
  -7.1375573e-04  -6.7622075e-04  -2.1810393e-04  -4.0281785e-04  -4.5378835e-04  -6.1668607e-04  -2.1082093e-04  -8.1516948e-04  -1.2955196e-03   1.9353679e-04  -1.5090242e-04  -3.4076942e-04   3.5510064e-05  -1.4491174e-04  -8.7812560e-07   3.1622220e-04  -3.9811907e-04  -4.6053602e-04   5.2464765e-04   1.5239867e-04  -1.7504646e-04  -7.8236772e-04  -1.6673159e-05  -1.3735444e-04  -1.9256778e-03   1.5469706e-04   3.4719516e-04  -3.5491474e-05  -1.4026059e-05   1.3764955e-04  -7.0615883e-05  -5.4934481e-04  -4.9382239e-04   4.2672997e-04   1.5774556e-03   3.1498985e-04  -9.6352096e-04  -2.8651499e-04   1.2168189e-04   3.3086271e-04   4.9261289e-04   6.7339709e-04   6.7781273e-04   9.3451526e-04   4.1635049e-04  -3.1698664e-04  -4.9262855e-04  -1.8992828e-04   7.0223608e-04   6.6165481e-04
  -3.3043561e-05  -1.8783574e-04   4.7053728e-04   1.7062458e-04   8.8275097e-05  -8.8403985e-04   5.4416520e-04   2.1282762e-04  -3.4732213e-03   4.0728858e-04   2.3289210e-04  -1.8065386e-04   3.0246857e-04   1.3732919e-04   1.8384891e-04   5.1696575e-04  -5.5460634e-05  -2.6639426e-04   4.2643668e-03   1.8919323e-04  -1.8978670e-04  -7.5593061e-04   1.5965778e-04   1.0104979e-04   1.6760710e-04   2.5809580e-04   1.5050307e-04  -1.9269406e-04   1.2903579e-04  -1.3747031e-04   3.3125290e-04  -6.0820967e-05  -3.2921019e-04   4.8945606e-04  -4.9796578e-04   5.8480841e-04  -7.2204741e-05  -8.7300024e-05   1.2036499e-04   9.6393836e-04   6.5446284e-04   6.1410130e-04   7.9445541e-04  -4.7908560e-04   2.2920810e-04   5.4457766e-04  -6.0661929e-04  -1.5398515e-04   6.5507495e-04   6.7092071e-04
  -4.9460924e-04  -3.3472435e-04  -2.9931153e-04  -6.6001376e-05   6.4110522e-05  -7.7411759e-04   6.5218867e-04  -2.6853909e-04  -8.3762905e-05   2.5441390e-04  -6.9416259e-05  -2.3261530e-04   1.5139862e-04  -4.3238408e-05   2.1853779e-05   4.0406027e-04  -3.8020773e-04  -3.4373734e-04  -2.5473516e-03  -2.1957606e-04  -5.1125046e-04  -1.2370532e-03   2.1703869e-05  -2.4036990e-04  -1.5671661e-03   2.2447247e-04   1.4449547e-04  -1.2711271e-04  -5.1129883e-04  -1.1623999e-04  -1.1351218e-03   2.0501777e-04  -8.2551694e-04   3.5554438e-04  -1.9523064e-03  -1.8525620e-04   5.8115710e-04  -6.5779954e-05  -1.4388104e-04   6.2297547e-04   1.1636026e-04   3.1397562e-04   3.2907893e-04  -4.0234500e-04  -6.7427345e-06   1.4538191e-03  -8.8807323e-04  -5.0018018e-04   1.7923667e-04   1.4543564e-04
  -6.3243613e-04  -6.0367165e-04  -5.6520774e-04  -3.0853777e-04  -7.6997222e-04  -9.1840682e-04  -1.8531828e-04  -4.6679704e-04   1.2805358e-04   1.8169012e-04  -1.9133603e-04  -2.8993000e-04  -2.6977123e-05  -3.0890608e-04  -2.9529497e-04   2.6835201e-04  -4.9401022e-04  -4.8957142e-04   4.5089732e-04   1.1415527e-04  -1.6318394e-04  -6.6351041e-04  -3.9424955e-05   1.6383188e-05   6.9668553e-05   1.4790156e-04   4.0286360e-04  -4.9604801e-05   4.5600807e-04  -3.8140436e-06  -6.4759218e-04  -2.3619187e-04  -1.6636714e-04   5.7727087e-04   2.7314614e-04   1.5569243e-04  -2.8838741e-04   3.3336124e-04   2.6628995e-04   1.3408654e-04   6.4180826e-04   7.2133041e-04   7.8696350e-04   2.3149210e-03   2.9807354e-04   1.5887693e-03  -4.5819467e-04  -1.0786782e-04   7.6179538e-04   5.0625188e-04
  -1.8718786e-04  -1.0312406e-04   5.8507663e-04   3.5325286e-04  -2.5150372e-04  -4.3624386e-04   1.3303501e-04   1.0958625e-04  -1.5600603e-03   4.5588994e-04   2.6152746e-04  -2.1202311e-04   3.3328880e-04   5.2803378e-05   2.0479903e-04   5.5830460e-04  -4.7041027e-05  -1.8100762e-05   1.6191746e-03   2.8197328e-04  -1.2876197e-04  -6.2172586e-04  -2.0843859e-04  -2.8650109e-05  -6.1756633e-05   1.9742738e-04   6.7454217e-05  -2.7370648e-04   4.0081042e-05   1.3687014e-05  -1.3343400e-03  -6.1882858e-04   6.8125591e-05   5.2806555e-04  -8.3097391e-04   3.5645705e-04   4.6278851e-04   5.8984820e-05   1.9169509e-04   8.6566975e-04   3.6881462e-04   5.9367460e-04   6.3180644e-04   3.1481039e-05   2.4662662e-04   9.2391594e-04  -5.2262767e-04  -1.6769480e-04   9.6373411e-04   4.4772567e-04
  -4.4667214e-04  -2.4880146e-04  -1.4076647e-04   1.3885728e-05  -1.9323327e-04  -2.8944251e-04   5.1810284e-04  -5.5103010e-06   1.0001924e-03   1.5530121e-04   6.6150305e-06  -2.7836330e-04   3.5248746e-04   5.6812878e-05   2.5750342e-04   3.5923798e-04  -2.1596107e-04  -2.9523671e-04  -4.6050530e-03  -9.3682997e-05  -3.7485774e-04  -8.8787318e-04  -1.9639963e-04  -2.8778767e-04  -1.0012207e-03   7.8211931e-05  -1.1314979e-04  -2.1430635e-05   3.4306149e-04  -1.2175248e-04   3.3898352e-04   1.0878355e-04  -2.5727731e-04   8.3708328e-05  -1.3428650e-04  -6.6093000e-04  -4.8260891e-04  -5.0257373e-04  -6.3991101e-05   7.5576798e-04   1.7007260e-04   2.8370824e-04   1.8990565e-04   3.5070954e-04  -4.7812879e-05   1.7184519e-03  -8.1817614e-04  -4.7081281e-04   3.2814007e-04   1.4074468e-04
  -6.1853911e-04  -5.3398393e-04  -9.1657501e-05  -3.0501783e-04  -1.0388220e-04  -6.1205990e-04  -1.9250327e-04  -1.3984092e-04   1.7066260e-03  -1.8928600e-04  -2.2219559e-04  -4.1352201e-04  -4.5888439e-05  -3.7868746e-04  -4.9731138e-05   1.3203936e-04  -5.4632168e-04  -5.0511968e-04  -3.8403661e-03  -2.4009249e-04  -3.6135636e-04  -9.5143588e-04  -7.5720489e-04  -3.7055317e-04   5.2476820e-04  -2.9835934e-04  -2.4400308e-04  -3.8613818e-04  -7.5227676e-05  -4.6419812e-04  -1.4975824e-03  -4.8167497e-04  -1.7109563e-04   4.6884653e-04  -1.1131014e-03  -4.5459074e-04  -8.1055303e-04   2.6349366e-05   4.8015427e-05   2.6648707e-04   4.0965216e-04   5.1301444e-04   4.5672274e-04   5.2247202e-04   3.1866142e-04   9.1329741e-04  -5.4962706e-04  -2.4156911e-04   6.6300278e-04   4.2275788e-04
  -4.4843680e-05  -1.5742795e-05   1.8381301e-04   2.3882500e-04   3.2164062e-05   1.2580601e-04   4.5916167e-04  -2.3307464e-04  -1.6646128e-03   5.5016170e-04   3.1966151e-04  -1.1453994e-04   2.7116586e-04   1.4080887e-04  -5.5317512e-05   6.0485234e-04   1.0993706e-04   7.0504175e-05  -6.7642133e-04   2.4601188e-04  -1.0105329e-04  -4.2328620e-04   3.6043921e-04  -3.7654809e-05   3.8330449e-04   2.2048040e-04   3.3030662e-04   3.7407535e-05   3.2648392e-04   1.7425901e-04   1.1723698e-04  -4.5642280e-04  -2.6537920e-04   5.2380655e-04  -9.9205831e-04  -7.7226192e-05   2.5386430e-04   3.9150473e-04   1.8635730e-04   1.4347478e-04   6.7498133e-04   5.1680591e-04   4.7194099e-04   8.6059375e-04   3.7855050e-04  -2.8592997e-04  -5.6094769e-04  -2.4031050e-04   4.1003359e-04   5.0463172e-04
  -3.6304505e-04  -7.1333845e-05  -1.7943322e-04   5.6534995e-05   1.5171485e-04  -1.8346700e-04   1.9211984e-04  -1.3103272e-04   1.6933798e-03   4.0879860e-04   9.8939076e-05  -1.0605568e-04   2.9333058e-04   1.4475739e-04  -2.0607414e-04   4.8614744e-04  -7.3374031e-05  -2.4576340e-04  -2.4945498e-03   8.3929946e-05  -2.6856523e-04  -6.9294940e-04   5.2706909e-04  -1.0381202e-04   7.6644577e-04   5.1195933e-05   2.5621467e-04   2.5593206e-05   2.3060037e-04  -3.5789037e-06  -1.0455626e-03   2.1708044e-04  -5.8835716e-04   2.2290509e-04  -5.0998951e-04   1.3711977e-04   1.4420261e-04  -2.3394401e-04  -1.0550798e-04   5.7546922e-04  -2.7198630e-04   2.8194490e-04   1.4035091e-04   1.1569482e-03   2.6739543e-04  -8.0376363e-04  -8.4569992e-04  -5.6233659e-04   3.4895347e-04   2.1291795e-04
  -6.5244862e-04  -3.7010663e-04  -2.5366497e-04  -2.5252558e-04  -5.4783246e-04  -6.4823707e-04  -4.0147538e-04  -3.3219589e-04   8.9196372e-04   7.6495300e-05  -2.3701016e-04  -2.4363921e-04  -4.9644117e-05  -2.8358493e-04  -2.8884105e-04   1.0746548e-04  -4.5320758e-04  -5.6689308e-04   2.0906525e-03  -5.0281134e-04  -6.3215173e-04  -1.1520452e-03  -3.4879142e-04  -2.8610424e-04  -2.4363238e-05  -7.8446727e-05  -1.0939039e-04  -1.7865031e-04   3.5461452e-04  -2.8194170e-04  -1.6466172e-03  -1.3756589e-03  -6.2579953e-04   9.6261123e-05  -1.7325744e-03  -7.1636419e-04  -3.9487454e-04  -5.1097717e-04  -2.6540479e-04  -1.7909006e-04  -2.3943448e-04   3.5448716e-04   2.3721969e-04  -9.2759222e-04   2.5154243e-04  -7.5880293e-04  -6.4365583e-04  -3.8043314e-04   5.7656184e-04   4.6410583e-05
  -9.6539274e-04  -1.1647715e-04   8.0200603e-05   2.5521836e-04  -3.9697444e-04  -2.5483925e-04   6.7647389e-04  -4.1186791e-05  -3.1415443e-04   6.5985235e-04   2.3415386e-04   1.1974337e-06   2.2349101e-04   1.4837456e-04   4.0887811e-04   5.1638164e-04   2.0634293e-04   2.5054229e-05   6.8709085e-04   1.4300316e-04  -1.7818875e-04  -5.0585566e-04   3.8418529e-04   5.2877126e-06   1.6692784e-04   1.0666523e-04   1.2123028e-04  -1.5580557e-04   4.9450237e-04  -1.2477580e-04   1.0529007e-03  -1.4963764e-04  -3.1258608e-04   2.8474652e-04  -3.7412037e-04  -5.0274550e-04  -3.4991198e-04   2.4725124e-04  -2.7068811e-05   1.3935238e-03   3.7039700e-04   4.1028208e-04   4.9821252e-04  -1.1091905e-03   4.8252798e-04  -1.3685401e-04  -6.1354885e-04  -2.7502002e-04   5.6057755e-04   1.9601808e-04
  -9.5589719e-05  -1.7047924e-04   5.5354336e-05   4.0461418e-05  -3.8233330e-04  -6.0648512e-04  -2.5849428e-04  -4.1329826e-04  -4.1783811e-03   4.2948892e-04  -6.2022831e-05  -1.1005816e-04   2.0239016e-04   1.0341591e-04  -5.9788086e-05   5.3115899e-04  -7.4445379e-05  -2.2277671e-04  -1.3284194e-03   4.4244556e-05  -2.7258426e-04  -6.3871196e-04  -7.9016427e-05   2.8516706e-05  -1.8616708e-04   1.9418998e-04   2.1172249e-04   6.5772759e-04   4.0259119e-04   1.0360768e-05  -8.5143192e-04  -1.6503633e-04  -7.9975527e-04   2.3397765e-04   1.6183374e-03   3.5489092e-04  -4.3061067e-05  -5.9500849e-04  -1.1660663e-04  -6.5808877e-04  -2.7258169e-05   2.2331564e-04   1.3603084e-04   1.3598173e-04   8.2075012e-06  -1.8676679e-03  -8.5269590e-04  -5.0710927e-04   2.1079475e-04  -1.9981104e-04
  -6.7177828e-04  -3.8929505e-04  -6.2225539e-05  -3.0087726e-04  -6.9481198e-04  -6.0367805e-04  -6.0528447e-04  -5.8480626e-04  -3.2930756e-03   9.1801208e-05  -4.3677527e-04  -2.6741141e-04  -1.5460605e-04  -2.5815808e-04  -1.0032835e-04   1.3113474e-04  -5.0368242e-04  -4.5520868e-04  -1.6937190e-03  -4.8848282e-04  -5.8127457e-04  -1.1992394e-03  -6.6252227e-04  -3.6157839e-04  -1.3728737e-04  -1.2149275e-04  -1.5561812e-04  -4.4391651e-04  -4.6385181e-04  -4.2764610e-04  -1.2872574e-03  -7.0123095e-04  -1.0208071e-03   9.9842924e-05  -9.3637587e-04  -7.6398230e-04  -6.8560010e-04  -6.0222065e-04  -3.5464944e-04   1.7598018e-04   7.4349176e-05   2.0537399e-04   2.4610362e-04   3.3513340e-04   2.0322893e-04  -3.9902676e-04  -6.8280136e-04  -3.4408391e-04   4.7049171e-04  -2.2026070e-04
  -4.3132910e-04  -1.4869370e-04  -1.3128946e-04   4.4641376e-05   1.4247387e-04  -3.9938302e-04   2.6089745e-04  -4.9391185e-04  -2.6520218e-03   3.6057149e-04   3.1186275e-05  -2.2572800e-04   2.1865832e-04   2.2650659e-04   2.8851433e-04   6.2576489e-04   1.0542054e-04  -1.1387063e-04   2.2021926e-03   3.2839386e-04  -1.5015340e-06  -3.8101448e-04  -1.9778467e-04   2.3009146e-05  -3.6383764e-04   3.4882683e-05   2.0826717e-04  -2.3510419e-04   5.6121493e-04  -4.7268182e-05  -5.4347096e-04  -1.1714845e-04  -5.7150458e-04   2.7398643e-04   1.2267989e-03   1.3691623e-03  -5.0835148e-05   1.2425827e-04   6.6142122e-05   2.2793966e-04   1.2840553e-05   4.8147389e-04   4.4525054e-04   3.5838768e-04   2.7856234e-04   9.7001076e-04  -5.8571342e-04  -2.3921829e-04   4.0603810e-04   2.1201934e-04
  -6.3258580e-05  -1.3268997e-04  -5.1537492e-05   1.7380074e-04   3.2945356e-04  -1.4727254e-04   1.3128392e-04  -2.3125354e-04   1.5972814e-04   3.3191405e-04   1.0387995e-04  -1.6216854e-04   2.7240915e-04   3.3758985e-05   2.6504509e-04   5.5465417e-04  -3.9952342e-06  -1.5814684e-04  -1.7939913e-03   7.2822921e-05  -2.2329422e-04  -6.8243674e-04   2.3570677e-04   1.3924145e-05  -1.3545022e-04   1.2123512e-04  -1.3149221e-05   4.7652164e-04  -3.0895631e-04   1.3799437e-04  -1.4030776e-03  -1.3268669e-04  -4.5795154e-04   4.7436825e-04   9.7043067e-04   1.3072572e-04   3.1056781e-05  -7.0216964e-05   9.6264866e-06  -6.3218182e-04   3.7131220e-04   3.2088341e-04   3.7454540e-04  -1.8068384e-03   4.3140410e-04  -7.3264248e-04  -7.7434932e-04  -4.5660371e-04   3.1925397e-04  -1.9944806e-05
  -3.3336348e-04  -3.9264720e-04  -2.1559074e-04  -2.6751866e-05  -3.4118578e-04  -5.5639556e-04  -4.9923593e-04  -5.2532228e-04  -1.6751633e-03   3.2334233e-06  -2.1898281e-04  -2.7023262e-04  -2.0285373e-04  -1.6163626e-04   1.0219490e-04   1.6046684e-04  -3.9354956e-04  -5.3127715e-04  -1.3445092e-03  -3.9566250e-04  -5.2387436e-04  -1.0542603e-03  -1.4025785e-04  -2.6826179e-04  -3.3930020e-04  -1.0431448e-04  -2.8456651e-04  -7.4586329e-05   1.9684810e-05  -3.3424713e-04  -1.1792455e-03  -1.4439346e-03  -8.6699019e-04   1.6853797e-04  -2.5085281e-04  -9.7652856e-04   4.8237966e-04  -3.4179341e-04  -2.9455192e-04  -1.0049752e-03  -2.6824232e-04   1.5345664e-04  -1.0252682e-04   1.8430030e-04  -2.9845074e-05   4.5649603e-04  -7.2754204e-04  -4.3520046e-04   4.6639307e-04  -9.9293473e-05
  -6.5363495e-04  -2.2203804e-04  -1.1227191e-04   7.2651150e-05   2.9985551e-04  -6.3768454e-04   6.2512707e-05  -2.6496817e-04  -4.2886229e-04   6.5417209e-04   2.4163794e-04   1.3550073e-06   2.4781347e-04   1.5183819e-04   3.3828247e-04   5.7030347e-04   1.4178244e-04  -4.8108850e-05  -4.0915716e-04   4.8956455e-04   2.0571460e-05  -2.7041542e-04   4.5523001e-04   3.5444196e-04   1.1372487e-04   2.3945727e-04   2.4025139e-04   1.0714941e-04   7.7399885e-04   1.7988977e-04   1.1837010e-03  -1.9011928e-05  -2.2128572e-04   6.1691913e-04  -1.2521987e-03  -4.2380084e-04  -1.1494778e-04   4.6127402e-06   2.3439524e-04   4.8286543e-04   2.8865636e-04   4.6264497e-04   3.3927869e-04   8.5909606e-04   3.3248911e-04   1.7150538e-04  -4.9442868e-04  -1.2896275e-04   6.5933552e-04   4.1549082e-04
  -2.1438893e-05   5.3620679e-05   2.9552652e-04   4.1007748e-04  -1.7009722e-04   5.8112510e-05  -1.0560307e-04  -6.9041009e-05  -9.6305227e-04   5.5756798e-04   1.8159948e-04   4.1178402e-05   3.9141238e-04   2.6444928e-04  -7.4703858e-05   6.8057107e-04   1.2099885e-04   3.0955052e-05   2.1834613e-03   3.0519188e-04  -5.3145010e-05  -3.8284529e-04  -2.9582308e-05   1.4438527e-04  -7.3226378e-04   2.6655218e-04   3.4890499e-04   2.5215579e-04   7.8040699e-04  -3.1579722e-05   1.0660515e-03  -3.0581863e-04  -1.5016907e-04   2.4925717e-04   5.0631125e-04  -3.4560051e-04  -3.8443330e-05   3.6344973e-05   4.4268374e-05   8.6396543e-04  -1.6110997e-05   3.0318878e-04   3.0652955e-04   1.2371043e-03   4.1142220e-04  -3.6383414e-04  -6.7386520e-04  -3.3149673e-04   4.7326079e-04  -1.8629679e-04
  -1.9179034e-04  -7.5118558e-05  -7.9082260e-05  -4.2762491e-05  -4.6297323e-04  -3.9252642e-05  -3.3977980e-04  -6.8045338e-05   1.2621391e-03   1.4137090e-04  -1.2509590e-06  -9.9638579e-05   8.5476218e-05  -6.5794360e-05   4.4263932e-05   2.8482892e-04  -1.9237600e-04  -2.8573239e-04   2.0193406e-03  -8.7212240e-05  -3.4340718e-04  -8.0397748e-04  -5.2645173e-05  -1.6029023e-04   2.0879229e-04  -5.4456654e-05  -1.6961702e-04   1.1140186e-04   3.1281452e-04  -3.8763278e-04  -7.0616952e-04  -4.6887505e-04  -5.4724561e-04   2.4997658e-04   6.3704466e-04  -4.6803401e-04  -4.0243258e-04  -2.1040291e-04  -2.4154496e-04  -2.4863706e-05  -4.5645708e-04  -7.1105016e-05  -2.7628944e-04   2.4513883e-04   2.0781250e-05  -8.0460618e-04  -9.9450967e-04  -8.0978544e-04   1.3515624e-04  -5.5482058e-04
  -9.0381614e-04  -3.8933524e-04  -1.7621323e-04  -6.6509776e-05  -1.1755732e-04  -4.0563397e-04   3.1411830e-05  -3.7951570e-04   6.8848473e-03   4.6670838e-04  -1.1764801e-04  -1.0206371e-04   6.3081752e-05  -3.1132477e-05   1.0177757e-04   4.6371488e-04   7.0526767e-05  -2.6715189e-04  -1.9756490e-03   4.5932541e-04   8.5442880e-05  -1.7976729e-04   7.1114069e-04   1.7728035e-04   3.4205493e-04   2.3629679e-04   1.0233031e-04   3.0453614e-04   2.7567864e-04   1.4891084e-04   5.6407956e-04   2.7668284e-06   5.0532140e-05   7.2200451e-04  -7.1787182e-04  -3.1941032e-04  -3.6530683e-04   1.8807009e-04   1.4371202e-04  -8.1323087e-04   4.0770792e-06   4.3708523e-04   3.9186780e-04   7.8741898e-04   3.3099257e-04   1.0935943e-04  -5.8046303e-04  -2.7459351e-04   4.2859864e-04  -9.0593952e-05
   1.0095588e-04   1.7962354e-04   1.8549565e-04   3.6003094e-04   1.5614310e-04   2.3964218e-05   4.5022374e-04  -1.2876955e-04  -1.0170515e-03   4.8402263e-04   1.5428349e-04   4.0330615e-05   4.1182476e-04   2.9094890e-04   2.9043932e-04   5.6303968e-04   5.5046949e-05  -8.4366533e-05  -3.7992848e-03   2.6096587e-04   9.0348904e-06  -3.2323640e-04   3.2291334e-04   1.4170336e-04   1.0850187e-04   1.5376948e-04  -1.0737876e-04   2.8444457e-04   2.7163062e-04  -1.0624587e-04   8.6257467e-04   1.6311146e-04   1.1482379e-04   3.0892142e-04   6.3516089e-04  -5.0077075e-04  -7.1276496e-05  -1.0744129e-04   4.2041531e-05   2.7870524e-04  -3.4799168e-04   2.4259152e-04   1.8942796e-04  -2.4758352e-04   2.2388510e-04  -1.5867436e-04  -7.2648906e-04  -4.1267328e-04   2.9530883e-04  -3.1996678e-04
  -5.2186399e-04  -3.7452635e-05  -1.5272445e-04   3.1743108e-05   6.1192861e-07  -1.0776820e-04  -1.0117283e-04  -2.9909145e-04   1.7331499e-03   1.2594296e-04  -2.5516627e-05  -1.1001562e-04  -7.9451129e-06   8.3304141e-05  -2.1782731e-04   3.7446662e-04  -1.7292322e-04  -3.3595020e-04  -4.4846334e-03  -7.2632640e-05  -3.0091769e-04  -7.4399874e-04  -3.7197987e-04  -1.6676796e-04   1.3330964e-04  -1.9124652e-04  -3.9327613e-05  -1.1394057e-04  -5.3871464e-04  -2.0910735e-04  -7.6187571e-04   1.6289511e-04  -7.0226518e-04   5.5505581e-05   1.2257653e-04   3.3316214e-04   3.4438566e-05  -1.2079765e-04  -2.6532280e-04  -1.6891699e-04  -3.8968117e-04  -1.0165372e-04  -1.1363542e-05   5.3565262e-04  -2.5531919e-05  -3.3660809e-04  -1.0468542e-03  -7.0351374e-04  -5.7291876e-05  -7.4083905e-04
  -3.2283532e-04  -3.6223419e-04  -3.8782635e-04  -3.9247930e-04  -2.7555972e-04  -5.8351469e-04  -3.2958508e-04  -8.9610874e-04  -9.5614203e-04  -7.1834518e-05  -4.2206279e-04  -2.5927811e-04  -2.5901897e-04  -4.9981161e-04   1.0664526e-04   1.7625229e-04  -3.8567651e-04  -6.6624722e-04   4.4116052e-04  -5.6425597e-05  -1.0273780e-04  -4.7679219e-04   2.1315101e-04   1.2785049e-04  -1.6819968e-06  -2.3773049e-04   4.0780629e-05   2.3716397e-04  -1.3571838e-04  -1.2790070e-04  -1.0375312e-03  -8.6315085e-05   4.4171657e-06   2.8231824e-04  -1.2126163e-03   7.9982483e-04   1.6879350e-04  -1.3318629e-04  -6.7475798e-06  -5.0736085e-04   1.9867024e-04   3.2691279e-04   4.1209508e-04  -1.1145951e-04   1.7603113e-04  -7.5998052e-04  -6.8755081e-04  -3.7629378e-04   5.4002053e-04   6.8440844e-05
  -2.5544086e-04   3.7685950e-05   1.4856113e-04   3.2458486e-04   4.7418111e-04  -4.6606784e-04  -2.4725808e-04   1.9591185e-04   2.3896666e-03   3.6580846e-04  -1.7837558e-05  -1.7513003e-05   7.4941294e-05   2.3024595e-04   3.8395607e-04   3.9290168e-04   3.2354801e-05  -2.4817036e-05  -4.5674411e-03   2.0266046e-04  -9.1048503e-05  -4.8918766e-04   4.8093338e-04   2.5624048e-04   3.5195384e-04   2.2384236e-05  -7.2608523e-06   1.3834340e-04   6.6180888e-04   9.8408302e-05   2.5362990e-04  -1.2116792e-03  -4.4383612e-04   1.4973646e-04  -8.2977273e-04   2.1460002e-04   9.9645920e-05  -2.5114397e-04   2.0040643e-05  -2.4887628e-04   2.6117780e-04   3.3781870e-04   3.8481390e-04   4.6685041e-04   2.2993486e-04  -8.5369090e-04  -7.2371640e-04  -3.6959333e-04   3.2137492e-04   1.3536313e-05
  -5.2104238e-04  -8.8693814e-06   1.0281416e-04   2.7989389e-04   8.1215920e-05  -5.4270789e-05   1.9249685e-04   4.1945968e-04   2.2433011e-03   1.8324603e-04  -1.9423520e-04  -7.2942705e-05   8.2442253e-05   3.8911181e-05   2.8142246e-04   3.0724827e-04  -1.3125935e-04  -1.1353866e-04  -4.4210586e-03  -1.7801918e-04  -2.8924210e-04  -6.9244695e-04   1.0236877e-04  -1.1912006e-04  -2.1915082e-04  -2.4579271e-05  -1.4858326e-04   3.1908156e-04  -8.2392398e-05  -2.2938919e-05  -6.5800844e-04  -1.3398563e-05  -8.1568182e-04  -4.8062611e-06  -1.2806910e-03  -2.9934157e-04  -3.1563119e-04  -2.8622214e-04  -1.9690058e-04   2.2372649e-05  -2.5691174e-04   7.8239609e-05   1.6843322e-05  -1.8121636e-03  -3.9034858e-05   4.5633278e-05  -1.0066055e-03  -6.7225273e-04  -2.1804858e-04  -2.5666127e-04
  -5.4648775e-04  -3.6395833e-04  -4.4414090e-04  -1.1082574e-04  -1.0794663e-05  -7.2800776e-04  -3.3317500e-04  -3.7333675e-04   1.4246997e-04   1.2873064e-04  -3.3806742e-04  -2.2339517e-04  -5.4946972e-06  -2.5685321e-04  -9.2773786e-05   3.1651789e-04  -2.0315075e-04  -2.4488798e-04  -1.1448332e-03   1.5054489e-04   2.3428474e-07  -4.2865123e-04   4.2385352e-04   7.8414516e-05   4.2967635e-04   1.0169564e-04   2.7308933e-04   2.9339798e-04   2.3097865e-04  -1.7188917e-04   6.2732882e-04   3.4083764e-04  -6.5120507e-04   7.5374986e-04  -1.3742526e-03  -9.0066373e-04  -1.0103884e-03  -1.9834547e-04   1.4425411e-04  -5.3494133e-04   6.5206684e-04   4.9659645e-04   6.4077380e-04   1.0235361e-03   4.3838675e-04   9.1408193e-04  -5.9597782e-04  -2.0800071e-04   3.8840741e-04   1.4249260e-04
   1.1036464e-04   1.5537246e-04  -1.5016645e-05   3.9427582e-04  -2.1907919e-04  -1.3515001e-04   6.2646449e-04   2.6541267e-04  -2.8795227e-03   3.3121856e-04   2.7884485e-05  -4.5191133e-05   2.2592720e-04   3.2036306e-04  -6.9085116e-05   5.5235968e-04   2.3233735e-05  -1.4770507e-04  -1.4820138e-03   3.8576266e-04   4.1726613e-05  -3.1104867e-04   4.2157553e-04   5.5115393e-05  -2.3788707e-04   3.4417066e-04   1.9547874e-04   1.4561716e-04   8.5265748e-04   7.9294347e-05  -1.1984484e-04   1.3384171e-04   1.3779757e-04   6.6509697e-04   9.4510918e-04  -1.4024490e-04  -7.2627264e-04   2.5825432e-04   1.2295159e-04   4.9067737e-04   2.5432758e-04   3.8161583e-04   4.6441308e-04   4.2500833e-04   2.2479931e-04   4.5429933e-04  -7.0984074e-04  -2.4366773e-04   3.3060348e-04   1.3378405e-04
  -2.7102855e-04  -4.8711045e-06   1.8414510e-04   1.0363974e-04  -3.2435564e-04   2.3767866e-04   2.3892212e-04  -1.8797794e-04  -4.6410006e-03   2.6278274e-05  -5.8808204e-05  -1.8754943e-04   4.9165479e-05   1.4981366e-04   4.8810474e-04   3.3121175e-04  -1.9214266e-04  -2.2446025e-04  -1.1265413e-03  -2.4958254e-05  -1.8428439e-04  -5.9201074e-04  -7.6317541e-05  -7.8387777e-05  -3.0901333e-04  -3.8320399e-05  -1.3085727e-04   2.5809341e-04   3.4128272e-05  -1.0717939e-04  -9.5857074e-04  -1.8073975e-04  -4.7950898e-04   3.4827186e-05  -3.5653694e-04   2.3184456e-04   1.9771721e-04  -4.1861908e-04  -6.6686705e-05   1.5380475e-04  -3.0289075e-04   8.1154569e-05   1.1336680e-04   5.3521694e-04   4.4083772e-05  -2.9977199e-04  -9.8981720e-04  -6.4126099e-04   3.1399904e-04  -2.5170820e-04
  -8.1760954e-04  -3.8903859e-04  -6.7257082e-05  -2.0049320e-04  -1.0574619e-04  -8.5047958e-04   1.6666694e-05  -4.3013747e-04  -1.9376577e-03   3.7588725e-05  -3.0314497e-04  -2.3136415e-04   1.1709792e-04  -6.0304115e-05  -4.7959922e-05   3.8230437e-04  -1.7276508e-04  -5.3349789e-04   1.5316107e-03   2.2040292e-04   1.0419850e-04  -1.1010264e-04   4.9375347e-04   1.3910163e-04   5.9309223e-04   2.8572380e-04  -6.1999082e-05  -2.2820079e-04  -1.8218409e-04   5.3572981e-05   1.1860086e-03  -2.3984925e-05  -2.1306792e-04   5.1228690e-04   5.1756785e-04  -6.3374947e-04  -4.7311699e-04   1.1005131e-04   1.6037250e-04   6.1713877e-07   5.2445260e-04   5.2920420e-04   8.4039755e-04   6.4865040e-04   3.8944453e-04  -3.5761826e-04  -5.0284213e-04  -1.1824235e-04   6.5504108e-04   5.1063008e-04
   1.6241428e-04   2.8009017e-04   5.0707645e-04   5.2823965e-04  -2.4209623e-04   1.4473140e-04   3.4991669e-04   4.5453908e-04   8.1521692e-04   3.7271951e-04   2.3883190e-04  -6.7097180e-06   3.5245795e-04   3.5340525e-04   4.8955664e-04   7.6844665e-04   2.3039407e-04   4.4864613e-05   3.1567612e-03   4.2134352e-04   1.9811805e-04  -6.4237247e-05   1.4663534e-04   2.1862803e-04   2.8267282e-04   5.2807154e-04   5.1892042e-05   4.0178763e-04   8.8709072e-05   1.7896666e-04   7.5389649e-04   3.6625829e-04   5.2501587e-04   8.8613108e-04   8.8750467e-06   1.6139827e-03   8.1028935e-05   1.4994189e-04   1.7387606e-04   4.4369453e-04   7.6569000e-04   4.9809332e-04   5.4763013e-04   1.1410476e-03   5.9447391e-04   1.0570941e-03  -5.5148028e-04  -1.3525817e-04   5.3404237e-04   2.5508675e-04
   2.9820966e-04   6.1427585e-05   1.5620251e-04   2.1394563e-04   2.2558006e-05   1.1027334e-04   1.5615432e-04   1.3189157e-04  -1.2710394e-03   1.2181173e-04   1.0887890e-04  -1.3733690e-04   2.3486823e-04   2.6054416e-04   3.7803189e-04   6.2031770e-04   2.3273322e-05  -6.7009401e-05   3.9134468e-03   1.1232129e-04  -7.4053693e-05  -3.7384892e-04  -1.2278766e-04  -7.7529432e-05  -2.0480089e-04  -1.3938081e-06   1.1717804e-04   1.0810501e-04  -2.4973555e-04  -1.7712504e-04   1.3182790e-03  -5.3709885e-04  -2.5423415e-04   4.0015031e-04   1.0232845e-03  -5.6068058e-04  -5.5018236e-04   6.0423336e-05  -1.1874962e-04  -4.3305886e-04   2.7745383e-04   1.6400762e-04   2.4691524e-05  -7.7472162e-04   1.6704331e-04  -1.5432457e-03  -8.6594303e-04  -4.3365522e-04   4.2398882e-04  -2.3159165e-04
  -5.9937302e-04  -3.4397261e-04  -8.4477906e-06  -1.4846718e-04  -2.0167654e-04  -4.8524121e-04  -4.1530177e-04  -1.6973607e-04  -2.0438936e-03  -4.3736957e-04  -2.2421172e-04  -4.4178902e-04  -1.3385015e-04  -3.0724623e-04  -5.6454854e-05   2.6464072e-04  -4.0572439e-04  -3.6967365e-04  -2.0233612e-03  -3.3683970e-04  -2.8489769e-04  -6.8380556e-04   1.5578176e-04  -2.0941850e-04   7.9335883e-04  -2.4833894e-04  -7.7505130e-05  -1.7087060e-04   1.3501952e-04  -3.8258371e-05  -2.3443627e-04  -2.1256918e-04  -4.4572496e-04   4.9819000e-04   2.1777254e-04   1.9110669e-04  -4.9626245e-04   2.6041421e-04   9.5657553e-05  -1.0919892e-04   1.0042320e-03   5.6412269e-04   7.2456407e-04  -3.0103730e-04   3.5866728e-04  -6.3354714e-04  -4.5864261e-04  -1.0506381e-04   7.6932821e-04   4.1390123e-04
   4.1556810e-05   2.0135262e-04   5.5938895e-04   6.6445972e-04   3.0749638e-04   2.3497359e-04   9.9411630e-04   3.4898781e-04  -1.5446835e-03   6.3955452e-04   5.6419085e-04   1.2376916e-04   6.0859194e-04   5.7833828e-04   3.8493966e-04   7.3002232e-04   3.4813321e-04   1.5621037e-04  -1.9798307e-03   5.9471739e-04   2.0976931e-04   8.0394413e-05   8.1086502e-04   3.6429046e-04   7.8612509e-05   1.9772915e-04   2.4745549e-04   2.7449909e-04   5.1481905e-04   1.8212220e-04   4.5301218e-05  -3.8910334e-04   2.2412359e-04   4.8244168e-04   6.5101992e-04   6.6601473e-04   1.0488119e-05   2.9089689e-04   3.5700624e-04   1.3898648e-03   1.0002910e-03   5.8253366e-04   8.5188396e-04   1.9688515e-03   4.0842340e-04   2.7395037e-04  -3.8869190e-04   3.4793797e-05   7.9718663e-04   4.0517910e-04
   2.9626439e-04   3.3876233e-04   5.0947216e-04   5.4880715e-04   1.5783813e-04   5.8338023e-04   4.4950232e-04   2.9487795e-05  -1.6599199e-03   3.4334246e-04   2.1683026e-04  -4.9929688e-05   4.3225146e-04   6.4173620e-04   2.8203573e-04   6.4033264e-04   2.2538741e-04   1.0660556e-04  -6.4963341e-04   3.1279022e-04   1.5918071e-04   2.9928082e-05   2.0498734e-04   3.7267100e-04  -6.7558099e-04   3.7185365e-04   6.4903049e-04   6.4598239e-04  -1.0639313e-04   6.8357389e-05   4.6017126e-04  -8.1212216e-05   3.7112777e-04   6.4889970e-04  -3.1778254e-04   9.9501049e-04   1.1118721e-03   3.7488638e-04   1.7370062e-04   6.7913014e-04   9.4197976e-04   4.7504177e-04   5.8635505e-04   1.1420815e-03   4.4853290e-04  -5.5414013e-04  -5.4432836e-04  -2.5956164e-04   5.0085416e-04   3.8874726e-04
  -5.0341159e-06   9.9311954e-05   3.2046324e-04   3.3936382e-04  -5.0383859e-04  -3.6820990e-04   5.9524638e-05   1.3950550e-04   3.4195073e-03   3.0008241e-04   1.5080180e-04   5.5948422e-05   1.8891590e-04   1.8922305e-04  -1.5125562e-04   4.6833255e-04   1.1330541e-04  -1.9091918e-04  -3.2631478e-03  -7.2991927e-05  -2.4263977e-04  -5.3106033e-04   7.3489400e-06   9.1257665e-05  -3.4207289e-04   8.8267305e-05   4.1160988e-06   4.4663667e-04  -5.0206636e-05  -6.8260058e-05  -6.5500656e-04   4.4258060e-05  -8.5654337e-04   2.1556052e-04  -5.1504635e-04   7.9349149e-04   1.0972606e-03  -4.2095791e-05  -9.5683339e-05   7.6132256e-04   6.8470101e-05   1.8702995e-04   1.8539201e-04   3.6495688e-04   1.6275932e-05   9.6148538e-04  -7.5393479e-04  -4.2821121e-04   1.5927373e-05   3.7746817e-05
  -6.4277800e-04   2.6308902e-05  -4.0779327e-05   2.5382210e-04  -3.9236835e-04   1.6940133e-04   1.0792611e-04   1.7646984e-04   2.8934809e-03   5.0897285e-04   2.6262415e-04   2.3958382e-05   3.1859524e-04   4.2766953e-04   6.3784741e-04   7.5129454e-04   2.6237845e-04   8.9076901e-05   4.5664771e-04   6.2770833e-04   3.2524229e-04   3.6635291e-04   6.2515517e-04   4.7011630e-04   5.6468241e-04   6.1105652e-04  -8.8323999e-05   5.7492789e-04   1.1650780e-03   9.1183625e-05   1.6780648e-03   5.5680086e-04   1.4687910e-04   1.0156254e-03   1.0261809e-03   4.3714925e-04  -1.3245443e-04   8.7890215e-04   4.7429258e-04   1.0579444e-03   1.3342118e-03   7.3268689e-04   9.3695213e-04   4.6061026e-04   5.9320487e-04  -3.8108949e-04  -2.4024624e-04   1.1295955e-04   6.1933574e-04   4.2891703e-04
   5.6311418e-04   5.4049789e-04   6.7709479e-04   9.0652541e-04   2.7349929e-04   7.2446902e-04   9.6637208e-04   6.5569836e-04   1.4225035e-03   7.0811756e-04   3.7702933e-04   2.2361254e-04   5.1856105e-04   7.3817564e-04   8.1038388e-04   9.4250462e-04   4.8782656e-04   2.5337716e-04  -7.4079761e-04   4.7531293e-04   2.0950362e-04   2.4818358e-04   8.8082673e-04   5.4557022e-04   1.8098311e-03   6.8128051e-04   5.1537500e-04  -1.9948384e-04   6.8973401e-04   4.7483802e-04  -1.3164401e-03   3.8727713e-04   5.3366995e-05   9.3496562e-04  -8.1458738e-06   1.4003730e-04   2.0078538e-04   5.8721978e-04   3.7218878e-04   8.7942451e-04   1.0320919e-03   6.2794110e-04   7.4866234e-04  -1.6970768e-04   6.4543402e-04  -6.6507113e-04  -3.2851676e-04   4.1890478e-05   7.1347563e-04   4.2383865e-04
   4.1712669e-04   5.3530734e-04   4.9657404e-04   5.5043370e-04  -9.7256721e-05   3.8275073e-04   9.7315398e-04   6.5213587e-04   2.2307003e-03   5.1066082e-04   1.6079099e-04   1.3905810e-04   2.3479083e-04   3.9559352e-04   1.5768499e-04   7.8621798e-04   2.4143954e-04   1.7187443e-04   2.8061245e-03   2.9501371e-04  -5.7635374e-05  -1.9867216e-04   5.5830250e-04   1.5152905e-04   7.7861495e-04   2.9885740e-04  -7.5183154e-05   6.5388602e-05   1.2119556e-04   1.9812841e-04   1.7189801e-04   4.1531603e-05   1.5859287e-04   1.0631265e-03   2.1373176e-03  -5.2226929e-04  -8.0606587e-05   1.3421208e-04   5.2750172e-05  -4.4739939e-04   4.5422264e-04   3.0022292e-04   1.2024525e-04   1.5825122e-04   1.9180539e-04   1.2582191e-03  -6.3476246e-04  -2.8552354e-04  -5.3945212e-05   6.9260357e-05
   1.8905179e-04   9.2654358e-05  -4.0566531e-05   1.1046875e-04   4.2957984e-04   2.0807648e-04  -1.5231229e-06   5.8548296e-05   2.3188182e-04  -1.2062385e-04  -3.1615805e-04  -1.6924980e-04  -6.9720787e-05   9.8315206e-05   4.3248921e-04   4.0341003e-04  -1.2704461e-04  -2.0196228e-04  -6.3002151e-03  -1.5095847e-04  -9.9256526e-05  -2.8956271e-04   2.4328653e-04  -4.4115372e-06   4.4409835e-04  -7.6292919e-05   1.4567685e-04   1.6173649e-04  -9.3516421e-05  -1.4677545e-04   1.2980454e-03   2.2225936e-04  -2.4620740e-05   3.4974387e-04   7.3278631e-04   5.1186612e-04   5.0870003e-04   4.3186435e-04   1.6076195e-04   4.2617539e-04   5.3127040e-04   5.2169815e-04   4.0655804e-04   9.2561799e-04   4.1480569e-04  -1.6468401e-04  -3.2687900e-04  -5.0497267e-05   5.8467226e-04   2.6866625e-04
  -4.0833089e-05   5.3221924e-04   8.1985170e-04   9.3651819e-04   6.9590285e-04   3.7052351e-04   7.0489722e-04   3.1661562e-04  -4.9306280e-03   6.1024434e-04   5.4685218e-04   1.5273146e-04   4.9661443e-04   6.0149742e-04   3.8708275e-04   9.1046444e-04   4.1822874e-04   3.4421158e-04  -1.2615142e-06   4.8452444e-04   8.5402615e-05   1.2044825e-04   1.0156041e-03   5.2799168e-04   3.7458571e-04   5.4244237e-04   2.1445888e-04   3.7275924e-04   8.7494921e-04   3.2770835e-04  -1.2441257e-04   1.6657270e-04  -2.4679097e-05   1.1320912e-03  -1.1522017e-03   1.0285566e-03   1.9794550e-04   4.7660858e-04   3.0596892e-04   1.0284872e-03   8.4620551e-04   7.0741423e-04   9.3221734e-04   4.9838305e-05   6.6417333e-04   1.3577468e-04  -2.9848560e-04   8.6659951e-05   9.8649540e-04   6.8231201e-04
  -1.2047743e-05   3.6433685e-04   6.0231413e-04   6.3949270e-04  -7.1545830e-05   8.3650555e-04   2.3975184e-04   5.2105410e-05   2.6522175e-04   4.1954787e-04   3.4968942e-04   8.0773672e-05   4.6898154e-04   6.6932722e-04   4.0121411e-04   6.3379330e-04   2.5684995e-04   7.8937323e-05  -2.7034483e-03   2.5466521e-04   9.1884613e-05  -5.9746366e-05   5.3980853e-04   2.9638829e-04   2.9174727e-04   3.5919916e-04   5.1157700e-04   9.5802691e-04   8.7578950e-04   4.6151668e-05   1.7231802e-04   3.2030288e-04   1.0225219e-04   6.4953556e-04   7.9680909e-04   1.0078816e-03  -6.3714472e-04   1.0074914e-04   1.0792776e-04   4.9730606e-04   1.7529394e-04   2.7644771e-04   4.0951357e-04   9.7086222e-04   2.3277602e-04  -1.1330663e-04  -6.0737767e-04  -3.7436685e-04   3.4359045e-04   6.9440779e-05
   6.0385886e-05   1.1693296e-04  -2.6918322e-04   1.3289694e-04   1.6308897e-04  -2.9103181e-04   6.8519957e-04   5.8072877e-05  -3.2607748e-03  -8.3953470e-05  -2.1238215e-04  -1.5414356e-04   1.0179689e-04   3.0994379e-05   3.0220466e-05   4.5126054e-04  -1.3838412e-04  -9.4459327e-05   1.1459454e-03  -2.2859004e-04  -2.4836502e-04  -3.4245948e-04  -2.9058734e-05  -7.4345386e-05  -1.1253746e-03  -7.2160503e-05  -2.4578735e-04   3.7625866e-04   3.6509195e-04  -2.0466743e-05  -8.3675914e-05   5.2858866e-04  -5.6415005e-04   3.0726034e-04   4.4815670e-04  -3.8918119e-04  -5.4318452e-04  -1.2097938e-04  -1.1914380e-04   3.8321776e-04  -1.6225634e-04   2.0482957e-04   4.3063832e-05   5.7792524e-04   5.1263818e-05  -3.9981722e-04  -4.8475611e-04  -3.0053334e-04   6.8073999e-04  -1.4479788e-05
  -1.5939846e-04   3.4551395e-04   4.1616123e-04   5.2731187e-04  -2.5550596e-06   5.0278008e-04   5.3015270e-04   4.9173838e-04   5.9658913e-03   3.8596138e-04   1.9707149e-04   3.9840706e-05   5.5835955e-04   4.2472463e-04   8.0511265e-05   7.3491567e-04   4.0959017e-04   2.0268567e-04   1.9299297e-03   6.4981624e-04   4.5130975e-04   7.3849381e-04   4.8176222e-04   2.3027153e-04   3.5437627e-04   1.6558221e-04   1.2511258e-04   1.7819308e-04   1.9265352e-04   2.2012378e-04   1.1652748e-03   7.7921094e-04   5.3240592e-04   6.0747424e-04   2.2499029e-04   2.1736978e-05   7.8912621e-04   6.3142256e-04   1.7840134e-04   6.6564599e-04  -2.6151459e-04   7.0034941e-05  -7.1784816e-05   6.5975013e-04   4.3618563e-04  -1.4768430e-03  -4.5054033e-04  -2.2092838e-04   2.9804694e-04  -3.4031083e-04
   1.7273914e-04   4.4586993e-04   1.2582909e-04   5.8193365e-04   3.8978575e-05   6.4383325e-04   7.5875543e-04   5.7664624e-04   5.2246349e-03   1.0700649e-04  -1.1300873e-04  -1.2871630e-04   3.1686717e-04   4.1222447e-04   1.5958591e-04   5.7443068e-04   2.8822027e-04   1.3288979e-04   7.6944468e-04   4.5877791e-04   3.6910741e-04   6.1501580e-04   7.4933800e-05   2.3024542e-04   9.1854465e-04  -2.4056944e-04   6.8429962e-04   2.6434084e-04   1.5478035e-04   4.8007369e-05  -7.5911568e-04  -4.3422572e-04   3.2102645e-04   3.6121262e-04  -6.7015941e-04   1.2242400e-04   1.6378555e-04   2.0908247e-04   2.8053888e-05   1.4852147e-04  -5.1023235e-04  -1.8231690e-04  -3.3347186e-04  -1.0813469e-03   1.8031771e-04  -1.3517534e-03  -6.8782881e-04  -3.8600652e-04  -8.3888473e-05  -6.5618550e-04
  -2.1357622e-05   1.0169864e-04   2.5927184e-05  -2.0604897e-05  -3.6586903e-04   8.1433725e-05  -1.8633778e-04   5.5883289e-04  -1.4210298e-03  -4.0653817e-04  -4.0329463e-04  -3.5926045e-04   2.1378517e-05   8.9925277e-05  -1.4114527e-04   1.9443667e-04  -2.0261513e-04  -2.7081472e-04  -3.4869383e-03  -1.6153314e-04  -3.4253182e-05   1.0399578e-05  -2.2707183e-04  -3.9397826e-04  -4.4300235e-04  -2.7212937e-04  -2.3805931e-04   1.4291688e-04  -3.8742274e-04  -1.8625925e-04  -6.3988240e-04  -5.1982996e-05  -2.2727547e-05   1.0110904e-04   1.0259364e-03  -6.6650740e-04  -6.3963915e-04  -2.9040186e-04  -2.1977864e-04   5.9233449e-04  -5.4435816e-04  -2.9397581e-04  -5.2479637e-04  -1.4961814e-03  -4.8339089e-06  -1.4434254e-03  -6.3055323e-04  -3.3992753e-04   2.9683401e-04  -5.9615815e-04
   3.7726402e-04   1.2559255e-04   9.3817471e-05   1.2103299e-04   2.3844760e-04   1.7013414e-04   2.6301545e-04   2.8505363e-04   6.1565865e-04  -9.0191781e-05  -2.4767349e-05  -3.2094747e-04   3.0465281e-04   3.4180240e-04   6.5909226e-05   4.8775377e-04   3.0974072e-04   2.2193337e-04   1.7161281e-03   7.1629416e-04   6.9651369e-04   1.0102470e-03   2.3629183e-04   1.3875826e-04   7.8941998e-04   2.4241430e-04  -5.0180133e-05   4.3406113e-04   4.1466922e-04   3.5251721e-04   8.6897356e-04   8.9176896e-04   1.0487580e-03   9.7179163e-04  -8.4871805e-04   2.5093952e-05  -2.5156580e-04   9.3641417e-04   2.4005177e-04   1.5508968e-03  -7.0590017e-05   3.1188971e-05  -1.9518020e-04  -6.6900568e-04   4.4066287e-04   8.6705905e-04  -3.8824370e-04  -2.1292741e-04   3.7156357e-04  -4.3049530e-04
   3.3515468e-04   3.6547330e-04   4.1330449e-04   4.8413791e-04  -3.3731831e-04   6.1736919e-04   9.9859826e-05   5.2243919e-04   4.2493315e-03  -1.0332665e-04   1.1627097e-04  -2.2674378e-04   3.6751875e-04   4.9078069e-04   1.9898471e-04   4.7354939e-04   2.7948932e-04   2.8323030e-04   1.2725092e-03   5.4574653e-04   5.6059490e-04   8.5818040e-04   3.6965724e-04   8.1816288e-05   2.8117569e-04  -1.1660642e-04   4.1481949e-04   5.3792924e-04   1.5950389e-04   6.9105314e-05   8.5349008e-04   1.9452647e-04   9.6367963e-04   6.6965842e-04   1.0699973e-03   5.3582102e-04   9.1791712e-04  -1.8116235e-04   5.4831635e-05   7.2464423e-04  -4.4258553e-04  -2.0799735e-04  -3.2479438e-04  -1.8658015e-03   2.1127243e-04   6.7195180e-04  -6.4080837e-04  -3.8031003e-04   3.6344977e-04  -6.6774775e-04
   5.2548345e-04   5.7989604e-05   2.6273975e-04  -1.8617651e-05   4.7428400e-04   4.9091002e-04   2.5104487e-04   3.4351493e-04  -5.5189087e-04  -1.9739087e-04  -1.4457546e-04  -2.9051056e-04   5.3504114e-05   2.7579744e-04   1.7082419e-04   1.3108013e-04  -8.2392777e-05  -1.6846272e-04  -3.2538476e-03   2.2943614e-05   4.0433151e-05  -3.0160905e-05  -4.1560474e-04  -6.2410836e-05  -1.1995344e-04  -3.2034292e-04   5.5893739e-05  -4.1717917e-04  -2.3572205e-04  -1.4718062e-04  -6.1031996e-04   7.1976639e-05   2.1364313e-04   2.8694037e-04  -2.7215885e-04   7.5690565e-04  -9.2091650e-04  -3.1525761e-04  -2.8928733e-04   3.3448127e-04  -9.7260746e-04  -5.8232591e-04  -1.1256862e-03   8.5053750e-04  -2.5665501e-04   6.9014517e-05  -8.8170875e-04  -7.3452864e-04  -4.4186807e-05  -1.2111360e-03
   2.3846675e-07  -1.2209390e-05  -6.0789425e-05  -1.5434813e-04   1.7156334e-04   3.5515195e-04  -2.8480461e-04  -1.7717230e-04  -3.5209395e-03   2.3510233e-04  -9.5947515e-05  -7.9827150e-05   3.0293813e-04   2.2532808e-04   1.0815848e-04   3.9326088e-04   3.9301158e-04   1.9304881e-04  -3.1351272e-04   6.7505578e-04   5.9122319e-04   9.4560219e-04   4.9782754e-04   2.6718501e-04   2.7700837e-04   2.6787578e-05   4.7180895e-04   2.5092228e-04  -7.0387352e-05   2.0830409e-04  -1.9155987e-04   9.7255164e-04   8.0848509e-04   5.8725331e-04   4.7069092e-04  -3.6065397e-04  -4.4199343e-05   4.0600769e-04   1.9108568e-04   7.2267681e-04  -1.4350138e-04  -1.6748603e-04  -4.8483047e-04   2.0521414e-03   3.7273811e-04  -7.9141813e-04  -3.0332938e-04  -2.0753416e-04   6.5184681e-04  -4.9577712e-04
   1.4695064e-04   6.1865331e-04   2.0044111e-04   4.6334587e-04   4.8153186e-05   7.6919299e-04   3.2902515e-04   1.7518517e-04  -1.3346262e-03   3.6788741e-04   1.9750449e-05   1.4998001e-04   4.2318850e-04   3.7635450e-04   2.5025441e-04   5.1008485e-04   4.4445466e-04   3.3488343e-04  -4.3754774e-04   7.1651133e-04   6.1867607e-04   1.0123131e-03   6.0554914e-04   3.9211748e-04  -1.1653501e-04   1.6890555e-04   6.6166060e-05   1.0370497e-04   3.2689498e-04   1.5225467e-04   1.3294551e-04   1.3276873e-03   8.4507663e-04   4.4511785e-04   1.8765570e-03  -5.9115951e-04  -3.3350785e-05   3.4869587e-05   1.1838197e-04   1.1342826e-03  -7.5820036e-04  -4.1349736e-04  -5.6910096e-04   6.6279934e-04   1.7308765e-04  -1.2425502e-03  -4.1798432e-04  -2.3476839e-04   6.5406424e-04  -6.6490966e-04
   1.2702940e-04   4.6245434e-04   1.2416384e-04   3.6505488e-04   1.0824925e-03   8.0088578e-04   1.1996974e-04   2.5808992e-04  -6.9826905e-04   9.9797144e-05  -1.6386283e-04   8.4601823e-05   2.1983508e-04   1.6276904e-04   4.6640309e-04   1.2960767e-04   2.2607770e-04   1.0564485e-04   2.2392592e-03   3.2438905e-04   2.9368285e-04   4.9518910e-04   1.5764222e-04   1.3057985e-04  -3.4333940e-04  -2.4775768e-04  -1.2471619e-04   4.2966456e-04  -2.4271291e-04   1.7250817e-04   2.8793557e-04   5.6250335e-04   5.2248727e-04   3.7635243e-04  -2.5987201e-03   8.9557143e-05  -4.4175884e-04  -2.0675246e-04  -1.3184396e-04   1.9778672e-04  -1.3324211e-03  -7.9448969e-04  -1.2816547e-03  -1.1427731e-03  -4.1878218e-05  -1.2689494e-03  -6.7336415e-04  -6.8782060e-04   3.7821555e-05  -9.9602924e-04
   1.9031862e-05   1.2753018e-04  -9.4502728e-05  -1.6141475e-04  -1.3618771e-04   2.0132001e-04  -5.3594960e-04  -5.1065699e-06   1.1952665e-03  -3.1113785e-04  -4.7445568e-04  -9.7381446e-05  -2.3128201e-04  -2.5210000e-04   9.0556905e-06  -1.5489780e-04  -2.1621225e-04  -2.8672587e-04   2.8228806e-03   5.1600044e-05   2.8532525e-04   5.1632925e-04   4.4253585e-04   1.8172865e-04  -2.8824614e-04  -4.4001473e-04  -4.9412351e-06   3.7034226e-04   1.1376173e-05  -2.6207021e-04   5.6946417e-05   8.8619301e-04   5.9119094e-04  -1.4422878e-05   2.3856682e-04  -5.1591627e-04   9.1802438e-05   3.1109375e-04  -2.8088954e-05   1.6254159e-03  -6.8856316e-04  -5.2376778e-04  -6.8961317e-04  -3.8427967e-05   4.1930898e-04   5.9166847e-04  -3.0616464e-04  -2.0982655e-04   3.5668901e-04  -6.6945050e-04
   2.2384498e-04   5.5767869e-04   1.3938962e-04   4.7185141e-04   9.6347518e-05   9.8124298e-04   2.7218924e-04   3.0023803e-04  -2.5538185e-03   2.1664311e-04  -9.5639216e-06   1.6787213e-04   2.9404456e-04   2.6422265e-04   4.0597483e-04   2.9231806e-04   3.9206987e-04   2.2299976e-04   3.9956593e-03   6.1412505e-04   6.5024331e-04   1.0929696e-03   5.3287840e-05   5.5580254e-04   1.0864054e-03   5.1027986e-05  -7.8245739e-06   2.9585161e-04   3.4194512e-05   9.9949975e-05   1.0575266e-03   4.5149107e-05   5.6790339e-04   2.6367404e-04   5.8495632e-04   1.0834617e-03   7.7883611e-05   3.2468131e-04   3.1232021e-06  -4.4848057e-06  -1.0545281e-03  -6.6403428e-04  -1.1366035e-03  -1.3894074e-03   2.2834103e-04  -1.4003459e-03  -3.5982151e-04  -2.3086707e-04   3.0176862e-04  -6.7096058e-04
   3.8845802e-04   3.9566300e-04   1.9264041e-04   1.4946265e-04  -1.2061270e-04   8.9025096e-04  -2.5702303e-04  -1.7908156e-05   2.7810892e-03  -1.3987217e-04  -2.6371932e-04  -6.9905113e-06   5.7705813e-05   7.5512427e-05   3.3973117e-04  -5.4441763e-05   2.8653620e-04   2.4960897e-04   3.6433865e-03   2.7322312e-04   4.5048393e-04   7.3095271e-04   2.7926409e-04   2.9704866e-05  -2.0462359e-05  -2.7581514e-04  -2.0866859e-05  -2.6382325e-04   1.2758670e-04  -2.2370063e-04   3.3509897e-04   2.8268082e-04   5.1101350e-04   4.8985844e-04   7.9873065e-04  -2.7312417e-04  -6.6797808e-04  -6.9382542e-05  -1.8903284e-04   4.3625370e-04  -1.3366723e-03  -8.5445482e-04  -1.3195470e-03  -4.8015808e-04  -1.8375156e-04   4.8019353e-04  -6.5287750e-04  -4.6937368e-04  -6.3918364e-05  -1.1544202e-03
  -3.0197951e-04  -3.8706348e-05  -4.5970717e-04  -3.3871704e-04  -4.1524816e-04  -3.8509363e-05  -5.3992937e-04  -4.1837688e-04   3.4096402e-03  -5.0309231e-04  -5.2223483e-04  -1.9559539e-04  -2.4020065e-04  -2.3260660e-04  -2.5685530e-04  -2.8109580e-04  -2.4871144e-04  -2.7312883e-04  -2.6360964e-03  -3.6907318e-04  -9.0740286e-05  -8.7000029e-05  -5.1245076e-04  -1.3933032e-04  -5.0994690e-04  -4.0070707e-04  -4.7443574e-04   1.3031268e-04  -1.4190184e-04  -3.4291588e-04  -1.7419587e-04  -3.7978071e-04  -8.1447615e-05  -4.7185435e-04   8.4044819e-04  -4.0583403e-04  -3.3391654e-04  -3.8319724e-04  -3.3387996e-04  -8.6757948e-04  -1.0677607e-03  -7.7381654e-04  -9.2995923e-04  -6.1562605e-04  -1.5280989e-04   7.3555962e-04  -4.4493258e-04  -3.2740884e-04  -1.2042869e-04  -8.6496759e-04
   2.3954008e-04   6.5708235e-05  -7.0874863e-05  -3.5440946e-05  -1.1954318e-04  -1.1532965e-04   3.6839751e-04   4.3960731e-04  -1.4619835e-03   3.0579882e-05  -1.1579913e-04   1.0463543e-05   1.9793380e-05   1.2164269e-05   7.3813810e-04   2.5898300e-05   1.9690403e-04  -1.3814562e-05   1.2813344e-03   3.4374735e-04   4.6233987e-04   6.4302166e-04   3.0653260e-04   1.9296951e-04   1.3482869e-04  -1.4288625e-04   1.0158695e-04   3.6605529e-06   3.4179387e-04  -1.2698667e-05   7.8253867e-04   3.8242922e-04   3.4338929e-04   3.2591779e-06  -5.3615536e-04   5.0399924e-04   2.9125912e-04   2.9162515e-04  -9.1174108e-05  -5.4589804e-04  -1.1934561e-03  -5.3028186e-04  -7.5759139e-04   4.4023833e-04   8.1057813e-05  -1.2683598e-04  -3.3356514e-04  -2.1264472e-04   1.3822745e-04  -8.7133003e-04
   3.7883758e-05   1.1604845e-04  -1.6013248e-05   9.0648136e-05   1.4034771e-04   7.7028584e-04   7.6700125e-08  -3.9319333e-04   2.6016051e-03  -1.6087708e-04  -2.1078277e-04  -6.9856782e-05   1.9270727e-05  -9.7462053e-06  -1.0430244e-04  -6.1802129e-05   1.6067905e-04   3.3477536e-05   3.9421571e-03   2.4599195e-04   3.0410566e-04   3.9198803e-04  -1.0437376e-05  -5.5676464e-05  -7.2009617e-04  -2.4834948e-04  -9.3591538e-05   2.2375383e-04   2.6787625e-04  -1.9476333e-04   5.6350173e-04   5.5812425e-06   6.9194351e-04  -2.7984384e-04  -2.5465630e-03  -1.1104731e-03  -5.6071734e-05  -3.0486146e-04  -2.0125764e-04   1.9110473e-04  -1.0293757e-03  -7.0456258e-04  -1.0428656e-03  -4.5655816e-04  -3.1662267e-04  -4.7689912e-04  -5.5905106e-04  -3.8064618e-04  -3.4140499e-05  -1.1871906e-03
   2.0408917e-04  -2.0620470e-05  -2.4040900e-04  -1.9512583e-04  -6.2315533e-04  -1.7517183e-05  -5.2916369e-04  -1.3261037e-04   3.2776496e-03  -5.3995516e-04  -7.2479824e-04  -2.1368729e-04  -2.2319981e-04  -4.0046786e-04  -1.2432205e-04  -3.3136594e-04  -2.9924331e-04  -3.0564831e-04   8.2564767e-04  -3.0711075e-04  -4.6854170e-06  -9.5152420e-05  -3.0006660e-04  -2.3955219e-04  -3.5267651e-05  -4.1583908e-04  -1.7775132e-04  -1.0526398e-04   5.4139378e-05  -3.5824851e-04  -6.1576557e-04  -3.5053378e-04  -3.4124992e-04  -3.9382925e-04   5.4275070e-04  -1.6367977e-03   8.7981149e-05  -6.2772812e-04  -4.3833337e-04   2.7770895e-04  -1.1741692e-03  -8.8671630e-04  -1.2968336e-03   7.4734486e-04  -6.0065632e-04  -2.2919616e-03  -5.5587996e-04  -4.4922763e-04  -1.1994784e-04  -9.3745161e-04
  -1.0669039e-04  -5.9691964e-05  -3.1877775e-04  -2.0926274e-04   1.2495137e-04   1.2773443e-04  -2.5339483e-04   7.3641779e-05   1.9113263e-03  -1.3138450e-04  -2.9804755e-04  -6.6940105e-05  -4.5867575e-05  -1.9921741e-04  -2.4010734e-04  -1.1033974e-04   1.5090640e-05   9.1588241e-05  -1.3847658e-03   3.1018123e-04   4.1632584e-04   4.9257814e-04   1.0044999e-04  -6.0917055e-06  -2.0179313e-04  -5.4944921e-05  -4.8507037e-04  -4.5243680e-04  -4.2991832e-04  -1.1898333e-04   1.1366446e-03   8.1883816e-05   4.7094410e-04   3.1850625e-05  -6.6905032e-04  -1.3725950e-03   8.0523797e-04  -2.0641889e-04  -5.6363784e-05  -1.4908153e-04  -7.8717025e-04  -5.3165329e-04  -7.9417543e-04  -1.0981273e-03  -6.5700435e-05   1.0950197e-04  -3.6642703e-04  -2.2812209e-04  -8.4242354e-05  -7.8883901e-04
   2.3546531e-04   1.6938912e-04  -4.4226408e-04  -4.2402327e-05  -4.4793924e-04   1.4604529e-04   1.4954501e-04   5.0880750e-05   2.4694344e-03  -2.0386951e-04  -2.3916512e-04  -8.3635816e-05  -6.6240107e-05  -5.4246771e-05   8.4059648e-05  -1.9470909e-04   5.2653384e-05   1.2094773e-04   3.9908760e-03   8.1360311e-05   2.6253110e-04   4.0411126e-04  -2.1092041e-04  -1.7492150e-06  -1.0842714e-04  -1.8736211e-04  -7.8394107e-05  -8.1180675e-05  -1.7224888e-04  -1.7054613e-04  -2.9490862e-04  -4.7927981e-04   8.3439860e-05   1.0617549e-04  -3.1560857e-04   7.2288420e-04  -3.6012166e-04   1.3582937e-04  -2.0059313e-04  -3.0966854e-04  -1.1075655e-03  -5.6481309e-04  -7.5943413e-04  -8.3888124e-04  -4.0684961e-04   1.3936075e-05  -5.2200136e-04  -3.5271878e-04  -1.6347331e-04  -8.5459219e-04
  -9.2669659e-05  -2.8464885e-05  -2.2757980e-04  -2.3924629e-04  -1.0374262e-03  -5.1402656e-04  -6.2397332e-04  -2.1970099e-04   4.5214533e-03  -5.2556914e-04  -7.0890400e-04  -2.8550162e-04  -4.0891679e-04  -3.2792980e-04  -1.4904857e-04  -3.6224816e-04  -3.3555127e-04  -2.4745447e-04   3.8655910e-03  -3.5806809e-04  -4.7186219e-05  -1.7666540e-04  -7.5766403e-04  -3.4131182e-04   4.7036679e-05  -5.2957295e-04  -6.3623872e-04  -6.3034293e-04  -4.2509662e-05  -3.8532383e-04  -3.2896589e-04  -5.9722424e-05   4.1253143e-04  -4.0734996e-04  -1.6816973e-03  -1.0189593e-03   5.4114492e-04  -8.4903190e-04  -4.7434142e-04  -4.9248256e-04  -9.8952046e-04  -7.1636902e-04  -1.0450046e-03  -1.1337085e-03  -3.7051193e-04  -1.1009832e-03  -4.3632434e-04  -2.9048053e-04  -1.9253675e-04  -8.7021128e-04
   1.9054821e-06   8.8110981e-05  -1.1112061e-04  -6.5658140e-05  -2.6989140e-04   2.1907198e-04  -1.4060724e-04   9.0613554e-05   1.3205427e-04   9.4222878e-06  -1.1027617e-04  -9.5821139e-05   3.6378107e-05  -9.9427249e-05  -3.2967349e-04  -1.4042377e-04   1.8215996e-04   1.9543545e-04   2.6054523e-04   5.0162058e-04   4.9677608e-04   7.3220086e-04   8.1742532e-04   1.3387631e-04   6.7501509e-04   7.5655731e-07   5.8023557e-05   2.7577998e-04   5.0332921e-04   2.3033332e-04   1.6030779e-03   9.2098740e-04   2.8082170e-04   3.6022175e-04   9.6654956e-04   3.6777699e-04  -5.9791084e-04   4.7260869e-04   6.7185290e-05  -4.3834318e-04  -4.9917161e-04  -3.1341624e-04  -2.7876641e-04  -4.2124363e-04   2.4531573e-05   3.4954783e-04  -1.6744410e-04   6.4365537e-05   2.1343072e-05  -6.4231036e-04
   1.0364973e-04   2.9683407e-04   8.7979162e-05   2.0151003e-04   1.0653082e-03   3.4889620e-04   1.7787653e-04   3.1043273e-05   3.4447189e-04  -3.9859831e-05  -1.1996579e-04  -7.8244855e-05   1.7996215e-05   1.0851057e-04   6.7043344e-05   3.1343472e-05   7.1465256e-05   1.9396660e-04   1.3471245e-04   3.8980244e-04   4.0390750e-04   5.4968178e-04   1.1865375e-04   1.1869505e-04  -8.1749509e-05  -2.4105204e-04   2.5935378e-05  -4.0675621e-04   1.5995723e-04   1.3543226e-05   1.2621146e-03   1.0221684e-03   8.1328372e-04  -1.6146958e-04   1.2677067e-03  -5.1079987e-04  -6.0422014e-04   4.1636642e-05   3.3699191e-05   6.3228188e-05  -2.5189589e-04  -2.8634002e-04  -5.6634063e-04   1.3455111e-03  -3.0079141e-04  -1.9240737e-05  -2.6836962e-04  -3.1077088e-05  -2.1068323e-04  -7.9447217e-04
  -1.7931547e-04   1.1025117e-04  -2.3071011e-04  -1.4316355e-04   1.0216449e-04   8.6838692e-05  -6.4574333e-04   8.6124652e-05  -1.0065650e-04  -4.4053956e-04  -3.6186547e-04  -2.5777699e-04  -2.5957974e-04  -2.7498705e-04  -1.2421714e-04  -2.6975511e-04  -1.3129076e-04  -1.0033287e-04  -3.6369236e-03  -1.8543025e-04   6.7633358e-05   2.8331258e-05  -1.8903980e-04  -2.3012074e-04  -4.7821781e-04  -3.5658068e-04   1.5426397e-04  -2.7314925e-06  -1.7281817e-04  -4.5105080e-05   1.5999655e-04   7.9971665e-05  -1.7138933e-04  -3.0868239e-04   5.3606898e-04  -3.6707282e-04  -4.5519588e-05  -2.7412927e-04  -3.8157831e-04   3.1143759e-04  -7.1909640e-04  -5.3890335e-04  -7.1114837e-04  -5.6027825e-04  -4.0632157e-04  -2.1557133e-03  -2.0484172e-04  -3.6504622e-05   2.9599201e-04  -7.3331746e-04
   1.7237500e-04   1.0993175e-04   1.3773193e-04   2.1006190e-04  -2.2953541e-04   4.6377649e-04  -1.3396343e-04   3.7319819e-04  -3.1372602e-04   9.1313254e-05   4.3365246e-05  -7.1087226e-05   1.0954573e-04   9.8596887e-05   5.0034159e-05   1.6691301e-04   2.5190608e-04   3.4458179e-04  -6.4744940e-04   6.9445302e-04   6.4679299e-04   8.9961296e-04   4.9554999e-04   3.1848918e-04   1.3730248e-03   1.1293183e-04   1.5500824e-04   2.2126194e-04  -1.2269703e-04   1.9107596e-04   8.9574221e-04   3.6400475e-04   1.2441416e-03   3.9945496e-04  -8.9572987e-04  -5.7227863e-04   3.3589249e-04   2.9856994e-04   1.7165134e-04   1.0369757e-04  -2.2024887e-04   2.2427673e-06  -7.4317599e-05   5.9785799e-04   1.4851005e-04  -6.4141193e-04   1.0992787e-04   3.5376594e-04   3.4779482e-04  -3.3926329e-04
   4.0826271e-04   3.6855304e-04   2.7670618e-04   4.5088684e-04   5.4164260e-04   5.7019218e-04   5.4641115e-04   3.3971859e-04  -6.1183894e-04   3.7430334e-05   1.1426248e-04  -4.2028190e-05   2.8136614e-04   2.4522608e-04   9.7927266e-05   1.6329421e-04   2.2855989e-04   3.0033934e-04  -3.2120286e-03   4.2725823e-04   5.5771833e-04   6.8919646e-04   4.9106893e-04   1.1995441e-04   1.1270449e-03   1.7832180e-04   2.5046826e-04   2.6031627e-04   5.6586071e-04   1.4291948e-04  -1.1542509e-03  -9.3326627e-05   5.8612728e-04   6.1656849e-04   1.0151357e-03  -1.1055125e-03  -6.8626810e-05   6.3626783e-04   7.3054521e-06   1.2027846e-04  -2.3581841e-04  -1.0576077e-04  -2.8049646e-04  -7.8429753e-04   8.3173472e-05   6.8245310e-04  -2.1610849e-05   1.0013788e-04   3.0175596e-04  -5.6208530e-04
  -1.1843230e-04   9.8855446e-05   3.8475857e-05   2.5838951e-06  -4.8663261e-04   9.3714429e-05  -2.0388312e-04  -6.6550187e-05  -1.1820185e-03  -3.6739904e-04  -1.6796881e-04  -2.4340689e-04   4.5911063e-05  -1.0440735e-04   8.7994034e-05  -8.8581713e-05  -3.7237431e-05   1.8634384e-04   9.6544311e-05   3.8245882e-05   2.7007124e-04   3.1546710e-04  -2.4382875e-04  -1.0705096e-04   4.0996412e-04  -2.1814776e-04  -6.2208921e-05  -2.7717379e-04  -1.9020481e-04  -2.2683493e-04  -8.9622696e-04   6.1717292e-04   7.7731669e-04  -1.0744004e-05   4.7623189e-04   7.3119107e-04  -1.6770339e-04  -1.9612082e-04  -2.4789281e-04   2.0492486e-04  -6.6506059e-04  -4.6051553e-04  -8.0310710e-04  -7.2603213e-04  -3.5637099e-04  -1.9580808e-03  -2.5982183e-04  -1.5152231e-04   1.3876006e-04  -8.9154870e-04
   2.7122005e-04  -1.6578694e-04  -1.5329526e-05  -5.2587056e-05  -1.9211652e-04  -3.4005125e-04  -3.0754101e-05   1.7750614e-04   9.5627569e-05  -2.3763921e-05   2.1352002e-05  -1.8361861e-04   1.7463602e-05   2.2162487e-04   4.4548616e-04   1.5329728e-04   2.6620633e-04   2.5496690e-04   1.8492782e-03   6.4871792e-04   6.1555445e-04   8.3272392e-04   4.7209175e-04   3.5927325e-04   1.4355365e-04   1.2823276e-04   6.2672375e-04   6.0414476e-04   1.4134610e-04  -1.8125220e-05  -1.9436424e-04   7.6820038e-04   6.4341200e-04   6.7003194e-04   1.7015275e-03   4.7710768e-05  -1.0215723e-03   7.6234876e-04   1.3411554e-04   7.4232504e-04   2.8933765e-04   1.0384472e-04   2.1312070e-04   1.2027787e-03   2.4189752e-04  -1.2809593e-03   1.8013308e-04   4.6612328e-04   7.5612927e-04  -1.4096950e-04
   3.1279257e-04   4.4464757e-04   3.7504904e-04   5.5055972e-04  -1.7776247e-04   6.5601256e-04   3.8236679e-04   3.6818095e-04   1.0609883e-03   6.8301626e-05   2.3036584e-04  -8.5371583e-05   5.4686633e-04   3.8817007e-04   4.6809643e-04   3.6667180e-04   5.3149142e-04   4.6751442e-04   2.7246864e-03   8.1829587e-04   7.0005452e-04   9.9703157e-04   6.6662231e-04   3.3105380e-04  -4.8037073e-05  -1.1812909e-04   3.7953170e-04   8.0886348e-05  -6.1098440e-04   2.4810707e-04   9.8803648e-05   9.8527386e-04   1.1151694e-03   3.8859266e-04   3.0393217e-04  -9.8344847e-04  -1.1366825e-04   4.3844411e-04   1.0414312e-04   4.7781793e-04  -1.3669410e-07   1.6232390e-05  -1.0854730e-04   3.0254302e-04   1.9670885e-04  -3.8062164e-04   1.0358629e-04   3.4454820e-04   7.5476390e-04  -2.3588989e-04
   5.2202100e-05   3.6361549e-04   6.4574397e-04   2.6474718e-04   1.1207216e-04   5.6466070e-04   3.9169175e-04   3.8757833e-04   6.8879942e-04  -7.1069437e-05   9.7938333e-05  -8.5571584e-05   2.8345804e-04   3.7519800e-04   4.7027771e-04   1.4321945e-04   2.2019181e-04   3.3489705e-04   5.1441756e-03   3.6148581e-04   3.1605922e-04   4.2262988e-04  -1.6226239e-06   1.3849800e-04   1.0449304e-03   2.6605010e-05   4.3077016e-04   1.8022741e-04  -3.6328718e-05   1.3933837e-04   1.0307770e-03  -1.3719477e-04   4.1498421e-04   4.0796562e-04  -2.9500548e-04   2.1286334e-04  -6.2854122e-04   3.1137024e-04  -9.7634089e-05  -3.0857671e-04  -2.3999448e-04  -2.2826949e-04  -3.7089569e-04  -1.8956710e-04  -1.0402842e-04  -6.6544348e-04  -1.5867203e-04   1.6941408e-04   6.6531044e-05  -4.7402538e-04
  -2.1109276e-04  -6.8224479e-05  -2.9871805e-04  -7.7370052e-05  -5.0414336e-04   2.3088095e-04  -2.1588862e-04  -1.5958432e-04  -7.8780157e-04  -2.5900250e-04  -1.8651980e-04  -2.2630785e-04   8.1001781e-06   4.7776393e-05   4.9596969e-05   9.1585016e-06  -1.0288397e-04   4.6130503e-05   1.5736889e-03   4.5650150e-04   4.2795792e-04   5.2636705e-04   5.7145930e-06   1.8399111e-04   1.7840318e-04   9.9737454e-06  -8.7056738e-05   1.1194714e-04   6.8237679e-04   7.3388605e-05   8.9780119e-04   5.2260433e-04   8.3357020e-04   3.4155726e-04  -9.4976759e-04   1.4103825e-03  -1.4864128e-04   5.6492334e-04   1.3212944e-04   1.8014039e-03   3.8619773e-04   1.1527764e-04   6.6880493e-05   1.3709171e-03   3.4320593e-04  -9.6704345e-04   2.4588828e-04   5.6374702e-04   7.6690933e-04  -1.7305430e-04
   3.1648067e-04   6.1180536e-04   5.1802892e-04   5.4606097e-04   9.3501888e-04   9.4655919e-04   7.1052427e-04   5.4570782e-04   1.2968562e-03   1.9311784e-04   3.1951963e-04   4.8446464e-06   5.7845528e-04   6.6557742e-04   3.1889454e-04   4.4981585e-04   6.5418374e-04   4.2860417e-04   3.6272735e-04   7.8514859e-04   6.6576467e-04   9.9613029e-04   5.6589098e-04   4.0925798e-04   1.2817499e-03   2.3952170e-04   6.3722453e-04  -2.3739016e-05   3.2915914e-04   2.2285664e-04   7.1298622e-04   1.7974812e-04   1.2555901e-03   9.6919551e-04   1.4496368e-03   9.0051786e-04  -6.2226766e-04   7.5949024e-04   2.7179334e-04   1.1790309e-03   3.6688993e-04   1.1315569e-04   6.0573144e-05   4.7514730e-04   3.7801737e-04  -9.6928311e-04   2.6949131e-04   4.8440538e-04   8.8705547e-04   3.2570715e-05
   6.6518137e-04   4.7831243e-04   4.3773960e-04   6.8002084e-04  -5.0069473e-04   7.1244995e-04   2.2253951e-04   4.3150995e-04   1.5232142e-04   2.2869844e-04   3.7881057e-04   5.7804511e-05   2.7332449e-04   4.4363458e-04   3.8236001e-04   3.3638984e-04   5.5869587e-04   5.8985257e-04  -1.3574117e-03   5.6537578e-04   3.4811001e-04   4.7397744e-04   5.2953510e-05   3.1159018e-04  -4.7652662e-04  -6.4649088e-05   3.0578056e-05   5.2573992e-04   2.6918031e-04   2.5074685e-04   6.0855760e-04  -7.0351467e-04   3.9643890e-04   5.0166558e-04  -4.5284021e-04   4.9977447e-04  -1.3168620e-04   3.5160681e-04   2.1980684e-05  -5.3719390e-04  -2.3578534e-04  -1.3961655e-04  -4.2751289e-04  -2.2413969e-04   4.2189829e-05  -1.5591198e-03  -2.3043067e-05   3.2868123e-04   5.6635891e-04  -3.4105434e-04
   6.9231930e-04   1.9418489e-04   5.7532911e-06   3.1225802e-05   9.6823038e-05   2.2449027e-04   2.7287443e-04   3.1628835e-04  -1.3188098e-05  -2.5366296e-04  -2.2661268e-04  -1.6692004e-04   1.0959803e-04   4.2098007e-05   3.0794844e-04   3.5388737e-05   1.3517374e-05   7.0117159e-05   1.4778529e-03  -7.9873121e-07   1.0760898e-04   1.4945510e-04  -2.7717408e-04   2.4925934e-05   9.2966977e-05  -3.9876869e-04  -1.3422672e-04   1.2309084e-05  -1.2273502e-05   5.2697462e-05   2.4097106e-04  -1.0339608e-05   8.3085062e-04   1.7171990e-04  -7.5471454e-04   2.7231032e-05  -8.4652728e-04   4.1737308e-04  -7.1363997e-05   2.6869934e-04  -6.5291053e-05  -4.7539750e-05  -5.1511441e-05  -2.4165121e-04   1.2384905e-04   1.7369604e-04   1.3593050e-04   4.8607818e-04   4.6753304e-04  -4.5424295e-05
   8.3855516e-04   4.1549100e-04   6.1021518e-04   6.7853788e-04  -3.2582859e-04   3.5267725e-04   7.8510557e-04   5.5322773e-04   3.0280601e-03   2.0060272e-04   3.1563986e-04   6.3718112e-06   4.4942141e-04   5.3495198e-04   4.2954000e-04   5.0308049e-04   5.5521459e-04   6.8087684e-04   2.3905664e-04   7.7481405e-04   5.8016612e-04   8.7413157e-04   1.8872584e-04   3.3215573e-04   5.7962247e-05   9.2058879e-05   3.8518818e-04   3.3644194e-04   3.2465736e-04   1.4174191e-04  -5.0790585e-04   3.4083999e-04   9.7581500e-04   8.0849224e-04   1.1461897e-04   1.1814984e-04   6.0736743e-04   3.2614390e-04   1.2852570e-04  -1.0724495e-03   5.5312685e-05  -7.1597183e-06   1.8065677e-04  -6.2755321e-04   4.3871542e-04   8.4667205e-04   1.2174436e-04   4.7892967e-04   5.4462231e-04  -9.1314061e-05
   4.0335822e-04   4.1098954e-04   6.4992841e-04   3.7220746e-04   6.9632777e-05   7.6529506e-04   3.7950696e-04   4.3845229e-04   2.6794982e-03  -9.1372960e-05   2.6515557e-04  -1.2489170e-04   3.7297577e-04   6.4533483e-04   5.8653217e-04   3.1703626e-04   4.1030932e-04   4.9280998e-04  -1.8266225e-04   4.2878071e-04   4.2310814e-04   5.3815445e-04  -1.1435517e-04  -1.4830915e-06   3.3204458e-04  -2.6578177e-04   2.0489260e-04   6.1496749e-04  -2.7016702e-04   3.7893653e-06  -1.1768668e-03   4.8073937e-04   9.0286491e-04   1.9761338e-04   2.8455001e-04  -7.9288735e-04   1.8588628e-04   5.1182975e-05  -1.2323857e-04   7.5194304e-04  -4.0487098e-04  -2.5533774e-04  -5.9461856e-04   1.3939514e-04   4.6360965e-05  -7.9395412e-04  -1.1666485e-04   3.8497012e-05   2.2511465e-04  -5.7147542e-04
  -7.9473568e-05  -1.9187983e-06   1.7357062e-04  -1.2061412e-04  -6.4545026e-04   5.3636456e-04   7.7102261e-05   7.9047488e-05  -4.9497164e-04  -5.5349368e-04  -2.4495294e-04  -2.7945009e-04  -1.8361725e-05   5.6485238e-05   4.2414205e-04   9.8580285e-06  -6.0181494e-05   2.4003772e-05  -4.1476300e-04  -1.1476382e-04   9.2662573e-05   1.0472383e-04   7.8077486e-05  -1.6793284e-04  -5.9694296e-04  -5.0134805e-04  -4.5920955e-04   1.3512840e-04  -2.6065396e-04  -2.0907568e-05   1.1390926e-03  -1.3456003e-04   6.0970957e-05   1.3277346e-04  -1.8650171e-04   7.4509223e-04  -6.6245632e-04  -1.9743711e-04  -3.0441099e-04  -3.2404807e-04  -3.1128613e-04  -3.8961892e-04  -5.9984147e-04   4.7164288e-04   4.9203507e-05  -1.1494615e-03   3.0574356e-05   1.1171077e-04   3.8624194e-04  -4.0376562e-04
   3.2041312e-04   2.5107607e-04   3.1639892e-04   3.5138638e-04   5.6546746e-04   7.7475194e-04  -2.6744651e-04  -6.6142595e-05   1.4784992e-03  -1.3922380e-04   1.4662511e-04  -1.2721398e-04   4.4858962e-04   3.5535856e-04   3.8722254e-04   3.6342582e-04   3.1879608e-04   3.4126235e-04   3.3286279e-03   5.4179068e-04   5.2010437e-04   7.2794902e-04   1.4632235e-04   2.4285328e-04   1.3411138e-03   2.0940768e-04   3.9498678e-05  -1.2687105e-04   4.2572059e-04   6.0167698e-05   2.6975985e-04  -2.4635126e-04   6.9026573e-04   3.9142236e-04  -3.8649765e-04   7.6042284e-04   5.7888957e-04   1.8659845e-04   1.0084808e-04   4.5518624e-04  -2.7738081e-04  -2.0403843e-04  -9.8837132e-05  -1.8594375e-04   2.0142681e-04  -1.3028659e-03   1.2490273e-04   1.4318187e-04   6.8354449e-04  -2.0781269e-04
   1.3305728e-04   2.5063497e-04   6.5821514e-04   3.6904452e-04   1.0968353e-04   4.7240150e-04   4.0207215e-04   1.6946254e-04  -1.3163730e-03  -2.0757411e-04   6.0423394e-05  -1.2588286e-04   2.7303628e-04   3.1621955e-04   2.2161394e-04   2.7568609e-04   2.9156570e-04   2.1609530e-04  -3.5389438e-03   4.5123644e-04   3.7110856e-04   6.0140528e-04   4.8473110e-05   1.1336264e-04  -1.0038082e-04  -2.8041922e-04   3.4030565e-04   1.2566044e-04   2.2410833e-04   1.0362842e-04   2.7459141e-04   6.4665091e-04   7.9511810e-04   3.9592429e-04   4.6350669e-05  -7.1043213e-04   6.0374376e-05   3.8275338e-04   5.6095910e-06   3.5253841e-05  -4.6060787e-04  -3.2897410e-04  -3.5364047e-04  -1.3700060e-03  -3.0615618e-05  -4.6483954e-05  -1.4010562e-04  -7.1250950e-05   1.4626050e-04  -4.2519593e-04
   3.3679686e-04   4.4037199e-05   1.8522401e-04   3.8846829e-05   5.5304420e-04   2.5724512e-04  -2.7012645e-04   1.9260756e-04   2.8591470e-03  -4.7040553e-04  -2.7295417e-04  -2.6676763e-04  -6.4624019e-06   1.3345538e-06   2.8550046e-04  -1.0914543e-04   1.4988213e-05   5.0216146e-05  -4.5286585e-03  -9.0236099e-05   8.4592546e-05   1.9130173e-04   1.7759565e-04  -8.5493375e-05   6.3026417e-04  -4.5925881e-05  -4.6870310e-04   3.0082717e-04   7.3364681e-05   2.9487528e-06   3.7300409e-04   2.3014417e-04   1.1921092e-03   2.7325493e-04  -6.0147699e-04  -6.4709624e-05   7.0342683e-04   6.3743000e-04   2.4794479e-04   1.2627622e-03   4.4434582e-04  -9.1997768e-05  -2.4791391e-04   1.2233630e-03   4.5573892e-04   4.1438785e-04   1.6278872e-04   2.7425535e-04   5.4769637e-04   9.6281154e-05
   9.1664371e-04   5.4011767e-04   6.9549843e-04   7.7970355e-04   6.5702014e-04   8.4411184e-04   1.6293052e-04   3.7970021e-04   1.5171025e-03   1.8959760e-04   3.1345728e-04   7.5390650e-05   4.2511855e-04   4.9774582e-04   4.9834250e-04   3.5949738e-04   6.5240241e-04   6.0507865e-04  -3.0786921e-03   6.5396994e-04   5.3283945e-04   9.0684794e-04   7.1138178e-04   4.0350595e-04   3.0008607e-04   4.5352260e-04   4.8769292e-04   2.7601517e-04   7.4595684e-04   3.4507035e-04   1.2284844e-03   8.9996523e-05   7.4022170e-04   6.1489490e-04  -9.2114677e-04   8.6194789e-04  -1.4783529e-04   3.0269774e-04   3.0500288e-04   8.4245426e-04   3.0054920e-04  -2.4467459e-05   8.6803404e-05   1.6966471e-03   3.4763329e-04   7.8261847e-04   1.6378016e-04   3.5513903e-04   3.9673326e-04   8.0156773e-05
   1.0922042e-03   4.7324202e-04   1.4210162e-04   7.5953541e-04   1.0068672e-03   8.0122473e-04   6.3617545e-04   5.6083541e-04   1.1935339e-03  -1.2580125e-05   9.0560854e-05  -1.7261827e-05   3.4302135e-04   4.6940675e-04   6.7836599e-04   3.6052481e-04   4.6642779e-04   5.0254032e-04  -2.5237685e-03   5.6138675e-04   4.0949712e-04   6.3376356e-04   2.8569330e-04   1.9157217e-04  -2.1695580e-05  -3.0728159e-05   4.7653329e-04   5.1038008e-04   4.0471097e-04   2.5191929e-04   2.2726469e-03   4.2382293e-04   6.2704511e-04   1.5317801e-04   1.0293572e-03   8.9499523e-04   7.9336955e-05  -1.5656262e-05   1.3640858e-04   6.3481944e-04  -1.8528574e-04  -3.1835731e-04  -4.5486429e-04  -2.5383342e-04   2.2708546e-04   1.0847026e-04  -1.2286776e-04   2.3759674e-05   9.1315575e-05  -3.1898636e-04
   1.2955186e-04   9.2707793e-05   6.7884073e-05   1.6600209e-04   3.1182187e-04   2.3040788e-04  -3.4344118e-04   4.3062631e-05   2.6140369e-03  -4.2575350e-04  -1.0621452e-04  -2.2750815e-04  -5.2728847e-05   1.5904312e-04   5.1914842e-04   1.2682060e-04   3.0364723e-05   1.6271429e-04   1.0813008e-03   4.0280496e-04   4.2555790e-04   6.9028448e-04   3.3994054e-04   1.6277500e-04   1.3302634e-03  -7.2381350e-05   3.5211138e-04   5.5983610e-04   5.6320406e-04   2.9483761e-04   1.6619868e-03  -2.7464061e-05   9.0153550e-04   9.3732757e-04   1.0118154e-03   2.9401589e-04   7.1821391e-04   5.0173071e-04   3.3966784e-04   7.5442711e-04   2.6659307e-04   3.4805864e-05   1.9249365e-04   1.1848054e-03   5.8184320e-04  -7.4884057e-04   3.5661471e-04   4.3212689e-04   5.2708847e-04   8.7395063e-05
   1.4275445e-03   7.1962387e-04   7.9258060e-04   8.9234603e-04   4.9252226e-04   1.5066235e-03   7.9073134e-04   1.1322651e-03   7.9153655e-03   2.2641970e-04   3.5843553e-04   9.8830162e-05   5.5052765e-04   6.5685168e-04   7.0153596e-04   5.4672151e-04   7.4192334e-04   7.4598624e-04  -1.3055924e-03   9.2500600e-04   7.3952024e-04   1.1991798e-03   8.5178745e-04   5.6533236e-04   1.3683984e-03   4.4837338e-04   1.7254245e-04   7.8430789e-04   3.3986001e-04   6.7051133e-04   4.0533204e-04   1.0351683e-03   1.0898031e-03   7.9374219e-04   1.6336024e-03   1.6322130e-03   4.5034054e-04   3.1445222e-04   5.0470239e-04   1.2115602e-03   4.6644142e-04   2.2758982e-04   3.3181900e-04   2.4731093e-05   5.1349116e-04   7.4531545e-04   5.1211636e-04   5.7414465e-04   5.8589573e-04   1.1025796e-04
   7.9069094e-04   4.7651984e-04   1.0186791e-03   7.4000383e-04   5.5718771e-04   7.3404948e-04   5.2963052e-04   8.7363523e-04  -1.1616462e-03  -2.4284811e-05   3.9360041e-04  -4.3742089e-06   3.7254914e-04   4.9626984e-04   4.6410627e-04   5.5211416e-04   4.9029879e-04   4.6143474e-04  -1.4146480e-03   5.4249505e-04   4.5565609e-04   7.2670827e-04   1.2885222e-04   2.2403595e-04   1.1421840e-03   3.9095373e-04   4.8445178e-05   4.9285998e-04   2.7096609e-04   3.6660035e-04   1.0603986e-03   8.4687438e-04   5.3263159e-04   4.7432803e-04  -1.4219561e-03   1.0984729e-03   1.4895069e-03   3.1622808e-04   1.5887515e-04   8.5655425e-04   2.1021490e-04   7.1618496e-07  -1.2720551e-04   1.0613400e-03   1.0641275e-04   7.6867308e-04   2.7827133e-04   3.5329501e-04   9.2010116e-05  -3.4399312e-05
   9.4659015e-04   2.7235958e-05   2.3640234e-04   1.4474343e-04   2.0305174e-04   3.4202877e-04   5.3633080e-04   4.1281462e-05  -4.1083890e-04  -3.6723915e-04  -1.1782416e-04  -1.6667960e-04   3.4957018e-05   1.1420481e-04   2.3659509e-04   1.3399735e-04   2.3894415e-04   1.2465556e-04   1.5744747e-03   1.9189570e-04   2.9589038e-04   4.4203177e-04  -3.0428160e-05   7.0317915e-06   5.1078672e-04  -2.8156527e-04   3.7122803e-04   3.2620828e-05   2.7171226e-04   1.8152116e-04   1.3731450e-03   6.8536919e-04   8.3934638e-04   7.6645991e-04  -4.1192128e-05  -6.2159635e-04   3.8864758e-04   4.4221801e-04   3.3873905e-04   1.1410983e-03   7.4005598e-05   2.1964403e-04   1.2239456e-04  -6.1800965e-04   4.6991120e-04   1.1334802e-03   5.7930499e-04   6.4479903e-04   9.4974088e-04   1.9791655e-04
   1.1008159e-03   6.9917511e-04   7.4386428e-04   1.0514113e-03   1.0006842e-03   1.1683401e-03   1.3049279e-03   1.1858882e-03   9.2159939e-04   3.8520276e-04   6.3313672e-04   1.9390165e-04   6.7871955e-04   8.1570871e-04   8.5411704e-04   6.5098918e-04   8.4506598e-04   9.0484379e-04   3.6076591e-03   9.3409943e-04   7.2378339e-04   1.0977011e-03   1.0221709e-03   4.8281267e-04   1.1297211e-03   4.9526262e-04   4.5151362e-04  -1.5100054e-04   3.2596805e-04   3.3303723e-04   1.4876396e-03   1.6894419e-03   7.3927524e-04   6.9718389e-04   1.5835000e-03  -2.6723326e-04   2.3221468e-04   3.7088629e-04   4.5257609e-04   2.7368023e-04   9.9610840e-04   2.3564455e-04   3.3354669e-04   8.0358691e-04   4.8421623e-04   3.4950071e-04   5.6001806e-04   7.2284322e-04   1.0858823e-03   1.6552857e-04
   4.3811926e-04   7.0878759e-04   7.9663337e-04   8.1538048e-04   4.8103239e-04   1.2967357e-03   9.8355953e-04   3.0041518e-04  -2.1596092e-03   2.1609593e-04   3.9841278e-04   1.2812008e-04   4.4025024e-04   5.7289755e-04   8.0379815e-04   6.1720790e-04   6.4601976e-04   5.6642800e-04   2.3296513e-03   7.3456962e-04   5.8880995e-04   9.2817354e-04   6.2222552e-04   3.6576128e-04   1.1474969e-03   3.9649644e-04   4.4153110e-04   1.1261951e-03   6.3361268e-04   3.1110429e-04   9.3592174e-04   5.8323017e-04   7.5937749e-04   5.5875623e-04   3.0393319e-04   1.0908406e-03  -4.2200362e-04   4.2118636e-04   2.7901586e-04   7.8257447e-04  -8.3683990e-05  -4.7906953e-05  -9.7073316e-05  -1.0188553e-03   2.2772384e-04  -2.1258531e-04   3.2125655e-04   3.4200511e-04   6.7819987e-04  -1.2643289e-04
   2.3752423e-04   2.9937056e-04   3.2031766e-04   4.5870445e-04   9.7896547e-05   5.6717749e-05   6.4770109e-04   4.0080267e-04   4.9601262e-03  -2.3071791e-05   1.5832606e-04   6.6260072e-05   1.6530573e-04   1.2310522e-04   5.3171546e-04   3.7648933e-04   3.8054094e-04   2.9839695e-04   9.3593553e-04   1.5797574e-04   1.5987316e-04   3.3563905e-04   7.0882525e-05   2.6573421e-04   5.5731874e-04   2.8190845e-05   3.4062928e-04  -6.1015024e-05   8.6156688e-05   1.0059772e-04   1.3111201e-03   1.2174001e-03   3.8734541e-04   4.1520520e-04  -2.2539378e-03   2.0559398e-06   5.7757170e-05   7.6495053e-05  -3.0605679e-05   2.3093271e-04  -5.7306886e-04  -3.0432161e-04  -5.7013088e-04  -6.5552857e-04   3.4263279e-04  -1.6758048e-03   2.5662166e-04   3.1278533e-04   5.5881136e-04  -2.4359010e-04
   7.2654767e-04   4.2834005e-04   3.2538435e-04   6.5745669e-04  -1.5579262e-04   1.0083233e-03   6.9868227e-04   2.8352629e-04   1.3195076e-03   3.1798592e-04   2.7144689e-04   2.2106488e-04   3.8880049e-04   5.0335604e-04   4.1494373e-04   5.6465151e-04   7.1390439e-04   5.4132409e-04   2.2502679e-03   1.0663077e-03   7.9498242e-04   1.3249505e-03   9.1728609e-04   6.2559365e-04   1.2610685e-03   3.6049105e-04   1.3055516e-04   3.6564260e-04   1.0143577e-03   5.5922667e-04   1.0168602e-03   1.2265577e-03   1.2520046e-03   1.1740332e-03   2.2137011e-04   1.3118327e-04   3.7683963e-04   5.2398688e-04   5.5827264e-04   1.3089210e-03   3.6112280e-04   1.5501525e-04   2.3013851e-04   5.2302983e-04   3.7018611e-04   4.5028009e-04   5.4005114e-04   6.0358061e-04   5.1571208e-04   2.5171763e-04
   7.5134821e-04   7.1894267e-04   7.6212641e-04   9.7814016e-04   1.0391873e-03   8.1355759e-04   6.8338501e-04   6.8607938e-04   1.2864516e-03   3.9666399e-04   4.1085231e-04   3.2857474e-04   5.6099490e-04   6.9898245e-04   6.4752577e-04   5.1021605e-04   7.5211941e-04   5.1411585e-04   4.9374243e-03   8.5584325e-04   6.3690083e-04   1.0707949e-03   4.9874914e-04   5.0282222e-04   1.5966560e-03   4.4830330e-04   5.7809852e-04   7.6089334e-04   7.0234312e-04   6.0086732e-04   1.3862042e-03   2.3489441e-04   8.0552336e-04   8.9483877e-04   1.8544286e-03  -5.1371102e-05   1.0659450e-04   2.8754349e-04   4.3148288e-04   8.1448082e-04   1.1991090e-04   1.5759534e-04   9.3015558e-05   1.9821555e-03   5.8047340e-04   3.7230313e-04   3.9330323e-04   4.8475282e-04   4.1777937e-04   1.3553613e-04
   1.1967225e-03   5.5212295e-04   4.3998234e-04   3.7607615e-04   4.5833987e-04   9.6019037e-04   3.2192696e-04   3.1234403e-04  -5.2786754e-03   4.2144806e-05  -9.8298486e-05   1.4827751e-04   1.4635047e-04   2.3760098e-04   5.8603461e-04   2.8067257e-04   3.3765205e-04   2.4812753e-04  -5.6700443e-04   2.5453395e-04   2.8539007e-04   4.3414993e-04  -1.9191571e-04   1.9161652e-04   8.5352914e-04  -7.5773976e-05   4.2902111e-04   5.2261259e-04   3.2218202e-04   3.2234073e-04   8.5020711e-04  -1.0268392e-04   4.6001968e-04   3.6571579e-04  -1.0480287e-03  -1.4906093e-03  -3.0381314e-04   5.2086404e-04   1.2112474e-04   4.7448536e-04  -5.6687277e-04  -2.1871283e-04  -3.9159181e-04  -1.1064847e-03   6.0554048e-06   1.7816228e-03   7.7505872e-05   1.2384402e-04   1.0584782e-04  -3.4917379e-04
   6.3486918e-06   3.8812414e-05  -5.0964663e-05  -1.7139075e-04   5.7786173e-04   1.7373248e-04  -3.4464454e-05   1.2973663e-04   2.6377465e-03  -2.4839528e-04  -3.8949767e-04  -4.6032827e-05   1.4973912e-04  -1.1822971e-04   2.7870806e-04  -6.0946681e-05   6.5403052e-05  -2.4014495e-05  -1.2966959e-03   2.5796078e-04   4.3840523e-04   6.4463221e-04   2.0031573e-04   4.0337868e-04   4.8633807e-04  -5.7079720e-05   3.8097918e-04   1.7742922e-04   1.0603917e-04   1.4812317e-04   1.3814458e-04   1.8330707e-04   1.0265884e-03   6.3869025e-04  -1.5736674e-03  -8.6174277e-04   6.4056821e-04   1.6692147e-04   2.6901640e-04   1.0359790e-03  -3.9397615e-05   6.4379325e-05   1.5289846e-05  -2.1300741e-04   3.3412862e-04   1.3204727e-03   4.2965350e-04   5.3376838e-04   6.3107483e-04   7.3487514e-05
   8.6499867e-04   5.4836000e-04   6.6423387e-04   7.3990523e-04   7.3100840e-05   9.6112333e-04   8.8942813e-04   6.4192491e-04   2.6356371e-03   1.6159953e-04   2.6035798e-04   1.3231699e-04   2.4337026e-04   4.1103366e-04   7.0024881e-04   3.1335873e-04   4.3160719e-04   5.0421042e-04  -5.9484510e-04   4.7278640e-04   5.2356091e-04   8.1197999e-04   4.2332261e-04   3.9815775e-04   1.5633485e-03   1.2699769e-04   1.8132445e-04   3.1893112e-04   3.1932484e-04   4.7362852e-04   1.0178379e-03   1.3711659e-03   7.0903590e-04   2.5374704e-04   1.5799337e-03   6.7258597e-04   3.0331395e-04   4.6301077e-04   2.6754162e-04   1.5357498e-03   1.4817994e-04  -9.6171738e-05  -1.2124479e-04   8.9798484e-04   1.9008084e-04  -7.6801801e-04   3.1677319e-04   4.1242610e-04   3.6491323e-04  -1.0703738e-04
   5.6960533e-04   3.5992349e-04   2.8570433e-04   3.2377389e-04   9.5975801e-04   8.0360251e-04   6.9602230e-04   2.9288014e-04   7.3762558e-04  -1.2462746e-04  -4.6285891e-06   1.9713063e-05   1.4747596e-04   2.3252620e-04   2.7607181e-04   1.1613395e-04   3.0243184e-04   3.5671116e-04  -3.4124628e-03   2.3792041e-04   2.4365132e-04   3.8518166e-04   3.4349930e-04   1.2913608e-04   7.4341631e-04   7.0796923e-05  -1.2905893e-04  -1.9691488e-05   5.0254599e-05   6.4448170e-05  -3.0500765e-04   9.2929404e-04   8.6917647e-04   5.2450114e-04   5.8541534e-04  -3.0663802e-04  -2.6741682e-04   1.1192258e-04  -1.2244914e-04   3.2183470e-04  -3.0644060e-04  -4.0189968e-04  -5.7100464e-04   3.3326168e-04   3.0977335e-05  -5.0811662e-04  -1.7176802e-05   1.7640414e-05  -3.2625967e-04  -6.3400442e-04
  -2.8312081e-04  -6.6327957e-05  -2.6780265e-04  -2.0499079e-04   4.9659189e-05  -1.7313100e-04  -4.8307929e-04  -7.5556229e-05  -3.5089441e-04  -5.1154476e-04  -3.3803002e-04  -2.0396568e-04  -3.6373382e-04  -2.8917185e-04  -8.4068015e-05  -2.3440410e-04  -3.1658990e-04  -1.2617843e-04  -4.2463923e-04  -2.8701240e-04  -7.2298419e-05  -1.0929818e-04  -2.1740911e-04  -9.1907576e-05  -4.7064541e-04  -3.6119897e-04  -2.9502687e-04   3.5759591e-04  -3.6402521e-04   4.6179819e-05  -8.6532527e-05   5.2453781e-04   3.8350053e-04   1.7503220e-04  -1.7379636e-04   6.3955391e-05  -2.1978265e-04   9.2940871e-05  -4.1712923e-05  -2.1334285e-04  -3.0589208e-04  -1.9254474e-04  -2.1410974e-04  -1.2374694e-03   2.3658664e-04   1.1295676e-04   1.9996719e-04   3.0461175e-04   3.5823559e-04  -2.6243529e-04
   7.4525998e-04   2.8811840e-04   4.1268358e-04   2.9536782e-04  -1.9071494e-04   4.0102025e-04   3.5745939e-04   1.7218602e-04   8.1167201e-04   1.3348228e-05   2.8980005e-05   4.1753901e-05   1.3819992e-04   1.9878492e-04   4.6972660e-04   1.6292043e-04   2.7596907e-04   3.8184063e-04  -2.4305719e-03   3.4630310e-04   3.6876410e-04   5.3083152e-04   1.9834565e-04   1.3606160e-04   4.1100010e-04   1.4870793e-04   3.5591525e-05   3.5845998e-04   5.7405414e-04   2.5095005e-04  -1.1469246e-03  -3.0323278e-04   6.1385648e-04   3.3197136e-04  -1.3059781e-04  -3.6278396e-04   6.1760377e-04   3.7374324e-04   1.6061129e-04   9.8977378e-04  -1.9971661e-04  -1.8759031e-04  -2.5866760e-04  -9.5632259e-04   1.8269468e-04   3.0397903e-04   1.2075342e-04   2.1756231e-04   3.4703928e-04  -4.4887621e-04
   1.4360424e-03   2.3624174e-04   2.1701338e-04   1.5856835e-04   3.6331193e-04   3.0828640e-04   5.7845574e-04   4.4654406e-04   2.8137804e-03  -2.6566951e-04  -1.7026479e-04  -1.3528763e-04   9.2382950e-05   3.9725233e-05  -7.6769757e-06   1.1257408e-05   2.1297459e-05  -3.3178916e-05  -8.5035647e-04   8.2104511e-05   2.4462093e-04   3.6764299e-04   3.6941544e-04   7.9968595e-05   5.2368286e-04  -1.8846875e-05  -1.7697937e-04   1.5928139e-05   1.7924774e-04   1.1243686e-04   4.2716227e-04  -2.3428578e-04   9.4195231e-05   1.6781427e-04  -3.8094580e-04  -1.1197934e-03  -5.0010055e-07   2.0396805e-04  -2.1800843e-05  -1.0575352e-03  -2.8994799e-04  -4.3093943e-04  -5.1771780e-04  -5.2161596e-04  -2.7398241e-04  -1.6634720e-03  -1.4830091e-04  -1.1681466e-04  -2.1303122e-04  -7.1660476e-04
  -9.6345204e-05  -2.0640332e-04  -1.0867473e-05  -4.1880656e-04   3.2424304e-04  -5.5837753e-04  -1.1436851e-04  -3.1576457e-04   2.4571721e-04  -5.0787913e-04  -4.2407954e-04  -2.7425875e-04  -3.5211124e-04  -2.7046198e-04   1.0158580e-04  -4.5361658e-04  -4.6019882e-04  -1.0300441e-04  -5.8238249e-04  -2.3688329e-04   6.3947373e-06   4.1982607e-06  -1.9519709e-04  -9.1794609e-05  -1.5128360e-04  -4.7452032e-04   1.7943871e-04   1.8162061e-04  -2.9463004e-04  -2.8881099e-04   4.8558574e-04   9.7143580e-04   4.9847399e-04   1.1371117e-04   2.5399931e-04  -4.6643851e-04   3.8656185e-04   5.7077775e-04   7.9144273e-05   5.4624362e-04  -3.8228703e-05  -7.8215890e-05   1.1867126e-04   7.1568857e-04   2.2231892e-04  -1.1464027e-03   2.1842062e-04   2.7517459e-04   2.5585727e-04  -1.6209279e-04
  -1.4865310e-04   2.5298333e-04   6.0485589e-04   4.6180194e-04   3.9491081e-04   1.0983796e-03   3.8640416e-04   5.3976534e-04  -3.6661988e-04   1.6124666e-05   1.1747739e-04  -4.5072869e-05   1.4195572e-04   1.6606592e-04   5.0669047e-04   1.4173171e-04   1.2983517e-04   2.7051524e-04   6.4257933e-03   3.6944461e-04   3.7645598e-04   5.3433591e-04   1.7123156e-04   6.4277847e-05   6.0083723e-04   2.6272587e-04   2.6459058e-04  -2.2889351e-04   1.0407777e-04   2.1911759e-04  -3.1719415e-04  -1.5285346e-05   5.6218903e-04   5.2797107e-04  -2.7909456e-04  -3.3466105e-04  -9.5291769e-05  -1.7832784e-04   1.4562758e-04   7.4878038e-04   3.2485966e-04  -8.6364176e-05   7.2139410e-05   2.3866726e-04   2.3358595e-04  -5.3244375e-04   1.8278665e-04   2.6109791e-04   1.5346654e-04  -1.3076651e-04
  -1.8728132e-04   1.3272309e-04   2.9290788e-04   1.0441034e-04   7.1343337e-04  -2.6558821e-05  -3.0885285e-04   4.1767207e-04   8.5679145e-04  -1.8498729e-04  -3.3259852e-04  -1.3483586e-04  -1.1074446e-05  -9.8654418e-05  -4.5523961e-05  -1.0070390e-04   2.2614695e-05   1.3560410e-04  -5.8426330e-04   1.1953735e-04   2.6433670e-04   3.2032453e-04  -2.2448906e-04  -5.8258040e-05   2.6815667e-04  -1.3232844e-04  -1.2836568e-05   2.9007081e-06  -1.2805597e-04   8.3400526e-05   5.4211024e-04   7.1651884e-05  -3.6950357e-06  -7.3474323e-05   5.3636049e-04   1.5151569e-03   2.4024659e-04  -3.7053533e-04   3.8545408e-05  -2.2149972e-04  -5.0951855e-04  -3.6591067e-04  -4.3038765e-04   1.2879688e-03  -8.3539846e-05  -9.3785755e-04  -1.1376273e-04  -1.4683834e-04   1.5566208e-04  -4.4430583e-04
   1.8767166e-04  -8.8940891e-05   1.1699120e-05  -2.3223672e-04  -3.7208974e-04  -2.0979326e-04  -1.6899112e-04  -3.0818878e-04  -2.3446884e-03  -4.0864639e-04  -4.3549700e-04  -2.1197720e-04  -3.1555648e-04  -3.5915739e-04  -4.4277101e-04  -4.0782918e-04  -2.4036100e-04  -1.3945025e-04  -1.2699672e-03  -2.6928124e-04   1.5835296e-05   3.9144019e-05  -2.2773954e-04  -2.1797272e-05  -1.7028088e-04  -4.0330447e-04  -1.1109089e-04   5.0392747e-04  -1.7302744e-04  -2.1128733e-04   3.0948871e-04   3.3615076e-04   6.0942856e-04  -9.0698035e-05  -1.4545834e-04   2.1535949e-05  -1.4593136e-04   1.5217873e-04   1.0163312e-04   2.4965720e-04  -5.8490448e-05  -7.9013065e-05  -2.3949561e-04   3.5217317e-04   9.0785834e-05   4.4506087e-04   2.0408828e-04   2.2743482e-04   4.5313357e-04  -1.5176597e-04
   4.7183622e-04   2.8743601e-04   3.5080090e-04   7.0320669e-04   3.7084252e-04   8.8178448e-04   3.1395178e-04   1.6788201e-04  -2.7456810e-03   3.2163717e-04   2.0063476e-04   1.6055607e-04   1.1762620e-04   1.8105496e-04   2.0477224e-04   1.0880263e-04   3.5643755e-04   3.2737924e-04   3.7063998e-03   5.6055223e-04   4.7387285e-04   6.9544790e-04  -1.5826678e-05   4.0604372e-04  -7.8756297e-05   1.6773297e-04   8.6314227e-05   2.4035816e-04   9.0927439e-04   1.8245571e-04   1.1420224e-03   6.1836431e-04   6.8989431e-04   3.6979100e-04  -3.6863210e-05   1.4195542e-03   2.8338656e-04   3.0650085e-04   2.1652815e-04   6.9907802e-04   2.8714113e-04  -4.8020203e-05  -9.5553121e-05   7.8649499e-04   2.7280449e-04   5.5577012e-04   1.7600297e-04   1.3314799e-04   1.0197916e-04  -2.8445866e-04
   2.3833671e-04   3.3172895e-04   4.1485319e-04   5.3832319e-04   8.1175199e-04   3.0006544e-04   2.3490968e-04   5.0860521e-04  -1.6200161e-03   1.0427307e-04   4.0662588e-05   8.2447521e-05   1.5138005e-04   1.7000511e-04  -1.2970064e-04   7.8582147e-05   2.3323765e-04   2.7278488e-04  -3.6921648e-03   2.4023095e-04   3.2503475e-04   4.6258559e-04  -5.2768784e-04   2.0412068e-04  -2.6180065e-04   1.0596535e-04   1.1248889e-04   6.3988013e-04  -1.9231960e-04   5.0790448e-05   6.9251138e-04   4.8144790e-04   3.6369619e-04   2.0030637e-04  -9.4843206e-05  -6.8313238e-04   5.2903674e-04   3.4594061e-05   9.3503208e-05  -4.2845445e-06  -3.1174044e-04  -3.7187137e-04  -5.4098899e-04  -3.4016077e-04  -2.3424547e-05  -8.0973847e-04  -1.2680300e-04  -1.9679507e-04  -8.2089697e-05  -5.2365242e-04
  -1.2425805e-04   3.7766717e-05   4.1648953e-05  -5.7243276e-05   1.6727866e-04  -1.1689944e-04  -6.4005049e-05  -3.4260767e-04  -6.3120679e-04  -2.7993793e-04  -4.1910401e-04  -8.9353649e-05  -1.1677510e-04  -4.6557878e-04  -1.1820528e-04  -3.1647383e-04  -1.8887497e-04  -1.4465780e-04   2.8319051e-03  -2.3709954e-04   6.9973025e-06   3.8866558e-05  -3.3728077e-04  -1.2787530e-04   1.7890299e-04  -1.5212216e-04  -8.6338645e-05   2.1866428e-04   1.7069382e-05  -7.6342018e-05  -3.1019237e-05  -6.4001157e-05   1.9965382e-04  -1.6310610e-04   2.0801628e-05  -1.8057090e-03   2.9858151e-05  -1.5416314e-04  -1.1055497e-04   1.5089753e-04  -6.6630564e-05  -3.0538664e-04  -2.3409689e-04  -1.8843778e-03   9.2653117e-06  -7.9480355e-04   5.1669631e-05  -1.3802469e-05   3.1289368e-04  -3.0252367e-04
   2.2058711e-04   3.2513004e-04   1.9758253e-04   4.5488268e-04  -4.5815363e-05   7.6569995e-04   3.0552939e-04   1.9476873e-04  -2.2309490e-03   2.5732559e-04  -1.4871320e-04   1.4705736e-04   1.2962548e-04   1.7929121e-04   4.4137370e-04   5.5602519e-05   3.5567564e-04   4.3154036e-04  -2.2003907e-03   4.9617462e-04   5.7098054e-04   8.9592842e-04   4.7771482e-05   3.3114644e-04   8.9122157e-04  -2.4823968e-05   2.3254183e-04   6.8262703e-04   5.8211834e-04   5.0735829e-04   1.0405708e-03   7.9783064e-04   5.2586693e-04   5.8030913e-05   1.4930625e-03   1.7572489e-03  -1.1098112e-04  -1.1872979e-05   1.9586607e-04  -1.4981668e-04  -1.7746289e-04  -1.6832910e-04  -1.2459433e-04   4.2224216e-04   9.0188390e-05  -2.6631763e-04   3.5891651e-05   2.9573088e-05   3.7798463e-04  -2.6296076e-04
   4.9042836e-04   2.8444905e-04   2.2022123e-04   2.2722462e-04   6.3448097e-04   2.4074044e-04   1.5772637e-05  -3.8192567e-04   3.6689376e-03   6.5290369e-05  -3.8219729e-05   4.1133400e-05  -5.5977420e-05  -1.2529857e-04  -1.6400591e-05  -1.8540533e-05   1.8452811e-04   1.8463972e-04   3.0713831e-03   1.5080857e-04   3.3108742e-04   3.9151491e-04  -4.2054860e-04   7.6313197e-05   1.2953756e-04   5.6242727e-05   3.7720214e-04   4.2050649e-04   6.1069487e-04   1.9288798e-04  -7.6187961e-04   3.6062887e-05   1.4343341e-04   1.7680391e-04  -1.3192213e-04  -5.1350071e-04   6.0934300e-04  -1.2357491e-04   5.6118854e-05  -1.2237990e-03  -5.3483900e-04  -3.3433529e-04  -3.8911196e-04  -9.8690565e-04  -5.5463075e-05  -8.0381409e-04  -2.0344689e-04  -1.3483799e-04  -2.0313477e-04  -4.4695218e-04
  -8.6705128e-05  -4.0396193e-05  -2.9904846e-05   2.3499444e-05  -2.6268774e-04  -8.0018195e-05  -4.0402485e-04  -2.4314434e-04   2.3680704e-04  -3.6284339e-04  -5.3455657e-04  -1.7696247e-04  -2.8211522e-04  -4.0889706e-04  -3.3994770e-04  -3.5178498e-04  -4.0998016e-04  -2.1517955e-04  -1.7931412e-03  -3.9815900e-04  -8.9703695e-05  -1.4891077e-04  -6.5329298e-04  -2.2787902e-04   3.4645636e-04  -4.0898882e-04   5.2477215e-05  -3.2937928e-04  -5.5832445e-04  -1.1256954e-04   2.3055088e-04  -3.7322601e-04  -9.9971214e-05  -4.2181922e-04   1.7322520e-03  -1.3114326e-03  -2.3858916e-04  -1.8651446e-04  -2.3681266e-04   1.5583726e-04  -4.4825015e-04  -4.9579120e-04  -7.1306247e-04   9.4794156e-04  -4.8939534e-04  -9.6582145e-05  -2.1702109e-04  -2.4813789e-04   8.0583937e-05  -4.0497346e-04
  -3.1824375e-04  -8.2512590e-05  -8.6466527e-05  -6.2384213e-05   5.0229975e-04  -8.5452921e-05  -2.2783072e-04  -2.7602472e-04  -2.0713059e-03   5.5321911e-05   1.1784533e-05  -5.4905933e-05  -3.3420136e-05   1.8558094e-05  -7.1092705e-05  -1.3307067e-05   9.1689908e-05   1.6486402e-04   6.2992838e-03   2.7850320e-04   3.9991766e-04   5.6041568e-04   1.7317460e-04   2.6032451e-04  -7.5244473e-04  -1.0870175e-05   1.0746493e-04  -2.5883658e-06  -1.2849642e-04   1.8206582e-04   7.5807347e-04   8.8024448e-04   7.7716494e-04   5.2997988e-05  -1.8639130e-03   1.0265013e-03  -4.3157765e-04   2.7651413e-04   1.6626110e-04   3.3743514e-04  -9.8339092e-07  -9.6847936e-05  -1.7028717e-05   1.6328137e-03   1.0267428e-05  -9.2233757e-05  -3.7943755e-05  -7.7572249e-06  -1.3902014e-04  -1.3247773e-04
