   5.2925298e-04   5.6837220e-04   7.4604689e-04   7.0474448e-04   3.0224313e-04   5.5009185e-04   2.0169411e-04   4.7504844e-04  -3.2161651e-03   7.4336662e-05   1.6559972e-04  -2.6429471e-04   3.6300332e-04   7.7765819e-04   5.2319909e-04   4.4456942e-04   5.1379006e-04   3.8719299e-04   3.1927344e-03   8.0912618e-04   5.5682182e-04   1.0378553e-03   5.3260406e-04  -6.1608880e-05   8.2073692e-04  -1.3563852e-05   2.3375830e-04   1.7654107e-04   3.6630395e-04   5.5941084e-04   8.7879167e-04   1.2258327e-03   9.1027637e-04   7.3206355e-04  -5.5952161e-04   1.7237475e-05   8.4099876e-05   1.1921406e-04   2.4542108e-04   5.4875010e-04  -4.7341944e-04  -1.4119386e-04  -4.5031327e-04  -7.8475330e-04   4.7001874e-04   3.5366838e-04   5.1949748e-05   3.9170602e-05   6.3355814e-04   6.4620969e-04
   9.4444945e-04   5.2742381e-04   8.0921972e-04   7.3334848e-04   7.9480419e-04   5.5179250e-04   5.6441658e-04   1.9833245e-04   3.4868377e-04   2.5018307e-05   1.7694953e-04  -2.6755183e-04   3.7919721e-04   5.9265125e-04   4.1748941e-04   3.6410749e-04   5.1939907e-04   2.6265296e-04  -5.8656716e-04   6.3324114e-04   4.4379116e-04   8.7831961e-04  -1.2651905e-04  -2.7516848e-04   4.3501984e-04  -2.5248027e-04   3.2720584e-04   3.7794461e-04   3.0144988e-04   2.6315826e-04   3.9297697e-04   2.4260089e-04   4.6374550e-04   5.6080747e-04  -4.6302887e-04  -2.1331094e-04  -4.5498839e-04   1.4247911e-04   1.0640200e-04   9.5262431e-04  -6.7911792e-04  -3.0623868e-04  -4.4528287e-04   1.6717737e-03   1.8241271e-04  -8.6303211e-05  -1.4433396e-04  -1.0916175e-04   2.6414526e-04   3.9658655e-04
   8.6975202e-04   3.2475655e-04   3.3754340e-04   3.3801969e-04   1.6160958e-04   3.5858440e-04  -9.9492929e-05   1.1531724e-04  -2.7322066e-03  -3.0332597e-04  -1.4853674e-04  -4.6230882e-04   7.4636206e-05   8.0608515e-05   2.3559757e-04   1.1310802e-06   7.3513511e-05  -1.4716918e-04  -1.4340926e-03   1.0380161e-04   1.2032640e-04   4.1291444e-04  -3.8444260e-04  -5.4339034e-04   3.5728942e-04  -3.9464299e-04  -5.8676698e-04  -3.1162638e-04  -4.0738861e-04  -8.0064383e-05   4.7079189e-04  -1.3485113e-04   3.2611881e-04   6.8695888e-05  -1.1129860e-03  -7.7363203e-04  -4.6738822e-04  -3.7491744e-04  -2.2101778e-04  -5.6414900e-04  -9.9510141e-04  -5.8684527e-04  -9.3314331e-04  -1.2735718e-04  -6.7647030e-05  -1.1947959e-03  -4.6158626e-04  -4.3366733e-04  -1.3892080e-04   3.3644712e-05
  -1.2368172e-04  -7.8205732e-05  -2.2860641e-04  -3.1151556e-04  -3.9157475e-04  -1.7559574e-05  -3.7769374e-04  -1.8686753e-04   4.0123888e-04  -5.9962750e-04  -4.4441465e-04  -6.4679200e-04  -2.3421201e-04  -1.6756635e-04   8.5793996e-05  -3.4117914e-04  -2.7397266e-04  -5.1182660e-04   2.5857463e-03  -4.5875862e-05   6.9540969e-05   3.6416377e-04  -5.9426547e-04  -5.3181266e-04   2.5318825e-04  -7.2151446e-04  -2.0530004e-05   2.5560401e-04  -9.2324335e-05  -1.4053592e-04  -7.0507405e-05   3.4054738e-04   7.0850918e-04  -1.0895607e-04   3.8366052e-04  -3.0489377e-04  -1.4877282e-04  -1.2308890e-04  -6.9765469e-05   1.4510041e-04  -4.9271533e-04  -3.3742478e-04  -5.7503401e-04   3.2752939e-04   2.4875085e-04   1.3640954e-03  -1.8517135e-04  -1.9162675e-04   3.5532771e-04   2.4264035e-04
   3.6176885e-04   4.8445226e-04   3.1357424e-04   3.7821152e-04   6.0420040e-05   9.6494681e-04   6.3019583e-04   8.8524394e-04   4.0126434e-03  -4.0182797e-05   7.0364862e-05  -3.6672453e-04   1.3009907e-04   2.4265611e-04   2.1233810e-04   1.6379691e-04   2.5476824e-04   3.9677689e-05  -4.2890946e-04   4.4089457e-04   3.2597641e-04   7.1470340e-04  -2.6196364e-04  -2.8462766e-04  -1.4741858e-03  -2.3398089e-04   1.8044408e-04   4.3107852e-04  -7.3622918e-04   1.7192261e-04   7.0233786e-05  -5.5873493e-04   7.2511012e-04  -1.1710875e-04  -3.7494325e-04  -5.8896776e-04  -4.3305373e-04  -2.2325406e-04  -9.0541607e-06  -5.1357012e-05  -5.2522589e-04  -3.5018459e-04  -4.2677333e-04  -7.1511714e-04   1.9234870e-04   1.6680716e-04  -2.0088456e-04  -1.7151110e-04   2.9582527e-04   2.4289868e-04
   5.9563183e-04   3.2348753e-04   3.8147284e-04   3.6577097e-04   2.5707026e-04   1.6897892e-04  -3.7975307e-05   1.6826451e-04   2.2575149e-04  -1.7236175e-04  -1.3437023e-05  -4.2981704e-04  -2.7275819e-06   1.5305700e-04  -1.8833642e-05  -6.1320243e-05   1.9738406e-04   8.3979408e-05  -2.3419466e-03   2.6793222e-04   2.1359626e-04   4.8900343e-04  -3.0367833e-04  -4.1886582e-04  -1.1222610e-03  -2.7081301e-04  -1.0975500e-04  -2.7994774e-04  -3.9341207e-06  -1.3167236e-05   9.3671767e-04  -8.1821177e-05   3.5894359e-04   1.5358631e-04   2.8374817e-04  -4.5091982e-04   1.7139030e-04  -4.2423903e-04  -1.9386549e-04  -3.8156079e-04  -9.7425922e-04  -5.3698540e-04  -7.7928079e-04   1.1267720e-03   3.2589985e-05  -1.4961741e-04  -3.9790984e-04  -4.4979187e-04   6.6862136e-05  -2.6087111e-05
   2.7074165e-07  -1.4402191e-05  -5.7780812e-06  -6.1813858e-05   3.0650664e-04  -1.5648095e-04  -1.7736111e-04  -1.2965995e-04  -3.0245108e-03  -4.7575359e-04  -3.8211487e-04  -5.7125854e-04  -2.0305061e-04  -1.3622925e-04  -1.4307690e-04  -4.2818155e-04  -2.6186300e-04  -3.8306939e-04  -1.3656918e-03  -6.9961585e-05  -6.4562933e-05   1.8210310e-04  -7.5484702e-04  -7.3036057e-04  -1.5570133e-04  -6.1019964e-04  -5.8518688e-04  -5.5836653e-04  -1.3804654e-04  -3.8787708e-04  -2.9897329e-04  -6.5942132e-04   7.1726776e-05  -5.8062479e-04   7.3012845e-05  -1.3904535e-03  -5.5477448e-04  -5.4740364e-04  -4.6013002e-04  -9.5602404e-04  -1.0139134e-03  -5.5416918e-04  -8.3970913e-04   2.5737719e-04  -8.4634295e-05  -1.0832559e-03  -3.1221032e-04  -3.4995153e-04   2.5963172e-04  -1.1268629e-06
   8.2037819e-05   2.6705387e-04   2.6213480e-04   2.5867298e-04   2.3263245e-04   5.7358283e-04   1.8735178e-04  -4.2618945e-04   7.6290919e-04  -1.8046127e-05   4.2705346e-06  -3.8621589e-04  -6.7304973e-05   1.0404053e-04   3.2501601e-04  -4.2380896e-05   2.3560789e-04   1.1288933e-04  -1.6382447e-03   5.0057174e-04   3.6265809e-04   7.5276033e-04   8.9054029e-06  -2.6483936e-04  -4.8207864e-04  -2.7863498e-04  -7.6280296e-05   2.7626984e-05   4.2579992e-04   3.3214226e-04   1.5108522e-03  -9.3666458e-04   4.8012219e-04  -2.6603815e-05   1.1304194e-03   8.1897137e-04  -3.3807964e-04   4.1126677e-05  -9.2849943e-05   3.1271801e-04  -5.2334822e-04  -3.8970716e-04  -5.2898150e-04   5.7266146e-04   1.3948657e-04  -8.2186179e-04  -1.8704197e-04  -3.0908239e-04   5.0591689e-04   8.4045732e-06
  -2.4174562e-05   2.3763778e-04   4.0800529e-04   3.8757370e-04   6.1046053e-04   3.5577742e-04   1.5376316e-04  -8.9075611e-06   2.3142044e-03  -1.3119027e-04  -1.1289548e-04  -3.9612578e-04   5.7434285e-05   2.6175207e-05  -1.8859829e-04  -4.0353716e-05   1.0200869e-04  -1.6341155e-04   3.3976237e-04   3.4439500e-04   2.6215333e-04   4.8626366e-04  -5.4781649e-06  -3.8272509e-04  -2.6490944e-04  -4.0413087e-04  -1.8573109e-04  -3.2218595e-04  -1.5395877e-04   1.4235721e-05   1.2208322e-03  -1.4327951e-04   2.3840646e-05   2.9657199e-04   3.3086829e-04  -6.6222856e-04  -3.0653505e-04  -3.0790386e-04  -7.1967988e-05  -1.7921568e-04  -1.0866993e-03  -5.0228077e-04  -6.3820824e-04  -4.5229099e-04   6.3551532e-05  -6.9044984e-04  -3.4426144e-04  -3.6393304e-04   1.6214753e-05  -4.2021322e-05
  -1.7404697e-04  -2.2683453e-05  -1.0795501e-04  -2.0446374e-04  -2.1240776e-04  -5.6471774e-05   3.0423209e-05  -3.4577359e-04  -2.4479895e-03  -4.0789755e-04  -3.8475878e-04  -5.5373373e-04  -4.0235280e-04  -2.7667443e-04  -3.7335019e-04  -4.1330434e-04  -1.2854666e-04  -4.0409138e-04  -3.9390158e-03  -9.9225115e-05  -5.9155682e-06   1.5714808e-04  -4.6036049e-04  -7.1082963e-04  -9.1908802e-04  -6.3215295e-04  -5.1363651e-04  -5.2284147e-04  -6.1324320e-04  -2.2424011e-04   6.7848930e-05  -6.3623092e-04   6.5351669e-05  -3.2845317e-04  -6.0236105e-04  -1.1136761e-03  -2.0733594e-04  -7.7660201e-04  -3.8013406e-04  -5.9571490e-04  -1.6181648e-03  -7.8616984e-04  -1.0553625e-03  -1.1834329e-03  -3.9987583e-04  -1.1624804e-03  -6.2818715e-04  -6.7746895e-04  -2.4106623e-04  -4.0653066e-04
  -5.9344951e-04  -2.5555794e-04  -3.8546519e-04  -4.4730911e-04  -5.8709574e-04  -7.0049160e-04  -4.2252927e-04  -3.8704998e-04   9.7957219e-04  -2.2860795e-04  -3.2702868e-04  -5.4583268e-04  -4.4035452e-04  -3.8848526e-04   1.4756917e-04  -4.7645668e-04  -1.9919190e-04  -2.8371724e-04   1.8902485e-03   3.7628566e-04   2.6922359e-04   6.1122963e-04  -2.1393351e-04  -3.0626808e-04   5.9178250e-04  -3.0702155e-04  -4.1183547e-04   2.0454419e-04  -2.1470497e-04   4.1932308e-05   1.3917494e-03  -3.6486243e-05   4.6282500e-04   1.2041949e-05  -9.5101597e-04  -5.8272056e-04   3.9438216e-04  -1.1397024e-04  -6.4006766e-05  -9.8414448e-06  -7.7707751e-04  -2.7875855e-04  -5.3118967e-04   1.4142512e-03   7.7311015e-05   2.3535956e-04  -1.1891392e-04  -1.6620581e-04   3.9683809e-04   2.3569734e-04
   2.9688041e-05   3.0224322e-04   2.5617584e-04   3.5406236e-04  -4.0688060e-04   6.0614175e-04  -1.2762050e-04   3.1892856e-04   3.9705057e-03  -4.4386437e-05   5.4289048e-05  -3.5768191e-04   7.8732075e-05  -1.4107444e-04  -2.7422936e-04  -1.6679397e-04   1.1564676e-04  -1.2946231e-04   2.5688142e-03   3.6768359e-04   3.3305137e-04   6.1221526e-04  -1.1324896e-04  -2.4991663e-04  -6.4998347e-04  -2.6693646e-04  -4.6776971e-04   3.9099171e-04  -1.6986176e-04   6.8570364e-05   1.2335777e-03   3.0211454e-06   3.4159908e-04   1.6074067e-04   9.8684465e-04  -1.1822543e-03  -6.7870383e-04  -1.0995925e-04  -4.5233734e-05  -4.7101922e-04  -9.2798838e-04  -3.6004744e-04  -5.5707077e-04   1.5961812e-03   2.6987620e-05   4.2196226e-04  -1.3858250e-04  -7.0259150e-05   4.2889507e-05   2.4122153e-04
   5.9897319e-04   1.7097317e-04   1.3392007e-04   7.5911907e-05   1.4279681e-05   2.3172946e-04  -5.3326640e-04   3.8413866e-05   2.3762943e-04  -2.1766091e-04  -1.4704777e-04  -4.8134971e-04  -9.6301999e-05  -1.7805277e-04  -8.3858962e-05  -2.7909715e-04   1.1413624e-05  -2.9290235e-04  -4.7321608e-03   8.9183617e-05   1.4125369e-04   2.9226605e-04   2.6219990e-04  -4.5701032e-04   2.0064304e-04  -5.1028462e-04  -5.4877815e-05  -1.4721694e-04  -4.2982810e-04  -1.3267552e-04  -6.3121377e-04  -9.5053925e-05   3.4670529e-04  -2.3044493e-04  -1.5271289e-03  -6.1357976e-04   4.2828258e-05  -6.8908383e-04  -3.0407321e-04  -3.8507165e-04  -1.2070083e-03  -5.5969023e-04  -8.1279880e-04  -3.0669870e-04  -1.6549313e-04   2.3060931e-04  -3.9709930e-04  -4.4056354e-04  -5.9769527e-06  -5.6670073e-05
  -1.1736312e-05  -1.6593096e-04  -3.5188757e-04  -3.1259042e-04  -1.8790302e-04  -5.5650948e-04  -4.3818940e-04  -4.2169983e-04   2.7932643e-03  -5.4050592e-04  -4.9919967e-04  -5.9658935e-04  -4.9856602e-04  -4.9666199e-04  -3.7983060e-04  -6.3035381e-04  -5.0583907e-04  -5.9163885e-04  -1.8792568e-03  -2.7266913e-04  -1.2628775e-04   6.7408487e-06  -2.8254624e-04  -7.2688708e-04   2.8314674e-04  -8.1623456e-04  -5.2180013e-04  -6.6659186e-04  -9.7533787e-04  -5.5034732e-04  -7.8948215e-04  -5.5018370e-04  -3.3737431e-04  -4.3617096e-04  -1.8441711e-03  -2.8382087e-04  -6.6555094e-04  -7.0812780e-04  -5.6890916e-04  -7.2378205e-04  -1.1443821e-03  -5.6029396e-04  -8.1853656e-04  -3.4363774e-04  -4.9208385e-05  -6.1675737e-04  -2.3243131e-04  -2.4448769e-04   2.4193109e-04   1.5880109e-04
  -3.1110272e-04   9.0124791e-05  -4.8091879e-05   3.5452555e-04   2.8500013e-04   2.8888279e-04  -3.6857402e-04   1.6927156e-04   2.8217095e-03  -5.8829028e-05   6.1018486e-06  -3.6156128e-04  -1.1353520e-04  -1.7447013e-04  -5.0975585e-05  -2.2372465e-04   1.7749768e-04  -1.0363296e-04   3.7397526e-03   5.4816192e-04   4.1958349e-04   8.0149411e-04  -1.8759510e-04  -1.7133530e-04  -2.9362639e-04  -1.5864980e-04   6.7435169e-05   1.0758418e-05   4.4749464e-05   1.6051439e-04  -1.6981787e-04   2.4456251e-04   6.9652678e-04   1.9605679e-04  -4.2575054e-04  -9.4347203e-04   3.6668387e-04  -5.9367355e-04  -1.0766307e-05   3.1783758e-04  -3.4288631e-04  -2.8213425e-04  -4.2009895e-04   1.8941927e-04   3.0788133e-04   1.0702690e-03  -5.3897718e-05  -1.1798596e-04   2.9502928e-04   3.6790755e-04
   6.0679519e-04   3.4872277e-04   4.3710612e-04   3.4580598e-04   4.6542536e-05   6.9145410e-04  -2.7515061e-04   3.1609097e-04   3.9812778e-03  -8.2590646e-05   2.5030995e-05  -3.6795373e-04   2.8494042e-05  -7.3616786e-05   2.5185575e-06  -7.2187919e-05   1.0128915e-04   4.2527088e-05  -6.8450597e-04   4.8049950e-04   3.3547360e-04   6.3495705e-04   3.1320610e-07  -4.0048634e-04   3.3333516e-04  -3.2389312e-04  -2.4954521e-04   9.2781338e-05  -3.4565802e-04   1.8840421e-04   1.2882674e-03  -4.2915583e-04   5.2792678e-04   2.1178694e-04   4.8828329e-04  -8.9465646e-04   3.5362708e-04  -2.1978778e-04  -1.7596390e-04   3.0491996e-04  -6.5011240e-04  -3.9888287e-04  -5.9236621e-04   1.1936191e-03   1.2234482e-04  -2.3596165e-04  -1.6899077e-04  -1.7901830e-04   2.7910469e-04   2.0750119e-04
   3.1341708e-04   9.4511051e-05  -4.9822276e-05  -9.6898773e-05  -5.8298768e-04  -1.2462567e-04  -2.3826760e-04  -1.3628484e-04  -6.0028615e-03  -3.7351355e-04  -1.5124636e-04  -4.9874099e-04  -1.2247791e-04  -3.1012361e-04  -7.9864330e-05  -3.5269052e-04  -2.4680920e-05  -3.8947264e-04   1.9895423e-03   6.0194121e-05   8.8395762e-05   3.3507103e-04  -1.3171972e-04  -5.2011147e-04  -7.4492674e-04  -6.3963624e-04  -3.3227066e-04   1.2184100e-05  -8.9929573e-04  -1.3715404e-04  -3.3609907e-05  -6.8620669e-05   2.6731059e-04   2.4000283e-06  -1.3716955e-03  -1.1838495e-03  -5.3296494e-04  -7.7837514e-04  -3.8827918e-04  -7.6170522e-04  -1.3359281e-03  -6.6350127e-04  -1.0558537e-03  -8.6923386e-04  -1.7014360e-04   3.5518315e-04  -4.4449931e-04  -4.7665546e-04  -5.5065389e-05  -1.1253488e-04
  -4.0727700e-04  -1.8463520e-04  -5.0502474e-04  -3.7167480e-04  -2.6716394e-04  -6.4339471e-04  -1.0584946e-04  -4.7499398e-04  -2.7721070e-03  -6.8967423e-04  -5.1811564e-04  -6.5150781e-04  -4.4532461e-04  -6.1380042e-04  -4.6084143e-04  -6.1511027e-04  -4.8133702e-04  -5.3720345e-04   1.1460151e-03  -2.1570674e-04  -4.2452855e-05   1.2086448e-04  -5.4025342e-04  -6.6904369e-04   1.3237692e-04  -8.5810228e-04  -6.1506632e-04  -2.7943900e-04  -6.3448492e-04  -4.9922301e-04  -4.5738975e-04  -3.9416715e-04   6.7524967e-04  -3.2536869e-04  -8.1774965e-04  -8.8703906e-04   3.7989585e-04  -8.5476895e-05  -2.5549106e-04  -1.4830116e-04  -7.5038220e-04  -4.1920421e-04  -5.4759742e-04  -6.5892359e-04   3.4070268e-04  -4.5015240e-05  -1.5464397e-04  -1.7619667e-04   4.9035036e-04   3.8258042e-04
   5.7951495e-04   2.3820138e-04   1.0496798e-04   5.1498343e-04   2.5211708e-04   4.4126157e-04   7.1980641e-05  -1.8039819e-04   3.7141596e-03  -8.2415376e-05  -3.3446329e-05  -3.5524718e-04  -1.7296778e-05  -1.2757641e-04  -2.9519055e-04  -5.4905009e-05   1.8014602e-04   3.3204542e-05  -1.0819854e-03   5.2381033e-04   3.5854359e-04   7.6935248e-04   5.6273686e-05  -1.9849435e-04   1.8156960e-04  -3.5235967e-04  -5.0172815e-04  -2.1560249e-06  -9.0877795e-05   8.1014368e-05   8.0811587e-05  -6.0183962e-04   7.0709229e-04   4.4584576e-05  -8.6166977e-04  -1.0603830e-03  -4.1521725e-04   1.8468581e-04  -3.4252305e-05   9.4803327e-05  -7.7822653e-04  -3.3128075e-04  -4.9302232e-04   2.8916405e-04   1.8241613e-04  -6.2826912e-05  -6.6065804e-05  -5.8640253e-05   5.3521327e-04   3.0810104e-04
   5.2053813e-04   2.0141243e-04   2.6876846e-04   1.7438164e-04   7.2313356e-04  -9.3024566e-05  -2.9289085e-06   1.4746404e-04   2.5220844e-03  -2.3889443e-04   2.8713495e-05  -4.0254838e-04   4.6244295e-06  -6.6721863e-05  -2.1395567e-04  -9.6958560e-05   1.4338785e-04   7.7394216e-05   4.2524184e-03   3.7059037e-04   2.4582518e-04   6.0353265e-04  -5.5046921e-04  -3.6226140e-04  -3.4188159e-04  -4.9782556e-04  -3.3126550e-04   2.6641315e-04  -5.3414691e-04   1.8789875e-04   1.0418590e-03  -6.9828669e-04   4.1670393e-04  -4.0795152e-05   2.5017129e-04  -3.7745640e-04  -7.5680768e-04  -1.8203299e-04  -2.1945455e-04   1.0189910e-04  -1.1768598e-03  -5.0433597e-04  -6.5012241e-04  -3.4846572e-04   7.3134790e-05  -4.0123874e-04  -2.9058670e-04  -3.0291607e-04   2.0908238e-04   1.7570412e-04
  -3.4813763e-04  -4.9436356e-05  -3.7141824e-06  -6.8220936e-05  -5.4075953e-04  -4.5343567e-04  -2.1468736e-04  -2.1114376e-04  -4.1466141e-03  -5.5029982e-04  -2.7802453e-04  -5.6578231e-04  -2.6256041e-04  -2.6085976e-04  -2.9826805e-04  -3.9224044e-04  -7.8984980e-05  -3.6260238e-04  -1.6732858e-03  -7.6918295e-05  -7.6887472e-06   1.8552336e-04  -4.2223872e-04  -6.1001594e-04   5.2835955e-04  -8.0741936e-04  -6.8639359e-04  -6.1534921e-04  -6.6102622e-04  -3.1848971e-04  -1.4802560e-03  -1.3479494e-05   5.1503209e-04  -1.6909679e-04  -1.2305344e-03  -3.2192504e-04  -3.1733889e-05  -3.6974114e-04  -5.6694727e-04  -5.5640243e-04  -1.3326243e-03  -7.7528419e-04  -1.1459517e-03  -2.8913422e-04  -1.6099210e-04  -4.5999866e-05  -5.1099382e-04  -4.9172493e-04   8.8222980e-05  -1.3983587e-04
   8.8431327e-05  -2.0310518e-04  -2.7960740e-04  -1.4419922e-04   4.3154803e-05  -2.7326427e-05  -5.4692745e-04   4.6866342e-05  -9.7572891e-04  -2.8322422e-04  -2.1846950e-04  -4.9078744e-04  -1.6465776e-04  -3.0344495e-04   1.9669022e-04  -2.2129031e-04   7.0828326e-05  -6.6138207e-05   4.3025435e-04   4.1168884e-04   3.0394900e-04   7.0377416e-04   3.1200715e-04  -3.1601198e-04   1.4889978e-04  -4.4551949e-04  -1.3543793e-04   3.7651131e-04   2.7541790e-04  -4.8747705e-07   3.9822247e-04   4.7577423e-04   4.8112785e-04   4.0385599e-04   2.8399585e-04  -1.7770080e-04   1.4645066e-04   4.8686866e-06  -3.2159194e-05  -1.1575624e-04  -4.6006124e-04  -3.5521470e-04  -6.1634579e-04   1.2043508e-03   3.1027728e-04   4.0874816e-04  -1.6953156e-04  -1.3952776e-04   5.5402465e-04   2.9877329e-04
   4.9602403e-04   2.2715266e-04  -1.1397365e-05   3.3456646e-04  -1.5527843e-05   2.0476969e-04  -3.2519292e-05   2.5490701e-04   2.3253637e-03  -2.7156205e-04  -8.0034799e-05  -4.6056282e-04   7.2807074e-05   5.0128572e-05   6.3523199e-05   6.4602746e-06   1.8880046e-04   7.3442716e-05   6.9705490e-04   3.6887528e-04   2.4084719e-04   6.4501871e-04  -4.2448199e-05  -4.4062521e-04  -2.1664276e-04  -3.5300010e-04  -5.0049357e-04   2.8316415e-04  -1.2373053e-04   9.3825161e-05   1.2101991e-03   8.2347760e-05   2.8577104e-04   3.7578607e-04  -2.6322258e-04  -8.3124952e-04  -1.5964749e-04   1.3233447e-05  -1.2253644e-04  -5.6090113e-04  -7.9945970e-04  -4.7957766e-04  -5.9739512e-04   5.1690324e-04   1.0544102e-04   4.2624463e-04  -2.7812953e-04  -2.6367517e-04   3.3653743e-04   2.7040776e-04
   1.2953201e-04   7.6387601e-05   4.7702986e-05   3.1163116e-05  -1.4403790e-04   1.7478115e-04   2.0851669e-04  -3.5055200e-04   1.5833598e-04  -5.2365009e-04  -2.0547074e-04  -5.5411225e-04  -1.6159788e-04  -1.7243069e-04   8.2849707e-05  -1.9822147e-04  -1.0171829e-04  -1.8625267e-04  -1.5624566e-03   7.9630161e-05   1.7722270e-05   2.4887137e-04  -9.5895535e-05  -5.9616502e-04  -5.8779970e-05  -6.7427848e-04  -2.4052947e-04  -2.1435026e-04  -6.4719090e-04  -9.4190240e-05  -1.4286721e-03  -2.8050473e-04   9.0414454e-04  -2.2889579e-04  -2.3224036e-04  -2.2472057e-05  -5.9516757e-04  -2.7911982e-04  -3.8148518e-04  -7.4932969e-04  -1.2609139e-03  -7.4588641e-04  -1.0081457e-03  -8.6780341e-04  -1.4086317e-04   4.2467867e-04  -5.5020198e-04  -4.5487910e-04  -6.0510858e-05  -1.5722902e-04
  -2.8441806e-04  -2.1121789e-04  -3.9945115e-04  -3.7404179e-04  -3.1789343e-04  -2.8672651e-04  -7.8986451e-04  -3.2463958e-04  -3.0411566e-03  -5.2807113e-04  -4.8690327e-04  -6.5949844e-04  -2.8849451e-04  -3.0559974e-04  -3.5430788e-04  -3.4500033e-04  -6.9760419e-05  -1.8795398e-04  -1.6795413e-04   3.1685998e-04   1.5565772e-04   5.8643502e-04  -2.6532568e-04  -4.9936236e-04  -4.4527891e-04  -5.5532815e-04  -1.3919498e-04  -2.0786539e-04  -3.4327895e-04  -1.1163086e-04   3.3236566e-04  -2.4050249e-05   5.4051896e-04   1.7473391e-04   1.6321467e-03  -6.4249599e-04  -2.3644566e-04  -3.8887880e-05  -1.0158504e-04  -1.6068993e-04  -6.6386373e-04  -4.2171549e-04  -5.9289095e-04  -1.3849672e-03   2.4068418e-04   1.5420959e-03  -2.4541008e-04  -1.0377781e-04   3.0657253e-04   3.3735321e-04
   2.2306571e-04   2.3591847e-04   4.3178097e-04   4.6715647e-04  -9.8620279e-05   3.1461366e-04   9.6180062e-05  -1.6961798e-04  -1.5129998e-03  -3.5196144e-04  -2.2344803e-04  -5.4130296e-04   7.1230897e-05  -8.9698242e-06  -9.2387760e-05   2.5915937e-05   2.2261117e-04  -9.7750242e-05  -1.6265833e-03   3.7864383e-04   2.0315064e-04   6.0595013e-04  -1.9641159e-04  -4.9895659e-04  -4.1245972e-04  -3.1388973e-04  -2.9641713e-04  -2.3367336e-04  -1.2322926e-04  -1.5326767e-05  -5.1721151e-04  -6.1600108e-04   7.2243268e-04   1.0283219e-04  -2.8216445e-03  -7.6906150e-04   1.0950588e-04   1.0588230e-04  -8.1806138e-05   6.1145704e-04  -6.9673633e-04  -4.9565634e-04  -6.1446690e-04   5.4790685e-04   2.2549494e-04   3.0613030e-04  -3.1878630e-04  -2.3662279e-04   2.8371051e-04   2.6781668e-04
   2.8782846e-05   1.5925591e-04   1.1587487e-04   1.2785484e-04  -4.0493775e-04  -1.2877613e-04  -5.7759695e-04   8.8872177e-05  -9.8617177e-04  -5.1859941e-04  -3.0561877e-04  -5.6712481e-04  -1.0999366e-04  -7.5939526e-05   1.7148384e-04  -9.1580623e-05  -2.8020620e-05  -2.5847316e-04   1.3296074e-03   1.4176643e-04   4.5576937e-05   3.1895272e-04  -4.5483385e-04  -5.6799909e-04  -1.5034836e-03  -8.5843459e-04  -1.4947294e-04   9.3360584e-05  -6.2541116e-04  -1.8007711e-04  -5.7614484e-04  -6.8175443e-04   3.6315323e-04  -1.2571459e-04  -2.3769395e-04  -6.5065472e-04  -1.9657229e-04  -3.5998641e-04  -3.2712877e-04  -9.2889922e-04  -1.0677108e-03  -7.0027466e-04  -9.2872896e-04  -1.1554670e-04   6.2080151e-05   4.5275613e-04  -5.5013789e-04  -5.2025926e-04   2.8491727e-04  -1.3319100e-04
  -2.4521805e-04  -1.1610694e-04  -8.4195817e-05  -1.2001684e-05  -2.6426589e-04  -2.4829956e-04  -2.0318279e-04  -9.4595074e-05  -8.8059402e-04  -3.4255724e-04  -3.4709706e-04  -5.4868113e-04  -3.7002542e-06  -6.8857706e-05   1.2140985e-04  -2.4989000e-05   1.0104117e-04  -2.9110777e-05  -1.1207501e-03   5.2428857e-04   2.6516666e-04   6.8496593e-04   3.8927738e-04  -3.9490729e-04   8.6654705e-05  -4.3436445e-04  -1.6529931e-04   1.8668832e-04   1.2855635e-04   1.0787173e-04  -2.1444112e-05  -6.2541262e-04   5.6965812e-04  -8.6302221e-05  -8.6039817e-04  -3.9617889e-04  -1.1946617e-04   4.1933430e-04   8.1391532e-05   5.8305659e-04  -3.6629758e-04  -3.4209300e-04  -2.3225152e-04   1.3076990e-03   3.8772405e-04  -4.3124659e-04  -1.9702836e-04  -1.0725082e-04   4.8975053e-04   4.9397640e-04
   8.6618861e-04   2.5602986e-04   6.2716060e-04   4.5204032e-04  -8.9814050e-05   1.7868992e-04  -1.2586682e-04  -9.2744485e-05   5.1997034e-03  -2.5832190e-04  -2.6937832e-05  -4.7098217e-04   1.2545766e-04   1.3770239e-04  -1.0026711e-04   1.0624852e-04   3.1493945e-04   1.5622698e-04  -9.7204471e-04   5.3055078e-04   2.7272312e-04   6.6970050e-04   2.0617801e-04  -3.0466856e-04   7.3304615e-04  -3.5463599e-04  -9.6936914e-05   5.1765641e-05  -3.0330979e-04   3.0589482e-04   7.0484803e-04   5.0357991e-04   5.1272265e-04   5.0620537e-04  -2.6367934e-04  -9.2551962e-04   9.8463468e-05   1.6322835e-04   4.9177434e-05  -4.0302970e-04  -1.0506036e-03  -3.9233270e-04  -3.6562202e-04   6.7542173e-04   2.3666350e-04   4.6221935e-04  -2.5695321e-04  -1.6346735e-04   2.0531233e-04   5.4677477e-04
   3.2445011e-04   1.5340575e-04   7.3048577e-05   4.7005125e-04   3.7854828e-04  -7.8940655e-05   1.0567357e-04   2.4469916e-04   3.9258571e-03  -4.5885929e-04  -1.5292161e-04  -5.3687033e-04   1.6272068e-04   3.9482529e-05   1.4671290e-05  -2.1437845e-05   1.2744403e-04   2.4527453e-05  -3.7104527e-03   2.7133332e-04   6.5616841e-05   4.1413223e-04  -4.0672463e-04  -4.2098254e-04   9.8735001e-04  -5.6761352e-04  -1.5616568e-04   1.9679562e-04   1.5972574e-04   4.9800587e-05   8.2214945e-05   3.4874957e-04   2.2319121e-04   1.9489330e-06  -7.8166358e-04  -8.6797547e-05  -8.5145773e-05   9.3300957e-07  -2.8825476e-04  -6.5411720e-04  -8.3654048e-04  -4.6336817e-04  -5.3337828e-04   1.0583346e-03   3.1804861e-04   8.4645645e-04  -1.7774323e-04  -1.0222010e-04   6.1198621e-04   6.5875001e-04
   3.1514856e-04   3.7500958e-04   4.0376547e-04   7.6847803e-04   5.2805798e-04   5.5749883e-04   4.1594927e-04  -1.2717162e-05   1.5042414e-04  -9.6500880e-05   9.0388166e-05  -3.7534506e-04   3.0820156e-04   3.1872664e-04   3.3989319e-04   4.0281593e-04   3.8337812e-04   1.6896499e-04  -1.5190295e-03   8.9890906e-04   4.5621864e-04   9.8129723e-04   5.1785051e-04  -1.6056947e-04  -3.5320365e-05   4.8017366e-05   2.5400877e-04   4.7722962e-05   4.2449971e-04   1.6644360e-04  -6.3106290e-04  -5.2361161e-04   9.1718399e-04   7.4861612e-04  -6.5953383e-04   2.1627580e-05   1.1149745e-04   1.3780556e-05   2.4813539e-04   8.8698970e-04  -3.3041919e-04  -1.5882221e-04  -1.9295365e-05   1.4452969e-03   6.2889443e-04   2.6470504e-04   4.0598155e-05   1.3898480e-04   5.7112070e-04   8.0166553e-04
   9.0154499e-04   4.9455441e-04   6.6116703e-04   8.1947760e-04   6.6685880e-04   1.1611765e-03  -5.4893486e-04  -1.6130985e-05  -1.8231574e-03  -9.1407506e-05   1.7264363e-04  -3.5682935e-04   3.9131206e-04   4.3473794e-04   2.6671402e-04   4.0747289e-04   5.5756595e-04   3.3592447e-04  -9.7177282e-04   7.8998826e-04   3.8488931e-04   8.0593996e-04   1.7530622e-04  -2.2305478e-04   1.8591064e-03  -1.0007746e-04  -1.0257652e-04   6.8986375e-04   5.6327449e-04   3.2060017e-04   1.7196853e-03   2.0948068e-04   4.9579807e-04   4.0672676e-04   1.0652785e-03   4.3725889e-04   7.2144278e-05   4.4186774e-05   2.1113007e-04   1.2133713e-03  -1.6529011e-04  -2.1845494e-04  -1.0496383e-04   1.9805555e-03   5.3596974e-04   2.4129541e-03  -4.4088294e-05   1.3569520e-04   4.4424541e-04   7.0546276e-04
   5.3484133e-04   2.8606175e-04   6.6028378e-04   4.6009923e-04   1.7808906e-04   1.8138794e-04   5.8983342e-06   1.5656149e-04  -1.1410372e-03  -3.4243718e-04  -1.0727178e-05  -4.6375956e-04   1.5709701e-04   2.9549724e-04   4.5717592e-04   1.7948175e-04   3.1958503e-04   1.3457558e-05  -2.9259506e-03   4.7350823e-04   1.4311515e-04   5.7091640e-04   2.2636296e-04  -3.7226418e-04   3.5569671e-04  -3.8127700e-04  -3.2937445e-04   6.4942124e-04   1.0428597e-04   2.0109722e-04  -8.4223441e-04   1.9893294e-05   6.3203520e-04   3.8450115e-04   1.0312416e-03  -5.4693618e-04   1.6288087e-04   2.2071569e-04   1.8787530e-04   7.4414670e-04   2.2699554e-04  -5.8076810e-05   1.1668553e-04  -4.8478844e-04   6.7782175e-04   2.0495998e-03   1.7925100e-04   3.1468173e-04   8.7886379e-04   9.8990824e-04
   1.0832414e-03   6.6151092e-04   8.7519648e-04   1.0875113e-03   3.1049506e-04   1.3627252e-03   4.5556255e-04   6.8591459e-04  -1.2711416e-03   1.9716841e-04   4.6101300e-04  -1.9874013e-04   5.9198064e-04   8.2791131e-04   7.5165834e-04   7.7801390e-04   7.9303008e-04   5.3308834e-04   3.8291742e-03   1.1502141e-03   5.9794594e-04   1.1680975e-03   9.7875262e-04   4.4477689e-05   9.6069090e-04   2.2698313e-04   3.1801729e-04   7.9312187e-04   4.8673517e-04   7.0088927e-04   6.3358183e-04   6.1751693e-04   8.8593981e-04   9.1471756e-04   5.1351701e-04   7.6009936e-05   1.7070863e-03   1.0312854e-03   5.3810212e-04   8.9666888e-04   2.2709327e-04   1.8584511e-04   4.0874848e-04   1.5302651e-03   7.7461387e-04   2.0962714e-03   3.6612261e-04   5.4233480e-04   7.8467041e-04   1.2843889e-03
   1.2552926e-03   7.6431438e-04   1.2000143e-03   9.6129254e-04   6.5491267e-04   4.3647317e-04   5.6881190e-04   7.6797314e-04  -8.5279410e-04   1.0040151e-04   4.0048163e-04  -2.2973672e-04   5.8097899e-04   7.9063757e-04   8.2163629e-04   7.4242847e-04   8.4121729e-04   6.2452833e-04  -1.3679019e-04   1.0567992e-03   5.1098026e-04   9.7877195e-04   6.0861435e-04  -8.6389082e-05   1.0940791e-03   2.9024741e-04   4.8185070e-04   2.7572465e-04   3.1220121e-04   5.0818431e-04   1.5589623e-03   6.9357868e-04   8.5799367e-04   8.5750961e-04  -1.5335263e-03   2.9037785e-04   3.8335292e-04   7.6792447e-04   3.9394808e-04   1.0303977e-03  -8.2747218e-05   2.7335082e-05   1.3218436e-04   8.8984356e-04   8.1001729e-04   1.1736347e-03   2.3027459e-04   4.5728430e-04   8.3716208e-04   1.1212660e-03
   1.2920162e-03   5.7306682e-04   7.3063391e-04   6.9564272e-04   7.3345771e-05   8.6151611e-04   3.0634791e-04   5.0489896e-04   2.1964523e-03  -1.6091918e-04   2.4839200e-04  -3.4742281e-04   4.7118799e-04   7.3189806e-04   3.6492242e-04   5.2612671e-04   7.2095497e-04   4.2315482e-04   5.3027044e-03   8.3095208e-04   2.6171014e-04   7.0810679e-04   4.9181335e-04  -3.0367295e-04  -3.5392546e-05  -1.7732182e-04   2.8685166e-04   4.0489744e-04   1.8582055e-04   5.7548704e-04   5.2738556e-04   8.6324848e-04   5.5753195e-04   4.0802243e-04  -2.3705728e-04  -1.0946669e-04  -3.0492462e-04   4.8999360e-04   1.5499858e-04   1.8124339e-04  -1.5746497e-04  -2.9328919e-05   1.4148392e-04   2.5847778e-03   6.5685966e-04   1.7148047e-03   2.7104345e-04   5.8150967e-04   1.0775805e-03   1.0972216e-03
   9.4720733e-04   7.9240924e-04   1.3003297e-03   1.1772885e-03   1.0440183e-03   1.0552233e-03   1.0033720e-05   8.9702941e-04  -2.6938021e-03   2.3756380e-04   7.0767780e-04  -1.8404539e-04   6.9085660e-04   1.0894913e-03   5.4529903e-04   9.7725785e-04   1.0587783e-03   7.5498660e-04   5.2877762e-03   1.5616739e-03   6.9685257e-04   1.2462906e-03   4.2248622e-04   1.6444629e-04   6.3577463e-04   5.9524400e-04   7.3530531e-04   3.4518345e-04   9.0421189e-04   7.5797015e-04   1.9617670e-03   6.8132073e-04   1.3948637e-03   1.4509485e-03   3.2449712e-04  -4.4531716e-04   8.6259516e-04   1.5002963e-03   7.6331495e-04   1.7218426e-03   4.7614696e-04   3.8246062e-04   7.2721526e-04   2.3177324e-03   9.2511583e-04   1.8087844e-03   5.6562840e-04   8.6532545e-04   1.3159257e-03   1.4559734e-03
   1.1767354e-03   1.0094421e-03   1.4695354e-03   1.5139861e-03   6.6514610e-04   1.2578989e-03   8.1539783e-04   8.4318680e-04   2.0256140e-03   2.7179380e-04   7.6394831e-04  -1.0661560e-04   9.0005010e-04   1.1933197e-03   7.7842356e-04   1.1228678e-03   1.1331778e-03   8.3274173e-04   3.2851211e-05   1.5147616e-03   6.9513381e-04   1.2028721e-03   9.2014868e-04   1.1669802e-04   1.4299555e-03   4.2397171e-04   1.1663833e-03   6.9906429e-04   8.6736603e-04   9.5186889e-04   4.4626876e-04   5.5547187e-04   1.2525972e-03   1.1552789e-03   1.0979415e-03   4.0232114e-04   4.7384118e-04   1.5329571e-03   6.4680807e-04   1.7252950e-03   5.7950430e-04   2.6317287e-04   3.1255171e-04   4.3923943e-04   8.2373217e-04   9.7637507e-04   4.5120614e-04   7.2741293e-04   1.0672186e-03   1.3727290e-03
   1.0681057e-03   8.4801641e-04   1.4159792e-03   1.1033107e-03   6.9756014e-04   1.0113640e-03   4.3512706e-04   5.8154674e-04   9.6305838e-04  -2.4393941e-05   5.5200240e-04  -2.5616348e-04   7.1401644e-04   9.9590723e-04   1.0416280e-03   9.3084940e-04   8.9622865e-04   5.6311360e-04   8.5408054e-04   1.1733342e-03   4.3876865e-04   9.2455291e-04   7.6512009e-04  -1.4648371e-04   1.8522461e-03   5.5062963e-05   6.3575624e-04   1.1235010e-03   6.0603721e-04   6.2522915e-04  -1.8108575e-04   1.2579050e-03   1.0717552e-03   8.3425769e-04  -5.4227532e-04   8.9593168e-04   1.2810290e-03   7.7583350e-04   4.0424455e-04   3.3057696e-04  -1.9910326e-04   4.5071454e-05   3.9862683e-05  -1.1038166e-04   6.9552870e-04   1.2558512e-03   1.8058896e-04   4.3142220e-04   7.5948442e-04   8.5961417e-04
   1.1654620e-03   5.5121281e-04   9.1882440e-04   6.7616871e-04   8.3229452e-04   5.1534601e-04   5.2189175e-04   7.3892780e-04   6.3632813e-04  -2.8352052e-04   2.3749676e-04  -4.1631347e-04   4.5842872e-04   7.5645139e-04   5.0800177e-04   5.3940515e-04   7.3574478e-04   4.5933630e-04  -3.2720310e-03   7.9054671e-04   1.9531573e-04   5.5094017e-04   1.0626834e-04  -3.5283912e-04   1.3467167e-03  -1.1342486e-04   2.0389874e-04   2.8504903e-04   4.1197496e-04   3.5032353e-04   5.2772992e-04   1.4351460e-04   4.6997811e-04   7.3913200e-04   8.1915401e-05  -3.3489423e-04   1.9718426e-04   4.7719854e-04   3.1437181e-04   7.5657107e-04  -7.3194235e-05   4.6046869e-05   1.3181893e-04   5.2102283e-04   8.3558413e-04   9.0774411e-04   2.6345541e-04   4.9019064e-04   8.5062906e-04   1.0880842e-03
   1.0127265e-03   8.8621222e-04   1.4249106e-03   1.4217495e-03   1.2663659e-03   1.4890827e-03   1.1355755e-03   1.1582695e-03  -3.6998087e-04   2.2389472e-04   6.4939639e-04  -1.7725870e-04   7.4950291e-04   1.2609031e-03   6.0049829e-04   1.0860832e-03   1.1303897e-03   9.2550914e-04  -4.5787200e-04   1.6513203e-03   7.2883506e-04   1.3313411e-03   7.7183300e-04   1.0221581e-04   2.0204375e-03   5.6970597e-04   6.1290013e-04   1.1895613e-03   1.1286364e-03   9.3945768e-04   2.9342340e-03   2.1824683e-03   1.5029758e-03   1.2135360e-03   2.1204718e-03   1.1066657e-03   5.3240516e-04   9.8277139e-04   7.8917935e-04   1.3560202e-03   5.3795817e-04   2.8746473e-04   3.7972996e-04   3.1288241e-03   1.0457661e-03   1.8492347e-03   4.2889049e-04   7.2121312e-04   1.2121061e-03   1.2633482e-03
   1.3051495e-03   1.0178086e-03   1.5789842e-03   1.5179020e-03   5.7913864e-04   1.2791761e-03   1.0122044e-03   8.2797505e-04  -1.3515464e-04   1.4904016e-04   6.1434601e-04  -1.7092472e-04   7.5065566e-04   1.1426531e-03   6.9232244e-04   1.1127590e-03   1.2435103e-03   8.0685050e-04   1.2124416e-05   1.4915107e-03   6.2718330e-04   1.1917941e-03   9.9370186e-04  -1.8328554e-05   6.4886583e-04   2.7430628e-04   6.1197090e-04   8.5829315e-04   5.0111976e-04   8.6282799e-04   1.3433583e-03   1.7843209e-03   1.0396090e-03   1.1697122e-03  -1.5493813e-04   5.7326000e-05   4.1045784e-04   9.8191178e-04   7.2984351e-04   1.1946057e-03   4.4808275e-04   1.5139670e-04   3.1854748e-04   1.5679441e-03   7.6239888e-04   1.8710977e-03   2.5463739e-04   5.4683228e-04   8.7886013e-04   1.1301831e-03
   1.3390348e-03   7.8418001e-04   1.1138327e-03   1.1429224e-03   5.7160540e-04   6.7449105e-04   5.7408877e-04   8.2543009e-04  -2.0552287e-03  -1.4318814e-04   3.7860847e-04  -3.1543293e-04   5.6111347e-04   9.5566176e-04   5.4885843e-04   8.2575675e-04   9.2349108e-04   5.1469554e-04   4.4082827e-03   1.1251904e-03   3.0682574e-04   7.3318329e-04   4.1756465e-04  -1.9795612e-04   1.4398148e-04  -7.6308454e-05   3.4223680e-04  -1.4361167e-05   6.6511077e-04   7.8579894e-04   1.1184125e-04   5.6865107e-04   7.1795826e-04   1.0635187e-03   1.7558883e-03   4.4561533e-04   3.5371567e-04   6.3331740e-04   4.2917012e-04   2.3655219e-04   1.1352899e-04  -1.2329702e-04  -8.1011189e-07   6.1459950e-04   4.8959395e-04  -2.6904761e-05  -1.7637682e-05   2.3542572e-04   5.4739130e-04   7.3060993e-04
   1.0181002e-03   4.5635452e-04   8.7958458e-04   7.1589660e-04   1.1115960e-03   4.2879587e-04   4.3050026e-05   5.7637575e-04   1.6388854e-04  -4.0795378e-04   1.4312089e-04  -4.7786025e-04   3.4509087e-04   5.9467152e-04   3.5181933e-04   3.9794581e-04   4.5082602e-04   2.5623216e-04   2.7604697e-03   6.6805142e-04   3.2764190e-05   3.6844602e-04  -2.7914941e-05  -5.0294818e-04   7.1775308e-04  -1.1507908e-04   4.7404435e-05  -6.6294422e-05  -1.2770607e-04   3.4315157e-04  -3.8140151e-04   8.3285508e-05   3.3095077e-04   5.3979218e-04   4.4944778e-04  -5.2629923e-04   3.7236736e-04   6.8830012e-04   3.2941948e-04   7.8365224e-04   6.1817300e-05  -7.0002156e-05   5.2888743e-05  -2.3726712e-04   6.5297150e-04   1.7685695e-03   5.5716664e-05   2.8421989e-04   8.1836066e-04   9.8438328e-04
   1.1518562e-03   7.9831626e-04   1.1266104e-03   1.4473830e-03   9.9014025e-04   1.5539255e-03   7.2963076e-04   6.1186909e-04   7.0510898e-03   1.0481651e-04   5.8514654e-04  -2.6490621e-04   5.5648480e-04   7.8804226e-04   5.4989685e-04   9.5201348e-04   1.0254240e-03   7.3374785e-04   3.7513780e-03   1.4067986e-03   4.9804774e-04   1.0978872e-03   8.0130826e-04  -5.8150632e-05   5.0729432e-04   2.3824205e-04   6.7193841e-04   5.8176677e-04   1.0265979e-03   7.0395117e-04   1.5823505e-03   1.0242102e-03   9.3962846e-04   1.2920542e-03   1.1455989e-03   6.1922253e-04   2.0134593e-04   5.7715439e-04   6.4986001e-04   3.3931376e-04   5.9743412e-04   5.7336121e-05   2.7335907e-04   1.3066173e-03   8.3968585e-04   1.9744548e-03   1.4711260e-04   4.1816960e-04   8.4410293e-04   9.1075699e-04
   8.9975650e-04   7.8134658e-04   1.3417976e-03   1.3530699e-03   1.3764238e-03   1.1803125e-03   5.3068192e-04   8.9004182e-04  -8.8518177e-04   2.1580925e-05   4.1083337e-04  -2.8886567e-04   4.8584832e-04   7.4490032e-04   2.7779059e-04   8.3256722e-04   9.6669479e-04   7.1688299e-04   2.4295622e-03   1.1777993e-03   3.7131505e-04   9.2192745e-04   7.4615655e-04  -2.6604458e-04   3.2400762e-04   1.1187766e-04   5.9399370e-04   9.4184048e-05   7.1171270e-04   6.7233067e-04   1.6291173e-03   1.0548449e-03   9.2215440e-04   6.6445721e-04   3.9686562e-04  -6.4438296e-04   6.0365588e-04   6.4885832e-04   5.5011181e-04   1.4088890e-03   3.8159829e-05  -8.7805347e-05  -2.1775700e-06   1.9651193e-04   6.6053867e-04   2.3057659e-05  -1.3360448e-05   2.1802250e-04   6.8666419e-04   6.9377571e-04
   5.0887716e-04   5.5505050e-04   7.6803594e-04   8.0517714e-04   9.1850222e-04   7.1837171e-04   7.4189488e-04   4.4360291e-04  -2.5407248e-03  -2.3704603e-04   1.8911765e-04  -4.2682019e-04   1.5267250e-04   5.3538248e-04   5.2018324e-04   5.7345961e-04   6.4985669e-04   2.6529995e-04   3.0105328e-03   7.8602700e-04   1.0020759e-04   5.0014647e-04   3.1650474e-04  -3.8532997e-04   1.0480505e-04  -2.4466077e-05   2.2493905e-04   8.1302412e-04   1.6641711e-04   4.5669274e-04   5.2463275e-04   2.7041053e-04   6.1731250e-04   6.1943475e-04   7.3372375e-04  -8.8782288e-04   5.0954666e-04  -3.2395779e-04   2.6581917e-04  -2.3438035e-04  -1.6798556e-04  -3.2655007e-04  -2.2908156e-04  -1.4788573e-05   4.1487944e-04  -3.8405866e-05  -3.0972256e-04  -1.0481154e-04   2.4168589e-04   3.6436212e-04
   2.7818358e-04   2.5615440e-04   6.5219449e-04   4.2454159e-04   7.3881028e-04   2.0955999e-04  -3.5209346e-04   3.1706732e-04   3.8950215e-03  -4.6059780e-04  -3.5001482e-05  -5.5798388e-04   3.9327955e-05   2.9511185e-04   8.2336548e-05   2.1921431e-04   2.6855530e-04   5.7075731e-06   6.1964331e-04   8.6179445e-04   1.3494666e-04   6.3975749e-04   1.8900548e-04  -2.8197982e-04   1.5964355e-04  -2.5301831e-04   2.4905661e-04   7.7355374e-04   4.4209120e-04   3.9969239e-04   1.6648122e-03   4.2116441e-04   7.9911621e-04   4.9147202e-04  -7.5833210e-05   2.4665750e-04   8.2573079e-04   5.1867723e-04   4.8757566e-04   1.0565640e-03  -1.8589503e-04  -2.7535267e-05   1.0762246e-04   8.4796810e-04   6.6690193e-04   3.1584470e-06  -3.2962016e-05   1.4653774e-04   7.8496814e-04   8.6412230e-04
   8.5670478e-04   8.0406974e-04   1.1864628e-03   1.2178698e-03   4.2701195e-04   4.6115046e-04   1.2030898e-03   6.1812467e-04   2.0175409e-03  -1.6836602e-05   3.3587552e-04  -3.5295938e-04   3.2414246e-04   4.4517961e-04   2.6830411e-04   5.9844146e-04   6.8478257e-04   4.8254200e-04   2.0712765e-03   1.0862837e-03   2.8039186e-04   7.7660364e-04   9.0194686e-04  -1.6872823e-04   1.3492141e-03   2.6315451e-04   5.1806436e-04   6.1781722e-04  -1.8469969e-04   6.4302923e-04   1.6424187e-03   1.4032125e-03   8.1290962e-04   9.8508946e-04   1.4398986e-03   2.1549652e-03  -3.0517130e-04   4.6972319e-04   5.0024397e-04   8.8936713e-04   1.9904276e-04  -4.4713037e-05  -1.4453497e-05   3.3011279e-04   5.3310354e-04   1.1681041e-04  -8.5529457e-05   1.2028921e-04   4.7557618e-04   7.0470810e-04
   1.0487316e-03   5.5716198e-04   9.7039720e-04   8.7559904e-04   1.0542049e-03   8.3246641e-04   7.5668097e-04   7.7483134e-04   4.2492189e-03  -1.5693018e-04   1.4822940e-04  -4.1053572e-04   2.2310947e-04   3.2046635e-04   4.0693293e-04   3.8456585e-04   6.1358267e-04   2.5279666e-04  -4.3558236e-03   8.5271196e-04   1.1507425e-04   5.3295156e-04  -4.6141191e-05  -3.8701994e-04  -3.6531169e-04  -3.7413149e-05   5.9061684e-04   6.7603396e-04   3.3464591e-04   4.7920048e-04   1.7760441e-03   5.5274152e-04   5.7388964e-04   5.7899428e-04  -1.2937965e-03  -2.4673849e-04  -6.0466919e-05   4.8275728e-04   3.1367375e-04   8.0737245e-04  -3.1209504e-04  -3.1021814e-04  -3.3977919e-04   9.0624177e-04   3.1525968e-04   1.1406404e-03  -3.4535548e-04  -1.2061802e-04   1.2853264e-04   3.8796689e-04
   3.7870752e-06   2.1314644e-04   4.0049778e-04   3.0065133e-04   3.9138223e-04   3.8264546e-04  -3.5214887e-04  -9.9496938e-05   4.2168796e-03  -4.7417189e-04  -2.2101287e-04  -5.5453088e-04  -8.5399683e-05  -5.1279327e-05   4.2950496e-04  -4.9442653e-05   1.7639877e-04  -9.3288640e-05  -3.0719819e-03   3.9968413e-04  -1.1292975e-04   1.4834123e-04  -4.1578538e-04  -6.0511770e-04   2.2798791e-04  -3.5057939e-04   1.2148315e-04   1.7418481e-05  -3.7621878e-04   9.7381144e-06   1.3057346e-03   4.2206791e-04  -1.5381555e-04  -1.3355944e-04  -4.7571193e-05   5.2666266e-05  -6.2091749e-05  -2.4703113e-04  -4.2489606e-05  -1.5333090e-04  -8.8200206e-04  -5.6816702e-04  -6.5589376e-04   1.0500568e-03   1.3975303e-04   6.3372339e-04  -5.1015447e-04  -2.7164916e-04   1.9743913e-04   2.2032796e-04
   3.2940958e-04   2.3460430e-04   5.8252475e-04   5.6935358e-04   8.8152284e-04   7.7714451e-04   3.1405388e-04   4.2171721e-04   2.9681004e-03  -1.3699496e-04   8.2608385e-06  -4.0582489e-04  -9.9834087e-06   2.5343982e-04   6.5241955e-05   2.8110348e-04   4.9953244e-04   2.5719637e-04   2.1152315e-03   1.0008613e-03   2.4316288e-04   6.9727388e-04   4.7470635e-04  -3.1448592e-04   1.3922811e-03   2.0366900e-04   1.4836781e-04   5.9897883e-04   3.5675048e-04   6.6303503e-04   9.9551375e-04   7.7316852e-04   7.1399490e-04   4.5643689e-04   7.4262003e-05   1.7033065e-03   7.7610515e-04   6.7327928e-04   4.4573811e-04   1.1924302e-03   2.4879834e-04  -1.9175181e-04  -3.8779808e-06   8.0206996e-04   4.1124728e-04   6.2171597e-04  -2.1643715e-04   9.8781806e-05   3.4284435e-04   4.2831266e-04
   8.4826641e-04   5.5316795e-04   7.3492224e-04   7.3910045e-04   8.4373594e-04   5.8206811e-04   5.0033373e-04   2.6622173e-04  -4.9562980e-03  -4.2130181e-05   2.9160645e-05  -3.1997045e-04   1.6772887e-04   2.6807952e-04   3.1283294e-04   3.4160679e-04   4.9707090e-04   1.9965206e-04   5.1842385e-04   9.5606653e-04   2.5600547e-04   6.0720678e-04   4.3234890e-04  -1.0043963e-04   9.7807182e-04  -5.0316652e-05   2.8455348e-04   5.7687017e-04  -9.6332560e-06   4.3842001e-04  -4.8246040e-04   2.4483984e-04   6.1253109e-04   4.3369687e-04   2.0305398e-04   1.1867646e-03  -5.6680088e-04   5.2947359e-04   3.7778349e-04   4.1278978e-04   5.5235894e-05  -2.8866177e-04  -2.1035441e-04   1.3785082e-03   3.7006850e-04   2.5645128e-05  -3.0169982e-04  -1.3791508e-04   2.9405919e-04   3.5491568e-04
   2.4415660e-04   3.7358058e-04   4.5656989e-04   5.7476130e-04   8.2622044e-04   4.5233403e-04   2.4666608e-04   4.3253836e-04   5.8320299e-04  -2.4217917e-04  -8.6027860e-05  -4.0481327e-04  -1.2212651e-04  -7.2297829e-05   1.7133671e-04   9.1270595e-05   1.5559510e-04   2.5530848e-05   2.7866326e-03   5.2441459e-04   2.2348646e-05   2.8048185e-04  -2.6740954e-04  -4.5616805e-04   2.1040529e-05  -2.8395324e-04   2.0472975e-05   2.8020886e-04   4.6038188e-04   2.2004542e-04   8.6263509e-04  -1.7752925e-04   2.0810639e-04   1.7798221e-04  -1.7315599e-03  -5.3150498e-04   1.7780287e-04   3.9542047e-05   2.8059741e-05   9.0013265e-05  -2.9257248e-04  -5.5107760e-04  -5.2007363e-04  -3.4301210e-04   1.1711069e-06   8.1842224e-04  -5.5256888e-04  -3.3775004e-04  -3.1292584e-05   6.2507308e-05
  -6.5173212e-05   6.5832493e-05  -2.7172700e-05   3.2841017e-05   3.3595938e-05   4.2156066e-04  -1.6350930e-05  -2.0886422e-04   5.9409607e-03  -5.3735776e-04  -4.2827427e-04  -5.3421216e-04  -3.0163207e-04  -2.3469835e-04  -3.1222880e-04  -3.1621152e-04  -1.6067299e-04  -3.3756782e-04  -2.3819415e-03   5.4968714e-05  -2.0481866e-04  -1.0190006e-04  -3.6079300e-04  -6.2003802e-04  -7.6909375e-04  -6.6707563e-04   1.2290629e-04   2.4904410e-04  -1.7092800e-04  -7.6609038e-05   2.2592110e-04  -5.6274090e-04   2.8601638e-04   1.8233205e-04  -9.5942710e-04  -1.3627966e-04  -8.2368229e-04  -1.6218303e-04  -8.5719730e-05   6.6189881e-05  -5.0194596e-04  -4.4079966e-04  -3.8598152e-04   1.2751734e-03   1.7608302e-04  -6.4185396e-04  -3.8302474e-04  -1.8765221e-04   2.0796702e-04   2.7358904e-04
  -4.1989937e-05   4.5684364e-04   6.1437179e-04   6.4858759e-04   4.3895558e-04   4.9163628e-04   2.7986793e-05   5.8582058e-04  -6.7890175e-03   7.0349350e-05   6.4628446e-05  -2.6588695e-04   9.4767769e-05   1.4320324e-04  -4.3703356e-05   1.4567279e-04   4.6194342e-04   1.4488594e-04   3.4234014e-03   8.6421351e-04   2.9574428e-04   6.1526569e-04   8.8304085e-05  -9.9596655e-05   3.4403254e-04  -1.9163606e-05   3.0208938e-04   1.3630610e-04   8.8281685e-04   2.7085099e-04   1.1686365e-04  -1.0236123e-04   3.7418533e-04   4.3873806e-04   3.5925498e-04   7.7452889e-04   3.3188294e-04   3.9767483e-04   3.0007635e-04   6.4565177e-04   1.4871007e-04  -2.7440957e-04  -2.2853179e-04  -1.2427745e-03   4.3859924e-04   1.0589079e-03  -2.6936631e-04  -9.2666203e-05   2.3550841e-04   4.2906898e-04
   5.2465481e-04   3.4353294e-04   2.0469459e-04   4.9644051e-04   3.3770027e-04   1.0279716e-03   5.3968368e-04   1.6027436e-04   1.4200539e-03  -7.2371672e-06   1.3258535e-05  -2.3560708e-04  -8.6147447e-06   1.7833024e-04  -5.4805296e-05   2.0254723e-04   3.3243469e-04   6.2373008e-05   2.3682804e-03   6.9358968e-04   2.1632337e-04   4.5222160e-04   9.3498156e-06  -1.7579463e-04   2.3726371e-04  -1.0900368e-04   2.8569487e-04   6.3415040e-04   2.2669240e-04   1.1759227e-04  -6.2773534e-04  -2.6077093e-04   4.3505384e-04   4.3163035e-04   1.3021279e-04   5.2035926e-04   4.5060526e-05   3.1811756e-04   7.0875780e-05   4.6246350e-04  -4.0769728e-04  -4.3408730e-04  -2.3740693e-04  -5.4486131e-04   2.1303262e-04  -7.9019240e-04  -4.4275585e-04  -2.1825657e-04   2.5395062e-05   1.4529428e-04
   2.2315442e-04   1.8706906e-04   1.9653582e-04   1.2085323e-04   1.5476799e-04   3.4139448e-04  -3.5948920e-04   1.2767367e-04   8.4896333e-04  -2.9037741e-04  -2.4456752e-04  -3.7120061e-04  -2.5469021e-04  -2.4581372e-04  -5.0060931e-05  -1.5435400e-04   1.1205332e-04  -8.2839266e-05   1.5292786e-03   2.2991134e-04  -7.0275159e-06   7.9411693e-05  -5.5579087e-05  -4.2667778e-04   3.1964207e-04  -4.7248954e-04  -5.9454364e-04   6.0085987e-04   3.8581926e-04  -1.2221050e-05  -5.0352095e-04  -3.2488297e-04   4.9431843e-04   2.0423401e-04  -3.8061419e-04   1.8402518e-04   2.3141814e-05  -6.1304308e-04  -2.2594724e-04  -8.3380472e-04  -1.4478993e-03  -7.3119445e-04  -8.9839357e-04  -1.1861575e-04  -1.8558213e-04  -3.7590097e-04  -7.2352693e-04  -5.6845119e-04  -1.0816050e-04  -1.9228937e-04
  -4.3585215e-04  -1.6095240e-04  -4.7278989e-04  -2.8601883e-04  -5.8144558e-04  -3.2240452e-04  -4.0089415e-04  -5.1949086e-04   1.7600434e-03  -3.2606206e-04  -7.1179325e-04  -4.4472943e-04  -3.7577201e-04  -4.3193236e-04  -3.4374520e-04  -3.3336686e-04  -2.1583427e-04  -3.1133849e-04   5.4123905e-04   3.9130682e-04   1.2504417e-04   3.2757438e-04   2.9805240e-05  -6.9931892e-05  -6.8788504e-04  -4.6395656e-04  -1.8494400e-04   2.4189585e-04   2.5896318e-04   5.0675466e-05  -7.9968810e-04  -9.1088652e-05   3.9566698e-04   2.1410167e-04  -4.9424249e-05   5.5370125e-04  -3.2655714e-06   1.3586855e-04   6.0130942e-06   4.0729044e-04  -1.9330237e-04  -3.6465286e-04  -3.5821623e-04   1.4182900e-03   3.4293730e-04   1.4785955e-03  -3.3062356e-04  -2.1375128e-04  -1.4845659e-05   2.3772742e-04
   2.2882552e-04   4.1885560e-04   3.4752846e-04   4.6980815e-04   5.5222464e-04   9.2834648e-04   2.0900126e-04  -1.9081168e-04   1.9202655e-03   6.9487913e-05  -2.0946984e-04  -1.5480100e-04  -3.0377105e-05   1.3981878e-05   1.1179808e-04   4.6340701e-05   3.6075813e-04  -3.5268920e-05  -8.0151705e-04   6.0928694e-04   3.0939060e-04   5.0941936e-04   2.8707521e-04  -4.3826265e-05   1.0715255e-04  -2.5248091e-04   1.5141278e-04   2.9203908e-05  -1.2664284e-04   2.7859196e-04   9.6865551e-04   2.4951101e-04   8.3470345e-04   4.3763747e-04  -1.1751805e-03  -4.5220158e-04  -6.4298772e-04   2.3314553e-04   5.6579964e-05   5.3722406e-04  -7.2492508e-04  -4.3583164e-04  -3.6560401e-04   2.0401771e-03   3.3478683e-04   4.9489684e-04  -3.2542963e-04  -2.6986678e-04   1.1388407e-04   1.1872160e-04
   2.8060311e-05   2.4546630e-04   6.8925241e-05   4.2013722e-04   6.6031184e-04   5.8972667e-04   5.0529998e-06  -6.2359271e-05  -1.7487063e-03  -6.1832972e-05  -2.5244409e-04  -1.9051878e-04  -7.9133097e-05   3.6667993e-06  -8.1013648e-05  -1.0824291e-04   2.7655507e-04  -1.0523439e-04   6.7341211e-04   4.0009990e-04   1.9974267e-04   3.2486761e-04  -4.8488204e-05  -1.0513399e-04  -1.3864507e-03  -4.8078492e-04  -3.3636126e-04   2.9133001e-04  -4.9627159e-04  -5.9893377e-05   7.8802131e-04  -1.9680630e-04   2.8383007e-04  -5.1437855e-05  -7.2020991e-04  -3.4191666e-04   5.8457686e-04  -1.0232301e-04  -1.7378136e-04   1.3558845e-04  -1.1000850e-03  -6.1821408e-04  -7.5902080e-04   3.7568578e-04  -8.8799417e-05   1.3776849e-03  -5.5166386e-04  -4.7386554e-04  -6.6994711e-05  -1.9556863e-04
  -3.6962022e-04  -2.4611616e-05  -1.5031926e-04  -1.1843729e-04   5.9057300e-05   3.1110922e-06  -2.3020207e-04   1.9558762e-04  -4.3768138e-03  -3.3921082e-04  -5.5254664e-04  -3.0966822e-04  -3.0216124e-04  -3.3871995e-04  -2.9025215e-04  -2.3252834e-04  -1.6520590e-04  -3.6767937e-04   2.3949831e-03  -1.0200054e-04  -2.3366789e-05  -1.1841769e-04  -5.8177783e-04  -4.4550892e-04   4.4263583e-05  -7.3875970e-04  -2.3561444e-04  -1.7598251e-04  -3.7127195e-04  -2.0156184e-04  -5.9020240e-04  -3.3499218e-05  -1.9101819e-04  -1.8646961e-04  -1.4619159e-03  -1.7271144e-03  -5.6633062e-04  -3.4247473e-04  -4.4459413e-04   1.9025896e-04  -9.0445549e-04  -6.3412759e-04  -6.9776416e-04   1.7201800e-03   8.8007728e-06  -7.4621639e-04  -4.5369656e-04  -3.8647509e-04   1.2047496e-04   6.4151325e-05
  -8.5213418e-05   1.1932349e-04   7.7256147e-05   3.0656156e-04   4.3240670e-04  -6.9454334e-05   1.2385794e-05  -8.0897960e-05  -1.4778432e-03   1.1009406e-04  -1.9697291e-04  -1.1656354e-04  -1.5197309e-04  -2.4501282e-05  -1.9505447e-04   4.0882529e-05   3.3829940e-04  -2.6811549e-06   5.8498728e-04   6.2178087e-04   3.7649638e-04   5.4346409e-04  -1.9719094e-04   2.0435762e-05  -5.7202364e-05  -2.6054221e-04  -1.5347247e-04   1.9612937e-04   3.1199175e-04   2.7890876e-04   1.8659895e-04  -3.6560063e-04   6.5670809e-04   4.7949076e-04   9.6200936e-05   3.3219298e-04  -5.3745712e-04   6.7395042e-05   1.0447291e-05   5.6637550e-04  -5.2721996e-04  -3.8649168e-04  -4.4829032e-04  -6.9239309e-06   3.1104597e-04   1.6282400e-03  -3.0191074e-04  -3.0889903e-04   9.1528367e-05   2.0717412e-04
   1.5245512e-04   2.6477993e-04   1.4693753e-05   3.2687321e-04  -5.5656350e-05   2.7752976e-04   1.4033838e-04   5.5553202e-05   5.1589962e-03   5.9833499e-05  -2.6131916e-04  -6.2811007e-05  -9.2221926e-05  -7.4188742e-05  -4.2307376e-05   4.0981351e-05   1.4698497e-04  -7.2526022e-06  -1.5470712e-03   3.4618526e-04   3.4698864e-04   3.9435140e-04  -5.2309904e-05  -1.0134901e-04  -1.8126922e-04  -3.5790581e-04  -7.4083102e-05   1.4809806e-06   7.3155657e-05   1.7621844e-04   1.3105379e-04  -1.0201536e-04   2.6368853e-04   2.0732400e-04  -4.1000056e-04  -4.6135130e-04  -2.6748018e-04   4.0034213e-04  -1.1447692e-04   1.6909756e-04  -4.7392477e-04  -4.4732486e-04  -5.9336243e-04   1.2565968e-03   8.8912348e-05  -3.2869319e-04  -4.1243221e-04  -3.3458846e-04  -1.7733690e-04  -4.3701977e-05
  -2.1022373e-05  -2.1749720e-05  -1.1888565e-04  -1.4515658e-04  -8.5872470e-04  -1.2643116e-04  -4.3599532e-04  -9.5304946e-05  -1.4274518e-03  -1.7273761e-04  -4.8811207e-04  -1.5949384e-04  -2.0915679e-04  -1.6347427e-04  -3.6356226e-04  -2.4581558e-04  -1.5302471e-04  -3.2152925e-04   2.6625588e-03  -5.7031106e-05   1.4203347e-04   2.9134508e-05  -5.5322202e-04  -2.2821044e-04  -8.2570966e-04  -7.8365672e-04  -2.8112848e-04  -8.9705252e-05  -5.2777567e-04  -1.3485455e-04   6.1494199e-04  -3.2455198e-04  -1.6045933e-04   7.9438556e-05   9.2146161e-04  -1.2615643e-03   1.1794998e-04  -5.5286696e-04  -3.4517862e-04  -4.7790230e-04  -1.1099105e-03  -7.2007993e-04  -8.7664701e-04   7.0775294e-04  -1.8235919e-04   4.2637464e-04  -5.5292383e-04  -5.5771292e-04  -3.6203503e-04  -2.2952509e-04
  -2.0675288e-04  -1.9033540e-04  -4.0569267e-04  -4.5970610e-06  -4.4041677e-04   4.6904245e-04  -5.9027359e-04   1.6016646e-05  -7.0739898e-04   1.4627821e-04  -3.6321150e-04  -3.0966174e-05  -1.1895034e-04  -1.3612054e-04  -4.8349808e-05   5.9407183e-05   1.6700383e-04   6.6370645e-05   7.9842564e-03   4.4200744e-04   5.0025858e-04   5.8633147e-04  -8.4076870e-05   2.4466243e-04  -5.5546127e-04  -2.8897516e-04   3.6823298e-04   1.8497514e-04  -3.1474618e-05   1.4387049e-04   1.6649319e-03   3.3085610e-04   3.2591075e-04   4.5735264e-04   7.4771483e-04   9.0178312e-04  -1.6392711e-04   2.3742144e-04   5.7731319e-05  -2.7529613e-04  -9.8461198e-05  -2.0806736e-04  -2.4330631e-04   4.8111228e-04   2.8077298e-04   9.6301618e-04  -1.4311081e-04  -2.0295840e-04   1.0126770e-04   3.5900646e-04
   3.1600703e-05   2.7206328e-04   2.4994917e-04   3.6332017e-04   4.6700268e-05   3.5285100e-04  -4.1081312e-05   2.7832686e-04  -1.1532761e-03   2.3349166e-04  -1.2655329e-04   9.6558688e-05   5.4350992e-05   1.3572826e-04   2.6978378e-04   1.8119272e-04   3.1378618e-04   1.3762445e-04   1.5972486e-03   5.8921787e-04   5.3243741e-04   6.2033761e-04   1.9023685e-04   2.2802703e-04   1.7254961e-03  -1.3675660e-04   4.5652108e-05   9.6987947e-05   8.0373639e-04   2.9646841e-04  -1.0719645e-03   4.4382512e-04   5.1661761e-04   4.3917785e-04   6.8908260e-04  -9.9961224e-05   3.7346745e-04  -1.4276143e-04   6.4314416e-05   3.2638820e-04  -6.1238284e-04  -3.1724974e-04  -2.2064961e-04   2.3780291e-05   2.9657182e-04   9.0027013e-04  -1.2601577e-04  -1.5948433e-04  -1.2408409e-04   6.7131492e-05
  -3.2719973e-04   1.4166444e-04   1.0586268e-04   1.3149824e-04   2.6718928e-05   2.7847470e-04  -1.4110337e-04   1.5363609e-04   4.3267598e-03   4.6193058e-05  -2.5905418e-04   4.3486212e-05  -9.2174480e-05  -1.4554818e-05   1.3030291e-04  -6.2048253e-05   1.3199451e-04   4.9398801e-05  -5.5780565e-05   2.0902656e-04   3.4904198e-04   2.3379258e-04  -2.0801528e-05   6.1535517e-05  -8.8538521e-04  -6.4905587e-04  -2.0596143e-04   3.7915350e-04  -1.2398162e-04  -7.7546774e-06   2.8608955e-04  -1.3538197e-04   4.1245951e-04  -2.8954435e-04  -7.5097405e-04  -3.1846968e-04   1.9676906e-04  -8.2614897e-05  -2.0018380e-04   9.8956275e-07  -9.2915312e-04  -5.3394574e-04  -7.5833243e-04   5.1394588e-04  -3.0040937e-05  -8.4874395e-04  -3.5358252e-04  -3.9999053e-04  -2.5914286e-04  -2.1327939e-04
  -4.4176335e-04  -1.4300080e-04  -2.3093091e-04  -1.2992531e-04  -2.8177790e-05   3.4717342e-04  -1.3383878e-05  -2.8811867e-04   4.5590685e-04  -1.7725799e-04  -5.1779422e-04  -1.0720587e-04  -3.6142624e-04  -2.9793216e-04  -1.3112873e-04  -1.6441153e-04  -1.7520387e-04  -2.6879582e-04  -2.9406525e-04   1.6511102e-04   3.9538107e-04   4.1116914e-04  -3.7795914e-04   1.7757517e-04  -5.9652120e-05  -4.0531246e-04  -3.0179543e-04  -6.1879429e-05   5.0401379e-04   1.3395463e-04  -5.9830054e-04   1.2658998e-04   8.8459585e-04   1.8883533e-04   1.2114798e-04  -9.7912844e-06  -3.6662054e-04   4.5938836e-05   1.9078230e-05   4.3749905e-04   1.7816457e-04  -2.0469025e-04  -2.3990261e-04   1.5089555e-03   3.0572776e-04   1.3506351e-03  -1.4834061e-05  -8.5962361e-05   2.7712950e-04   2.6488668e-04
   6.8909582e-04   3.3079126e-04   3.4727130e-04   7.7473460e-04   6.1753404e-04   6.4648397e-04  -1.9544008e-04   4.0154217e-04   5.4018153e-04   3.3767411e-04  -1.1271270e-04   1.9523980e-04   3.8276259e-05   2.9108929e-04   4.3578789e-04   3.0140343e-04   3.7209294e-04   4.1322547e-04   3.8822547e-03   6.8217615e-04   6.5866672e-04   6.7392254e-04   2.4452276e-04   2.9969955e-04   4.2043344e-04  -6.2527346e-05  -2.7365511e-05   3.4032637e-04   3.4240537e-04   5.5433949e-04  -9.6878072e-04   3.8345845e-04   6.7135697e-04   5.5670022e-04   1.7218947e-03  -1.1172084e-04   1.7164601e-04   4.3249573e-04   1.5259022e-04  -2.9911054e-05   1.8526250e-04  -1.1189118e-04  -2.9348250e-04   8.1642915e-04   4.1125267e-04   4.4877248e-04   7.1399758e-05  -5.5506451e-05   2.1470973e-04   2.5323979e-04
   1.1166946e-04   3.4859209e-04   4.9230095e-04   5.5847585e-04  -6.6295790e-05   1.2056222e-04   4.8793634e-04   3.6328740e-04   2.1863098e-03   2.0088351e-04  -1.8059261e-04   2.0506518e-04   1.5643045e-04   2.1442851e-04   1.5296118e-04   2.7058515e-04   2.8821049e-04   5.8915237e-05   1.1161823e-04   4.6806494e-04   5.2879081e-04   5.5361982e-04  -1.0821216e-04   3.2179308e-04  -5.0944666e-04  -3.1281903e-04  -1.4808761e-04   2.9708652e-04   1.3002323e-04   2.2352237e-04   1.0227990e-04   2.9651448e-04   4.8105497e-04   3.1412137e-04  -7.4647611e-04  -3.7191721e-04  -3.0122523e-05  -7.3026931e-06  -8.9094310e-06  -6.6864153e-04  -8.2351943e-04  -3.5147101e-04  -4.5477683e-04   2.3678194e-03   1.1368149e-04   9.2872849e-04  -1.3862990e-04  -2.3215210e-04   1.3929763e-04   9.5810201e-06
  -3.5492191e-04  -7.4237541e-05  -9.9800222e-05  -6.6397197e-06   2.0675672e-05   2.5025517e-04  -1.3609148e-04   4.1197985e-05   1.1294145e-03  -8.4190542e-05  -3.9443054e-04   2.2655055e-05  -1.1743740e-04  -7.0701004e-05   1.5878897e-04  -6.2209270e-05   5.1400821e-05  -1.7487780e-04   1.1220167e-03   7.9500933e-05   2.9219119e-04   1.8488866e-04  -4.2547120e-04  -4.4458669e-05  -1.0416241e-04  -5.2238588e-04  -2.0036522e-04   1.6990441e-04   1.0837374e-05  -2.2916851e-04   1.4763871e-03  -4.2925694e-04   1.4749344e-04  -3.2524691e-05   1.4167695e-04  -9.9828071e-04  -2.4033523e-04  -3.7372098e-04  -2.9558115e-04  -8.6272496e-04  -1.1226104e-03  -5.3873874e-04  -7.4101344e-04   1.2108760e-03  -5.0064191e-05   1.2891196e-03  -2.5198000e-04  -3.5065730e-04  -1.0693561e-04  -7.4508855e-05
  -2.6782765e-04   4.2428441e-05   1.2151795e-04   1.4424371e-04   2.9650892e-04   2.0259147e-04  -7.7217810e-05  -2.1021788e-04   9.5820613e-04   2.1326027e-04  -2.3205143e-04   1.6998626e-04   7.6206030e-05   2.0272372e-04   1.4496164e-04   2.7077508e-04   2.6686490e-04   7.1655835e-05  -2.4558262e-03   6.2489940e-04   6.5366545e-04   7.7873695e-04   2.3859087e-04   3.0835543e-04   1.2471847e-03  -1.7017306e-05  -1.7506309e-05   3.8959610e-04   3.7468778e-04   2.9794991e-04  -2.8194734e-04   3.2416609e-04   6.6138722e-04   4.4360358e-04   2.3486281e-03   6.1246334e-04   2.7936662e-04   4.9639418e-04   1.5991811e-04   6.8186352e-04   9.6864162e-05  -9.9765144e-05  -1.8936298e-04   1.5638666e-03   3.5777080e-04   6.9778849e-05   6.8269772e-05  -1.1365196e-04   3.3105863e-04   2.7582829e-04
   4.0169476e-04   2.9825477e-04   2.1897050e-04   5.2316929e-04   1.8520384e-04   5.9190544e-04   2.6244894e-05   2.7694611e-04  -2.5609506e-03   2.4269953e-04  -5.1512958e-05   2.4244323e-04   3.4297656e-04   3.0415462e-04   9.2205344e-05   2.8973338e-04   3.1671900e-04   3.3690478e-04   9.3456317e-04   6.1766949e-04   6.2926940e-04   7.0919661e-04   1.2153860e-04   3.8392365e-04   7.4574945e-04  -1.3448468e-04   4.9884031e-05   3.9698704e-04   3.2131225e-04   3.0202782e-04   6.0929015e-04   4.8749326e-04   4.9785298e-04   7.4395427e-04   2.0288474e-04   5.4898825e-05   6.3502969e-04   1.7505045e-04   1.2238530e-04   3.8007875e-06  -4.7422090e-04  -1.8035731e-04  -5.3169078e-04   9.2192437e-04   2.1276312e-04   4.3572337e-04  -1.7448036e-05  -2.2237167e-04   1.9047709e-04   7.1767769e-05
   1.5661157e-04   2.7956592e-04   4.9543396e-05   3.9297563e-04  -2.8818793e-04   5.3213263e-04  -6.8903179e-04  -1.1439944e-04  -3.5153229e-03  -9.3855742e-06  -2.2607077e-04   1.1792932e-04   1.2194347e-04   8.0138415e-07  -1.4028850e-04   1.8907087e-04   1.0795562e-04   7.8306424e-05   1.5937022e-03   2.0128991e-04   3.7215109e-04   4.0744685e-04  -5.5583962e-04   1.5309750e-04   1.2642585e-03  -3.2190949e-04   2.7715613e-04  -9.0011825e-05  -1.1148343e-04  -3.0647676e-05  -7.5225095e-04  -1.7700274e-04   2.9998546e-04   1.3741452e-04  -2.1203565e-04  -1.4567161e-04  -7.8092868e-05  -8.8779583e-05  -2.0842743e-04  -5.8124634e-04  -8.7988778e-04  -4.6744928e-04  -8.1820524e-04  -1.1126207e-04   2.1266851e-05   7.7926292e-04  -2.9549445e-04  -4.8319701e-04  -5.7954072e-05  -1.4731640e-04
   7.0812122e-05  -1.7457239e-04  -1.3318386e-04  -2.6379511e-04  -4.6318595e-04   3.8625317e-06  -2.2131464e-04  -2.5326552e-04  -2.3715626e-03  -3.3408147e-04  -5.9468625e-04  -5.2133248e-05  -2.7628837e-04  -2.0533925e-04  -2.4574267e-04  -1.3151190e-04  -2.8532199e-04  -2.8808380e-04   1.0991257e-03  -1.2818485e-04   1.6511515e-04   5.9098270e-06  -3.9635165e-04  -1.2101330e-04   5.2561380e-05  -6.3917413e-04  -3.5788197e-04   4.7147766e-04  -4.9173925e-04  -1.8928642e-04   6.4645096e-04  -2.1591015e-05   3.6873904e-04  -1.3802884e-04   5.5323803e-04   4.3937704e-04  -2.8305151e-04   5.8988885e-06  -2.7206884e-04  -4.6738828e-04  -7.6084165e-04  -2.8045932e-04  -4.5344254e-04   3.0947413e-04   3.4588107e-04   6.5983826e-04  -1.1372344e-04  -3.1612918e-04   1.0501763e-04   1.8474684e-04
   1.2132924e-04   2.4171875e-04   2.5506952e-04   5.2413956e-04   5.9178291e-04   4.6421177e-04  -1.2512793e-04   1.0796238e-04  -1.9822870e-03   1.6259955e-04  -3.3976383e-05   1.4676369e-04   7.8629630e-05   2.7322775e-04   2.6337317e-05   3.0748494e-04   3.8167968e-04   2.5254773e-04  -2.0313857e-03   5.7032716e-04   5.4942357e-04   7.5191801e-04   2.5530401e-04   3.3139664e-04   9.9970587e-04  -8.2257153e-05   4.5314609e-04   6.8014325e-04   1.2871284e-04   2.7085913e-04  -2.6310951e-04   2.3644873e-04   9.0639840e-04   5.6447275e-04  -7.3291955e-04  -5.8633141e-04   1.8093501e-04   1.4512383e-04   1.0357605e-04  -5.3897448e-04  -2.3169127e-04  -2.1110760e-04  -2.9226282e-04   8.7524304e-04   9.6027237e-05  -6.0738530e-04  -5.8399874e-05  -2.7142957e-04   4.1603134e-04   2.0658704e-04
   4.8380814e-04   2.1309464e-04   5.3310208e-04   2.9214026e-04   7.2039879e-04   4.4412137e-04   1.7124828e-04   3.2009039e-04  -2.4788594e-03   9.7139482e-06  -1.1671220e-04   1.1336499e-04   1.2291239e-04   2.1290430e-04   5.4919983e-05   2.0992450e-04   2.5765272e-04   1.2218395e-04   5.7804887e-03   3.7472852e-04   4.5263057e-04   5.2938977e-04  -4.8561086e-04   9.0336267e-05  -7.9860917e-04  -2.8273324e-04   5.1866104e-05   1.0731670e-04   1.9550677e-04   4.0028135e-05   1.5082001e-03  -3.4346967e-04   7.1799837e-04   1.9820413e-04  -2.0891763e-03  -5.0405756e-04   7.6916011e-04  -4.9382943e-04  -1.1264194e-04  -9.2154914e-05  -6.0831953e-04  -3.9101325e-04  -4.5045369e-04   2.0659609e-04   1.2705784e-05   6.7355111e-05  -2.8667905e-04  -4.2194419e-04   3.1399410e-05  -5.9548183e-05
  -1.0617192e-04   3.5911471e-05   1.1497771e-04  -1.2365064e-04   5.2858755e-04  -3.2550158e-04  -5.1303703e-04  -4.7936854e-05   5.0143320e-03  -2.7690857e-04  -3.7033638e-04  -5.0661631e-05  -1.7457436e-04  -1.6111597e-04  -2.5360838e-05  -7.1292641e-05  -1.6251889e-04  -8.8999921e-05  -2.1520804e-04  -1.1708813e-04   1.6030506e-04   1.6296637e-04  -5.9651368e-04  -1.2200789e-04  -9.6653431e-04  -5.2035332e-04  -2.1956289e-04   1.2786439e-04  -8.4227533e-05  -1.4535907e-04   1.2108788e-03  -1.0994001e-03   1.6868953e-04  -3.0316284e-04  -8.9848420e-04  -3.4795594e-04  -7.5480571e-06   2.0301035e-05  -3.3924397e-04  -2.8703632e-04  -1.3136485e-03  -5.9845013e-04  -8.8260305e-04  -2.7124878e-04  -2.0088180e-04  -1.9521057e-03  -5.7322060e-04  -7.7820721e-04  -3.5363529e-04  -3.2328308e-04
  -1.2880894e-04  -3.9835263e-04  -2.7815936e-04  -3.3586562e-04   2.5937403e-05  -4.3900096e-04  -4.7786697e-04   2.6613040e-04   3.1875821e-03  -1.8403456e-04  -4.8130756e-04  -9.5731848e-05  -3.2915128e-04  -1.7217644e-04   1.5620889e-04  -1.0772276e-04  -7.7984914e-05  -1.5246299e-04   1.3311389e-03   2.9527265e-04   3.5063992e-04   4.5868306e-04   1.0599111e-04   4.0065312e-05   6.7373674e-04  -4.3784655e-04  -9.4930750e-05   2.1978271e-05  -1.2070148e-04   1.1637584e-04   3.7153956e-04   8.9807836e-05   4.2851453e-04   6.3339532e-05   9.8890439e-04   6.9167034e-04  -7.4481277e-04   1.4379105e-04   3.1568303e-05   1.8901449e-04  -3.3320292e-04  -2.8243399e-04  -2.1512376e-04   7.8754465e-04   2.6698862e-04  -9.0915925e-04  -2.0481439e-04  -3.9171884e-04   1.6254887e-04  -3.3532251e-05
  -1.7962050e-04   1.3700170e-04   3.7840198e-04   4.3113958e-04   4.9690570e-04   1.7508847e-04  -8.4549160e-05   1.4524165e-04  -1.5658808e-03  -1.9161867e-05  -2.4284919e-04   1.6104865e-05  -1.6676805e-04   5.2783875e-05  -1.7710181e-04   5.6808964e-05   1.1155081e-04   6.7870110e-06   4.5106010e-04   4.0747604e-04   3.8848451e-04   4.8097689e-04   5.9445087e-05   8.0595790e-05   6.1478990e-04  -3.5580085e-04  -1.4476620e-05  -1.1192202e-04  -5.8365724e-05   1.9209360e-04   3.9746542e-04   6.2766275e-04   4.1020502e-04   2.1883800e-04  -9.7917626e-04   3.3810716e-06   2.6745710e-04  -1.8982170e-04   6.5259323e-05  -3.4425917e-05  -2.3987716e-04  -3.5365054e-04  -5.3608045e-04   1.2092339e-03   2.4090263e-04   5.4948829e-04  -2.8376369e-04  -5.0618098e-04   1.5977402e-04   4.5223871e-05
  -1.6132674e-04  -2.7676838e-06   2.3048173e-04   2.3711410e-04   2.2692730e-05  -2.5789847e-04  -2.3099266e-04  -9.3659190e-05   3.6861887e-03  -2.0131406e-04  -4.6225532e-04  -6.7029716e-05  -2.3517416e-04  -1.9692514e-05  -5.8968530e-05  -2.8016975e-05  -6.3013256e-05  -1.6611011e-04   9.8092109e-04   8.8366527e-05   2.0779762e-04   2.1582545e-04  -2.0794579e-04  -1.8043247e-04  -5.9845287e-04  -4.8653095e-04  -1.0570110e-04   5.1091873e-04  -1.3854013e-04  -3.8589325e-05  -5.6007825e-04  -2.2316919e-04   2.9020675e-04  -1.6759185e-04   2.7810028e-04  -1.3021924e-04   1.3238179e-04  -6.1394885e-04  -3.5182148e-04   1.1826902e-04  -1.3825989e-03  -5.4593477e-04  -8.7934901e-04  -1.1700598e-03  -1.4427069e-04   4.3051835e-04  -5.2894949e-04  -6.2186492e-04  -2.8691813e-04  -2.7415747e-04
  -1.8855430e-04  -3.0177453e-04  -1.6878963e-04  -3.0294689e-04  -3.0750729e-05  -1.4701270e-04   5.2323910e-05   1.0730581e-05  -3.5886953e-04  -4.9039337e-04  -6.9364929e-04  -2.0963489e-04  -4.2676731e-04  -3.2168912e-04  -2.0770467e-04  -2.8215768e-04  -2.6859919e-04  -3.5491938e-04   4.0042168e-04   4.6216919e-05   1.7322970e-04   2.0858154e-04  -3.4711458e-04  -1.3135436e-04  -1.6764934e-04  -5.8924610e-04   1.0834230e-04  -2.5533093e-04  -4.2807558e-04  -2.9451671e-04   4.3870899e-04  -3.3615707e-04   2.8539327e-04  -2.1786484e-05   3.6478651e-04  -6.9421410e-05  -6.8644335e-04   1.4037837e-04  -8.4885665e-05  -7.3655590e-04   8.0780977e-05  -2.5359937e-04  -3.8872915e-04   1.0527453e-03   4.6088360e-05  -7.8205368e-04  -1.9780520e-04  -3.3816000e-04   1.5622975e-04   1.7465760e-04
   2.8967651e-04   1.5066502e-04   3.0990332e-04   4.7478278e-04   3.9548814e-04   8.9565954e-05  -2.1660189e-05   1.0386465e-04   2.5744191e-03   5.3323216e-05  -8.4397798e-05   3.5164288e-05  -4.4371525e-05   7.0069378e-05   1.5290301e-04   1.0330044e-04   2.3788534e-04   4.0120725e-05   3.3571664e-03   4.6591627e-04   4.0043876e-04   5.8715791e-04   2.4634703e-05   5.3220465e-05  -1.4760763e-04  -1.3536177e-04  -5.7774436e-05   1.2352793e-04  -1.0218399e-04   1.9128139e-04   3.5280452e-04  -1.3396979e-04   1.6651062e-04   3.1584449e-04   1.2834062e-03  -3.0168798e-04  -1.0671444e-04   2.9181913e-04   5.7557041e-05   6.6958729e-04  -4.6247081e-04  -2.0934941e-04  -2.8722297e-04  -7.2001340e-04   9.8922705e-05   6.5045431e-04  -1.5703085e-04  -3.0934854e-04   1.1382663e-05   1.5092948e-04
  -4.6771477e-04   5.3485164e-05   1.2121738e-05   2.5269025e-04  -2.7845311e-04   3.9189178e-04  -1.1012577e-05   4.5373185e-05   3.2648593e-03  -8.1566315e-05  -2.1264340e-04   3.5346334e-06  -1.0256463e-04  -7.5771459e-05  -7.8210533e-06   7.3710689e-05   9.9577235e-05  -6.5511769e-05   1.8990664e-03   3.3234770e-04   2.9396542e-04   3.8036145e-04  -6.0257700e-04  -4.6761481e-05   2.1239184e-04  -3.1227790e-04   4.0697542e-04  -3.5931957e-05   3.2209343e-04  -2.5207237e-05   4.2214067e-04   1.6088859e-04   5.6673581e-04  -3.3174868e-04   7.5447262e-04  -6.3430227e-04  -4.0487997e-04  -9.2571754e-05  -1.9933895e-04   2.3427478e-05  -7.1269716e-04  -4.0613755e-04  -7.6872093e-04  -1.5069757e-03  -7.1301249e-05  -1.6370162e-04  -3.7674262e-04  -4.7980333e-04  -1.0909400e-04  -8.9122921e-05
  -2.7772892e-04  -1.6706776e-04  -1.9568963e-04  -1.5197365e-04   9.2596014e-04   6.2583000e-05  -6.4441073e-04   1.3888998e-05   4.9156253e-04  -3.5837447e-04  -4.8998732e-04  -1.4326339e-04  -4.0120448e-04  -2.4465492e-04  -4.1223725e-04  -2.2084339e-04  -3.1777425e-04  -4.1805534e-04  -2.4701562e-03  -5.7442510e-05   5.7769685e-05   4.0094241e-05  -5.8479095e-04  -2.9555103e-04  -3.1149955e-04  -4.7576448e-04  -6.1274716e-04   1.9244368e-04  -1.4223895e-04  -3.0902747e-04   1.5810729e-03  -7.6621305e-05   1.4333823e-04  -2.1050921e-04  -2.6643561e-04  -1.9400131e-03  -8.2373287e-04  -7.0100330e-04  -4.1436730e-04  -6.6983077e-04  -8.8144693e-04  -6.1434903e-04  -9.5915655e-04  -3.1457748e-04  -1.3171762e-04  -2.0677385e-04  -4.0343095e-04  -5.1188952e-04  -1.8760539e-04  -7.3975760e-05
   3.1856373e-05  -7.6518896e-05   1.0218796e-04   1.8014519e-04   2.6179545e-04   7.9329120e-04  -3.2598819e-06   1.5083599e-05  -3.3282184e-03   5.4020762e-05  -1.8528001e-04   1.4130062e-05  -4.0558611e-05   2.0786087e-05   5.8713074e-05   1.4105112e-04   1.6034344e-04   1.4726049e-04  -2.6899206e-03   6.1770843e-04   4.7971128e-04   6.7140028e-04  -1.2496836e-04   1.6812823e-04  -3.6900543e-04  -1.9577886e-04   2.1758025e-04  -1.0497948e-04   8.7001426e-05   2.1734368e-04   7.7493180e-04   6.5885554e-04   4.6982794e-04   1.1709087e-04  -2.2430505e-04  -2.0542338e-04  -1.6852732e-04   1.9705885e-04   1.6849709e-04   4.5663395e-04  -1.4164057e-04  -2.0920002e-04  -2.6203063e-04   1.8974626e-03   2.5538981e-04  -5.5680302e-04  -8.8461791e-05  -2.3333168e-04   3.0943094e-04   2.0889874e-04
   2.7487741e-04   2.1795984e-04   3.7516188e-04   5.9852819e-04   3.4935718e-05   5.3552288e-04   3.9514317e-04  -3.8469164e-04   3.1947005e-03   1.1400914e-04  -4.5848901e-06   1.0421051e-04  -1.9176651e-04   2.2615290e-04   4.2636580e-05   8.8802590e-05   2.9049715e-04   9.9800804e-05   2.7504349e-03   6.3551136e-04   4.5945711e-04   5.6366256e-04   5.0935570e-05   2.2784116e-04  -4.6841454e-04  -7.7540171e-05  -5.8964379e-05   5.4957357e-04   4.7664842e-04   1.2451364e-04   3.8889880e-04   5.9472477e-05   5.4403616e-04   2.2205447e-04   4.3329096e-06   1.1874470e-03  -8.1080507e-04  -1.2739023e-04   8.7804241e-05  -4.7104905e-04  -4.5266692e-04  -2.5683540e-04  -5.3149636e-04  -2.1116120e-04   2.1613677e-04  -6.8590911e-05  -1.5920901e-04  -2.8246688e-04   2.7222442e-04   2.4707821e-05
   1.3284232e-04  -2.8881206e-05   1.7377594e-04   1.5715758e-04   2.3692496e-04   7.3733783e-05  -4.3581889e-04   9.0104186e-05   4.1777542e-04  -1.1322649e-04  -1.5148733e-04  -2.0956464e-05  -8.4640669e-05   2.0705260e-05  -1.7989412e-04  -7.5641517e-05  -9.6895355e-06  -2.6725751e-04  -1.6939451e-03   1.3568699e-04   2.5942439e-04   2.6335809e-04   2.6802847e-04  -1.7118318e-05  -3.0242617e-04  -4.1783153e-04  -2.9900626e-04   2.1191966e-04  -5.2590156e-04   8.0752507e-06   3.5263548e-04  -8.9207948e-05   4.3538728e-04   5.7090725e-05   1.2438759e-04  -5.6801917e-04   3.8151553e-05  -4.9288099e-04  -1.8914966e-04  -2.3012131e-04  -6.8072689e-04  -4.9197953e-04  -9.3452359e-04  -1.0473784e-03  -1.5104238e-04   2.9789933e-04  -3.7620598e-04  -5.4987782e-04  -2.2738107e-04  -2.6629324e-04
   7.4527830e-05  -1.6792405e-04  -3.4954664e-04  -3.5804533e-04  -3.9490941e-04  -2.9741917e-04  -4.1962846e-04  -2.8469312e-04   5.8615376e-04  -4.0433687e-04  -5.1245943e-04  -1.5412337e-04  -3.8959875e-04  -2.6257575e-04   2.2107755e-05  -3.7152122e-04  -2.4280213e-04  -4.5535553e-04  -2.0058390e-03  -1.5584481e-04   3.3087119e-05  -4.7476384e-05  -5.0759787e-04  -3.2665377e-04  -2.3572220e-04  -6.7098648e-04  -4.2553950e-04  -4.5239669e-04  -2.3951745e-04  -2.7024484e-04   2.6318972e-04  -6.8627321e-04   2.1960858e-04  -6.3545263e-04   2.6547059e-04   2.7532817e-04  -2.3802058e-04  -1.2275011e-04  -3.1878517e-04   2.3927823e-04  -5.3413899e-04  -3.3165308e-04  -5.9361354e-04   5.1259587e-04   2.1852570e-04  -3.1727378e-04  -1.7252973e-04  -3.4000434e-04   2.6969155e-04   1.6861221e-04
   1.9702586e-04   2.2215967e-04   1.3001943e-04   4.1413860e-04   8.9826659e-05   4.9392064e-04  -2.0895559e-04   1.9377352e-04   2.8183458e-03   1.7052035e-04   5.3202159e-05   1.1470098e-04  -2.9434050e-05   1.0866710e-04   6.2964675e-05   1.1987639e-04   3.1508153e-04   2.5014370e-04  -2.0712835e-03   6.5537868e-04   5.1105866e-04   7.0880237e-04   1.6418951e-05   2.0570596e-04  -6.7010470e-04   5.2165710e-06  -1.4239164e-04   5.3106941e-04   1.1862726e-04   1.4145997e-04   3.7661433e-04   4.6333187e-04   5.8059080e-04   5.2736350e-04   7.5512849e-05   1.1278666e-04   6.1261399e-06   5.1121885e-04   1.9078385e-04  -2.2217594e-04  -3.2987996e-04  -1.1854909e-04  -2.9205147e-04   8.0723024e-04   4.4586137e-04   3.8904758e-04  -1.0943605e-06  -1.8163523e-04   1.7421604e-04   3.7409374e-04
  -2.0313411e-04   2.6110560e-04   4.8090317e-04   6.3027669e-04  -6.2050844e-05   1.9497619e-04   2.2229366e-04  -8.0473197e-05  -7.4341305e-04   1.0729457e-04   2.9168797e-05   1.1310934e-04   1.4175323e-04   1.0114006e-04   3.4565764e-04   5.4634409e-05   1.8011380e-04   4.1395419e-05   5.9558795e-04   5.3571851e-04   4.4999123e-04   5.6445040e-04  -7.8775694e-05   8.6737367e-05   5.6774431e-04  -3.0134103e-04  -2.0014832e-04   2.4935495e-04   5.1538093e-05   1.2690735e-04   2.8239394e-04   1.8141909e-04   4.4498718e-04   4.7201203e-04  -1.0608167e-03  -9.3908013e-05   1.9548630e-04   3.1712948e-04  -9.5846830e-05   3.1777573e-04  -4.6500537e-04  -3.0288054e-04  -4.9494993e-04   1.3745063e-03   1.8790421e-04  -1.0074046e-03  -1.5313838e-04  -2.4524087e-04   1.4861101e-04   2.2557715e-04
  -1.0083761e-04   4.3942437e-05  -1.0091320e-04  -3.9001142e-07  -2.0976427e-04   1.5760506e-04  -1.7231176e-04   3.9506529e-04  -1.7295763e-04  -1.7015306e-04  -2.8384119e-04  -1.1651679e-05  -1.6608118e-04  -2.3909340e-04   1.6569963e-04  -2.2115717e-04  -7.3434974e-05  -8.3677092e-05   4.8355549e-03   1.8818356e-04   2.2632485e-04   2.3686679e-04  -5.1041995e-04   1.1733905e-05  -2.9935475e-04  -5.8879715e-04  -2.0095489e-04   1.5253596e-05  -1.5582072e-04  -8.2215804e-05   1.8328205e-05  -1.1182860e-03   1.0820659e-04  -1.4950550e-04   6.5120880e-06  -7.8458777e-07  -6.8478746e-04  -3.6821028e-04  -3.4276879e-04  -1.4472925e-04  -1.1747048e-03  -5.2171649e-04  -8.5268897e-04  -8.4889162e-04  -4.2207113e-05  -1.5089705e-04  -4.1281342e-04  -6.0208177e-04  -1.1070609e-04  -1.6915679e-04
  -7.0461992e-04  -2.9500638e-04  -2.8580273e-04  -3.1403653e-04  -2.7631767e-04  -7.1533126e-05  -4.1350519e-04  -3.2042133e-04   3.3983376e-03  -1.1021693e-04  -3.8124109e-04  -4.7867285e-05  -2.8332148e-04  -2.2417941e-04  -1.3374352e-04  -2.1140480e-04  -2.3058064e-04  -2.0645397e-04   3.2018274e-03   3.7221759e-04   4.1855895e-04   5.2691170e-04  -6.5850254e-05   4.8178157e-05  -8.1033300e-04  -3.9186692e-04   1.2666905e-04  -5.5853954e-05   2.9987746e-04   2.8863230e-06  -5.4005452e-04   7.2223780e-04   5.1983725e-04   1.7388977e-04  -5.9642666e-04  -3.1330648e-05  -1.5697512e-04   3.3306351e-04   1.8237137e-05  -1.4181012e-04  -2.0705951e-04  -1.7094535e-04  -4.3364178e-04  -6.3496176e-04   2.7183435e-04   1.5496953e-03  -3.9199793e-05  -2.0119500e-04   3.9508074e-04   2.9867992e-04
   1.5898394e-04   3.1677750e-04   3.7039441e-04   3.4050012e-04   2.8628239e-04   7.6285185e-04   5.8579801e-05   2.9435867e-04   8.0393202e-04   1.2072915e-04   5.0981067e-05   1.0649439e-04  -2.4947587e-06   6.1049301e-05  -2.0488841e-04   1.8992765e-05   2.8256903e-04   1.5102121e-05   7.1465701e-04   6.1954366e-04   4.9304886e-04   6.2100391e-04   3.5982276e-04   2.7862453e-04   2.5943131e-04  -2.0375734e-04   2.3323671e-04   2.1796912e-04   1.5737528e-04   2.3961946e-04   4.1124338e-04   1.7566106e-05   5.1933259e-04   3.5719966e-04   2.9485975e-04  -7.2685163e-04   5.0467759e-04   8.4080391e-05   1.0389188e-05   5.2676623e-04  -3.0732996e-04  -1.9316858e-04  -4.4484940e-04   6.0830155e-04   2.7038954e-04  -4.3207742e-04  -6.8336347e-05  -2.0932530e-04   2.4569925e-04   1.7686086e-04
   1.8249940e-04   1.5764972e-04   1.9992355e-04   3.0459423e-04   1.0850250e-04   2.4898205e-04  -3.8203361e-05  -4.2886422e-06   5.0154551e-05  -3.2092401e-05  -1.2887279e-04   6.6973436e-05  -1.1059770e-04  -1.0613346e-04  -6.8372668e-05  -4.0521380e-05   9.8631368e-05   3.7517320e-06  -5.5481866e-04   3.6257654e-04   3.4990060e-04   4.2810821e-04  -3.0717018e-04   9.4687872e-05  -5.7825229e-05  -3.5544712e-04   1.9339580e-04   2.7968804e-04   3.7636154e-04  -5.5596014e-05   5.1237317e-04  -1.1232600e-04   4.3450345e-04   2.6944692e-05  -1.2633265e-03  -7.2980829e-04  -3.2435587e-04   1.4231306e-04  -2.3972832e-04  -1.9319449e-04  -6.3283229e-04  -4.2957839e-04  -8.4775104e-04   1.4824286e-03   2.2004092e-04  -7.9215731e-04  -2.8821596e-04  -4.5629032e-04  -1.0120174e-04  -1.0226388e-04
  -5.0786050e-04  -1.6793299e-05  -4.3025921e-04  -1.3913818e-04  -5.6254532e-04   3.2760977e-04  -4.1547150e-04  -4.8071955e-04  -1.1303157e-03  -2.6811328e-04  -2.8412891e-04  -6.6738459e-05  -2.2649702e-04  -2.2636568e-04  -3.9256507e-04  -2.2541291e-04  -2.3397888e-04  -3.0807516e-04   2.6383260e-04   2.7724827e-04   3.2873446e-04   3.7106985e-04  -2.5541103e-04   1.6585972e-04  -1.2940351e-03  -4.4928343e-04  -1.1305259e-04   1.6522357e-04  -4.1517444e-04  -2.1883864e-04   8.4057846e-04  -1.8132871e-04   7.3756045e-04   4.7860452e-04   6.5767387e-04   3.1426852e-04   8.6755079e-04  -3.6078731e-05  -7.1911600e-05   3.2091737e-04  -9.8029537e-05  -1.4011450e-04  -4.4330952e-04   3.3081982e-05   3.9011452e-04   7.4063173e-05   2.4787510e-05  -1.5568634e-04   4.7073694e-04   4.3481827e-04
   7.9726777e-04   3.2075809e-04   3.4758949e-04   4.8365936e-04   4.6876541e-04   4.5541805e-04  -2.0601474e-04   5.2864407e-04   9.8129723e-04   1.7671633e-04   5.6702262e-05   1.7641297e-04   1.6987423e-04   3.1423962e-05  -9.0313952e-06   1.6842916e-04   3.6630439e-04   2.2503172e-04  -1.0265283e-03   5.9601967e-04   5.3421810e-04   7.1688008e-04   2.2946986e-04   1.6272516e-04   1.2802741e-03   7.4783056e-06  -5.4249954e-06  -1.4286533e-04  -2.2116030e-05   1.8936003e-04  -2.9402279e-04   6.4896321e-04   5.5032771e-04   5.1114452e-04   1.0221550e-03  -2.0047705e-04   2.4885041e-04   6.8760855e-05   1.0284600e-04   9.7551302e-04  -6.0658651e-05  -1.4967067e-04  -4.7268858e-04   1.4017831e-03   3.6526370e-04   1.5738147e-03   4.3394870e-05  -8.7879373e-05   3.3508160e-04   3.0190454e-04
   6.6229276e-04   2.6760669e-04   2.6871290e-04   3.2305665e-04   3.6734084e-04   4.0901266e-04  -7.6741904e-05   1.4350381e-04  -2.1361588e-03   3.8964597e-05  -1.4039702e-04   1.1505179e-04   1.4507287e-04  -2.6449427e-05   1.6625341e-04   2.0893898e-05   2.8771610e-04   3.1981966e-05  -2.1974833e-03   4.5959477e-04   4.1050307e-04   5.4267072e-04  -1.4212556e-04   8.3664483e-05   8.5025741e-04  -1.5002115e-04   3.3796136e-05   2.2858450e-05  -1.5572754e-04  -7.9860380e-05  -3.3180226e-05  -1.4137755e-04   6.7675736e-04   1.3873758e-04   7.9185457e-04  -3.7274268e-04  -4.5966363e-04  -1.5014324e-04  -2.1440840e-04   5.0825143e-04  -7.4288389e-04  -3.1056759e-04  -6.3665159e-04   1.4284300e-03   2.0220139e-04   1.4180534e-05  -1.7853270e-04  -3.1260573e-04   7.3335876e-05   3.5854540e-05
  -1.2842305e-05   3.5281482e-05  -1.0900173e-04  -7.4640913e-05   5.7409349e-04   4.1883141e-05  -1.5863767e-04   2.4022240e-05   4.9813255e-03  -2.6974559e-04  -4.0799746e-04  -9.4157822e-06  -1.0818112e-04  -1.9160843e-04  -2.5162409e-04  -1.3043341e-04  -1.6365414e-04  -2.7328162e-04   2.4751851e-03   6.0599959e-05   1.7549960e-04   1.6351424e-04  -6.1411742e-04  -2.1027574e-04  -2.3825308e-04  -3.9816587e-04  -4.0203484e-04  -2.4656981e-04   5.0470513e-05  -2.2149298e-04  -2.8297657e-04  -3.7019840e-04   4.4749313e-04  -1.3636240e-04   3.0020581e-04  -5.9942919e-04  -5.7057460e-04  -5.1043602e-04  -3.5382813e-04   2.8149980e-06  -8.6166074e-05  -3.3292526e-04  -5.4117007e-04   5.9197418e-04   3.5066769e-04  -7.4162195e-04  -2.4423432e-05  -3.0192547e-04   4.5794767e-04   2.4296960e-04
   7.5823045e-04   2.9450029e-04   2.6824209e-04   7.1317924e-04  -1.2931514e-04   5.5180961e-04   2.1899192e-04   2.7285347e-04   2.4720496e-03   2.6370669e-04   1.3765067e-04   2.1823436e-04   1.9148836e-04   2.4083356e-04   9.0066329e-05   3.0360502e-04   4.1345030e-04   2.9308474e-04   1.4015439e-04   7.8619842e-04   6.6587434e-04   9.2386774e-04   3.3291648e-04   4.0082925e-04   1.2895376e-03   9.0760441e-05   6.6903257e-04   3.9013047e-04  -2.0382106e-05   4.0761047e-04   7.6438225e-04   8.7512686e-05   1.2923726e-03   4.1890360e-04  -2.6523488e-04   1.0567609e-03   1.0097757e-04   4.9894507e-04   1.8965063e-04   3.3256566e-04  -1.1002705e-04  -1.0867768e-05  -2.9925548e-04   9.0526068e-04   5.4701755e-04  -7.7765755e-05   1.8644714e-04   1.7523236e-05   5.9867284e-04   4.2881453e-04
   6.7411212e-04   4.6018878e-04   8.0012821e-04   5.9806107e-04   2.6168887e-04   1.8269209e-04   3.4610690e-05   4.6243204e-04   8.8361339e-05   2.2249568e-04   1.5539311e-04   2.3444352e-04   2.7188601e-04   2.9038094e-04   2.9396676e-04   3.7450212e-04   3.4565671e-04   1.2231265e-05   7.0256070e-04   7.6789263e-04   5.9923198e-04   7.8479102e-04   3.8397784e-04   2.2492882e-04   4.3773363e-04  -1.3475812e-05   2.2410580e-04   6.0946419e-04   5.7497153e-05   2.6388909e-04   1.1664096e-03   1.0648388e-03   6.9460005e-04   3.3385956e-04  -1.4922385e-04   3.8819615e-04   2.1063646e-04   2.1957324e-04   1.2956568e-04   6.7030743e-04  -4.3267128e-04  -1.6697310e-04  -5.6240801e-04   3.1186324e-03   4.2405809e-04   1.0237036e-03   5.3313761e-05  -1.4371358e-04   3.3837828e-04   2.8993346e-04
  -6.0085305e-05   2.7557218e-04   2.6666734e-04   4.0758462e-04  -6.8590726e-04   2.7170056e-04   9.9564131e-05   2.5230279e-04  -3.3333854e-04  -5.4028271e-05   6.9437185e-05   1.3696286e-04  -4.7425849e-05   1.1278007e-04  -2.3050905e-05   1.4518871e-04   1.9477989e-04   3.6133238e-06  -1.6831203e-03   3.6857251e-04   3.6285029e-04   5.4321624e-04  -1.2278302e-04   6.2453182e-05   9.1617339e-04  -3.5061888e-04   9.1896029e-05  -1.3813555e-05  -5.1018436e-05   9.9570192e-05  -1.5902413e-05   3.0151554e-04   6.3219282e-04   4.8432653e-04  -5.0580868e-04  -5.2994833e-04  -3.2898161e-04  -8.6623018e-05  -1.6891412e-04  -1.0401315e-04  -1.1200478e-03  -3.8660166e-04  -9.2884002e-04  -1.1463206e-04   1.2942325e-04   4.4500208e-05  -2.2517731e-04  -3.8012568e-04   6.2443905e-05  -4.4834687e-05
   1.4979643e-04  -8.1752427e-05  -1.5275014e-04  -1.2868397e-04   1.7184892e-04   2.0039579e-04   7.9561505e-05  -2.9467177e-04   8.6839404e-04  -3.1968200e-05  -2.9604853e-04   6.5265427e-05  -1.9213308e-05  -5.2434498e-05   1.4051645e-04   4.3740627e-05   1.3388897e-04   4.7306416e-06  -1.7374125e-03   6.4048590e-04   5.4617843e-04   7.6767668e-04  -3.0569041e-05   3.0653138e-04   6.3503010e-04   1.6622683e-06  -1.3510279e-04   6.4329518e-04  -8.3309162e-05   1.6743182e-04   1.9584547e-04   6.3998927e-04   5.3011900e-04   2.7525247e-04  -3.2237777e-04   2.8378103e-04  -2.8768068e-04   1.2711430e-04   2.3990934e-04   6.7675224e-04   3.8431655e-04   2.1159296e-05  -1.6922707e-04   1.6248241e-04   6.4908096e-04   7.8047550e-04   2.2618020e-04   1.8251470e-05   5.9657119e-04   6.1061524e-04
   7.9725304e-04   5.3404027e-04   7.0299138e-04   7.2313059e-04   2.4775442e-04   1.0835326e-03   8.8406654e-05   3.6305891e-04   4.9561346e-03   3.2396868e-04   3.2226174e-04   2.6731251e-04   3.2861994e-04   4.4204260e-04   4.5817179e-04   3.8770531e-04   4.7291911e-04   2.9931526e-04   3.3463435e-03   8.9720183e-04   6.8619079e-04   1.0259981e-03   4.1980296e-04   4.3360033e-04   4.9229054e-04   1.0551666e-04   2.1794398e-04   1.8103636e-04   4.9653923e-04   3.6144460e-04   5.8331894e-04   7.3242212e-05   8.8891055e-04   7.4498844e-04  -2.9792538e-04   1.0084371e-03  -2.4480835e-04   8.7777205e-04   2.7846001e-04  -5.2620831e-04   1.8471995e-04   1.6409471e-05   1.4409275e-05   9.9296484e-04   4.9476029e-04   4.7249591e-04   2.5001622e-04   7.7400131e-05   7.2696363e-04   5.6566612e-04
   5.4448912e-05   5.2946340e-04   6.5761490e-04   5.5595144e-04   7.8544609e-04   5.9283857e-04   2.8969569e-04   5.9393607e-04  -2.4044731e-04   1.5050560e-04   1.5822391e-04   2.1060440e-04   2.9424051e-04   4.1396101e-04   1.5495509e-05   3.6647468e-04   4.5642254e-04   4.1544047e-04  -2.3952802e-03   5.8193412e-04   5.3373910e-04   7.4918114e-04   1.0748504e-04   2.2331910e-04  -6.3593383e-04   1.2521985e-05   7.5390548e-05  -1.0233988e-04   2.6584658e-04   4.4225695e-04   5.2399852e-04  -1.5061130e-04   5.9530837e-04   6.0764299e-04  -1.2995051e-04   5.4201914e-04   6.6365727e-04   4.0914566e-04   8.4688845e-06  -1.5052770e-04  -2.5796058e-04  -1.5880032e-04  -4.6768400e-04  -3.9808379e-05   2.9989352e-04  -1.8877542e-04   1.6697803e-06  -2.2534507e-04   1.9616378e-04   3.1318385e-04
   3.4035821e-04   1.9709364e-04   1.8298117e-04   2.6126139e-04  -6.9860747e-05   1.3616713e-04   6.7717046e-05   2.8039236e-04   2.2884782e-03  -1.4305883e-04  -5.3816046e-05   6.0100469e-05   9.8017401e-05  -1.3827645e-05  -2.1621301e-05   7.5363583e-05   1.0190417e-04  -3.0400417e-05  -5.5112684e-04   2.7877925e-04   2.8052949e-04   4.7426936e-04  -1.9525332e-04   2.5940311e-05  -6.5995537e-04  -2.3031581e-04   1.4007796e-04   5.4089149e-04  -1.4498594e-04  -9.7836833e-05   3.9625644e-05  -3.6297948e-04   5.3975271e-04   1.1302345e-04  -2.7520157e-04  -3.2271724e-04  -4.3402595e-04  -7.4585172e-05  -2.0076075e-04  -7.6032872e-04  -4.2617091e-04  -2.5526262e-04  -6.2048697e-04  -4.8748247e-04   2.8368039e-04  -6.7477627e-04   2.8567754e-05  -1.0586510e-04   4.5717726e-04   4.8916636e-04
   5.9045636e-04   3.7051362e-04   5.6841661e-04   7.3801883e-04   4.6925881e-04   8.8620605e-04   5.2911276e-04   2.2479039e-04  -1.8701113e-03   3.2568586e-04   3.2195493e-04   2.4445209e-04   4.8049304e-04   4.4119987e-04   9.1707334e-05   4.5250071e-04   6.1236293e-04   3.6229109e-04   3.9355443e-03   1.0238697e-03   7.4571202e-04   1.1118150e-03   4.6647768e-04   4.3772382e-04   1.2966217e-03   3.6277584e-04   5.5574771e-04   5.2444055e-04   4.1925724e-04   5.0564547e-04  -1.7496031e-04   3.4605185e-04   1.2808751e-03   9.5955748e-04   7.1742415e-04   4.9291470e-04   2.5928608e-04   1.5806990e-04   3.6765813e-04   7.6733303e-04   5.6677967e-05   8.7265544e-05  -1.6846329e-04   1.7244116e-03   5.9650280e-04   3.8621138e-04   2.4724874e-04   1.5597313e-04   5.2399631e-04   7.3797820e-04
   6.1410177e-04   5.6878029e-04   1.1284435e-03   8.5242232e-04   9.0803765e-04   1.1473993e-03   3.6314587e-04   4.7201844e-04   2.8640002e-03   3.0402106e-04   3.5386655e-04   2.8393351e-04   4.0569971e-04   5.4803496e-04   4.1131487e-05   5.0304591e-04   5.0908222e-04   4.4599656e-04   1.3671513e-04   8.4126636e-04   6.6420867e-04   1.0089377e-03   4.4842777e-04   3.7257088e-04   7.9135294e-04   1.2050487e-04   2.9883010e-04   5.5427337e-04   5.9342122e-04   6.2977133e-04   1.3982687e-03   3.7458332e-04   7.9978659e-04   3.8434926e-04  -3.6823205e-04   8.8962581e-04  -9.2737297e-05   7.3521305e-04   3.3430566e-04   5.9291295e-04  -1.7236359e-04  -6.2598505e-05  -2.0049587e-04   4.0217911e-04   4.9514388e-04   1.6212461e-03   1.0538387e-04  -2.8276840e-05   4.3302056e-04   5.3023483e-04
   7.1327511e-04   4.0083833e-04   3.5713715e-04   4.0607215e-04   5.9302972e-04   2.1500037e-04   4.5124892e-04   5.0271093e-04   1.0902489e-03   1.3614455e-05   7.9265854e-05   1.1555202e-04   2.6465044e-04   2.4665779e-04   8.7376357e-05   3.7414001e-04   3.3749902e-04   2.7677277e-04   4.9597927e-04   5.1200372e-04   4.2345611e-04   6.2207622e-04  -1.0006830e-04   1.6080370e-04   7.1841193e-04  -1.3413421e-04   1.8422148e-04   1.6309964e-04   3.0851120e-04  -1.9464489e-05  -8.7991584e-04   6.2771127e-05   7.2814547e-04   9.2536444e-05   6.5858971e-04  -8.5302867e-04   3.7225218e-06  -1.2019509e-04  -1.9326131e-05   3.6676976e-04  -4.7547769e-04  -3.4215194e-04  -6.9484662e-04  -4.7221541e-04   2.8049244e-04   9.4703137e-05  -1.8328860e-04  -3.4155833e-04   2.1856060e-04   1.0963820e-04
   1.7888765e-04   1.0107024e-04   9.3859126e-05   2.4348212e-04   1.5753628e-04   2.8746499e-04  -2.9773166e-04   4.8520491e-05   1.8662924e-03  -2.5653851e-04  -2.4922960e-04  -3.2601798e-05  -3.5436904e-05  -1.2620853e-04  -9.7504744e-05   3.3319677e-05   1.8618077e-05  -1.5376348e-04  -1.9696213e-03   3.9123400e-04   4.1715533e-04   6.7896192e-04  -1.8394338e-04   1.9716781e-04   6.7853223e-04  -1.0793695e-04   3.3537575e-04   5.3061359e-04   3.8013642e-04   1.6084863e-05  -2.6798257e-04   5.6828058e-04   1.0578871e-03   5.5202679e-04  -6.3463108e-04   1.9524226e-04   1.3102165e-04   3.0930489e-04   2.0028233e-04   5.1085444e-05   7.7433418e-05  -1.0644637e-04  -2.9134593e-04   1.0447719e-03   5.5400201e-04  -2.0414789e-04   8.3150167e-05  -8.9547953e-05   6.8608613e-04   5.6993606e-04
   8.2158530e-04   5.9097714e-04   1.0462635e-03   9.3688164e-04   8.3818519e-04   6.2413031e-04   8.3210174e-04   1.7600195e-04  -8.7904080e-04   2.5335097e-04   3.0920946e-04   1.9680351e-04   4.3877098e-04   5.2629999e-04   2.8585675e-04   6.0077000e-04   6.0382579e-04   4.2828216e-04   3.0951060e-03   8.5281482e-04   6.5753731e-04   1.0591525e-03   4.3063972e-04   2.2715420e-04   1.2506050e-03   1.4104485e-04   2.5116163e-04   6.1126065e-04   1.0749468e-03   5.5143627e-04   7.8539329e-04   1.0105819e-03   9.0803823e-04   8.1298599e-04  -5.2694464e-04   4.1782851e-06   5.5577391e-04   2.7773762e-04   2.9595519e-04  -3.0493998e-04  -7.2527881e-05  -7.7462973e-05  -2.1285700e-04  -1.1179571e-04   5.6467979e-04  -8.8644127e-04   8.2442275e-05  -9.8332486e-05   5.7144213e-04   6.1774731e-04
   4.4513677e-04   5.2922661e-04   9.3263778e-04   7.4112223e-04   3.4477413e-04   9.0882136e-04   2.3603060e-04   5.5000774e-04   2.0362861e-03   1.3788437e-04   1.2586992e-04   1.7023648e-04   2.9422421e-04   2.0359225e-04  -1.4333289e-04   5.1385572e-04   5.0218112e-04   1.9228115e-04  -7.7867525e-04   6.7021960e-04   5.4316636e-04   8.4200164e-04   2.6868805e-04   2.7743456e-04  -5.9633789e-05  -6.5399552e-05   2.0586820e-04   3.4578901e-04   1.7307088e-04   3.0680065e-04   1.0101562e-03   8.7458477e-04   1.0155032e-03   5.0865998e-04  -1.0674676e-03   5.7663082e-04  -7.2726310e-05   4.4819902e-04   1.6637721e-04   1.4824791e-05  -3.5331066e-04  -3.0458081e-04  -6.1593979e-04   5.6974124e-04   3.1865991e-04   1.0000478e-03  -1.4453955e-04  -3.6178721e-04   5.8531994e-04   2.6683154e-04
   4.2819040e-04   2.2010418e-04   3.5654174e-04   3.9988733e-04   2.1088324e-04   2.9509541e-05   2.1165706e-05   1.3763551e-04   1.5355678e-03  -1.6509043e-04  -1.9144914e-04  -1.4225573e-05   5.7763922e-05   1.8393388e-04   7.4447154e-05   1.3924224e-04   1.0314327e-04  -1.5067724e-04  -1.7190815e-03   2.8583457e-04   2.9104218e-04   4.7258713e-04  -2.4708104e-04   1.9659750e-05  -3.6199545e-04  -3.5868317e-04  -8.3029285e-05  -1.5454616e-04  -2.2091858e-04   2.6088217e-04  -1.7773100e-05   1.7646345e-05   9.4917353e-04   2.7166432e-04  -7.6413213e-04  -3.3282719e-04   1.5987815e-04   4.4095490e-05   1.9208724e-06   7.1765250e-04  -2.4753776e-05  -1.8804788e-04  -5.3124409e-04  -5.8637577e-04   4.0477273e-04  -4.3949971e-05   5.1351498e-07  -1.7185732e-04   5.8840163e-04   5.1603204e-04
   6.3981296e-04   5.3101440e-04   7.3668151e-04   9.0425508e-04   5.5383745e-04   1.1122749e-03   4.7956334e-04   4.9487507e-04  -1.1453613e-03   2.6060781e-04   2.1126308e-04   1.6023051e-04   4.1458008e-04   6.0103391e-04   5.8738643e-04   6.1457342e-04   5.4856192e-04   3.6852859e-04   1.1349318e-03   9.2694379e-04   7.2440755e-04   1.1740302e-03   2.8133061e-04   3.3158067e-04   6.6793285e-04   1.4851359e-04   7.0970162e-04   3.2018751e-04   4.9862725e-04   7.5771840e-04   2.0485395e-03  -3.2323707e-05   1.2023026e-03   8.2250260e-04   1.1044373e-03   8.9296571e-04   1.8454433e-04   1.0245941e-03   3.5943429e-04  -1.7283688e-05  -9.7796028e-06  -1.0749290e-04  -2.2363094e-04   1.4689218e-03   6.4215460e-04   1.3842784e-03   6.5815577e-05  -1.2148845e-04   5.9360272e-04   4.8065715e-04
   7.5076573e-04   5.1124953e-04   6.0289685e-04   7.8866497e-04   2.6967298e-04   7.0045178e-04   3.0434228e-04   5.1326922e-04  -2.2189603e-04   9.6264841e-05   1.1923634e-04   1.3065066e-04   2.7480343e-04   5.0341070e-04   4.0274404e-04   5.4708874e-04   5.2926206e-04   3.1640884e-04   2.2782918e-04   7.9912611e-04   6.2971207e-04   1.0227340e-03   4.5028541e-04   2.1166154e-04  -3.1812870e-04   1.0970551e-04   3.4853505e-04   1.4596437e-04   6.3690811e-04   1.6351778e-04   3.1303603e-04   7.2476175e-04   1.0665015e-03   8.9680316e-04  -1.5088685e-03  -5.2079523e-04   3.2619725e-04  -5.6113236e-05   1.6035706e-04   3.1026316e-04  -5.2478700e-04  -3.1215043e-04  -7.3200557e-04  -2.9106053e-05   4.4569813e-04   5.4961129e-04  -1.4216200e-04  -3.6715643e-04   3.4062233e-04   2.3845391e-04
   6.0664542e-04   2.6227627e-04   3.1335448e-04   5.1252311e-04   3.4111945e-04   5.7948020e-04  -3.5121167e-04   8.1094411e-05   4.4409776e-04  -2.2179300e-04  -2.0201685e-04  -4.8753300e-05   8.2710940e-06   2.8764078e-04   1.5241803e-04   2.1403839e-04   1.7553318e-04   6.9106529e-05  -3.1042891e-04   3.6549443e-04   4.0589066e-04   6.6464324e-04  -1.6109644e-04  -1.2892076e-04  -1.4003695e-04  -3.6328059e-04  -1.9725091e-04  -9.3272574e-05   3.8222369e-04   2.1657869e-04   3.4829881e-04   8.8583108e-04   4.9247424e-04   1.9875255e-04   8.7900617e-04  -1.1815474e-03  -7.9685000e-05  -1.1833130e-04   4.3392203e-07   3.2515109e-05  -6.5400702e-04  -5.5686885e-04  -9.3158887e-04  -4.3940841e-04   1.9224672e-05  -3.0895625e-04  -4.4069366e-04  -6.2899292e-04   1.1697815e-04  -6.7212437e-05
   4.3866169e-04  -4.7935879e-05  -9.3197203e-05  -4.4703211e-06   1.0400570e-04   2.3398493e-04  -5.9504458e-05  -2.1169744e-05   1.7525060e-03  -1.2799031e-04  -3.0876201e-04  -7.5698241e-05  -1.1721695e-04   6.6089415e-05  -2.5059777e-05   1.2729186e-04   1.5954113e-04   3.5696212e-05   3.7943467e-04   6.4053835e-04   5.4077734e-04   8.8563631e-04   1.8847089e-04   2.9600738e-04  -4.7909174e-04  -1.0040661e-04   1.3215680e-04   1.2037468e-03   2.8203221e-04   4.5434912e-04  -4.2954623e-04   5.1248388e-04   1.2498550e-03   6.7262928e-04   2.9741827e-04   1.9584050e-04   2.9159509e-04   2.9603863e-04   3.7295726e-04   2.7549884e-04   2.2713377e-06  -2.0425307e-04  -4.2881770e-04  -1.4038199e-04   4.7028819e-04   8.8144763e-04   1.5149677e-05  -2.3236938e-04   7.5015781e-04   5.9725059e-04
   2.5379154e-04   5.8737810e-04   7.0374628e-04   1.0298460e-03   4.8033285e-04   1.0873042e-03   5.8499869e-04   7.6725928e-04  -8.4682077e-04   1.7178376e-04   2.7594896e-04   1.3848701e-04   3.0849784e-04   5.7943875e-04   4.5863405e-04   5.6787510e-04   5.6672131e-04   3.9961873e-04  -1.1212364e-03   8.5525529e-04   6.6706148e-04   1.1074595e-03   2.2137900e-04   3.5751396e-04   1.3027088e-03   7.6490942e-05   2.6225520e-04   6.2350178e-04   1.1794617e-03   5.3822686e-04   1.7510831e-03   4.1682238e-04   1.2347571e-03   6.0869724e-04   7.4613944e-04   8.4092579e-04   4.1936868e-04   7.2489603e-04   3.8399271e-04   3.3764142e-04   1.4655183e-04  -1.9805215e-04  -5.2015268e-04   1.0316221e-03   5.2837125e-04  -1.0725967e-04  -2.4161120e-05  -2.7620138e-04   5.2288693e-04   3.7864802e-04
   1.1809552e-03   4.5832811e-04   6.8167556e-04   8.7371946e-04   7.6718687e-04   5.5163639e-04   2.8417440e-04   6.9490698e-04   1.1244025e-03   4.0763196e-05   1.1628136e-04   6.1386490e-05   2.1566924e-05   3.8043316e-04   5.2169128e-04   3.6818738e-04   4.4718356e-04   3.1038350e-04  -2.3334492e-03   6.3535775e-04   4.6391925e-04   8.4819243e-04  -1.0645728e-04   6.1505125e-05   1.5498211e-03  -7.3086121e-05   1.1844024e-04   3.1023225e-04  -5.1737476e-05   3.6606533e-04   1.5255575e-03   7.9078300e-06   8.1578136e-04   5.5681745e-04  -2.5539257e-04  -3.0405875e-04   9.2186412e-04   5.1968562e-04   8.8133689e-05   3.2639439e-04  -5.4442626e-04  -4.2380558e-04  -5.9804757e-04   1.0798094e-03   2.5523448e-04   7.3344389e-04  -2.6924876e-04  -5.6089746e-04   1.0691531e-04   1.5945968e-04
   1.4524956e-04   1.0869578e-04   3.0839941e-04   2.8878805e-04   5.2032550e-04   2.3413081e-04   3.0893349e-04   1.5112120e-04  -1.2150850e-03  -2.5095750e-04  -8.9901492e-05  -5.8373829e-05  -5.8709935e-05   5.9431062e-05  -2.2069039e-04   1.1765809e-04   3.4745597e-05  -7.1190574e-05   1.6529753e-03   2.6055315e-04   2.4988430e-04   4.8136283e-04  -3.9623721e-04  -1.4596168e-04  -3.2155821e-04  -4.6901585e-04  -1.7610462e-04   1.8570614e-04   8.2097235e-05   1.2587273e-04   1.5521157e-04   2.2307807e-04   5.9926586e-04  -2.5251874e-04   1.8252806e-05   1.4596648e-04   2.9676087e-04  -4.1205788e-04  -9.4194598e-05   1.7897022e-04  -9.4914436e-04  -6.0298701e-04  -1.0235274e-03   4.4761301e-04   1.1685644e-04   2.8049340e-04  -3.0347536e-04  -5.0941925e-04   3.1649129e-04   7.5214193e-06
   6.1869278e-04   2.5758639e-04   5.0739507e-04   7.6365349e-04   3.1250279e-04   6.6065311e-04   7.6169590e-04   4.0239745e-04   3.7419542e-03   1.5346649e-04   1.1020489e-04   9.8597324e-05   1.8119012e-04   2.7034600e-04   5.9835056e-05   4.7560249e-04   4.8819251e-04   3.0516196e-04   9.3011011e-04   9.0886798e-04   6.4765592e-04   1.1104618e-03  -7.4721152e-05   3.7585266e-04   1.1437997e-04   1.9670388e-04   5.5410224e-04   3.2260240e-04   5.4094545e-04   4.0748445e-04   1.0457899e-03   3.5083824e-04   1.2542901e-03   8.5176103e-04  -1.7088301e-05   1.0275942e-03   2.8701994e-04   1.3243918e-04   4.4730635e-04   1.0343507e-03   7.4514369e-06  -1.9888804e-04  -3.6756200e-04   6.7075295e-04   5.2111602e-04  -8.1752607e-04  -2.8427368e-05  -2.2833289e-04   5.1855901e-04   3.5786186e-04
   3.1974819e-04   5.1014411e-04   7.4712763e-04   8.9777337e-04   6.6513091e-04   7.9362327e-04   4.1131640e-04   4.7590054e-04  -9.4783556e-04   2.2381701e-04   2.7472625e-04   1.5751184e-04   2.4798262e-04   4.1693659e-04   3.6530988e-04   4.5691754e-04   4.7734624e-04   3.8579840e-04   4.6439758e-03   8.9289690e-04   6.1758683e-04   1.0077202e-03   1.1305287e-04   2.6318964e-04   1.5635662e-03   1.7374181e-04   5.2592484e-04   2.7298328e-04   3.1282229e-04   3.4282947e-04   6.5318099e-04   2.3108631e-04   1.2791954e-03   5.7064259e-04   1.1440535e-03   4.7300354e-04   1.5595720e-04   4.0869354e-04   3.4125784e-04   3.6744116e-04  -3.0110151e-04  -3.0425831e-04  -6.0048408e-04  -3.8229214e-04   4.9403613e-04   8.4038940e-04  -9.4374198e-05  -3.6482795e-04   4.0451085e-04   7.5160031e-05
   7.0276647e-04   2.3632620e-04   6.1384938e-04   5.8962428e-04   9.0748339e-04   6.0306129e-04   6.0521025e-04   5.1086984e-04   1.3038375e-03  -5.3267162e-05   9.6615935e-05   7.8061035e-05   9.0318472e-06   2.1902524e-04   3.0248391e-04   3.2053274e-04   1.4886317e-04   8.0891070e-05   1.5219221e-03   4.2442605e-04   3.8828171e-04   6.2594778e-04  -1.4928264e-04  -3.6817921e-05   2.9248919e-04  -1.2429887e-04   1.2239021e-04   2.5003255e-04   1.9460756e-04   2.7690313e-04   4.1582869e-04  -1.1396226e-04   6.8014907e-04   1.3671105e-04  -1.1419769e-03  -4.2671213e-04  -3.9860213e-04  -1.7397052e-04   4.9381750e-05  -1.4858757e-04  -7.3877466e-04  -5.2994053e-04  -7.7042711e-04  -9.9775277e-04   2.7849208e-04  -1.6498007e-04  -3.4128415e-04  -5.5521302e-04   2.0996002e-04  -1.6832273e-04
   1.5231803e-04   4.3442786e-05  -9.7856035e-05   4.2322619e-05  -3.6863486e-05   3.3372542e-04  -2.9490822e-05   5.4126437e-04   1.3032113e-03  -3.5036920e-04  -2.4797005e-04  -1.0331791e-04  -2.2556292e-04  -7.4763862e-05  -2.1610275e-04  -7.4888863e-05  -1.3723935e-04  -1.8754524e-04  -4.9668751e-03   1.3781207e-04   1.8370587e-04   3.6892400e-04  -3.8498692e-04  -6.8731490e-05   2.0706313e-04  -5.6427956e-04   2.4257653e-05  -1.5507916e-04   1.3215079e-04  -2.4541876e-05   1.5154658e-03   1.5336745e-04   7.5118750e-04  -2.9429346e-05   9.8615058e-04  -1.2236977e-03   1.6484539e-04   3.9831619e-04   1.5439671e-04   2.1421361e-04  -3.6965215e-04  -3.0213335e-04  -5.6503428e-04   2.7148752e-04   3.3799710e-04  -4.3397976e-04  -1.1851094e-04  -3.6422114e-04   5.1077746e-04   1.8962091e-04
   3.3399081e-04   4.0116353e-04   8.8046287e-04   7.6904404e-04   5.2262761e-04   8.5792132e-04   8.0964790e-04   2.7936252e-04   6.5003866e-03   2.4606174e-04   2.9503470e-04   1.6253306e-04   1.6618668e-04   4.3913038e-04   2.9289944e-04   4.0274061e-04   4.6445863e-04   4.2689845e-04   2.4816704e-03   8.7235565e-04   5.9919845e-04   1.0487518e-03   5.4033380e-04   2.8306217e-04  -5.0408149e-04   1.7169798e-04   1.7954210e-04   2.6293032e-04   1.9232303e-04   6.5510604e-04   1.6990827e-03  -1.0201586e-04   8.4618188e-04   3.1393013e-04  -1.1757191e-03   6.1719556e-04   1.1532166e-04   9.1756403e-04   3.8109318e-04   6.3589122e-04  -4.0891234e-04  -2.0324202e-04  -4.8748968e-04   2.1726876e-03   3.5380249e-04   6.7185907e-04   1.5332760e-05  -2.3516004e-04   3.0476382e-04   2.1142796e-04
   5.0766300e-04   4.5660624e-04   5.0311041e-04   7.5141463e-04   9.4154419e-04   5.2681274e-04   2.1910998e-04   1.8900099e-04   4.5487826e-04   1.3203402e-04   2.7337793e-04   1.2556276e-04   8.5408312e-05   3.6847679e-04   4.0470075e-04   3.6289627e-04   3.8558728e-04   3.8624110e-04  -8.9773897e-04   7.4478448e-04   4.6134254e-04   8.5235608e-04   3.8677841e-04   1.9679594e-04   1.5520002e-04  -1.5495595e-04   1.7659232e-04   8.2208391e-04   4.0420270e-04   4.4857248e-04   6.7541951e-05   5.2664586e-04   7.7286974e-04   3.2263642e-04  -3.3768575e-04  -6.6203553e-05   2.4307314e-04  -4.8219186e-05   1.8488648e-04   3.2938115e-04  -7.0374436e-04  -3.3316508e-04  -6.3462934e-04   1.1577336e-03   1.9784620e-04  -1.1968078e-04  -1.6497631e-04  -4.0858862e-04   1.9544039e-04  -5.2109757e-05
   5.2172883e-04   1.3752189e-04   2.4687042e-04   1.8107807e-04   4.8115544e-05  -1.9538236e-05  -3.2440020e-04   3.9258873e-04   1.3511953e-03  -1.3266080e-04   2.4462575e-05   1.6120655e-05  -1.2870714e-04   3.9109404e-05  -3.1025229e-05   1.3229313e-05  -2.1513577e-05  -1.2045002e-04  -1.6954012e-04   2.4945909e-04   2.2951877e-04   3.5756821e-04  -6.8789159e-05  -1.0191262e-04  -5.9882604e-04  -3.7487154e-04  -1.2146794e-04   3.3296059e-05  -1.8455021e-04   1.5566376e-04   2.5848896e-04  -4.5292782e-05   4.3057679e-04  -2.8550893e-04  -3.6826750e-04   5.7433383e-04  -3.1737363e-04  -2.9717016e-04  -1.3163216e-04  -3.2639971e-05  -9.3051116e-04  -6.1139517e-04  -9.0397941e-04   1.1438091e-04   1.1980157e-04  -1.6431791e-03  -4.4202938e-04  -7.1642053e-04   5.6229594e-05  -3.0267137e-04
   1.3131932e-04  -1.1996726e-04  -2.1600432e-04   2.4290931e-04   2.5676945e-04   2.1262615e-04  -1.2314122e-04  -1.6206452e-04   2.9338996e-03  -1.8491595e-05  -5.2106632e-05  -2.0158779e-05  -5.7298657e-05   6.8944669e-06   1.4939561e-04   1.6616839e-04   1.6347911e-04   1.7672122e-04   1.1771533e-04   6.6356524e-04   4.7877521e-04   7.9100818e-04   2.3739456e-05   1.5960903e-04   6.3505839e-04  -2.8263970e-05   4.4459992e-04   3.4154934e-04   1.2386429e-04   3.8499900e-04   1.7219774e-03   2.4269866e-04   9.1385539e-04   6.2789524e-04   5.1537622e-04   5.2517146e-04   4.0720496e-04   6.7039597e-04   3.4367514e-04   1.2094752e-03  -1.9892010e-04  -1.9329836e-04  -3.7914215e-04   8.4510626e-04   5.0912541e-04  -7.5566837e-05  -3.3357257e-05  -2.2990687e-04   5.0094340e-04   1.6405404e-04
   1.7869794e-04   3.7672880e-04   2.8717032e-04   5.2776269e-04   5.0446705e-04   2.8289613e-04   1.8239167e-04   1.1163027e-06  -6.7081675e-03   9.6985015e-05   2.0042347e-04   9.0655260e-05   9.5482916e-05   2.8988841e-04   4.5988560e-04   2.8177904e-04   3.0812892e-04   1.9385869e-04   2.5755551e-04   7.8674132e-04   5.1101524e-04   8.2446571e-04   3.5479417e-04   9.8444347e-05   6.4948807e-04   2.8056749e-05   4.3186324e-04   5.0830946e-04  -4.7051271e-05   4.5701661e-04   7.1592527e-05  -1.1881136e-04   5.2635535e-04   3.8431011e-04   5.1407947e-04  -1.2957701e-04  -4.5733264e-05   2.5438459e-04   2.1531839e-04   6.1701494e-04  -4.7094090e-05  -2.9016551e-04  -4.8728127e-04   1.1411697e-03   3.5962428e-04   8.0624112e-04  -9.7710727e-05  -2.7746274e-04   3.7690904e-04   7.3704527e-05
   2.4260310e-04   2.1164889e-04   3.9191230e-04   3.6319959e-04   5.0102611e-04   3.5296203e-04   1.1142241e-04  -5.9734543e-06   1.0288575e-03  -1.3271763e-04   3.0103090e-06  -3.1291718e-05  -1.6238583e-04   1.7990993e-04   5.0912979e-05   4.3817039e-05   1.2740045e-04  -1.1595038e-05  -5.0249989e-03   3.6513680e-04   2.4870265e-04   4.6277384e-04  -3.3601056e-04  -1.6062176e-04   4.5839441e-04  -1.5079982e-04   2.2779335e-04   4.8352894e-04   7.8797311e-05   1.2754597e-04   1.7459865e-03   5.8963458e-04   3.7391353e-04   1.4546461e-04  -1.0999062e-04  -7.2657736e-04  -5.7562219e-04   1.3708978e-04  -1.0090588e-04   4.1436218e-04  -7.1847136e-04  -5.2031636e-04  -7.0581568e-04   9.4811281e-04   4.0995732e-05  -4.6764867e-04  -3.5843067e-04  -5.8709393e-04  -1.8871191e-04  -2.4997818e-04
  -1.5730712e-04  -5.7267407e-05  -1.9149155e-04  -1.8775645e-04   5.7046269e-05  -1.0881681e-04  -3.8185189e-04   1.9502039e-04   1.5919240e-03  -3.1934647e-04  -1.8491936e-04  -1.8040273e-04  -2.8110130e-04  -1.6166312e-04  -1.0173941e-05  -1.1962342e-04  -9.5374606e-05  -2.9587751e-04  -1.0011225e-03   4.1395976e-04   3.0759713e-04   5.8829557e-04  -1.5121944e-04  -5.0374296e-05   1.9017581e-04  -1.8960828e-04   1.4247546e-04   6.9199130e-05   2.7014563e-04   1.4461692e-04  -8.8662491e-04   5.6138169e-04   8.0477644e-04   1.4516662e-04   1.2689517e-03  -3.7601619e-04  -2.0032418e-04   6.6699693e-04   1.8787755e-04  -5.5374042e-04  -3.2945647e-04  -2.9507617e-04  -2.9837017e-04   8.0908899e-04   4.0565187e-04  -2.6342404e-04  -8.6106273e-05  -2.1872288e-04   2.8538171e-04   1.5415634e-04
   4.1857647e-04   4.0953082e-04   2.5820237e-04   6.9576042e-04   8.6510734e-04   6.5420929e-04   3.6288000e-04   3.0166944e-04  -2.2949944e-03   3.7106081e-05   1.8969919e-05   3.1425898e-05   9.3326955e-05   2.2866970e-04   9.4155410e-05   1.9822351e-04   2.2813136e-04   2.1216199e-04   2.3381740e-03   6.7989907e-04   4.4916489e-04   8.0930465e-04  -2.6604300e-04  -5.9055692e-05   6.8309420e-04  -6.5644431e-06   2.9573624e-04   4.9345189e-04   7.4368465e-04   3.1718248e-04   5.9437600e-04   8.7050209e-04   1.0089449e-03   4.6519871e-04  -4.1869428e-04  -1.1966354e-03   2.2993851e-05   7.4543938e-04   1.3304751e-04  -1.7092450e-04  -4.4612886e-04  -2.4843446e-04  -5.4301968e-04   6.8939151e-04   3.6934332e-04  -8.6081185e-04  -1.1172315e-04  -2.1498671e-04   3.7618456e-04   7.9070538e-05
   5.2339071e-04   2.5686319e-04   2.7497954e-04   3.8756576e-04   3.3044588e-04   6.0127454e-04   4.2107640e-04  -1.6658081e-05  -2.4428859e-04  -1.1511209e-04   8.3669736e-05  -3.8451839e-05  -1.3291698e-04   3.8295453e-05   3.1052748e-04   1.7870027e-04   2.2608075e-04  -2.3903582e-05  -2.2316789e-03   3.9374208e-04   3.0973004e-04   5.9036707e-04   3.7644186e-05  -7.2267967e-06   8.9162408e-04  -1.4279781e-04  -3.3262128e-04   3.4678454e-04   1.2939872e-04   1.6382406e-04   6.4055732e-04  -6.4152425e-07   4.8939575e-04  -1.4860532e-04   1.0756673e-03   5.6321750e-04   2.3324385e-04   2.2124496e-04  -1.3079261e-05  -5.8460631e-04  -6.4034393e-04  -4.7714610e-04  -9.3347090e-04  -6.5655372e-06   7.6257842e-05  -1.0723234e-03  -3.1134987e-04  -5.2157231e-04   1.6464826e-04  -1.3820427e-04
  -3.5037860e-04   1.5722497e-05  -3.6750660e-06  -4.9906517e-05  -1.4304738e-04   7.8001397e-04   5.1101437e-04  -4.9420336e-04  -3.2387362e-03  -2.5152430e-04  -1.7129430e-04  -1.4331429e-04  -5.0897164e-05  -5.6123492e-05   1.6137154e-04  -4.8373207e-05   1.9275454e-05   4.3590546e-05  -2.6839148e-04   6.0678541e-04   4.4634941e-04   8.0735463e-04   3.1597490e-04   8.6024229e-05   1.3609360e-03  -2.2531649e-04   1.8955850e-04   5.1954534e-04   1.2254183e-03   1.9460403e-04   5.1928824e-04   2.3522570e-04   1.3470012e-03   3.6399523e-04   7.6908653e-04   9.2982181e-04   5.1059463e-04   2.1639185e-04   2.6504628e-04   1.0966448e-03  -4.5202216e-04  -1.8717189e-04  -4.7895007e-04   1.2073782e-03   5.1727844e-04   1.0274507e-03   3.2086315e-05  -1.8556921e-04   5.3631433e-04   2.3694518e-04
   6.1060040e-04   5.9111760e-04   5.9733354e-04   8.3415024e-04   8.6055923e-04   6.9760316e-04   5.2804581e-04   4.2174573e-04  -2.2881280e-03   1.0247643e-04   3.1223678e-04   7.3409261e-05   3.7839083e-04   4.4030612e-04   1.5277789e-04   3.9927996e-04   5.3785776e-04   3.7816702e-04  -4.8675417e-04   8.8598940e-04   5.7647232e-04   9.6818712e-04   2.0573873e-04   1.4381262e-04   5.9826643e-04   1.4553154e-04   2.8651842e-04   4.3086451e-04   3.6565456e-04   6.1099773e-04   4.3132468e-04   3.2434758e-04   8.3328533e-04   5.0180941e-04  -8.4333093e-05   1.3293891e-03  -5.2657397e-04   6.2860089e-04   3.2099531e-04   1.3217358e-03  -5.1500043e-04  -1.8059125e-04  -4.1613856e-04   2.3531962e-04   5.5961538e-04   2.0457065e-04   3.5866709e-05  -1.2132221e-04   4.6063378e-04   1.4136557e-04
   1.6988195e-04   4.3622908e-04   5.3356384e-04   6.5139739e-04   7.9467084e-04   5.1749154e-04   6.0045422e-04   3.5941889e-04  -1.7998000e-03  -3.4780610e-06   2.7187768e-04   5.5171308e-06   1.8656810e-04   2.7142430e-04   3.6155907e-04   3.9351720e-04   4.3355493e-04   1.1970692e-04  -1.1956430e-03   7.3027849e-04   4.4215700e-04   8.1367453e-04   4.6859606e-04   3.5836674e-05   1.4517085e-04  -1.6746279e-04  -1.2331780e-04   3.1106221e-04   9.4834011e-04   3.3060744e-04  -1.1117115e-04  -8.1483820e-05   7.6146977e-04   3.2704195e-04  -3.6545988e-04   5.6976978e-06   8.5145628e-05   1.0619335e-03   1.0522262e-04   7.3278550e-04  -6.8746222e-04  -3.6919347e-04  -7.9798826e-04   6.3701882e-04   2.8575966e-04   1.1495545e-04  -1.6082957e-04  -4.0072104e-04   2.9518522e-04  -1.0425632e-04
   3.9436456e-04   1.8608209e-04   3.2684620e-04   1.3971607e-04   3.8654009e-05   6.1859109e-04   1.3702190e-04   2.1594959e-04  -1.1541301e-03  -2.6894899e-04  -8.4675434e-05  -1.3590822e-04   5.6082281e-05  -6.2147985e-05   3.1041371e-04  -2.1109803e-05   8.9626148e-05  -9.3910785e-05   4.3840311e-04   3.1745704e-04   3.1323126e-04   5.9584895e-04  -3.6844349e-04  -2.4122697e-05   7.2244479e-04  -4.1260378e-04   1.4705810e-04   6.5960234e-04   4.2824028e-04   1.6657864e-04   7.6681853e-04   5.2638387e-04   7.1100955e-04   3.3787324e-04  -3.3521434e-04  -6.9421827e-04   2.9380721e-05   5.0820899e-04   3.3108357e-04   1.4331336e-04   8.2788909e-05  -6.3712985e-05  -2.1991963e-04   5.1205046e-04   6.1286980e-04  -2.1835793e-04   1.3059883e-04  -9.5235722e-05   7.1911584e-04   4.4933110e-04
   1.0624798e-03   6.1667885e-04   9.8480785e-04   1.2332385e-03   5.6965672e-04   1.0687985e-03   7.9097581e-04   1.0946218e-03   6.1977338e-03   3.1691999e-04   5.8736739e-04   1.6082005e-04   4.7334813e-04   4.9866119e-04   5.5211701e-04   6.5929111e-04   8.2856324e-04   5.3698802e-04  -1.6134461e-04   1.0893111e-03   6.7713391e-04   1.1839393e-03   5.1287527e-04   2.8960337e-04   8.8464865e-04   3.1547042e-04   8.5939612e-04   5.9811288e-04   1.4552530e-03   7.3167845e-04   5.0853001e-04   2.2630370e-04   1.0095706e-03   7.5852638e-04  -6.6085573e-05   4.8391157e-04   4.4011438e-04   4.5269440e-04   5.8945530e-04   1.5059785e-03   4.4698309e-04   1.0820779e-04   1.2290090e-05   7.4593216e-04   5.5021874e-04   1.2345343e-04   3.0685985e-04   1.3250874e-04   7.7645859e-04   5.4956885e-04
   4.5346489e-04   6.5074407e-04   9.4756810e-04   1.0156670e-03   2.9804170e-04   1.2915137e-03   8.4532233e-04   7.3426019e-04  -6.8682642e-04   1.8693061e-04   5.3614477e-04   1.1747663e-04   3.8344861e-04   5.4772984e-04   4.3666913e-04   5.9427321e-04   6.6794868e-04   4.1079419e-04   3.8538601e-03   8.4595580e-04   5.1469187e-04   9.1998919e-04   2.8711848e-04   1.7010870e-04  -7.3716736e-05   2.3831204e-04   3.6401331e-04   8.1915210e-04   8.5172115e-04   7.7500904e-04  -4.6067638e-05   4.7406077e-04   1.1271508e-03   5.8673357e-04  -2.5938524e-04   5.8181431e-05   9.5280196e-04   6.1998062e-04   4.4342168e-04   2.6995296e-04   2.7342924e-04   2.2343393e-05   3.7324080e-05   2.3960022e-03   5.2379194e-04   2.3510363e-03   1.8864841e-04   6.2359213e-05   2.2623439e-04   5.3602201e-04
   8.7516499e-04   3.8555922e-04   3.0400010e-04   5.8081513e-04   2.5134059e-06   7.6466467e-04   4.1412620e-04   6.4428232e-04  -4.1221190e-04  -9.9368473e-05   2.2423890e-04  -4.2813557e-05   3.4213124e-04   2.2929117e-04   5.5272243e-04   4.1973934e-04   3.8330632e-04   2.1438840e-04   1.2193425e-03   5.2698742e-04   2.8904501e-04   6.1683333e-04   9.2738104e-05  -1.5314399e-04   1.2969137e-03   1.1703608e-04   1.7556211e-04   2.9951404e-04   7.1476458e-04   2.0765974e-04  -1.0402069e-03  -8.9194371e-05   7.3160569e-04   3.2782179e-04   1.4312073e-04  -4.5854916e-04   1.5960811e-04   4.3355490e-04   2.6726534e-04  -1.9967329e-05   1.0978142e-04  -1.5751331e-05  -7.3276278e-05   3.4257220e-04   5.9420546e-04   1.1460901e-03   2.6595645e-04   1.4544182e-04   5.6551868e-04   8.5310062e-04
   6.9061422e-04   5.5882079e-04   7.5515691e-04   1.0689200e-03   8.6664548e-04   1.0269152e-03   7.2917819e-04   6.3578464e-04  -2.6566812e-03   2.4893039e-04   5.3538394e-04   1.1423712e-04   4.9277826e-04   6.1937619e-04   3.1581489e-04   8.1349793e-04   7.7529816e-04   6.6779734e-04   7.3813897e-04   1.1672853e-03   6.6498865e-04   1.1712533e-03   4.6453305e-04   3.2716617e-04   1.0863679e-03   7.2189030e-04   1.0234822e-03   6.6534901e-04   1.1998477e-03   9.3743956e-04   1.3375594e-03   1.1692558e-03   1.1419621e-03   1.2274759e-03   5.5612525e-04   1.4563148e-03   5.4427853e-04   9.0942933e-04   7.7621790e-04   5.2815449e-04   1.0994651e-03   3.7815244e-04   6.4242596e-04   2.4171159e-04   8.8802533e-04   1.5938843e-03   5.4307177e-04   4.7929643e-04   9.1314944e-04   1.0987187e-03
   9.2531386e-04   6.7930663e-04   1.1050248e-03   1.0454498e-03   8.9918420e-04   1.1373586e-03   9.1294845e-04   8.6161785e-04   3.6611545e-03   2.3545297e-04   5.9268961e-04   1.4049814e-04   5.0537236e-04   7.5952895e-04   9.4475952e-04   8.4114290e-04   7.7539636e-04   6.7769649e-04   3.2044258e-03   9.6789747e-04   5.7706935e-04   1.0254907e-03   6.0144631e-04   3.0395246e-04   1.5398969e-03   6.9850683e-04   7.5827155e-04   6.7970291e-04   9.2410384e-04   7.9191051e-04   7.9982617e-04   1.1060194e-03   1.0957172e-03   8.3281484e-04  -1.3686782e-04   1.0223343e-03   1.0884737e-03   1.0458899e-03   7.4276829e-04   7.9048058e-04   5.2144873e-04   3.3568096e-04   4.1433072e-04   5.4852490e-04   7.8335818e-04   1.2315218e-03   4.5155099e-04   4.6555733e-04   4.4025248e-04   9.5989252e-04
   2.8730422e-04   4.7954448e-04   7.7117019e-04   7.7135622e-04  -3.8739548e-05   8.6145592e-04   4.5082366e-04   8.8300765e-04   1.5766709e-03   1.8715028e-07   3.9796613e-04  -1.2076212e-05   2.4445757e-04   4.6437437e-04   3.9875534e-04   6.5536628e-04   5.7795801e-04   4.0516967e-04   2.6472807e-03   6.3258375e-04   3.0363991e-04   6.6820398e-04   4.4971265e-04   2.7791743e-06   5.9775769e-04   3.2255962e-04   3.4092642e-05   6.1958085e-04   6.1499584e-04   2.8086023e-04   6.3976162e-04   1.0540109e-03   7.6596258e-04   7.0058421e-04  -5.9032289e-04   5.1928853e-04   3.8250067e-04   1.0471611e-03   4.1872388e-04   8.3068217e-04   1.3941903e-04   1.1055682e-04   2.2456693e-04   3.6604222e-04   4.0832360e-04   6.7130581e-04   1.8780265e-04   2.1303391e-04   4.0951202e-04   5.6392560e-04
   7.1800040e-04   2.4051146e-04   2.1963162e-04   5.5387936e-04   5.3628854e-04   7.9533411e-04   3.3601144e-04   3.9829221e-04  -2.0196117e-03  -3.0644634e-04   1.0448366e-04  -1.9935018e-04   1.8934507e-04   1.7774951e-04  -2.0347230e-05   4.0489974e-04   2.9530277e-04   2.3050622e-04   2.6276356e-03   4.0695778e-04   1.9469835e-04   5.1394157e-04   3.6218719e-04  -3.0691186e-05   1.4693275e-03   1.7116939e-04   8.8284520e-05   7.3969230e-04   4.1096058e-04   3.8162328e-04   1.1152806e-03   7.3410483e-04   8.5140148e-04   9.9292723e-04   5.1138422e-04   6.4030569e-04   8.7358820e-04   8.8102819e-04   7.7179953e-04   6.5001962e-04   9.9939958e-04   3.3928474e-04   5.3302030e-04   7.5548724e-04   6.0156791e-04   2.6858065e-04   4.0167404e-04   4.6215803e-04   6.5384613e-04   8.1246474e-04
   9.8287384e-04   6.9225120e-04   1.1141851e-03   1.1281581e-03   6.1482558e-04   1.3082562e-03   8.3018321e-04   9.0296078e-04  -1.0385119e-03   2.2660602e-04   6.5241265e-04   5.4927805e-05   5.1500031e-04   7.1846158e-04   6.3744275e-04   9.3402347e-04   8.3504664e-04   5.4803817e-04   4.4627707e-03   1.0021237e-03   5.1649980e-04   9.0806122e-04   6.0480635e-04   1.8913839e-04   1.3439186e-03   5.6554168e-04   7.5091206e-04   1.0701090e-03   1.1611120e-03   8.1821036e-04   2.2703828e-03   7.0813089e-04   1.1001863e-03   1.1478167e-03   1.3383784e-03   7.6269347e-04   1.0626222e-03   4.7384229e-04   8.1901095e-04   3.4887361e-04   9.9269277e-04   4.5939517e-04   7.7340548e-04   9.3245867e-04   7.6696469e-04   8.4818277e-04   4.4297246e-04   4.8430791e-04   4.4787119e-04   7.8082812e-04
   1.0251303e-03   6.9423637e-04   8.9544052e-04   1.0576969e-03   8.5437985e-04   7.5906183e-04   6.7398167e-04   7.8151317e-04   1.8020991e-03   1.3485603e-04   4.5349073e-04   5.2263658e-05   3.0676537e-04   7.5419463e-04   4.6409410e-04   8.2780520e-04   7.6345343e-04   6.4774865e-04  -5.0385052e-04   8.4209669e-04   3.7949084e-04   7.6587213e-04   4.2766001e-04   1.7123522e-04   1.1322490e-03   5.5047392e-04   6.9137430e-04   9.8175497e-04   6.4748595e-04   5.5614632e-04   4.0320499e-04   1.0596670e-03   8.4130926e-04   9.0320071e-04   1.0052100e-03   1.0249255e-03   5.7485426e-04   8.0031191e-04   5.4872560e-04   9.0288918e-04   7.1589934e-04   2.1768673e-04   5.2667584e-04   7.0733967e-04   4.0008489e-04  -7.2102656e-04   2.1670556e-04   3.5399460e-04   2.6256230e-04   4.2438079e-04
   3.1872708e-04   2.8904804e-04   3.3510494e-04   3.6501267e-04   9.0514298e-04   5.6264334e-04   6.2221778e-04   7.9924305e-04  -3.1115222e-03  -1.8830657e-04   1.1006289e-04  -1.3357071e-04   1.1489025e-04   4.1168203e-04   4.1100706e-04   5.1840750e-04   4.2631791e-04   3.2029327e-04   3.0146458e-03   4.9606973e-04   7.8543380e-05   3.5397461e-04   2.1253258e-04  -1.6677823e-04  -8.9305715e-05   6.3576495e-05   3.4458155e-04   7.7926391e-04   2.9386475e-04   5.1226059e-04   1.1073479e-03   4.7439951e-04   5.4889172e-04   4.0555518e-04   4.2453018e-04   1.0306910e-03   3.9877711e-04   2.4324303e-05   2.9483609e-04  -5.6322385e-04   3.8618167e-05  -5.9343511e-05   4.7836798e-05  -3.9757957e-04   4.1347259e-05   1.6226250e-04  -9.7062657e-05  -3.3459230e-05  -1.1514820e-04   1.7387893e-04
   3.3348240e-04   1.0495582e-04   1.8324917e-04   1.4035396e-04   1.8366767e-04   3.7303829e-04   7.1002374e-04   4.5702289e-04  -3.4075340e-03  -1.0993658e-04   1.9935363e-04  -1.6928597e-04   4.3305048e-05   3.5630562e-04   4.5150996e-04   6.4378505e-04   4.9005152e-04   3.6526192e-04   1.6766350e-03   7.4731355e-04   3.0459402e-04   6.8113959e-04   3.8937619e-04   2.2583130e-04  -4.1870755e-04   3.0719728e-04   5.4924749e-04   6.1283750e-04   1.2740328e-03   7.8517344e-04   4.9962179e-04   7.8432873e-04   7.8311976e-04   5.9554190e-04   7.9547404e-04   4.8236988e-04   6.7146443e-04   1.3393800e-03   6.1594456e-04   1.2776993e-03   6.3662976e-04   2.4454962e-04   4.5321655e-04   2.9265305e-03   6.1343820e-04   1.3053084e-03   1.8525451e-04   3.7868207e-04   4.5037954e-04   4.8337103e-04
