   4.0728427e-04   3.2039266e-04   2.4445663e-04   5.4095697e-04  -2.6996777e-04  -3.8498889e-05   5.7940657e-04   1.2537419e-04  -4.5610117e-04   8.1666076e-04   8.4111112e-04   5.4640858e-04   7.8981870e-04   4.5326116e-04   4.6716569e-04   4.9098977e-04   4.2496269e-04   1.3806520e-04   1.0636062e-03   6.4733933e-04   1.8173161e-04   4.2331954e-05   3.6605643e-04   2.7634224e-04   5.2402862e-05   3.6203675e-04   3.4878659e-04   7.3957734e-04   1.0108534e-03   3.5035025e-04   3.6396473e-04   1.3046026e-03   5.7245599e-04  -9.3214345e-05   8.9224905e-04   1.1685127e-03   3.9020300e-04   8.1737555e-04   3.7202853e-04   7.8441767e-04   1.6383213e-04   3.1363024e-04   6.3610706e-04   3.1466081e-04   1.1446294e-03  -4.1859882e-04   2.2166540e-04   2.2718975e-04   1.3134049e-03  -8.9587847e-05
   7.0837687e-04   2.8106448e-04   2.6532231e-04   5.6648883e-04  -3.0161318e-04   2.5982006e-05   1.8905899e-04   2.3875809e-04   1.3424943e-03   8.0024207e-04   8.9913543e-04   5.4906221e-04   7.1119238e-04   4.0990155e-04   5.3264177e-04   5.0790847e-04   4.4738236e-04   9.2332899e-05   3.5108344e-04   5.9792312e-04   1.7006809e-04   3.1207484e-05   4.7413947e-04   2.1604345e-04   7.9034176e-04   3.6544891e-04   1.5167914e-04   8.3142315e-04   8.2834531e-04   5.2310713e-04  -6.1129435e-04   3.4229498e-04   5.9847295e-04   7.9664387e-05   5.1428535e-04   3.7205018e-04   2.4998820e-04   8.3411695e-04   3.7288497e-04   9.0436958e-04   3.6700562e-04   2.8692340e-04   4.5620161e-04   4.8884668e-04   1.0868656e-03  -1.5517932e-04   1.9601539e-04   2.1815085e-04   1.4870138e-03  -2.5133893e-04
   2.1649257e-04   2.0013397e-04   7.6316803e-04   3.7645324e-04  -1.7465343e-04   2.4031228e-04   1.9453558e-04   2.1837578e-04   3.5896334e-03   8.2989928e-04   7.6313503e-04   5.5464241e-04   8.7710813e-04   4.8205809e-04   1.0216149e-04   4.8698069e-04   4.7690427e-04   1.9331153e-04  -3.2684236e-04   6.4996956e-04   2.1570075e-04   9.0536989e-05   5.5680738e-04   3.4619847e-04   1.3723029e-03   3.5022831e-04   1.6202407e-04   5.5184570e-04   9.7939640e-04   3.8412461e-04   1.9729785e-03   3.6344418e-04   8.0716767e-04  -1.1612180e-04   1.0861091e-03   5.6119851e-04   7.0419768e-04   6.0895539e-04   2.7602818e-04   8.5015746e-04   2.8626315e-04   3.3104891e-04   5.5469660e-04  -7.1229535e-04   1.2577838e-03  -2.6597211e-04   2.1901679e-04   2.1758954e-04   1.5384338e-03  -1.7032963e-04
   5.4497487e-04   3.0765135e-04   4.4038988e-04   3.4214355e-04   4.7337892e-04  -1.0785341e-04   1.4378903e-04  -9.7613105e-05   3.2311041e-04   8.1700634e-04   8.7187625e-04   5.4498139e-04   8.1171654e-04   4.7120239e-04   5.3233979e-04   4.5808704e-04   4.2237662e-04   2.3662305e-04  -1.1952864e-03   6.1613985e-04   2.3823390e-04   1.3518137e-04   6.7893014e-04   2.3076660e-04   6.1855948e-04   3.3971990e-04   1.8574609e-04   5.4378354e-04   5.0459354e-04   4.3449187e-04  -7.1518839e-04   1.0557723e-03   4.3339925e-04  -1.0048704e-04   1.6037673e-03   2.4464141e-04   1.0434751e-03   4.4756843e-04   3.7604308e-04   6.2240119e-04   3.5309419e-04   3.4374051e-04   4.5325386e-04   8.7254331e-04   1.0590225e-03  -5.7248672e-04   2.0828153e-04   1.9459668e-04   1.3982907e-03  -2.2785075e-04
  -1.5680286e-06   3.4783324e-04   4.2284132e-04   4.8790750e-04   1.5603397e-04   1.9298872e-04   3.0700085e-04   6.7529720e-05  -3.9645362e-05   7.7999756e-04   8.2959869e-04   5.2815536e-04   7.0427387e-04   4.7090542e-04   2.7905739e-04   4.5051688e-04   4.3252212e-04  -3.9903334e-06  -3.4674334e-03   6.0857070e-04   2.3036916e-04   1.2785947e-04   6.6565204e-04   3.4854608e-04   7.8172772e-04   2.9649286e-04   3.0856239e-04   5.2951643e-04   6.2333071e-04   5.5756455e-04   7.5655890e-04   9.5070765e-04   4.6455997e-04  -1.2760026e-04   2.6301056e-04   8.7783218e-04   1.9786648e-05   2.8089422e-04   3.3350609e-04   4.6462144e-04   3.3641167e-04   3.2212073e-04   5.0751568e-04  -1.0315613e-04   1.0640295e-03   4.8831425e-04   1.9120994e-04   2.0534154e-04   1.2779933e-03  -2.7848015e-04
   3.9993509e-04   2.7659637e-04   5.0895318e-04   5.5238442e-04  -1.8683288e-04   2.6742791e-04   6.5569917e-04   4.6414178e-04   3.0535744e-03   7.2227762e-04   8.4844732e-04   5.0894264e-04   7.1721827e-04   4.8942020e-04   4.2736117e-04   4.6262908e-04   3.4691484e-04   1.9488875e-04   1.4616912e-03   6.0441397e-04   2.4482221e-04   1.9320306e-04   4.6138503e-04   2.8417658e-04   1.4151831e-03   2.2093124e-04   3.3786558e-04   1.6872125e-04   1.8379447e-04   6.5618975e-04  -2.7008835e-04   4.3117616e-04   4.7285436e-04   1.4463850e-04  -1.0437762e-03   1.0342234e-03   7.3721464e-04   5.4434728e-05   2.5727271e-04   5.6969322e-04   2.6807861e-04   3.4244175e-04   5.3694414e-04   1.0708314e-03   1.2527992e-03   1.0122492e-03   2.4058351e-04   1.7050393e-04   1.6235556e-03  -8.4104795e-05
   7.0431459e-05   3.0039676e-04   7.2418619e-04   4.5798803e-04   6.5057119e-04   5.3038031e-05  -1.7601864e-04   9.5616677e-05  -3.6045397e-03   7.8289659e-04   8.2078966e-04   5.0209998e-04   8.1698765e-04   5.8539392e-04   2.2410501e-04   5.3109886e-04   4.0100361e-04   1.5096796e-04   1.0413327e-03   5.9550221e-04   2.7362426e-04   1.6101408e-04   7.2291121e-04   3.0578626e-04   1.8574856e-03   2.7494924e-04   2.0381605e-04   6.9620722e-04   5.0765590e-04   4.7146034e-04   1.2974024e-03   8.0742035e-04   2.2008734e-04  -2.6667290e-04   7.4651785e-04  -1.7924327e-04   6.6450262e-04   2.6022134e-04   3.7349036e-04   7.9688281e-05   2.1665324e-04   3.5822834e-04   4.8488288e-04   7.9152780e-04   1.0686119e-03  -2.2967422e-04   2.0755213e-04   2.3288168e-04   1.5405804e-03  -1.8806887e-04
   4.8240047e-04   3.4653948e-04   3.8385016e-04   4.6593486e-04   3.1119905e-04   2.9528525e-04   4.4008077e-04   8.0031721e-05   2.1300232e-03   7.5711589e-04   7.9276098e-04   5.3176435e-04   7.6017954e-04   4.7730919e-04   6.0956687e-04   5.8863452e-04   4.0517733e-04   1.0532074e-04   2.1049436e-03   6.5720704e-04   2.5765880e-04   1.4724658e-04   5.6048541e-04   2.5194132e-04   1.4500674e-03   3.3454740e-04   1.6849114e-04   7.7245454e-04   5.0321774e-04   4.4875423e-04  -1.0075193e-03   7.5834867e-04   5.5560336e-04   8.9720757e-05   1.3980157e-03   9.2402718e-04   6.8548508e-04   6.1897381e-04   3.5341427e-04   7.9172687e-04   3.7196130e-04   3.0949985e-04   4.0599264e-04   5.7090959e-04   1.1449996e-03  -7.4802112e-04   2.0582961e-04   1.9518465e-04   1.3674514e-03  -2.3363616e-04
   4.9707171e-04   3.6999906e-04   7.2869513e-04   6.2013301e-04  -1.6955422e-05  -1.0115499e-04   9.0956259e-05  -3.2957589e-05   1.4528703e-03   7.0345146e-04   8.0318388e-04   5.0753052e-04   8.0029166e-04   5.6072336e-04   4.7318693e-04   5.2339089e-04   4.2575903e-04   1.2633229e-04   1.7991102e-03   5.6249369e-04   2.3631616e-04   2.1004683e-04   6.9622521e-04   1.7305685e-04   1.3000842e-03   3.4571422e-04   4.4098179e-04   2.9589058e-04   1.0054493e-03   5.1418494e-04   1.0802668e-03   5.3441309e-04   2.4988453e-04  -1.0367422e-04   4.0240338e-04   7.8023924e-04   8.0641540e-04   7.9869601e-04   3.4828522e-04   5.0252170e-04   3.4554908e-04   3.2722129e-04   5.0482329e-04   7.5396505e-04   1.1338959e-03  -1.1042174e-03   2.0371054e-04   2.4776597e-04   1.4452834e-03  -1.1688461e-04
   4.6330696e-04   3.3796838e-04   3.7251416e-04   4.7754886e-04  -4.6714896e-04  -2.2333057e-04   1.7349058e-04   8.9780704e-05  -1.2105637e-03   7.6475041e-04   8.1555970e-04   5.1245850e-04   8.6921675e-04   5.5488595e-04   4.6836684e-04   5.7178445e-04   3.7360046e-04   1.2546816e-04  -1.2735253e-03   6.0161715e-04   2.8344599e-04   1.9745438e-04   7.6851720e-04   2.0091640e-04   1.2175227e-03   3.3482260e-04   2.2859390e-04   3.6745361e-04   9.8573684e-04   5.5438292e-04   3.3628967e-04   6.7170279e-04   4.0368471e-04   1.5427529e-05   2.7579899e-04   9.3153492e-04   5.6992663e-04   6.2465953e-04   3.6750943e-04   1.2416807e-03   2.7046198e-04   3.2881115e-04   4.8836129e-04  -1.3090287e-04   1.0531103e-03  -4.4787046e-04   2.0895457e-04   2.5955602e-04   1.6697206e-03  -1.2817091e-04
   6.5225014e-04   3.4300055e-04   7.5092854e-04   5.9924979e-04   6.6297995e-05   3.9887198e-04   5.8101595e-04  -8.3484032e-05   1.2812190e-03   7.3396618e-04   7.9628150e-04   5.0132175e-04   7.7650859e-04   3.0174665e-04   2.8303359e-04   4.6792082e-04   2.9732287e-04   7.0784467e-05   5.2077498e-04   5.7527784e-04   2.6536002e-04   2.0426461e-04   6.7827787e-04   2.1904857e-04   8.5485597e-05   3.3950925e-04   1.3034289e-04   5.6873763e-04   1.0642244e-03   5.0088885e-04   8.3152961e-04   5.0339877e-04   4.1088829e-04   5.0041166e-05   4.4022247e-04   7.4316136e-04   5.7547039e-04   6.1247859e-04   3.8092170e-04   8.4903417e-04   4.3944060e-04   3.1634778e-04   4.3235213e-04   5.6333886e-04   1.0868325e-03  -1.2130457e-03   2.0295109e-04   2.6146226e-04   1.3741180e-03  -1.6052161e-04
   1.3006517e-03   2.8928329e-04   9.3555522e-05   5.1410438e-04   6.9760237e-05   1.2747177e-04   3.2141768e-05   2.4245783e-04   1.8753528e-03   6.9400703e-04   7.6588290e-04   4.8030776e-04   7.2921603e-04   3.9054221e-04   5.9048383e-04   5.5830419e-04   3.5252245e-04   1.4033352e-04   1.9962722e-04   5.2920735e-04   2.2642054e-04   1.8465990e-04   6.2701810e-04   1.7538731e-04  -8.5887715e-04   5.4946449e-04   3.2599032e-04   5.6668068e-04   9.6460013e-04   3.8280021e-04   3.4002107e-04   4.7775169e-04   7.0900697e-04   5.9626305e-05   9.6828822e-04   1.9587975e-04   6.8606460e-04   5.0030317e-04   3.4694243e-04   5.9173326e-04   5.9887400e-04   3.5871961e-04   4.9952901e-04   1.2536264e-03   1.2089857e-03   5.7002436e-04   2.2153409e-04   2.6034709e-04   1.6799554e-03  -7.9623991e-05
   7.1765884e-04   2.5988102e-04   6.7565887e-04   4.1928436e-04   3.8646974e-04   1.4126032e-04   3.4266221e-04   2.6914343e-04  -1.6671076e-03   7.3139986e-04   7.6717942e-04   4.3228333e-04   7.7102543e-04   4.4525127e-04   2.6586247e-04   5.2343885e-04   4.2587516e-04   1.7302153e-04   1.4463236e-03   7.2389800e-04   2.2122955e-04   1.0233451e-04   8.6804887e-04   1.7305100e-04   9.0266939e-04   4.6151754e-04   3.3916431e-04   8.9470542e-04   4.9115205e-04   5.3779251e-04   1.1475778e-03   4.0332417e-04   1.9120629e-04   2.1422848e-04   7.6249780e-05   5.4886757e-04   2.5559404e-05   3.6813389e-04   3.1736458e-04   7.8733283e-04   4.4202933e-04   3.2860349e-04   5.5418478e-04   1.7456188e-03   1.0913855e-03  -5.2341312e-04   2.5641220e-04   2.4764470e-04   1.5457487e-03  -1.6432366e-05
   3.6012183e-04   2.8513142e-04   4.7402663e-04   5.0485908e-04   1.6783761e-04   1.4805987e-04   2.1315769e-04   3.5189750e-04   1.9351718e-03   7.6764816e-04   8.1839267e-04   4.7620418e-04   7.3749461e-04   3.2690243e-04   3.9924559e-04   5.2439375e-04   3.4536145e-04   2.0230276e-04   2.6404823e-03   6.8414834e-04   1.4804841e-04  -4.5134343e-06   2.8812399e-04   3.1452827e-04   1.1523316e-04   3.2987187e-04   6.4894452e-04   6.7410193e-04   2.0930609e-04   3.4977967e-04   1.9564281e-05   3.1589819e-04   1.0552065e-03   3.2653701e-05  -1.0900270e-03   5.2046939e-04   6.6591933e-04   7.6286308e-04   3.4964795e-04   3.6958724e-04   4.0105023e-04   3.6721697e-04   5.1214918e-04   6.0904445e-04   1.1009027e-03  -1.8064666e-04   2.2417084e-04   2.5578661e-04   1.4451843e-03  -6.3760694e-05
   4.6298874e-04   2.6233259e-04   6.3269906e-04   5.5362983e-04   2.8499719e-04   1.6369659e-04   3.3005633e-04   1.8789656e-04  -4.1757203e-03   7.3448883e-04   8.5996115e-04   4.5557486e-04   6.9312815e-04   3.2919837e-04   3.9126343e-04   5.0740072e-04   3.5007065e-04   1.1673984e-04  -2.8065083e-04   5.8273273e-04   1.2252414e-04  -2.6170401e-05   3.3697361e-04   1.6893365e-04   8.3058130e-04   3.4895830e-04   4.6067164e-04   4.8932881e-04   8.6567539e-04   4.4240119e-04   1.7364808e-04   3.7702092e-04   2.1006315e-04   2.6364816e-05   5.9762999e-04   1.9494284e-04   1.0360345e-03   1.1211785e-03   3.4336877e-04  -1.8807607e-04   4.6594485e-04   2.8017780e-04   5.6788925e-04   1.0926712e-03   1.1580340e-03  -4.4731540e-04   2.4054084e-04   3.6681109e-04   1.5288087e-03  -7.5139164e-05
   7.8338943e-04   3.2166258e-04   7.5895502e-04   5.3105992e-04   9.0638830e-05   1.9446906e-04   7.4139854e-05  -2.2485234e-04  -1.9701980e-03   7.6883903e-04   7.8330212e-04   4.5171421e-04   7.3430670e-04   4.2319516e-04   3.2241066e-04   5.1713025e-04   3.3232130e-04   8.9975838e-05  -3.0427109e-04   7.3985563e-04   2.0554129e-04   6.0153252e-05   5.3442124e-04   1.2301721e-04   8.1356271e-04   1.5715290e-04   1.6569768e-04   4.4828383e-04   1.5223348e-04   5.1615498e-04  -7.7634941e-05   2.7408203e-04   6.5523869e-04   2.1620969e-04   4.6298341e-04   3.6534690e-04   1.3261489e-03   6.2847324e-04   3.0289477e-04   3.7359085e-04   7.7736942e-04   4.1928739e-04   6.4866384e-04   1.9325282e-04   1.0535482e-03   4.0487255e-04   4.5365776e-04   3.5349309e-04   1.7354918e-03  -3.0939609e-05
  -4.0653817e-05   2.5467572e-04   6.9597008e-04   4.8516531e-04   3.8592203e-04   1.7274811e-04   2.0245546e-04   5.4889239e-05   8.4441708e-04   7.5898069e-04   8.3756761e-04   4.3839996e-04   9.1541553e-04   3.0153280e-04   2.1150202e-04   4.9128465e-04   4.2114581e-04   8.6363885e-05  -1.6683171e-03   8.8965031e-04   1.2155619e-04   1.1162013e-04  -5.1355855e-05   2.2999269e-04   5.6077488e-04   4.4433601e-04   2.5724168e-05   4.6876719e-04   4.7258110e-04   3.3218350e-04  -5.9607503e-04   5.1288947e-04   1.6012280e-04   1.0611390e-04   4.0116333e-04   1.4981268e-04   2.9954434e-04   4.3084202e-04   2.6236090e-04   1.1075452e-03   6.4115942e-04   3.8051492e-04   2.9558394e-04  -4.3337425e-04   9.9718245e-04   1.0445867e-04   3.2287854e-04   3.6285215e-04   1.7300582e-03   8.1474434e-05
   2.8364238e-04   1.5461931e-04   6.0626928e-04   5.4115290e-04   8.4623805e-04   4.4430877e-04   4.2788396e-04   3.3107775e-04   5.0897319e-03   7.2124437e-04   7.8333524e-04   4.2483467e-04   8.0122193e-04   3.6342049e-04   2.6027803e-04   5.3001620e-04   4.6255696e-04   1.1014756e-04   2.7605638e-04   7.1970711e-04   7.4474738e-05   9.4440373e-05   1.9283997e-04   2.9400305e-04   1.8763390e-03   2.6458921e-04   8.2178471e-05   6.3148217e-04   5.0683884e-04   4.2397375e-04   4.5097416e-04   4.7068598e-04   5.5595516e-04   4.7731104e-05   1.3253231e-03   6.7151943e-04   5.8036210e-04   9.9883892e-04   3.3142537e-04   2.8516291e-04   7.2638242e-04   4.2012736e-04   4.4310075e-04  -6.3542713e-04   9.8334264e-04  -5.0505705e-04   3.8345679e-04   3.3599293e-04   1.8362381e-03   1.9326333e-04
   8.1109127e-04   2.8947124e-04   7.5799413e-04   4.9034413e-04   3.0174557e-04  -8.6510205e-05   1.9990174e-04  -8.4691012e-05   1.6834995e-03   7.9621881e-04   9.1224734e-04   5.0486822e-04   7.9873105e-04   3.7109695e-04   5.3708587e-04   5.5452000e-04   4.6964674e-04   1.0900556e-04  -6.0655794e-04   7.2526047e-04   1.5883698e-04   8.8047927e-05   3.5069798e-04   2.6724153e-04   3.5273642e-04   2.2240121e-04   2.4829627e-04   4.7158281e-04   4.6450924e-04   3.9338478e-04   4.7153392e-04   8.5961708e-04   7.4560003e-04  -1.3493751e-04  -1.5716034e-04   4.4763944e-04   3.5695115e-04   6.8088289e-04   3.3488622e-04   3.8844213e-04   6.5748760e-04   4.1056410e-04   5.3498679e-04   1.4614133e-03   1.0743202e-03  -8.2217768e-04   3.6897248e-04   3.2231567e-04   1.7336492e-03   7.8425335e-05
   3.8205189e-04   3.1054832e-04   6.0048111e-04   5.1653973e-04   4.7784538e-06   2.9229035e-04   3.9250159e-04   3.2512529e-05   4.7268096e-04   7.9370383e-04   9.1335428e-04   4.7854803e-04   7.3649932e-04   2.2421943e-04   3.8113559e-04   5.3758768e-04   3.8966822e-04   1.1164777e-04  -6.2769518e-04   7.4820459e-04   1.5340078e-04   1.1348291e-04   5.8608007e-04   3.1298617e-04   3.7071231e-04   4.3508579e-04   1.5444739e-04   7.2344445e-04   6.2087044e-04   6.6596357e-04   1.0004017e-03   8.6725813e-05   3.9372686e-04   5.3760828e-05   1.7370996e-03   1.2458187e-03   2.0037947e-05   5.0634576e-04   2.8850665e-04   6.9740240e-04   1.7290500e-04   3.7900088e-04   4.9632438e-04   1.3389271e-03   1.0931380e-03  -1.6420023e-04   3.4006551e-04   2.8909399e-04   1.6541462e-03   1.1409997e-05
   2.0349126e-04   2.9995912e-04   3.9509355e-04   3.4858467e-04   4.2738667e-04   9.2890004e-06   3.8688511e-04  -1.1458020e-04   8.1301772e-04   7.8265689e-04   7.0984918e-04   4.8322781e-04   7.4988074e-04   2.9328009e-04   3.0440083e-04   5.2977394e-04   3.3934572e-04   5.1003299e-05  -9.8059699e-04   6.8852463e-04   1.2001804e-04  -4.0335552e-05   4.0892494e-04   2.4827255e-04   1.4559139e-03   2.1279985e-04   4.8094988e-04   1.1830539e-04   6.7864562e-04   5.8816461e-04   1.1252592e-04   3.6153779e-04   7.9132500e-04   9.5827898e-05   9.9552271e-04   1.1382451e-03   1.4047929e-03   5.0388963e-04   3.3004218e-04   1.0808787e-03   5.8287324e-04   3.8260594e-04   5.7781988e-04   3.5235475e-04   1.0227906e-03  -1.1651262e-03   3.1564824e-04   3.3856620e-04   1.7908241e-03  -2.8227056e-05
   2.3640596e-04   2.7293921e-04   6.2035141e-04   5.1850668e-04   4.1404043e-04   1.8177895e-04   6.2009151e-04   3.6742480e-05   1.2959838e-03   8.2282844e-04   7.8875781e-04   4.9592479e-04   8.3646557e-04   4.4725198e-04  -1.5211674e-06   5.7190098e-04   4.3170969e-04   6.1084829e-05   6.8628968e-04   7.6738751e-04   1.6641464e-04   5.1347284e-05   2.7687551e-04   2.8973466e-04   1.7060471e-03   2.4540687e-04   6.2839288e-05   1.7676725e-04   9.7859639e-04   3.9704528e-04  -2.0122755e-04   1.4124659e-03   6.7932036e-04   1.2856399e-04   4.6966592e-04   3.9508892e-04   6.3738582e-04   5.6790432e-04   3.5056469e-04   1.2292464e-03   6.0118071e-04   4.8013756e-04   6.3131686e-04  -2.1421826e-04   1.0910872e-03   8.6268695e-04   5.2449212e-04   3.5665961e-04   1.6303398e-03   1.8821715e-04
   1.7127114e-04   2.9373044e-04   7.2064914e-04   3.8814181e-04   5.8241741e-04   2.6905298e-04   3.1387722e-04   2.6786968e-04   1.2429308e-03   8.0424140e-04   9.5699175e-04   4.6100415e-04   8.6179207e-04   1.7574435e-04   5.2334071e-04   5.6857750e-04   4.8964843e-04   9.3356881e-05   9.2934386e-04   8.5805933e-04   5.8414502e-05  -9.5721123e-07   2.3309256e-04   1.8662067e-04   4.7748335e-04   2.6298521e-04   5.6298327e-04   6.1644439e-04   8.5785746e-04   2.8254598e-04   1.2504935e-03   1.1421308e-03   5.9690455e-04   1.2873752e-04   8.3071631e-05   1.7961400e-04   9.1803762e-05   5.5086572e-04   2.9361868e-04  -8.7627886e-05   4.4410035e-04   5.1915034e-04   5.2051590e-04   1.1736774e-03   1.0079910e-03  -2.1531840e-04   3.9998104e-04   3.2971249e-04   1.6902258e-03   9.3900147e-05
   9.4441156e-04   2.2437774e-04   6.3219079e-04   4.9871049e-04   2.7955437e-04   1.0748099e-04   4.7926654e-04   1.5692202e-04  -1.1906461e-03   7.9208246e-04   7.6153362e-04   4.5321544e-04   8.8407326e-04   3.5856751e-04   4.8300077e-05   5.1288446e-04   5.3545996e-04   2.3204891e-04   1.1741115e-03   7.3617289e-04   6.7267385e-05  -6.3874526e-05   4.1117103e-04   2.3297191e-04   5.1086268e-04   2.4120865e-04   5.2831834e-04   3.5808119e-04   6.0182594e-04   4.8130780e-04   1.3817195e-03   9.4002590e-04   2.5711177e-04   1.6497121e-04   5.4642675e-05   1.8190798e-04   5.5092003e-04   5.5061723e-04   3.3395129e-04   6.4888963e-04   5.6889036e-04   3.3594653e-04   5.2229385e-04   7.0582947e-04   8.7778905e-04   5.5989000e-04   3.5609282e-04   4.0313310e-04   1.8656943e-03   1.6298147e-04
   3.6989001e-04   2.1604729e-04   3.5815116e-04   5.0234771e-04   3.0887206e-04   2.3078370e-04   2.9777459e-04   4.7169207e-05  -8.8445563e-04   7.9014897e-04   7.1168540e-04   4.6473881e-04   7.8331184e-04   3.4648154e-04   4.4336973e-04   6.1201717e-04   5.3547445e-04   6.7689041e-05   5.8612898e-03   7.6719839e-04   6.1947154e-05  -1.1327348e-05   3.2432258e-04   3.0885628e-04   1.0803195e-03   3.4258512e-04   1.7218155e-04   3.7637536e-04   7.3448039e-04   4.0983254e-04  -8.9157904e-05   5.2940904e-04  -1.9301839e-04  -2.0194828e-04  -1.5204252e-03  -9.6076881e-05   1.1403325e-03   6.2889821e-04   2.6279784e-04   6.7133323e-04   5.7678844e-04   4.2811874e-04   5.5020122e-04   1.3774166e-04   1.0071110e-03  -6.7576003e-04   3.9829651e-04   4.0971168e-04   1.9155799e-03   1.3949539e-04
  -9.2372202e-06   2.9880917e-04   5.4322329e-04   6.0141896e-04  -1.7750484e-04  -2.0220297e-04   2.1411903e-04   1.3625355e-04  -8.9462969e-04   8.2671788e-04   7.7036710e-04   4.8677358e-04   8.2683627e-04   3.0732222e-04   1.9072449e-04   5.8386620e-04   4.2313428e-04   2.7767388e-05   3.5400069e-04   8.1052439e-04   7.6594355e-05  -8.4890322e-05   4.7954370e-04   3.1985753e-04   4.2757139e-04   2.8273510e-04   1.7483802e-04   4.4503514e-04   8.3936175e-04   4.3943335e-04   4.4667313e-04   6.6687196e-04   3.5433091e-05   1.2702018e-04   1.3163378e-03   1.0901836e-03   4.6943969e-04   2.7980824e-04   2.8373490e-04   4.3987107e-04   1.7686364e-04   4.1244048e-04   5.0232996e-04   1.4333968e-04   1.0280169e-03   1.6878748e-04   3.4308966e-04   4.1998291e-04   1.8973167e-03   1.6474827e-04
   8.7985146e-04   2.6132859e-04   7.0261117e-04   4.5179349e-04   3.6484087e-04   5.3724478e-05   8.6080481e-04  -1.3088196e-04   1.1059520e-04   7.6623081e-04   8.6972525e-04   4.3322647e-04   7.8576681e-04   3.3783526e-04   3.4927696e-04   5.6727609e-04   5.8771449e-04   2.4205438e-05   2.9952223e-03   8.4414950e-04   8.7755761e-05   1.2089304e-04   2.3189440e-04   1.8257683e-04   7.2979630e-04   3.5148379e-04   1.6607469e-04   9.2657132e-04   7.0877298e-04   4.3891856e-04  -6.0502847e-04   5.6939328e-04   6.4476865e-04  -5.5919481e-06  -2.6039203e-04  -4.2855207e-04   4.1043462e-04   6.3040137e-04   3.0439542e-04   3.2776815e-04   2.6776327e-04   3.4502437e-04   4.8589765e-04   1.3580726e-03   9.8764105e-04   1.1443347e-03   3.0554330e-04   3.3720626e-04   1.7319013e-03   1.8180867e-04
  -5.0651615e-05   2.4988380e-04   5.1223242e-04   4.0273779e-04   2.4404096e-04  -3.8517959e-05   4.4715230e-04  -1.3890384e-04   3.7517557e-03   7.0544274e-04   8.2338857e-04   4.2180903e-04   7.5953861e-04   2.4631433e-04   1.1373421e-05   6.0136971e-04   4.8531214e-04   6.4546410e-05  -1.0957513e-03   7.6951523e-04   8.4004147e-05   1.0020102e-04   4.0766873e-04   2.6679007e-04   5.7921035e-04   1.3217129e-04   1.9916249e-04   1.5591475e-05   5.0060870e-04   3.5118306e-04   1.3746062e-03   4.0787985e-04   2.4010052e-04  -1.1135919e-04   8.1309275e-04   2.3164590e-04   1.0668504e-03   7.9126470e-04   3.2537949e-04   1.6225283e-03   4.6596807e-04   3.0566606e-04   3.5343828e-04   1.0126446e-04   1.0220772e-03  -6.3220918e-04   2.8587089e-04   3.4966265e-04   1.6854784e-03   2.0132578e-04
   7.8492501e-04   2.7220658e-04   4.8170728e-04   5.8748102e-04  -4.4757646e-04   3.4223023e-04   6.3630647e-04   2.7063579e-04  -1.4717376e-04   7.3700922e-04   8.2113279e-04   3.8459370e-04   7.1668113e-04   3.8493722e-04   9.8670593e-05   5.5083464e-04   5.4835639e-04   6.0097584e-05   3.8961314e-03   9.0566516e-04   1.3522504e-04   9.9749850e-05   5.3091365e-04   1.3401633e-04   9.6193131e-04   3.2303281e-04   1.1825145e-04   3.3113934e-04   9.2019222e-04   3.4965342e-04   5.0029700e-04   7.7889865e-04   7.3790690e-04   2.5138224e-05   1.6721935e-03   2.5258534e-05   1.6702682e-04   8.4944378e-04   3.2535472e-04   1.4750271e-03   2.4452305e-04   3.7173778e-04   4.7385393e-04   7.4984688e-05   1.0740123e-03   1.2938119e-03   3.0512063e-04   4.0839781e-04   1.8144287e-03   2.3821680e-04
  -4.9515715e-05   2.2018797e-04   5.4774078e-04   4.3245332e-04   3.2665726e-04  -2.1037353e-04   5.8269396e-04   5.1730200e-05  -3.7414085e-03   7.7087624e-04   8.9966564e-04   4.2137603e-04   8.7337248e-04   1.7286146e-04   2.0084955e-04   4.8026274e-04   5.4729229e-04   1.4296603e-04   5.7001133e-03   9.2058699e-04   7.5804688e-05   7.4274008e-06   6.2303437e-04   1.8994731e-04   4.0146898e-04   3.1775577e-04   7.2706345e-04   2.7830119e-04   6.4543041e-04   2.9158191e-04   1.1919725e-03   1.1045052e-03   3.5916449e-04   8.2519095e-05   8.2427869e-04  -2.8246355e-05   7.6049683e-04   8.5663912e-04   3.9729380e-04   4.4352641e-05   1.6907521e-04   3.8466914e-04   5.3902616e-04   3.9339645e-04   9.8054204e-04  -6.1250641e-04   3.1684944e-04   3.4511866e-04   2.0227500e-03   2.6881744e-04
   4.8622146e-04   2.3170182e-04   3.8443677e-04   5.2318099e-04   2.9557759e-05   3.2016699e-04   2.1770346e-04   8.8603563e-05  -2.0497295e-03   7.4788579e-04   9.3141646e-04   4.0422031e-04   7.0601550e-04   2.4823615e-04   3.4972429e-04   5.7772431e-04   6.5059564e-04   1.0244372e-04  -1.7240101e-05   8.7340880e-04   2.7872198e-05  -1.4885279e-04   9.5936135e-05   2.9419875e-04   7.6205540e-04   9.2239869e-05   4.6310142e-06   4.2221360e-04   6.9883722e-04   3.7666070e-04  -5.3290074e-07   1.3160089e-03   2.5545424e-04   1.2050848e-04  -8.2763104e-04   1.3398231e-04   6.0191209e-04   7.4027135e-04   3.7311419e-04   8.3213265e-04   3.4372709e-04   3.7555731e-04   5.2182848e-04   1.2487228e-03   8.9196255e-04  -2.0357425e-06   3.1450449e-04   3.6747401e-04   1.7125475e-03   1.8089126e-04
   7.6793949e-05   2.1849110e-04   5.5305636e-04   4.7888761e-04  -4.0190719e-04   3.1078621e-04   6.5225211e-04   7.8084522e-05   1.8546698e-03   8.6890376e-04   9.4582135e-04   4.6658193e-04   7.4835931e-04   3.0817420e-04   3.9797847e-04   5.7367497e-04   5.4444838e-04   1.5028140e-04  -1.6338863e-04   8.3224720e-04   7.2985677e-05  -1.6921338e-05   2.8236487e-04   3.5937098e-04   3.3180715e-04   1.5206481e-04   1.5032711e-04   5.6407106e-04   9.3744305e-04   2.5862592e-04  -3.3788345e-04   9.6008397e-04   1.0652409e-03  -1.5876003e-04   1.6266436e-03   2.1458948e-04   2.7567762e-04   5.7033898e-04   2.8357087e-04   8.2198926e-04   4.7782800e-04   3.7952530e-04   4.1976199e-04  -3.9350116e-04   8.9318509e-04   6.7569071e-04   3.1610762e-04   3.7468862e-04   1.6085715e-03   1.8992697e-04
   6.2956789e-04   2.0105824e-04   7.2707143e-04   4.9421034e-04   5.6521163e-05   3.0000511e-04   7.5502816e-04  -2.4205925e-04   1.3664323e-03   8.1084756e-04   7.4040622e-04   4.4224635e-04   7.4402435e-04   2.0848279e-04   2.0529666e-04   5.0785090e-04   5.5532053e-04   6.7391040e-05  -2.4335473e-03   8.3209720e-04   7.5775672e-05  -3.3097473e-05   3.6188203e-04   2.9716728e-04   2.2921730e-03   9.9041848e-05   4.0018672e-04   5.6963624e-04   4.1793589e-04   4.4077527e-04   8.4123464e-04   1.1378811e-03   6.5322127e-04  -5.8891288e-05   9.7025838e-04  -6.1118080e-05   1.1667100e-03   8.6863124e-04   4.0544648e-04   3.5086577e-04   3.1724360e-04   3.7298049e-04   5.1637553e-04   1.5396919e-03   9.5132436e-04  -1.0352252e-03   3.4274999e-04   3.9297563e-04   1.5151490e-03   2.1367014e-04
   7.4495125e-05   2.3308487e-04   6.1014068e-04   3.7374190e-04  -2.7007519e-04   4.7400239e-04   5.6997628e-04   1.4823671e-04   6.4362702e-04   7.5670291e-04   7.4159238e-04   4.4146730e-04   7.9576659e-04   2.8816730e-04   1.9903542e-04   5.9833663e-04   5.9198315e-04   1.4255499e-04   3.7574931e-04   8.2145346e-04   1.0708887e-06  -1.1012994e-04   1.8831941e-04   2.4224199e-04   6.3850608e-04   1.5998869e-04   3.4102198e-04   3.5531583e-04   7.9535297e-04   5.0679874e-04  -6.8849688e-05   1.1023324e-03   9.1356982e-04  -1.3844299e-04   5.8412913e-04   5.4716080e-04   7.7253615e-04   9.6268818e-04   3.1956215e-04   1.6555360e-03   5.3552567e-04   2.7982291e-04   3.7094593e-04   2.4964142e-05   9.4015623e-04   1.1372804e-03   3.9199655e-04   3.6166949e-04   1.6986505e-03   1.0622169e-04
   3.0357335e-04   2.4134165e-04   6.3260150e-04   4.1463261e-04   1.0469177e-04   3.9576797e-04   4.1216784e-04  -2.0296285e-04   1.8994300e-05   7.9988176e-04   8.0475962e-04   4.6119161e-04   8.6387858e-04   3.3678146e-04   2.4745610e-05   4.7508103e-04   6.5360538e-04   1.9415272e-04   1.1877223e-04   7.8703929e-04   9.2041926e-05   9.7643465e-07   3.5664561e-04   4.1743624e-04   1.2133480e-03   2.3187840e-04   1.7796703e-04   4.7544207e-04   9.9119172e-04   4.9019809e-04  -1.3929725e-04   8.0500037e-04   5.6775264e-04   2.0061154e-04  -3.0271718e-04  -3.4876916e-04   9.0911397e-04   8.2037825e-04   2.9402264e-04   1.4370682e-03   4.4291114e-04   3.5571505e-04   3.5463602e-04  -2.3589192e-04   9.7719848e-04  -4.9881794e-05   4.0070585e-04   3.3360522e-04   1.8423290e-03   1.6364730e-04
   7.8862249e-05   2.0906569e-04   5.8837992e-04   4.1554551e-04   2.6390023e-04  -8.8321758e-05   2.5209042e-04   5.4314980e-05  -3.6466767e-03   7.8971905e-04   7.9393928e-04   4.8087281e-04   9.0907089e-04   3.0424265e-04   3.1621358e-04   6.2515168e-04   4.0665819e-04   1.8474847e-04  -8.2679298e-06   8.3428930e-04   8.2305858e-05   5.3215950e-05   3.9884450e-05   3.0041180e-04   2.0346326e-04   2.8106305e-04   7.4310679e-05   2.9755878e-04   7.5234880e-04   4.6038520e-04  -7.3636358e-04   1.1142725e-03   7.0961687e-04   5.9899921e-05   2.2701123e-03  -1.6091288e-04   8.2813395e-04   6.5818860e-04   2.8633545e-04   1.5933772e-03   5.0300866e-04   4.0591907e-04   2.5474522e-04  -2.5761363e-04   9.4096654e-04  -5.1270046e-05   3.8788185e-04   3.9650218e-04   1.7337238e-03   1.5504629e-04
   4.2572536e-04   2.0531376e-04   5.1741215e-04   5.8433216e-04  -3.4786589e-04   2.5065252e-04   1.9390287e-04   2.8444163e-05  -1.4041708e-03   7.6542929e-04   8.7677455e-04   4.9169728e-04   8.2475593e-04   3.3395804e-04   9.8181205e-05   5.2703964e-04   5.3093949e-04   8.6199972e-05  -2.1269155e-04   7.6292257e-04   3.1693002e-05  -4.6870144e-05   3.0262818e-04   3.1502842e-04   1.0666905e-03   1.7288423e-04   2.9867762e-04   2.5085962e-04   8.4639614e-04   3.9826168e-04   2.8667707e-04   9.9745137e-04   5.0752092e-04  -6.6932087e-05   5.2596082e-04   1.0976332e-03   4.5263176e-04   5.6231848e-04   4.0064441e-04   3.2247999e-04   5.0754199e-04   3.7684484e-04   6.8525865e-04  -5.0377956e-05   1.0293416e-03   7.2152162e-04   4.7090120e-04   4.4164542e-04   1.6467723e-03   2.5309672e-04
   5.8005127e-04   2.3005941e-04   5.5863801e-04   5.8227091e-04   6.6288450e-04  -1.2392743e-04   7.1060244e-04   1.4183352e-04   1.9046417e-03   7.9132145e-04   7.8548852e-04   4.4114573e-04   7.9182064e-04   2.1562735e-04   2.5424443e-04   5.3092116e-04   5.2113429e-04   1.7404670e-04   7.7392318e-04   7.5033004e-04   7.7734170e-05  -8.1495593e-05  -1.8528069e-06   3.0654471e-04  -2.8155203e-04   2.5565815e-04   9.9063989e-05   4.8632399e-04   2.3187719e-04   4.4114236e-04   6.0706760e-04   1.0940260e-03  -9.6853437e-06  -8.1979313e-05   1.2657481e-03   7.6425652e-04   1.0398387e-03   6.2424113e-04   2.9716690e-04   7.8641949e-04   7.8446802e-04   2.9398274e-04   5.1284203e-04   1.5475919e-03   9.9970156e-04   1.9688271e-03   4.0842654e-04   3.6812550e-04   1.5639538e-03   2.0785759e-04
   2.6672907e-04   1.8686002e-04   4.6799853e-04   5.8792409e-04   4.4734651e-04   8.1913349e-05   1.8727565e-04   3.6426575e-04   1.6389829e-03   7.8162865e-04   7.4201816e-04   4.4087769e-04   7.7871338e-04   3.8209499e-04   2.0464133e-04   5.6337594e-04   4.6811462e-04   9.3333132e-05   3.6509505e-03   6.8472791e-04   8.5759435e-05  -4.9924987e-05   1.8552675e-04   2.1780845e-04  -2.6632784e-04   3.9811141e-04   2.2194842e-04   2.9550656e-04   4.1695350e-04   4.5032898e-04  -1.5675450e-03   8.5981539e-04   2.9164882e-04  -1.7053784e-04  -9.4874989e-04   9.8137336e-04   4.7716999e-04   5.8345549e-04   2.6065594e-04   9.9184655e-04   4.0479071e-04   1.9497488e-04   3.7309335e-04   9.0924808e-04   9.0970361e-04  -2.6539975e-04   3.7367397e-04   3.7667301e-04   1.7233348e-03   2.9979530e-04
   3.0679620e-04   2.9262574e-04   6.5377663e-04   6.9597189e-04  -3.8496804e-04   2.0816849e-04   5.0860737e-04   1.3349904e-04  -4.1204498e-06   7.6806650e-04   8.2501071e-04   8.3505511e-05   6.5872777e-04   3.4913243e-04   4.1726371e-04   5.2654237e-04   4.6793223e-04   1.3616824e-04   3.9017992e-03   7.5496966e-04   1.0072722e-04  -1.4224893e-04   5.0110515e-04  -2.5782094e-04   9.6536649e-04   7.6200697e-05   1.4088444e-04   2.1267129e-05   4.1790711e-04   5.4087164e-04   1.3182643e-04   1.6288592e-04   4.6400045e-04  -1.1583537e-04   2.2367397e-03   1.4632808e-03   5.5630619e-05   3.7952696e-04   3.4347360e-04   8.7620597e-04   4.6511623e-04   9.3028968e-05   4.3819673e-04  -1.4023166e-03   9.6939370e-04  -1.4411459e-04   2.2128824e-04   3.6888319e-04   1.7094807e-03   1.4284122e-04
   6.8254158e-04   2.5925331e-04   4.2899317e-04   4.4875705e-04  -5.7729590e-04   3.0403890e-04   4.0192655e-04   2.7634644e-05  -3.1393365e-04   5.3758005e-04   8.1216649e-04  -3.7526948e-04   8.9280849e-04   4.1028947e-04   5.0061475e-04   5.7955721e-04   5.3109939e-04   1.6693660e-04   3.3247159e-04   7.8456994e-04  -8.4970474e-05  -2.7955786e-04   5.2969082e-04  -8.1992149e-04   1.5739560e-04   3.2738837e-05   2.5901364e-04   7.1389286e-04   5.2346120e-04   4.6469754e-04   1.3208783e-03   5.0504762e-04   7.3623989e-04  -1.3908364e-04   8.1104011e-04   1.5385064e-03   1.0802016e-03   8.3679520e-04   2.9210691e-04   6.5026729e-04   4.2933889e-04  -8.1738566e-05   5.3594442e-04   7.6462014e-04   1.0947181e-03  -6.5650028e-04   9.8495388e-05   3.8213588e-04   1.5933376e-03   9.3185168e-05
   5.1648688e-04   3.0092892e-04   7.6322583e-04   3.1501357e-04   2.1245400e-04   2.0671872e-04   4.1004753e-04   1.0916524e-04  -1.2614528e-03  -6.8838540e-06   9.1620377e-04  -7.7226135e-04   8.0321339e-04   4.4825705e-04   5.5463129e-04   6.2439678e-04   5.4313953e-04   6.0522794e-05   3.2062212e-03   9.2271517e-04  -6.0029904e-04  -7.0084684e-04   5.2122341e-04  -1.3681562e-03   6.3905230e-04  -2.7801096e-04   1.9947132e-04   3.1199204e-04   7.3541858e-04   5.1608216e-04   1.8982759e-03   1.6885542e-03   5.1925087e-04  -1.1171605e-04  -2.0568878e-04   1.2186191e-03   4.5890239e-04   4.3368561e-04   3.4425675e-04   2.2545614e-04   4.7036065e-05  -2.7054173e-04   5.3666718e-04  -5.3462229e-04   9.3540293e-04   6.2411581e-04  -4.9463084e-05   3.3462865e-04   1.3866484e-03  -5.8992297e-05
   1.0082321e-03   2.6951786e-04   5.1189808e-04   4.2612606e-04  -2.7151301e-04  -1.0170019e-04   4.1967076e-05   5.2601198e-04   2.2713616e-03   2.0525900e-05   1.0328247e-03  -9.8180969e-04   9.2986645e-04   3.1304584e-04   1.7651230e-04   5.8886508e-04   4.7739089e-04   1.4587338e-04   5.3157867e-04   1.1085138e-03  -8.0309086e-04  -7.8738824e-04   7.5349334e-04  -1.4262663e-03   1.8733366e-03  -2.1514588e-04   4.3714386e-05   9.6281932e-04   6.6330069e-04   5.2866054e-04  -1.0343916e-03   3.9850984e-04   5.7146023e-04  -5.1142244e-05   3.7791211e-05   7.4128609e-04   1.2024138e-03   8.2892313e-04   3.3031194e-04   7.7268860e-04   1.2079255e-04  -2.6448516e-04   4.4671691e-04   2.8520465e-04   1.0091433e-03  -1.8770662e-04   1.0906825e-05   3.5639695e-04   1.6333017e-03  -3.4751098e-05
   8.0604345e-04   3.9782448e-04   3.8016285e-04   6.5524341e-04   9.8603094e-05   4.5166226e-04   4.6971953e-04   1.0245756e-04   3.3740615e-04   1.2142482e-04   1.0822214e-03  -1.0064773e-03   8.1142911e-04   4.5341367e-04   5.0521165e-04   5.9874932e-04   5.1288446e-04   3.1727433e-04   5.5933360e-04   1.0317606e-03  -6.6654751e-04  -4.5472418e-04   9.0280536e-04  -1.2176854e-03   2.2805575e-03  -3.3642395e-04   7.9995509e-05   3.3419245e-04   6.2202133e-04   3.1870179e-04   1.3724645e-03   8.0147712e-04   1.7774419e-04   2.4323146e-04   1.6977786e-03   4.0737176e-04   6.5952586e-04   5.3303625e-04   3.4689938e-04   7.0414413e-04   4.0553996e-04  -1.6846074e-04   3.8219540e-04  -6.3897186e-04   9.0958801e-04  -5.8935554e-04   1.6885217e-05   3.6779823e-04   1.7171155e-03  -9.3342926e-05
   8.2056585e-04   2.8907787e-04   7.3080178e-04   4.1896809e-04   2.1199243e-04   2.2988526e-04   2.8325341e-04   2.8563471e-04   1.9452341e-03   4.7833184e-04   8.7184884e-04  -5.3567905e-04   8.5781474e-04   5.0777674e-04   5.8396440e-04   5.2341574e-04   5.8846967e-04   6.4066284e-05   4.4907847e-05   7.4563239e-04  -4.3674951e-04  -4.6370435e-05   6.8602798e-04  -9.7473920e-04   1.4405636e-03   5.1287836e-05   1.1599754e-04   2.1912623e-04   7.5021159e-04   6.2004442e-04  -2.2345473e-04   4.1870354e-04   8.7201130e-04   1.0948282e-04   7.2949770e-04   3.1760990e-04   5.7220017e-04   7.5332075e-04   3.1584754e-04   1.1998115e-03   2.0408524e-04  -7.2939576e-05   4.8626403e-04  -1.1866939e-04   9.8530285e-04  -3.8993636e-05   3.4279958e-05   3.6172665e-04   1.6065277e-03  -1.3008240e-05
   1.4294771e-04   3.9989289e-04   6.3204439e-04   5.7836075e-04  -4.7526639e-05   4.0276250e-04   1.7853802e-04   1.0788434e-04  -1.6410586e-03   7.0046954e-04   9.5119979e-04  -2.9099532e-04   7.9376681e-04   4.1181478e-04   3.9321132e-04   6.7132269e-04   5.7252008e-04   3.4635043e-04   2.7018270e-04   8.8805606e-04  -1.9949359e-04   1.4199650e-04   7.6994492e-04  -7.2918960e-04  -4.4567694e-04   3.2564171e-04  -7.9481388e-06   3.7733713e-04   6.8525103e-04   5.7882874e-04   6.8309135e-04   1.3823136e-03   6.5326178e-04  -5.3881093e-05   8.4104488e-04   4.0215981e-04   6.8290287e-04   5.7858549e-04   4.4070167e-04   8.1004371e-04   3.2437342e-04  -4.1489944e-05   5.0689769e-04   3.6406954e-04   9.9410419e-04  -7.2127033e-04   3.8891951e-05   2.9498051e-04   1.5178958e-03  -2.8288105e-05
   6.0059334e-04   4.1544158e-04   3.8948134e-04   5.9901370e-04  -2.1925817e-04   4.8040407e-04   5.3057569e-04   2.2472137e-04   2.1200953e-03   7.7507173e-04   8.9617487e-04   1.7664928e-05   8.7303243e-04   5.6931149e-04   5.3339527e-04   5.7374890e-04   5.3115922e-04   2.7282807e-04   1.5946431e-03   8.2682265e-04  -1.7568638e-04   1.6782818e-04   5.5860874e-04  -7.3354802e-04   8.1703498e-04   3.2338631e-04   2.2036007e-04   5.0232629e-05   8.6680107e-04   4.3679032e-04  -1.2346348e-04   1.5557690e-03   8.0756797e-04  -2.5015962e-04  -6.4840750e-04   3.5280825e-04   6.0259149e-04   6.4521778e-04   3.8278737e-04   3.8839498e-04   2.0164442e-05   1.1111955e-05   4.8452523e-04   2.6292112e-04   9.1761292e-04   3.2249271e-04   1.3364716e-05   2.7445634e-04   1.7252706e-03  -8.5611820e-05
   7.7259517e-04   4.1892909e-04   6.9746841e-04   6.5062341e-04  -7.3611234e-05   5.9578440e-04  -1.0572608e-04   1.9595066e-04   4.9216958e-04   7.9975347e-04   9.1723586e-04   2.1922034e-04   8.3749834e-04   4.6568247e-04   4.4326196e-04   6.4693170e-04   6.7868637e-04   3.0011983e-04  -3.0369139e-03   9.1327261e-04  -9.1450565e-05   2.7177299e-04   9.0459181e-04  -4.5581689e-04   1.2416559e-03   2.7205871e-04   5.8221439e-04   1.1842105e-03   1.0343692e-03   5.1471364e-04   1.3210819e-04   4.2107757e-04   8.4922893e-04   7.6362245e-05   9.7421312e-04   3.4348501e-04  -3.5321453e-04   8.5005234e-04   3.8599281e-04   9.1777614e-04   4.4098624e-04   4.8155667e-05   3.7334522e-04   2.0041007e-03   1.0392873e-03   1.3667665e-04   6.7106252e-05   2.8298286e-04   1.5787466e-03  -3.1584481e-05
   6.0962071e-04   4.4765661e-04   8.0065511e-04   6.8991818e-04   5.5110228e-05   6.7937147e-04   4.7967053e-04   5.5954210e-04  -1.5835679e-04   8.3528383e-04   9.1464171e-04   2.9489558e-04   8.8524789e-04   6.3382386e-04   3.3917898e-04   5.8216194e-04   5.5113860e-04   2.3815638e-04  -1.9369333e-03   8.2613359e-04  -6.8731737e-05   2.5309666e-04   4.0767496e-04  -3.1653335e-04   1.6949068e-04   2.6315340e-04   1.8368386e-04   6.7392708e-04   3.4873534e-04   4.4585529e-04   1.9357289e-03   1.3601645e-03   6.7097659e-04   8.3161125e-05  -5.5217624e-05   9.3533314e-04   1.0141503e-03   6.7584065e-04   4.7398562e-04   9.8839903e-04   2.7099706e-04   5.4861204e-05   3.7434069e-04   9.3600299e-04   1.0220315e-03   1.6937037e-04   3.0199501e-05   3.2615924e-04   1.6985490e-03  -3.8715876e-05
   5.0994946e-04   4.4855638e-04   7.3964638e-04   7.0970028e-04  -1.2390664e-05   6.2496477e-04   5.0735584e-04  -3.5417608e-05  -3.3635899e-04   7.9580274e-04   8.8276761e-04   3.0381803e-04   8.0389361e-04   5.7765760e-04   7.7967736e-04   6.6427613e-04   6.5130962e-04   2.1596084e-04   7.6385587e-04   8.4292208e-04  -7.4169664e-05   2.9160478e-04   6.7592133e-04  -3.8668537e-04   2.7582605e-04   3.0248781e-04   2.0664983e-04   5.6922768e-04   6.9276604e-04   5.3658173e-04   1.2885793e-03   1.8704380e-03   7.1555987e-04   5.3935968e-05   2.3433345e-03   9.1653422e-04   3.1436875e-04   6.2981900e-04   3.9877702e-04   9.7107817e-04   3.3713304e-04   1.3202180e-06   2.9968223e-04  -2.8853927e-05   9.6121809e-04  -1.0085318e-03   1.4863948e-05   3.3728144e-04   1.6771513e-03  -3.5264155e-05
   6.2090700e-04   4.2123493e-04   7.9684868e-04   5.6570803e-04   4.4040407e-05   1.9060756e-04   6.0849782e-04   3.3046873e-04  -2.4245984e-03   8.2652085e-04   8.8391185e-04   3.0815302e-04   7.9718075e-04   4.2313227e-04   5.6742562e-04   6.0302339e-04   6.9322839e-04   1.9480976e-04   3.4309647e-04   9.6663454e-04  -1.2605379e-05   3.2281442e-04   9.1051107e-04  -1.7716236e-04   5.5949407e-04   2.8329337e-04   3.6142283e-04   6.8308070e-04   5.5247429e-04   2.5000831e-04  -1.1215582e-03   2.3515031e-03   8.4332546e-04   3.1852280e-04   1.3947213e-03   9.7173802e-04   1.5840109e-03   4.3675702e-04   3.7132064e-04   7.3486386e-04   2.7986497e-04   7.8737226e-05   4.0153830e-04   1.3055922e-03   9.2905160e-04  -4.2310124e-04   5.6360328e-05   2.9602583e-04   1.5422727e-03  -6.2133484e-05
   8.6550304e-04   3.7574299e-04   7.3067442e-04   5.9785706e-04   7.8337522e-05   6.9937034e-04   9.0783444e-04   1.9871550e-04   1.2535804e-03   7.8540348e-04   9.0855849e-04   3.1631329e-04   7.7429385e-04   4.1262357e-04   8.3386991e-04   5.1538082e-04   5.7763292e-04   7.2958181e-05   5.1851443e-04   9.2470594e-04  -4.4056105e-05   2.2590481e-04   4.8110631e-04  -7.7300916e-05   1.1917991e-03   2.3779637e-04   2.5215471e-04   1.4522011e-04   1.2786660e-04   4.1021529e-04   2.2285602e-03   4.3716977e-04   3.7687217e-04  -7.2471248e-06   1.2118334e-03  -3.4104762e-04   6.0533948e-04   6.4207631e-04   4.6443622e-04   3.5474164e-04   3.1974970e-04   9.7848249e-05   4.3192739e-04   1.4446115e-03   7.7727088e-04   2.7953333e-04   5.0801278e-05   3.0689529e-04   1.2953569e-03   1.3530725e-06
   7.0091098e-04   3.6180145e-04   1.2445655e-04   5.8000966e-04   1.6608823e-04  -1.5179635e-04   2.4269876e-04  -2.7239187e-06   3.3042552e-03   7.4266520e-04   9.4818289e-04   3.2442008e-04   9.0637407e-04   3.4997991e-04   3.7619041e-04   6.1074703e-04   6.8386004e-04   1.6307682e-04  -1.2722313e-04   8.7457622e-04  -8.1338738e-05   1.9139569e-04   4.9053971e-04  -3.1728283e-05   4.0277091e-04   4.2010040e-04  -6.0875092e-05   8.8591076e-04   5.7065760e-04   4.1004742e-04   3.4869139e-04   1.2092731e-03   7.3824998e-04   4.8192665e-05   1.5482462e-03   4.1280541e-04   1.1144957e-03   5.9855642e-04   3.4169611e-04   2.8903587e-04   6.6862005e-04   7.9880447e-05   3.7798818e-04   4.2071441e-04   1.0239286e-03  -1.0190120e-03   7.7189397e-05   3.1938739e-04   1.5546309e-03   5.8235768e-05
   6.7814527e-04   3.8745909e-04   5.7548733e-04   4.7457585e-04   5.5703585e-04   3.8817583e-04   6.1531190e-04   1.8002851e-04   2.3159077e-03   8.0182281e-04   7.8394864e-04   3.7165172e-04   7.9403515e-04   3.6060665e-04   4.1454245e-04   5.7487009e-04   4.9858226e-04   1.7164214e-04  -1.5420051e-03   9.2742272e-04   1.4738279e-05   1.6991240e-04   3.8495008e-04  -8.7530439e-05   5.7001360e-04   3.0507974e-04   1.2675209e-04   4.4376275e-04   1.1836402e-03   4.5097087e-04  -1.0554467e-03   8.0983102e-04   8.9851784e-04   4.1910182e-04   1.7766005e-03   3.9789898e-04   6.7861757e-04   1.0279978e-03   2.5128911e-04   8.6520764e-04   5.3892370e-05   6.2792300e-05   4.3449283e-04   1.5187989e-03   1.0604180e-03  -5.8812537e-04   8.8696448e-05   3.5433337e-04   1.7096668e-03   1.8982366e-05
   1.2219090e-04   4.1536620e-04   7.4417872e-04   4.8942288e-04   4.5792820e-04   4.9701682e-04   3.9652819e-05   3.8803229e-04  -6.3129723e-05   7.7447563e-04   1.0208420e-03   3.8123826e-04   8.5620215e-04   4.8913097e-04   1.9568209e-04   5.7972060e-04   6.3600653e-04   2.2836152e-04   3.6919632e-03   8.1283471e-04   2.6168062e-05   1.5053862e-04   5.6722970e-04  -1.3607460e-04   3.7291291e-04   2.5253557e-04   3.5716096e-04   6.1675126e-04   8.6119777e-04   4.2507681e-04  -8.0455298e-04   1.2178657e-03   5.3489237e-04  -1.7092163e-04   2.5511268e-04   4.7092055e-04   4.5652722e-04   8.4172975e-04   3.7822034e-04   3.5408488e-04   5.9610652e-04   1.0366696e-04   4.1034346e-04   1.5209264e-03   9.4507367e-04  -6.3432474e-04   5.6220440e-05   3.7044086e-04   1.6669523e-03   6.1849940e-05
   5.0131005e-04   3.6073162e-04   6.3586171e-04   6.1816000e-04   3.3083378e-04   1.4709899e-05   4.1067738e-05  -3.0703846e-05  -2.0364274e-03   7.3799019e-04   8.5382460e-04   3.5994692e-04   9.5206394e-04   3.5065933e-04   5.3893885e-04   5.5270822e-04   5.2224280e-04   2.2959938e-04  -1.9294945e-04   7.6642627e-04  -1.9190809e-05   1.5559187e-04   5.1964470e-04   2.0986072e-05   1.9714479e-04   4.9663498e-04   2.9557708e-04   4.2139570e-04   4.4719497e-04   3.2169506e-04  -9.3314052e-04   1.2728461e-03   3.7714129e-04  -1.1118334e-05   6.6799019e-04   9.4285433e-04   2.1476661e-04   3.6322945e-04   3.3901812e-04   4.8069577e-04   6.3468743e-04   4.2675179e-05   3.2343666e-04   8.8993118e-05   9.3846489e-04  -2.7690687e-05   4.3289929e-06   2.9726294e-04   1.3965305e-03  -2.2733275e-05
   6.9484272e-04   3.6342954e-04   5.4383476e-04   5.8358215e-04   5.5261608e-04   4.9232407e-05   5.7064905e-04   1.2881745e-04   8.1931161e-05   7.6612330e-04   8.1315730e-04   3.6486887e-04   7.9363142e-04   4.2320997e-04   1.0635677e-04   5.1566091e-04   5.7414739e-04   2.1189489e-04   1.1755101e-03   7.8580383e-04   1.7668990e-05   1.4708193e-04   5.2708195e-04   2.9239489e-05   4.2046807e-04   4.3509170e-04   2.5945413e-04   2.6887760e-04   5.5964378e-04   5.0698471e-04  -4.2513703e-04   1.0226754e-03   4.6631336e-04   1.5260361e-04  -8.0745027e-05   1.3140999e-03   7.8002090e-04   1.1273074e-03   3.3143198e-04   8.9354656e-04   5.4889813e-04   5.6580873e-05   3.6158229e-04   1.2928516e-03   1.0578389e-03   2.4008549e-04   3.6022193e-05   2.8016762e-04   1.6601140e-03   7.3145820e-05
   5.4471201e-04   4.8855116e-04   6.1500107e-04   6.7112804e-04   1.1874895e-04  -1.2057464e-04   2.6961433e-04   2.5500660e-04   7.6074613e-04   7.6169032e-04   9.7045809e-04   1.2733517e-04   9.0850674e-04   5.1776925e-04   3.3385481e-04   6.3473411e-04   5.7359767e-04   3.0393008e-04   1.1161517e-03   8.3635811e-04   5.8177193e-05   1.5761868e-04   8.1455632e-04  -3.4956637e-04   6.7887985e-04   2.8531573e-04   1.9765366e-04   4.2171709e-04   5.4357521e-04   3.3697509e-04  -2.0408830e-04   9.3359035e-04   7.5372338e-04  -8.0251251e-05   1.1851945e-03   1.1872681e-03   1.5828182e-03   6.9383910e-04   3.3972514e-04   6.7123724e-04   3.3784431e-04   3.1870262e-05   6.2717812e-04   6.4521935e-04   9.7847532e-04   3.3562595e-04  -4.4370114e-05   3.1199917e-04   1.6351125e-03   2.4472993e-05
   1.8685439e-04   4.2662112e-04   4.2611369e-04   6.4806925e-04   4.3973062e-04   2.3533752e-04   4.7500018e-04   9.8284712e-05   2.1223803e-03   7.7020016e-04   8.4601482e-04   7.7599521e-05   8.9762500e-04   4.2785588e-04   3.6420880e-04   5.7354860e-04   5.4943585e-04   3.3370341e-04   3.9855884e-03   7.9777458e-04   1.7222563e-05   1.0090784e-04   5.9900776e-04  -3.8674660e-04   1.3169792e-03   2.3072840e-04   3.6996850e-04   8.3730667e-04   9.3150284e-04   4.6890840e-04  -3.9920362e-04   1.0386759e-03   1.1666183e-03  -9.0585047e-05   1.0167379e-03   9.5992153e-05   1.4043375e-03   3.7372418e-04   3.8084679e-04   2.9502998e-04   4.2338803e-04  -1.9587858e-05   4.3500290e-04   6.6281069e-04   1.1692238e-03  -6.5456110e-04  -8.5782020e-05   2.9055375e-04   1.4451537e-03  -1.0334847e-05
   1.3594249e-03   4.0274978e-04   1.0124199e-03   6.4205512e-04  -9.9403296e-05   2.5069734e-04   1.1555320e-04  -1.3060471e-04  -1.9362584e-03   7.2839326e-04   9.3466707e-04   1.5774307e-04   8.2305074e-04   4.6125936e-04   4.1874754e-04   6.0567720e-04   5.6655984e-04   1.8508402e-04  -4.7425707e-04   7.3937984e-04  -2.1026844e-05   7.5385418e-05   5.6972756e-04  -2.7739507e-04   9.3449256e-04   3.1136163e-04   3.6435499e-04   4.4756694e-04   8.1323000e-04   4.2688081e-04  -8.4528176e-04   1.2568756e-03   9.2379434e-04   2.3695639e-04   3.1856046e-04   1.3499092e-03   8.2380109e-04   5.9693761e-04   4.2267289e-04   9.1078185e-04   3.5544176e-04   1.4091707e-05   3.2880364e-04   1.7059540e-03   1.0369278e-03  -2.5810197e-04  -7.5169963e-05   3.2984262e-04   1.4380066e-03  -1.3992777e-04
   8.4954203e-04   3.8651624e-04   4.8381227e-04   6.1617675e-04  -1.1114560e-04   2.1827598e-04   3.6106518e-04   6.9787056e-05  -2.4601915e-03   7.7801192e-04   9.2958607e-04   2.5679666e-04   8.1832847e-04   5.2095717e-04   6.5194536e-04   5.3349155e-04   6.2603981e-04   2.5315967e-04   5.2843959e-04   8.7819481e-04   6.6262990e-05   2.4187568e-04   9.9863531e-04  -6.7357243e-05   1.0340852e-03   3.1278114e-04   2.5067574e-04   7.0540037e-04   6.3846365e-04   4.7886698e-04   8.9963444e-04   8.6553587e-04   7.0626481e-04  -1.1259702e-04  -1.4754654e-05   1.2325778e-03   2.2865222e-03   8.1842236e-04   3.0567590e-04   1.3639348e-03   3.8353004e-04  -3.7036378e-05   4.9029331e-04   2.1488699e-03   9.1467495e-04   2.8799599e-04  -6.8361238e-05   2.5878369e-04   1.6720400e-03  -5.1897230e-05
   3.7336987e-04   4.7798385e-04   3.7875536e-04   7.9705438e-04   3.7651625e-06   5.8349042e-04   7.8514224e-04   1.3118777e-04  -8.4704411e-04   7.6723570e-04   8.9573138e-04   2.8770245e-04   8.5860881e-04   4.1826550e-04   4.6021331e-04   6.2060996e-04   6.4502039e-04   3.1495123e-04   1.6033518e-04   7.0598227e-04   5.9186841e-05   1.7299886e-04   5.1247410e-04  -3.8646111e-05   1.4807760e-03   4.0429464e-04   7.8077464e-05   1.3817266e-04   1.1483991e-03   4.5621025e-04   4.8997888e-05   3.3840665e-04   4.2098705e-04   1.4075296e-05   1.4419241e-04   7.4318005e-04   1.0900304e-03   9.9490699e-04   3.9224324e-04   1.6904603e-03   1.9287785e-04  -2.6530553e-05   2.9211954e-04  -8.8718522e-04   9.8995829e-04   8.0770726e-04  -1.1545743e-04   2.9514279e-04   1.3903760e-03  -1.7774105e-04
   3.8652000e-04   4.5841007e-04   7.4081449e-04   8.5683295e-04  -8.9087516e-05   1.1837733e-04   3.3861373e-04   2.3568740e-04   1.8261150e-03   7.4046757e-04   1.0714218e-03   2.6254237e-04   8.7060651e-04   3.6975750e-04   5.8306090e-04   6.1458949e-04   5.4732466e-04   2.6867833e-04   2.1767220e-03   7.6718262e-04   9.4784291e-06   1.7239711e-04   3.5080305e-04  -1.2926299e-04  -2.6386051e-04   3.5574430e-04   5.1160582e-04   8.0449437e-04   8.2246703e-04   3.2322164e-04   4.0919651e-04   3.3183579e-04   6.2283530e-04  -5.4681528e-05   2.0700421e-03   1.3190955e-03   1.3937525e-03   6.1222760e-04   4.1022827e-04   5.8754545e-04   2.6447908e-04  -4.7370486e-06   3.5875847e-04   1.4361273e-03   9.6544868e-04   1.0736422e-04  -8.6345637e-05   3.2995429e-04   1.7556181e-03  -6.4665219e-05
   9.7579899e-04   4.1296956e-04   6.0730643e-04   7.5362227e-04   3.4537364e-04   5.7185936e-04   2.1670123e-04   4.8828930e-05   5.9729832e-04   7.8866526e-04   9.7923796e-04   2.9716134e-04   9.0914220e-04   5.1495939e-04   1.1123863e-04   5.1934324e-04   5.4660521e-04   3.3321860e-04  -1.9289034e-03   8.7196071e-04   8.0452795e-05   2.1697200e-04   4.3578821e-04  -2.0109188e-05   5.8847689e-04   4.2979323e-04   1.3429103e-04   5.8731926e-04   7.5826369e-04   4.8989028e-04   1.0675763e-03   9.8219351e-04   7.5134012e-04  -1.1591000e-04   9.4282586e-04   6.4820534e-04   5.9268577e-04   6.8375707e-04   3.7039359e-04   4.5596439e-04   4.1608533e-04   1.7456336e-05   2.9683561e-04   7.4471714e-04   1.1238774e-03   8.1363646e-04  -8.1420796e-05   3.1248323e-04   1.7441474e-03  -3.7432997e-05
   7.1724720e-04   4.2587708e-04   6.1162747e-04   5.8261934e-04  -4.1234271e-05   2.2090046e-04   6.4021029e-04  -1.3118814e-04   5.5755740e-03   7.6117326e-04   9.8169665e-04   2.9081319e-04   8.3453651e-04   4.7485461e-04   1.1973667e-04   5.7072809e-04   5.5761414e-04   3.6090889e-04   1.7343462e-03   7.8532938e-04   8.1467071e-05   1.9381425e-04   7.5314770e-04  -4.7989422e-05   8.3552633e-04   3.0187840e-04   1.4795680e-04   7.0361851e-04   6.4618472e-04   6.3410139e-04   8.8567886e-04   1.0665108e-03   3.4232604e-04  -7.4152114e-05   5.6269782e-04   1.8070040e-04   1.0520865e-03   1.0482715e-03   3.6264004e-04   8.9719438e-04   2.0452579e-04  -7.2466692e-06   3.6880100e-04  -4.5272283e-04   1.0796684e-03  -3.7964969e-04  -8.7099615e-05   2.7159011e-04   1.5198309e-03  -7.7545417e-05
   6.8252702e-04   5.0135294e-04   6.5801863e-04   7.4196677e-04   1.7380527e-04   5.0442957e-04   9.1417163e-04   2.4341691e-04  -3.8111249e-03   6.7704869e-04   8.6923654e-04   2.3162845e-04   8.3531241e-04   4.2905979e-04   6.5335335e-04   5.3426897e-04   4.7145277e-04   2.8094655e-04  -3.0268429e-04   7.6816545e-04   6.7002875e-05   1.1952715e-04   5.5262656e-04  -1.7288428e-04  -1.6298812e-04   2.3183007e-04   3.6259717e-04   5.2379281e-04   1.3257284e-03   3.1845173e-04  -2.1129911e-04   2.5421148e-04   9.4851298e-04   2.2288602e-06   7.1885239e-04  -4.2906136e-06   4.2729944e-04   8.5780502e-04   2.8809113e-04   1.2746707e-03   3.1951972e-04  -1.6514916e-05   3.4140682e-04   7.1005692e-04   8.1304502e-04  -8.6607406e-04   1.4424056e-05   2.4832724e-04   1.5549734e-03  -1.9919730e-04
   4.4627694e-04   4.1096730e-04   5.3519814e-04   5.9845432e-04   7.7823154e-04   8.2065810e-05   1.3405226e-04   2.4365072e-04   2.0562143e-03   7.3031901e-04   9.8810298e-04   2.4994145e-04   7.9865276e-04   2.8552164e-04   6.2985136e-04   5.7031016e-04   5.1915005e-04   1.7131460e-04   2.3242692e-03   8.7018969e-04   1.3307441e-04   2.3562431e-04   6.3633284e-04   8.5546577e-05   2.1420348e-04   1.8855081e-04   2.7477549e-04   6.7852007e-04   9.6958049e-04   4.6074370e-04   6.1598193e-04   1.0241574e-03   7.8887801e-04  -7.9963880e-05   2.1660642e-03   1.7964476e-03   4.7998596e-04   6.4323161e-04   3.2397790e-04   7.7299797e-04   1.6567377e-04   4.0025308e-05   4.1129626e-04   1.0855407e-03   1.1532390e-03  -3.8224985e-04   5.3821172e-05   3.1454777e-04   1.6505478e-03  -8.1995415e-05
   3.1610858e-04   3.7277228e-04   5.1399105e-04   7.2907552e-04   9.4720803e-04   7.8787986e-04   5.1411276e-04   1.8158523e-04   6.3417475e-03   7.0733484e-04   8.4796280e-04   2.7030721e-04   9.1057498e-04   4.9380923e-04   5.0784828e-04   5.4890389e-04   6.0034887e-04   1.5759806e-04   4.7445824e-04   7.6600560e-04   1.0304025e-04   1.9435352e-04   3.9420801e-04  -2.2585207e-05   1.7191364e-03   2.3699184e-04   3.4351888e-04   2.6184160e-04   5.1224255e-04   5.3984649e-04   1.5759171e-03   5.0041382e-04   5.6604319e-04  -5.4288219e-05  -3.0900014e-04   1.3734680e-03   6.5502862e-04   3.4744374e-04   3.6665448e-04   1.5047273e-03   2.8146338e-04   8.5483271e-06   4.9668161e-04   1.4236575e-03   1.1221835e-03  -4.9921020e-04   2.4744862e-05   3.3637689e-04   1.4671601e-03  -3.6442849e-05
   8.0050295e-04   4.6746150e-04   5.8721215e-04   7.5196667e-04   4.3982841e-04   2.5111748e-04   4.3224334e-04   4.1249668e-04  -4.9254595e-04   6.6280039e-04   8.7440788e-04   1.9776043e-04   9.1109978e-04   4.5452497e-04   2.0579938e-04   5.6656258e-04   5.7346863e-04   1.8310793e-04   4.7356359e-04   7.6869049e-04   5.7587622e-05   1.2929294e-04   4.5123711e-04  -4.5735287e-05   6.2441448e-04   3.2145201e-04   3.9631967e-04   1.7490363e-04   5.7978771e-04   4.3504621e-04   5.6132680e-04   7.3804444e-04   4.1585683e-04   8.1294143e-05   1.7109161e-03   6.9612032e-04   1.1898732e-03   8.8547851e-04   2.7104109e-04   7.7614700e-04   5.1271601e-04   5.9773134e-05   4.3512799e-04  -9.6436142e-04   1.0515597e-03  -1.6471202e-04   1.5038827e-04   2.3560184e-04   1.7055927e-03  -1.3693553e-04
   4.9758790e-04   3.0503949e-04   6.6183478e-04   6.5844727e-04   4.2769499e-04   4.1658070e-04   6.2883145e-04   2.9066420e-04   1.1953904e-03   6.3634320e-04   8.7639468e-04   2.4052401e-04   7.5755094e-04   3.2596473e-04   4.5276029e-04   5.5545563e-04   4.3639587e-04   2.1529375e-04   1.7458913e-03   7.3686498e-04   3.2628403e-05   1.5816397e-04   2.7001617e-04   5.4245906e-05   7.6775125e-04   1.8005786e-04   2.7135064e-04   6.0085690e-04   8.8615052e-04   4.5167599e-04   1.1859060e-03   1.2141753e-03   3.5397324e-04  -3.1548432e-05  -1.3359102e-03   6.7304244e-04   6.0228724e-04   6.5582071e-04   4.1305952e-04   4.8177154e-04   3.6778580e-04   2.2139809e-04   3.7847197e-04   8.1005826e-04   9.8206161e-04   5.8025843e-04   4.3420342e-04   2.5105960e-04   1.6300306e-03  -1.4613870e-05
   7.9591689e-04   4.0874680e-04   6.2583532e-04   5.9515337e-04   3.3323027e-04   4.4614085e-04   5.7990622e-04   2.2805478e-04   9.6433971e-04   8.0601941e-04   9.7085960e-04   3.0543466e-04   8.6923793e-04   3.3577604e-04   3.4128129e-04   5.6058570e-04   5.5728829e-04   2.1556464e-04  -6.9639593e-04   8.2857127e-04   1.6284510e-04   1.9394330e-04   7.8320748e-04   1.7684149e-04   8.4686920e-04   1.9472231e-04  -3.6948663e-06   3.3539406e-04   1.9932691e-04   3.6125409e-04   1.2161313e-03   5.4216024e-04   8.3028665e-04   1.9602312e-05   8.0696051e-04   1.0200137e-03   3.5125820e-04   4.3090305e-04   3.4480475e-04   6.2820211e-04   2.4925484e-04   2.4493827e-04   3.9117978e-04  -5.5131729e-04   9.5942768e-04   8.3081704e-04   3.8889545e-04   2.9021935e-04   1.6724969e-03   1.6261538e-05
   5.1198725e-04   3.3215986e-04   8.9842349e-04   4.8376675e-04   4.4462711e-04   2.9064933e-04   7.6281000e-04   2.7279323e-04   7.6611130e-04   8.2573190e-04   9.8796166e-04   2.9857588e-04   7.1168586e-04   4.2706431e-04   4.2518612e-04   5.5598031e-04   4.4857329e-04   3.0270495e-04   1.9662508e-03   7.4242271e-04   1.6287121e-04   1.0381910e-04   4.4117685e-04   1.6899058e-04   7.6297106e-04   3.8618836e-04   4.2174206e-04   7.5889553e-04   6.1731134e-04   5.2459299e-04   1.3800500e-03   3.9574431e-04   3.8176848e-04   1.1373990e-06   1.1515237e-03   3.3590855e-04   1.1407216e-03   6.4086856e-04   3.8768872e-04   1.6985903e-04   5.4624939e-04   2.4038740e-04   4.5788960e-04   2.8486803e-04   1.0129088e-03  -9.8215381e-04   2.8567502e-04   2.9272967e-04   1.5661115e-03   7.8954567e-05
   6.0706900e-04   3.2698544e-04   6.7914859e-04   6.8119692e-04   6.0995662e-04   2.0585270e-04   2.0475518e-04   2.4279901e-04   1.9871346e-03   8.0044643e-04   9.5184322e-04   3.0498803e-04   8.1213267e-04   4.7076400e-04   5.5691734e-04   5.5096811e-04   4.2487818e-04   2.2258375e-04   1.4045996e-03   7.3099427e-04   6.2488718e-05   1.0177595e-05   8.8574731e-04   1.7028885e-04  -5.8889800e-05   3.1198355e-04   4.0903912e-04   6.2087394e-04   6.7734695e-04   6.3782855e-04   1.0162242e-03   1.1740103e-03   5.2595214e-04   1.3434277e-04  -6.7070284e-04  -3.1169900e-04   3.5522197e-04   8.9345145e-04   4.0984072e-04   3.3809972e-04   3.0121970e-04   1.7729044e-04   5.2127300e-04  -4.5611867e-04   1.0762970e-03   3.4492905e-04   2.1504241e-04   3.0494720e-04   1.4994908e-03   2.0333404e-05
   1.6333989e-04   2.7694195e-04   7.8203710e-04   5.6924782e-04   2.3845422e-04   7.1557250e-04   6.3751708e-04   1.8067824e-04  -4.2474186e-03   8.3007023e-04   8.9531543e-04   3.5858754e-04   8.6506089e-04   3.7029458e-04   3.8436725e-04   5.2333658e-04   5.0367822e-04   2.5694401e-04   1.0548566e-03   7.8850321e-04   1.6163777e-04   6.2724284e-05   1.5428664e-04   2.6817073e-04   9.2111289e-04   2.8906105e-04   3.7597789e-04  -4.4157412e-05   4.4773021e-04   6.1747921e-04  -1.9220846e-03   1.1932001e-03   9.5393206e-04   1.0758908e-04   9.0847054e-04   2.6390466e-04   8.4471609e-04   7.8751449e-04   4.1328560e-04   1.2800384e-03   3.5707094e-04   2.6272051e-04   5.6287245e-04   6.6266843e-04   1.0149075e-03   5.5268785e-04   2.0590617e-04   3.7777674e-04   1.5619480e-03  -1.8341780e-05
   5.4205029e-04   3.7266544e-04   7.9546939e-04   7.6529541e-04   7.0136983e-04   5.1182293e-04   3.2765267e-04   1.9193809e-04   2.7206091e-03   8.2091847e-04   9.4600866e-04   3.6969074e-04   7.7107601e-04   4.5922870e-04   1.5604834e-04   5.9622026e-04   5.0410657e-04   3.5441600e-04   2.0793944e-03   7.0776494e-04   1.4787176e-04   5.7255253e-05   3.2962879e-04   2.4583284e-04   1.3021046e-03   2.2366537e-04   2.4930696e-04   1.8311990e-04   1.3039022e-04   4.1690684e-04   1.6305190e-04   6.5670180e-04   2.3371889e-04  -1.8781888e-04   1.7450047e-04   8.4293343e-04   9.9781202e-04   3.4447134e-04   3.9170936e-04   4.8575489e-04   4.7209096e-04   2.4090832e-04   5.4407149e-04   2.2645027e-03   1.0927508e-03   2.6720483e-04   1.8385368e-04   2.9422028e-04   1.6865275e-03   1.9347364e-05
   2.8613125e-04   3.9617036e-04   4.5081356e-04   7.2197738e-04   3.5991482e-04   4.7544105e-04   6.8068790e-04   2.8631662e-06   1.3816677e-03   7.8850886e-04   9.0031442e-04   3.3997331e-04   8.6757995e-04   4.6819559e-04   5.4426596e-04   4.8233001e-04   5.2321906e-04   1.9179803e-04   1.1978666e-03   7.0919708e-04   1.1458679e-04   2.8717557e-05   3.3193859e-04   2.8238486e-04   7.3975319e-04   3.3843421e-04   3.9056261e-04   3.1452932e-04   9.1454701e-04   3.3632794e-04   2.7077820e-04   1.1576187e-03   7.3782791e-04  -2.7705901e-04   1.2515993e-03  -3.0860322e-04   5.7040202e-04   8.0786372e-04   3.7853513e-04   1.3540044e-03   5.0246884e-04   2.1469394e-04   3.8875159e-04   8.0101029e-04   9.7973482e-04  -5.0968671e-04   1.7760531e-04   2.3010559e-04   1.5068157e-03   6.5454878e-05
   1.1165215e-03   3.7195787e-04   6.0011679e-04   7.1719353e-04  -3.3180433e-04   2.7764947e-04   2.8715390e-04   2.8926611e-04   9.3992217e-04   7.7649479e-04   8.9239405e-04   3.3125235e-04   8.2025223e-04   4.5094450e-04   4.5368605e-04   6.1966776e-04   5.0527748e-04   3.8801020e-04  -1.1422120e-03   7.0960709e-04   1.3526164e-04   5.7976798e-05   8.8313757e-04   2.3172094e-04   9.0344929e-06   2.1300887e-04   5.0326047e-04   6.4326759e-04   7.1213569e-04   4.0351920e-04   1.3947013e-03   7.3495944e-04   3.4022544e-04  -7.5391006e-05  -5.4386014e-04   6.4135023e-04   1.1324654e-03   1.0358812e-03   3.8908396e-04   1.1666700e-03   1.7519234e-04   2.4958092e-04   5.6723593e-04   8.1219990e-04   9.3040289e-04  -1.9703494e-04   2.1833554e-04   3.3944321e-04   1.6306650e-03   2.2834340e-05
   6.2849477e-04   4.1224548e-04   6.0946931e-04   5.9494417e-04   4.8097383e-04   3.2406760e-04   8.9607877e-04   5.1913556e-04   6.8748894e-05   7.8296993e-04   9.6159405e-04   3.7503024e-04   8.8219641e-04   5.4170936e-04   3.3867842e-04   4.9578311e-04   5.6164264e-04   3.5815217e-04   3.4584049e-03   7.1950327e-04   1.9499357e-04   1.3234161e-04   2.0634505e-04   2.9091848e-04   3.1389121e-04   2.6571634e-04   2.1403190e-04   6.5721374e-04   5.7040108e-04   4.7011962e-04   7.9597486e-04   3.1308230e-04   6.3614338e-04   2.0142239e-04   1.1363397e-03   1.2758308e-03   6.8546087e-04   8.7129168e-04   3.5528172e-04   9.3949487e-04   1.9215611e-04   1.9466050e-04   4.3398573e-04   1.9615819e-03   1.0699065e-03  -9.0017449e-05   2.1126431e-04   2.9103429e-04   1.5258339e-03   4.1137635e-05
   8.2483725e-04   4.5619067e-04   5.2164891e-04   7.0622779e-04   1.1431145e-04   4.8048803e-04   7.5274491e-04   2.7814411e-04   3.3806146e-03   7.7629369e-04   9.6200180e-04   3.5328098e-04   8.1372762e-04   5.6404801e-04   4.0287690e-04   5.9403654e-04   5.7136733e-04   3.5846172e-04   1.3302870e-03   7.0636085e-04   1.5989140e-04   8.4108236e-05   3.4002456e-04   2.5717198e-04   9.0510439e-04   3.2655837e-04   1.2646285e-04   4.4395111e-04   9.4553299e-04   2.8688103e-04   8.5262000e-04   1.5429383e-04   4.3435686e-04   4.3594842e-05   9.2544773e-04   1.3829636e-03   6.7468028e-04   6.9380464e-04   3.6921451e-04   1.0546119e-03   1.6711932e-04   1.7477780e-04   3.3773694e-04   1.9516977e-03   1.1122901e-03   5.3545390e-04   1.6141361e-04   3.2630883e-04   1.5461597e-03   2.4498378e-05
   7.7845447e-04   3.6789244e-04   8.7677559e-04   6.1739661e-04   2.4104162e-04   8.5660565e-04   6.0091703e-04   3.3146603e-04   6.8259117e-04   7.5059279e-04   8.3830714e-04   3.3987692e-04   8.4515318e-04   6.6054997e-04   8.3222595e-04   6.0850021e-04   5.1098422e-04   2.7059187e-04  -4.3425651e-04   6.8945315e-04   1.4219343e-04   9.0845358e-05   7.5654173e-04   2.3722665e-04   8.8780530e-04   2.5089853e-04   3.5743407e-04   4.4032992e-04   8.6132111e-04   5.1709148e-04  -5.3585376e-05   1.0577580e-03   3.2760252e-04   1.8394955e-04  -2.1686206e-04  -4.2800372e-04   1.0169606e-03   6.1138900e-04   3.6081739e-04   6.3428906e-04   3.0689483e-04   2.0116537e-04   4.1038208e-04   9.1105641e-04   1.0475544e-03  -2.7671920e-05   2.5740825e-05   2.4598313e-04   1.6315302e-03  -3.0908508e-05
   1.0324193e-03   4.1412690e-04   6.7187787e-04   6.6966942e-04  -1.7809095e-04  -8.1545513e-05   6.5242854e-04   2.3249819e-04   5.7826936e-04   8.0598716e-04   9.2592969e-04   4.0151706e-04   9.4460807e-04   5.5988727e-04   6.1004498e-04   5.7600695e-04   5.6953280e-04   3.2345467e-04   1.4523546e-03   7.8836404e-04   2.1238672e-04   1.5504073e-04   3.5831719e-04   3.7815273e-04   1.7955192e-04   1.9841986e-04   4.5042214e-04   7.2993926e-04   9.1829296e-04   4.5253470e-04  -5.9217896e-04   1.0863472e-03   6.1544892e-04   9.9084282e-05  -1.0247415e-04  -7.3347102e-05   1.1506949e-03   8.7543455e-04   4.1591591e-04   1.1854578e-03   2.9554692e-04   1.8901311e-04   3.7861336e-04   7.8639149e-04   1.0798586e-03   2.2512948e-05  -1.2932601e-04   1.6970257e-04   1.5397167e-03  -8.1455531e-05
   7.2708359e-04   4.5331795e-04   5.1907531e-04   7.0534553e-04   1.6897604e-04   3.5703724e-05   1.1994520e-03   6.0515141e-04   1.7822774e-03   7.8551588e-04   8.9605898e-04   3.6997400e-04   8.6306914e-04   4.7736612e-04   3.5895998e-04   6.3693465e-04   6.4628944e-04   3.0838262e-04   2.5719828e-03   7.6141802e-04   2.0922677e-04   1.3372782e-04   6.0404633e-04   4.2240019e-04   6.7969522e-04   3.1650273e-04   5.3515728e-04   5.8032578e-04   9.7513560e-04   4.7546963e-04   6.7554030e-04   1.0007889e-03   4.4868875e-04   1.0376688e-04   8.6035341e-04   3.7498822e-04   9.4040047e-04   1.2468146e-03   3.7538473e-04   1.1537732e-03   3.8833445e-04   1.3842178e-04   3.9838199e-04   1.0639102e-03   1.1247967e-03   7.8721077e-04  -1.7503968e-04   1.2503917e-04   1.6022042e-03  -7.2562565e-05
   7.1783789e-04   4.5980653e-04   7.3306775e-04   7.1799528e-04   9.5437904e-04   3.5688648e-04   5.4013968e-04   1.4890182e-04   7.3109348e-03   7.0537900e-04   8.6514570e-04   3.4522373e-04   9.0993824e-04   5.4603047e-04   5.4883101e-04   6.2010740e-04   5.4078561e-04   2.2910449e-04   2.3191827e-04   7.2891574e-04   1.8777273e-04   8.8850953e-05   4.1956658e-04   2.6584062e-04   8.8436739e-04   1.4039026e-04   6.4097025e-04   3.9726074e-04   8.5110951e-04   4.3328418e-04   1.6851072e-03   1.3071798e-03   4.0415919e-04   5.6088054e-05   1.6591252e-03   5.2895746e-04   9.3334215e-04   7.5640751e-04   4.1791756e-04   6.9123117e-04   2.5069815e-04   1.0642109e-04   4.7324193e-04   1.9306930e-03   9.8099513e-04   3.1507108e-04   1.2237245e-05   2.6775902e-04   1.4471952e-03  -9.7332413e-05
   3.3301325e-04   3.7851356e-04   6.6271430e-04   7.6822133e-04   7.3879294e-04   6.4202075e-05   7.6133740e-04   5.5164011e-04  -1.9762192e-03   7.0850586e-04   9.3632238e-04   2.4791312e-04   9.1958715e-04   5.4788054e-04   2.1289894e-04   7.0506020e-04   6.0306845e-04   3.3569420e-04   1.0779133e-03   8.4931875e-04   2.0344778e-04   1.4439454e-04   5.4876693e-04   1.6246141e-04   9.6937380e-05   2.8231589e-04   2.2590217e-04   3.7571689e-04   1.1430357e-03   2.0865812e-04  -3.3428209e-04   1.1043631e-03   5.7306170e-04   3.3916218e-05   1.3635532e-03  -1.0391185e-03   1.1300317e-03   8.1915141e-04   3.8765461e-04   1.0004515e-03   3.2788841e-04   1.6437781e-04   3.7208249e-04   1.1432692e-03   9.0195640e-04  -4.0876900e-04   1.6346583e-04   2.9815000e-04   1.7010903e-03  -6.1431776e-05
   6.0727389e-04   4.6824908e-04   6.3376606e-04   6.6116441e-04  -3.7097201e-05  -1.5643892e-04   2.6734333e-04   6.7157863e-04  -1.3248438e-03   6.7443005e-04   1.0183364e-03   2.3224189e-04   8.4266858e-04   3.6552639e-04   5.1433343e-04   5.4445380e-04   5.5735302e-04   2.4958802e-04   5.1386992e-04   8.6101826e-04   1.6787385e-04   1.2515773e-04   2.5349602e-04   2.2358591e-04   1.2391227e-03   1.5412859e-04   2.9718984e-04   6.9472200e-04   7.1778271e-04   4.1416488e-04   8.6441450e-04   4.7262100e-04   6.7423895e-04   2.0583317e-05   2.6317273e-04   6.2618428e-04   8.2539278e-05   6.1946869e-04   4.2893266e-04   8.3221361e-04   5.0203467e-04   1.8248548e-04   4.5106345e-04  -2.7654498e-04   1.0332665e-03  -9.5300266e-04   2.7443582e-04   3.0419257e-04   1.3951326e-03  -4.4647666e-05
   7.9281244e-04   4.1145188e-04   6.7065336e-04   6.5521488e-04   3.8548585e-04   2.3248221e-04   6.1607757e-04   2.4053403e-04  -1.2428345e-03   6.1980670e-04   9.0869272e-04   1.9134679e-04   8.1059663e-04   3.6173986e-04   4.9633108e-04   5.5218278e-04   6.1919802e-04   2.1154211e-04   5.2578788e-04   7.0999324e-04   1.2979585e-04   5.9310751e-05   2.8159528e-04   1.8771562e-04   6.7632704e-04   1.8543510e-04   4.2618639e-04   6.2426587e-04   5.1152275e-04   4.4654176e-04   1.3517067e-03   1.5402694e-03   5.7285000e-04   1.2869737e-04   1.6494192e-03   1.2130954e-03   1.2732685e-03   4.4917234e-04   3.5114025e-04   1.6365125e-04   3.4448536e-04   2.5119522e-04   4.0812316e-04  -6.8565109e-04   1.0061413e-03   1.0807751e-04   4.1691610e-04   2.7220990e-04   1.7281906e-03  -1.2365793e-04
   2.2729658e-04   3.1372433e-04   8.6011924e-04   7.1121583e-04   7.7689980e-04   4.4227843e-04   5.4433895e-04  -3.2758589e-07  -1.8314413e-03   7.2673563e-04   9.4123976e-04   1.7711210e-04   8.7459799e-04   3.9722331e-04   3.7554780e-04   6.1028026e-04   4.9264770e-04   2.4392137e-04  -3.1075085e-04   8.1917405e-04   1.6944656e-04   1.2364509e-04   6.5011944e-04   1.7166653e-04  -1.3862048e-04   3.4199850e-04   3.3177278e-04   2.4444237e-04   5.4672657e-04   4.1490307e-04   1.3145566e-04   1.4849127e-03   7.3180534e-04   5.9720820e-05   1.2263743e-03   1.7012594e-03   7.2263432e-04   4.4923849e-04   4.0756006e-04   4.7203031e-04   5.7525875e-04   3.0894089e-04   4.1330879e-04   1.3209045e-03   1.0789210e-03  -8.2742350e-05   3.7214381e-04   1.9749811e-04   1.6278764e-03   8.1185099e-05
   4.3296284e-04   4.1036861e-04   9.9192245e-04   6.2797079e-04   2.7337892e-04   9.9009791e-05   6.9736422e-04   4.8112983e-05   6.0346065e-04   7.3567743e-04   8.5889944e-04   1.7225122e-04   8.8071125e-04   3.6801011e-04   2.8687061e-04   6.2677456e-04   5.9408194e-04   3.2093219e-04  -9.4350689e-04   7.5558783e-04   1.4538830e-04   9.5290248e-05   3.6785007e-04   1.4236700e-04   5.1921808e-05   3.8540625e-04   5.2967262e-05   5.9970998e-04   9.5562427e-04   4.5244012e-04   5.5094884e-04   9.8083529e-04   8.9311728e-04   2.8719774e-05   1.6904732e-03   5.7183890e-05   7.4291730e-04   5.6337449e-04   3.9643329e-04   1.0572794e-03   3.4864852e-04   9.7715369e-05   4.8523364e-04   1.4122940e-03   9.8711811e-04  -2.7938958e-04  -1.7377164e-05   1.8011994e-04   1.4988667e-03  -3.6210266e-05
   6.1330473e-04   3.9851444e-04   4.2647906e-04   6.0874625e-04   2.5992646e-04   4.4093656e-04   2.0693282e-04   4.6222628e-04  -5.4607721e-04   6.7062734e-04   8.2102272e-04   1.9216193e-04   8.7497092e-04   4.5321684e-04   4.2821417e-04   6.4963661e-04   4.1843785e-04   3.8907086e-04   1.0329393e-03   7.0781045e-04   1.0771061e-04   4.3888307e-05   2.0589796e-04   2.0237138e-04   8.5644511e-04   2.1523386e-04   1.7244130e-04   5.0862372e-04   7.7312847e-04   3.7072884e-04   1.4692597e-03   6.2364509e-04   3.8805031e-04   2.8872908e-05   2.4541817e-04   1.5006587e-03   3.2383224e-04   9.8502974e-04   3.8665941e-04   1.1678485e-03   4.8650531e-04   1.0726455e-04   3.8949639e-04   6.9725554e-04   1.1834980e-03   7.5700613e-05   3.9021936e-05   2.4089178e-04   1.5863028e-03  -3.9522591e-05
   5.3888245e-04   4.3817624e-04   5.6118018e-04   7.3428446e-04   4.6583952e-04   2.4461022e-04   5.2375632e-04   5.4656470e-04  -2.2723286e-03   7.5317948e-04   8.4450899e-04   2.5484164e-04   8.6555927e-04   5.6758663e-04   7.1174535e-04   6.4230472e-04   5.0179171e-04   3.6981513e-04   6.4420071e-04   8.8676112e-04   1.6554020e-04   1.4000494e-04   5.9284101e-04   3.2820663e-04   3.4224722e-04   2.2470977e-04   2.8511262e-04   6.6932314e-04   8.1286853e-04   3.4570086e-04   1.3846281e-03   9.5934444e-04   7.4713881e-04   1.3724378e-04   1.3635792e-03   3.7758829e-04   1.2914754e-03   8.1281486e-04   3.6998393e-04   3.5667542e-04   5.1150267e-04   1.8372235e-04   3.1557446e-04   8.1041246e-04   9.6965773e-04  -9.1015728e-04   6.6651315e-05   2.8785793e-04   1.5558478e-03  -2.8744393e-05
   1.2864710e-03   4.1655824e-04   7.9021312e-04   5.8045803e-04   5.4312426e-05   6.4882814e-05   3.2701451e-04   2.2904310e-04   1.7998143e-03   7.5602368e-04   1.1017114e-03   2.8246877e-04   9.3313510e-04   5.4776057e-04   3.2021335e-04   6.5246300e-04   6.2462699e-04   3.8964182e-04   2.0018378e-03   7.2977383e-04   1.7548242e-04   1.2763293e-04   5.6273339e-04   2.0510840e-04   2.7781010e-03   1.6158517e-04   4.5890250e-04   7.5967592e-04   5.8119249e-04   5.9020706e-04   5.0547818e-04   5.7619135e-04   2.6204626e-04   1.4959602e-04   1.2468634e-03   7.6666829e-04   9.0366270e-04   1.2392943e-03   4.6227168e-04   1.1583871e-03   6.8010023e-04   1.5845112e-04   4.4390719e-04  -9.3625669e-05   1.1573425e-03   6.9665856e-04   5.1036131e-05   3.0623528e-04   1.5008150e-03  -7.7940080e-05
   8.1894710e-04   4.0275493e-04   7.0580380e-04   7.6768314e-04   2.2061911e-04   3.7019269e-04   4.6803162e-04   1.6469588e-04  -1.5724689e-03   7.0977339e-04   9.0371515e-04   2.6992429e-04   8.4415800e-04   5.2224007e-04   3.6918654e-04   5.9209403e-04   5.3829298e-04   3.3487525e-04  -1.2130182e-03   7.4835791e-04   1.2701347e-04   1.9173845e-04   5.9106934e-04   2.7098908e-04   9.3260204e-04   3.0621837e-04   7.3495368e-04   9.4980508e-04   1.0284876e-03   5.1181123e-04   8.4644993e-04   7.4862072e-04   7.5672014e-04   1.5156834e-04   1.5258836e-03   1.0123046e-03   9.8241516e-04   8.9778937e-04   4.1125025e-04   8.3597295e-04   1.0093366e-04   1.7609558e-04   4.7357520e-04   1.2814795e-03   1.1377545e-03   4.0009941e-06   1.9363648e-05   2.2568491e-04   1.5584048e-03  -2.0398174e-05
   2.2681117e-04   4.0112331e-04   6.0430012e-04   8.2074193e-04   6.6598435e-04   3.6174688e-04   1.4640162e-04   4.4178942e-04  -1.1361090e-03   7.3093519e-04   8.6486881e-04   2.7077252e-04   8.9621585e-04   5.6108157e-04   4.9152068e-04   6.2657485e-04   6.5552467e-04   4.2335410e-04   3.8168936e-03   7.4361503e-04   2.0797536e-04   1.9607367e-04   3.7084054e-04   2.6506546e-04   9.8186987e-04   3.0448384e-04   3.5259852e-04   4.2617993e-04   1.0247522e-03   4.0815148e-04  -2.1808199e-04   1.2719615e-03   5.8819877e-04   2.0495789e-04   1.5976925e-03   3.4957388e-04   3.6658099e-04   9.2618447e-04   3.3026829e-04   8.6917781e-04   1.8251363e-04   1.6145059e-04   5.9596740e-04   5.4510694e-04   1.1538671e-03   4.7868164e-04   3.7351023e-05   3.2384341e-04   1.5737582e-03  -8.0545367e-05
   6.4829149e-04   5.4665550e-04   6.5118325e-04   6.8615098e-04   3.0297966e-04   2.8443844e-06   5.4485752e-04   5.8297237e-04  -2.6296102e-03   7.3383469e-04   9.4671285e-04   2.7941435e-04   8.8300876e-04   5.4172298e-04   2.5239305e-04   5.6599610e-04   6.1116274e-04   3.2788591e-04   1.0640619e-03   7.1784901e-04   2.1213782e-04   1.4946715e-04   5.4611696e-04   1.8564577e-04   8.0024544e-04   2.9075157e-04   6.9937343e-04   4.2591774e-04   8.5541065e-04   3.7306614e-04   2.4491013e-04   5.4669561e-04   4.5633441e-04   1.0083267e-04   1.7460369e-04   1.5362179e-03   7.8740763e-04   5.0990598e-04   4.1427335e-04   1.3141617e-03   1.9268885e-04   1.5161280e-04   4.3911033e-04   1.3605173e-03   9.5680030e-04   1.1533236e-03   4.2835676e-05   2.7474741e-04   1.4727374e-03  -7.4522824e-05
   5.2800350e-04   5.0544844e-04   7.2002981e-04   7.6533935e-04   4.1653420e-04  -1.2061749e-04   2.6979219e-04   2.4912253e-04  -6.3777734e-05   7.1215688e-04   9.6121203e-04   2.9527667e-04   8.6446927e-04   5.1735091e-04   4.9922278e-04   6.5491453e-04   5.6572456e-04   3.7918906e-04   3.2409043e-05   7.6625659e-04   1.9255972e-04   1.9624540e-04   3.3054745e-04   2.4087094e-04   1.2235191e-03   3.8553431e-04   5.0824170e-04   5.4422911e-04   6.6834147e-04   5.2416470e-04  -2.9257877e-04   1.2598478e-03   8.8218786e-04  -1.4166604e-04   1.9181361e-03   5.4791162e-04   9.4169367e-04   9.2708855e-04   4.1627660e-04   8.2902831e-04   2.8355431e-04   1.2217536e-04   3.1189079e-04   1.1582302e-03   1.0933658e-03   5.2033004e-04   2.2920090e-05   2.5873570e-04   1.5607931e-03  -9.7937096e-05
   7.4243476e-04   4.0329486e-04   7.6993863e-04   4.7890900e-04   3.6467853e-04   2.8557773e-04   4.7236512e-04   3.5895468e-04  -1.0945769e-03   7.5470953e-04   8.8024372e-04   2.7393139e-04   8.8900153e-04   5.3273683e-04   7.0602261e-04   6.1459624e-04   6.2813930e-04   4.3038515e-04   2.9904209e-03   8.4820011e-04   2.2168545e-04   2.6808996e-04   7.1546348e-04   2.8973396e-04   7.6970743e-04   3.8525960e-04   6.8452000e-04   3.4218424e-04   7.5702369e-04   4.8596371e-04   3.1275788e-04   4.4331627e-04   4.7480612e-04  -3.3335371e-05   9.4562519e-04   1.1170455e-03   1.1992228e-03   7.4722094e-04   3.9265244e-04  -2.5169342e-05   1.9745073e-04   1.7922347e-04   3.0169968e-04   1.3021859e-03   1.0104000e-03   5.1613356e-04   6.0713712e-05   3.2396463e-04   1.5933156e-03  -5.5196091e-05
   1.0577103e-03   5.6875555e-04   7.3663954e-04   6.5068313e-04   6.2066637e-04  -1.4123174e-04   5.4207112e-04   1.8263106e-04   3.2135139e-03   7.5064535e-04   9.8912872e-04   2.9774240e-04   9.2669408e-04   6.4516277e-04   4.2294717e-04   7.2145445e-04   6.0415524e-04   3.5636991e-04   5.1421495e-03   7.6197344e-04   2.2395204e-04   2.1626154e-04   7.5192243e-04   2.0675335e-04  -9.9411291e-06   2.1772538e-04   7.1690080e-04   6.0475944e-04   1.0277199e-03   5.3279195e-04   2.8371307e-04   5.9552526e-04   3.7828108e-04   1.0641943e-04  -5.7230494e-04   5.1601528e-04   8.0954388e-04   1.0340149e-03   4.1844966e-04   1.4153697e-03   2.4506979e-04   1.5698526e-04   3.5439350e-04   8.4853463e-04   1.0874078e-03   5.2415195e-04   3.6835576e-05   3.4546107e-04   1.6014661e-03  -1.5809218e-04
  -3.3630240e-05   5.4089871e-04   6.3334563e-04   8.2041172e-04   2.5790525e-04   2.5426969e-04   3.8511254e-04   2.2312505e-04  -1.3305907e-03   7.2517205e-04   9.6293463e-04   2.7796184e-04   8.2967017e-04   6.1193440e-04   4.5377121e-04   6.9341122e-04   5.4113363e-04   3.8012862e-04   3.3436250e-04   7.1853702e-04   1.9818819e-04   2.4202137e-04   6.9798675e-04   1.8304918e-04   1.3015881e-03   1.8169972e-04   4.7540519e-04   5.0055690e-04   1.1834491e-03   4.8006047e-04   4.5005084e-04   5.2188890e-04   7.6248305e-04   6.3719715e-05   2.5380429e-04   6.8306184e-04   1.0967627e-03   1.0806859e-03   4.2503292e-04   7.4793870e-04   7.9237681e-05   1.6592289e-04   4.2949151e-04   1.0051408e-04   1.0937541e-03   4.4850848e-04   9.8819874e-06   2.6798781e-04   1.4409628e-03  -2.0789681e-04
   7.1616826e-04   4.9421849e-04   7.7188405e-04   7.1690802e-04   2.9311574e-04   4.1573981e-04   9.4364845e-04   3.0870445e-04  -6.8298809e-04   7.9302513e-04   8.7589840e-04   3.0713910e-04   9.0830441e-04   4.4553698e-04   4.6398884e-04   6.6784699e-04   5.9720140e-04   3.7177070e-04   1.4303124e-03   8.4454694e-04   2.4961331e-04   2.2784337e-04   5.0435844e-04   3.0709215e-04   2.0666665e-03   3.1271763e-04   5.1736191e-04   4.0582079e-04   1.1797332e-03   5.6330173e-04  -3.6417352e-04   1.4307906e-03   4.4412850e-04   1.2985716e-04   3.8902325e-04   7.1034889e-04   4.4392102e-04   8.6599973e-04   3.9391042e-04   1.2762623e-03   3.2112084e-04   1.7211384e-04   4.0505274e-04   4.7478316e-04   1.2083820e-03  -5.6407577e-04   5.6404588e-05   3.4338713e-04   1.6381480e-03  -2.8952332e-05
   9.5485384e-04   4.7938825e-04   8.1557379e-04   8.6805545e-04   8.3211367e-04   8.0618472e-04   1.1544777e-04   3.2712863e-04   2.4025328e-03   7.7820307e-04   9.1134320e-04   3.1885944e-04   8.7506219e-04   6.3607382e-04   4.8670734e-04   6.5216108e-04   6.5718725e-04   3.6886972e-04   4.2450097e-03   8.3931256e-04   2.5339995e-04   2.3447328e-04   4.9532182e-04   2.3399468e-04   4.3031327e-05   3.4012532e-04   2.2784539e-04   1.0831768e-03   9.2839549e-04   5.2557787e-04   1.5515577e-03   4.7864529e-04   1.1056511e-03  -3.9609746e-05   1.0516383e-03   4.0113329e-04   1.2312053e-03   6.1706878e-04   3.8672925e-04   8.3139841e-04   1.3024945e-04   1.7107710e-04   3.5435852e-04   1.7468071e-03   1.0227737e-03   6.9111760e-04   3.6588586e-05   3.1732253e-04   1.6663767e-03  -5.5875706e-05
   4.4084550e-04   5.5008446e-04   5.9101061e-04   8.8070286e-04   5.2636024e-04   6.0594623e-04   5.5124710e-04   4.7575237e-04   1.4459474e-03   7.8497065e-04   1.0182520e-03   3.1410801e-04   8.9420396e-04   6.2469387e-04   5.9056748e-04   6.1154854e-04   6.4086640e-04   2.9769464e-04   4.2898236e-03   7.6283305e-04   1.8420815e-04   2.6558549e-04   8.8867760e-04   3.1801555e-04   2.1833811e-04   3.2653494e-04   5.2706775e-04   9.9540432e-04   1.1150551e-03   4.1780857e-04   7.2786695e-04   1.1582710e-03   1.8241869e-04   3.8071586e-05   1.7268555e-03   1.1700867e-03   7.0715346e-04   9.1834576e-04   3.5486039e-04   1.5810661e-03   3.8701220e-04   1.5085578e-04   4.2331440e-04   1.2422702e-04   1.1386719e-03  -5.0124427e-04   3.0815350e-05   2.8779742e-04   1.6609991e-03  -1.0163255e-04
   8.3531952e-04   5.2585965e-04   3.8751223e-04   7.1372720e-04   4.2016691e-04   7.3810981e-04   6.8714109e-04   6.7796151e-04   2.3145012e-03   7.3335110e-04   8.5392495e-04   3.0255472e-04   8.9374773e-04   6.1785639e-04   1.8760920e-04   6.9141272e-04   5.1059836e-04   4.1354075e-04   1.1198518e-03   7.8797119e-04   2.3181495e-04   3.0281721e-04   7.5224962e-04   3.7492131e-04   1.1832357e-03   2.0583505e-04   4.5888429e-04   4.4016639e-04   8.2860247e-04   4.6978969e-04   2.9665029e-03   9.9720841e-04   8.2901877e-04   1.5203530e-04   1.5942401e-03  -3.9865446e-04   1.0262696e-03   7.5700454e-04   4.2099992e-04   7.3351408e-04   2.1400031e-04   1.4597843e-04   4.3970402e-04   1.6849880e-03   1.2550794e-03  -7.7796628e-04   4.1741190e-05   2.8936836e-04   1.7192406e-03  -9.7878052e-05
   1.4034563e-04   5.3796760e-04   6.2579551e-04   8.5638120e-04   1.1709888e-04   5.5454904e-04   9.7257807e-04   4.5107672e-04   1.6277174e-03   7.7662803e-04   9.6587092e-04   2.8757637e-04   9.0806698e-04   5.6215748e-04   3.0905116e-04   6.0503744e-04   6.3141796e-04   3.7052020e-04  -4.6677797e-04   7.5286196e-04   2.5604715e-04   2.6634711e-04   8.7961910e-04   3.2129308e-04   6.4496387e-04   1.6313665e-04   5.0351396e-04   3.1506296e-04   6.8740791e-04   4.0633776e-04   4.8592855e-04   1.3649397e-03   5.4257200e-04  -9.2559949e-06   6.9277966e-04   3.8686467e-04   6.3935929e-04   8.2946470e-04   3.5505189e-04   1.0807769e-03   3.1873281e-04   1.3182810e-04   3.7147535e-04   1.6551086e-03   9.2417648e-04   9.2357892e-05   2.2239998e-05   3.0152153e-04   1.6764482e-03  -9.5639283e-05
   1.0587333e-03   5.4024835e-04   8.2565780e-04   7.7104027e-04   1.2154195e-03   2.6648794e-04   3.7976846e-04   5.0057907e-04   1.7957521e-03   7.4992992e-04   9.8789111e-04   2.4885108e-04   8.9624146e-04   6.6403282e-04   2.8899589e-04   6.7766139e-04   5.5461511e-04   3.6395583e-04   1.9274396e-03   8.4692379e-04   2.0879798e-04   1.5534373e-04   6.7286874e-04   2.3679293e-04   7.5801497e-04   2.5095596e-04   3.9408068e-04   9.5223536e-04   6.6354446e-04   4.9366319e-04   7.4085325e-04   7.0707215e-04   8.6358230e-04  -8.5460066e-05   1.7383853e-03  -3.6879897e-04   1.9315351e-04   1.0584310e-03   4.8004912e-04   1.2131342e-03   2.9761146e-04   1.4322042e-04   4.3058515e-04   1.6455595e-04   1.0455594e-03   5.3708826e-04  -4.9456663e-05   2.5878102e-04   1.3875992e-03  -1.3149584e-04
   1.2060760e-03   4.6764396e-04   7.4602576e-04   6.9193530e-04   2.0428047e-04   1.2654091e-04   6.4287701e-04   2.3277228e-04  -3.5308397e-04   6.9199270e-04   1.0065234e-03   1.8042796e-04   8.1868353e-04   4.8761023e-04   2.3820957e-04   5.5913784e-04   5.3948100e-04   3.3225436e-04   9.5166161e-04   8.0994860e-04   1.7319056e-04   1.2773002e-04   5.2806223e-04   1.8958771e-04   8.9788475e-05   2.1517828e-04   4.0624340e-04   9.7820861e-04   6.6557265e-04   3.6036648e-04   4.2825207e-04   7.1807805e-04   5.6990312e-04   1.4409897e-04   1.1856284e-03   1.1467509e-03   1.1165002e-03   1.0312455e-03   3.8291261e-04   1.2467045e-03   3.9629979e-04   1.0493692e-04   3.1814974e-04   7.4156844e-05   1.0489050e-03  -7.7925745e-04  -2.8445758e-05   3.0465520e-04   1.3938220e-03  -1.9805566e-04
   6.2656862e-04   5.3930358e-04   8.7512872e-04   6.4548140e-04   4.7296513e-04   2.2690097e-04   8.2652649e-04   2.7794894e-04   3.1445108e-03   7.2507886e-04   9.1259793e-04   1.9293872e-04   1.0038688e-03   5.4251333e-04   4.9234042e-04   6.1798462e-04   5.3421984e-04   3.3071806e-04  -1.1463445e-03   8.5770170e-04   2.5366779e-04   2.5054262e-04   5.6551426e-04   1.1892131e-04   1.3787855e-03   2.4565979e-04   3.9592356e-04   4.7006478e-04   3.7462224e-04   4.1114015e-04   1.5438560e-03   1.8470343e-03   6.1976898e-04  -1.6989344e-04   1.5898793e-03   6.6183857e-04   1.1312172e-03   7.1139034e-04   3.7621765e-04   1.0592071e-03   4.7289659e-04   1.2417324e-04   3.8960116e-04   8.1993418e-04   1.1481547e-03  -8.2941624e-05   5.6282552e-06   2.6438115e-04   1.4594342e-03  -6.9593108e-05
   6.3148409e-04   4.7272496e-04   9.8889042e-04   7.2850473e-04   1.8815922e-04   3.5414047e-04  -8.7374247e-05   5.0174003e-04   3.8144065e-03   7.4018718e-04   9.9703891e-04   1.9600954e-04   9.5496414e-04   5.0350215e-04   3.0182410e-04   5.7288300e-04   4.3355976e-04   3.3649462e-04  -1.3923994e-04   7.7640422e-04   2.2987519e-04   2.7119918e-04   7.5893139e-04   1.3356989e-04  -1.0007438e-04   3.6255035e-04   3.7572795e-04   6.7367888e-04   9.4495510e-04   4.2521604e-04   2.1567703e-03   1.0698577e-03   3.4135496e-04   6.3138039e-05   3.2115448e-04   8.0778869e-04   1.3114028e-03   1.1738776e-03   4.1454358e-04   8.1901182e-04   2.0210371e-04   1.3042214e-04   4.2759409e-04   6.0582056e-04   9.5266470e-04   1.1778857e-03  -1.1242675e-05   3.2790384e-04   1.5239175e-03  -9.2505099e-05
   5.7650841e-04   5.2110205e-04   7.4156979e-04   8.0433820e-04  -2.3635499e-04   1.8510009e-04   5.4029026e-04   2.7738362e-05   1.7125354e-04   6.8845088e-04   9.2251354e-04   1.6480540e-04   8.7944703e-04   4.9139938e-04   5.0807442e-04   5.9722736e-04   5.8495917e-04   2.7135425e-04   3.4615325e-04   7.0728385e-04   1.7556416e-04   1.9038345e-04   6.3024281e-04   2.2752903e-04   1.0789648e-03   4.4252005e-04   3.0060043e-04   5.1365606e-04   5.5630063e-04   4.3622902e-04   9.6064270e-04   1.2784379e-03   5.6208012e-04   1.5981433e-04   1.3743469e-03  -4.7544824e-04   1.1399777e-03   6.8850338e-04   3.4980910e-04   1.7679989e-03   1.3021658e-04   1.1626148e-04   3.3165407e-04  -1.2095720e-03   1.0388156e-03  -7.2122790e-04   7.9276460e-06   3.3281220e-04   1.5061870e-03  -1.1367389e-04
   1.9847896e-04   4.9253396e-04   6.7103526e-04   5.6306284e-04   4.5550318e-04   3.4049753e-04   3.4193930e-04   5.6276855e-05   2.2381035e-04   6.7551533e-04   9.7185257e-04   1.6167366e-04   8.8411605e-04   4.2602178e-04   3.1479576e-04   5.5811176e-04   5.3028687e-04   2.7973979e-04   1.6015767e-03   7.3452888e-04   1.7896523e-04   1.7027538e-04   4.7845772e-04   1.3930602e-04   1.3950554e-03   3.7301703e-05   3.0172078e-04   7.0228003e-04   1.0496839e-03   4.9569976e-04   1.7841846e-03   1.1466537e-03   1.1591875e-03   2.3915246e-04   1.5155509e-03   1.6584017e-04   9.7996811e-04   7.9249195e-04   3.9924766e-04   1.0917753e-03   4.4955491e-04   1.8625987e-04   3.7777083e-04   2.0060444e-03   1.1259647e-03  -3.6804448e-04   5.4245225e-05   3.5337749e-04   1.5509818e-03  -9.8615692e-07
   1.0404887e-03   5.2007695e-04   5.5529963e-04   7.5541995e-04   1.1423523e-04   2.9646521e-04   4.5649646e-04  -1.2441546e-04  -4.4092681e-04   7.2598649e-04   1.0165717e-03   1.6527715e-04   9.4295345e-04   4.4772739e-04   6.1219436e-04   5.4045219e-04   4.9810862e-04   3.9627426e-04   1.7500331e-03   7.9115044e-04   2.1619730e-04   1.3723770e-04   9.2016341e-04   2.5343100e-04   9.8554231e-04   1.5149704e-04   1.7081693e-04   7.1003463e-04   9.2305068e-04   5.4624438e-04   4.9699406e-04   1.1343900e-03   4.8102927e-04   1.0676731e-04   3.0407539e-04   1.1242484e-03   4.5214975e-04   7.2355272e-04   3.6599036e-04   1.7007572e-03   2.6776883e-04   1.7848937e-04   3.5659381e-04   1.8540364e-04   1.0625779e-03   1.7646122e-04   8.8184206e-05   3.0379242e-04   1.3982720e-03  -7.6458826e-05
   6.9483987e-04   4.9385789e-04   8.8634348e-04   6.6367205e-04   5.6228723e-04   3.2736378e-04   2.1723806e-04   6.3207676e-04  -1.3025253e-03   7.1551284e-04   9.9667150e-04   1.6325015e-04   9.2355767e-04   4.5415864e-04   6.1092566e-04   5.8394659e-04   5.2695599e-04   3.2247289e-04   6.8899465e-04   8.4123487e-04   1.8680532e-04   1.9898395e-04   3.7593197e-04   2.5785403e-04   1.2011246e-03   2.0644243e-04   3.4412357e-04   6.5751275e-04   4.6630643e-04   4.4202266e-04   1.3904920e-03   1.1182789e-03   9.2749734e-04  -1.9387140e-04  -5.3265138e-04   1.5691224e-03   3.0961630e-04   1.0337743e-03   3.7323928e-04   9.5624215e-04   5.2847771e-04   1.6194003e-04   4.6976178e-04  -2.8999233e-05   9.2762272e-04  -8.1016609e-05   1.2182719e-04   3.3970529e-04   1.5075048e-03  -7.2445131e-05
   3.5892893e-04   5.0136814e-04   7.8007736e-04   7.5666385e-04   5.6103693e-04   5.5935059e-04   6.0634618e-04   2.9680325e-05  -1.2237588e-03   6.7260640e-04   1.0647773e-03   1.2972328e-04   9.0593292e-04   4.7778117e-04   3.2607262e-04   5.9601560e-04   4.5475375e-04   3.1044779e-04  -4.1079754e-03   7.9572020e-04   1.4700126e-04   1.3014917e-04   4.8368296e-04   1.2356498e-04   1.2387515e-03   1.1303488e-04   3.5502115e-04   7.7149190e-05   1.1203304e-03   4.2230578e-04  -9.3644258e-04   6.3494698e-04   8.1803487e-04  -2.4943665e-04   2.1830203e-03  -5.0358496e-05   1.6169047e-03   9.3959930e-04   4.1392888e-04   1.1674826e-03   4.9219077e-04   1.2847275e-04   3.3988137e-04   8.2913152e-04   9.9650060e-04  -6.6261372e-04   1.1159460e-04   3.1203945e-04   1.6876339e-03  -5.2891970e-05
   7.5342815e-04   4.6705038e-04   6.8630825e-04   5.9973024e-04   4.5065736e-04   5.4601143e-04   8.9801569e-04   3.5590213e-04   3.7296985e-03   7.3237222e-04   1.0064087e-03   1.6773581e-04   8.8945351e-04   4.7174172e-04   2.8272747e-04   5.4842461e-04   4.2391653e-04   2.7311392e-04   5.6422589e-04   7.9851667e-04   2.1202161e-04   1.7961588e-04   3.8973216e-04   1.5481713e-04   6.0420949e-05   1.4304915e-04   2.7333540e-04   3.8071704e-04   1.1019286e-03   3.6568439e-04   2.5482432e-03   6.8535568e-04   5.8106909e-04  -2.8003446e-05   1.9198107e-03   1.9496842e-04   1.0560838e-03   3.3663926e-04   3.9821476e-04   1.1883473e-03   1.9874703e-04   1.9443760e-04   4.3798218e-04   6.1227701e-04   1.0178608e-03   9.0718007e-04   1.1421479e-04   3.9643669e-04   1.5893157e-03   1.5807846e-05
   3.9901564e-04   4.3523329e-04   5.8945169e-04   6.0384837e-04   4.7741094e-04   3.3471885e-04   5.3051219e-04   2.5189252e-04   1.5306667e-03   7.5424835e-04   9.8919868e-04   1.9714423e-04   9.7731862e-04   3.5825704e-04   6.2818802e-04   6.8894849e-04   5.6502939e-04   2.9792087e-04   3.9631571e-03   7.0880842e-04   2.1313890e-04   1.4162292e-04   3.9344872e-04   1.6378018e-04   9.6170377e-04   2.1288959e-04   4.2476124e-04   7.5718766e-04   7.4490893e-04   4.6360015e-04  -8.2110561e-04   1.3245447e-03   7.6215394e-04  -3.8782975e-05   2.1996646e-04   1.1387907e-03   1.5794720e-03   8.0848346e-04   4.1571376e-04   7.8423554e-04   3.5807944e-04   1.4943977e-04   3.1228780e-04   1.0983177e-05   9.3304575e-04   2.0625834e-05   7.6661228e-05   3.6095010e-04   1.8030062e-03   2.8278133e-05
   9.3025266e-04   4.8337865e-04   5.8799377e-04   6.9544028e-04   3.5109554e-04   3.9674647e-04   7.7154004e-04   2.4575603e-04   1.5457952e-03   7.0839544e-04   9.7978755e-04   1.6042218e-04   9.3512231e-04   5.4505985e-04   4.8154357e-04   5.9605582e-04   5.3639256e-04   4.1808683e-04   1.1961630e-03   7.7312184e-04   1.7200700e-04   1.5453334e-04   4.1636141e-04   1.7405444e-04   4.6145983e-04   2.3398014e-04   5.3091481e-04   4.4531372e-04   6.2944536e-04   3.9903095e-04   1.6038446e-04   1.3227386e-03   7.3976041e-04  -7.0494913e-05   7.5619249e-04   1.0548520e-03   2.7053917e-04   8.6978462e-04   4.3214392e-04   3.3973699e-04   3.5874126e-04   1.2964365e-04   5.3268170e-04   1.1203262e-04   1.0710559e-03   5.2851363e-04   5.4002634e-05   2.5163151e-04   1.4882048e-03  -1.1361203e-04
   7.8277959e-04   4.9784873e-04   6.5392355e-04   6.7758543e-04   3.4078625e-05   8.7759599e-06   4.3692315e-04   4.3371716e-04   5.1060284e-04   6.7524210e-04   8.9753163e-04   1.5346946e-04   9.5070439e-04   5.0653028e-04   2.0574516e-04   5.3281081e-04   5.1536330e-04   3.2914197e-04  -6.3532492e-04   7.6358329e-04   1.6466556e-04   1.3184374e-04   1.6449027e-05   2.4395356e-04   9.0211892e-04   3.0612681e-04   9.1573042e-05   4.1033069e-04   9.2069071e-04   3.3004244e-04  -3.9108334e-05   6.4945029e-04   5.3880410e-04   2.5781416e-04   1.2769029e-03   1.6590147e-04   2.6792978e-04   6.7358988e-04   3.7889832e-04   7.4272574e-04   4.2611611e-04   1.3536251e-04   3.4453461e-04   1.4363494e-03   1.0242847e-03  -7.3490839e-04   9.5884170e-05   3.4735142e-04   1.5630906e-03  -1.2685145e-04
   8.4267650e-04   5.1132898e-04   5.8065879e-04   7.2734978e-04   2.2211611e-04   5.7036575e-04   8.7860064e-04   7.9208425e-05   6.8953140e-03   7.4011832e-04   1.0004779e-03   1.8140065e-04   8.9742208e-04   5.9373904e-04   4.5521086e-04   5.8491435e-04   5.1188323e-04   3.0960125e-04   2.5647574e-03   7.2122843e-04   2.4551080e-04   1.7271108e-04   4.6732061e-04   1.1688023e-04   3.0324381e-04   1.9867523e-04   5.1054554e-05   1.0968735e-04   5.9981277e-04   4.6524388e-04   1.3487791e-03   9.4674458e-04   7.1235467e-04  -9.9512828e-05  -6.1105721e-04   3.1493351e-04   5.2398135e-04   8.4386882e-04   4.4671196e-04   7.6194626e-04   3.8411922e-04   1.4621907e-04   3.6406246e-04   2.6851958e-03   1.1373998e-03   2.6936678e-04   7.6585886e-05   3.5114790e-04   1.4127154e-03  -7.8479032e-05
   8.7675062e-04   5.5962603e-04   1.0884062e-03   7.1344583e-04   5.1466568e-04   4.1830301e-04   4.1389363e-04   4.1710600e-04  -5.4859783e-04   7.4306806e-04   1.0018210e-03   2.0674976e-04   8.9555862e-04   5.5988115e-04   4.7271143e-04   6.2085682e-04   6.7416136e-04   4.1214775e-04  -2.5650964e-03   8.2374393e-04   1.9252136e-04   2.3176047e-04   5.3072121e-04   2.0031714e-04   1.6825306e-03   3.6784189e-04   4.6280693e-04   7.4818445e-04   9.1503444e-04   3.0689663e-04   1.2585174e-03   1.4315885e-03   2.9126799e-04   1.6856918e-04   1.5780114e-03  -1.0163089e-04   1.3122621e-03   8.6192467e-04   3.7551232e-04   1.1651601e-03   4.0347621e-04   1.3803090e-04   3.7803405e-04   9.1755041e-04   9.9793880e-04  -3.0788040e-04   8.9905370e-05   2.8749707e-04   1.3786056e-03  -2.1418271e-05
   4.3834603e-04   4.6686799e-04   8.1124913e-04   6.2608661e-04   5.1300414e-04   6.1076134e-04   2.8513218e-04   3.4857303e-04   2.6538097e-03   6.8935152e-04   1.1158743e-03   2.2201502e-04   8.9673960e-04   4.6647844e-04   3.0418267e-04   6.4038346e-04   4.4019058e-04   2.6639886e-04  -8.7085253e-05   7.2690455e-04   1.5919057e-04   2.0219239e-04   3.1175723e-04   1.3766845e-04   3.2718552e-04   3.9753551e-04   1.0926032e-04   8.0449978e-04   5.0976442e-04   5.8948697e-04   6.2642625e-04   1.3421184e-03   2.7233540e-04  -5.1183353e-05   1.7823568e-03   1.1856142e-03   6.6208938e-04   8.2633359e-04   4.0976747e-04   1.3500029e-03   4.8283162e-04   1.1003429e-04   3.6771392e-04   1.6444409e-04   1.0456857e-03   2.7090153e-05   8.4331405e-05   3.4385678e-04   1.4498924e-03  -5.0326420e-05
   6.1228045e-04   5.1143649e-04   7.5804454e-04   6.8963697e-04  -2.8324164e-05   2.9824142e-04   2.5462883e-04   5.2691525e-04   2.2490020e-03   7.3547469e-04   1.0437869e-03   1.7411249e-04   8.7806821e-04   4.4466977e-04   3.3084463e-04   5.8685045e-04   4.9757888e-04   4.0247440e-04   9.7192189e-04   8.4069697e-04   2.3802316e-04   1.9868283e-04   5.9133046e-04   1.9761172e-04   9.5478601e-05   3.1581565e-04   6.1723805e-04   5.3665013e-04   9.7805134e-04   3.9463904e-04   6.5574149e-04   8.1299565e-04   2.5056748e-04   1.3134150e-04   1.1290442e-03   1.5740968e-04   1.1177085e-03   9.2332222e-04   4.1210398e-04   3.7823754e-04   4.4062754e-04   1.2051960e-04   5.0291815e-04   1.9190371e-03   1.0398194e-03   1.1445762e-04   1.6601212e-04   3.3692049e-04   1.6168163e-03   1.3396560e-05
   8.4726198e-04   4.8399699e-04   6.9193559e-04   6.9230550e-04   3.5983135e-04  -5.9930473e-05   8.2509773e-04   2.6165356e-04  -1.4462887e-04   7.3106121e-04   9.9407788e-04   1.5266416e-04   8.5592613e-04   5.3036655e-04   4.2771013e-04   5.9853116e-04   5.7140458e-04   4.1593474e-04   1.2559660e-03   7.4473105e-04   1.9874144e-04   1.8341323e-04   3.9326563e-04   1.4942988e-04  -2.7793704e-04   1.9584765e-04   3.7513507e-04   4.5192495e-04   5.3327589e-04   4.5240187e-04  -9.7643095e-04   4.1318149e-04   6.4869330e-04  -1.2789710e-04   7.5304770e-04  -6.1843275e-05   9.3729957e-04   6.2186795e-04   4.3574310e-04   1.2877425e-03   6.5568154e-04   1.6491626e-04   3.7517800e-04   6.6104963e-05   1.0573578e-03  -5.1972497e-04   1.4220404e-04   3.2461164e-04   1.4647857e-03  -4.5540735e-05
   6.9988688e-04   4.5445608e-04   7.0500857e-04   6.6659454e-04   1.2031209e-03   2.0656190e-04   5.6358962e-04   2.2594830e-04  -7.5120496e-04   6.8352686e-04   1.0607453e-03   1.5674921e-04   9.0624526e-04   4.4450440e-04   3.8207107e-04   5.3589774e-04   5.3189421e-04   3.4230284e-04   7.6435844e-04   8.0824090e-04   1.6072576e-04   1.2619398e-04   4.9667805e-04   1.8506958e-04   7.0676318e-04   6.5627057e-05   2.4148189e-04   2.1878326e-04   6.0497696e-04   2.9397378e-04  -3.4282359e-04   6.9183210e-04   4.9774471e-04   4.2818217e-05   1.2652277e-03   8.3445368e-04   9.3409704e-04   6.3266105e-04   4.5498525e-04   1.0651255e-04   1.0934286e-04   1.0770089e-04   3.8570099e-04   9.8431483e-04   1.0574524e-03   8.9869827e-05   6.8792433e-05   2.8136582e-04   1.5485261e-03  -1.4969609e-04
   1.3726031e-03   4.5272594e-04   8.4799243e-04   7.4113143e-04   1.1109540e-04   3.2667647e-04   3.5146161e-04   2.5585233e-04  -1.1251547e-03   7.2748988e-04   1.0591925e-03   1.5761555e-04   8.7650749e-04   4.4170141e-04   3.7790765e-04   5.7196501e-04   5.2150578e-04   2.7986703e-04   1.0892086e-03   7.9515571e-04   2.4129701e-04   1.6480827e-04   6.0308789e-04   3.0457793e-04   9.6502970e-04   8.0653059e-05   1.2590182e-04   4.5210522e-04   7.6425966e-04   3.5434653e-04   7.2523043e-04   8.9353236e-04   1.8439531e-04   1.0751384e-04   7.3808519e-04   6.4416474e-04   5.2647333e-04   1.0543443e-03   3.7763148e-04  -1.4904492e-04   8.4079707e-05   1.6312106e-04   4.8735895e-04   1.3010845e-03   1.0329498e-03  -6.2113407e-04   1.0285140e-04   3.1778147e-04   1.6549702e-03  -9.9743775e-06
   8.8157190e-04   5.2665308e-04   7.3021703e-04   7.1293523e-04   7.4524188e-04   4.4139361e-04   8.8733458e-04   8.1359569e-05   4.3710386e-03   7.6631166e-04   1.0377269e-03   1.8848790e-04   8.7991223e-04   5.4694590e-04   1.7262511e-04   6.3813594e-04   5.0878245e-04   4.4250963e-04   5.8116536e-03   7.8120007e-04   2.3322982e-04   1.4513289e-04   5.2814709e-04   2.7133161e-04  -4.3515707e-04   3.0651304e-04   1.4582015e-05   8.3608698e-04   7.3009764e-04   4.3370275e-04   3.2974547e-04   1.3328160e-03   3.7300840e-04  -1.3849385e-05   2.1998428e-03   1.0573675e-03   6.1043445e-04   7.3103706e-04   3.4703457e-04   1.3737611e-03   1.7734170e-04   1.1212846e-04   4.6888573e-04   6.1592140e-04   1.0610364e-03   2.8085557e-04   6.7453446e-05   3.4446636e-04   1.7257073e-03   2.2037932e-06
   1.2039741e-03   5.1460002e-04   8.0186734e-04   7.2175555e-04   5.0676404e-04   3.3910171e-04   6.7489257e-04   2.7514716e-05  -1.4885154e-03   7.4398308e-04   1.0007693e-03   1.9755792e-04   8.7546580e-04   4.8679096e-04   4.9491308e-04   5.7851308e-04   5.0964108e-04   2.5259456e-04  -7.6440256e-04   7.8313856e-04   2.1248701e-04   1.7664277e-04   5.0542032e-04   2.1465698e-04   2.7915303e-04   1.8891915e-04   3.5196272e-04   9.3050319e-04   8.8274560e-04   4.0272495e-04   8.0329533e-05   1.0394917e-03   3.8454172e-04   2.0817492e-05   1.8857858e-03   1.5552722e-04   1.2172429e-03   9.0215000e-04   4.1041596e-04   4.1393546e-04   3.4602720e-04   1.4462623e-04   3.7237609e-04   1.7898856e-03   1.1013623e-03  -7.9762431e-05   5.4754753e-05   3.7900233e-04   1.4911910e-03  -3.1776777e-05
   4.1957648e-04   4.3108713e-04   7.0029154e-04   5.5370625e-04   1.9866452e-04   4.5048349e-04   5.7005999e-04   1.6131747e-04   5.0799637e-05   7.2559027e-04   1.0701239e-03   2.2200787e-04   7.9164130e-04   4.7056432e-04   3.2471149e-04   6.5685186e-04   6.1092980e-04   1.5807062e-04   2.3414714e-03   7.4747246e-04   2.1974498e-04   1.8294460e-04   9.0154848e-04   2.6994915e-04   1.4871682e-04   1.9693121e-04   1.8694020e-04   4.7261608e-04   4.7741624e-04   3.2687397e-04   9.0099237e-04   9.6492836e-04   6.0951227e-04  -1.0677275e-06   1.4223446e-03   2.2198241e-04   2.9860486e-04   6.9456513e-04   3.7960228e-04   1.4478371e-03   4.6027033e-04   1.7452243e-04   3.4927335e-04  -1.0494619e-04   1.1009992e-03   4.6837149e-04   1.0085423e-04   3.4128697e-04   1.3883880e-03   9.2067767e-06
   5.2117527e-04   5.3119619e-04   8.8570802e-04   8.1066001e-04  -1.6182059e-05   4.8659279e-04   3.6919289e-04   4.1126175e-04   2.5194453e-03   7.6031062e-04   1.0136861e-03   2.4376724e-04   9.6204533e-04   5.9545279e-04   2.7473917e-04   7.1196753e-04   5.9326494e-04   3.4583948e-04   1.4149407e-03   7.7258091e-04   2.6459570e-04   1.6460342e-04   5.9802778e-04   2.0122013e-04   1.6444596e-04   2.6834145e-04   1.8716915e-04   1.1963417e-03   1.2449425e-03   4.0659559e-04   5.0457462e-04   4.3429356e-04   5.4436777e-04   1.0320050e-04   2.5612302e-04  -1.4596700e-04   1.1552218e-03   9.4745378e-04   3.7486668e-04   1.1129089e-03   3.9825530e-04   1.3970376e-04   3.3947782e-04   1.3902933e-04   1.0712848e-03  -1.2291734e-04   8.5608772e-05   4.2547498e-04   1.7333376e-03  -1.6119004e-05
   6.4403843e-04   5.1541481e-04   5.5557513e-04   7.2924548e-04   8.2755031e-04   4.9136486e-04   4.0998060e-04   2.5775543e-04   4.9217959e-04   7.6965435e-04   9.8472449e-04   2.3158394e-04   8.9605426e-04   5.2419491e-04   7.9539535e-04   5.5758056e-04   5.2146881e-04   3.9295602e-04   1.1663533e-04   8.2772004e-04   2.2668851e-04   2.0729080e-04   4.1122353e-04   2.1414059e-04   9.5526042e-04   2.7897971e-04   4.1262861e-04   7.5834792e-04   9.0143242e-04   4.3666587e-04   1.0559417e-03   8.6871476e-04   4.5735895e-04   1.5396961e-04   2.7174395e-04   9.3413319e-04   4.4832969e-04   1.0067230e-03   4.3414472e-04   1.3473664e-03   1.9525037e-04   8.0952886e-05   3.9931966e-04  -3.7923586e-05   1.0455876e-03  -1.4734396e-03   6.7448607e-05   3.7146790e-04   1.5459904e-03  -1.1973421e-04
   6.1794434e-04   5.2781927e-04   7.8323320e-04   6.9505989e-04   4.4465667e-04   4.2925117e-04   4.9271836e-04   5.9693394e-04   4.6862131e-03   6.9748209e-04   1.0573739e-03   1.7311635e-04   9.1453263e-04   4.2928022e-04   4.6766782e-04   6.6990394e-04   4.4090865e-04   2.9664507e-04   2.3096183e-03   7.6622050e-04   1.8298849e-04   8.3863561e-05   4.2784974e-04   1.9312525e-04   2.9612586e-04   2.4323580e-04   4.2919646e-04   1.0440683e-03   9.2310423e-04   4.5042875e-04  -3.5186601e-04   1.7432235e-03   7.4584200e-04   2.5438989e-04   5.2732188e-04  -2.1740499e-04   7.0301956e-04   9.4973686e-04   4.4895514e-04   1.4043035e-03   5.4615480e-04   1.6058293e-04   3.3126189e-04   5.3923717e-04   9.9420850e-04   6.4412889e-04   1.5327598e-04   2.9484616e-04   1.6104166e-03  -5.9191934e-05
   1.2381664e-03   4.8554799e-04   8.7674760e-04   7.5194560e-04  -2.4656407e-04   5.0384575e-04   6.2729791e-04   1.6843986e-04   3.3896067e-03   7.3876040e-04   1.1210633e-03   1.7352193e-04   9.3682890e-04   4.1036986e-04   4.2216104e-04   6.4124330e-04   5.6989264e-04   3.9166075e-04   8.8916370e-04   8.3957409e-04   2.5514781e-04   1.5383819e-04   5.1220687e-04   1.8846364e-04   2.5566990e-04   1.9311783e-04   1.0826193e-04   6.6479371e-04   6.9972849e-04   5.3540064e-04   5.6009681e-04   1.0679102e-03   5.7001819e-04  -8.5864034e-05  -2.6184032e-04   4.8350025e-04   1.4069920e-03   9.7409781e-04   3.5966773e-04   9.1014907e-04   1.2667375e-05   1.2613757e-04   5.0039584e-04  -2.4394524e-04   9.3023165e-04  -4.6981251e-04   2.2087444e-04   3.1752017e-04   1.5170887e-03  -2.2565393e-05
   1.3612314e-03   4.7025396e-04   7.8301248e-04   8.1236102e-04   1.0682372e-03   4.2740526e-04   9.6869032e-04  -1.7110585e-06   6.3544651e-04   7.5169734e-04   1.0640013e-03   1.7022650e-04   9.2710170e-04   5.1922316e-04   7.0994539e-04   5.6601880e-04   5.7690946e-04   3.4481217e-04   5.2020681e-04   8.5208437e-04   2.6369112e-04   4.7851696e-05   6.1008940e-04   6.4138192e-05   9.3583146e-04   2.0077478e-04   5.6637073e-04   8.2010089e-04   4.6093509e-04   3.5530137e-04  -2.9872090e-04   3.8629468e-04   4.7559469e-04   2.8082708e-05  -4.4058100e-04   1.5167794e-04   6.1526016e-04   9.1321516e-04   4.4139911e-04   8.6491935e-05   5.4054987e-04   1.6027053e-04   2.8525764e-04  -3.0737516e-04   9.1935962e-04   6.2604551e-04   1.8829497e-04   2.8535741e-04   1.6595677e-03   8.6626576e-05
   4.8969372e-04   4.2282630e-04   5.8375532e-04   7.1902480e-04   2.6647816e-04   3.9132123e-04   5.6312024e-04   7.2997384e-04   7.6299609e-04   7.5785758e-04   1.0959917e-03   1.8786883e-04   8.5698295e-04   3.2895527e-04   4.0626372e-04   5.2599044e-04   5.5653008e-04   3.9629964e-04   3.0610277e-03   7.7940378e-04   6.8873429e-05   1.4474222e-06   5.6500023e-04   1.7680957e-04   1.5070228e-04   3.0865928e-04   3.1238489e-04   4.7007095e-04   7.9795893e-04   5.4306595e-04  -4.7065032e-04   1.3033981e-03   1.0353182e-03  -9.1757407e-05   1.1400061e-03   1.1682594e-03   1.2603196e-03   6.2385818e-04   4.5891450e-04   1.5822544e-03   4.9995549e-04   1.6375996e-04   2.6827867e-04   1.9881227e-04   1.0154629e-03  -1.9588938e-04   1.7924230e-04   3.6574461e-04   1.3585464e-03  -7.1136834e-05
   7.2132197e-04   5.1284023e-04   7.0897047e-04   6.8135571e-04   6.0905988e-04   3.4486715e-04   6.8919337e-04   9.5184980e-05  -4.1905213e-03   8.1134972e-04   1.0139993e-03   2.4629501e-04   9.4119407e-04   3.7500405e-04   1.1840041e-04   6.7125552e-04   5.3342007e-04   4.1232019e-04  -1.3031858e-03   7.8293501e-04   2.2052866e-04   1.3943408e-04   7.4015657e-04   2.3597262e-04  -4.9431535e-04   2.4869243e-04   4.0940635e-04   2.0498836e-04   6.9720350e-04   5.0167926e-04   5.0108030e-04   4.2554660e-04   8.1059092e-04   9.9149875e-06  -2.3801791e-04   2.8506407e-04   8.6884457e-04   8.8085904e-04   4.4339587e-04   1.2049265e-03   4.1454396e-04   2.0232487e-04   4.2372799e-04  -3.7510024e-04   1.0382145e-03   6.2696415e-04   1.9209590e-04   3.8906827e-04   1.5798080e-03  -8.2065435e-06
   9.0853241e-04   4.9960666e-04   8.6581049e-04   6.8225584e-04   4.2318885e-04   6.2669948e-04   8.5537002e-04   3.0137927e-04   1.3838289e-03   8.2295015e-04   1.0651713e-03   2.6027352e-04   9.6753723e-04   5.7400099e-04   6.8196497e-04   5.8398570e-04   5.0214370e-04   3.0363648e-04   1.9588377e-03   8.2083012e-04   1.8120883e-04   5.8116115e-05   5.1551475e-04   2.4940787e-04   8.7762432e-04   4.7713696e-04   2.5808363e-04   6.2662648e-04   6.7675707e-04   4.0689963e-04   3.8548512e-04   6.6443055e-04   8.9309213e-04   1.7217257e-04   1.1401189e-03   9.0254698e-04   1.3540840e-03   9.4284199e-04   4.2621800e-04   1.6816719e-03   4.9699954e-04   2.0077695e-04   3.8169630e-04   1.2761732e-03   9.3024306e-04   3.3320591e-04   1.4873463e-04   3.3479586e-04   1.6867876e-03   2.5208137e-05
   7.4733229e-04   5.4307911e-04   9.7145711e-04   6.8929174e-04   4.0871411e-04   1.0147343e-03   4.2746015e-04   1.8366396e-04   9.0087950e-04   7.9735881e-04   1.1075441e-03   2.5797298e-04   9.1319357e-04   4.9167202e-04   2.9721708e-04   5.8208249e-04   5.1424990e-04   3.3050973e-04   3.1031144e-03   7.8479457e-04   1.6948821e-04   8.5945510e-05   6.8505638e-04   1.2801874e-04  -2.4720284e-04   1.9967230e-04   3.1789602e-04   7.8532106e-04   1.2957960e-03   5.7578139e-04   6.9789391e-04   8.7979785e-04   2.7454225e-04  -2.0802216e-05  -3.7909820e-04   8.2657667e-04   1.1775813e-03   1.0672164e-03   4.6642285e-04   1.0291311e-03   2.2033934e-04   2.1587417e-04   4.4143066e-04  -8.7580556e-04   9.4188203e-04   3.8999057e-04   1.3316931e-04   2.9885164e-04   1.5942092e-03  -5.5398800e-06
   1.0683376e-03   4.8600425e-04   6.9885695e-04   7.3936634e-04   1.8855323e-04   9.6494245e-05   9.8075531e-04   5.2419869e-04  -1.2216840e-03   8.4371580e-04   1.1300027e-03   2.7246264e-04   9.5231226e-04   5.1770575e-04   6.4019492e-04   6.5897719e-04   4.7490041e-04   4.2060544e-04   2.2538686e-03   8.1055769e-04   2.3086960e-04   1.0316492e-04   7.6389982e-04   2.1538581e-04   2.0171150e-03   1.9262770e-04   5.0799537e-04   8.5785432e-04   6.6737062e-04   4.4217453e-04   5.2202423e-04   8.4945408e-04   5.7395356e-04   2.7864423e-04   1.1193689e-05   6.6734501e-04   9.0611522e-04   1.1904665e-03   4.8430849e-04   1.0757445e-03   4.3139962e-04   2.2071463e-04   3.6168413e-04   1.0830271e-03   1.0406738e-03  -1.1632506e-04   1.8206684e-04   4.1077906e-04   1.5228257e-03   7.8952489e-06
   1.2900589e-03   5.7439104e-04   6.1185710e-04   7.5967610e-04   7.5258157e-04   5.2924018e-04   1.2109597e-03   1.8771102e-04   9.2131947e-04   8.7603857e-04   1.1761726e-03   3.1874969e-04   9.6220191e-04   6.3129060e-04   6.5532600e-04   5.9114990e-04   5.6576694e-04   3.1419515e-04   5.4429576e-04   7.8425591e-04   2.2721138e-04   1.0769258e-04   3.0780025e-04   3.4943488e-04   9.1005513e-04   3.9721039e-04   3.8437804e-04   5.0097919e-04   4.7486633e-04   5.1949744e-04   1.1304255e-03   1.1158222e-03   6.4797362e-04   1.9257957e-04   1.9533038e-03   4.0126537e-04   1.4835837e-03   8.8620087e-04   4.6191356e-04   7.5628952e-04   1.6371890e-04   2.0589323e-04   4.0079732e-04   7.5871887e-04   9.9780457e-04  -3.7124666e-04   1.6278931e-04   3.5166397e-04   1.8385006e-03  -3.7048731e-06
   4.2121988e-04   5.8694248e-04   7.3323050e-04   6.8586128e-04   5.3568766e-04   5.1943312e-04   5.8295036e-04   4.3227099e-04   2.3494733e-03   8.3697314e-04   1.1547725e-03   3.1793810e-04   9.5695542e-04   6.2826229e-04   4.2962702e-04   6.2925852e-04   5.8041845e-04   4.1164097e-04   2.4806201e-03   7.3003420e-04   2.2595830e-04   1.7455155e-04   3.1561154e-04   2.5536006e-04   2.4573808e-03   2.9861531e-04   5.1202753e-04   6.7042303e-04   9.5369795e-04   6.4050686e-04   1.5267436e-03   1.3287999e-03   5.0252245e-04  -7.4051386e-05   3.0002493e-04   6.7423849e-04   9.9681423e-04   8.5698615e-04   3.6076535e-04   1.1017688e-03   3.9506072e-04   2.2387090e-04   2.7777997e-04   3.1841340e-04   1.1502409e-03   8.4160478e-04   1.7833107e-04   3.1845286e-04   1.4970187e-03  -4.3545380e-05
   1.0329249e-03   5.5672234e-04   9.3421526e-04   7.3040987e-04   1.9345015e-04   3.8170096e-04   6.6483824e-04   4.6857173e-04   5.6723692e-03   8.0918462e-04   1.0928717e-03   3.1284738e-04   8.7878859e-04   6.8968697e-04   6.1240967e-04   5.9694250e-04   6.6453381e-04   3.4940976e-04  -3.5777732e-04   7.5950794e-04   2.1102457e-04   1.6495414e-04   2.3218719e-04   2.6700518e-04  -1.2460223e-04   2.0822366e-04   7.0835982e-04   5.6318962e-04   1.2347470e-03   4.2651154e-04   3.3785918e-04   8.2804717e-04   1.0780992e-03   1.4327055e-04   1.8802570e-03   6.8643776e-04   1.5390472e-03   8.1860647e-04   4.9840315e-04   6.8109966e-04   4.0369667e-04   2.1533199e-04   5.4509472e-04   1.2011896e-03   9.9258323e-04   5.0347514e-04   1.8468997e-04   4.0115698e-04   1.6983305e-03   6.5800086e-05
   1.0683831e-03   5.8358075e-04   6.5640931e-04   7.5022166e-04   1.2177977e-04   5.2856340e-04   7.2699937e-04   7.0957479e-04  -2.5708913e-03   8.9544395e-04   1.1546407e-03   3.7197120e-04   1.0180508e-03   6.6258310e-04   5.7203294e-04   7.1258465e-04   6.9041282e-04   4.4529961e-04   4.6798643e-03   7.7786663e-04   2.6382896e-04   1.2721161e-04   7.6877384e-04   2.5197468e-04   1.2803728e-03   2.3123737e-04   4.5086877e-04   8.3781139e-04   5.6283665e-04   4.2568456e-04   6.4749666e-04   8.1655825e-04   7.9742551e-04   6.8178255e-05  -6.4177520e-04   1.0447485e-03   2.0358691e-03   1.2060963e-03   4.4792323e-04   3.8946909e-04   1.9287717e-04   1.9235881e-04   3.5745182e-04   6.5429596e-04   9.8103774e-04  -7.6309138e-04   1.8649420e-04   4.1840304e-04   1.5886675e-03  -6.4602289e-05
   9.1588253e-04   5.8602332e-04   6.9655443e-04   8.0797850e-04   2.2651123e-04   3.6803255e-04   3.4909585e-04   5.6764821e-04  -2.5903402e-04   9.0058689e-04   1.1523060e-03   3.8409379e-04   1.0430504e-03   6.0090329e-04   6.4128084e-04   6.6921994e-04   6.9567026e-04   4.8661855e-04   2.5832376e-03   8.3766435e-04   2.5274890e-04   1.4381442e-04   8.2801882e-04   4.0842043e-04   1.1166806e-03   2.7027683e-04   5.7300867e-04   4.9721968e-04   9.4571203e-04   3.8976732e-04   5.1336654e-04   1.5146551e-03   1.2237661e-03   4.1669430e-04   1.8364566e-03   8.3537394e-04   1.3711777e-03   7.0278195e-04   4.8093728e-04   1.2223064e-03   1.6640032e-04   2.1963610e-04   4.0302877e-04   6.2857325e-05   9.8509749e-04   5.4953748e-04   1.8728402e-04   3.5484164e-04   1.7532526e-03  -8.7237735e-05
   8.9476915e-04   6.0114672e-04   6.9863437e-04   6.2854891e-04   3.4409991e-04   3.5619977e-04   1.0558545e-03   3.0883419e-04   3.7511827e-03   8.7424903e-04   1.0793622e-03   3.8031026e-04   9.4096432e-04   6.4308313e-04   6.9319503e-04   7.5298618e-04   6.3363381e-04   4.0154989e-04   1.2598696e-04   8.0003793e-04   2.2065324e-04   1.6151670e-04   6.5043359e-04   2.6194812e-04   6.6516781e-04   3.3872528e-04   6.8578625e-04   9.0514962e-04   1.0155163e-03   6.3697202e-04   4.9675239e-04   1.1658198e-03   6.2141975e-04   2.9125929e-04   1.4261141e-03   1.1715953e-03   8.3184650e-04   5.9221196e-04   4.9761496e-04   1.2276064e-03   2.5225259e-04   2.1382372e-04   4.4406988e-04   1.7039067e-03   1.1631169e-03   7.2231967e-05   1.8709216e-04   4.4025734e-04   1.6741325e-03   1.6489375e-05
   4.8778069e-04   6.2946731e-04   4.5527477e-04   8.5068046e-04   4.8510591e-04   8.9937449e-04   8.0168113e-04   4.1137403e-04   2.6880791e-03   9.1046025e-04   1.1408051e-03   3.9235572e-04   1.0516064e-03   6.7815883e-04   5.8956747e-04   6.5685413e-04   7.7419012e-04   4.9058086e-04  -7.7826111e-04   7.9401140e-04   3.4171506e-04   2.2505711e-04   8.8205340e-04   3.5646232e-04   1.1784437e-03   4.1068529e-04   3.5533911e-04   8.7885675e-04   7.4717239e-04   4.2409106e-04   5.3696061e-04   1.8227075e-03   8.8256306e-04   1.3283596e-04   3.5692901e-05   3.6095522e-04   3.8668880e-04   1.0174195e-03   4.8136679e-04   5.1234459e-04   5.0541031e-04   2.3072374e-04   4.3873434e-04   6.6534866e-04   1.0815482e-03   1.2262487e-03   1.7531755e-04   3.9958573e-04   1.8319472e-03   3.2257936e-05
   8.7217963e-04   6.9648272e-04   7.3162309e-04   7.5432932e-04   2.1840339e-04   5.4214272e-04   9.5931842e-04   4.5782005e-04  -2.3066653e-04   8.8311231e-04   1.1338901e-03   3.8245867e-04   1.0397324e-03   6.3979905e-04   5.0660217e-04   6.3656713e-04   5.6806282e-04   3.2496310e-04   2.4893128e-03   8.4392814e-04   3.3563530e-04   2.2990878e-04   4.7844916e-04   4.5110422e-04   4.7672878e-04   3.0619718e-04   2.3784860e-04   7.8663405e-04   7.5368234e-04   5.9912377e-04   1.2712580e-03   1.6214277e-03   7.5510470e-04  -2.0556427e-05   1.8310327e-03   1.0488996e-03   1.0013587e-03   1.0072351e-03   3.5923134e-04   1.7519344e-03   1.6651665e-04   2.4297401e-04   4.5821012e-04  -2.7226668e-05   1.1533919e-03   7.4323575e-04   1.5229981e-04   3.6411276e-04   1.2965011e-03  -4.3192398e-05
   6.7900278e-04   6.8263762e-04   7.0082652e-04   8.4918336e-04  -3.6535133e-05   5.6323665e-04   8.2213507e-04   3.3165107e-04  -6.1239855e-04   8.3433039e-04   1.0988613e-03   3.7594835e-04   9.2151400e-04   7.8608067e-04   8.1165071e-04   5.9734419e-04   6.8093685e-04   4.1103218e-04   3.2085285e-03   8.3411689e-04   3.2784382e-04   2.8815534e-04   5.7428749e-04   2.4048635e-04   1.0806291e-03   3.1961157e-04   3.9079253e-04   8.0523989e-04   8.0207601e-04   6.3241628e-04   4.1458683e-04   8.2760636e-04   3.2455404e-04  -5.4727912e-05   3.6205401e-04   9.6562406e-04   1.4285486e-03   8.8271842e-04   4.5000648e-04   7.9473498e-04   3.2914581e-04   2.6905607e-04   4.5502820e-04  -6.2522688e-04   1.0052620e-03   5.8831740e-04   1.8108828e-04   3.5850526e-04   1.4712345e-03   2.3761308e-05
   9.5678947e-04   6.8466802e-04   8.6644449e-04   8.1698585e-04   3.9380873e-04   8.3148124e-04   4.6246970e-04   7.5085310e-04   1.0182318e-02   9.1044139e-04   1.1789938e-03   4.1583477e-04   9.1301400e-04   6.3097168e-04   6.4034463e-04   6.8619486e-04   6.3648296e-04   4.2192722e-04   1.4184387e-03   8.5671950e-04   3.7440358e-04   3.2367901e-04   5.9593073e-04   3.8337737e-04   7.3755544e-04   3.1729857e-04   4.5215900e-04   1.1487420e-03   9.2329585e-04   5.2291556e-04   1.1890258e-03   1.3478679e-03   6.3754088e-04   1.9686537e-04   8.6090737e-04   1.5958394e-03   2.1389467e-03   9.2676666e-04   4.2496700e-04   7.0219528e-04   1.5395942e-04   2.0801829e-04   5.4548139e-04   9.8807539e-04   1.1462057e-03  -6.7542121e-04   1.8270868e-04   3.4117486e-04   1.5282141e-03   1.8409128e-05
   9.0697332e-04   6.9404062e-04   8.8100892e-04   7.7116163e-04   9.2876324e-04   9.8580075e-04   9.9795917e-04  -3.1757383e-05   9.3863293e-04   9.0401206e-04   1.1424358e-03   4.0557192e-04   1.0790232e-03   6.3227199e-04   7.2418054e-04   7.3989504e-04   6.7334500e-04   4.4549169e-04   4.1958303e-03   8.5732626e-04   3.9198477e-04   2.8245299e-04   7.6172169e-04   3.3676083e-04   1.6064582e-03   3.7950129e-04   3.1627115e-04   6.6163315e-04   3.8974112e-04   5.3515233e-04   1.3159246e-03   1.2922352e-03   1.0778153e-03   8.1335966e-05   5.3443079e-04   2.6166966e-04   9.9446264e-04   1.0437828e-03   4.7962929e-04   5.7299627e-04   2.0606352e-04   2.0167282e-04   2.6479634e-04   2.2012310e-03   9.4054959e-04   5.6685897e-04   1.5668879e-04   3.9861057e-04   1.4463685e-03  -3.4123226e-05
   9.0095919e-04   6.7527132e-04   8.6486619e-04   1.0108787e-03   9.9853984e-05   3.3059911e-04   1.1697939e-03   6.0699193e-04   3.6111614e-04   8.5224974e-04   1.2069865e-03   4.0987774e-04   9.8231877e-04   7.0951146e-04   4.4980293e-04   6.2920467e-04   7.1822031e-04   3.7331480e-04   3.0200099e-04   7.6883339e-04   3.5320062e-04   2.7507191e-04   9.1041223e-04   3.1727512e-04   8.4716239e-04   1.9321211e-04   3.6599566e-04   7.2150666e-04   8.6754147e-04   6.0707092e-04   5.8289856e-04   7.8881247e-04   7.7992672e-04   1.1018982e-04   1.8621270e-03   1.2682031e-03   6.8665884e-04   8.8341505e-04   4.4419669e-04   7.5892755e-04   8.6262167e-05   1.9758768e-04   4.7700267e-04  -5.5403329e-05   1.0336862e-03  -2.4060751e-04   1.8885621e-04   4.4144128e-04   1.8056387e-03  -3.3778368e-05
   7.4250484e-04   7.1668747e-04   5.2608241e-04   7.4135693e-04   7.8443327e-04   4.7587199e-04   6.4877234e-04   6.2896521e-04  -1.6522628e-03   9.3072059e-04   1.1193146e-03   4.1607412e-04   1.0437819e-03   7.3922385e-04   5.9965131e-04   6.2203500e-04   6.9851492e-04   5.9324363e-04  -1.3238229e-03   8.6174114e-04   4.3126714e-04   3.9225834e-04   1.0381652e-03   3.4257062e-04   8.0025912e-04   1.9653268e-04   1.9568278e-04   9.8874187e-04   5.6173489e-04   6.7036768e-04   1.9567530e-03   1.1800551e-03   5.1421433e-04   1.1488031e-04   1.9113542e-04   1.7619899e-03   9.2006440e-04   9.2229212e-04   5.0774054e-04   1.2903149e-03   2.1747603e-04   2.1079958e-04   4.2814654e-04   4.1600244e-04   1.1708270e-03   3.8989595e-04   1.9223844e-04   4.2600435e-04   1.4047477e-03  -5.0863622e-05
