   1.9071384e-04  -4.0654686e-05   3.7015224e-04   1.3761202e-04  -7.4947957e-06  -1.7090623e-04  -1.7108166e-04   1.3287125e-05   3.6900311e-03  -4.6983052e-05   2.2986633e-04  -1.0662969e-05   8.1790233e-05   1.0413315e-04  -2.0312313e-05   1.0573813e-04   1.0571111e-04  -5.8259331e-05   2.2898968e-03   2.6387675e-05   1.2030012e-05  -7.9288780e-05   7.6173674e-05  -3.5955891e-05  -2.8168687e-04   7.9151010e-05   1.3763494e-04   8.0545688e-05  -8.8547800e-05   1.4839935e-04  -5.1165662e-06   4.5600929e-04   6.8695175e-05   2.4156929e-04  -1.2428677e-03  -5.9211260e-04   6.6736963e-04   1.7784303e-04   8.0164846e-06   1.2234047e-03   4.5217216e-06  -1.3016578e-04  -1.8307755e-05  -7.4614282e-04   4.8671431e-05   3.5173420e-04  -5.7764276e-04  -2.7693146e-05  -1.0233504e-05   3.0126990e-04
   4.9430219e-04   1.0856159e-05  -1.3498684e-04   8.1318678e-05   9.7586497e-05   2.2644833e-06  -3.3217959e-05   2.1258632e-04  -1.4552824e-03  -7.1020368e-05   2.9465298e-05  -1.5095098e-06   4.2096941e-05   2.1995518e-04   6.1124425e-05   4.5889417e-05   1.4313469e-04   1.2988981e-04   4.4861154e-04   8.4784522e-05  -4.7076064e-06  -6.1563216e-05   5.9299578e-04  -1.3710264e-05  -8.3373761e-04  -3.4559158e-05  -2.6869602e-04   4.5408448e-04   1.2457438e-04   5.7251178e-05  -4.2307956e-04   7.2024029e-04  -2.0714213e-04   2.6433720e-04  -1.6968824e-03  -9.8451768e-05   7.5852143e-04   7.6469660e-06   3.8532238e-05   1.2108039e-04   4.0206438e-04  -1.5740574e-04   5.6122717e-05  -1.3325823e-04   9.6977041e-05  -7.8663573e-04  -5.6452729e-04  -5.1868381e-05   1.0535976e-04   2.6245587e-04
   2.3192838e-04   7.1790282e-06   1.4666602e-04  -2.4298966e-04   3.6145549e-04   2.4723363e-04   1.3113787e-04   1.3217475e-04  -4.4995046e-04  -1.7635706e-05   2.0506418e-04  -1.1562097e-05   1.5430128e-04   1.4496616e-05   3.0622741e-05   1.4500621e-04   1.0680781e-04   6.4535576e-05  -2.4091548e-03   1.9290057e-04   6.8091314e-05   2.8374769e-05   2.7153004e-04   2.4396836e-06   5.1824946e-04   8.4969142e-05   2.9876083e-04  -2.8941201e-04   2.7377775e-04   1.2658173e-04   5.0957955e-04   4.6724951e-04  -1.9512790e-05   9.1344955e-05  -8.4809243e-04  -1.9739306e-04  -1.7230186e-04  -4.2111376e-05   2.0080270e-05   7.3374569e-04  -9.7311568e-05  -1.3310078e-04   1.0111878e-04   3.0262928e-04   1.7048360e-04   3.2941950e-04  -5.4446544e-04  -1.0928268e-04   8.2689672e-05   2.5763400e-04
  -1.0806890e-04   2.9867741e-05  -2.7425556e-05   1.2239460e-04   2.0701796e-04   1.4285219e-04   5.5026321e-05  -5.7593559e-05  -1.0545986e-03  -2.1527359e-05   1.2035209e-04   8.3186687e-06   5.4575099e-05   4.7001053e-05  -8.8292167e-05   1.4085874e-04   1.3176330e-04   6.0137791e-05   1.5514415e-03   7.7112127e-05   2.3069357e-05  -3.7495622e-05   1.0962007e-04   9.9774399e-05   2.9199431e-05   1.0325217e-05   9.5862677e-05   3.4884721e-04   1.0555092e-04   3.6067300e-04   3.9355169e-04   4.6067848e-04  -1.5403811e-04   1.4526906e-04  -3.0927995e-04   2.7699710e-04   2.3101167e-04   3.9473388e-04   5.0458359e-05  -7.8017049e-04   1.2431131e-04  -1.4828292e-04   1.4635957e-04  -4.7060911e-04   1.3416626e-04  -7.6929806e-05  -5.5564049e-04  -2.8450666e-05   4.2618808e-06   2.3522766e-04
   2.6839747e-04  -3.0540177e-05   5.1148385e-05   3.8479942e-05   2.3759408e-04   4.1288476e-05  -1.4407173e-04  -1.5280365e-04  -6.3825701e-04  -7.0408198e-05   2.5807351e-05   1.0019029e-05   8.3529114e-05   1.5984081e-04   5.1203660e-05   1.3845444e-04   7.3076000e-05   9.4399373e-05  -1.6039690e-03   5.9402988e-05  -1.7123704e-05  -1.2374241e-04  -2.4179561e-04   9.8578726e-05  -7.0731575e-04   4.3473203e-05   8.3937914e-05  -1.6901373e-04   7.6214601e-05   1.4793046e-04  -4.5567384e-04   2.1035734e-04  -1.9922290e-05  -8.4518957e-05  -6.1554380e-04   2.0273063e-04   1.2016911e-03  -2.9649664e-04   1.1006042e-05   2.9462291e-04   1.1832800e-05  -1.6047721e-04  -4.7376279e-06   6.2569772e-04   2.7157672e-04   1.8800762e-04  -5.3272181e-04  -6.4448242e-05   1.2683088e-04   1.5748988e-04
   4.3288692e-05   2.7650871e-05   4.1936885e-04   9.2915216e-05   5.7769392e-04   4.1501573e-04  -1.6036966e-04   4.3235172e-04  -9.6471753e-04  -3.6317954e-06   1.0247916e-04   2.1303362e-05   1.5770955e-04   1.0881734e-04   1.6786717e-04   1.4143479e-04   1.4696017e-04   9.3853414e-05   3.8902038e-03   1.6072553e-04   7.6439457e-05   6.2604076e-06   1.0049470e-04   4.0723415e-05  -3.3710161e-04   1.1042599e-04   2.4861557e-04  -1.1390779e-04  -5.4338924e-04   2.4890277e-04   3.2987521e-04   4.9787585e-04  -6.2555962e-05   1.4987777e-05  -1.8132039e-04   1.3573999e-03  -3.8692731e-04  -1.8740950e-04   1.9221505e-05   8.5573189e-04   1.0327542e-04  -1.1023457e-04   1.4859660e-05   2.9068295e-04   4.0925199e-05  -7.9523170e-06  -5.0963793e-04  -1.9837315e-05   2.4487212e-04   2.1120076e-04
  -4.4322424e-04   3.7914531e-05   3.4556157e-07   5.1657462e-05   3.6064826e-04   2.5798273e-04   4.0456757e-04  -1.7453950e-04  -1.9134152e-03  -2.2794382e-05   1.4138225e-04   1.3132923e-05   2.2696052e-04   1.5557453e-04   5.3836462e-05   1.1786898e-04   1.4841904e-04   1.4201288e-04   1.2537239e-04   1.2251566e-04   4.1818392e-05   7.5475400e-06   2.7345316e-04   3.7238486e-05   8.4319402e-04  -5.4203363e-05   2.0880044e-04   7.5743577e-05   2.9471840e-04  -1.2966999e-04   9.8968938e-04  -1.5179442e-04   1.4187109e-04   6.0254617e-05   2.0093880e-04   2.9053216e-04   9.5967109e-05  -3.4017554e-05  -3.5482287e-06   4.6811765e-04   7.6104487e-05  -1.1753508e-04  -1.0091611e-04   1.6423562e-04   6.1591942e-05  -7.8353315e-04  -5.3553644e-04  -9.0027897e-06   1.1662563e-04   2.9395902e-04
   6.2350875e-05   6.8165619e-08   1.0304087e-04   7.2067152e-05   5.7235698e-05   4.4616903e-05   1.1253242e-04  -2.0141223e-04   4.2757741e-03  -4.5138542e-05   1.9889476e-04   1.7220429e-05   5.3836626e-05   1.4311350e-04   2.2151093e-04   1.3540818e-04   1.2813385e-04   5.3012678e-05   1.3080151e-03   5.9628590e-05   7.9651090e-06  -7.3464536e-05   3.9748116e-05   2.1378723e-05  -2.9658157e-04   1.3979523e-04   3.3555826e-04   4.7341801e-04   2.7708622e-04   2.0752304e-04  -1.5991215e-04   5.1265286e-04   8.2826846e-05   1.6911230e-05   1.8842917e-05   6.1859650e-04  -2.8732608e-04  -5.2128908e-05  -5.0394643e-05  -4.5503304e-05  -6.8125904e-05  -1.6882065e-04   1.3701190e-04  -1.0766108e-03   3.6465110e-05   1.5259102e-04  -5.4137950e-04  -6.6071254e-05   1.7144503e-04   1.2525047e-04
   5.4212906e-05   3.5503581e-05  -2.3228344e-05   1.1069629e-04   1.0397402e-03   6.3830853e-04   8.8947134e-05  -1.1265385e-04   1.8378405e-03  -2.3097866e-05   1.9689223e-04  -4.0982268e-06   1.0220962e-04  -2.6719496e-05   1.4482201e-04   5.8904574e-05   1.5709084e-04   6.5409433e-05   1.0753435e-03   1.1386095e-04   5.0530358e-05  -5.0819053e-05   1.8856036e-04   6.9869231e-05  -2.2901769e-04   1.3321551e-04  -1.8969271e-04  -3.2139673e-05   1.6985375e-04  -7.7715947e-07   1.3180285e-03   3.7347552e-05   1.9079984e-04   1.4789808e-04   9.3989751e-05   3.9293204e-04   5.5738766e-04   6.4173677e-05   1.2848892e-05   6.8441288e-05   2.7670631e-05  -9.4710747e-05   2.3775731e-04   6.5754903e-05   1.3073545e-04  -8.3147432e-04  -5.0406455e-04  -4.7448182e-05   3.6384759e-04   2.3001808e-04
   4.7337649e-05   7.7895631e-05   1.8567826e-04   1.4684696e-04   1.6840101e-04   1.3546486e-04   4.3101786e-04   4.2433772e-04   6.6826833e-05  -4.1725576e-05   2.4156972e-04   2.1923550e-05   9.1803369e-05   8.4700798e-05   2.0632884e-04   1.2657777e-04   9.6193042e-05   2.2327997e-04  -1.8946679e-03   9.9393976e-05   5.4242966e-05  -7.0747149e-07   2.4005049e-04   6.6741168e-06   1.0597854e-03   6.5840344e-05  -1.5913616e-05   3.3033741e-04  -2.6130036e-04   8.9483969e-05  -8.1532169e-05   8.3077961e-05  -8.7698587e-05   1.1708434e-04  -7.7874330e-04  -2.3480265e-04  -5.0419755e-04  -1.0166482e-04   1.6389049e-05   1.5142775e-04   1.5658828e-05  -1.0875108e-04  -3.5647347e-05  -5.4004975e-04   1.6853731e-04   9.9554491e-05  -5.1189307e-04  -6.0445914e-06   8.7474080e-05   3.1957272e-04
   1.4230162e-04  -7.8601606e-06   3.0419865e-04   6.9426809e-05   6.9551734e-04   2.8889781e-04   4.0697905e-05   1.7763852e-04   1.4956382e-03  -4.5427962e-05   6.8266199e-05   2.4175661e-05   1.2847834e-04   2.3791562e-04  -2.6088015e-05   6.7346227e-05   1.2032700e-04   4.5011850e-05  -1.2282773e-03   5.7949666e-05   3.1781528e-05  -9.2319409e-05  -1.2225678e-04  -4.9568975e-05   1.9149377e-04  -9.9627061e-05  -6.5596163e-05   1.2652139e-04   3.2219090e-04   1.2114568e-04   1.0515505e-03   3.0843358e-04   1.2277460e-04  -2.1873377e-05  -1.0616225e-05   3.6182188e-05   1.2705586e-03   4.2500990e-04   5.1595176e-05   6.3390046e-04   5.7701927e-05  -1.0818944e-04   8.9704154e-05   1.6055690e-03   1.7614970e-04   3.5713697e-04  -5.1640521e-04  -8.8069610e-05   1.9098113e-04   2.5367839e-04
  -2.3633114e-04  -3.6501785e-06   1.6545060e-04   5.8063903e-05   2.4253774e-05   1.9506466e-05  -4.5999591e-04  -3.7674639e-05  -1.3958901e-04  -6.7066103e-05   1.9329951e-04  -8.9153746e-06   7.6113582e-05   1.2916401e-04   6.0481681e-05   3.8588565e-05   1.4994401e-04   6.4682616e-05  -4.9708056e-04   1.0129177e-04   1.3439553e-05  -1.0349666e-04   3.2112337e-04   3.0315873e-06  -6.2175305e-04   2.0162277e-04   3.3163774e-04   1.2252148e-04   5.1732623e-04   2.6246425e-04  -8.1536182e-06  -3.6162219e-04  -4.0043733e-04   3.0764597e-04  -1.0482179e-03   3.2998269e-04   8.5575841e-05  -2.4268246e-04   4.8344642e-05   3.8813762e-04   2.0406205e-04  -1.5933135e-04  -7.6602017e-05   7.0288597e-04   2.1560090e-04   5.4797347e-05  -4.9161259e-04  -1.0192043e-05   9.1492206e-05   2.6599894e-04
   2.3363030e-04   5.0112987e-05   2.5014606e-05   1.9299197e-04   3.3693093e-05  -2.2107974e-04   2.4305294e-04   3.1303719e-04   1.5784681e-03   3.4180000e-06   6.2070110e-05  -7.4748294e-07   1.1355391e-04   4.7040019e-05  -3.2993936e-05   5.8586364e-05   5.8493912e-05   5.6267138e-05  -1.4213342e-03   1.6032683e-04   5.8977093e-05   5.0310618e-06   1.1118731e-04   1.0376846e-04   3.8978702e-05  -1.1440618e-04  -9.2966737e-05   2.5386736e-04   8.3447136e-05   1.7715484e-04  -2.1855006e-04   1.8259838e-05   2.0063132e-04   1.4860280e-04   2.9014231e-04   1.5226046e-04  -1.3167236e-04   1.1345070e-04   1.7326403e-05  -5.3551845e-05  -1.1361851e-04  -1.2790760e-04   1.3825097e-04  -3.1678018e-04  -7.4667172e-05   6.6447485e-04  -4.8742400e-04  -9.8900932e-07   2.2927379e-04   2.1576429e-04
   7.8843860e-04  -1.6965680e-06   8.9685251e-05   6.5753920e-05  -3.8418773e-04   5.1057108e-05   7.6620153e-04   2.6409389e-04  -2.4691483e-03   9.1242799e-07   1.5998339e-04   2.0446654e-05   2.1778446e-04   2.4135725e-04   1.8531703e-04   1.6517602e-04   1.0724509e-04   5.4306198e-05   2.1112985e-03   1.1274515e-04   3.3749235e-05  -4.8196209e-05   2.6119794e-04  -1.3489179e-04  -9.7631993e-05  -4.3856002e-05   1.7305142e-04   2.8935613e-04   3.5542573e-04   2.3268498e-04   2.2978132e-04   7.1652239e-04   4.0718445e-04  -3.9214625e-05   3.9924419e-04  -2.5729946e-04   1.1968781e-03  -2.0751965e-04   1.4537396e-05   4.5049601e-04   2.5150200e-04  -1.0176096e-04   1.5689696e-04   2.2129265e-04   1.3151407e-05   5.2684813e-04  -4.8668258e-04   5.5901972e-05   3.1030105e-04   1.4793396e-04
   2.6187696e-04  -4.1173112e-06   4.4023327e-05   2.5886262e-05   1.6901489e-04   2.4757581e-04   5.5069202e-05   8.5531610e-05   8.3465799e-04  -4.8792037e-05   1.9905911e-04  -7.5128319e-06   5.8258120e-05   1.6549231e-04   1.4597137e-04   1.1021771e-04   1.4279326e-04   1.3058766e-04   1.1715357e-03   1.3453602e-04   1.0253904e-05  -7.2542898e-05   1.5408303e-04  -1.8271927e-05   2.0639654e-04   2.2976038e-04   2.1601820e-05  -1.1848630e-04   2.0858187e-04   3.2929055e-04   1.8556627e-03  -4.6928361e-04  -2.0868890e-04   2.7780622e-04   5.1631464e-04   1.1933531e-03   7.0641591e-04   1.9058349e-04   6.0905266e-05   8.8890680e-05   1.1168584e-04  -1.3773043e-04   2.7969880e-05  -6.2343146e-04   1.3625718e-04   7.1740628e-04  -5.1002542e-04  -5.5560191e-05   1.0628609e-04   2.3382354e-04
   5.1952584e-04   2.3597398e-05  -1.5158369e-04  -1.2573508e-05   2.6982964e-04  -4.8913425e-05  -1.1095752e-04   2.1652780e-04  -3.4604876e-03  -2.9683311e-05   2.4323024e-04  -1.0000456e-07   1.0975151e-04   1.4379522e-04   8.2653867e-05   1.1351277e-04   1.0587728e-04   5.0409824e-05  -2.8961150e-03   7.9875288e-05   5.3567281e-05  -3.0203944e-05   6.6806865e-04   5.7087960e-05  -3.8570797e-04  -4.5750901e-05   3.7356603e-04   8.0008816e-05  -7.0968359e-05   1.4638819e-04  -1.6811921e-03  -2.6472451e-05  -1.6165353e-04   2.0261013e-04  -1.0746530e-03   1.1569837e-03   6.6004647e-04   2.1665798e-04   1.2089828e-05  -1.8034017e-04   8.8863664e-05  -1.2181836e-04   2.4734092e-05   1.1353042e-03   2.1599841e-04  -3.1512883e-04  -4.5141141e-04   4.6327092e-05   4.0152867e-04   2.3493171e-04
   5.3352519e-04   3.2961998e-05  -5.2933756e-06   8.4539846e-05   7.4169663e-04   2.8082318e-04   7.2130049e-04   6.9472058e-05   8.9529110e-04  -1.9173791e-05   1.7833336e-04   1.0977385e-05   1.3430460e-04   6.9371199e-05  -1.6513183e-04   1.3143115e-04   6.4045693e-05   1.6658478e-05   4.0410734e-03   1.6173432e-04   2.6690132e-05  -1.5571362e-05  -5.7757497e-05  -2.8654029e-05  -3.8289544e-04  -7.4609794e-05   1.7269289e-04   2.5534039e-04   5.3865140e-05   1.2440172e-04   8.4474147e-04   9.1666581e-05   1.1755612e-04  -4.9726259e-05   1.0863256e-03   2.1760061e-04   7.8037393e-04   1.4590015e-04   7.1969567e-05   8.5561303e-04   2.1770089e-04  -7.2701710e-05   2.0910361e-06   9.7914628e-05   9.0628761e-05   1.0106806e-03  -4.7035736e-04  -1.0877668e-05   9.2695969e-05   2.4450856e-04
  -4.7069530e-06   3.0102081e-05   2.1622970e-04   4.2440715e-05  -4.4319666e-05   2.1136644e-05  -1.7638577e-04   4.9236380e-05   3.4323323e-03  -2.1004666e-05   1.9405707e-04   5.2573887e-07   5.4034899e-05   1.9403794e-04   3.3719226e-04   8.8427922e-05   2.3801756e-05   6.4070460e-05  -7.3694397e-04   1.8778958e-04   3.2516014e-05  -3.1032552e-05   1.9426738e-04   8.5952088e-05   7.0321345e-05   7.9620288e-05   9.6852364e-06   4.7816848e-04   4.7015210e-04   8.8810710e-05  -2.1336741e-04  -3.0755011e-05  -4.2029191e-04  -2.7593633e-05   3.7774787e-04   4.3989281e-04   2.3050720e-04   5.1367329e-04   8.9892666e-05   5.4284275e-05   2.1267608e-04  -9.3516268e-05   4.4850010e-05   3.6061884e-04   1.2315328e-04   5.8611837e-05  -4.7914527e-04   3.1166604e-05   1.0258963e-04   2.5983356e-04
   3.4436435e-04   2.0527385e-05   2.2224487e-05   7.8010926e-05   5.7658739e-04   2.1827834e-04   2.3505054e-04   2.4545057e-05   2.6595858e-03  -6.4680913e-05   1.3146266e-04   1.9722063e-06   3.6307280e-05   4.2734504e-05   3.3561062e-04   8.3790663e-05  -5.4813139e-05   4.9676310e-05   5.2784738e-04   6.8228845e-05  -2.1698932e-05  -7.2942326e-05   2.0334843e-04   7.1711165e-06   9.4393973e-04  -1.5777478e-04   3.9575265e-05   9.3768242e-05   1.9694142e-04   2.8433904e-04   3.5759259e-04   6.2791951e-04  -2.6600171e-04  -1.5767860e-04  -2.0816850e-03  -3.9074483e-04  -1.4458710e-04  -3.3008124e-04   7.7736193e-05   5.5096258e-04   1.4992952e-04  -9.5257252e-05   1.5403482e-04   1.1777016e-03   1.5585670e-04   1.8736570e-03  -4.5278616e-04   3.3707791e-05   1.7323325e-04   2.3148656e-04
  -2.6323122e-04   6.3713240e-05   1.3133955e-04   1.8502651e-04  -7.0491753e-04   2.9279751e-04  -5.3896198e-05  -1.9204732e-05   3.3881233e-04   1.1389176e-05   1.6143075e-04   9.8543997e-06   1.3852447e-04   1.8582171e-04  -1.3039299e-04   1.0225834e-04   1.1420089e-04   9.3868191e-05  -1.5743020e-03   1.5945855e-04   4.9279326e-05  -5.5736957e-05   7.3846236e-06   8.0459358e-05   2.5814716e-04  -2.9613268e-05   1.3346827e-04   3.2727013e-04   7.4058902e-05   1.4200098e-04  -3.1384188e-04   2.2790501e-04   2.2821852e-04   1.4069871e-04  -6.1128737e-04  -1.7261661e-04   1.2617439e-03   1.7171107e-04   1.8620367e-04  -4.9534434e-04   2.6990031e-04  -8.1626502e-05  -1.9111916e-05  -6.6914473e-04   2.7781475e-04   7.4401835e-04  -4.0900658e-04  -2.6926577e-05   1.8387983e-04   2.9081936e-04
   7.8298166e-05  -8.0451809e-06   1.5379657e-04   4.4985100e-05  -2.9886642e-04  -2.7382371e-04   9.2784634e-05   3.3179222e-04  -3.7814388e-03  -1.3225460e-04   1.9478059e-04  -9.5752199e-05   1.0017033e-04   5.6930228e-05   9.3727831e-05   9.2408402e-05   3.4788944e-05  -5.7134330e-06  -2.3387073e-04   1.0243690e-04  -1.6215823e-05  -1.3602858e-04   1.6362715e-04   5.3068979e-05   6.3880760e-04   1.2861417e-05   1.2891465e-04   7.1345159e-05   3.5571493e-04   9.0584988e-05   1.3498979e-03  -3.7703433e-04  -1.4820068e-04  -1.7415352e-04  -5.8639509e-04   1.5780763e-04  -6.3391752e-07   8.0888611e-05   1.4463822e-05  -5.6400255e-04  -7.2716439e-06  -1.1198594e-04   1.1391834e-04  -2.9466031e-04   1.2972212e-04   2.4093046e-04  -4.2425873e-04  -8.0993959e-05  -1.0049110e-04   3.6428758e-04
   3.3554545e-04  -1.4704867e-04   1.0154951e-04   5.9771181e-05   3.7191436e-04   4.6400182e-05   3.4772197e-04   1.6750269e-04  -2.1952784e-03  -1.4171247e-04   3.2702906e-04  -1.1849364e-04   6.0118226e-05  -7.4081829e-05  -1.2237694e-04   1.0222763e-04  -1.1452600e-04   9.0543712e-05   1.2977854e-03   1.4647121e-04  -7.5176838e-05  -1.0379996e-04   4.3600833e-04  -5.9137674e-05  -1.1396754e-04   3.6513673e-05   4.0609888e-05   3.7910806e-06   3.1386863e-04   8.1401027e-05  -3.3307678e-04   2.5973891e-04  -5.8156042e-05   2.1256052e-05   5.6172133e-04  -4.7062783e-04   8.3129440e-04   2.0901009e-04   6.2518768e-05   1.0630373e-04   1.2083532e-05  -6.8011948e-05   1.5745100e-04   4.2787948e-04   9.9906938e-05   2.3033012e-04  -4.1788080e-04   6.1789442e-06   2.6321539e-04   2.7392324e-04
  -1.4666280e-04  -1.0018818e-04   2.8712751e-04  -1.2782180e-05   8.6375083e-05  -2.7584500e-05   2.0008361e-04  -9.4380455e-05  -1.9622520e-03  -1.1352204e-04   3.4092218e-04  -8.5855318e-05   1.1237104e-04  -1.6350714e-05   2.4869619e-04   7.6965925e-06   1.8109493e-05  -5.8975660e-05  -2.3261644e-03   9.1251248e-05  -8.5372594e-05  -1.8954925e-04   1.3799977e-04  -1.0841253e-04   4.9199030e-04   5.3591873e-05   5.3399432e-05  -6.2935971e-05  -2.9285031e-04  -6.0578441e-05   1.0017674e-04  -1.0882918e-04  -4.9188634e-04   1.8565771e-04   7.7006326e-04  -6.1239291e-04  -3.5348730e-04  -2.4848881e-05   7.1898932e-05  -1.9759878e-04  -1.8956594e-05  -6.8255868e-05   1.5312644e-04  -1.0669278e-03   1.9571824e-04   3.9264106e-04  -3.9561989e-04   6.2985724e-05   2.1422723e-04   3.2262795e-04
   6.2887761e-05  -4.9526097e-05   3.3750309e-04   1.5741518e-05   7.3343559e-05   4.5948024e-04   6.3670923e-05  -9.7361044e-05   1.9145729e-03  -1.1768608e-04   1.4765904e-04  -1.0204356e-04   4.8091271e-05   9.3806069e-05   1.8985353e-04   1.5300389e-05  -7.8907455e-05   1.7844774e-05  -3.5445191e-04   9.0228001e-05  -8.7786975e-05  -1.6042871e-04   1.3325842e-04  -1.1634089e-04  -1.0562515e-03   1.0320981e-04   3.7548380e-04  -2.8974953e-04  -8.2845014e-05  -5.9211194e-05  -1.9998341e-04   4.5236133e-04  -2.4065253e-04   3.8785547e-05   3.7234541e-04   1.7901159e-04   8.7613525e-04   2.0339841e-04   6.5779022e-05  -4.7448970e-04   5.2756615e-05  -9.8624332e-05   1.7316570e-05  -2.5117505e-04   2.3863899e-07   4.3147657e-04  -4.1025438e-04   2.6043166e-05   3.6366019e-04   3.1300774e-04
   6.1520125e-04  -1.0212487e-04   8.5562688e-06  -2.4746518e-05   2.7998118e-04   6.9808288e-05   2.1045021e-04   3.6807108e-04  -2.5100374e-04  -1.3640244e-04   2.5459976e-04  -8.6465494e-05   6.1050741e-05  -1.0158433e-04  -2.4523228e-04   5.4284443e-05   7.6664226e-05   1.0243760e-04  -3.9584091e-04   5.2537791e-05  -1.2046388e-04  -2.0108969e-04   2.0284845e-04  -1.8760160e-04   4.1596283e-04   8.8428089e-05   6.1834246e-05  -4.7116866e-04  -1.5791460e-04   1.1677443e-04   9.5187454e-05   9.9548495e-05   1.3053716e-04   1.4824828e-04   1.1465288e-03  -2.1495279e-04   7.9332548e-04   2.6582854e-04   8.8907655e-05   2.0256561e-05   7.1848015e-05  -8.6079977e-05   4.5473025e-05  -8.5300911e-04   1.9931140e-05  -2.5224753e-04  -4.2497506e-04  -2.4433390e-05   1.6235052e-04   3.8315431e-04
   7.4044699e-05  -1.3357487e-04   1.0631482e-04  -7.2027193e-05   6.5601646e-04  -5.1965744e-05  -2.5467560e-04   1.7670981e-04  -1.3273312e-03  -9.6534750e-05   1.7218698e-04  -1.1899908e-04  -1.7605655e-05   8.6244494e-05  -6.8120724e-05   5.7354055e-06  -4.7748319e-05  -1.5593899e-04   5.2671870e-03   7.7778452e-05  -5.7546764e-05  -1.2038895e-04   3.3704733e-04  -6.0396378e-06   2.6736371e-04   6.9335299e-05   1.0108181e-04  -3.9679327e-04   1.9053716e-06  -4.2471224e-06  -1.4392869e-04  -4.5502232e-04  -1.5197425e-04  -8.8093482e-05  -1.3488528e-03  -4.0704251e-04  -6.6945527e-04  -7.0225236e-05   1.0935236e-04   1.0217134e-04   1.6569206e-04  -3.9385013e-05   5.1545379e-05   8.6463208e-04   1.5466973e-04  -3.3730580e-04  -3.6922737e-04   3.8196504e-05   2.6151739e-04   3.4248599e-04
   7.6900842e-04  -6.7517583e-05   2.1230323e-04  -9.1008522e-05   4.9174979e-04   2.8000752e-04   1.9602849e-05   1.5981852e-04   3.5091853e-03  -8.5757689e-05   1.0216079e-04  -6.9457426e-05   1.3968893e-04  -5.7428799e-05  -1.7506219e-06  -3.7836136e-05  -2.0484215e-06  -1.9603896e-05   2.3126258e-03   4.7011712e-05  -5.8337024e-05  -1.4762208e-04  -1.3286321e-04  -1.1955250e-04  -5.1997195e-04   1.5207700e-04   9.8504279e-05  -2.7852994e-04  -6.0357816e-05   3.0474251e-04   1.1552823e-03  -3.0302317e-04  -1.5496777e-04   6.5517866e-05   1.2800944e-04  -6.7174272e-04   7.5491879e-04  -6.2120416e-05   6.2785446e-05   2.1759635e-04   1.4973248e-04  -5.1355935e-05   1.3459388e-04  -3.2652979e-04   1.3251533e-04   3.7555565e-04  -3.8477310e-04   3.6899193e-05   1.5070321e-04   3.3960934e-04
   5.3043517e-05  -5.6549685e-05   1.1824876e-04   1.8388866e-05  -2.0771555e-05  -2.5500517e-04   3.6704171e-04  -2.6169568e-04  -2.5491535e-03  -9.8589859e-05   1.4165811e-04  -7.8082259e-05  -2.1069960e-05   4.4155772e-06   4.9882237e-06   3.8067046e-05   9.8205619e-06  -6.5506567e-05  -1.9281940e-03   3.9598362e-05  -9.4643598e-05  -1.4317012e-04  -1.1259813e-04  -8.8584551e-05   1.6241663e-04  -6.2173996e-05   1.6710127e-04  -3.8128943e-04   2.3135921e-04  -6.0343446e-05   1.5543985e-04  -1.1442207e-04   1.0075431e-04  -2.4820927e-05  -5.2429867e-05   1.7747092e-04   2.2544176e-04   1.8788438e-04   7.8192301e-05   1.1002645e-05  -3.1141048e-05  -7.8939345e-05   9.7309472e-05   2.9647941e-04  -8.4944288e-05   3.4830821e-04  -3.9064905e-04   1.9135656e-05   3.2720057e-04   1.6754732e-04
   2.8990742e-04  -7.1778602e-05   3.1446389e-04  -8.5390369e-05  -1.4459447e-04   1.2332624e-04   1.5110965e-04   2.2634059e-04  -2.6418405e-04  -1.3093441e-04   2.2294545e-04  -1.0623209e-04   5.6503723e-05   1.6118088e-04  -3.4841250e-05   1.0411038e-04   7.1336649e-06   2.4167648e-05   1.4992282e-03   1.6044747e-05  -8.5456399e-05  -1.5112347e-04   1.6518118e-04  -1.0255650e-04  -3.6078971e-05   1.1043972e-04   2.2958886e-05   5.7231464e-05   1.7792244e-04   1.1724846e-04   3.1828170e-04  -1.0282134e-04   6.3555672e-05  -1.4921960e-04   8.3093205e-04   4.3257352e-04   5.7746409e-05   1.9820627e-04   1.0370215e-04  -1.1245022e-04  -7.3712516e-05  -3.2374228e-05   1.4362058e-04   3.1382861e-04   2.0808334e-04  -2.3518127e-05  -3.7930903e-04   5.8552419e-06   1.8126049e-04   2.9642865e-04
  -2.6580319e-04  -1.0485857e-04   3.5673054e-04  -3.0689505e-05   3.0843503e-04   7.1421357e-07  -6.9471433e-05   1.8280291e-04   4.0010473e-04  -6.2822204e-05   1.6140290e-04  -7.7243014e-05  -4.4852935e-05   5.4869408e-05   2.7334210e-04   2.9830146e-05   7.4865438e-06   5.8778543e-05   1.6767359e-03   9.2178008e-05  -4.4962337e-05  -1.0362188e-04  -1.1261205e-05  -9.3498631e-05  -7.2744832e-04  -7.9853002e-05  -1.1057445e-04   2.4840870e-04   3.0270801e-04  -2.4482879e-05   1.0369169e-03   8.0433534e-04   2.4526506e-05   4.2992404e-05   1.1853559e-03   8.0899923e-04  -5.5191992e-04  -7.5837663e-05   4.9407172e-05   1.7637097e-04   3.8082822e-04  -4.3993572e-05   3.8833208e-05   4.7015454e-04   4.3315667e-05  -6.3752389e-04  -3.8100017e-04   1.5504510e-06   2.1491940e-04   3.1826651e-04
   7.2740833e-05  -8.8500328e-06  -1.1011881e-05  -4.6557681e-05   1.8852923e-04  -1.0872045e-04  -1.6647718e-04  -1.0005551e-04   1.1508474e-03  -6.8088462e-05   2.4866639e-04  -6.8721201e-05   6.7209607e-05  -2.4388641e-05  -3.4506927e-05   4.0429735e-05   2.8824414e-05  -1.9694249e-05  -1.7277976e-04   1.2347392e-04  -7.5350210e-05  -1.1355174e-04  -1.6471597e-04  -8.9187255e-05  -8.2711363e-04   2.1513857e-04   1.6439942e-04  -1.3434085e-04   3.9708964e-04   8.7173590e-05  -3.5867898e-04   2.9148150e-04   1.3600315e-04   1.0443357e-04  -1.5068930e-04  -2.5645137e-04   3.6931102e-05   2.3431674e-04   1.2112622e-04   3.6513319e-04   2.1349885e-04  -8.1123588e-05   1.7212075e-04   1.1034688e-03   4.7114150e-05  -1.2860323e-04  -3.8498378e-04  -3.4938876e-05   2.2644756e-04   2.3392592e-04
  -6.3725442e-05  -5.4553453e-05   1.7880592e-04  -8.5346423e-05   4.2921159e-04   4.5761928e-05   5.0642679e-04  -9.4068651e-05  -4.8753797e-04  -1.1284492e-04   1.2598625e-04  -1.0186028e-04   1.1773452e-04  -6.0286038e-05  -5.0153001e-04  -3.5692326e-05   9.3580802e-06  -3.6424026e-05   2.5901971e-03  -1.0069776e-05  -1.1463241e-04  -1.3962516e-04   3.4248331e-04   4.4362318e-05  -6.4209796e-04   8.6303247e-05  -1.2937892e-04   1.2985231e-04   1.5743557e-04   3.1877866e-05  -5.1497344e-05  -5.2408319e-05  -7.9679134e-04   1.9371782e-05   6.4660818e-04   7.9468731e-04  -4.6661761e-04  -2.1894637e-04   1.0819121e-04  -7.8422885e-04   1.0053004e-04  -5.2733383e-05   8.4024512e-05  -6.0461386e-04   6.8446774e-05   8.2625123e-04  -3.5410773e-04  -2.2418317e-05   3.9816406e-04   2.6415964e-04
   2.6449637e-04  -9.2183327e-05   8.9272144e-05  -3.5426438e-05   6.5147306e-04  -1.3010115e-04   1.0705546e-05  -6.8052657e-05  -1.5693634e-03  -5.6418379e-05   1.8584933e-04  -6.0606446e-05   1.2092091e-04   5.0198611e-05   1.3842456e-04   3.0010600e-05   9.2726623e-05   1.2618784e-04   1.5165536e-04   6.7752364e-05  -4.0200710e-05  -1.6562328e-04   2.3019878e-04  -9.8672310e-05  -2.5699960e-04   5.1693802e-05  -3.8988892e-06   4.6554208e-04  -2.3447128e-06   2.0859567e-04  -1.3307240e-04  -2.1356187e-04  -7.5098610e-06   1.0434239e-04  -1.0762890e-03   1.6425519e-04   3.8222782e-04  -6.6293615e-05   4.4602413e-05  -2.5874362e-04   1.3815747e-04  -7.7281642e-05   2.7689189e-04  -9.4713265e-04   9.2819442e-05  -2.1146690e-05  -3.7127873e-04  -4.0545634e-05  -4.3027048e-05   2.4487529e-04
   1.7740155e-04  -9.6830772e-05  -6.7893525e-05  -7.6389886e-05   7.0990872e-04   4.7687028e-04   5.6870846e-04  -1.9320566e-04  -9.2587835e-04  -6.1606668e-05   2.3128933e-04  -6.4324027e-05   1.0460384e-05  -9.7722150e-05  -2.3273659e-04   7.6540986e-05   8.4086576e-05   1.3072322e-04   1.7368667e-03   7.7372919e-05  -5.3669242e-05  -1.5477244e-04   1.8488553e-04  -1.0673035e-04   8.4319949e-04   8.4030791e-05   1.1519208e-04  -5.0644448e-05  -1.8774722e-04   1.4988890e-04   3.3666773e-04  -5.2527752e-04  -2.0482609e-04   1.7169058e-04   7.2983722e-04   8.8128255e-04  -6.7200791e-04  -3.7312717e-04   3.2878535e-05  -5.0948554e-04   6.9421425e-05  -7.8358971e-05   4.3081298e-05  -7.0026156e-04   3.1703975e-04  -1.6820089e-04  -3.7988366e-04   1.1844002e-05   1.2456258e-04   2.4042551e-04
  -6.3187814e-05  -6.4142507e-05   3.7682071e-04   4.5350371e-05  -7.9174635e-05   8.4701271e-05   4.5463952e-04  -2.5062962e-04   3.8712332e-03  -9.2345530e-05   2.3325173e-04  -5.3056017e-05   1.0774083e-04   2.7803635e-05   7.4258256e-05   3.1266231e-05   7.8841251e-05  -3.1433849e-06   1.4613139e-03  -2.1569835e-05  -8.9214605e-05  -1.3766743e-04   3.1358824e-05  -2.8307621e-05  -1.1230960e-03  -7.1291441e-05   1.2742860e-04   4.7636480e-05  -1.6072526e-04   4.2047668e-06  -1.7224582e-03  -1.3468620e-04   1.9937966e-04   2.8115537e-04  -4.3787877e-04  -1.7079613e-04  -2.8278332e-04   1.8094713e-04   5.4547021e-05  -2.2908927e-04   1.2271121e-04  -1.0083563e-04   1.0750135e-04  -4.2091598e-04   1.0276154e-04   1.1507033e-03  -3.5004850e-04  -6.9955517e-05   2.1403719e-04   1.5464419e-04
  -9.9879129e-05  -8.2858474e-05   7.9438898e-05  -8.7865847e-05   1.2990111e-04  -1.8131045e-04   9.1655464e-05  -1.4251538e-04  -2.1422433e-03  -2.6557678e-05   1.9576811e-04  -5.5537686e-05   1.3214724e-04   4.9735037e-05   1.6507592e-04   3.5068915e-05   3.2447173e-05  -5.1934098e-06   1.5129223e-03   7.9130710e-05  -4.0879095e-05  -7.5932978e-05   4.3281249e-04   1.4709986e-05  -9.8094279e-05   1.7644752e-04  -1.3749830e-04   9.4294999e-05   4.9044064e-04   1.3690263e-04   9.2015171e-04  -7.4744370e-05  -3.4742311e-04  -1.7196729e-04   3.0843422e-04   2.0482892e-04   8.6326170e-04  -3.1204222e-04   4.7672966e-05   2.0305843e-04  -3.3929606e-05  -8.0204270e-05  -1.8409917e-06  -5.2248455e-05   2.3861272e-04  -1.8521967e-04  -3.5079749e-04  -4.1343868e-05   1.7307063e-04   2.5902805e-04
   3.2222565e-04  -7.3421033e-05   7.5163502e-05   1.3700023e-04   4.7192298e-04   2.5074609e-04   2.3073202e-05  -3.0299177e-04   7.2198418e-05  -5.3376953e-05   1.8256833e-04  -6.1440260e-05  -5.1074672e-05   7.8792356e-05   2.0589690e-04  -1.6577442e-05   5.2333882e-05   3.9745923e-05  -4.6967114e-03   1.2479270e-05  -5.1493425e-05  -7.4811505e-05   2.6779601e-04  -1.0036712e-05  -1.1678057e-03  -2.9236880e-06   3.8847592e-04   1.0682099e-04   3.5738701e-04   4.7454654e-05   4.5411554e-04  -3.7127497e-04   3.0483393e-04  -2.4107540e-06  -1.0157789e-03  -2.4954212e-04   8.9824019e-04  -2.5705132e-04   1.6475829e-05  -1.4463237e-04   2.5980567e-04  -4.5548888e-05   6.2915409e-05   5.3342938e-04   7.0897600e-05   1.1389426e-04  -3.7557073e-04  -6.0514478e-05   1.2392097e-04   1.1135839e-04
   1.8013423e-04  -9.2369759e-05   9.2629001e-05  -2.1967240e-05   1.8020270e-04  -1.1236393e-04  -1.3757501e-04  -6.6391673e-05  -2.3158564e-04  -7.4418997e-05   1.5506754e-04  -4.7310463e-05   4.2758442e-05   6.6143912e-05   1.2637278e-04   2.5347887e-05  -1.0588831e-04   9.3398507e-05   2.0399687e-03   9.8675402e-05  -7.7018965e-05  -1.3357184e-04   8.5308049e-05  -9.0419635e-05  -3.6794902e-04  -9.8732657e-05  -4.9851137e-06  -9.8998767e-05  -4.1830918e-04   4.9407543e-05   9.5400016e-04   2.3217050e-04  -1.1997519e-04   7.0747592e-05   4.0330301e-04   1.2166904e-04   2.6543497e-04   1.9101590e-04   5.6369277e-05   2.2170112e-04   3.9196954e-04  -6.0360569e-05   1.7437704e-04   1.9509434e-04  -7.4082462e-05   1.5769797e-04  -3.4718425e-04  -1.2855260e-05   1.2331923e-04   1.8586768e-04
   3.1098549e-04  -6.9264774e-05   1.8250922e-04  -2.2715764e-04   4.1935148e-04  -2.2146328e-04  -2.0819163e-04   9.5750074e-05  -3.8617156e-03  -7.5578423e-06   1.4039670e-04  -3.4530665e-05   6.3022839e-05  -1.4831396e-05   2.5477580e-05   1.6234279e-05  -8.6362495e-05  -4.6143501e-05   3.6011483e-03   7.5255004e-05  -2.5235871e-05  -1.0840181e-04  -1.0766099e-04  -9.2224262e-05   1.5686776e-03   4.4504548e-05   4.0901326e-05   5.0210379e-05  -3.9948022e-04   1.1606554e-04  -2.4201677e-03   8.1253849e-05  -2.6685916e-04   1.1193281e-04   2.2633099e-04   2.9683398e-04  -1.8241184e-04  -8.9012337e-06   5.3205382e-05   2.5743264e-04   1.4646637e-04  -5.4452576e-05   1.4843750e-04   5.3289050e-04   1.6886403e-04  -1.1160303e-03  -3.3069812e-04  -2.2107022e-05   2.2417554e-04   2.2649390e-04
   2.0421339e-04  -8.9732013e-05   1.0179335e-04  -1.2815625e-05  -1.6402573e-04   2.9409758e-04   2.1555464e-04   3.7421176e-04   4.8898015e-04  -5.6200803e-05   1.5967595e-04  -3.9273807e-05   1.5767645e-04   8.7219101e-05  -7.6773191e-05   6.1867700e-05   5.1979125e-05   5.7955087e-05   1.8968477e-03   1.0046304e-04  -5.6842950e-05  -5.6715802e-05   1.2341046e-04   1.5271728e-06   7.1350158e-05   1.9991901e-05   1.1419460e-04  -1.3050245e-04  -4.0366425e-04  -3.3042346e-05   2.4430134e-04   9.7772013e-04   1.9624153e-04  -7.5327123e-05   1.3447396e-03  -2.0321315e-04  -1.0191679e-04  -1.1420940e-04   1.2790743e-04   4.6124004e-04   3.2531407e-05  -4.1674968e-05  -1.7405840e-05  -8.1436778e-04   1.0191616e-04   5.7563576e-04  -3.3856399e-04  -7.9365273e-05   6.8648398e-05   2.6204344e-04
  -5.5149879e-04  -1.0213284e-04   8.1743281e-05  -1.0239081e-04   6.8300922e-04  -3.1833095e-04   3.0571633e-04   2.5792709e-05   5.7126919e-04  -6.6627697e-05   7.5594246e-05  -5.8347192e-05   9.8614582e-06  -6.2087162e-07   1.0955923e-04   1.2844774e-05  -5.4024473e-05  -5.8123103e-05  -1.0726856e-03   7.5942535e-06  -6.7703542e-05  -1.4089824e-04   1.1723000e-04  -1.1914754e-04  -2.5001355e-04   1.4316707e-04   2.2810034e-04  -2.2262374e-04   2.1590515e-04   1.0737303e-04   6.5619743e-04  -1.6219898e-04  -2.5969528e-04  -1.4239764e-05   8.9289778e-04  -1.2164574e-04   6.2395621e-04   1.9932522e-04   2.7776960e-05  -5.5181274e-05   9.4136420e-05  -7.0635942e-05   2.2821765e-05  -4.4457018e-04   4.0113646e-05   5.2584807e-04  -3.3535439e-04  -6.1024912e-05  -1.9010932e-04   1.8153622e-04
   2.8708187e-04  -6.1832561e-06  -1.1878743e-04  -7.7509139e-05   1.6671338e-04  -9.5672396e-05  -1.8504496e-04  -9.7940399e-05   1.4553801e-04  -8.3274026e-06   2.9652496e-04  -3.8031219e-05   1.3513169e-04  -8.1221369e-05   4.4413384e-05  -5.8288613e-05  -2.5340998e-05   2.3890439e-05  -3.1722542e-03   4.9142338e-05  -1.9872448e-05  -7.2653434e-05  -1.8355055e-04  -7.2391020e-05  -8.2455277e-05   2.7801853e-04   3.5887377e-04  -2.1989537e-04   1.7995246e-06   1.6131513e-04  -6.2214502e-04   3.8994657e-04  -3.7920740e-04  -8.8734399e-05  -1.4962323e-04   3.0773450e-04   5.2393269e-04  -1.6113940e-04   6.2439540e-05  -2.2924936e-04   7.1807390e-06  -4.4936649e-05   1.2541411e-04   6.0182100e-04   2.6462118e-05  -1.5461186e-04  -3.3996877e-04  -8.6883119e-05   1.8151240e-04   1.5330368e-04
  -1.2311339e-04  -6.3839820e-05   1.5188452e-04   8.0993683e-05   8.2412316e-04  -4.4094981e-05   6.9777394e-05  -1.2439316e-04   6.6012674e-04  -2.0728270e-05   9.6257609e-05  -4.7287624e-05   6.2128442e-05   6.6567154e-05   1.5042762e-04  -3.2255546e-05   8.9059009e-05  -4.6385259e-05   2.2783051e-03   1.4219388e-05  -3.2578882e-05  -1.2828960e-04  -4.2273838e-04  -1.7523691e-04  -1.1634099e-03  -1.0881483e-04   6.3566935e-05  -1.8388710e-04   4.9433723e-04   4.5495643e-05   6.5957097e-04  -1.8621550e-04  -3.4985249e-04  -1.1951471e-04   1.5788117e-05  -7.2342961e-04   3.9136142e-04  -3.9072183e-05   3.5957997e-05  -2.5778447e-04   3.9092373e-04  -3.1054617e-05   1.1890931e-04   7.0575980e-04   2.3645736e-05   7.9065311e-04  -3.5056946e-04  -8.9902023e-05   2.9826170e-04   1.2688777e-04
   4.7650505e-04  -9.6363110e-05   1.3972422e-04  -4.8499219e-06  -6.8827544e-04   1.8299175e-04  -1.1689365e-04   2.8476887e-04   5.0030375e-04  -2.7287069e-05   1.5653299e-04  -3.2109136e-05   3.1600455e-05   6.8068489e-06  -1.4544674e-04   4.2653199e-05  -2.2391860e-05  -7.5568758e-05  -3.9894794e-04   2.5651821e-05  -6.8904745e-05  -1.5066624e-04  -7.1440954e-05  -7.2527218e-05   4.5764758e-04   7.6474833e-05   2.2389328e-04  -9.2087677e-05  -8.8869524e-04   1.0343175e-04  -9.7494718e-04   1.6440473e-04  -1.1477776e-04  -8.4356841e-05  -1.7502703e-04   2.8686761e-04   4.1928892e-05   7.3594580e-05   4.0511561e-05   2.4306257e-05   5.3453878e-05  -8.2044498e-05  -1.4007901e-05   9.6767797e-04   1.6954422e-04  -5.1773997e-04  -3.4017701e-04  -2.9142497e-05   1.6577047e-04   2.2695824e-05
   2.4802890e-04  -3.0755928e-05   9.8832657e-05   1.8341650e-06   7.4976706e-04  -1.5882080e-04   5.9630058e-04   3.2083294e-04   9.8972771e-05   1.8168541e-05   1.3440537e-04  -4.5381739e-06   1.5538528e-04  -2.9660980e-05  -1.2522045e-04  -1.9611918e-05  -6.1036488e-05  -9.9891404e-06  -1.0545303e-03   9.2879651e-05  -5.8219985e-06  -1.0320950e-04   1.6305233e-04  -1.5830513e-04  -7.9061778e-05   9.5655560e-05   1.1454926e-04  -4.5296887e-04  -5.9895046e-05  -8.3415307e-06   1.4944165e-03   2.9846290e-04   5.2742898e-06   2.2164368e-05   2.5887511e-04   9.5352189e-05  -4.8560306e-04  -8.6255532e-05   4.4666154e-05  -3.4553517e-04   2.5933475e-04  -5.1505715e-05   5.8938280e-05   1.7861107e-04   1.3805430e-04   5.1955745e-04  -3.2647600e-04  -5.8008845e-05   2.9885562e-04   1.8999059e-04
  -6.3436833e-05  -7.0642163e-05  -5.5271448e-05  -1.0012609e-04   5.2966346e-04   6.9217851e-05  -5.0146610e-04  -8.8641391e-05   1.3354371e-03  -9.9296949e-06   6.5751221e-05  -4.1313638e-06   1.9638510e-05   1.1062452e-05   2.4195670e-04  -5.2511248e-05  -2.7090935e-05  -1.0293859e-04   3.4828768e-03   4.6518158e-05  -1.8748367e-05  -1.7040074e-05   3.3224715e-05  -2.4508625e-05  -4.9963786e-04   1.7390498e-04   1.6918435e-04  -1.8217150e-04  -1.8537171e-04   1.2510475e-04  -2.7220655e-04  -1.6279747e-04  -2.6493362e-04   2.3282728e-04   7.8888214e-04   4.2171823e-04   4.4596454e-04  -1.1246249e-04   1.2068910e-04  -1.3138584e-04   1.5073481e-04  -1.2168153e-05   9.5918178e-05   1.1813068e-03  -1.3775945e-04  -4.6814099e-04  -3.2490958e-04   9.7054208e-06   1.4406638e-04   1.2993846e-04
  -1.1347804e-04  -1.1385787e-04  -1.3262955e-04  -2.0043179e-04  -5.3469144e-04   1.4869757e-04  -1.4430360e-04  -5.4846409e-05  -5.0954305e-04  -7.6105889e-06   2.0144007e-04  -1.4223810e-05  -1.0323879e-06   4.4131280e-05  -1.0013382e-04   1.1833378e-04  -4.7838224e-05   3.9912109e-05   1.7333548e-03   2.1745896e-05  -6.6282832e-05  -1.0473629e-04   1.0408658e-04  -5.8530644e-05   9.0823375e-04   9.1298425e-05  -7.7553086e-05  -2.2008301e-04  -1.5904421e-04  -6.3814936e-05   1.2307105e-05  -4.6943160e-06   3.2594672e-04   1.9969032e-06   9.0671028e-04   8.2493987e-04   1.3566056e-04   1.5798658e-04   9.0660018e-05  -4.6418552e-04  -1.2346474e-04  -4.7768230e-05  -8.1403101e-05  -8.8383630e-04  -5.1267063e-05  -3.2676890e-04  -3.4781403e-04  -1.4802002e-04   1.9190977e-05   1.4433262e-04
   4.2274405e-05  -7.8337900e-05   9.9253950e-05  -8.3321967e-05  -2.5322786e-04  -8.2476050e-05  -3.0806742e-04   4.6239133e-04  -3.7872684e-03   8.6422669e-06   9.0887326e-05  -3.1179934e-05   8.1311737e-05  -4.3067004e-05   9.4109717e-05  -4.6466277e-05  -8.0972226e-05  -8.7833781e-05  -3.8922796e-04   2.5208936e-05  -1.5384276e-05  -4.5902190e-05   2.8161658e-04   8.4181469e-05  -3.8557319e-04   1.3364108e-04  -2.3046664e-04  -1.3679708e-04  -2.1034837e-04   1.7283353e-04   1.9322623e-03   7.2759623e-04   3.1303050e-04   3.2752773e-04  -5.3976686e-04   1.1999033e-03   9.3856908e-04  -1.5167924e-04   7.4228636e-05  -8.6131989e-04   1.4824724e-04  -6.7077679e-05  -3.5958872e-06   1.1083968e-03   7.9214260e-05  -6.2841573e-04  -3.1770836e-04  -8.3411280e-05   8.9707974e-05   1.2302217e-04
   4.3941061e-05  -6.0887149e-05   4.1859388e-05  -1.8913481e-04   4.1797821e-04   4.8040846e-04  -6.0054652e-05  -1.2006584e-04  -1.3634418e-03   1.8198130e-05   8.2411825e-05  -2.7129363e-05   7.1071066e-05  -1.0683839e-04  -3.9336583e-04  -1.1184949e-06  -4.1705433e-05  -2.9597717e-05  -2.4728917e-03  -5.7757930e-05  -2.9501012e-05  -1.4097564e-05  -2.0016525e-04   4.3564934e-05  -9.2403183e-04   1.7555820e-05  -6.3887135e-05  -7.1461305e-05  -1.5816934e-04   4.6368466e-05   4.3923783e-04   4.7756088e-04   5.6136673e-04   2.2719630e-04  -8.8483983e-05   7.7247084e-04   6.1255117e-04   2.4193402e-04   4.8133126e-05  -3.0643301e-04  -2.4567844e-05  -6.3105406e-05   5.5645833e-06   8.0989389e-04  -3.8066639e-05   4.0513280e-04  -3.3012385e-04  -9.9781879e-05   4.7397112e-05   1.4827213e-04
  -8.5220620e-04  -8.0801859e-05   1.6383319e-04  -7.3983625e-05   1.2738789e-04  -1.7786454e-04   3.2672955e-04   2.1376240e-04   1.2376000e-03  -2.3409140e-05   2.0388355e-04  -2.7662019e-05   5.0957322e-05  -1.6961257e-06   7.9124293e-05  -3.3348326e-05   2.1973725e-05  -3.6612277e-05  -6.7921518e-04   7.3819203e-05  -7.1325645e-05  -1.1057855e-04   4.6849626e-04  -4.6322479e-05  -8.5537072e-04   6.1103688e-05  -8.0962156e-05   1.3114333e-04  -1.4174128e-05   7.7649231e-05   5.3073867e-04   3.1401048e-04  -7.0862523e-05  -7.2959345e-05   5.9899414e-04   1.0865906e-03  -2.3078111e-04   2.4602644e-04  -1.8924018e-05  -2.0317988e-04  -2.7919619e-05  -8.4858286e-05  -4.1987223e-05   1.6534493e-04   2.0105620e-04   1.4397535e-04  -3.1683021e-04  -5.3835844e-05   2.3623233e-04   6.6028471e-05
  -2.5035473e-04  -5.6235462e-05   1.8153394e-05  -7.8566314e-05   1.1577104e-04   5.5276691e-05   2.1386764e-04  -2.5697329e-04   4.6530170e-03  -2.3399065e-05   1.8716826e-04  -3.8577666e-05  -7.1883776e-05  -5.5213062e-05   2.8833983e-04   1.8486018e-05  -1.3361510e-04   3.7448168e-05   3.2126575e-03  -1.1557850e-05  -1.9169418e-05  -4.0245821e-05  -5.7069425e-05  -2.2867993e-05   3.9310462e-04   4.7024500e-05   6.3740052e-05  -1.6369234e-04   2.4128536e-04  -1.1170860e-04  -3.9736700e-04  -1.3366425e-04  -2.7801859e-04   1.5836638e-04  -7.0707011e-04  -1.6031462e-04  -3.2252760e-04   2.3322689e-04   9.6048701e-05  -2.0945349e-04  -3.8812624e-04  -4.5873967e-05  -7.6660377e-05   7.9217838e-04  -4.7271777e-05  -1.6859081e-04  -2.8775766e-04  -1.8903953e-05   1.1298837e-05   9.3205606e-05
   2.1952753e-04  -6.8234003e-05  -1.0098261e-05  -1.1109536e-04  -6.1397278e-04  -2.3585404e-04  -2.7289730e-04  -2.3223586e-06  -1.7465428e-04  -6.3537191e-06   2.8212904e-05  -1.9713007e-05   1.8661374e-05   3.9010447e-06   1.2525999e-04  -3.8358656e-05  -4.2496256e-05  -5.9270755e-05   3.8829464e-03   4.2604377e-05  -4.0074276e-05  -9.6834417e-05  -3.1615165e-04  -1.3514732e-04   2.0971060e-04  -2.2545351e-05   1.5164935e-04  -1.2407821e-04  -8.3568695e-05  -7.1908522e-05  -7.1513612e-05  -4.1385344e-04  -2.4013237e-04  -1.6623581e-04   1.4910651e-03   4.0067345e-05   4.4755588e-04   1.5933944e-04  -2.9686484e-05   1.2664733e-04  -1.3012122e-04  -5.5885368e-05   1.4475777e-04  -4.1212147e-04  -3.6984977e-05   6.8620575e-04  -2.9271911e-04  -7.1108712e-05  -1.5416658e-04   1.5623918e-04
   1.7610512e-04  -7.6643264e-05  -4.2437718e-05  -5.6251814e-05   3.5343855e-04  -6.8728601e-05  -3.3253254e-04   3.1473002e-04   1.3727175e-04  -8.3124187e-06   1.9487872e-04  -2.2736043e-05   3.6568308e-05   2.2781493e-05   3.3134413e-05  -1.1906143e-05   3.8076949e-05   4.2058960e-05   2.1324832e-04  -2.4412302e-05  -6.4495995e-05  -1.1351613e-04   3.2572570e-04  -5.1339168e-05  -5.8644958e-04   1.7174000e-04   1.0604034e-04  -6.0300104e-04   5.7318638e-04   5.4290562e-05  -9.2062878e-04   9.0618989e-05  -3.1952126e-04  -1.7227620e-04  -1.2685658e-04   2.8202570e-05   2.1604596e-04  -1.5625368e-04  -3.0704799e-05  -5.1761430e-04   2.0217662e-05  -6.2447747e-05  -7.8371530e-05   7.9733471e-04   1.6437843e-04  -4.8235073e-05  -3.1541346e-04  -9.7992619e-05  -2.6510542e-04   5.3483600e-05
  -1.6060485e-04  -1.1955053e-04   1.5996402e-04   3.6169917e-05   2.1397691e-04   1.0149072e-04   1.5747655e-04   4.6499255e-05   3.0943495e-03   1.4632467e-06   8.9713780e-05  -3.3140932e-05   4.2448373e-06  -1.0573891e-05   5.7043790e-06   3.0285651e-06  -6.0137842e-05  -7.9429046e-05   1.0586199e-03   5.4364660e-05  -3.7007774e-06  -4.5953606e-05   6.2612569e-05  -5.1110397e-05   5.1623276e-05  -2.6097367e-04   1.2139930e-04  -4.9256801e-04  -3.5548765e-05   1.1673229e-05  -9.6353280e-05   2.2805836e-04   2.4347455e-04  -2.7573158e-05   6.7442079e-04  -1.7893774e-04  -9.0251782e-04  -3.4140710e-05   4.5475233e-05   1.2007129e-04   7.7206380e-05  -6.0338654e-05   1.1863676e-05   2.5065232e-04   1.2164055e-05   3.0330586e-04  -2.8444247e-04  -5.3773249e-05  -4.3094901e-06   8.1652441e-05
  -3.6784913e-04  -1.2016678e-04   1.8347305e-04  -7.4487587e-05  -1.7594846e-04  -9.3346680e-05   3.1611678e-04  -2.8859882e-04   3.1035016e-03   4.5438446e-06   1.3461185e-04  -1.7162673e-05   3.9647770e-05  -7.6122662e-05   4.8069389e-05  -5.8741232e-05  -1.3651735e-05  -1.4779977e-04  -2.6531103e-03   3.9631312e-05  -1.6229627e-05  -4.4424185e-05  -1.0611364e-04  -1.0686847e-04  -1.2070322e-04  -1.5013401e-05  -1.0622189e-04  -4.4589653e-04   2.0398440e-05   1.6147589e-04  -2.5726171e-04   2.1046896e-04   3.3771172e-05   2.5496425e-04  -1.3824279e-04   8.0502330e-04   3.8796428e-04   3.1736403e-05  -5.5069413e-05  -4.9554283e-04  -2.4914180e-04  -9.4350646e-05  -1.0649280e-05  -6.6318671e-04   1.5825982e-04  -8.5252145e-04  -2.9917923e-04  -6.3581283e-05  -8.1173996e-05   5.5788740e-05
   4.1489373e-04  -8.0880396e-05   3.1517693e-04   1.1423074e-04   4.5180359e-04   1.1773821e-04   1.4271314e-04  -3.2848763e-04  -1.0315417e-03  -1.0098824e-05   1.9588452e-04  -3.5212259e-05   5.1028481e-05  -4.6761877e-05   1.9867516e-04   5.5521130e-05  -5.2269726e-05   3.3747059e-05   4.7364258e-04   4.5308178e-05  -5.0049664e-05  -7.4293181e-05   8.2601102e-05  -9.3698291e-05   5.2958768e-04   3.8038688e-05   7.0328751e-05  -2.3645491e-04   2.1222394e-04   4.6393285e-05  -3.5431402e-04  -6.7324087e-04  -7.0839742e-05  -1.0812779e-05  -1.9593500e-03   9.2574046e-04   1.0181912e-03   2.1930973e-05   5.9357295e-05   5.3216505e-04   7.2819013e-05  -1.0924150e-04  -2.5142937e-05   6.0662656e-04   7.7889134e-05   4.4422332e-04  -3.1272075e-04  -1.3822483e-04   2.9841369e-05  -1.1485074e-05
  -2.3024023e-04  -6.3777872e-05   2.4794650e-04  -1.3787013e-04   4.5402403e-04  -2.5260370e-04   1.8664115e-04   3.9488834e-05   7.9228118e-04   2.5304023e-06   1.3645091e-04  -4.4478071e-05   1.1796308e-04   1.9869505e-05  -1.5946633e-04   3.1431977e-05   7.5528455e-06  -1.0216793e-04  -1.7834031e-03   4.0628096e-05   3.4583398e-05  -4.5303990e-05   1.4194196e-04  -8.3124753e-05   3.2299772e-04   1.7863222e-05  -1.4649927e-04  -3.0347251e-04   2.0595216e-05  -3.5490069e-05  -8.5922336e-04  -2.6646504e-04   4.8634407e-04   6.5983615e-05  -1.3548581e-04   2.6946524e-04  -2.5669314e-04  -1.0981959e-04   1.0324662e-04  -4.2224495e-04  -4.7971602e-04  -5.7446778e-05   1.4414643e-04  -6.2244351e-04  -5.7433732e-05   4.1295664e-04  -2.8116608e-04  -3.4851084e-05   2.7697789e-04   6.2352265e-05
   3.2709006e-04  -9.4520437e-05   2.6219367e-04   7.9277881e-05  -6.4143198e-05  -3.6718880e-04  -2.4131239e-04  -1.2031509e-04  -1.1447138e-03  -2.6885168e-06   6.5766108e-05  -2.0383246e-05   6.8104782e-05  -2.6793557e-05   5.2059935e-05  -4.4847555e-05  -1.5976371e-05  -4.9820334e-05  -5.2972708e-04   7.1804643e-05  -8.2736842e-06   1.0992383e-05   5.2718922e-05  -3.8100495e-06  -1.4765632e-03   2.7082051e-05   7.4083502e-05   2.0055518e-04   4.1716325e-05  -1.5920078e-04   7.9937796e-05  -5.4156937e-04  -8.1968872e-05   3.1954466e-04   3.2136630e-04   4.5612204e-04   6.1325909e-04  -1.8372954e-04   6.7874989e-06   2.7579057e-04   2.0398335e-05  -1.9312249e-05   6.1184270e-05  -1.0153727e-03   1.6657959e-04  -1.1928548e-03  -2.8923739e-04  -9.9191377e-05   2.6136113e-05   1.1694043e-04
   9.9648736e-05  -1.1159432e-04   7.2573239e-05  -1.5276404e-05   9.2259826e-05  -1.5438317e-04   6.2962272e-06   1.4750827e-04   5.2637146e-03  -2.4419371e-05   9.2710608e-05  -5.6260891e-05   2.7250751e-05  -4.5706402e-05  -1.9128222e-04   2.9456776e-05  -1.7902108e-05  -7.3707590e-05  -5.1736692e-04  -5.5342920e-05  -3.8695034e-05  -5.9853201e-06   2.5279290e-04  -1.1282959e-04   7.8414037e-04  -5.8007076e-06   1.6275226e-04   4.0578339e-05  -1.2082863e-04   8.8925219e-05  -1.0796334e-03   8.5822219e-05  -1.6942418e-04   1.4412237e-04  -2.8584019e-04  -9.9735684e-05  -2.1677716e-04   1.7505768e-04   3.5614263e-05  -9.1771799e-05  -1.5095799e-05  -6.4229069e-05  -7.8696197e-05  -3.1459850e-04   1.4579286e-04   1.6057539e-04  -2.8821925e-04  -1.1557726e-04   1.0910913e-04   2.7468213e-05
   4.4553395e-05  -1.5917065e-04   1.5620138e-04  -8.1081533e-05  -2.3673665e-06   1.5651216e-04   6.8629932e-05  -1.8700957e-04   2.5974538e-03  -2.9063522e-05   6.3477702e-05  -3.1051382e-05   9.9794433e-06  -1.4654238e-04  -4.7778199e-06  -2.1050180e-05  -7.9593156e-05  -1.3559141e-04  -9.9268556e-04   8.5525877e-05  -7.7355298e-06   4.1684685e-05   2.2603796e-04  -6.5693770e-05   4.5101164e-04  -1.1567678e-04   2.5164374e-05   4.9047440e-04   8.7360968e-05   5.8990830e-05  -1.8111442e-04  -2.7240103e-04  -9.3784538e-06  -6.8431844e-05   2.4594759e-04   9.0667617e-04   1.0329533e-03   2.6358099e-04  -3.6183810e-05   9.1570051e-04   2.0156625e-04  -7.9026780e-05   1.2861863e-04  -1.2346177e-03   9.6771953e-05  -5.3941680e-04  -2.5703825e-04  -9.3269438e-05   1.2256192e-04   5.7929185e-05
   3.9765690e-04  -8.8659413e-05   6.8355868e-05   5.1379702e-05   3.0498361e-04  -2.1239457e-04   2.7916036e-05  -3.3184173e-04  -3.1383082e-03   2.9013634e-06   1.6123163e-04  -2.5638115e-05   3.0676409e-05   1.0397760e-04  -4.3915372e-04  -2.1482520e-06   1.6370910e-05  -2.2212584e-05  -1.7790514e-03   9.3841401e-05   2.0604059e-06   2.7142229e-05   6.3671177e-05  -7.7423210e-05   2.9615063e-04  -3.4462468e-05  -1.1384427e-04   5.9592426e-06  -3.1125470e-04   1.7600751e-06   9.7503005e-05   3.7037450e-04  -1.8499260e-06   2.1276976e-05   9.1912440e-04   3.7340549e-04   4.6021823e-04  -1.3091158e-04  -3.2413973e-05  -5.9518701e-04  -1.7038111e-04  -8.9887792e-05   2.2925979e-05   1.1157758e-03  -1.7416041e-05   1.5677049e-04  -2.6125924e-04  -9.3251918e-05  -3.6018981e-05   1.0206580e-04
   1.4962308e-04  -7.3542535e-05   4.6157369e-05  -7.4555639e-05  -1.0235337e-04   1.1300115e-05  -2.3072284e-04   2.6655447e-05   3.7630796e-03  -2.5252233e-05   1.7442339e-05  -1.9377867e-05  -5.5532924e-05   3.6138349e-06  -7.1157796e-05  -2.0088333e-05  -5.0728173e-05  -2.9781948e-05   1.3943556e-03   2.0540750e-05  -4.2030959e-05  -9.6420539e-05  -6.4546075e-05  -3.5502842e-05   8.1840192e-04  -5.9412268e-05  -2.8256007e-04  -2.5927104e-04  -2.5267797e-04  -5.3111569e-05   7.2500075e-04   5.6628464e-04  -6.0702212e-05   8.6654640e-05   1.1688215e-03  -4.0885665e-05  -3.8311345e-04  -1.2219948e-04   5.9665549e-06   5.1633653e-04  -3.5586764e-04  -4.4112003e-05  -3.3498509e-05   1.1002154e-03  -2.2619164e-05   4.7459936e-05  -2.8290364e-04  -1.1798044e-04   2.1797673e-04   4.8027468e-05
   2.9368428e-04  -9.1884773e-05  -2.4374358e-04   1.0697464e-04   3.0726512e-04  -2.2805214e-04   4.1111422e-04   5.6895573e-05   4.8210638e-04  -3.5639052e-05   1.6073929e-04  -5.8616613e-05   2.4973398e-05  -6.4572363e-05  -1.1862211e-04  -9.2831826e-05  -1.7646127e-05  -9.1460191e-05  -6.7811273e-04  -7.2887036e-05  -4.5548772e-05  -7.9679885e-05  -6.8435773e-05  -9.5091695e-05  -1.4803848e-03   1.0848927e-05   2.8167514e-04  -1.8048244e-04  -2.9055596e-05   2.1515823e-04  -9.0887805e-04  -3.5450343e-04  -7.8762438e-05  -3.2577234e-05  -1.3920343e-03  -9.5542106e-05   7.5220817e-04  -5.5571556e-05   2.7165437e-05   4.3080450e-04  -1.2392103e-04  -4.8646558e-05   2.5095784e-05   3.8569051e-04   1.7914963e-05  -4.8492517e-04  -2.3981371e-04  -6.4041960e-05   1.1259591e-04   8.2731138e-05
   8.4277388e-05  -1.4662104e-04   2.9678518e-05  -4.6230798e-06   8.3215529e-04   1.6349903e-04   7.2705836e-05  -5.6685160e-05   1.5326255e-03   1.5839338e-05   1.0655361e-04  -4.3275406e-05   4.9483388e-05  -4.9007846e-05   3.1464483e-04   4.4544877e-06  -3.7245885e-05   1.3732901e-04   3.5567305e-04   7.0732567e-05  -2.9166945e-06  -1.8242443e-05  -1.4041596e-05  -8.2858794e-05  -1.8014495e-03  -1.6672067e-04   9.6777017e-05  -4.9804908e-04  -4.2552315e-04  -8.2180712e-05  -1.2525350e-04   6.6579509e-05  -1.6338137e-04  -1.0210848e-04  -8.8745507e-04  -3.2097440e-05   1.9555868e-04  -1.1939059e-04  -2.2265025e-05  -8.3991617e-04  -2.2451769e-04  -9.3841052e-05   6.3143852e-05  -1.9949573e-04  -6.1088707e-05   1.2750707e-04  -2.5003360e-04  -1.4312366e-04   7.2719042e-05   1.0570023e-04
   1.0049554e-04  -1.5547908e-04  -4.2836218e-05  -9.4450261e-05   2.1443354e-04  -3.8292308e-04  -3.3156716e-04  -2.1497809e-04   3.3957891e-03  -3.5626039e-07   1.7267388e-04  -6.4668471e-05   6.2041327e-05  -1.8225976e-04   1.8852063e-04   7.0377893e-05  -7.8220124e-05   2.9013157e-05   3.4400616e-03  -3.2471929e-05  -2.6632528e-05  -1.5834017e-05   9.4183073e-05  -1.4234516e-05  -3.2037686e-04  -5.0428895e-05   2.2552938e-04   9.5514450e-05  -4.0633738e-04   1.8854042e-05  -3.6978410e-04   3.8313348e-04   2.1447938e-04  -1.8446319e-04   7.9657964e-04   3.9021988e-04  -1.3667642e-04   1.1699036e-04  -5.4550137e-06  -3.8184965e-04   9.6827644e-05  -4.3609467e-05   1.3670021e-04   1.1301958e-03   1.9272455e-05  -3.9698015e-04  -2.6395745e-04  -9.5738673e-05   7.3910596e-05   3.3703054e-05
  -5.7139009e-04  -1.4889166e-04  -1.3976432e-04  -2.5689480e-05  -1.7329649e-04  -1.6005815e-05   2.5765889e-04  -1.6968629e-04  -2.3168963e-03  -5.8815862e-05   1.8454633e-04  -5.0253515e-05  -7.2869676e-05  -9.1373739e-05  -2.3590217e-04  -4.2289583e-05  -9.4016257e-05  -1.1413137e-05   2.9894926e-03  -1.6601394e-05  -6.6119479e-05  -9.5154894e-05  -1.6729212e-04  -9.6251184e-05  -5.3569849e-04   1.3381588e-04  -1.0160265e-04  -2.5167930e-04  -2.5118404e-04  -1.0403746e-04  -4.5663907e-04   1.8668908e-04   2.9549719e-07  -4.0632436e-05  -6.6443661e-04  -5.4285617e-04  -1.2528124e-04   4.3431512e-05   2.4408822e-05  -2.8617655e-05  -3.5878096e-04  -9.8761455e-05   3.8852434e-07  -1.6209592e-04  -4.3030981e-05   8.1012047e-05  -2.6377867e-04  -1.2458554e-04  -9.0798174e-05  -3.5983936e-05
   4.6398074e-04  -1.5262794e-04  -3.4634999e-04  -4.8870854e-05  -9.6119278e-05  -2.4673663e-04   2.7709038e-05  -1.0073675e-04  -1.1317171e-04  -2.2938484e-05   1.2518997e-04  -5.1699310e-05   3.5903446e-05  -6.4077003e-06   1.2382916e-05  -1.0420386e-04  -2.8954137e-05   5.7298792e-05   1.9031475e-04  -1.1281581e-05  -2.0369838e-05  -4.1501899e-05  -4.9261033e-04  -1.2585003e-04  -1.9794294e-04  -1.0239601e-04  -1.1529640e-04  -2.6103560e-04   4.9635349e-04  -5.6244990e-05  -1.3780496e-03   4.3069149e-04   1.4517935e-04   3.3517194e-05   3.2933507e-04   1.3486904e-03  -7.9560449e-04  -8.5304397e-05   2.4704572e-05   3.9610057e-04   5.5691093e-05  -6.8871683e-05   6.5764696e-05   5.4793409e-04  -5.7870202e-05  -3.7478749e-04  -2.2359361e-04  -4.8140515e-05   1.4871488e-04   2.1675323e-05
  -4.5811423e-04  -1.1747854e-04  -1.0726012e-04   7.0176051e-05   2.5588257e-04  -3.4644824e-04  -4.6504199e-04  -2.2617898e-04   4.5198482e-05  -6.1217229e-06   7.7848774e-05  -5.4647444e-05  -1.0580548e-04  -1.5021583e-04   1.9139092e-05  -1.0957617e-04  -4.6330912e-05   1.1967592e-04   3.7051619e-03  -8.9264840e-06  -2.1509743e-05  -1.1131269e-04  -3.2427636e-04  -1.1542861e-04  -1.1210935e-03   9.0586036e-07  -6.8696267e-05  -1.4386848e-04  -2.2509173e-04  -4.4992528e-05  -9.6961495e-04   6.0922845e-05   1.3781938e-04   4.0539286e-05   7.2658673e-04   8.3871710e-05   5.9887819e-04  -4.2586622e-04   4.9982380e-05  -4.2168179e-04   1.2751621e-04  -6.0752624e-05   5.4368920e-05  -2.2492478e-04  -1.3250315e-04  -5.3740258e-04  -2.1508487e-04  -4.3513253e-05   1.2793673e-04   6.0597999e-05
  -2.0333484e-04  -1.3936289e-04   5.2870575e-05  -1.4127816e-05  -2.7473277e-04   1.3840410e-04   3.8066320e-04   1.7369351e-04  -8.7322376e-04  -5.8456124e-05   1.3683837e-04  -8.5526153e-05   2.8868981e-05   5.8891008e-05  -3.0450360e-04  -1.7126942e-05  -1.0528413e-04  -1.2684774e-04  -4.1467886e-04  -1.7468262e-06  -4.7272268e-05  -7.9787569e-05   3.9284953e-04  -2.5672956e-05   2.9859523e-04  -8.5854641e-05  -1.2580257e-04  -2.1729305e-04  -2.3883335e-04   8.4900719e-05  -2.0246569e-04  -2.7224749e-05  -1.7991864e-04  -1.8212532e-04   2.6227496e-04   5.7285135e-05   1.0939167e-04  -3.2744915e-06  -4.0870847e-05   4.3596156e-05   3.4942514e-05  -5.3695858e-05   2.8968676e-05   3.3339113e-04  -7.6329568e-05   1.5072664e-04  -2.3334239e-04  -9.1514106e-05  -7.5876982e-05   1.0920711e-04
   4.5204273e-04  -1.4914568e-04   1.3794974e-04  -1.0464097e-04   2.1976395e-05   4.5473626e-05  -1.3488065e-04  -3.2817647e-05  -1.5536344e-03  -8.7147040e-05   5.1318213e-05  -7.5338568e-05  -4.4740973e-05  -7.2536714e-05  -1.2421494e-04  -6.9773632e-05  -2.0676278e-05  -1.2921319e-04  -3.2304258e-03  -3.7125239e-05  -6.4224492e-05   1.7298311e-05  -9.1428767e-05  -3.6403362e-05   7.4423279e-04   5.3028452e-06  -8.1865641e-05  -2.3040584e-04  -3.4683340e-05   9.8384800e-05  -1.3985207e-04  -4.0772507e-06   2.1440825e-04   4.9113612e-05   1.3138303e-03  -2.5183026e-04  -5.2413455e-04  -3.8440313e-04   7.1694571e-06   4.6483806e-04   1.8363234e-04  -6.2771127e-05   3.6635509e-05  -2.4335863e-04   2.5614218e-05  -5.6292961e-04  -2.0253299e-04  -5.5811510e-05  -1.6919579e-05   4.3067499e-05
  -8.8945999e-05  -1.1293850e-04  -3.3718611e-06  -5.9779697e-05   1.0718703e-04  -3.1463493e-04   2.0594240e-04  -2.1433586e-04   3.4372264e-03  -4.2869004e-05   1.0159361e-05  -6.2339219e-05   4.3484411e-05  -3.3312710e-05  -2.6254912e-04  -7.6091557e-05   1.8811896e-05   2.8599099e-05   1.4241319e-03   3.4599204e-06  -2.3317951e-05  -4.8473499e-05   2.2236889e-04  -1.5971572e-04  -2.2458335e-05   9.0422109e-05  -3.1125027e-04   1.8526199e-04  -3.7744953e-04  -7.0869253e-05  -9.2769455e-04  -2.7897629e-05   4.0832438e-04   8.8564666e-05   8.8929257e-04   8.9194655e-04  -2.4359836e-04   2.8904341e-04   3.0303014e-05  -2.7984604e-06   8.3645667e-05  -5.0243729e-05  -1.3207427e-04  -1.2644310e-04   4.9560953e-05   8.3657529e-04  -2.2920176e-04  -2.8660816e-05   6.2028572e-05   3.6202684e-05
  -2.1832648e-05  -1.5760624e-04   1.3931081e-04  -3.2051823e-05  -1.4729256e-05  -2.5897913e-04  -2.4903959e-04  -3.1140741e-04   5.9007658e-03  -7.0775888e-05   1.0617034e-04  -6.7933295e-05  -4.5969493e-05  -7.0207214e-05  -8.7662753e-05  -6.5317821e-05  -5.1501735e-05  -6.2020561e-05   2.1742578e-03  -6.2168394e-05  -3.7157864e-05  -5.2959917e-05  -2.4505809e-04  -5.9694477e-05   2.6731138e-04  -9.9974422e-05   3.4451696e-05   1.2254948e-04  -2.1401825e-04  -1.1283346e-04  -8.4817474e-04  -2.1181801e-04   1.0789780e-04  -2.2272744e-04  -4.2857931e-04  -1.1262211e-04   1.5032332e-04  -1.7985491e-04  -2.2229418e-05  -1.7924585e-04   6.4421845e-05  -8.1384678e-05  -3.1982981e-05  -1.6780024e-03  -3.0886087e-05  -4.9283489e-04  -2.2908646e-04  -1.0372908e-04   9.8147557e-06   6.7466048e-05
   3.4347362e-05  -1.5131164e-04   2.5428968e-04  -4.1889933e-05   1.8199794e-04  -1.2477582e-04  -2.3183698e-05   2.2391151e-04   5.3896783e-03  -1.0230667e-04   1.3526145e-04  -8.5658576e-05  -1.8205717e-05  -7.0547285e-05  -1.6268305e-04  -3.1136646e-05  -7.1091577e-05  -4.8960748e-05   5.7465152e-04  -5.4665998e-05  -8.8042005e-05  -1.2691684e-04  -1.2648726e-04  -7.8858677e-05  -7.9483580e-04  -1.1477721e-04  -3.1729296e-04  -3.2248916e-04  -4.2859005e-04   1.2177662e-04   1.1535367e-03  -5.3922168e-04   1.7096192e-04  -1.0854465e-04  -3.0250772e-04  -5.0146534e-04   3.7020733e-04   1.9901852e-05  -2.3257860e-06  -4.9192994e-04   1.1805812e-04  -5.8276764e-05   6.8037269e-05   1.2642682e-03   1.1335206e-04   1.0909955e-04  -2.1576782e-04  -6.5497799e-05   3.6477335e-04   4.3499902e-05
  -3.9934489e-04  -1.4566899e-04  -8.5936619e-05  -6.1078616e-05   9.0791075e-04  -2.9489116e-04  -1.0103085e-04  -8.7114036e-05   2.8708274e-03  -4.8425485e-05  -5.8132926e-05  -7.8821256e-05  -8.2730650e-05  -1.5530085e-04  -1.2640508e-04  -6.2589752e-05  -3.3636537e-05   7.5676806e-05   1.6041459e-03   6.8783384e-06  -2.2726887e-05  -7.2656228e-05  -9.5246088e-07  -1.3380247e-04  -1.2553518e-04  -6.7849905e-05   3.2705142e-05  -3.0980402e-04   5.8062142e-04   1.0585512e-04   1.5434260e-04  -1.3527473e-04  -2.0384439e-04   5.8488557e-05  -3.7808114e-04   7.5690576e-04  -3.2862352e-04  -4.7099247e-04  -1.4067971e-05  -8.1013088e-05  -2.4142193e-04  -4.8975297e-05  -2.1589998e-05  -1.7929485e-04   3.5104465e-05  -1.3729744e-03  -2.0038112e-04  -4.5460514e-05   5.5834516e-05   1.1578844e-04
   1.9124110e-04  -1.3981167e-04   3.9361410e-05  -1.7588940e-05  -3.9600098e-05  -3.1220613e-04  -6.4738575e-05  -9.8974619e-05   7.3301961e-04  -3.6505498e-05   2.7256194e-04  -3.7175938e-05  -1.9696308e-05  -1.3523363e-04  -1.3600051e-04  -4.5112727e-05  -1.0516304e-04   4.1438841e-05  -1.7829470e-03  -2.6874884e-05  -4.0895520e-05  -3.1146639e-05   1.0388258e-04  -1.2729575e-04  -8.7562170e-05  -1.0050109e-04  -1.0336051e-04  -2.1421410e-04  -1.6856204e-04  -8.6416301e-05  -1.8183790e-05   3.5518876e-04  -3.4364706e-04  -6.4748834e-05  -5.8317883e-04  -9.9937781e-04  -9.8928181e-04   1.1524057e-05  -2.7635171e-05  -4.3371264e-04   8.5326159e-05  -6.7292160e-05   4.4883622e-05  -1.1208281e-03   1.9460458e-05  -1.1899050e-04  -2.1398017e-04  -1.2059206e-04  -1.2497192e-04   3.8705944e-06
  -5.2391621e-05  -2.1296786e-04  -1.6198219e-05   1.2099172e-06  -3.0493629e-04  -2.7653507e-05  -1.7732958e-04  -1.1886723e-04  -1.6882976e-04  -7.4173855e-05   2.4110101e-04  -3.9464547e-05  -1.3658318e-05  -9.4311297e-05  -3.0682966e-04  -1.3118709e-04  -4.4988901e-05  -9.5921307e-05  -2.4810797e-03  -4.8892609e-05  -4.8690825e-05  -1.0845038e-04   3.0750427e-05  -1.1984858e-04  -7.8348711e-04   6.7685855e-06   2.2704099e-04  -3.7298273e-04  -4.9265753e-04  -1.5214429e-04  -7.1409333e-04  -6.2931963e-04  -3.7151799e-04  -1.3035668e-04  -1.6515609e-04  -5.8185495e-04   7.5824012e-04  -6.2885774e-05  -5.1207298e-05   3.9256128e-04  -2.7922701e-04  -6.0676430e-05   2.2031369e-05  -8.7341457e-04  -8.7746856e-05  -2.2321386e-04  -2.2171393e-04  -3.6383652e-05  -2.0475143e-04   5.1028641e-05
   1.6027213e-04  -1.6224169e-04  -1.1804222e-04  -6.6659857e-05  -4.4387525e-05  -1.0716781e-04   2.7299405e-04   7.8247809e-05  -2.7444835e-03  -5.0503764e-05  -6.9920243e-05  -8.0766360e-05   4.4866923e-07   1.0097981e-04   6.8105132e-06  -6.4410946e-05  -3.5675097e-05  -1.0207832e-04   4.8392793e-04  -7.9411606e-05  -1.2207706e-05  -1.2663126e-05   9.4001727e-05  -5.8965285e-05   1.7315525e-04  -5.3554031e-06  -1.3328331e-04  -7.6438548e-05  -2.9808070e-04  -1.2862115e-04  -9.2224957e-04   2.7533627e-06  -1.7569789e-04  -8.5733431e-05  -9.8826934e-04   1.6600107e-04  -1.6198806e-04  -2.7025465e-04  -6.2085623e-05   7.8990532e-04   1.3651836e-04  -3.1337986e-05   1.9862725e-04  -4.3768337e-04   1.2449636e-04  -1.1088675e-03  -1.7847162e-04   1.4420280e-06  -1.1561441e-06   1.1895682e-04
  -2.3734159e-04  -1.6106349e-04  -2.8569900e-04  -2.3001026e-05  -6.1490177e-04  -2.0157326e-04  -1.7281559e-04  -2.4551997e-04   4.6631775e-04  -5.7612779e-05   8.5416345e-05  -5.6857596e-05  -1.0028317e-04  -8.4048130e-05  -1.7674245e-04  -6.0019811e-05  -1.1337469e-04  -7.8055609e-06   2.4147847e-04  -3.7166890e-05  -3.9479448e-05  -9.4549083e-05  -1.4312711e-04  -7.0728223e-05  -1.5625427e-04  -3.8274495e-05  -3.9071030e-05  -2.9382002e-04   3.3341479e-04  -9.1308611e-05   9.3957706e-04   3.8246327e-04  -1.0485438e-04  -7.3357194e-05  -8.8505470e-04   6.7262258e-04  -7.1425264e-04  -3.1019544e-04  -6.4697197e-05  -4.5164954e-05   1.4922817e-04  -2.5610643e-05   8.3593579e-05   1.3341982e-03   2.5780846e-05  -1.0980378e-03  -1.8494086e-04  -2.8891085e-05   9.5720206e-06   2.5463645e-05
  -1.2790774e-04  -1.6709371e-04   3.1369200e-05   3.2313012e-05  -2.8697999e-05   6.7406574e-05  -2.4159224e-05   1.1539874e-04   7.6589629e-04  -8.1852450e-05   1.0006473e-04  -8.5751075e-05   3.5319736e-05  -1.8193087e-04  -2.9267117e-04  -1.1831436e-04   9.4307061e-06  -2.0670694e-05   1.4267577e-04  -1.0729196e-05  -6.4686028e-05  -8.3177038e-05   6.4349362e-05  -1.6711721e-04  -6.5842300e-04   9.0255002e-05  -3.2070064e-04  -2.6109320e-04   1.0084069e-04   7.3823521e-06  -2.8454413e-04  -7.3951919e-04  -9.8600452e-05   5.7651610e-05  -4.2622333e-04   7.2851450e-05  -1.5111182e-04  -3.1101049e-04   1.2258569e-06   5.6146786e-05  -3.6415991e-06  -4.5773329e-05   1.9294032e-04  -6.2659074e-04   9.2357041e-05  -7.9982547e-04  -2.1126923e-04  -1.0395033e-04  -1.2888535e-04   1.4171358e-05
   1.2602433e-04  -1.8218982e-04  -1.2178272e-04  -6.1625418e-05   4.4750326e-04  -1.9179601e-05   4.9532933e-05  -2.5375755e-04  -1.4417944e-04  -1.2211852e-04   1.6165606e-04  -9.3033661e-05  -1.2888091e-04  -3.0338464e-05   9.7453340e-05  -7.0169517e-05   3.0999767e-05  -1.6120510e-04   3.8139743e-04  -2.6489436e-06  -9.4870542e-05  -1.4310745e-04  -7.7589357e-05  -1.5371147e-04  -7.0354907e-04  -5.1818366e-05  -3.8994709e-04   3.1062853e-04  -2.4663110e-04   1.7366183e-04   6.1034790e-04   1.7199191e-04   1.0987763e-04  -1.7380682e-04  -1.3388052e-03   8.6822710e-04  -3.2722685e-04  -3.1056252e-04  -2.1374217e-05  -2.8720967e-04  -2.7677490e-04  -7.7226326e-07  -1.0016590e-04  -4.5018439e-04  -6.4360538e-05   1.5357546e-04  -1.7620604e-04  -3.2950833e-05   1.0094880e-04  -4.6720575e-05
   8.3405524e-04  -1.5674857e-04   2.1698943e-05   1.2902943e-04  -4.4377876e-04  -1.0660219e-04   2.3080723e-04  -2.8493608e-04  -4.8960871e-03  -6.4352585e-05  -2.2635888e-05  -9.2361828e-05  -7.5430682e-05  -1.6407705e-04  -1.7153042e-04  -1.1632350e-04   2.2337426e-05  -5.3244516e-05  -1.8456017e-03  -3.5349898e-05  -2.7321492e-05  -1.6538728e-05  -4.5806798e-04  -1.5290553e-04   4.8472872e-04  -6.7927736e-05  -2.2050721e-04  -1.9596408e-04  -6.4808794e-04   1.8989942e-04  -1.4631140e-04   1.1812281e-04   7.4776333e-05   5.1631159e-06   7.1592163e-04  -8.3175232e-04   6.5632025e-04   1.2068771e-04  -1.1758860e-05   1.2693014e-04  -2.2638522e-04  -5.3660042e-06  -5.9315644e-05  -2.2536260e-04   5.7905145e-05  -2.5544129e-04  -1.8770561e-04  -6.3659623e-05  -1.6173473e-04   3.1329029e-05
   2.5636613e-04  -1.6946596e-04  -1.7811824e-04  -2.0668404e-05  -2.8471678e-04  -4.7708995e-04  -3.5506743e-04  -3.4390055e-04  -5.2683114e-04  -6.3401429e-05  -7.2152438e-06  -7.7960663e-05  -6.4489817e-05  -7.0146161e-05   9.6045223e-06  -1.0703418e-04  -1.3506667e-04  -1.3001291e-04   6.6153839e-04   1.7216793e-05  -6.5295731e-05  -1.0361290e-04  -2.0293575e-05  -4.0304007e-05  -2.6173325e-04   2.6775670e-05  -1.9219978e-04  -5.2963983e-04  -3.3099481e-04  -1.0159955e-04   4.9509265e-04   2.3764152e-04   2.6576000e-04  -2.4415180e-04  -6.3957571e-04  -5.8415619e-04   1.0302337e-04  -3.2977058e-04  -6.8906324e-05   6.6702101e-05  -1.1535263e-06  -7.2537856e-05  -1.1786156e-04   1.5948826e-04   1.9804764e-05  -1.2388577e-04  -1.7690336e-04  -8.6433602e-06  -1.1647509e-04   5.6880799e-05
   2.2881923e-04  -1.6752604e-04   2.2895770e-04  -2.2246399e-05   3.6969318e-04  -7.9290679e-05  -5.8664758e-05  -4.1942793e-04   5.5503072e-03  -1.1991035e-04   2.0563759e-05  -1.0102312e-04  -6.5569882e-05  -1.2445160e-04   1.5176536e-04  -1.2658471e-04  -9.3622250e-05  -4.5288089e-05   1.1173035e-03  -1.1906890e-04  -9.9536235e-05  -1.4165328e-04  -1.8199098e-05  -2.1108532e-04  -1.0490714e-03  -3.9860661e-05   8.3757084e-05  -5.4776494e-05   1.3408443e-04   4.4040313e-05  -8.7860704e-04   5.8778515e-04   1.3242614e-04  -1.8038460e-04   2.9709146e-04  -1.5016209e-05  -9.2927052e-04  -7.1083741e-05   4.4536217e-05  -1.8208966e-04  -5.1605792e-05  -6.6540801e-05   8.0649508e-05   2.6133659e-04   3.3200147e-05  -1.7940458e-04  -1.5866690e-04  -5.6894551e-05   2.4401974e-04  -4.9436720e-05
  -3.7859794e-04  -1.6039837e-04  -2.8862973e-04  -4.8809958e-05  -1.2493815e-04  -3.6768812e-05  -1.8350912e-04  -5.6167348e-05   2.8823686e-04  -4.3468241e-05  -1.9022582e-05  -7.5843585e-05   2.1742577e-05  -1.4289893e-04  -4.6124005e-05  -1.7111597e-04  -1.3978257e-04  -1.0881146e-04   2.9952317e-03  -4.6791327e-05  -3.3693796e-05  -1.2747716e-04   1.5121516e-04  -2.3670997e-04  -5.7666254e-04   3.8046670e-05   5.1814146e-05  -4.1135667e-05  -1.7203728e-04  -6.0795650e-05   5.5708381e-04  -1.9998867e-04  -5.5169261e-05   6.4803011e-05  -1.2003174e-03  -2.3334038e-04   2.4075931e-05  -8.6443833e-06  -5.1809093e-05   3.4800076e-05  -1.6415158e-04  -3.0920884e-05   2.2173149e-04  -1.4646524e-03  -5.9683047e-05   1.6470157e-04  -1.4401488e-04   3.9415241e-05  -1.3153322e-04   5.6180033e-05
   1.2213746e-04  -2.1192338e-04   3.6392612e-05  -4.4428474e-05   3.3940404e-04  -1.5538638e-04  -3.1666213e-04  -1.7285741e-04  -2.9017755e-03  -7.1906506e-05   5.7305657e-05  -1.0120431e-04   1.1223594e-04  -2.3535056e-04  -2.4237842e-04  -1.0632510e-04  -1.3946160e-04  -5.7523441e-05   8.7407790e-04  -7.8789250e-05  -7.0226692e-05  -1.2887128e-04   2.6362206e-04  -6.9546128e-05  -7.7891839e-04  -1.5127425e-04  -1.3141283e-04  -3.8021847e-04  -9.2718193e-07   8.2299804e-05   3.2299766e-04  -4.5036638e-04   1.0978077e-04   1.7756283e-05  -1.0432247e-03   2.9641157e-04   1.8380344e-05   7.4073898e-05   1.1670193e-06  -6.1716954e-04  -1.6857687e-04  -7.7488921e-06   1.3556119e-04  -2.4647129e-04  -1.6721633e-04   2.3054818e-04  -1.7879241e-04   3.2500953e-05   1.2054595e-04   2.2450358e-05
  -3.1741140e-05  -1.5867500e-04   2.3517193e-04  -1.1803008e-04  -6.3413323e-04  -3.5678479e-04   3.8981016e-05  -3.0833588e-04  -1.7034161e-03  -1.0351354e-04   1.1490929e-04  -6.7823945e-05  -9.0816669e-05  -3.9040948e-05   4.0116400e-05  -5.6106801e-05  -1.1133184e-04  -1.5542061e-04  -1.7315333e-03  -1.0920693e-04  -9.2065784e-05  -1.3977561e-04  -1.1783711e-04  -1.8483704e-04  -6.9648138e-04  -1.0547476e-04  -2.4169593e-04  -7.7641584e-05  -1.2547131e-04  -1.0068362e-05  -5.9685653e-06  -9.4010576e-04  -1.2031622e-04  -2.0321905e-04   9.6151273e-04  -6.2193716e-04   7.1066461e-04  -3.5808136e-04   5.9904928e-06  -1.0518795e-04  -1.2417082e-04  -3.3779772e-05  -2.2962839e-05  -1.1606046e-03  -4.8287366e-05  -3.4763073e-04  -1.4536969e-04  -3.4535096e-05   2.6520916e-05  -2.0694188e-05
  -5.2987196e-04  -1.9243560e-04   1.8554670e-04  -1.9598905e-04  -3.7989530e-04  -1.0398148e-04  -6.0096069e-04  -1.0534506e-04  -1.5127565e-03  -4.6158446e-05   1.0439495e-04  -1.1074296e-04   2.9346209e-05  -2.2560114e-04   1.5498263e-04  -3.0403082e-05  -5.6742032e-05  -3.8884045e-05   2.1768322e-03  -1.5588888e-04  -4.8035603e-05  -9.2423623e-05   1.6417549e-04  -1.3863576e-04  -5.0312077e-04   1.5904049e-04   1.9140812e-04  -3.5451737e-04  -2.6636347e-04  -3.7438615e-05  -6.8529036e-05   3.0738584e-04  -1.8885384e-04   5.5765363e-06  -9.3025982e-04  -2.3917352e-04   4.7366178e-04  -7.9820515e-05  -6.6425484e-05   3.3689703e-05  -3.4580799e-04   8.5856418e-06  -1.4876756e-05  -8.1041137e-05  -3.2393957e-05  -4.3958679e-04  -1.4218899e-04   1.1381760e-05  -7.5116659e-05   7.5344928e-05
  -1.2085423e-04  -1.8396841e-04  -9.8090895e-05  -2.6082544e-04  -2.5656720e-04  -3.3038951e-04  -2.3865122e-04  -3.1832245e-04   1.7362683e-03  -5.5259250e-05   1.4194290e-04  -8.1900936e-05  -1.3720032e-04  -1.2117976e-04  -1.3691396e-05  -9.2539012e-05  -9.9204786e-05  -6.7935420e-05  -3.1544880e-03  -5.8134829e-05  -5.4825457e-05  -4.2303760e-05   6.0324390e-05  -1.6011207e-04  -3.4221180e-04  -1.3443069e-04   5.2434712e-05  -2.7323375e-04   8.4741143e-05  -1.2884809e-04  -1.3014101e-03  -2.0615663e-04  -3.8174738e-04  -3.2565286e-04  -7.4421312e-04  -6.0507626e-04   1.3314234e-04  -1.1161224e-04  -2.5608586e-05  -4.3072767e-04   9.9355508e-05  -1.2510939e-05  -1.6213598e-05  -1.3839238e-03   1.9685227e-05   7.3752808e-04  -1.4127856e-04  -4.3308079e-05  -2.4000733e-04   9.7420489e-06
  -1.7076112e-04  -1.8946218e-04   2.6433738e-05  -6.7611945e-05  -5.5302546e-05  -2.1647580e-04   3.8166236e-05  -2.9582015e-04  -8.2235516e-04  -9.2080300e-05   6.9442642e-05  -9.7157790e-05  -2.5014049e-05  -8.1815542e-06   1.0018727e-04  -1.2930304e-04  -1.2089589e-04  -1.7937941e-04   3.0339126e-05  -1.3930774e-04  -8.3473307e-05  -1.1181276e-04   9.5207579e-06  -1.7422040e-04  -5.5828650e-04   2.3764869e-05  -1.9569037e-04  -1.8453752e-04  -8.8130291e-05  -9.0206770e-05  -3.0777397e-04   2.6769430e-04  -1.4869051e-04   1.4309256e-04  -4.6901088e-04   1.0050945e-03  -7.0440024e-04  -9.1785216e-05   1.4518915e-05  -1.2612141e-04  -1.4564837e-04  -3.9914074e-05  -1.7747686e-04   1.9288346e-03  -1.9266584e-04   7.8272185e-04  -1.4343709e-04  -2.6510514e-05  -1.4175187e-04   4.4161879e-06
  -1.6139713e-04  -1.7388319e-04  -2.5948655e-05  -1.1880753e-04   1.3225284e-04  -5.9111044e-04  -2.0716185e-05   7.1445083e-06  -1.2375279e-03  -3.7978120e-05   2.4326484e-05  -1.1964798e-04  -6.2421212e-05  -6.3635220e-05  -2.4436260e-05  -1.2704576e-04  -2.0915472e-04  -4.0400955e-05   1.2228281e-04  -1.1467549e-04  -3.0938583e-05  -7.7028795e-05  -4.2791609e-04  -9.7496224e-05  -7.6335913e-05  -3.2951626e-05  -3.0310889e-04  -9.1206120e-06  -2.5883535e-04   4.2324344e-05  -1.1626568e-03   4.5134802e-04  -8.9230685e-05   1.8941671e-04  -2.1164760e-03  -1.1324579e-03  -7.5652316e-04  -2.1153024e-05   9.0025769e-06  -6.3720986e-04  -8.0083038e-05  -2.1146943e-05  -6.5154869e-05  -1.8633582e-05  -9.0340865e-05   2.4181001e-05  -1.3012235e-04  -8.3686800e-06   1.1158764e-04   3.2975386e-05
   3.5240414e-04  -1.4163609e-04   1.6316952e-04  -2.3815520e-04   8.3073764e-04  -7.8339850e-05   1.4954605e-04  -3.5920624e-05  -1.7977893e-04  -4.3757685e-05   6.9085661e-05  -8.7717548e-05  -6.8101101e-05  -1.4512046e-04  -3.6873578e-05  -1.0926170e-04  -8.0601523e-05  -1.9757474e-05   2.1695900e-03  -8.1511440e-05  -5.6076602e-05  -1.4979382e-04   4.2344359e-04  -1.3549865e-04  -1.7120443e-04  -1.2806497e-04   1.5255597e-05  -3.2059004e-04  -6.4029504e-05  -2.2215332e-05   6.7682244e-04   6.0579035e-04  -3.9757768e-04  -1.4143948e-04  -4.7196285e-04  -6.7748298e-04   3.6681708e-04  -3.3803436e-04  -7.1605740e-05   4.0603560e-04  -2.4802970e-05  -6.5709287e-06  -1.9951065e-05   2.0725671e-04   4.4047705e-05  -6.4797973e-04  -1.2758200e-04  -6.9413734e-05  -9.0403257e-05   1.1753746e-04
  -2.7088894e-04  -2.5356564e-04  -1.8861114e-04  -2.8181457e-04   2.0891663e-05  -6.5947662e-04  -3.5238435e-04  -1.2573051e-04  -2.5425135e-04  -6.3888481e-05  -4.5874887e-05  -9.5024065e-05  -8.2907303e-05  -1.0652268e-04  -8.3291961e-05  -1.4197281e-04  -1.3488147e-04  -7.4692085e-05  -4.7124270e-04  -1.0513326e-04  -1.0499946e-04  -1.1898423e-04   1.2702386e-04  -1.5341518e-04   3.8010452e-04  -3.1750067e-05  -9.0427842e-05  -5.7460456e-05  -2.8387125e-05  -2.9059898e-04  -6.5497583e-04  -7.5760263e-04   2.4445917e-04  -7.5913260e-05  -5.4020208e-04  -4.9992977e-04   1.3881059e-04   2.0884503e-04  -6.0280829e-05  -7.8693171e-05  -2.1269734e-04  -2.6186379e-05   4.7846188e-05   6.4603402e-04  -1.4397263e-04   6.0764687e-05  -1.5865028e-04   1.2439032e-06  -1.9441918e-04   1.0273565e-05
  -4.9377704e-04  -2.4383103e-04  -4.9864384e-06  -2.2884853e-05   2.6297860e-04   5.3837913e-04  -2.4399431e-04  -2.1845046e-04   2.4328437e-03  -4.4225460e-05  -4.5116631e-05  -1.0311938e-04  -7.9471822e-05  -8.7640306e-05  -2.2228320e-04  -6.6978973e-05  -1.1166300e-04   1.9034591e-05  -1.2570567e-03  -2.5545274e-05  -1.5054396e-05  -8.1902726e-05  -1.4082670e-04  -5.1405153e-05   1.6187511e-04  -1.8380213e-04  -2.2561636e-04  -5.6132569e-04  -2.3262649e-04   8.6271379e-05  -6.6248223e-04  -1.8603045e-04   5.0203584e-04  -1.1672310e-04   9.9329685e-04   3.9230174e-04  -2.0364206e-04  -2.3469260e-04  -5.8500358e-05   3.7000916e-04  -9.4403695e-05   2.2809772e-06  -1.0110412e-05  -3.0520765e-04  -6.5269260e-06  -4.4401950e-05  -1.1598333e-04  -5.4703264e-06  -1.4954784e-04  -6.8968247e-06
   1.2391926e-04  -2.6363647e-04  -2.2510072e-04   3.8317736e-05   1.9798405e-05   8.6292916e-05   7.1976523e-05  -4.8079423e-04   1.4805730e-03  -3.1838954e-05   3.3195232e-05  -9.2053378e-05  -5.9218555e-06  -1.9894734e-04   3.8712842e-05  -8.3008461e-05  -1.5342314e-04  -1.0110163e-04  -3.4524119e-03  -1.0206230e-04  -8.0742480e-05  -1.1454436e-04  -2.0980787e-04  -1.5500927e-05  -2.6414287e-04  -9.5350049e-05  -2.4648986e-04  -2.2651453e-04   1.1334475e-04  -3.3968387e-05  -9.8204263e-04   3.0773834e-04  -3.1296426e-04  -1.2356699e-04   7.4315220e-05  -6.9060980e-04  -3.0262605e-04  -5.3409615e-04  -6.4462714e-05   4.7096558e-04   6.6829860e-05   2.3931912e-05  -2.3763458e-05  -1.0255791e-03  -2.6794371e-05  -9.4935281e-04  -1.1990852e-04  -1.1662569e-05  -1.4200382e-04   7.7161512e-06
  -6.0093051e-05  -2.1421327e-04  -2.0681981e-04  -1.0368931e-04  -1.3849969e-04  -7.0646311e-05  -3.8442231e-05  -2.7397170e-04  -1.2036538e-03  -6.8499328e-05   1.3214190e-04  -1.0006796e-04  -1.6640897e-04  -1.7921919e-04  -2.7682926e-04  -2.0355383e-04  -1.7479685e-04  -2.7322804e-04  -6.7122380e-04  -9.0923626e-05  -8.7318964e-05  -1.4972371e-04  -7.2610710e-05  -1.4744536e-04   7.3887006e-04   6.5987770e-05   1.4361002e-05  -6.1988736e-05  -1.9693153e-04   7.1771414e-05  -7.9239038e-04   2.2809771e-04  -2.0252148e-04  -7.6806304e-05   1.1672121e-03  -3.3923012e-04  -3.7377267e-04  -5.1412248e-05  -5.1926167e-05  -1.6340109e-05  -1.0365094e-04  -5.9471449e-06   8.5417079e-05  -1.2561072e-04  -2.3895508e-04  -1.1937889e-04  -1.3921477e-04   1.7814269e-05  -1.5972536e-04   6.0024038e-05
  -8.9194938e-05  -2.2789028e-04   1.4422559e-04  -1.8025551e-04  -2.4408133e-04  -2.2048855e-04   1.7216089e-04  -8.4214815e-05  -3.2706908e-03  -4.6003832e-05  -3.1351443e-05  -1.0857356e-04  -6.4020984e-05  -1.6341078e-04  -4.2326879e-04  -2.4834761e-05  -1.5905855e-04  -7.7666380e-05  -1.6247220e-03  -1.2609105e-04  -5.8847498e-05  -1.5484702e-04   4.6806512e-04  -6.2149789e-05   3.5518128e-04   1.5890930e-04  -4.3051270e-05  -3.2485256e-04  -3.0590381e-04  -1.1039844e-04  -1.6843666e-03   2.9341800e-05  -1.0469833e-04   3.9896218e-05   1.1849585e-03  -9.4793580e-04  -3.8091259e-04   8.8422159e-05  -3.1667325e-05  -8.9104549e-05  -1.6928521e-04  -2.6774142e-06   1.2514500e-04  -4.9443793e-04  -6.8357207e-05  -6.4168609e-04  -7.9138495e-05  -7.7021650e-05   1.0533268e-04   5.2867799e-05
   2.4569454e-04  -1.8408662e-04  -1.5115579e-04   3.8098686e-05   3.8908573e-04  -2.8243798e-04  -4.7534162e-05   1.1082725e-04   1.2538132e-03  -5.0548861e-05   1.9751761e-07  -1.1179972e-04  -1.3732865e-04  -1.9525446e-04  -1.3369613e-04  -1.1237987e-04  -7.1321965e-06  -8.0482663e-05  -1.6939420e-03  -1.2677253e-04  -5.6718713e-05  -1.6442285e-04   2.0046205e-04  -8.9389352e-05  -5.6620658e-04  -3.8463827e-06  -1.5612495e-04  -4.4203189e-05  -1.1698695e-04   1.1108487e-04   5.7983849e-05  -8.6498898e-05  -4.2503754e-05   1.3502339e-04  -4.3227029e-04   1.4064868e-03  -3.6590244e-04   4.2865227e-05  -7.5806747e-05   3.7483347e-04   2.1762053e-04  -9.4777843e-06   1.3326098e-04  -3.6460115e-04  -1.8243252e-04   5.0728948e-05  -1.0349219e-04  -7.7026067e-05  -8.9562185e-05   2.6177786e-05
  -2.6133534e-04  -2.1493371e-04   6.7207096e-05  -4.3856820e-05  -4.1435531e-04  -1.7524694e-04  -7.2589598e-04  -2.1856486e-04   2.3734074e-03  -3.9074017e-05   5.9441268e-06  -1.3274189e-04  -6.5522712e-05  -3.5090619e-05  -1.9307445e-04  -2.0221036e-04  -1.4590719e-04  -1.2948191e-04   8.9899357e-04  -1.0992576e-04  -7.6469412e-05  -1.7471919e-04  -9.0204165e-05  -1.5428319e-04   1.3633218e-04  -5.9950824e-05   1.6884034e-04  -4.6566656e-04  -3.7629058e-04  -6.1808161e-05  -1.8156389e-03   2.4371955e-04  -1.4379215e-04   7.1670940e-05  -1.0868812e-03  -4.9671601e-04   9.9777034e-04  -5.4462405e-05  -7.6377160e-05  -8.4786216e-04   1.4478333e-04   9.1662187e-06   1.8631579e-05   1.2685370e-03  -3.2339615e-04   1.8336141e-03  -1.1817263e-04   4.5444185e-06  -1.1909161e-04  -1.0393062e-05
   1.5145559e-04  -2.1794991e-04  -1.5217443e-04  -7.5563694e-05   4.5844074e-04  -2.4411950e-04  -1.9795139e-04  -3.2140204e-04  -8.7363362e-05  -1.1315207e-04   3.3002536e-05  -1.3795885e-04  -1.1114811e-05  -1.1355717e-04  -1.0208556e-05  -1.0289640e-04  -1.4703239e-04  -1.7292105e-04   2.8979506e-03  -1.6789770e-04  -1.2090928e-04  -1.6474382e-04  -1.2199585e-05  -9.5379954e-05  -3.3621225e-04  -5.9828304e-05  -8.9819478e-05  -5.2730413e-04   2.4402220e-04   1.8809315e-04   3.3343604e-05  -1.6236753e-04  -1.9021882e-04  -3.3557412e-04   3.4670060e-04  -4.1597846e-04  -1.5667932e-04  -2.8431453e-04  -9.7792326e-05  -3.0040750e-04   8.9886897e-05  -1.4125845e-05   2.5709072e-04  -8.0773677e-04  -1.6258555e-04   2.4001386e-04  -1.0998567e-04   3.2468095e-05  -1.9625697e-05   4.2440856e-06
   2.9109919e-04  -1.9372460e-04   1.7017726e-04   2.1783142e-05   8.3574174e-05  -1.9843092e-04  -2.5331916e-04  -3.0762225e-04  -1.2030305e-03  -7.3028787e-05  -1.7401841e-05  -1.3754885e-04  -9.3409508e-05  -2.2654222e-04  -2.8542319e-04  -1.3955520e-04  -1.6637010e-04  -8.5002124e-05   1.5597106e-03  -1.0101802e-04  -4.0968986e-05  -1.1161353e-04   4.1363400e-04  -5.0658800e-05  -8.8243291e-04  -1.1847718e-04  -5.1125855e-04  -2.8487618e-04  -2.7483917e-04   2.2150049e-04  -4.0916388e-04  -8.2261184e-05  -4.0062154e-05  -1.4862412e-04   1.8186145e-03  -6.7625387e-04  -4.4178020e-04  -1.8404434e-04  -2.6222920e-05  -1.2126069e-04   1.7229437e-04  -2.4642568e-05   8.9014269e-05   5.9731719e-05  -1.3391335e-04   2.1958158e-04  -1.0422946e-04  -8.5529946e-06   1.6433308e-04  -1.1931178e-04
  -5.9473456e-04  -1.8411847e-04  -2.3466465e-04  -1.2478618e-04  -6.7100459e-04   4.0252996e-04   3.6681353e-04   2.1887921e-05   3.0747880e-04  -1.1025224e-04  -3.0543251e-05  -1.4940836e-04  -4.6445588e-05  -2.9172821e-04  -2.5245853e-04  -1.3361627e-04  -8.6267049e-05  -1.8064109e-04   4.7942228e-04  -6.9300229e-05  -1.6702481e-05  -9.5307631e-05   1.4454889e-04  -2.0723867e-04  -1.2580822e-04  -1.0906153e-04  -5.5416324e-04   3.1239761e-05  -2.2353850e-04  -6.4640764e-05   5.2346557e-04  -2.4966826e-04  -2.0544684e-04  -8.2798848e-05  -2.6318600e-04  -3.8821940e-04  -5.0548982e-04   5.8107627e-05  -9.2762675e-05   7.9467565e-05  -9.3139453e-05  -5.2995936e-05  -5.5008561e-05  -7.4616150e-04  -3.1023184e-04   3.8092537e-04  -1.2259465e-04  -6.8115951e-05  -9.0542257e-05  -1.1337144e-05
  -1.4051453e-04  -2.2148268e-04   2.8553761e-05  -1.2941434e-04  -1.2372757e-04   2.1112464e-04  -3.7244111e-04   1.6709202e-04  -7.4767240e-04  -1.5013755e-04  -8.8641973e-06  -1.5234893e-04  -7.8392062e-05  -3.1533611e-05  -8.9654037e-05  -1.0943368e-04  -1.8059982e-04  -1.0452994e-04  -1.5849826e-03  -7.2378716e-05  -5.2575993e-05  -1.3441897e-04  -9.1447582e-05  -1.3999570e-04   4.2653887e-04   3.0456840e-05  -1.5315016e-04   1.9255176e-04  -1.6234926e-04   4.6125155e-05   3.1300948e-04  -1.5849144e-04   2.3775456e-05   1.3959104e-04   9.9290116e-04   4.7009383e-04  -3.9754576e-07  -2.2704979e-04  -5.0938157e-05  -3.4846136e-04  -7.9324818e-05  -1.0537411e-05   4.7764188e-05   1.6804523e-04  -1.9292824e-05   3.4952795e-04  -9.9330522e-05  -2.1737891e-05  -2.8901039e-05   6.5722445e-05
  -3.7803754e-04  -2.1898138e-04  -5.1556533e-05  -1.4925202e-04   6.5321039e-04  -1.3535070e-04   1.2328639e-04  -1.1445070e-04   1.7314825e-03  -1.0313500e-04  -1.0247724e-04  -1.3852105e-04  -2.8130797e-05  -1.7669967e-04   1.9427417e-04  -1.1527114e-04  -1.3904048e-04  -2.0120470e-04  -3.3024221e-04  -6.2081461e-05  -1.6925655e-05  -5.0468090e-05   2.6329668e-04  -5.5837671e-05   9.4252720e-04  -7.0182905e-05   2.3033142e-05  -3.3239106e-04  -5.3760724e-04  -9.2092589e-05  -2.3324057e-04  -3.0640629e-04  -3.6616108e-05   4.5951663e-05  -2.5743482e-04   1.1244257e-03  -3.1267916e-04   5.1273670e-05  -6.9111476e-05   1.1521838e-04  -2.5306761e-05  -9.2741011e-06  -7.0932256e-05  -7.7029038e-04  -1.8500275e-04   8.5788936e-04  -9.3600909e-05  -6.5518507e-05  -8.0994600e-05  -4.0097158e-05
  -2.3826622e-04  -2.0361054e-04   2.0586319e-04  -2.1849216e-04  -7.9276547e-04  -1.0539101e-04  -5.7321740e-05   1.3054586e-04   2.1840620e-04  -1.1524395e-04  -1.3508648e-05  -1.3322147e-04  -4.1782729e-05  -1.2627675e-04  -2.7775177e-04  -1.8482899e-05  -1.0927659e-04  -1.0785906e-04  -2.4847426e-03  -9.2743277e-05  -4.3900596e-05  -1.2114763e-04  -1.3064605e-04  -3.9111081e-05   8.8143599e-04  -1.0379055e-04  -4.3339704e-04  -4.8540140e-04  -4.4352151e-04  -4.6379897e-05  -3.7236128e-04  -3.4046650e-04  -2.9386018e-04   3.7813927e-06  -2.0927620e-05   3.3804294e-04  -4.6222808e-04   3.5460347e-05  -1.1563633e-04  -9.8688679e-04  -1.0301397e-04  -4.5383884e-05  -1.5740337e-04   3.4514020e-04   6.8567060e-06  -7.5384724e-04  -1.1683024e-04  -1.0502248e-04  -1.1094323e-04  -7.1415387e-05
  -1.9159200e-04  -1.8870553e-04  -1.8320738e-04  -2.0788655e-04   3.7959369e-04  -1.3814663e-04   2.9764540e-04  -1.5898207e-04  -6.8805029e-04  -1.4385971e-04  -5.1569237e-05  -1.3253921e-04  -1.7882252e-04  -1.5903314e-04  -1.1694709e-04  -2.2496373e-05  -1.0345200e-04  -1.6144349e-04   1.7522424e-03  -1.0570564e-04  -4.6138175e-05  -1.1857909e-04  -3.1984653e-04  -2.2631024e-05   2.6984981e-04  -1.3715254e-04  -1.2968576e-05  -3.0619805e-04  -2.8119239e-04  -4.7302809e-05  -3.4809904e-04  -1.5010133e-04   1.5776280e-04   1.9390651e-04   3.6243000e-04   1.4570126e-03  -4.1746240e-04  -1.3918117e-04  -1.1464358e-04  -9.5787813e-04   1.0558157e-04  -2.3299475e-05  -4.0589341e-05   3.2214785e-04  -1.4814929e-05   5.6865707e-04  -8.0280071e-05  -1.9332345e-05   7.1826398e-05   2.7506429e-05
  -1.8482660e-04  -1.4596520e-04   5.3324442e-05  -1.0019720e-04  -1.7879900e-05   4.1894568e-04  -5.4069847e-04   8.7262066e-05   4.8216101e-04  -8.2744613e-05  -3.0225021e-05  -1.3681343e-04  -6.8034220e-05  -2.2513517e-04  -1.1764762e-04  -4.1223982e-05  -1.4561097e-04  -6.6069297e-05   1.8821347e-03  -4.1098850e-05   1.6085729e-05  -8.3865947e-05   1.8893968e-04  -2.5211461e-05  -2.1024107e-03  -6.6920977e-05  -2.7516746e-04   2.0292106e-05  -2.9284073e-04  -1.1548115e-04   8.3151757e-04  -7.7816291e-04   1.7706356e-05   2.0626787e-05   4.3302507e-04  -7.4448268e-05  -1.1099504e-03  -1.6353501e-04  -5.2035317e-05  -7.1181840e-04  -1.6430706e-04  -3.7984413e-05  -1.5673206e-05   9.4053749e-04  -1.3350355e-04  -6.9527660e-04  -6.7807065e-05  -6.3309148e-05   1.6846728e-04  -8.4998819e-06
  -4.0442264e-05  -1.2543559e-04  -2.7811117e-04  -9.6661053e-05  -2.2859861e-04  -1.6349174e-04  -2.2591202e-04  -6.7682675e-05   2.9049709e-04  -6.2212726e-05   1.8413166e-05  -1.3912174e-04   1.6709304e-05  -7.8477831e-05  -2.5063608e-05  -1.0575984e-04  -6.8579953e-05  -1.8917113e-04  -5.1595859e-04  -2.8085784e-05  -2.4509716e-05  -5.0575618e-05  -1.2741005e-04  -1.6928944e-04  -4.4939705e-04  -7.6126758e-05  -4.4881005e-04   2.4210834e-05  -5.2675820e-04   2.5251657e-05  -1.5150144e-04  -1.8541118e-04   4.5759465e-05  -1.5816912e-04   1.8588812e-03  -1.8248364e-04  -2.1713754e-04  -2.2417282e-04  -1.6248981e-04   1.3744598e-04  -1.6621874e-04  -6.6655768e-05  -3.5655426e-05  -1.8182406e-04  -1.5976321e-04  -8.7653338e-05  -8.3595267e-05  -7.3261530e-05   2.5459018e-04   1.8201828e-05
   1.8586326e-04  -1.1597172e-04  -9.6052863e-05  -1.7885905e-04  -9.2430200e-05  -2.6983794e-04  -1.8412489e-04  -9.2789407e-05  -3.7888130e-03  -1.1583041e-04   2.7417394e-05  -9.1645823e-05  -7.2110030e-05  -1.7263801e-04  -5.8112866e-05  -1.0308087e-04  -1.5915200e-04  -1.8834126e-04   7.2320632e-04  -6.3361360e-05  -3.6921501e-05  -7.7827288e-05  -2.3497872e-04  -8.0935948e-05  -3.7167058e-04  -8.8676374e-05   9.3465365e-05  -4.6371506e-04  -4.6604412e-04  -2.8266186e-05  -1.0425481e-03  -1.7472237e-05   5.7826017e-04  -7.8211728e-05  -1.8022187e-03   2.5321729e-04  -5.5157073e-04  -3.9979798e-04   1.5403901e-05   3.4248029e-04  -1.4664068e-04  -7.5408381e-05  -7.7574543e-05  -7.7474175e-04  -1.2796811e-05  -3.8729061e-04  -6.1809871e-05  -7.6795084e-05  -1.5817310e-04   3.0532326e-05
  -3.3736165e-04  -1.5753637e-04  -2.8009279e-05  -1.7070131e-04  -6.1675423e-04   7.4220938e-05  -2.9999655e-04   1.0989996e-04  -2.1044814e-03  -5.7530655e-05   2.3749419e-05  -9.0901893e-05   4.4426270e-06  -1.3480717e-04   1.5469659e-04  -2.9266557e-05  -1.6491809e-04  -5.9435813e-05  -1.5128953e-03  -8.3745414e-05   2.0729129e-05   7.3592591e-06   2.9666020e-04  -6.5877844e-05  -5.0629966e-04   5.4041146e-05  -2.7109965e-04   5.5773588e-05  -1.8082046e-05  -1.3861481e-04   5.2914466e-04  -4.9515185e-04  -1.2914374e-04  -4.2195843e-05  -5.6252111e-04  -4.5105122e-04   6.8002811e-04  -3.6541157e-04  -1.0568423e-04  -1.8083375e-04   9.2283080e-05  -7.4250180e-05  -3.3171600e-05   9.6855138e-04  -9.6301701e-06  -4.0012068e-04  -5.0320414e-05  -6.8792346e-05  -7.3579627e-05  -6.9077778e-06
   1.1062410e-04  -2.3008570e-04   1.2613554e-04  -8.4129999e-05   1.8771336e-04   8.4206862e-05  -3.0740138e-04  -1.3780862e-04   1.5109914e-03  -6.3712461e-05  -1.2500832e-04  -7.9997364e-05  -7.1448732e-05  -3.6790520e-05  -3.2528737e-04  -1.7644103e-04  -7.5497519e-05  -4.5604047e-05   2.3708463e-04  -1.0413826e-05  -4.0702380e-06  -7.1841541e-06   2.0368310e-04  -1.5393186e-04  -3.6683108e-04  -1.2433318e-04   7.3478295e-05  -1.5877314e-04  -2.9893377e-05  -1.4713866e-04  -9.6285972e-04   1.7615229e-04  -2.4703593e-04  -6.9251284e-05   1.3221129e-03   1.2553252e-04  -1.9343276e-04   2.8308802e-06  -7.5039745e-05  -6.4300525e-04  -2.4406960e-04  -6.1053099e-05  -1.3379940e-04  -1.3114497e-03  -8.9919638e-05   4.6510197e-04  -8.1408522e-05  -9.6371572e-05   4.2200420e-05  -6.0827719e-05
  -7.1514082e-06  -2.1146602e-04  -1.9621578e-04   7.9165904e-05  -4.7698070e-04  -3.7961159e-05  -2.5610812e-04   3.0507793e-04   1.1674801e-03  -1.0086218e-04   8.6608543e-07  -9.1112553e-05  -8.4640466e-05  -1.9072730e-04  -1.4629847e-04  -1.3475084e-04  -1.1968071e-04  -1.1563901e-04  -3.6935555e-04  -7.4902644e-05  -4.0972791e-05  -2.6074746e-05   5.4714408e-05  -1.1748004e-04  -3.2386865e-04  -1.3069053e-04  -9.4193048e-05  -5.0329650e-04  -2.3243845e-05  -2.0544862e-04   2.2088919e-07  -3.8072097e-04  -1.1378711e-04  -1.2256403e-04   2.2120100e-04   7.8079640e-05   4.7267275e-04  -3.6528756e-04  -9.7340147e-05  -2.3719820e-04  -4.5770084e-05  -9.6682867e-05  -9.6466581e-05  -1.2170061e-03  -1.2879608e-04  -7.4107468e-04  -8.4818232e-05  -8.3546198e-05  -1.4758212e-04  -3.4770186e-05
   6.4598607e-05  -1.6884928e-04  -2.1551970e-04  -1.7277870e-04  -4.3393197e-04  -9.5508294e-05   9.8679498e-05  -1.4415709e-04   6.5090013e-04  -3.9501308e-05  -1.3021662e-05  -8.5462008e-05  -1.2966093e-04  -1.0533797e-04  -3.2958676e-04  -6.3862928e-05  -1.4631150e-04  -1.3115459e-04  -8.5475977e-04  -6.0197359e-05   3.1481046e-05   9.5641510e-05   2.0816781e-04  -2.7109312e-05   3.0731250e-04  -8.0613696e-05  -1.0819505e-04  -2.0796720e-04   2.5112560e-04  -2.9560393e-05  -1.5887866e-03  -1.7372312e-04  -1.4761862e-05  -3.8026348e-05   9.9311490e-04   2.9012671e-04   3.5515850e-04  -1.5452597e-04  -7.6433702e-05  -4.6653961e-04   3.0971383e-05  -7.9229023e-05  -1.8804155e-04  -1.8995705e-03  -1.5045307e-04  -1.0472711e-03  -4.1808078e-05  -1.1241414e-04   1.1161433e-04   4.5437984e-05
   1.9904919e-04  -1.7584802e-04  -2.4287943e-04  -1.7139813e-04   7.2398412e-05   1.9301736e-04  -3.9183052e-04  -1.7183373e-04   1.8408698e-03  -6.6900124e-05  -8.0048485e-05  -5.9017038e-05  -2.8548558e-05  -1.4713612e-04  -3.3980020e-04  -1.6612139e-04  -1.2326513e-04  -1.7677264e-04   3.2388389e-03  -7.9721758e-05   3.2772141e-07   9.9126069e-08   1.4774852e-04  -9.8668155e-05   9.3414179e-05   1.9289469e-05   1.1431931e-04   1.4597566e-04  -7.1528985e-04  -1.4875745e-04   5.7984790e-04  -2.5541210e-04  -1.1754514e-04   6.4127089e-05  -9.4755465e-05   5.4684910e-04  -8.3221705e-05  -3.7908449e-04  -6.9365822e-05  -7.3146890e-04   1.4675291e-04  -4.0488238e-05   7.6903205e-05   1.3897833e-03  -1.0809993e-04  -2.7028885e-04  -4.2584077e-05  -6.0643557e-05   1.1387616e-04  -7.3845724e-05
   4.3040829e-05  -1.8788435e-04  -7.5449731e-05  -2.2254835e-04   2.1905229e-05  -3.1898751e-05   4.6046185e-05   1.1228240e-04  -5.0698168e-04  -9.5681426e-05  -6.7770954e-05  -8.5077467e-05  -9.1038768e-05  -4.3551398e-05  -9.9605903e-05  -1.3572355e-04  -1.7327056e-04  -1.8687781e-04  -3.4685316e-04  -6.6069930e-05  -2.0854835e-05   5.5965705e-07  -1.1218751e-04  -1.0592339e-04   3.7912439e-04  -1.4546984e-04  -1.1696592e-04   7.0114038e-05  -2.3410765e-04   4.2615600e-05   5.7106355e-04  -1.5394326e-04  -2.6736603e-04   1.8180335e-04   2.1256760e-04  -3.6947420e-04  -5.5737543e-04  -5.5183111e-05  -1.1715334e-04   6.3654158e-04   1.5074355e-04  -9.1534232e-05  -9.9361620e-05  -1.0940036e-03  -9.2305811e-05  -4.0211881e-04  -7.3146250e-05  -7.5427270e-05  -3.1011987e-05   3.6157042e-05
  -4.3594898e-04  -1.9791190e-04   1.5175730e-04  -2.1595147e-04   2.2073285e-05  -1.8377951e-04  -4.2635054e-04   4.2881871e-05  -1.7743860e-03  -1.0815278e-04   2.8228436e-05  -9.5886135e-05  -1.4392166e-04  -1.6136988e-04  -1.1144232e-04  -6.4684464e-05  -1.9848274e-04  -2.5755331e-05  -3.1980383e-03  -1.2117098e-04  -5.6033809e-05  -5.9060334e-05   1.9567971e-04  -1.4894291e-04  -1.9155108e-04  -1.4785724e-04  -4.4673428e-04   9.7626740e-05  -2.5745074e-04  -1.2544346e-04  -7.3827489e-04  -5.9979956e-04   1.0303430e-04  -1.3026482e-04   8.4550225e-04   3.0976345e-04  -4.1495691e-04   1.1799096e-06  -1.2877076e-04   5.4883613e-04  -3.0123582e-04  -1.1215010e-04  -6.2686013e-05  -7.0325367e-04  -1.2255757e-04   2.9455716e-04  -4.5161385e-05  -8.0891616e-05   9.3042465e-05   4.0845127e-05
  -4.5385992e-04  -1.5749231e-04  -6.7887639e-05  -1.4131496e-04  -2.1094093e-04  -3.0582296e-04  -4.9197883e-04  -4.1911859e-04  -1.4420747e-03  -4.6003221e-05  -5.5099346e-05  -8.8144392e-05  -5.7239940e-05  -1.9234070e-04  -1.0154126e-04  -1.0090767e-04  -2.0242823e-04  -2.0167230e-04   1.4755994e-03  -1.2291860e-04  -5.2970818e-06  -2.6563623e-05  -2.7352697e-04  -1.1698042e-04   1.5323822e-04  -6.8408888e-05   7.3082876e-05  -8.8634486e-05  -1.3961688e-04  -3.4213343e-05  -5.4812542e-04   5.5067433e-04  -2.8335716e-04   3.7685742e-05   3.1922718e-05   6.3740567e-04   2.7906799e-04  -2.8921821e-05  -1.0622356e-04  -4.8081685e-04  -1.2254511e-04  -6.3701154e-05  -9.8242497e-05  -1.1484195e-03  -1.6722002e-04  -2.2013982e-04  -3.7870446e-05  -9.9458503e-06  -4.1993579e-05   6.2935149e-05
  -1.9962207e-04  -1.7429811e-04  -1.8415491e-04  -2.1126615e-04  -2.4301077e-04  -1.9584190e-04  -6.9336405e-05  -3.5874902e-05   1.2176147e-04  -5.8805508e-05  -1.0562277e-04  -7.5055759e-05   2.0761790e-05  -1.1557838e-04   2.2610780e-05  -5.5640750e-05  -7.6845303e-05  -1.6211568e-04   3.1897577e-04  -1.2029544e-04  -5.6178367e-05  -8.2120088e-05   2.4861429e-04  -1.7766624e-04   1.1766692e-04  -8.4522319e-05  -4.4368891e-04  -1.1242576e-05   1.3722225e-04   1.3510681e-05  -7.9755392e-04  -8.2461251e-04  -3.7702168e-05   2.3772964e-05   1.4422318e-03   1.6992590e-04   9.7054674e-04  -4.2219608e-04  -8.3058134e-05   1.9643808e-04   1.0348123e-04  -7.0436115e-05  -2.2862654e-05  -3.5241214e-04   7.8958537e-06  -4.2607429e-04  -6.0726095e-05  -8.6695327e-05  -5.3721556e-05  -9.7143224e-05
   5.4136723e-05  -1.4289271e-04   1.5671705e-04  -1.2425966e-04   1.5938160e-04  -9.3711424e-05  -4.8823081e-04  -2.3820641e-04  -1.2786222e-03  -8.6239168e-05  -8.4754385e-05  -8.2539205e-05  -1.2259126e-04  -2.2398315e-04  -2.9833478e-04  -7.4077107e-05  -1.2090016e-04  -1.9038843e-04  -8.2093821e-04  -1.0809073e-04  -7.0886461e-05  -1.4462649e-04  -3.5421125e-04  -1.4857865e-04  -1.7521593e-03  -9.9540208e-05  -2.4314570e-04  -2.7645589e-04  -8.2654289e-05   9.4316150e-05  -9.1819256e-04   4.0139651e-04  -1.0713124e-04  -3.2992850e-04  -1.0512996e-04  -3.8999601e-04   1.3512906e-04  -5.4642378e-04  -8.7676526e-05  -3.0499397e-04  -2.8116957e-04  -4.5503170e-05  -5.8851998e-05  -5.2912935e-04  -3.8501232e-05  -6.0358725e-04  -3.4953955e-05  -7.8620047e-05  -2.3842524e-04  -8.3677354e-05
  -5.8878184e-04  -2.0020340e-04   1.3298511e-05  -1.2320362e-04  -9.6596859e-04  -1.2957111e-04  -4.6787896e-05  -1.6798655e-04   1.2103851e-03  -5.4749114e-05  -8.9932044e-05  -1.0739431e-04  -1.1844954e-04  -1.7909321e-04   8.9302370e-07  -1.4958390e-04  -9.5466006e-05   1.2289888e-04   1.0203730e-03  -1.0680098e-04  -3.6492318e-05  -1.0462939e-04   3.5334620e-04  -7.0878363e-05   9.8278368e-05  -1.7433651e-04  -4.4296259e-05  -1.5848802e-04  -2.2612880e-04  -6.4463165e-05   5.7814850e-05  -6.0172461e-04   7.8451284e-04  -9.9774828e-05  -1.0063510e-03  -1.4627177e-03  -5.0357819e-05  -2.5461291e-04  -9.2249909e-05  -1.0839197e-04  -4.5452479e-04  -9.6057513e-05  -6.9698726e-05   1.3677723e-03  -6.0508952e-05  -1.4864706e-03  -2.2365575e-05  -1.8164956e-05  -8.4560947e-05   2.3183115e-05
  -6.5554952e-05  -1.4915412e-04  -1.9268724e-04  -1.0962909e-04  -4.4958785e-04  -5.8674097e-05  -2.5047257e-04   5.2371011e-05   2.5083185e-03  -1.9079869e-05  -6.9933856e-05  -8.5779051e-05  -5.1646923e-05  -1.2809320e-04  -4.3895812e-05  -8.5395681e-05  -1.3280009e-04  -1.2411494e-04  -4.9091680e-03  -7.2500858e-05  -3.2583273e-05  -8.6149019e-05   2.0837835e-04  -5.6309465e-05   3.2384615e-04  -4.4157194e-05  -3.9532741e-05  -4.9537299e-05   9.8239825e-06  -5.3270338e-05   7.3107291e-04  -1.5446288e-04   1.8945706e-04   3.1055893e-05  -1.4088441e-04   1.0585401e-03   8.2364502e-05   2.7204776e-04  -7.3600277e-05  -3.3291272e-04  -2.9697601e-04  -5.4352047e-05  -6.2780338e-05   4.7932315e-04  -2.8773659e-04   3.9918383e-04  -3.8957805e-05  -5.5561315e-05  -4.4104094e-05   3.4923789e-06
  -2.2020710e-04  -1.6586356e-04  -6.7916786e-05  -9.1057416e-05  -1.7492293e-04  -2.6975229e-04   1.0035857e-04  -2.6897798e-04   7.0906419e-04  -8.0368838e-05   5.5561509e-06  -7.8235062e-05  -1.7030798e-04  -1.5503574e-04   6.7860943e-05  -1.2804232e-04  -1.1406120e-04  -9.3873830e-05   4.4557289e-04  -2.1387909e-04  -8.2097074e-05  -1.2584978e-04  -3.5497019e-04  -1.4090585e-04  -1.8085746e-04  -1.0768918e-04   8.7631823e-05  -1.3994840e-04   2.5452374e-04  -1.0111577e-06  -2.6847929e-04  -6.2300108e-04   4.3473636e-05  -7.4465323e-05  -1.0015031e-03  -3.2201645e-04   2.7949963e-04  -1.8089316e-04  -7.3863266e-05   1.9114329e-04  -2.5862185e-04  -6.1127772e-05   2.2060865e-05  -4.5805358e-04  -1.5126393e-04   3.2840917e-04  -1.5955951e-05  -3.7067162e-05  -2.7388358e-04  -3.9951337e-06
  -1.4161070e-05  -1.8282859e-04  -5.4069576e-05  -1.6254152e-04   3.9948730e-04  -9.1863687e-05  -1.2427753e-04   1.4540086e-04  -1.9169352e-03  -2.5698138e-05  -9.0606409e-05  -6.6477718e-05  -2.0578980e-05  -2.1153366e-05   2.2480230e-05  -2.2235177e-04  -9.8322555e-05   2.5414556e-05   3.5882422e-03  -7.0710703e-05  -2.8239916e-05  -3.1043943e-05   1.4268086e-04  -6.5123400e-05  -5.2649397e-05  -3.6517811e-06  -1.7848868e-04  -1.9597683e-04   1.7276045e-04   9.4777315e-05  -1.0805422e-04  -3.0622574e-05  -4.4273643e-04   8.5589811e-05   2.7959046e-04  -9.4152597e-04   3.9072515e-04  -1.2871547e-04  -1.1985809e-04  -5.0177408e-04   8.4495376e-05  -4.5762627e-05  -1.7005291e-04   5.1885430e-04  -2.2462459e-04  -3.6549475e-04  -6.7314595e-06  -2.2382432e-05   1.4360691e-04   8.8644192e-05
  -1.2037702e-04  -1.1808952e-04   5.8081445e-05  -1.4174113e-04  -7.1456237e-04  -5.4342956e-05  -8.2890656e-05   1.3930035e-04   1.0323029e-03  -4.9329843e-05   7.4506635e-05  -9.2898314e-05  -7.5862983e-05  -1.4048272e-04  -1.1266461e-04  -1.1030059e-04  -1.5994550e-04  -1.2581512e-04  -1.4246756e-03  -1.3237838e-04  -5.8259284e-05  -9.2445975e-05   8.1925398e-05   4.2269061e-05  -1.1021632e-03   2.7945298e-05  -3.8453526e-04  -1.6132963e-04  -5.3276712e-05  -2.0517598e-04  -1.2500408e-03  -7.4736931e-04  -1.1610574e-04   5.3551499e-05   1.3469646e-03  -6.5425091e-04  -4.3540445e-04  -2.6137201e-04  -1.4209226e-04   3.7398233e-05  -1.0275845e-04  -3.1086973e-05   2.7436903e-05  -1.6218745e-03  -9.7346361e-05   6.2737934e-04  -2.3997281e-05  -4.7153513e-05   1.7353812e-04   6.4518676e-06
   6.3153399e-05  -1.4766616e-04  -6.9456917e-05  -1.6591315e-04  -1.0823036e-04  -1.2791681e-04   1.0573384e-04  -8.8088171e-05  -3.7327791e-03  -8.1607337e-05  -5.4433738e-05  -9.5465068e-05  -1.7544282e-04  -9.2429400e-05  -2.1079514e-04  -1.0584384e-04  -8.9774971e-05  -1.1305852e-04  -2.0109641e-03  -1.6128823e-04  -5.5965938e-05  -1.1487449e-04  -1.7386882e-04  -1.3455749e-04   1.3907591e-03   1.5235371e-04  -1.0987308e-04   7.2249102e-05  -3.3404322e-06   2.0555910e-04  -8.9292845e-04  -3.7667860e-04   2.9021676e-05   1.8523511e-04   1.8297636e-04  -3.3307279e-04  -1.2560858e-04  -2.9818335e-04  -7.9826103e-05  -9.6659554e-05  -2.6455235e-05  -4.6457670e-05  -1.2087834e-04   1.8578963e-04  -8.7786946e-05   1.7019782e-04  -2.6135414e-05  -5.5075168e-05  -7.2348819e-05   6.6624314e-05
  -6.2877523e-05  -1.6699602e-04  -2.4052515e-05  -1.5744472e-04   2.7089936e-05   1.3609864e-04  -5.3370465e-04   6.2371953e-05  -5.7166524e-04  -1.6625992e-05  -1.6281072e-05  -6.4785563e-05  -1.6646097e-04  -1.0569289e-04  -5.9943828e-05  -1.2411275e-04  -1.4372153e-04  -4.1116593e-05   3.5768191e-03  -6.9953509e-05   8.4042877e-06  -1.1918913e-04  -3.3899321e-04  -8.3973970e-07   3.0668129e-04  -8.0952695e-06   1.0199222e-04  -4.5562448e-04  -1.5788870e-04  -1.4480948e-04  -6.1280251e-04  -1.0530626e-03  -1.4400214e-04  -6.7592235e-05  -5.1793060e-04  -8.6473607e-05   2.9578115e-04   6.7455177e-05  -1.4436098e-04  -6.3802081e-04  -2.7602480e-04  -3.2220352e-05   9.5610070e-05  -3.8200236e-04  -1.5298062e-04   3.6578094e-05  -4.9298183e-06  -1.8925630e-05  -2.1450729e-05   5.9411675e-05
   3.3560136e-04  -2.1207851e-04  -1.0537356e-04  -3.5198661e-04  -1.5935746e-04  -2.7632712e-05  -1.7439762e-04   9.9398865e-05  -4.5904232e-04  -2.9456200e-05   1.3538322e-05  -7.4905794e-05  -1.1590015e-06  -1.0056391e-04  -4.8463193e-05  -1.3365144e-04  -1.8070913e-04   1.4101284e-06  -1.6707190e-03  -1.1506004e-04  -2.4518464e-05  -8.1490900e-05   3.2990478e-04  -1.2828328e-05   1.1409714e-03  -3.6616864e-05   2.1657423e-05   1.9000600e-04   3.5172366e-04  -7.3377218e-05   1.0779641e-03   6.9025657e-05   3.5486399e-04   1.2774098e-04   1.5018795e-03  -3.6530523e-04   3.2534369e-04  -3.0310510e-04  -9.0888090e-05  -4.2959745e-04   5.4544347e-05  -3.9656170e-05  -2.4909549e-04   3.9251667e-04  -9.1676731e-05  -6.6310324e-04  -8.8821880e-06  -3.3450771e-05  -1.1338362e-04   2.4433788e-05
   3.2885859e-04  -1.1888785e-04  -1.5255735e-04  -6.5420500e-05   2.3806471e-04  -2.8059559e-04  -4.6828037e-04  -7.9260870e-05  -1.5124656e-03  -6.7968227e-05  -2.2381473e-05  -8.7521636e-05  -9.1460410e-05  -5.7745026e-05   6.6032953e-05  -9.0330650e-05  -1.3207887e-04  -1.3212151e-04   2.3978141e-03  -1.7878706e-04  -6.2042243e-05  -1.1467391e-04  -1.0816510e-04  -1.2476763e-04  -7.2888863e-05  -4.1236188e-05  -7.8636986e-05  -5.5488221e-05  -7.7976892e-07  -9.1655806e-05   1.2393934e-03   5.7871232e-04  -5.8189344e-05   1.0703781e-04  -1.0897669e-04   1.2745538e-04   2.7286800e-05  -4.1607805e-04  -9.4419280e-05  -4.1247880e-05  -6.5642453e-05  -3.8302747e-05  -1.4313274e-04  -1.0896123e-03  -2.1290572e-04   2.3957191e-04  -6.0108796e-06  -2.0831781e-06  -1.8548318e-04   3.3374658e-05
  -6.0295213e-05  -1.3450651e-04  -1.0730646e-04  -1.4358488e-04  -2.7409996e-04  -3.1729773e-04   3.6044262e-04   1.7036985e-04   2.6963612e-03   5.6451149e-06  -1.1681642e-05  -7.5195327e-05  -1.8769984e-05  -1.8758141e-04  -2.0569758e-05  -1.0260113e-04  -1.4724655e-04  -1.0166455e-04   1.2122802e-03  -6.1831051e-05  -7.4440877e-06  -4.0679286e-05  -9.0840374e-05  -9.2100658e-05  -2.6478595e-04  -1.5019634e-04   1.6451956e-04  -1.9790295e-04  -6.8533518e-05  -8.8271503e-05  -5.2887021e-04  -6.6574628e-04  -2.0520679e-04   1.0080577e-04  -7.3228579e-04   1.7114726e-05  -5.3688837e-04  -8.8909655e-05  -1.7595230e-04  -2.0331964e-04   1.0917334e-04   2.4984689e-05   1.9704044e-05  -2.3222591e-03   1.7792672e-05  -1.1085622e-03   1.1960356e-05  -6.9816968e-05   2.0760119e-04  -4.9461716e-05
  -1.1996464e-04  -1.3766658e-04  -1.8227864e-04  -1.1950679e-04  -3.9172659e-04   8.5809988e-05  -1.6616057e-05   6.7605353e-05  -5.2236435e-03  -2.4286553e-06   2.5352811e-05  -6.0041079e-05  -4.6064673e-05  -2.3388315e-04  -2.4547140e-04  -2.9244513e-05  -8.1745748e-05  -1.8226837e-04   2.9835901e-03  -1.0759159e-04  -3.3878048e-05  -1.4416179e-04   1.5446266e-04  -1.3336113e-04  -6.8828353e-04   3.0353813e-05   1.1650247e-04  -3.1717060e-04  -3.6552781e-04  -5.7803380e-05  -2.5061597e-04  -2.5445168e-04  -1.7938642e-04  -2.1701031e-04  -2.5847118e-04  -5.9289567e-04   4.9025507e-04  -9.2543691e-05  -1.7832081e-04  -2.0524913e-04   4.4914694e-05  -1.9573017e-05  -1.0036880e-05   7.0028484e-04  -5.7164412e-05  -7.6456618e-04   9.2098771e-06  -7.7162644e-05  -1.5124504e-04   8.3034785e-05
  -1.2246934e-04  -1.2167711e-04   3.3176850e-05  -4.5345747e-05  -1.2311018e-04   2.5382187e-04  -5.5997469e-04  -8.4630847e-05  -2.9632398e-03  -5.2338917e-05  -2.0187927e-05  -7.5019903e-05  -6.4458254e-05  -1.1282766e-04  -1.2582818e-04  -4.5189059e-05  -1.7249536e-04  -5.8690341e-05  -4.6068613e-04  -1.1537031e-04  -6.3527019e-05  -1.6533821e-04  -3.9726691e-04   1.1311789e-06  -4.4405853e-04  -1.2098558e-05   2.3253707e-04   4.7375139e-05  -2.7575874e-04   2.0942182e-04  -1.4133680e-05  -4.2795451e-04  -1.3348127e-04  -2.4276292e-04  -9.0608117e-04  -7.2936452e-04  -1.0090931e-03  -2.5283615e-04  -1.3500708e-04  -5.6436047e-04   3.8697781e-05  -4.8983580e-05  -4.8941914e-05   6.8836473e-04  -1.3449239e-04   9.9652832e-05  -1.8946534e-05  -3.2271524e-05  -1.7421426e-04   2.5105019e-05
  -4.5391062e-04  -1.6765537e-04  -2.3380459e-04  -1.6455811e-04  -5.3798012e-04  -4.2539727e-05  -5.1709166e-04   3.0088886e-05  -2.7177022e-03  -7.4613122e-06  -1.0488358e-04  -7.6078817e-05  -1.5292366e-04  -3.7293143e-05  -1.6498768e-04  -8.8711713e-05  -1.6483378e-04  -3.7402402e-05  -2.0938192e-03  -7.5894393e-05  -4.3441440e-05  -1.2692284e-04   2.7514780e-05  -5.0275161e-05  -1.1693039e-04  -9.7388365e-05  -1.6895952e-04  -2.7434489e-06   3.6635489e-04   7.6614615e-06  -1.0254130e-03   3.2755514e-04  -1.6274441e-04   8.3638311e-05   1.0347646e-03   5.2160717e-04  -8.4088527e-04  -1.1985275e-04  -1.3464643e-04   5.9496920e-04   3.6797088e-04  -1.4107076e-05   7.4217689e-07  -1.4693223e-04  -2.8125747e-04   7.8902941e-04   2.0184611e-05   2.9438932e-05   1.8716016e-04   7.7339821e-05
  -8.8592729e-05  -1.4969564e-04  -6.6853783e-05  -2.3051212e-04   7.2464252e-05  -2.5095945e-04   3.4678710e-04  -4.6538433e-05  -1.0235319e-03  -3.3588538e-05  -1.5098962e-04  -8.4092462e-05  -1.1569695e-04  -9.1162678e-05   3.1265008e-05  -1.3160497e-04  -9.4342846e-05  -6.9412810e-05  -1.2732901e-03  -8.1797742e-05  -6.8227760e-05  -1.0733647e-04   1.0855473e-04  -5.2428946e-05  -7.6975138e-04   7.0341707e-06   1.5129884e-04  -3.1944233e-04  -3.7472736e-04  -2.9343617e-05   1.2467169e-03   2.1515561e-04  -4.4301504e-04   1.3113044e-04  -9.2597585e-04   1.9823210e-04   7.1800471e-04  -1.5742377e-04  -8.4630403e-05  -2.8526178e-04   1.4211962e-04  -8.5740630e-06   5.4194432e-05   1.0470102e-04  -1.9829466e-05   4.4408440e-05   2.0744339e-05   3.0785584e-05  -9.7150041e-05   3.2808399e-05
  -4.5160070e-04  -2.0402495e-04   2.6690643e-05  -1.5023514e-04  -2.7557323e-04  -7.0350245e-05   1.6694707e-04  -6.4761494e-05  -7.4214442e-04  -7.0650793e-05  -1.4384947e-04  -5.4846056e-05  -1.4431194e-04  -2.0610985e-04  -1.2262991e-04  -4.3691882e-05  -1.0449288e-04  -4.4730143e-05   5.6413951e-04  -6.9909147e-05  -8.5815518e-05  -1.0632788e-04   2.3682351e-05  -8.3635910e-05  -2.5187663e-04   5.3698674e-05  -7.1552247e-05   1.0569376e-04  -3.0369815e-04  -9.6774769e-05   6.7295573e-06  -8.2491687e-04  -2.4957009e-04   1.9505619e-04   3.2383596e-04   7.2462321e-04  -1.7759282e-04  -3.6620689e-04  -1.0289906e-04   2.3521471e-04  -1.1363107e-04  -1.3999768e-05   3.4653134e-05  -1.1195248e-04  -1.1636790e-04  -1.2858176e-04  -1.2050695e-05   3.5902300e-05  -9.7792908e-05   9.3260591e-05
   2.6848234e-04  -1.0304761e-04  -1.4669768e-04  -2.8386561e-04   3.3706841e-05  -3.4880667e-04   2.0816826e-04  -1.0589500e-05   2.3793557e-03  -7.8094570e-05  -7.2128401e-05  -8.4633139e-05  -5.9183414e-05  -1.3576793e-04  -6.9293252e-05  -4.2833079e-05  -1.4400887e-04  -2.7633624e-04   3.5817522e-04  -1.6837330e-04  -7.0370821e-05  -1.4718817e-04   3.4068202e-04   1.7779523e-05  -3.4265505e-04  -2.8600442e-04  -3.4336979e-05   4.1060586e-04   2.2983928e-04  -6.0427643e-05  -1.8196806e-03  -3.6863508e-05  -2.7395852e-05   2.4171009e-04  -1.9085178e-03  -7.3167190e-05  -3.5148649e-04  -4.1394238e-04  -1.8512686e-05  -7.2721405e-06  -1.0064105e-06   3.8350110e-05   1.8427167e-04   2.9435859e-04  -2.0266788e-04  -7.7646942e-04   2.9229472e-05  -1.9578292e-05   4.5228298e-05   5.0003295e-05
   4.1236202e-04  -1.0919941e-04  -2.4952489e-04  -2.4084703e-04  -2.6800594e-04  -2.4865515e-04  -3.4585897e-05   4.5518020e-05   3.6602283e-03  -3.4521636e-05  -6.7735571e-05  -8.8526293e-05  -8.1953289e-07  -7.7161261e-05  -9.6605028e-05  -6.7507855e-05  -5.0663773e-05  -1.2179370e-04  -9.3428814e-04  -1.1847541e-04  -5.3500407e-05  -1.3629545e-04   1.4977527e-05  -7.1464106e-05   5.6546291e-05  -7.2161085e-05   4.8585618e-05   4.3569751e-05  -7.1408943e-04   8.8941117e-05  -8.0957304e-04  -4.0684399e-04   2.6500752e-04   1.5225333e-04   6.5454347e-05  -6.6801840e-06  -5.0875585e-04  -2.5275210e-04  -8.1420469e-05   1.3744738e-04   1.8851955e-04  -7.5208332e-06  -1.0322947e-04  -4.9769343e-04  -8.4404965e-05  -9.1565645e-04   3.2458527e-05  -8.1627943e-05   3.8804177e-05   1.3127775e-04
   2.2930425e-04  -1.4115484e-04   4.0034606e-04  -2.6065647e-04  -5.0959864e-04  -2.1219111e-04  -6.4748776e-05  -9.6158648e-05   5.2231358e-04  -2.6821161e-05   2.8842922e-05  -8.8097506e-05  -9.9342535e-05  -1.1254140e-04  -6.9233341e-05  -4.7894155e-05  -1.8582030e-04  -1.7398306e-04  -3.3029520e-03  -1.2265090e-04  -7.9155398e-05  -9.2687129e-05   7.6245662e-05  -1.4849848e-04  -1.9670292e-04   4.0581337e-05  -6.9308495e-05  -1.9742781e-04   2.0407322e-04  -7.9328609e-05  -1.4647804e-03  -6.3397037e-04  -1.5128205e-04  -1.5835148e-04  -5.5739522e-04   6.2607176e-04   1.1550502e-04  -6.9251990e-05  -4.6868550e-05  -1.5399972e-04  -7.5494892e-05  -1.4063741e-05   3.6547641e-05  -3.3753060e-04  -3.2691029e-04  -1.6872950e-04   1.4467274e-05  -4.2650878e-05  -1.1087554e-04   6.6274384e-05
   8.7576387e-05  -1.5709869e-04   2.0363421e-05  -8.4742496e-05   1.9419713e-05  -7.2678820e-05  -7.1887989e-05   1.3729463e-04   1.0875687e-03  -9.0818161e-05  -1.0596993e-04  -8.3118670e-05  -4.9527348e-06  -6.4224092e-05   7.2718140e-05  -2.2029762e-05  -2.7615291e-05  -6.0666622e-05   1.6779802e-03  -1.4682740e-04  -8.8124150e-05  -1.6973591e-04  -1.6958195e-04  -9.3376933e-05  -4.6900561e-04  -4.1104031e-05  -9.3645911e-05  -2.3300086e-04  -1.6862247e-04   1.1130000e-04  -3.6720387e-04   8.2574807e-05   9.3013143e-05  -1.2807400e-04  -1.3675547e-03   1.7810700e-04   1.2434197e-04  -4.0597108e-04  -1.8419986e-04   5.8040430e-04   2.5020499e-04   7.5793814e-06   2.2185628e-05  -5.7842513e-04  -7.3975767e-05   6.4541819e-04   6.7612324e-05   4.5652676e-05   2.0283805e-04  -2.4343861e-05
  -4.8287755e-05  -1.4293246e-04  -4.6747638e-05  -3.5189223e-04  -4.7192819e-04   4.0262990e-04   4.0084304e-04  -1.7377785e-04  -4.5011863e-03  -2.1730219e-05  -2.4565612e-05  -6.0487942e-05  -1.0057781e-04  -7.5338925e-05  -1.2089501e-04  -8.7869012e-05  -5.1982599e-05  -1.7078753e-04  -4.7447209e-04  -8.8775836e-05  -4.5540179e-05  -1.5718518e-04   1.3524988e-04  -1.4280536e-05   1.0626426e-03   8.1630105e-07  -3.4624664e-04  -2.2416843e-04  -1.0889937e-04   6.5676890e-05   2.6518948e-04   1.5233883e-04  -2.8211702e-04  -1.0410395e-04   1.2034008e-03  -2.0935124e-05  -3.5013779e-04   3.5156238e-05  -8.5124797e-05   6.4409606e-04  -9.3425922e-05   5.1316142e-06   9.4139483e-05  -5.0874497e-04  -1.2428290e-04  -5.0594332e-04   3.4453227e-05   2.0796990e-05  -5.3283922e-05   1.4099549e-05
  -3.8936848e-04  -1.3908866e-04  -4.2647790e-04  -1.3219386e-04   1.4620264e-04  -3.5344879e-04  -1.3025259e-04  -5.7318591e-04   4.6945573e-04  -5.6791625e-05   1.6262074e-05  -6.9967493e-05  -6.1728242e-05  -1.9160000e-04  -3.0222509e-04  -4.0755320e-05  -7.6261058e-05  -1.7111600e-04   1.8427962e-03  -1.1706052e-04  -7.9725229e-05  -1.0966163e-04  -1.8064686e-04  -1.2797320e-04  -5.7976262e-04  -1.6035477e-04   8.3634470e-05  -2.6767277e-05  -2.1833623e-05  -1.7571704e-04  -3.3645585e-05  -2.9225624e-04  -3.8237660e-04  -1.2921703e-04   1.1001213e-03  -5.8624294e-04   4.1528363e-04  -1.1248691e-04  -6.8849011e-05  -4.3651045e-05   2.1826892e-04   1.8418674e-05   8.6289561e-05   1.5540329e-04  -2.8060802e-04   3.4251172e-04   1.5293581e-05   5.6075125e-05  -1.8791771e-04   1.0328456e-04
   4.1884236e-05  -8.9081288e-05  -1.5991095e-04  -7.4560608e-05  -1.1092506e-04   5.2580770e-05   5.2798237e-05  -2.1199773e-04   8.2444046e-03  -7.5491065e-05  -5.7230965e-05  -7.4133291e-05  -1.0262860e-04  -1.0269313e-04   3.4758243e-05  -9.9921279e-05  -1.1437877e-04  -8.2212813e-05  -4.4175290e-04  -1.2677509e-04  -1.0121442e-04  -1.7130258e-04  -3.2748564e-04  -6.7456494e-05  -2.4262411e-04  -2.4676349e-04   2.7304704e-04   7.1150091e-05  -6.8192213e-04   4.1135747e-05  -3.7507809e-04  -1.7696436e-04  -4.5765142e-04   2.0303395e-04   6.4869336e-04   3.4969600e-04  -3.4862565e-04  -4.6352379e-05  -7.1739087e-05  -6.2408485e-04  -2.3282281e-04   5.0371291e-05  -4.9335318e-05  -7.2284555e-04  -1.5189072e-04   3.3034862e-04   5.7451536e-05  -4.2108539e-05  -1.7883645e-04   5.3616721e-05
   2.5201580e-04  -1.3083588e-04   8.2553015e-05  -2.4695092e-04   4.4789416e-04   1.4086355e-06  -1.9840106e-04  -3.1351781e-04   5.5876058e-03  -1.8670764e-05  -6.7379442e-05  -5.2376814e-05  -7.2782641e-05   9.5970954e-06  -1.6467011e-04  -1.2357305e-04  -9.3523289e-05  -1.4306302e-04   1.7162828e-03  -7.2720140e-05  -1.1947803e-05  -8.1364167e-05  -1.2941621e-04   2.1776605e-05   7.1122946e-04  -4.6819136e-05  -1.2534908e-04  -1.6275282e-05  -4.9548160e-04   2.3271471e-04  -2.0818641e-04  -6.1202422e-04   8.3935571e-05  -7.9650970e-05   9.0465805e-04   3.8591769e-04   1.0394695e-04   1.8880465e-04  -1.0295546e-04  -9.0988658e-05   2.0988114e-04   2.3957602e-06   9.9349711e-07  -3.5326791e-04  -2.6976906e-05   1.1792767e-03   5.6339435e-05  -1.0882341e-05  -2.5331310e-04   8.6758344e-05
  -1.8415612e-04  -1.4738516e-04   1.3571225e-04  -8.7070359e-05  -1.4826765e-04  -1.2405438e-04  -2.9240854e-04  -1.4130140e-04   4.2367433e-03  -4.1919109e-05   2.3431057e-05  -5.9682945e-05  -9.1809212e-05  -4.9810507e-05  -7.9102792e-05   7.1339969e-06  -1.2412804e-04  -5.8492584e-05  -2.3439243e-03  -9.6394986e-05  -5.5877557e-05  -1.0087920e-04   4.2767464e-05  -1.0784797e-04  -4.2065306e-04  -8.0856225e-05  -1.9503135e-05   6.1937375e-05  -2.3456932e-04  -5.4950182e-05  -5.9041247e-04  -9.7800465e-04  -5.0230283e-05   2.1880564e-06   1.8058472e-03   2.3272010e-05  -5.0685205e-04   1.9698014e-04  -1.1155170e-04   9.8353856e-05   1.7894433e-04   1.9288140e-05  -6.8983682e-05  -3.2211616e-04  -4.9742528e-05   2.5497421e-04   4.1517491e-05  -4.6257443e-05  -4.7293001e-06   8.4633873e-05
   2.7564287e-05  -1.0128489e-04  -7.8353878e-05  -1.5573414e-06  -1.4288971e-04  -4.5416000e-05  -3.1786432e-04   4.4744920e-05  -5.1444680e-03  -6.6102730e-05  -1.2433314e-04  -5.8949154e-05  -9.6477394e-05  -2.4676492e-05  -9.5770374e-06  -7.1602917e-05  -9.4929193e-05  -1.2964598e-04  -1.2192840e-03  -1.0867772e-04  -7.1507886e-05  -1.8321736e-04   2.1975275e-04   4.9097791e-05   8.7750563e-04  -1.8197212e-04   1.7759562e-04  -6.6158951e-05   7.7045101e-05   8.7356522e-05   1.3742819e-03  -6.8100466e-04   9.9156368e-06  -2.6511983e-04   3.4820961e-04  -1.2540571e-04  -4.7065350e-04   1.1888792e-04  -1.3703098e-04   3.3467066e-05  -2.1370618e-04  -8.0548477e-07  -1.1455353e-04  -7.4677431e-04   1.5345140e-04   1.0673694e-03   3.0629617e-05   4.9199152e-05  -2.5119999e-04  -3.6992249e-05
   5.0386832e-05  -6.4737047e-05  -1.7561826e-05  -3.5002831e-05   2.8619982e-04  -1.4003592e-04   9.7383236e-05  -5.8288962e-05   1.3752102e-03  -2.4665505e-05  -8.1157195e-05  -6.1453342e-05   1.5122015e-05   2.6736492e-05  -4.9244951e-05  -5.8040587e-05  -1.2050830e-04  -2.7521741e-05  -6.6940830e-04  -4.7830647e-05   7.3031770e-06  -1.3019390e-04   2.2217532e-06  -6.6168337e-05   3.1033217e-04  -1.2305427e-04   1.7579949e-04  -7.1045397e-05  -3.1184126e-04  -5.8453384e-06  -3.2622378e-05  -2.2728532e-04  -1.9130300e-04  -1.4461149e-04  -2.3390437e-04   1.3027106e-04  -5.6546327e-04   9.3909133e-05  -7.2429459e-05  -8.6922606e-04   6.7564870e-05   1.6632794e-05   1.3401794e-04  -1.0697127e-03  -5.4874748e-05  -4.2233878e-04   5.6485413e-05   6.4651622e-06   8.1530939e-05   5.0524672e-05
  -1.6444921e-04  -1.3195525e-04   2.0984281e-04  -1.9865674e-04   3.1223733e-04   1.4576474e-04   4.6544761e-04  -2.3457138e-05  -2.6502009e-03  -1.8596984e-05  -1.4672209e-05  -2.8679520e-05  -1.4392247e-05  -1.1042190e-04  -8.7530003e-05  -9.0923597e-05  -2.7248159e-05   1.0850516e-04  -4.4443642e-04  -6.6661290e-05  -4.0195853e-05  -1.4764261e-04   1.2064508e-04  -2.2294844e-06   7.1898237e-04  -7.3726129e-05   1.1247710e-05  -2.7898452e-04  -2.6418720e-05  -9.7227727e-05   3.3253964e-05   1.4302312e-04   1.2933784e-04   2.1759624e-05  -1.3664521e-04   1.1849743e-04  -6.4093759e-04  -1.5481362e-04  -8.6300301e-05  -4.1885945e-04  -3.1558720e-05   5.3479409e-05   8.8998364e-05  -1.9518804e-04   4.1047086e-05   1.1179525e-03   5.3651933e-05  -4.4239107e-05  -1.0262098e-04   1.0175257e-04
  -2.6562117e-04  -9.2248993e-05   8.2168241e-05  -2.4599428e-04   2.2174745e-04  -1.1650167e-05  -5.4211228e-04  -2.1902725e-04  -2.1031714e-04  -4.5817465e-05   7.7282835e-05  -3.7862537e-05  -6.6298337e-05  -1.6733617e-04  -5.8457543e-05  -1.1891502e-05  -1.7765610e-04  -4.8323422e-05  -1.8201651e-03  -1.9178602e-04  -1.0114836e-04  -1.2644270e-04  -2.1387391e-04  -1.4799337e-04  -6.3560129e-04   2.2829201e-05  -1.5646483e-04  -9.8240249e-05   1.2805240e-04   7.3634204e-05   1.5954245e-04   1.7155695e-04   3.6365545e-04  -2.5923202e-05  -4.6115214e-04   6.4600812e-04  -8.9640758e-05  -8.0303100e-05  -8.4719977e-05  -3.1860420e-04  -8.4438099e-05   3.9585084e-05   3.5182074e-05  -2.8615617e-04  -1.0260050e-04   2.9089890e-04   4.0166011e-05  -4.6289511e-05  -4.2185635e-05   4.2187210e-05
   3.9719394e-04  -5.1291652e-05  -2.3344659e-05  -7.5859396e-05  -5.4124772e-04  -7.5972166e-05  -3.7661119e-04  -6.1353430e-04   1.9427409e-03  -7.9394071e-05   3.1792330e-05  -4.6689587e-05  -8.8781424e-05  -6.9355629e-05  -5.5189201e-05  -6.6617526e-05  -2.0358583e-04  -8.6717038e-05  -5.4788892e-04  -8.4989581e-05  -5.1542607e-05  -1.2932590e-04   3.1973799e-05  -7.4882315e-05  -3.3485681e-05  -1.5818147e-04   2.6685724e-04   1.3535836e-04   3.2531674e-04  -4.7049832e-07  -3.6027108e-04  -1.7198779e-04  -3.0073844e-04   1.8175962e-04  -4.7059800e-04  -3.9159361e-04  -1.1562672e-03   1.2026828e-04  -7.8285877e-05  -9.5596100e-04  -2.1999689e-04   2.4379400e-05   6.5879740e-06  -5.0206005e-04  -9.0459747e-05   4.1578535e-04   5.5242741e-05   5.9569295e-05  -2.3682651e-04   9.5960379e-05
   3.5701541e-04  -1.0818889e-04   2.4616058e-05  -2.7482898e-04  -2.7680615e-05  -7.0914917e-05  -4.7244968e-05  -3.8571819e-05   6.0454389e-04   1.6935574e-06  -6.4399777e-05  -3.6495971e-05  -6.5574168e-05  -2.3509669e-05  -2.3021587e-04  -9.6145122e-05  -8.7866807e-05  -5.8122278e-05  -2.8378675e-03  -8.1567327e-05  -2.7043964e-06  -7.4886419e-05   3.3886533e-04  -5.0284121e-05   4.1303065e-04  -9.9582001e-05   6.8239882e-05  -1.5522324e-04  -2.8955174e-04   9.8216842e-05  -2.1990677e-04  -6.9520355e-04   8.0969854e-05  -5.5516819e-05  -5.7443033e-04  -1.2996884e-04   7.1878964e-04  -1.0634503e-04  -9.9691671e-05  -3.9177138e-04  -1.0527694e-04   1.1781190e-05   4.4266806e-05  -6.3939200e-04  -2.6366991e-04   1.0181859e-04   6.5244392e-05   2.2465489e-05  -2.7372042e-05   8.8050278e-05
  -2.9825480e-04  -8.0885176e-05   5.6620331e-05  -1.1062680e-04  -2.1402254e-04  -1.4910598e-04   3.1883834e-04  -1.9912643e-04   3.7396864e-03  -2.4368463e-05  -6.5505337e-05  -5.8252332e-05  -2.8534441e-05  -4.9071365e-05  -7.9730933e-05  -6.1633211e-05  -4.4016193e-05  -1.6103642e-05  -3.5065827e-03  -5.5200286e-05  -1.4014660e-05  -8.1426100e-05   5.1817682e-05  -1.0909048e-04  -2.0114248e-04  -2.8402685e-05  -1.9587716e-05  -2.5003601e-04  -1.3451860e-04   7.7323966e-05  -7.6531916e-04  -7.1241020e-04   1.9863491e-04   4.6576271e-05   1.0454921e-03   6.3429069e-04  -1.3748051e-04  -3.2143249e-05  -1.7311233e-05  -4.7120609e-04  -2.9187900e-04   1.1269351e-05  -5.3461667e-05   1.3178107e-03   5.9313228e-05  -2.9515487e-04   4.7796650e-05  -2.7836790e-05  -1.9360803e-05   8.6612810e-05
