  -1.2998587e-04  -1.0373125e-04  -3.4712983e-05   1.2309197e-04   2.6471713e-05  -1.0844074e-05   7.9295169e-05  -2.3208435e-04  -1.9779801e-03  -1.0307613e-03  -1.4794181e-05  -6.1279698e-04  -3.6475180e-05   3.5204750e-05   1.5583563e-04  -3.5069719e-05  -8.1651924e-05  -6.6878107e-05  -6.8079407e-04  -2.1726622e-05  -6.9679332e-04  -5.6442228e-04  -5.3857150e-04  -6.6014274e-04  -3.1266778e-04  -1.1531133e-04   1.1072285e-04   2.5753753e-04   2.1754707e-04  -2.1802311e-04  -4.5216220e-04  -7.9189544e-04  -6.2058319e-04   3.4229128e-05  -3.2417162e-04  -3.5818218e-04  -1.1498115e-04   1.7404427e-04   3.9286657e-05  -1.0894422e-04   2.4039158e-05  -1.5504746e-04   2.3354228e-04   1.5632439e-03   6.2183695e-05   2.2006863e-05  -4.7809462e-04   4.2464955e-05  -6.9190799e-05   1.1458001e-04
   1.7124394e-04  -4.4792851e-05  -1.0330894e-04   4.5571065e-05  -1.4408694e-04  -9.8902347e-06   3.4536279e-04  -1.2843157e-04  -2.8964120e-04  -1.0563064e-03  -2.6277998e-05  -6.2248966e-04  -1.8323546e-04   4.4770899e-05   2.1704892e-04   5.6857549e-05  -2.6200480e-05  -1.0264277e-04  -2.0414283e-03  -5.1077692e-05  -7.1747531e-04  -5.1449327e-04  -2.1913480e-04  -5.8955268e-04  -3.4781831e-04   1.8353579e-05   2.3866580e-04  -3.2185932e-04  -1.9950804e-04  -9.6873613e-05  -3.8096661e-04  -6.5678562e-04  -5.8241741e-04   1.6327394e-04   6.7923800e-04   1.4253061e-04  -1.1293232e-05  -3.0999442e-04  -2.5175937e-06   6.7219482e-04   2.1455611e-05  -1.2871930e-04   2.4842165e-04  -8.3600712e-04   1.0913004e-04   5.4634397e-04  -4.5013288e-04  -1.7764140e-05  -2.0944808e-06   3.2665537e-04
   3.4650682e-05  -9.3209703e-05   1.6777780e-05  -1.9364011e-04   4.2876641e-06  -3.5987986e-04  -8.5594214e-04  -1.0108859e-04   1.9205557e-03  -9.8750496e-04  -6.1475934e-05  -6.4529851e-04  -1.0761072e-04  -4.5405250e-05  -3.2981290e-05   5.8970483e-05  -9.2830822e-05   5.6797953e-06  -1.1708264e-03  -3.9386829e-05  -6.7762617e-04  -5.2712770e-04   5.7806988e-05  -5.5277813e-04   1.0625820e-04  -1.5978982e-04   3.4820012e-04  -3.3669060e-04   2.1643334e-04  -1.5696470e-04  -3.8609075e-04  -7.3068193e-04  -2.6864323e-04  -3.0443192e-05  -2.6884535e-04  -1.1475337e-04  -3.5167619e-04   3.3145689e-04   6.0631828e-06  -7.8735646e-04   3.2629652e-04  -1.7018836e-04   2.6395393e-04   8.8748964e-04  -1.1448989e-05  -1.0588739e-04  -4.6870715e-04   1.9292147e-05  -1.5488602e-04   2.7185111e-04
  -4.7054005e-04  -1.0270961e-04  -5.6721685e-05  -1.2702809e-05   8.3452389e-05  -9.0967507e-05   9.1904229e-05  -1.7479628e-04  -1.3493461e-03  -1.0228559e-03   9.0317131e-05  -6.2316214e-04  -8.2097897e-05   3.8375929e-05   2.8369599e-04  -1.2321550e-05  -2.4832238e-05  -3.9005809e-05   2.8797353e-03  -2.3627190e-05  -6.8793184e-04  -5.5726239e-04  -4.8163993e-04  -4.3437065e-04  -7.9938938e-04   1.9300335e-04  -3.9250133e-04   4.7977966e-05   3.5537576e-04  -1.6074139e-04  -5.5082038e-04  -1.9899107e-06  -2.3096350e-04   4.6183584e-05   3.7705450e-04   2.3000505e-04  -2.1966007e-04  -1.8673923e-04  -9.5809287e-07  -6.8275572e-04   2.2638089e-04  -1.7814479e-04   1.9096932e-04  -5.7554967e-04   3.4721077e-06   3.0218536e-05  -4.9086061e-04   4.1170828e-05   1.3056531e-05   1.1196886e-04
  -2.9502550e-04  -1.3008113e-04   1.0667049e-04   7.5227901e-05  -5.1774608e-04  -2.3768918e-04   3.0468556e-04  -1.1155049e-04   6.9338035e-05  -1.0786073e-03   8.2162830e-07  -6.3213782e-04  -3.0879572e-05   1.5577434e-05  -1.2156719e-04  -4.1549807e-05  -6.7004810e-05  -1.4021629e-04   1.3250676e-03  -2.7600428e-05  -7.1816240e-04  -5.3499761e-04  -8.7890312e-06  -6.3843507e-04   5.9197954e-04   1.7366221e-05   7.3587978e-07   3.3391264e-04   3.4741388e-04  -2.8394925e-04  -1.1316621e-03  -6.8488873e-05   1.9653566e-05  -1.3160298e-04  -1.0754335e-03   2.2251555e-04   3.1886221e-04   1.7142225e-04   1.6422679e-05   2.1334621e-04   1.3123723e-04  -1.8790009e-04   6.1788436e-05   2.2499669e-05   1.0198509e-06   1.8091489e-03  -4.7598942e-04  -3.3357821e-05  -8.2013088e-05   1.1721747e-04
   3.6087840e-05  -3.2282391e-05   3.1204268e-05  -1.4975256e-05   5.0530530e-04   7.3060073e-05  -2.4340447e-04  -7.5625743e-05   4.4509149e-03  -1.0252437e-03  -8.1276499e-05  -6.0506474e-04  -5.2968408e-05  -9.7179574e-05   8.3192623e-05   9.1758564e-05  -1.5580850e-05  -1.5072996e-04   2.7330729e-04   5.1743849e-05  -6.6868245e-04  -4.5426897e-04  -3.2235056e-04  -5.3588225e-04  -5.8233761e-04  -1.2192345e-04  -3.0376454e-04  -2.6252179e-04  -4.3012322e-05  -2.4395730e-04  -1.1355455e-03  -2.3096045e-04  -2.5985725e-04  -1.2687084e-04   2.0972199e-03  -2.4545667e-04  -9.2283811e-04  -2.8132900e-04   2.6890433e-05  -2.8601289e-04  -6.7882727e-05  -2.1014578e-04  -1.9144743e-05  -6.2793342e-04  -6.5964101e-05  -5.0305517e-04  -4.6658283e-04  -3.0498639e-05  -1.8544203e-04   1.1473329e-04
  -1.6924582e-04  -7.7475917e-05   8.9864930e-05  -2.4808273e-06  -1.0795005e-05  -4.0319667e-04  -1.2423089e-04  -1.3528003e-04   1.1284794e-03  -1.0409976e-03  -6.2599414e-05  -6.5345032e-04  -5.8130114e-05  -7.9623576e-05  -3.0132488e-04   7.8094126e-05  -7.7326731e-06   2.9217734e-05  -7.9255004e-04  -3.6507823e-05  -6.9572410e-04  -5.2458612e-04  -3.7710865e-06  -5.0922926e-04  -3.3736596e-04   1.9025560e-04  -1.4869610e-04   1.7384065e-05  -1.7086067e-04  -1.6571605e-04  -4.1843156e-04   1.8382784e-04  -3.3786995e-04  -6.1507984e-05  -1.6400340e-03   3.6428330e-04   1.1165061e-04   2.8625934e-04  -9.4230345e-06   1.4223049e-04  -1.3419484e-04  -2.0782856e-04   1.0147912e-04   4.1897665e-04   3.0876039e-05   1.1685874e-03  -4.9980305e-04  -2.4536290e-05  -2.5812073e-05   1.6749774e-04
   2.8450926e-05   2.0657915e-06  -1.1107542e-04   1.4367057e-05   7.4075523e-04  -1.0685046e-04  -1.4985538e-04  -1.7103033e-04  -3.6797153e-03  -1.0580899e-03   7.9222809e-05  -6.3290750e-04  -1.0198266e-04   1.8979201e-05  -1.3897373e-04  -4.0659579e-05   4.2801359e-05  -4.3131800e-05   1.4195066e-03  -1.2538128e-04  -7.5150002e-04  -5.7820184e-04  -5.7963526e-04  -6.0199236e-04  -8.1024447e-04  -2.2047303e-04   2.8186662e-06   8.8839770e-05  -1.5091758e-04  -2.1931385e-04  -4.9427192e-04  -6.7041656e-05  -1.5129753e-04   6.2676394e-05   4.4487595e-05  -1.2453435e-03  -2.2453006e-04   2.1954850e-04   9.2628206e-06   4.1738822e-04   3.9190905e-05  -1.9387231e-04   2.1930350e-04   6.8012159e-04   5.3521221e-06   2.3711497e-04  -4.7371082e-04  -5.2943440e-05   8.9015404e-05   2.4921063e-04
  -5.5171698e-05  -3.7245001e-05   1.3236284e-04   4.1214538e-05   6.3355436e-04  -9.9351368e-05   1.2752024e-04   1.2485829e-05  -3.0903649e-03  -1.0249168e-03   8.4505455e-06  -6.1703991e-04   8.5076545e-06  -1.9597186e-05   2.6310110e-04   2.0429052e-05  -4.5644774e-05  -6.5740147e-05   2.7123846e-03   1.8947812e-05  -6.8430236e-04  -4.3602189e-04   3.4284800e-05  -5.7811232e-04  -6.0829864e-04  -8.6899337e-05  -1.6045108e-04  -9.0216374e-05  -3.5594549e-04  -7.9129582e-05  -1.0654612e-03  -3.1222342e-05  -1.5412199e-05  -9.0564834e-05   7.5120355e-05   9.2613802e-05   4.5979506e-04   4.8204919e-04  -1.3902923e-05  -4.5268817e-04  -1.5009413e-04  -1.8896241e-04   2.2812163e-04  -1.4051740e-03   6.1222949e-05   9.4038621e-04  -4.8369364e-04  -7.2620227e-05   1.2635087e-04   1.4768320e-04
   3.8296383e-04  -5.4635268e-05   1.1497486e-04  -6.8977170e-05  -4.1650154e-04  -2.7561074e-04   7.6360520e-05  -1.4457802e-04  -2.7275889e-04  -1.0566872e-03   1.1360882e-04  -6.2288583e-04  -3.0457561e-05  -5.8046891e-05   1.1479920e-04   9.1526563e-06   1.3076206e-05  -5.2536692e-05   1.0275168e-03   1.4315160e-05  -7.1265793e-04  -5.1582430e-04   1.6844292e-04  -4.3656986e-04   1.9713756e-04  -2.6092750e-05   3.2114931e-05  -4.9298527e-05  -2.6099040e-04  -1.0512258e-04  -5.0500542e-04  -8.6620799e-05  -1.0140279e-04  -1.1542658e-04   1.2438482e-03  -6.3104916e-04   4.8899377e-04   2.1585026e-04  -3.4311735e-05  -6.3609937e-04   1.4341515e-04  -2.4428812e-04   6.6836925e-05  -6.5967179e-04   1.3442506e-04   6.1320368e-04  -5.1719748e-04  -7.2104936e-05  -9.6289186e-06   1.1814817e-04
  -2.5048549e-04  -4.2435040e-05  -4.9579496e-05   6.5044514e-05  -6.8349254e-05  -3.7094291e-05   5.5824032e-05  -6.4298401e-05  -5.6043186e-04  -1.1052885e-03   4.0400591e-05  -6.1367470e-04  -1.0503982e-04  -4.3094074e-05  -9.8052624e-05   5.3994150e-05   3.1745396e-05   2.5581463e-05   6.4412411e-04  -1.1487210e-05  -7.2463078e-04  -4.8604287e-04  -3.1215564e-04  -6.3068350e-04  -7.2018243e-04  -1.5038354e-04  -2.6469320e-04   1.1911015e-04  -2.5373583e-06  -5.9407143e-05   8.5555192e-04  -1.8654140e-05   2.5483863e-05  -1.5397527e-04  -1.4557932e-03   1.3956662e-04  -1.8978449e-04   1.9268687e-04  -4.9439306e-05   4.9511567e-05   4.8393082e-05  -2.5019041e-04   1.4828760e-04   1.4221178e-03   1.7524237e-04   4.9099064e-04  -4.9464888e-04  -3.2243897e-05  -9.4275092e-05   4.7261758e-05
  -8.8049848e-05  -2.4595813e-05  -3.2234393e-04   1.0556803e-04  -3.7636935e-05   2.2330426e-04  -3.7460800e-04   3.5375578e-04   8.4804901e-04  -1.0502419e-03  -4.1942152e-05  -6.1603356e-04  -5.5712102e-05  -5.1848368e-05   8.3926250e-05   1.5359235e-05   1.5650961e-05  -3.8550006e-05  -4.9428182e-04   4.5368663e-05  -6.4957159e-04  -4.0470823e-04  -3.6665704e-04  -5.2328181e-04   3.3791861e-04  -5.2835592e-05   1.9626978e-05   9.9890676e-05   2.5147459e-04  -5.2362215e-05  -1.4799878e-03   8.1969274e-04  -5.3243095e-04  -3.4139305e-04  -3.0387970e-04  -1.9457599e-04  -6.2445377e-04   1.1149680e-04  -3.6760899e-05  -5.1608105e-04   8.8935203e-06  -2.6309796e-04   5.7265577e-05  -5.4548169e-04   8.9380854e-05  -4.3851975e-04  -4.8228365e-04  -3.5769786e-05  -3.8511471e-06   6.5849876e-05
  -4.8882826e-05  -5.1335530e-05   1.2002153e-04  -6.7610941e-05   6.7729008e-05  -1.5377846e-05  -6.6940906e-05  -2.6615561e-04  -9.8200268e-05  -1.0768475e-03  -4.6136036e-05  -6.3147646e-04   5.6727196e-05   1.2000043e-04   1.2977513e-04  -6.3607746e-07   8.6689455e-05  -5.1054973e-05  -2.5745162e-03   2.3529048e-05  -6.6684908e-04  -4.0677682e-04  -2.9282182e-04  -6.0762075e-04  -5.9650990e-04  -1.6408935e-04   2.3534900e-04  -1.4548854e-04   9.4609431e-06  -1.4691753e-04   7.3418074e-04   1.9768838e-04  -3.1861222e-05  -1.5736261e-04   4.1919100e-04   1.2144630e-03   4.5465663e-04  -2.8427545e-04   2.6257247e-05  -5.2742852e-04   2.5349129e-05  -3.1338912e-04   1.0980522e-04   1.3864819e-04   1.2245986e-06  -5.9554679e-04  -5.0199305e-04  -6.2809217e-05  -4.6254645e-05   4.8453017e-05
  -1.9750332e-04  -9.1770606e-05  -8.7446460e-05  -1.0590968e-05  -1.1867862e-03  -2.3595472e-04  -2.1342069e-04   1.3216579e-04   4.7986810e-03  -1.1324467e-03  -3.5939793e-05  -6.7736162e-04   7.2621217e-05   9.0809124e-05   1.2581357e-04   3.8583283e-05   1.3693309e-05  -1.2191841e-05   5.9248164e-04  -6.1011477e-05  -7.1285642e-04  -4.3205422e-04   6.4263957e-05  -4.2169457e-04  -1.4791847e-05  -3.3845913e-06   2.9491664e-05   4.3584986e-04   1.2993345e-04  -4.1363568e-05   4.5895649e-04  -2.4220152e-04  -3.5498265e-04  -1.6712975e-04  -1.8177119e-03   1.2356319e-04  -8.6184364e-06   2.0351396e-05   1.1144100e-05   5.5320625e-04  -5.7916903e-05  -2.7503335e-04   5.1923762e-05  -9.7688846e-04   1.2917382e-04  -6.5497909e-05  -4.9086718e-04   8.2925117e-06  -6.7823115e-05   1.1545699e-04
   4.4769980e-04  -8.9363211e-06  -2.4376584e-05   1.3108697e-05   4.8782310e-04   3.0235178e-04   2.6148016e-04  -4.0368515e-04  -4.3255156e-03  -1.0977006e-03  -9.9101599e-05  -6.4002752e-04  -3.1233900e-05   3.4591267e-05  -2.0857742e-04   1.6974182e-05   8.6064407e-05   4.8469512e-05   9.7691012e-04   2.2761498e-05  -6.7354087e-04  -4.1256213e-04  -1.9493452e-04  -4.6316520e-04  -4.6386803e-04  -6.0033977e-05   1.2546341e-04   7.2467822e-04  -2.0803137e-04  -1.3624263e-04   5.9954904e-04   3.3752286e-04  -4.7895432e-04  -1.9420036e-04  -1.3135393e-03   1.8230491e-04   4.2952003e-04   3.4928738e-04   1.3302332e-05   3.4365989e-06   1.1043222e-05  -2.8542808e-04   1.8424328e-04   5.3876359e-04   1.2933614e-04  -2.3146161e-04  -4.8270545e-04  -8.9747509e-06   2.9570781e-04   1.1466912e-04
  -9.4112664e-05  -1.5920041e-05  -5.1008792e-05  -8.8720217e-06  -9.5203274e-04  -3.5274911e-04   3.5263106e-04   4.3741465e-04   3.8211357e-03  -1.0919869e-03  -7.6022872e-05  -6.3624146e-04  -1.3938628e-04   1.6114037e-04   1.5903182e-05   6.2841274e-05  -2.7655700e-05  -1.3800924e-04  -1.5356431e-03   6.6768720e-05  -6.8010675e-04  -4.1970509e-04  -3.4956727e-04  -6.3656899e-04   4.9204325e-05  -1.9031715e-04   1.0650545e-04  -6.9974216e-05  -3.2001414e-04  -1.6903025e-06   7.3189603e-04   1.3909242e-04  -3.1177184e-04   3.2170748e-05  -8.0345309e-04   2.4608133e-04  -3.2565383e-06   4.4881523e-05   1.5245643e-05  -3.6101069e-04  -1.5185603e-04  -2.8299200e-04  -3.0448924e-05  -1.0068458e-04   1.3703023e-04   8.9223107e-04  -4.9515208e-04  -1.1221349e-04   1.2166047e-04   6.4180203e-05
  -2.5219232e-04  -3.3840599e-06  -2.3895389e-04   7.0699578e-05   4.0402159e-04   6.3617463e-04   3.7025972e-04  -1.2868553e-04   2.6119179e-03  -1.0677205e-03   5.5106753e-05  -6.2061090e-04  -7.7205164e-05   8.9253568e-05  -1.4886390e-05   1.6547418e-05  -7.3143048e-05   1.6508402e-05   3.9905141e-04   5.7324669e-05  -6.4837537e-04  -3.7319580e-04   1.1583636e-04  -4.8844895e-04  -4.0976776e-04  -2.4100389e-04   2.3944503e-04   3.4769441e-04   1.0352447e-04  -2.1133393e-04   9.1812102e-04   7.5859478e-04  -1.1470155e-04   3.4413002e-05  -1.2119710e-03   4.6017588e-04   3.2503219e-04   3.3345306e-04  -1.9598643e-05  -3.2057503e-04  -2.9095879e-04  -2.7222783e-04  -1.7185564e-06   9.2435675e-04   2.6261536e-04   1.7078221e-04  -4.7572708e-04  -4.4528162e-05  -4.0136780e-05   5.0360628e-05
  -7.4846626e-05   1.8830286e-05   2.2843033e-05  -1.6923275e-05   6.1364390e-04   3.6720201e-04   1.1903086e-04  -2.2991346e-04   3.8827029e-03  -1.0886482e-03   4.5064548e-06  -6.4746407e-04  -5.8171685e-05   1.2611566e-04   1.8504346e-04   6.3497632e-06   1.0542574e-05   1.5994658e-05   3.2884520e-03   1.0666368e-04  -6.6741201e-04  -3.4143799e-04   6.1357481e-05  -3.6856398e-04  -2.7661334e-04   5.7993249e-05   2.4352752e-04  -3.5180172e-04   4.3743763e-05   2.6681795e-05   1.0650291e-03   3.5839234e-04  -3.9219469e-04   9.3822178e-05  -1.7098007e-04  -2.7779330e-04   4.9511046e-04  -1.6441342e-04   8.9314781e-06   2.8747438e-05  -3.2777281e-04  -3.0731628e-04   1.3253167e-04  -1.0838930e-03   6.4956912e-05  -5.4131664e-04  -4.9030146e-04  -5.2842439e-05   1.9722697e-04   1.5876214e-04
  -3.0173064e-04  -8.4603831e-05   3.6656413e-05  -1.8508403e-05  -1.4704951e-05   1.1598437e-04   2.7647131e-05  -4.2856107e-05   8.8359020e-04  -1.1148374e-03  -9.7389257e-06  -6.4497074e-04  -3.4471217e-05   1.0033658e-04  -1.5062177e-04   9.0690184e-05   8.2858278e-05  -6.8589921e-05   4.0638139e-03  -4.7442893e-05  -6.8813708e-04  -3.7952315e-04  -2.4005838e-04  -5.7762751e-04  -7.5898552e-04  -1.4303664e-04  -1.0854658e-04   3.2104342e-04   1.9602251e-04  -1.5830959e-05   1.3024462e-03  -6.4775208e-04   3.5825308e-04  -2.1840964e-04  -3.0358930e-04   2.2901906e-04  -1.3654295e-06   6.5520464e-05   2.1073725e-05  -2.3288654e-04  -1.3443902e-04  -3.1309741e-04   1.1652613e-04   1.6920068e-04   9.2058996e-05   2.8403252e-04  -4.8139179e-04  -1.0684835e-04   1.5336707e-04   8.6691871e-05
   1.0735258e-05  -7.9511781e-05   8.7075518e-05  -6.6955865e-05  -5.0697022e-04  -3.1940526e-04   1.1040338e-05   3.0025738e-05   2.3260441e-04  -1.0741865e-03  -4.2351971e-06  -6.3401641e-04  -5.9725444e-05   1.2395576e-04  -1.9026799e-04   5.5473047e-05   9.9745057e-06  -3.9760969e-05  -1.0418054e-03   7.4512856e-05  -6.4122136e-04  -3.4585525e-04  -8.7644412e-06  -4.3639162e-04   1.1171582e-04  -2.4679648e-05   6.9351903e-05   2.2762692e-04  -3.9406703e-04  -9.0861678e-05  -9.2695368e-04  -6.1303691e-04  -2.7735514e-04  -5.5933771e-05  -7.4557596e-05  -4.7393245e-04  -3.7407631e-04  -1.4688283e-04  -1.2638888e-05   3.6822914e-04  -1.6300863e-04  -2.8350859e-04   3.2221126e-06  -1.5153282e-04   2.4213825e-05  -1.0269682e-04  -4.5950912e-04  -4.8896505e-05   1.2277925e-04   6.5233777e-05
   4.2632011e-05  -4.5282293e-05  -2.7674836e-05   3.4392979e-05   7.9110509e-04   3.3791008e-04   1.5714938e-04   7.4469899e-05   2.0976092e-03  -1.0882714e-03  -8.8894616e-05  -6.4868614e-04  -5.6374365e-06   1.4051127e-04  -2.1172255e-04   2.6861049e-05   1.2964857e-04  -2.0016667e-05   2.5369032e-04  -5.5948017e-06  -6.6784624e-04  -3.6494422e-04   4.8161100e-04  -4.7338696e-04   5.2228459e-04  -1.4337838e-04   1.7311051e-04  -4.3869548e-04  -3.1204798e-04  -1.7865270e-04   1.3494908e-04   1.2567535e-04  -1.7665082e-04   4.8308993e-06   1.2978809e-03   8.1409572e-04  -3.8411375e-04  -1.3033116e-04   5.3152311e-05   1.4501069e-04  -1.1137861e-04  -2.8746846e-04  -5.7306665e-05   5.0504011e-04   1.2339035e-04  -6.4291066e-04  -4.8344789e-04  -9.4236515e-05  -2.3663963e-05   7.7003424e-05
   2.6143657e-04  -7.1583127e-05  -5.4843465e-05   5.5436594e-05  -1.6450621e-04   1.8514977e-04   3.1864739e-04   2.1124237e-04   2.0396260e-03  -1.1190281e-03  -1.1651537e-05  -6.0880755e-04  -1.6538987e-06   8.9099944e-05   2.2902896e-05  -3.9059494e-05  -4.7161928e-05  -7.0135597e-05   8.0193434e-04  -2.2547903e-05  -6.9344271e-04  -3.7851126e-04  -3.9644405e-04  -5.1775633e-04   2.3081020e-04  -2.0374775e-04   5.4829448e-05  -8.6169151e-05  -1.6075480e-04  -1.0635464e-04  -2.8161210e-04  -6.3785579e-04  -1.9716285e-04  -4.8250989e-05  -3.4314162e-05   7.6888711e-05  -1.2718318e-05  -8.7869463e-05  -6.6338893e-05   1.4713603e-04  -3.8368562e-05  -2.9160955e-04   2.9159604e-05   1.7654244e-04   5.5346907e-05   4.4748824e-04  -4.8579476e-04  -1.2728184e-05   3.4779179e-04   1.1213814e-04
  -2.5798767e-04   4.6312536e-05  -1.0932045e-04  -3.0371581e-05   2.6952155e-04   1.5851535e-04  -6.9025606e-05   2.4748268e-04   2.2208791e-03  -1.0777112e-03   8.9479136e-06  -6.4384623e-04  -3.4424786e-06   1.8773128e-04  -5.0410283e-05   2.0003987e-05   1.4082142e-05  -4.2536380e-05   2.2591897e-03   4.0509378e-05  -6.2408252e-04  -3.2857739e-04   1.7032270e-04  -3.9312831e-04  -5.0878694e-05  -1.9430005e-04   1.0583053e-04  -2.3516543e-04   1.2638442e-04  -2.3281181e-04   9.0954546e-04   2.1326747e-04   1.6278518e-05  -2.5979074e-04  -2.1216353e-04  -4.4291589e-04   5.3388544e-04   8.3862171e-05  -1.0645584e-04   3.6572639e-04  -1.4890147e-04  -2.8150406e-04  -5.1593350e-05  -2.1276809e-04   1.1128130e-04  -6.3564780e-04  -4.7239082e-04  -1.0015152e-04   1.5482104e-04   5.9577902e-05
  -2.4903979e-04  -1.6498347e-05  -1.9197323e-04   8.0391750e-05  -3.6085061e-05  -4.2057948e-04  -1.0437833e-04   1.2726350e-04  -1.4122939e-03  -1.0903178e-03   2.7370110e-05  -6.6023087e-04   5.4688215e-05   2.8348441e-05   7.4314768e-05   1.9381701e-05   1.8153802e-05  -3.4280140e-06   2.9294894e-03   7.2529074e-05  -6.5709540e-04  -3.7671495e-04  -5.8589718e-05  -4.1157205e-04   3.7329533e-04  -2.0279217e-04   2.2463677e-04  -9.1796945e-05  -1.3753641e-04   4.4430661e-05   6.2196475e-04   2.1352238e-04  -2.7130617e-04   4.4278600e-05  -9.9559093e-04   7.8640401e-04  -2.6547865e-04   4.9232272e-04  -4.5706660e-05   2.1709960e-04  -2.4085713e-05  -3.2668593e-04  -1.0133022e-05  -2.2122396e-04   1.7960063e-04   3.5115558e-04  -4.7307741e-04  -1.1980269e-04   4.4346802e-06   1.2428064e-05
  -6.1722720e-05  -7.6545759e-05   1.6085436e-05   4.7573874e-05   2.6857082e-04  -6.8538342e-05   3.4494541e-04  -2.0940656e-04   3.9299964e-03  -1.1436829e-03  -8.9035733e-05  -6.6010893e-04  -3.5300949e-05   3.6163087e-04   2.0721980e-04   1.4483536e-04  -8.6560394e-05  -4.8062288e-05   1.3290264e-03   9.9160345e-05  -6.6756294e-04  -4.1375836e-04  -6.9228772e-05  -5.1960751e-04   2.7409178e-05  -1.2674960e-04   8.4611747e-05  -3.2052846e-04   1.5783806e-04   8.4379397e-05   3.4132708e-04  -1.0678903e-04   1.1013722e-04   4.0384610e-05   1.9060483e-03   4.2043921e-05   7.1107375e-04   1.1401092e-04   6.8093075e-05   1.1161525e-03  -2.9201875e-04  -3.3002807e-04   3.7971207e-05   9.9214632e-04   1.0784071e-04   4.6678392e-06  -4.9251184e-04  -1.3323726e-04   1.0596786e-04  -2.7546679e-07
  -1.4831962e-04  -1.7212553e-05  -5.8125361e-06   1.0803980e-04  -1.3470334e-04  -2.8659421e-04   3.0096370e-04   2.7091886e-04  -2.1449635e-03  -1.0696584e-03   3.7578666e-05  -6.7367329e-04   5.1328272e-05   1.7675555e-05   2.7857453e-05   3.3216344e-05  -5.5062195e-05   1.2370571e-04   3.8667629e-04   1.0506176e-04  -5.9342157e-04  -3.6236289e-04  -4.0258915e-04  -3.7810937e-04   4.8477412e-04  -9.4405739e-05   4.4467444e-05   5.7488598e-04   5.1549810e-04  -1.1685152e-05   8.0580980e-04   4.3370240e-04  -1.7419523e-04  -1.7199508e-04   3.8849929e-04  -2.4905265e-04  -5.1576871e-04   7.7470388e-05  -3.3918281e-05  -6.7041832e-04  -5.9872775e-05  -3.0353499e-04  -1.0912530e-05  -5.4313894e-04  -3.0626965e-05   6.7324622e-04  -4.7143825e-04  -9.4523653e-05   1.4469704e-04   1.1734431e-04
   1.4869090e-04  -3.1863496e-05   1.2549123e-04   6.4707092e-05   4.9633996e-05   4.1868941e-05  -5.2220935e-06   1.5720788e-04   8.7606616e-04  -1.1053619e-03  -1.9869603e-04  -6.6197041e-04   1.5259151e-05  -4.4080725e-06   9.1249305e-05   8.8483866e-05  -2.3073708e-05  -7.0250149e-05  -1.7006876e-03   3.8353402e-05  -6.2398758e-04  -2.9264056e-04   1.7068529e-04  -4.9976155e-04  -2.9549701e-04  -3.3371634e-05   2.2511717e-04  -5.6646717e-05   4.1854430e-05  -1.0078695e-04  -1.0255837e-03  -7.3349252e-06   5.9366728e-05   1.3907377e-04   1.4521050e-03   9.6166076e-04  -2.8316115e-04  -3.4839343e-04  -2.0400316e-06  -1.1179403e-04  -2.5885346e-04  -3.0411931e-04  -4.3935557e-05   1.2045292e-03   1.6888366e-04   2.1531100e-04  -4.8287265e-04  -7.2009745e-05  -7.5620541e-05   1.3384342e-04
   1.7467063e-04  -1.0802664e-05   1.0777075e-05   5.2219621e-05   4.2174073e-04   2.5700164e-04   1.6869974e-04  -5.9018748e-05   3.2276430e-03  -1.1467016e-03  -1.1120003e-04  -6.8045472e-04   1.0653608e-05   8.0231694e-05   1.0510266e-04   4.1652434e-05   3.1681455e-05  -1.6664820e-04  -1.0659026e-03  -1.6653830e-05  -6.6366931e-04  -3.0309014e-04  -2.6108972e-05  -5.0999789e-04  -1.2575121e-03  -2.6756822e-04   9.5112169e-05   1.7795063e-04  -2.8694574e-05  -1.8541518e-04   5.7921233e-04   3.7933345e-04  -1.7746017e-04  -1.1331665e-04  -1.6041750e-03   2.1253848e-04  -7.6194738e-05   1.1822746e-04   2.5434596e-05   3.9871322e-04  -2.0948953e-04  -3.7799770e-04  -6.3652973e-05  -1.2254140e-03   1.7285410e-04   3.4491072e-04  -4.9768883e-04  -1.2636666e-04  -8.0719241e-05  -4.1303083e-06
  -9.4127463e-05  -6.0127306e-05  -1.4219308e-04   9.0199952e-05   8.1902064e-05   1.0131461e-04  -9.7731609e-05   3.5515124e-05  -6.1247248e-04  -1.1712553e-03  -1.8160844e-04  -6.8687671e-04  -5.7538455e-05   8.3498024e-05  -7.7666686e-05  -2.1871356e-05  -5.5558714e-05  -1.1165406e-04  -9.0341980e-04   4.0325642e-05  -6.2555249e-04  -3.1137298e-04  -2.5601758e-04  -5.3768331e-04  -7.7911781e-04  -1.6853384e-04   1.9783954e-04   1.1950456e-04  -8.8686153e-05  -4.9971124e-05  -6.4549979e-04  -3.4032238e-04  -8.3374383e-05  -5.5845234e-05   4.4406831e-04   1.8675560e-04  -6.2144868e-04   2.0499586e-04  -1.6483220e-05   3.2573621e-04  -4.9721519e-05  -3.3522365e-04  -9.3607472e-05   3.1150770e-04   1.9750767e-04  -1.7813522e-04  -4.6539700e-04  -8.8613895e-05   3.6520261e-05   1.4664455e-04
   2.6959629e-05  -1.5950254e-05  -2.3992394e-05  -1.9734331e-04  -2.2528216e-04  -2.3541714e-05  -7.5891876e-05   6.6669618e-06  -5.4386345e-04  -1.1105308e-03  -4.7156766e-05  -6.7415630e-04   2.8582832e-05   1.5306010e-04  -1.8417512e-04   1.2276298e-04   1.4956617e-05  -8.7571119e-05   1.0948370e-03   2.6401543e-05  -5.9833564e-04  -2.5254933e-04   1.4184268e-04  -3.9603745e-04   8.5338205e-04  -1.4718606e-04  -3.8001152e-05  -1.0230422e-04  -2.5614569e-04  -2.0409204e-04  -5.1929068e-04   6.8324961e-04  -3.0693409e-04  -1.6885505e-04   1.5371754e-03  -4.7710660e-04   5.3366206e-05  -2.1254206e-04  -9.0372760e-06   4.7324281e-04  -1.0920560e-04  -3.3843957e-04  -1.4402435e-04  -1.5239503e-04   1.2421468e-04   3.8382990e-04  -4.5553761e-04  -1.3440695e-04  -1.1551177e-04   7.2039438e-05
  -2.0004077e-04   5.3451745e-06   9.4324991e-05   1.4289832e-05  -3.8702655e-04   5.5999809e-04   8.7895569e-05  -4.3150966e-04   1.1354299e-03  -1.1380588e-03  -6.0479710e-05  -6.5993378e-04   7.2807939e-05   7.3690608e-05  -7.3695686e-05   8.8807406e-05  -3.8145692e-05  -4.1888899e-05  -7.0677034e-04   2.2349112e-05  -6.2165089e-04  -3.0087816e-04  -1.5080805e-05  -4.4915924e-04   1.0072915e-04  -1.1393901e-04  -1.5534399e-04   1.0222860e-04   3.0028998e-04  -2.7053007e-05  -7.7969598e-04  -1.6737577e-04  -3.2702628e-05  -1.0640739e-05   1.9520634e-03  -8.0922109e-05   4.5000725e-05  -1.5430790e-04   3.5825717e-05   1.5839792e-04   2.6872151e-05  -4.0462115e-04  -7.5642296e-05   3.9040425e-04   6.8997280e-05   9.4206061e-04  -4.7547731e-04  -8.4807427e-05   2.1175263e-04   1.0248918e-04
   2.0313045e-04  -2.0894146e-05  -9.2678711e-05  -2.3684295e-06  -3.3185835e-04  -1.1145500e-04   3.5154505e-04  -1.4222797e-04  -1.6883850e-03  -1.1356303e-03  -9.9411300e-05  -6.5718178e-04  -3.7671191e-05   5.8603691e-06   1.5994880e-04   2.4771813e-05  -3.9795937e-05  -5.9557198e-05   4.7579169e-04   2.5419861e-06  -6.5577298e-04  -3.0603251e-04  -1.8511005e-04  -3.7248302e-04   9.0078633e-05  -2.3179120e-04   2.7078509e-04   3.2404318e-04  -4.3728047e-05  -6.5145818e-05   1.0498196e-04  -3.6483805e-04   3.5162706e-05  -1.2736562e-04   1.1171623e-04  -9.8391014e-05   7.3739822e-04  -3.3926939e-05   1.1323424e-05  -3.2691238e-04  -1.0669902e-04  -3.7357659e-04  -1.0082469e-04   1.9707063e-03   1.0664741e-04  -4.5985584e-05  -4.5502587e-04  -7.5269905e-05  -1.3150302e-04   6.8333560e-05
   5.0826831e-04  -1.9258267e-05  -1.6420169e-04  -6.4544700e-05  -6.0403610e-05   6.3436040e-05  -3.8790626e-05   2.8143582e-04  -1.0932515e-04  -1.0905931e-03  -1.2027749e-04  -6.8651739e-04   1.3717961e-05   1.4977575e-04   2.5939359e-04   1.0047074e-04   5.0736078e-05  -1.1143001e-04   1.2483597e-03   2.8336604e-05  -6.2421645e-04  -2.7692702e-04   1.1579617e-04  -4.6636423e-04  -1.1179595e-04  -2.3153869e-05   1.1949513e-04   4.0539124e-04  -2.7622265e-04  -1.4837772e-04  -1.7496682e-03   5.2597409e-04   3.9750212e-04   4.6055560e-05   4.6638589e-04   8.2471641e-04  -7.6125696e-04  -3.3881830e-04   4.1223131e-05  -7.5886573e-04  -1.6763690e-04  -3.7284003e-04  -3.9475810e-05  -2.4134980e-04   1.2757353e-04   6.9957867e-05  -4.4203899e-04  -4.1400282e-05  -3.2126001e-05   7.7956021e-05
  -1.2295079e-04  -7.6739838e-05  -1.1803699e-04  -4.5674078e-05  -7.5926575e-05   2.3428736e-04  -2.1217379e-04  -1.5180763e-04  -4.5348704e-04  -1.0761833e-03   4.3499189e-05  -6.4613746e-04   4.4803492e-05   6.0658575e-05   4.1425234e-04   3.4526493e-05  -4.2637159e-05  -2.5105948e-05   1.8240481e-03   6.1264866e-05  -6.6701940e-04  -3.6349241e-04  -8.7814755e-05  -3.9839148e-04  -5.4094769e-05   4.4939061e-05  -6.6331537e-05   2.7418262e-04   3.6542866e-04  -3.3044544e-05  -9.7108650e-04   2.7036469e-04  -2.3601299e-04  -1.7575508e-04  -3.8161603e-04  -1.3151631e-03  -1.1871081e-04  -1.4834956e-06   2.4718143e-05  -4.2560115e-04   1.5928410e-05  -3.4168639e-04   1.8238195e-05   1.1793863e-04   5.5105524e-05   2.8460182e-04  -4.5506388e-04  -1.0633598e-04  -7.3320858e-05   1.0277254e-04
  -1.8122749e-04  -1.4255495e-05   9.3025963e-05  -5.1974443e-05  -4.1889434e-04   2.4442220e-04   3.7877882e-04  -1.4351259e-04  -4.8189391e-03  -1.1619772e-03  -4.1937386e-05  -6.8287266e-04   6.8683344e-06   2.1290149e-05  -1.9933026e-05   1.1385408e-04  -1.9109655e-05   4.5189131e-06   1.9504181e-03  -5.0927669e-05  -6.8078615e-04  -3.8077019e-04   4.9185392e-06  -5.2907993e-04  -2.3902481e-04  -3.2743144e-05  -2.3366243e-05   1.3981969e-04   7.4247888e-05   2.6023438e-06   1.9219838e-04   4.0002580e-04   2.5795578e-04   1.4378985e-04   2.3013301e-04  -1.8334997e-04  -5.0427212e-04   2.7184511e-04   4.6432990e-05   1.7907214e-04   5.1053572e-05  -3.6246321e-04  -2.6517573e-05   5.9197476e-04   9.5049676e-05   5.1102441e-05  -4.5985071e-04  -8.5402891e-05   1.5190984e-04   1.8168433e-04
  -6.3560517e-05  -5.0816128e-05  -5.0007573e-05  -2.2296725e-05   2.2434238e-04  -9.8386277e-05   1.7933913e-04  -1.6583032e-05  -2.0942988e-03  -1.1087498e-03  -1.6775828e-04  -6.8338664e-04  -4.1128180e-05   1.1082917e-04  -2.1505331e-05   6.5755157e-06  -4.9777347e-05  -5.5646859e-05   8.4229966e-04   2.5281279e-05  -6.6960591e-04  -3.6658844e-04  -1.2709090e-04  -5.4769398e-04  -6.0046639e-04  -3.5871657e-05  -1.0021409e-04   7.8697049e-05   2.4927466e-04  -3.6736899e-05   2.1483592e-04   2.2714159e-04  -8.5265157e-05   6.4013118e-05  -1.1655175e-03  -5.8365456e-04  -3.2444665e-04   5.4371176e-06   3.2144180e-06   2.3230251e-04  -2.1103215e-04  -3.4453880e-04  -1.3894727e-04   1.5546532e-03  -3.6962429e-05   6.6140441e-05  -4.3312096e-04  -6.3020736e-05   1.2120954e-04   1.7623228e-04
   1.1804981e-04  -5.9337497e-05  -2.1871382e-04  -1.4041603e-05  -7.3431052e-05   1.2092449e-04  -2.0764198e-04  -2.0337349e-04  -3.7970659e-03  -1.0861577e-03  -4.5375062e-05  -6.5435679e-04  -9.7619326e-05   4.3938810e-05   2.6550757e-05   4.1843785e-05   3.6765163e-05   5.3799311e-05  -3.4502225e-03   2.3846453e-05  -6.4586697e-04  -3.9218896e-04   1.0972776e-04  -4.5198502e-04   3.0512174e-04  -8.2531093e-05  -3.6381363e-05   1.6019157e-04  -2.1237298e-05   4.7817706e-05   5.3592556e-04  -2.4497617e-04  -2.1726393e-05   1.0855564e-04   5.6273449e-05  -3.0044920e-04  -1.2379160e-04   1.5739388e-04  -1.9039964e-05   2.1952704e-04  -1.9746672e-04  -3.4183997e-04  -2.7539467e-05  -1.0981626e-04  -7.7966019e-05   1.7248945e-03  -4.3573955e-04  -6.3427265e-06  -4.3089989e-05   3.6053514e-04
   1.5275407e-04  -3.0564624e-05  -1.2810739e-04   7.2777359e-05  -5.4122106e-04  -2.4633016e-05  -3.5393547e-05   4.9874729e-05   5.7405449e-04  -1.0984866e-03  -1.0258984e-04  -6.6810998e-04  -8.0810103e-05   5.9025879e-05   1.9214592e-04   2.6898928e-05   1.5032290e-04  -1.4201738e-05   8.2820770e-04   4.4597342e-05  -6.7244627e-04  -4.3117121e-04  -9.0343681e-05  -4.8361282e-04   9.7592716e-04   3.5554778e-05  -2.0927508e-04   5.4480805e-04  -2.5180121e-05  -1.0809669e-04  -2.6944943e-04  -4.1048491e-04  -2.1475200e-04   1.1674216e-04  -1.4947484e-03  -1.9184040e-06   3.3733557e-04   3.3358744e-04   2.3030101e-05   3.9272574e-05  -9.3398194e-05  -3.7204259e-04  -4.4877665e-06  -4.7444506e-04   5.0750281e-05   6.9738348e-04  -4.5271884e-04  -5.5203229e-05   5.4331653e-05   1.6668561e-04
   3.7585014e-05  -1.5620077e-05   8.4687192e-05   1.6104750e-05   6.6823303e-04   1.4113251e-04  -1.8913837e-04   1.0693401e-04   1.6780046e-03  -1.1402009e-03  -1.2013048e-06  -6.4112752e-04  -3.9878691e-05   7.1358765e-05   1.6235391e-04   6.0475140e-05  -2.3916684e-05  -1.4767467e-04  -5.4827792e-04  -2.9388997e-05  -6.8652170e-04  -4.6832877e-04   1.3436531e-04  -5.2331848e-04  -9.0212445e-04  -1.8598717e-04   3.4310011e-04   1.8712177e-05  -1.3805967e-04   1.2343343e-04   6.9996182e-05   1.1556550e-04  -2.0864682e-04   3.4625351e-05   1.4367272e-03  -6.6048867e-04  -5.2597153e-04   1.8535767e-04   4.3187483e-05   4.1774914e-04  -3.5031998e-04  -3.7213197e-04  -8.8714180e-05   1.7448423e-03   1.1234018e-04  -1.4301384e-03  -4.4333801e-04   1.3715378e-05   1.1716331e-04   1.6777251e-04
  -1.1886982e-04   1.3908281e-05   2.8580831e-05  -8.5072250e-05  -9.9586934e-05   2.7874182e-04   3.7917402e-05   1.5782551e-05   1.0393837e-03  -1.0533263e-03   1.1816232e-05  -6.4394809e-04   1.1780341e-04   1.9676508e-04   6.8219728e-05   7.7643024e-05   2.7573018e-05   2.2422133e-05  -5.9290178e-04   2.0446611e-05  -6.4402388e-04  -3.8244892e-04  -3.9339674e-04  -3.6360623e-04   3.4128354e-04  -1.0055303e-04  -1.4572093e-04  -1.6293181e-04   2.5127543e-04  -4.6035813e-05   7.7856740e-04   2.1480964e-04  -4.4910781e-04  -1.6911172e-05   8.5389831e-05   5.1478751e-04  -1.4492196e-04   9.7700977e-05   1.8617589e-05   4.7708800e-04   2.1918930e-04  -3.3716558e-04   6.3164327e-05   4.2000567e-05   8.9247776e-05  -2.4867966e-04  -4.4000740e-04  -2.1958408e-06  -1.4696302e-05   1.9910034e-04
  -1.7861890e-04  -5.5465185e-05   3.6980869e-05   7.9915342e-05  -5.5501575e-04   3.9595654e-04   2.0992744e-04   1.4170058e-04   1.4545735e-03  -1.0875096e-03  -1.6190660e-04  -6.4017635e-04  -6.7944638e-05   5.3870252e-05  -4.9249229e-06   7.2665287e-05  -2.1919574e-05  -3.5085991e-06  -1.2613084e-03  -3.9202449e-05  -6.5501448e-04  -4.1669159e-04  -4.5642621e-05  -4.5000808e-04  -7.9766958e-04  -2.6306527e-06  -2.1986822e-04   3.0928417e-04  -5.0419429e-05  -1.7570637e-04  -9.4916596e-04  -2.5899988e-04  -3.1613567e-04   4.5405657e-05  -4.5864668e-04  -8.3966512e-04  -3.6315148e-06  -7.5419688e-05  -4.2101885e-05   3.0624963e-04  -1.3689148e-04  -3.7579451e-04  -2.5166488e-05   1.1396580e-03  -6.0976316e-05  -9.4360177e-04  -4.3483777e-04   3.5385915e-06   6.9114787e-05   1.7403188e-04
  -7.1689853e-04  -9.8372177e-05   1.5728116e-04   6.2975174e-05   4.1316394e-04   2.6157359e-04  -6.6691008e-04  -4.0086609e-04  -1.1668446e-03  -1.1276811e-03  -1.0262350e-04  -6.5323536e-04  -1.1535431e-04   4.3665721e-05   4.4662588e-06   1.3175815e-04   5.5741577e-05   4.0839583e-05   3.5461094e-03  -5.7311405e-05  -6.9539732e-04  -4.6401913e-04  -2.8280757e-04  -4.0949185e-04   7.0406205e-04  -1.9433018e-04   1.1943809e-04  -1.3313831e-05   5.1875442e-04  -7.6399729e-06   1.7452367e-03   1.7614231e-05  -1.2654671e-04  -2.2045249e-04   3.3852682e-04   5.7992031e-04  -9.0160599e-04   1.2111808e-04   2.3324774e-05  -2.2920979e-04  -2.1461403e-04  -3.4465993e-04   9.3420604e-05   1.2991689e-03   9.0511327e-05  -4.7051164e-04  -4.3224514e-04   3.8911272e-05   3.5082165e-04   1.8628151e-04
   1.5531338e-04  -2.0279520e-05   5.5600292e-05  -1.2210636e-04   1.2008024e-04   2.1950893e-04  -1.9874025e-04  -1.4312232e-04  -3.3227823e-04  -1.0492764e-03   9.5769887e-05  -6.3940475e-04  -3.0166402e-05   1.1525345e-04  -1.8524696e-04   5.9296435e-05   4.3710770e-05   1.3707081e-04   3.4200170e-03   8.6922504e-05  -6.3067512e-04  -4.3016588e-04   1.4748673e-04  -5.4696650e-04   5.1418716e-05  -1.8542171e-04   1.7354866e-04   1.0972144e-04   2.2833556e-05   1.5444818e-04   1.5788274e-04  -2.4720820e-04  -1.5792943e-04  -7.0447306e-05   2.3239924e-04  -9.5530726e-05   6.6917937e-04  -3.4007651e-05   4.4102373e-05   7.1900879e-04  -2.5698272e-04  -3.2709888e-04   2.4754979e-04  -1.7485331e-04   4.3158074e-05  -1.0665785e-04  -4.3216342e-04   7.9831207e-06   2.6738486e-04   1.9066498e-04
  -1.8058506e-04  -4.6345591e-05  -8.6106425e-05   1.0205206e-05   2.0572614e-05   6.0352675e-05   2.5332818e-04  -9.5599753e-06   1.7876779e-04  -1.0401680e-03   4.2909469e-06  -6.5282348e-04   3.3797003e-06   9.9164368e-05   1.0468213e-04   7.6272961e-05  -3.4673965e-05   3.7684265e-05   2.1026295e-03  -1.4775619e-05  -6.5965002e-04  -4.0227512e-04   1.5860524e-04  -5.1371701e-04   3.2070177e-04  -1.6570483e-04   2.1830655e-04   1.1833246e-04   1.8535390e-04  -2.3154820e-05   2.7057935e-05   2.0279853e-04  -6.1134406e-04   1.8553656e-04  -4.6759873e-04   9.6281170e-04  -8.2159223e-04  -1.7873803e-04   1.3796474e-05  -2.6169390e-04  -1.1277592e-04  -3.5001061e-04   6.8992624e-05  -9.0684582e-05  -1.0528300e-04  -2.4849816e-05  -4.2831086e-04   1.3959435e-05  -2.9171008e-05   1.7317507e-04
  -1.5832089e-05  -1.9222636e-05   1.2005071e-04  -1.7591950e-04   9.1547838e-05   1.0739854e-04   2.0048236e-04   7.2753799e-05  -3.2269131e-04  -1.0815558e-03   6.2032404e-06  -6.2460103e-04  -1.6601885e-05   1.6486629e-04   2.2487478e-05   3.2374872e-05  -4.6545596e-05  -1.0692717e-04  -3.7286294e-04  -3.1502212e-05  -6.8607141e-04  -4.9369194e-04   3.3615150e-05  -4.5118597e-04  -8.1542466e-06  -1.3869269e-04  -1.6537301e-04  -3.0731154e-04  -3.0527299e-04   3.7628823e-05  -1.1982484e-03   2.3013483e-04  -3.0699591e-04   1.3867168e-04   6.0469034e-04   1.0799599e-05  -3.3337559e-04   1.9038808e-04   6.0426475e-05   3.1734814e-04  -1.7171590e-04  -3.2001548e-04   1.6556923e-04  -1.1582160e-04   1.4764420e-04   3.8635908e-04  -4.4197860e-04   3.0667776e-05  -4.7943387e-05   2.2447279e-04
   4.7171218e-04  -2.4760899e-05  -1.9665257e-04   1.8625031e-05   9.2035579e-04  -2.9674714e-04  -2.7929203e-04  -1.5367270e-05  -1.3838765e-03  -1.0223901e-03  -1.3248857e-04  -6.5431051e-04  -8.5771253e-06   1.8181334e-05   1.2486840e-04   5.4589462e-05   7.7178396e-05   9.8005490e-05   1.6059412e-03   1.0553821e-04  -6.2922435e-04  -4.1977398e-04  -1.6082672e-04  -4.3796579e-04  -3.6830243e-05  -7.6819480e-05   2.6296353e-04   4.1401875e-04   3.3310195e-04   6.0447259e-05   2.7243816e-04  -1.0831811e-04  -4.1080490e-04  -7.8451289e-05   2.4194373e-03  -1.4426114e-04  -8.7729463e-04   2.2079998e-04   5.6837875e-05   2.7635280e-04  -2.2871838e-05  -3.2233979e-04   1.1987976e-04   2.1760981e-04  -4.3845899e-05  -9.0754671e-05  -4.0719341e-04  -4.4087556e-05   1.0307277e-04   1.8529357e-04
   1.3782558e-04   8.8401493e-06   3.1073517e-04  -2.7752279e-05  -9.1730741e-05  -1.3126194e-04   4.8967828e-05   3.7408253e-04   4.8646724e-04  -1.0391633e-03  -1.0296779e-04  -6.3438917e-04  -1.0199116e-04   6.4207088e-05   1.0827962e-04   5.8042842e-05   2.2665308e-05   1.0163234e-04  -1.1554044e-03   3.0569088e-05  -6.3339277e-04  -4.2248800e-04  -1.7484903e-04  -4.3269133e-04  -3.4417180e-04  -2.0835888e-04   4.2297423e-04   1.5053721e-04   2.6511907e-04   3.6575100e-05  -7.1361451e-04   2.9018542e-04  -3.5450040e-04   1.3460040e-05  -6.3830661e-04   8.6564216e-04   4.2279015e-04   1.8844299e-04   4.5906094e-05  -1.1943559e-04   9.1605049e-05  -3.3399140e-04   1.6167064e-04   1.2158813e-03   5.7818979e-05  -7.2965486e-04  -4.2080134e-04   4.4882163e-05  -7.3345436e-05   1.3606966e-04
  -1.4279211e-04   2.9852872e-05   1.2157712e-04  -8.1664301e-05   3.3859262e-04   2.2337225e-04  -3.8219057e-04   1.1917885e-04   4.8030554e-03  -1.0498683e-03  -8.6144755e-06  -6.4075919e-04  -2.4116567e-05   1.3171069e-05   1.2597459e-04   1.3087496e-04   3.6783622e-05   1.4339300e-04  -8.4098469e-04   3.6287369e-05  -6.6220650e-04  -4.9083651e-04  -5.1100720e-05  -2.8370091e-04   2.7166211e-04   8.9629611e-05   2.6263739e-04   1.4677247e-04   2.4160468e-04   1.8769944e-04  -4.6799640e-04  -2.6283701e-04  -4.9851267e-05   4.3687060e-06  -1.0634974e-03   1.0299622e-03  -4.3778450e-04   1.3789475e-04   9.2146365e-05   3.9769735e-04   5.1793693e-05  -3.3886402e-04  -1.2600310e-04   1.3497454e-03   1.0347474e-04   1.0509323e-03  -4.3893649e-04  -9.2086793e-06   7.2237468e-05   1.5270973e-04
   3.5159293e-04   6.7646506e-06   1.6000163e-04   7.0567301e-05  -3.4530231e-04   3.2334312e-04  -8.9253859e-05   1.4594340e-05  -2.1366560e-04  -1.0340383e-03  -1.0813948e-04  -6.2022364e-04  -7.3837538e-05   3.1346342e-05  -4.8746570e-05   4.4445929e-05   3.9545361e-05  -1.9716035e-05  -6.8918022e-04   3.9540580e-05  -6.1759038e-04  -4.2164864e-04   2.6660817e-04  -4.3310400e-04   2.7641846e-04  -1.1344092e-04  -8.6534674e-05   2.8890648e-04  -1.4346404e-04   1.4615717e-04   1.5853188e-03  -6.1319611e-06  -3.4678320e-04  -2.1931919e-04  -1.9240784e-04   2.0274633e-04  -5.3955882e-04  -2.5653315e-04   1.0649904e-05  -2.7307331e-05   1.3618010e-04  -2.6918153e-04   1.2969114e-04   5.1898765e-04   2.4258644e-04   7.2987640e-04  -3.9427154e-04   1.2392525e-05   5.7289180e-05   1.9050979e-04
  -2.5562572e-04   1.7422579e-05  -6.2223146e-05   1.3317866e-04  -1.2624233e-04   7.4417243e-05   5.6368764e-04   1.8176119e-04   1.1695594e-03  -1.0134828e-03  -7.6515280e-05  -6.1576843e-04  -5.7657067e-05   1.4269326e-04   1.8456594e-04   3.1907689e-06  -6.1131061e-05   1.3729928e-04   5.3487266e-03   1.7334383e-05  -6.4243830e-04  -4.4410696e-04  -1.8575035e-04  -3.2254762e-04  -9.1081740e-05  -1.8808623e-04  -5.4594089e-05   5.3934194e-04   8.5043226e-05   1.1457091e-05  -1.6979648e-03   4.7228017e-04  -2.4747287e-04   6.8197332e-05   1.4199837e-03   1.7276882e-04   1.7921104e-05   1.2489784e-04   4.4094037e-07   4.8188132e-05  -2.1655210e-04  -3.3589598e-04   1.2796403e-04   5.2049547e-04   2.1633720e-04  -8.1352942e-04  -3.8768759e-04  -1.0965375e-05  -8.4580293e-05   7.9787285e-05
  -9.8403412e-05   5.2929066e-05  -5.8507154e-05   2.1767974e-05   2.1944421e-04   2.1161816e-04  -8.5670879e-05  -2.9725867e-05  -9.8265288e-04  -1.0361368e-03  -5.3333747e-06  -6.2707847e-04  -3.3940887e-05  -1.1582512e-05   1.1067915e-04   8.5173095e-05   1.0241002e-05  -9.0136440e-05   1.6479644e-03  -1.1499744e-05  -6.6671055e-04  -4.9778185e-04  -2.5344390e-05  -3.5580812e-04   5.8686215e-04  -9.5708827e-05   1.4019852e-04  -2.3914280e-04   4.5499604e-04   4.9958770e-05   2.1301596e-03   1.1470230e-05  -1.5137780e-04  -8.0011429e-05   6.5626850e-04   8.5687794e-04  -4.9119775e-05  -1.1942759e-04   1.1616538e-05   5.7403196e-04   1.1162397e-04  -2.6309080e-04   6.4011838e-05   1.1085335e-03  -6.2464169e-05   1.8457792e-04  -4.3190640e-04  -2.0591186e-05  -1.3870488e-04   1.8726343e-04
   3.4355288e-04   2.7597532e-06   3.7872232e-05  -7.4785581e-05   3.5665810e-04   1.0570148e-04  -7.3083662e-05  -4.1817111e-05  -1.3230502e-03  -1.0439203e-03  -4.2838196e-06  -6.0578022e-04  -2.4737161e-05   2.8422084e-05   1.5618927e-04   8.8574314e-05   6.4788801e-05   1.0170355e-04  -1.1704855e-03  -5.7905771e-05  -6.7630789e-04  -4.5935472e-04   9.1680762e-05  -4.6476972e-04   1.7733360e-04  -1.2833357e-04   1.0751934e-04   2.0819221e-04  -2.2128188e-04  -3.6502828e-05   1.0908027e-05  -2.2396411e-05  -1.1148998e-04   2.0263066e-04   2.5295971e-03   9.3941206e-05  -6.5159728e-04   8.2261780e-05   6.7802546e-05   1.5740242e-04   1.2897298e-04  -3.3526059e-04   1.4308053e-04  -1.1284597e-03   5.4914115e-05  -1.1843059e-04  -3.9856622e-04  -2.2841079e-05   1.9796201e-04   2.7359187e-04
  -2.5833902e-04   2.4197234e-05   2.1068389e-04  -6.0470622e-05   1.0543513e-04   8.8661982e-05   4.3786920e-04   1.6145245e-04   6.3919271e-03  -9.8330528e-04   1.7499055e-05  -5.8222649e-04   4.7704340e-05   3.8950573e-05   6.0165261e-05   1.2957600e-04   7.2114781e-05   1.4114543e-04   1.9488626e-03   6.9388698e-05  -6.3732872e-04  -4.6913503e-04  -9.7348762e-05  -3.9447166e-04   3.2565175e-04   3.8291390e-05  -1.2118944e-04  -1.6081978e-04   1.8782506e-04  -9.9911013e-05   1.7774745e-04  -3.0379155e-05  -5.4919207e-04  -1.7664178e-04   6.9401710e-04   2.6532265e-04  -5.7176349e-04  -3.9281576e-06   1.0213418e-04   6.9784268e-04  -3.8905226e-05  -3.3495639e-04   1.0128559e-04   9.5462758e-04   5.6401161e-05   8.1338990e-04  -3.9539480e-04   4.4452285e-05   1.6078931e-05   1.8526702e-04
   2.3187841e-04   2.0723914e-05   7.2332473e-06  -3.2390992e-05  -2.1675040e-04  -1.2849536e-04   4.6492441e-04   1.6859156e-04  -1.2043543e-03  -1.0099638e-03   4.2443498e-05  -6.0310360e-04  -3.4274777e-05   9.8985685e-05   3.0993667e-04   7.1961331e-05   2.2624023e-05   1.0388935e-04  -1.3840012e-03   2.6330606e-06  -6.4712658e-04  -4.5458414e-04   1.8957250e-04  -5.0468760e-04   1.2348052e-03  -1.0410911e-04   1.3749694e-04   2.9780084e-04   1.2242410e-04  -8.4330190e-05   3.5056332e-04  -2.7855162e-05  -2.8368889e-04   3.6293659e-05   4.2296507e-04   2.8082152e-04   6.3096744e-04   1.1254301e-04   2.9537081e-05  -3.2327243e-04  -1.1195410e-04  -2.8787192e-04   8.9297995e-05   5.5339054e-04   2.0136737e-04   4.6567104e-04  -3.9903980e-04   4.8076447e-05   2.3789469e-05   1.5344527e-04
   3.1674001e-04   3.2705015e-05  -2.2838574e-05  -2.8702685e-05  -1.4319771e-04   4.0039665e-04  -1.7960306e-04  -2.8795992e-05  -3.0936562e-03  -1.0455559e-03   7.0154587e-05  -5.7940325e-04  -9.6369331e-05   1.3325640e-04  -9.0867779e-06   6.4030166e-05   3.4228422e-05  -8.6982927e-06  -1.3329404e-03  -2.3360635e-05  -6.6820806e-04  -5.0503446e-04   3.9924154e-05  -4.6135936e-04  -3.7192996e-04  -1.0976679e-04   2.9746725e-04   2.7249468e-04  -2.8803639e-05  -1.2863899e-04  -9.8244147e-04  -7.7605531e-05  -1.6790380e-04   1.5744617e-05  -9.2074653e-04   1.4654212e-04   1.5335307e-04  -2.0559299e-04   1.8859711e-04   8.9063303e-04  -1.2445349e-04  -2.9406656e-04  -1.0229218e-05   5.2328355e-04  -3.9457027e-05   1.0113757e-03  -3.8544202e-04   3.6359754e-05   2.0898254e-04   1.6129848e-04
  -2.4910172e-04   7.7472614e-05   2.6470775e-04  -5.9039303e-05  -4.4885906e-04   7.9973011e-05  -1.6171439e-04   2.3611012e-04  -7.5275160e-04  -9.4988331e-04  -3.6645426e-05  -5.7194970e-04  -5.2031370e-05   5.3188542e-05   9.1702525e-05   9.7700758e-05   7.1495218e-05   4.1154952e-05  -1.3958175e-03   8.8261892e-05  -6.1442051e-04  -4.3219695e-04  -1.2158439e-04  -3.3468776e-04  -1.2421887e-04  -2.7981825e-04   3.3518072e-04  -3.0185920e-04  -3.3666560e-04   3.6618625e-05  -2.5523940e-04   1.7325746e-04  -1.7714956e-04   3.1922893e-05   1.2539881e-03  -3.4147632e-04  -1.0394049e-04   3.7777060e-04   3.0917003e-05  -4.5203141e-04  -1.8635386e-05  -2.9961634e-04   1.9943865e-04  -6.7060621e-04   2.0454494e-04   7.4804045e-04  -3.7403055e-04   1.7320894e-05  -1.4453058e-04   2.1334289e-04
  -5.8618991e-04   6.0370134e-05   1.1151879e-04   2.3115686e-05   6.4651528e-04   1.7054105e-04  -7.1135873e-05  -2.4738554e-05  -2.2032668e-04  -9.8136789e-04   1.7681385e-05  -5.6978711e-04   7.8916717e-05   1.1677994e-04   9.8181976e-05   9.5644813e-05   5.1356255e-05   1.8201672e-04  -1.7487097e-03   1.4799620e-05  -6.3962856e-04  -4.6432286e-04   1.2655601e-04  -4.2132512e-04   4.1857254e-04  -6.6709174e-05  -4.4189339e-05   4.5138007e-04   3.6156451e-04   3.5624504e-05   1.8239695e-03  -3.4812008e-04  -1.6568723e-04   4.6269637e-05  -3.0842234e-04  -1.4996711e-04  -6.7633373e-04  -2.6575850e-05   5.9943279e-05   1.5681828e-03   6.3154686e-05  -2.8729357e-04   1.6592453e-04   6.9246383e-04   2.0613837e-04   9.9478487e-04  -3.9786039e-04   1.0052269e-05   1.6127107e-05   1.7671451e-04
   7.8398654e-05  -3.8470193e-05  -3.5231591e-05   9.4122799e-05   2.4026407e-04   1.7102825e-04   3.1756566e-04  -2.0621473e-04   1.3698870e-03  -9.9934684e-04  -4.0924522e-05  -5.8340165e-04  -8.7178130e-05   1.0192866e-04   7.0878799e-05   8.0112557e-05   4.2097025e-05   1.0528716e-04   3.4691605e-03   2.3110095e-05  -6.0355803e-04  -4.3548158e-04   1.4229838e-04  -3.9245695e-04  -3.1775588e-05  -8.0057525e-06   2.8150470e-04   2.1594515e-05   1.2139648e-04   1.2248170e-04   1.8876190e-04   1.9740731e-04  -2.9532079e-04  -1.5748499e-05  -7.3663349e-04   8.9719659e-05   8.1060349e-04   2.6159394e-05   7.1784074e-05  -6.0813397e-04   7.1143833e-05  -2.6246608e-04   1.1779416e-04   3.4472960e-04   2.1623871e-05  -4.6625824e-05  -3.7080931e-04   2.0828797e-05   2.2890513e-04   1.6585342e-04
   1.4986341e-04  -1.4051797e-05   5.8436221e-05  -1.0470538e-05   6.1769178e-04   1.7891367e-05   3.6013618e-05   3.6235384e-04  -2.3390150e-03  -9.3879161e-04   4.6717116e-05  -5.6262949e-04   4.3945965e-05   1.1247938e-05   1.0019771e-04   2.7085109e-05   5.2783042e-05   9.1050577e-05  -1.0203642e-03   2.6515416e-05  -6.1844470e-04  -3.9901040e-04   7.4696136e-06  -3.6980884e-04   1.6687822e-04   3.2498327e-05  -2.2988577e-04   3.1210930e-05   1.3882348e-04   5.6877983e-05   1.2534369e-03  -3.7671413e-04  -1.2601512e-04   3.3435802e-04   2.4842520e-04   3.1331470e-04  -4.9102935e-04  -5.7661178e-04   2.1027010e-05  -7.8527682e-04   9.5987612e-05  -2.7359801e-04   9.2183654e-06  -3.3634659e-04   1.3302120e-04  -1.0814068e-03  -3.5826029e-04   2.8063943e-05   1.7326660e-04   2.3023755e-04
  -5.2704876e-05   4.9058121e-07   1.6661439e-05  -2.8183258e-06  -1.3044283e-04   2.4945916e-06   3.1534728e-04   1.7897494e-04  -3.1184475e-04  -9.4598846e-04   3.0831317e-05  -5.5313233e-04   6.7073925e-05   1.6904379e-04  -9.2305636e-06   1.0852595e-04   6.4902473e-05   1.9186705e-04  -6.6135588e-05   3.4280954e-05  -6.1469327e-04  -4.2976881e-04   2.4402785e-04  -2.7818824e-04   8.8549562e-04  -1.1380778e-05   3.1727200e-04  -1.5605475e-04   1.5293418e-04   3.6480054e-04  -7.2158943e-04   1.8172592e-04   1.4373568e-04  -1.1164507e-04   8.2761288e-04   1.9136834e-04   5.6666481e-06   2.3313235e-04   1.0483909e-04  -2.9592961e-04  -9.4006369e-05  -2.9414170e-04   1.6055196e-04  -5.0645444e-04  -2.4283167e-05   8.8216540e-05  -3.9055178e-04   1.8657072e-05  -1.1016594e-04   2.4802648e-04
  -2.9944040e-05   1.7567500e-05  -2.1651605e-04  -6.1327519e-05  -4.0735042e-05   1.1580960e-04   4.0517593e-04  -2.2138242e-05   5.7534282e-03  -9.3917706e-04  -1.2390809e-04  -5.6973059e-04   6.4995279e-06   6.4226471e-05   1.3283585e-04   9.0277113e-05   1.8978665e-04   8.0852129e-05   1.0394056e-03   6.7585032e-05  -5.7859399e-04  -3.9745975e-04  -1.2375058e-04  -2.6328763e-04   9.6354535e-04  -1.8931973e-04   7.3947222e-06   1.5752841e-04   7.7850628e-04  -4.9646573e-05   9.8123297e-04  -6.2111911e-04  -5.7708879e-04   1.2763757e-04  -9.0034789e-04  -2.5438660e-04  -7.2958332e-04  -9.4051593e-06   4.1188800e-05  -4.2318781e-05   1.2748914e-04  -2.4454686e-04   1.4867941e-04  -1.0514443e-03   1.5474614e-04   1.7521788e-03  -3.6281976e-04  -3.5061587e-06   3.7101560e-04   2.7864464e-04
  -1.1257083e-04   2.7512258e-05  -1.8014024e-04   1.3991642e-05   6.7788980e-04   2.9245199e-04   2.3296836e-04   4.0085526e-04   6.1730517e-04  -8.9163589e-04   4.0267711e-05  -5.4038438e-04  -3.3319655e-05   1.2684513e-04  -1.2238089e-05   5.9694416e-06   1.7045795e-04   1.0282966e-04   6.4254995e-04   4.0591483e-05  -5.9212476e-04  -4.1646720e-04   4.0914651e-04  -2.7912465e-04  -7.1688657e-05   8.4899737e-05   2.2609672e-04   1.3947122e-06   7.8355864e-05  -3.5813737e-05  -3.5064102e-05   3.4299158e-04  -1.8017841e-04   4.0480107e-05  -2.7235657e-05   4.5038678e-04   3.5244186e-04  -3.6101086e-05  -3.3641659e-06  -1.3124167e-04   2.4816612e-04  -2.5729719e-04   5.1416180e-05  -1.3950830e-03   7.4381394e-05   6.0732455e-06  -3.3836006e-04   8.5764033e-05   6.6155677e-05   3.1831898e-04
  -4.4914585e-04   5.8591035e-05   1.6863247e-04   2.2166412e-05  -9.1196518e-05   2.4964163e-04  -2.1589718e-04   3.0145602e-05   3.5416100e-03  -9.2897133e-04   1.9299054e-05  -5.3405412e-04   1.4175299e-05   2.0361197e-04  -1.8802178e-04   3.0665557e-05   6.7185691e-05   7.4129515e-05  -2.7427101e-03   2.6457757e-05  -6.1596476e-04  -4.8637093e-04   2.5567473e-04  -3.1325227e-04  -5.2122708e-05  -2.4724888e-04   5.2637391e-04   5.0909835e-05   3.9169233e-04   1.5808133e-04   1.0477716e-04   2.3234285e-04  -1.7293148e-04   4.6200232e-05   8.1871531e-04   2.4169136e-04   2.1353370e-04  -2.8964927e-04   6.7014684e-05  -2.0118065e-04  -8.2570403e-07  -2.8067469e-04   8.5193489e-05  -9.0371541e-05   4.5238463e-05  -4.6269398e-04  -3.7866045e-04   1.1524445e-05  -3.9935370e-05   7.8263103e-05
  -2.3162234e-05  -2.3562804e-07   8.5911597e-05   7.9509118e-05  -3.6930738e-04   1.5294363e-04  -1.4879835e-04  -1.4928743e-05  -4.3380528e-04  -8.7017083e-04  -5.0953186e-05  -5.3858856e-04  -3.7255464e-05  -1.4467135e-05   4.1124216e-04   1.3762980e-04   1.6052434e-05  -8.8557335e-06   1.4750423e-03   7.8088247e-05  -5.7034881e-04  -3.3691185e-04  -1.4236566e-04  -3.9228689e-04  -5.0552859e-04  -1.2586085e-04   3.0075476e-04  -2.0637285e-04   2.3207749e-04  -1.7395642e-04   1.0135893e-03   3.1085868e-04  -5.0262490e-04   1.7244977e-04  -4.9890071e-04  -5.2947679e-04   2.6550627e-04   1.2592814e-04   1.8074961e-05  -2.4063849e-04   1.3845123e-04  -2.1608859e-04   4.1339499e-05  -3.8185564e-04   9.6293043e-05  -6.9967086e-06  -3.3278888e-04   2.1099069e-05   1.7436138e-06   1.6402951e-04
   6.2898020e-05   5.3340311e-05  -1.4767374e-05   7.5324046e-05   2.6088094e-04   3.8519446e-04   8.3958026e-04   7.7791723e-05  -4.0911362e-03  -8.5864950e-04   1.0610621e-04  -5.2463263e-04  -9.3846305e-05   1.2797846e-04  -8.2975559e-05   1.7151162e-04   7.9069519e-05   1.1547055e-04  -2.2839580e-03   3.4073677e-05  -5.5214530e-04  -3.4428129e-04   3.7650499e-04  -3.1566125e-04  -4.4453080e-04   5.6460787e-05   8.5888809e-05   2.4410922e-04   7.4293996e-05   1.9648844e-05   9.9845194e-05   4.4375961e-04  -7.0120142e-05   1.1182964e-04   1.4084314e-03  -1.2659816e-04   2.1561804e-04   1.8771048e-04   1.0642719e-05   1.5626945e-04   1.9284963e-04  -2.4820431e-04   1.9199707e-04   6.2453497e-04   7.5950506e-05   5.0760346e-04  -3.3448311e-04   4.7378937e-05  -8.8471592e-05   1.6348192e-04
   3.5866688e-04   7.4227268e-05  -4.5629800e-05  -3.8248578e-05  -1.1088905e-05   1.9015784e-04   2.5653181e-04  -1.1420754e-04  -5.1286176e-04  -8.7265018e-04   2.6921529e-05  -5.1170978e-04   1.2641195e-05   1.1537545e-04  -8.0649195e-05   8.1540231e-05   3.2701981e-05  -6.6889355e-05   8.7798451e-04   5.7699694e-05  -5.9506792e-04  -4.4110353e-04   9.3722323e-05  -1.9340294e-04  -2.6908770e-04  -1.1657811e-04   5.9463480e-04   2.6503738e-04   3.2005750e-04   1.3121692e-04  -1.0865446e-04   1.0683245e-04  -9.4026691e-05   2.2351692e-04  -3.8251615e-05   6.1912677e-04   5.4602168e-04   3.7131636e-04   7.7492969e-06  -4.8172468e-04   1.2418813e-04  -2.4659102e-04   2.7858932e-04   1.4728061e-03  -3.6180634e-05  -1.1104135e-03  -3.4352747e-04   6.9144873e-05  -5.5812056e-05   1.6342959e-04
   1.1692541e-05   2.1939157e-05   1.1447998e-04  -5.8425481e-05  -1.5044915e-04   1.0387171e-05   1.1501495e-05  -1.8541083e-05  -2.6652873e-03  -8.9200673e-04   1.4069224e-04  -5.1712454e-04  -1.1592062e-04   1.2970395e-05  -1.7779546e-04   3.0150852e-05   2.0467565e-05   8.9377078e-05   1.9456595e-03   4.0233626e-05  -5.7647104e-04  -4.3386858e-04   4.6966193e-04  -3.6467359e-04  -3.9696886e-04  -5.5470493e-05  -6.2492247e-05   3.9037940e-04   4.7110429e-06   1.3619638e-04   7.8907621e-04  -2.4332303e-05  -2.0538941e-04   2.7117261e-05  -8.3366258e-04  -6.7721805e-05   6.1527200e-05   6.1718907e-07   8.8523693e-06   4.1823264e-04   4.5794823e-05  -2.0636995e-04   6.3821892e-05  -5.5443723e-04   8.3215687e-05   5.2127830e-04  -3.2979355e-04   1.8781690e-05   1.6692540e-04   2.4057407e-04
   1.4034817e-04   1.0203174e-05   8.5258063e-05   5.1337793e-05  -1.8426160e-04  -6.6499721e-05   1.1254595e-04   2.9801627e-04  -4.4275855e-04  -7.8207295e-04  -3.7811773e-05  -4.9963023e-04   1.0633090e-04   2.2962736e-07  -3.1857347e-05   8.6811859e-05   1.1313116e-04   1.0259989e-04  -3.4769037e-04   4.2447424e-05  -5.4323423e-04  -3.7510315e-04  -4.0592331e-05  -3.2607504e-04  -4.6244584e-04   7.9430079e-05   1.6194474e-04  -6.4257198e-05  -1.3616330e-04   1.7223652e-05   6.1623694e-04   4.8629966e-04  -9.0098561e-05  -1.3471576e-05  -5.8054161e-04  -2.5700944e-04   8.5855223e-04  -2.7646183e-04   6.1155479e-05   3.0945576e-04  -2.6497652e-04  -2.2294573e-04   9.0086520e-05   2.2435435e-03   6.6435045e-05  -1.5610587e-03  -3.1316277e-04   1.8380526e-05   4.0386007e-05   1.9912586e-04
  -2.1304384e-04   3.4035769e-05  -3.4048655e-05   6.4179250e-05   8.9996218e-05  -1.0241313e-04   3.2985714e-04  -3.4822835e-05   1.9970646e-03  -8.0960419e-04   1.0813729e-04  -4.6770021e-04   2.2262711e-05   3.6473117e-05   2.5682355e-04   1.0962648e-04   8.7737390e-05   1.2641148e-04   8.5915066e-04   1.3861795e-05  -5.6699722e-04  -3.7645886e-04   4.1817734e-04  -3.4164375e-04  -6.0699519e-04  -2.2107135e-05   2.1578945e-04  -8.0629115e-06   8.4695559e-05   3.9526105e-05  -1.2237736e-03   4.1700155e-04   3.8265844e-04  -5.8190311e-05  -1.1500944e-03  -7.9281023e-04  -4.8573434e-05   2.4226549e-04   5.6323435e-05   6.2973634e-04  -2.3792272e-05  -2.4066218e-04   1.7886938e-04   9.8625256e-04   7.3416377e-05  -1.0067790e-03  -3.2590309e-04  -1.1943994e-05  -7.3992051e-05   7.5525364e-05
  -1.1456345e-04   3.0799340e-05   6.2683548e-06   6.2659885e-05   5.8005186e-05  -2.6237485e-06   1.7848898e-04   2.3930605e-05   6.2563835e-04  -8.4713235e-04   1.0802486e-04  -4.7088353e-04   2.2939335e-05   8.9401663e-05  -9.3034068e-05   1.2778427e-04   6.8535293e-05   5.0393068e-05  -1.3289566e-03  -5.5389537e-06  -5.9071032e-04  -4.3524517e-04   2.2214591e-04  -2.2117145e-04   3.5954619e-04  -1.2040191e-04   1.6400196e-04  -1.5770484e-05  -6.3257648e-05  -2.0744266e-05  -1.2896006e-04   2.5241086e-04  -1.8555573e-04  -2.3688050e-05  -1.9696692e-04   3.7902736e-04   1.0267239e-03   3.3488471e-04  -3.3591921e-05   8.2145227e-05   8.9954381e-05  -2.4108450e-04   2.3185934e-05  -2.6010093e-04  -1.3142998e-05  -5.9938012e-04  -3.5340409e-04  -3.7411042e-05   1.4019349e-04   2.0494292e-04
   6.3006149e-04   6.2167761e-05   2.2424189e-05  -1.2789303e-05   6.2510058e-05  -2.0676266e-04  -1.8387561e-04   9.4447496e-06   3.1653533e-03  -7.7902724e-04  -9.8418626e-05  -4.6012053e-04  -6.7570618e-05   1.0864164e-04   3.2485597e-04   6.0151808e-05   1.1533287e-04   9.1812708e-06  -1.5860623e-04  -1.1870632e-05  -5.1631918e-04  -2.9818749e-04  -2.1359138e-04  -2.6035533e-04   2.3548788e-04   1.2235686e-05  -2.5480665e-04   1.7354410e-04   2.3811035e-06  -7.8395358e-05   3.5692643e-05  -5.9570221e-04   8.3525929e-06   9.7540265e-05  -1.4288529e-03  -4.2877093e-04   4.8028131e-04   3.3594816e-04  -1.9905144e-06  -4.7350459e-04  -7.5649841e-05  -2.2333884e-04   3.7090049e-05  -3.8909275e-04   1.0086771e-06   8.1111991e-04  -3.1987959e-04   1.1759069e-04   2.2505944e-04   1.1668015e-04
   2.8303705e-04   3.5536919e-05   2.8770723e-04  -2.4764366e-05  -2.3347003e-04   1.2661778e-05   2.5522293e-04   3.4149439e-04  -2.4277539e-04  -7.9581153e-04   2.0058589e-05  -4.4810295e-04   2.1418133e-05   3.3352696e-06  -1.8061951e-04   1.5798045e-05   1.2980343e-04   1.2260834e-04   2.7867738e-04   7.2865922e-05  -5.1867869e-04  -3.7093498e-04   9.4443043e-05  -2.4792700e-04   3.2044269e-04  -6.8360532e-05  -1.4654649e-04   2.1216129e-04  -1.6759157e-05  -3.7163485e-05   5.4619031e-04  -1.9868958e-04   4.2025931e-05   7.6280732e-05  -1.0357023e-03   3.1220322e-04   8.5807114e-05   2.7718986e-04   9.1689348e-05   2.0921443e-04  -1.0520318e-04  -2.2051328e-04   1.2095193e-04  -1.6127857e-04  -7.6891389e-05  -5.7007640e-04  -3.1000300e-04  -4.1606751e-07  -4.6536024e-05   1.9037009e-04
  -2.2739607e-04   8.2308601e-05   1.1908550e-04  -5.2478885e-05  -3.7460655e-04  -1.3146350e-04   3.7212233e-04  -7.1579299e-05  -2.9380224e-03  -7.9473003e-04  -2.2957009e-05  -4.4707494e-04  -1.0191650e-04   4.4944903e-05   3.9784264e-04   9.2340058e-05   7.4700263e-05   8.7779605e-05  -2.7958232e-03   1.4096771e-05  -5.4917642e-04  -4.0052546e-04  -2.3877354e-05  -2.6045769e-04   5.2461203e-04   1.0517114e-04   5.6844304e-04   6.0121529e-05   3.9566943e-04   1.0180148e-04   1.5717532e-04  -2.6278227e-04   9.4515781e-05   1.2565752e-04   1.9146042e-03   2.2278176e-04   1.5749315e-04   3.7478960e-05   3.2214128e-05   6.8208564e-04  -5.4097760e-05  -2.0981651e-04   9.6112621e-05   5.1164115e-04   4.8461639e-05  -8.3105049e-05  -3.4168508e-04  -4.2537616e-07  -3.0642546e-05   3.9348928e-05
   6.0819573e-04   8.0071040e-06   1.6007705e-04   3.1694464e-05   1.1134502e-04   2.4189391e-04  -1.3419399e-04  -8.7688219e-05  -2.5550448e-03  -8.4526202e-04   7.9638026e-05  -4.4774628e-04  -3.0170570e-05   8.2189472e-05  -6.3438507e-05   2.4313858e-05   1.0496919e-04   4.9307542e-05   1.4510064e-03   2.9020626e-05  -5.5328343e-04  -4.1449978e-04   1.4713056e-04  -1.9743436e-04  -6.8802346e-04  -9.7342236e-05   2.7825343e-04   2.5048543e-04   2.0909784e-04   3.1654185e-06   4.6175570e-04   1.6834225e-05   1.1751433e-04   1.6282998e-04  -1.9380174e-04   8.0114568e-04  -7.0553878e-04   2.9337438e-04   1.7527067e-04   6.8290763e-05  -1.5504631e-04  -2.1335631e-04   9.8297278e-06   3.8204508e-04   3.0784413e-05   7.8191333e-05  -3.0933562e-04   6.9298898e-05   1.3893990e-04   1.3359879e-04
  -2.0351174e-04   4.8580532e-05   7.7341268e-05  -1.8551042e-05   3.0640946e-04   1.4644668e-04  -3.1057731e-04  -5.0710601e-04   5.5480878e-06  -7.6182286e-04   6.1512503e-05  -4.3634081e-04   1.1972420e-04  -6.4352762e-06  -8.1058433e-06   9.6060561e-05   1.4303492e-04  -4.8405338e-05  -1.2237557e-03   1.1957229e-04  -4.9885229e-04  -3.7970574e-04  -2.9632080e-04  -1.8936036e-04  -1.0282065e-05  -1.3268035e-05   2.8050083e-04  -4.5583438e-05   2.5972084e-04   1.5720431e-06   5.6056678e-04  -5.9742021e-04   6.8949917e-06   1.4270455e-04   2.3529280e-04  -4.7456793e-05   7.7109615e-04   1.0200034e-04   5.4250224e-05   5.7490496e-04  -8.2654929e-05  -1.8038072e-04  -1.5220713e-05   1.7542012e-04   7.6194177e-05   3.5070980e-04  -3.0501519e-04   1.9072992e-05   1.3936605e-04   1.1209524e-04
  -3.0255553e-04   8.4801592e-05  -6.0711154e-05  -8.4829546e-05   5.9099623e-04   1.4098644e-06   7.8502344e-06  -3.9413347e-04  -4.7572977e-03  -8.0326799e-04   1.3161209e-04  -4.2721519e-04  -2.1769147e-05  -5.3656659e-06   2.1261096e-04   4.9592822e-05   3.1109477e-05   1.3260232e-04   2.4732100e-04   9.1863883e-05  -5.2490953e-04  -4.0354693e-04  -3.8221877e-04  -1.5172032e-04   9.4000372e-04  -5.2876625e-05   3.4281448e-04   2.3764407e-04  -2.8868282e-04   4.0002353e-05   3.1450787e-04  -6.0166582e-04  -1.0972839e-04   4.3153690e-05   9.1764587e-04  -3.6634770e-05  -1.1304774e-05   1.2980707e-06   5.3666132e-05   1.1845732e-03   3.7760266e-05  -2.1535695e-04   5.4723409e-05  -1.4606968e-03  -3.7458696e-05  -1.3344611e-04  -3.0877092e-04   2.4952731e-05   5.6744906e-05   1.1140139e-04
  -3.8270882e-04   6.5962391e-05   2.4175723e-04  -3.1206888e-05   2.2940196e-06   6.0076261e-05   1.1396973e-04   4.2616346e-04  -8.0751581e-04  -7.9600379e-04   8.4820904e-06  -4.2374674e-04   1.3001988e-04   1.8406281e-05   1.2460584e-04   6.5794160e-07   5.1689261e-05   1.8563199e-04   1.5523658e-03   1.2193037e-05  -5.4954487e-04  -4.1368464e-04  -1.7518077e-04  -2.2188899e-04  -7.3653419e-04  -3.3020267e-05   1.2385991e-04  -4.7110567e-05   2.0688742e-04  -7.7361918e-05  -6.0716918e-04   3.5860663e-04  -1.6143729e-04  -2.3321793e-04  -1.0025479e-03   6.6263317e-05   8.4207684e-04   7.7832701e-05   6.0092792e-05   2.3580415e-04  -3.4627056e-04  -2.3732484e-04   5.4204145e-05   9.5894159e-04   5.2053205e-05   6.8201078e-04  -3.2504823e-04  -3.3297179e-05  -6.6487177e-05   3.9686885e-05
   2.2495104e-04   2.0045309e-06   1.8566106e-04  -1.7418946e-05   5.8846344e-04   3.7339691e-04  -9.8017190e-05   1.1236179e-06  -2.8244749e-04  -7.5920834e-04   7.7762998e-06  -4.0800363e-04  -1.9865402e-05   1.5590811e-05   3.0185375e-04   8.6822711e-06   1.2584563e-04   1.4589410e-04   1.3867400e-03   8.9899848e-05  -5.0988852e-04  -3.1876951e-04   1.7635721e-04  -2.2267697e-04  -4.2870265e-04  -1.0934784e-04   5.8872389e-05   8.3986478e-04   7.4120289e-05  -1.5978390e-04  -1.8562334e-04  -3.0404437e-04  -1.8715419e-04   1.1595868e-04   1.4193216e-03   9.3494973e-04  -1.0529882e-04   3.8438913e-04   2.1386864e-05  -1.2358133e-04   1.8067566e-04  -2.1347997e-04   9.6222153e-05  -1.5637550e-03   8.9321402e-05   3.7540277e-04  -2.8646126e-04  -2.0841542e-05  -3.9866478e-05   1.5434688e-04
   2.4668788e-04   4.7465688e-05   1.7551266e-04   9.7844684e-05  -4.7698009e-04  -2.2179625e-04   3.1729782e-04  -1.5296847e-04   3.9706775e-03  -7.7854068e-04   8.7709552e-05  -4.0257093e-04   4.7117544e-05   1.1222445e-04   1.3321199e-04   9.9534409e-05   1.2751987e-04   8.9609712e-05  -1.3338338e-03   4.8580587e-05  -5.2293052e-04  -3.4816368e-04   1.3395184e-05  -2.4508673e-04   6.3227379e-04  -2.7463364e-05  -1.0472355e-04   5.1295129e-04   3.4023175e-04   4.8562255e-05   4.9635512e-04   3.5824714e-04   6.3349398e-05   3.6999598e-04   1.2701073e-03   4.3652690e-04   3.7585190e-04   1.1618521e-04   5.6401899e-05   7.9685682e-04  -1.3524956e-04  -1.9222000e-04   3.8554590e-05   1.0566828e-03  -6.7036658e-06  -7.3306801e-05  -2.9547582e-04   3.6322250e-05   2.3261341e-04   3.4880748e-05
   4.8180058e-04   9.1158417e-06   6.6972018e-05   3.5712794e-05   9.8418107e-04   2.9834654e-04   1.9677154e-04   2.7162165e-04  -1.8495075e-04  -7.8054814e-04   4.3370783e-05  -4.0028300e-04   1.0655542e-04   5.5731107e-05   2.7005986e-04   9.3410068e-05  -1.3624767e-05   1.7865196e-04  -1.2544650e-03   1.5090443e-05  -5.2527850e-04  -3.1906040e-04   4.0427067e-06  -2.4101580e-04  -7.3993031e-04   3.2644435e-05   2.9446743e-04   4.6749884e-04   1.7140364e-05   1.1661697e-04   3.3356724e-04  -2.0302116e-04  -2.1973958e-04   4.4494951e-05   1.3005034e-03  -3.9299825e-04  -6.9378549e-04   3.9138421e-04   5.9666687e-05  -2.8348938e-04   1.3619142e-04  -1.8904153e-04   1.8827423e-05   1.4373943e-03   1.8427057e-04   1.6193457e-03  -3.0486233e-04   2.0803944e-05   3.0770517e-04  -1.9395711e-05
   1.6489305e-04   3.8700815e-05  -3.0655174e-05   1.5244236e-05  -8.9351015e-06   1.2827451e-04   1.3242643e-04  -1.8961632e-04  -3.7380061e-04  -8.0287200e-04   3.6938080e-05  -3.9264155e-04  -1.3107227e-06   9.9139710e-05   1.5652405e-04   6.3591622e-05   1.1390217e-04   1.3076579e-04  -1.6233899e-03   6.9887887e-05  -5.0337735e-04  -3.3527223e-04   1.2503649e-04  -2.2116654e-04   4.0959948e-04   1.6424356e-05   1.8664556e-04   8.1301194e-05   3.2801973e-04   2.7153461e-04  -6.5822806e-04  -2.7799173e-04  -1.4088478e-05  -2.3928408e-04   1.1046394e-03   4.3781003e-04   7.1919669e-05  -2.6111637e-05   6.3991618e-05   5.1031675e-05  -5.0058065e-06  -1.9485482e-04  -5.3645748e-05   1.2600573e-04   5.7501795e-05   7.2764291e-04  -2.5876792e-04   3.9422710e-05   8.8499015e-05   1.1587292e-05
   1.6590668e-04   6.8611749e-05  -1.3212809e-04   2.1917288e-06   8.8001092e-05   1.5870131e-04  -1.1401549e-04   4.2840870e-04   1.6733930e-04  -7.5803581e-04   1.6065336e-05  -3.6269682e-04   1.5130441e-04   9.9504963e-05   3.8735314e-05   9.6608972e-05   1.0917454e-04   1.0576348e-04   4.5729210e-03  -2.5042439e-06  -4.9570616e-04  -3.1951518e-04  -8.3947365e-05  -1.9291801e-04   1.6750269e-04  -3.7436093e-05   4.3474237e-04   1.1629796e-04  -6.2296254e-05   9.7173339e-05  -9.6114480e-04  -8.3011464e-04  -1.7145761e-04  -6.8298301e-05   1.1563654e-04  -2.2958286e-04  -2.4380353e-04   1.9508068e-04   4.9331633e-05   1.2781322e-05   4.3656779e-05  -1.9022694e-04   6.8079491e-05  -5.0095632e-04   1.9219505e-04  -9.3894743e-04  -2.7762985e-04   1.3930126e-05   1.7405253e-04   4.8501373e-05
   1.3973724e-04   9.0624286e-05   1.0926781e-04   4.9999482e-05  -2.7379164e-04  -1.0742134e-04  -3.7123209e-05  -6.5444617e-08   3.8876657e-03  -7.6160097e-04   1.4957819e-04  -3.6664333e-04   3.1846797e-05   1.2580492e-04  -3.5742367e-05   5.8247995e-05   1.5882299e-04   1.5965194e-05   2.2330307e-03   1.4639860e-05  -4.9755553e-04  -2.9748201e-04   3.6833616e-04  -3.2120361e-04   9.3555613e-04   1.0739707e-04   7.0603324e-05   6.6528213e-05  -1.4466171e-05  -9.6965450e-05  -1.0085960e-03   6.6552643e-04   3.5369879e-04  -5.5487762e-05  -7.8560790e-04  -1.4188267e-04   4.6472959e-04   2.5002580e-04   5.5524335e-05   3.3017102e-04   7.8975190e-06  -2.1587162e-04   9.9988581e-05   2.2289269e-03   9.0240592e-06   1.3173198e-03  -3.0761107e-04  -1.5817615e-05   4.4898312e-05   9.0638969e-05
   5.7082379e-04   5.1105191e-05  -6.3302025e-05  -1.2374597e-04  -4.3735930e-04   8.5073050e-05   3.7291157e-04  -1.3028710e-04  -1.6522774e-03  -7.3315040e-04   7.4914373e-05  -3.6921582e-04   8.7668523e-06   1.4926083e-04   1.2485571e-04   4.6660771e-05   1.7531742e-05   6.3876236e-05   1.1756426e-03   4.9378785e-05  -4.6822795e-04  -2.8673842e-04  -1.1391548e-04  -1.7994683e-04   1.1081479e-03  -1.1525697e-04   4.0934587e-04   9.8184530e-05   5.7630125e-04  -1.4626767e-04   1.5980537e-03   4.9873255e-05   1.0916246e-04  -4.4511729e-05  -2.2331788e-03   5.7406793e-04  -3.8457193e-04  -3.3362565e-04   7.2095558e-05   8.3540093e-05   2.2503348e-04  -2.3192505e-04   3.2290639e-06  -5.2664480e-05   2.1633269e-04   2.9949046e-04  -2.5648132e-04   3.4783890e-05  -1.5995049e-05   9.9974553e-05
   2.0103913e-04   6.1910992e-05   2.2268694e-04  -1.0415463e-05   9.9109966e-05   9.0254529e-05   3.6658879e-04  -4.5169094e-05   9.4510190e-04  -7.1541657e-04   1.6111154e-04  -3.5630603e-04   4.3262804e-05   3.3873868e-05   4.5348948e-04   1.0442505e-04   1.1220907e-04   2.0672749e-04  -1.4834458e-03   1.4137860e-05  -4.6357224e-04  -3.1632712e-04   8.1066020e-05  -1.8615530e-04  -4.5828501e-04  -2.8607436e-05  -9.0930029e-05   5.9979684e-05  -4.9922353e-05  -8.5246866e-06  -2.2031840e-04  -9.2862018e-07  -9.4697636e-05   6.4580905e-05  -1.3969303e-04   4.3064653e-04  -6.3774618e-04   2.1743826e-06   5.2617910e-05   6.2798924e-04   9.5652409e-05  -1.8312976e-04  -1.3027398e-04  -1.7496424e-03   1.4357148e-04   7.6326495e-04  -2.6882644e-04  -2.8666336e-05   5.7123256e-05   9.2494665e-05
  -3.0081245e-04   8.9820460e-05  -2.8483331e-05   1.4713174e-04   1.1874884e-05   1.7525666e-04  -2.6414689e-05   2.3314809e-04  -6.4755022e-04  -7.3480472e-04   7.6162090e-05  -3.3433622e-04   8.1261256e-05   3.0781866e-05   1.2452525e-04   1.0679778e-04   8.8416949e-05   8.5593740e-05   7.0452120e-04   5.2930194e-05  -4.8320036e-04  -3.4141424e-04   3.7595590e-05  -1.2536815e-04  -4.0263910e-04   9.3890740e-06   1.3139095e-04  -9.3081493e-05   2.9506421e-04   6.2504194e-05   5.6435872e-04   4.0816620e-04  -3.3701675e-05   4.1126292e-05   9.1095280e-04  -6.6039263e-04   8.2651466e-05   3.9241964e-05   1.0081455e-04   9.9365017e-04   6.6889952e-05  -2.4092602e-04   1.5829422e-05  -2.0298640e-04   1.3227410e-04   7.6435288e-05  -2.8585672e-04  -5.1449984e-05   1.8114952e-04   1.6469749e-04
  -4.4492288e-05   8.8330722e-05   8.0566890e-05  -3.2933676e-05  -2.0455405e-04   5.3734606e-04  -3.7259713e-04   1.8505222e-04  -2.1307236e-03  -6.9157121e-04   6.3108024e-07  -3.2490341e-04   2.0760112e-05   1.5643118e-04  -6.6829125e-05   8.9575486e-05   5.0035032e-05   2.0064952e-04  -9.6955139e-04   9.2517424e-05  -4.3422708e-04  -2.7744740e-04   2.5459642e-05  -2.4525577e-04  -2.6516132e-05  -4.6904424e-05   1.7145358e-04   3.8056160e-04  -9.7359603e-05  -6.7310539e-05   2.6183229e-04  -1.7657886e-04  -2.6638687e-04   1.0323928e-05  -1.0910087e-04   4.0986240e-04   5.9536344e-04   8.7306416e-06   2.8171478e-05   6.2820538e-05   9.1955357e-05  -1.7669638e-04   1.6758540e-05   2.2859196e-03  -9.3237295e-06  -4.3272960e-04  -2.4674847e-04  -6.6753678e-06   1.2316300e-04   5.6247289e-05
  -2.1240930e-04   8.4009233e-05   5.7201167e-05  -2.6839598e-05  -8.8728731e-05   6.5674263e-05  -2.1285887e-05  -2.2329098e-04  -3.0157398e-04  -6.9207343e-04   1.0716564e-04  -3.1799439e-04   4.3477852e-05   5.7132147e-05   1.2885717e-04   1.2100323e-04   1.0913509e-04   1.2788233e-04  -6.3888219e-05   5.6378562e-05  -4.1982607e-04  -2.9861895e-04   1.1391719e-04  -1.7272850e-04  -1.9813611e-04  -7.1120994e-05   2.4459119e-05   2.7068047e-04   3.9130510e-04  -1.5054252e-04   7.0656046e-05   2.4272768e-04  -1.2074361e-04   1.7421844e-04   7.8936212e-04   2.5108835e-04  -4.9274828e-04  -8.0664162e-05   1.0447704e-04  -1.2904606e-04   9.9001656e-05  -1.8033094e-04   1.0597383e-06  -6.5739558e-04   6.5522756e-05  -1.0765966e-03  -2.5011424e-04  -1.0487965e-05   1.5183254e-04   6.9586968e-05
  -2.9060731e-04   9.2491369e-05   1.3544178e-04   9.7246571e-05   4.7959122e-05   1.0698102e-04   2.7439740e-04   1.6749982e-04   8.9732622e-04  -7.0214638e-04  -2.8002738e-05  -3.1636181e-04  -6.8157191e-05   1.3402989e-04   1.4731569e-04   9.7378834e-05   1.1902973e-04   6.9483009e-05  -1.2425692e-03   4.8959064e-05  -4.6103314e-04  -3.1931337e-04   2.3448473e-04  -1.0504595e-04   1.1244310e-03  -2.9561032e-05   4.4086279e-05   5.2401889e-04   7.0487178e-05   2.0660096e-04   1.1048659e-03  -2.5928068e-05  -2.7829396e-05  -6.3591851e-06  -4.6647820e-04  -1.7777034e-04  -4.4444884e-04  -1.2215970e-04   6.0801369e-05  -6.2867132e-04  -2.7969980e-04  -2.3577230e-04   2.2594239e-05   5.6700548e-04   3.7503458e-05  -8.6479646e-04  -2.6185045e-04   3.2584676e-06   1.2357162e-04   3.0417321e-05
   1.5188732e-04   9.8788551e-05  -8.3946688e-05   3.0647119e-05   8.2650431e-04   5.5493023e-05   1.9694868e-04   5.9198914e-04   2.0044211e-03  -6.5254938e-04   3.9659631e-06  -3.2200132e-04   1.5195152e-04   1.4016397e-04   5.2724725e-05   6.8760979e-05   1.6947687e-04   9.1086506e-05  -1.4366771e-03   2.0635525e-05  -3.9003079e-04  -1.9358314e-04  -1.9590238e-04  -1.2655626e-04  -7.5923730e-05   1.0595910e-04   2.5236095e-05   2.5398866e-04  -2.9514826e-04   5.2117895e-05   1.7085300e-04  -1.9221353e-04   2.3680198e-04   1.1887622e-04  -1.5858677e-03   1.5889907e-04   1.4380086e-04  -9.1906377e-06   1.0001246e-04   4.0791401e-05  -6.4531348e-05  -1.6949994e-04   1.6747754e-04  -4.7966192e-04   1.0519757e-04   9.0051099e-04  -2.2351333e-04   3.7675945e-05   1.9545555e-04   9.3613511e-05
  -2.5377615e-04   1.1939850e-04  -3.3120294e-05   9.0684989e-05  -4.2528418e-04  -2.1722348e-04  -1.1302160e-04   3.6464885e-04  -3.0605255e-03  -6.4378907e-04   7.5980541e-05  -2.9577952e-04   1.1220018e-04  -2.0629457e-05  -1.0073990e-04   8.0112368e-05   8.3416387e-05   2.3359200e-04   2.2397281e-04   6.9608934e-05  -4.2200214e-04  -2.2895902e-04   1.5773106e-04  -1.1935556e-04  -3.3944605e-05  -1.6233859e-04   2.1497767e-04   6.2537112e-04  -3.1549257e-04   2.5428995e-04   7.7759300e-04   1.2682063e-04   1.9861091e-04   1.3529920e-04  -5.4420176e-04   3.9103511e-04  -3.1143139e-04  -1.2349756e-04   1.0838556e-04   6.3160062e-04   6.0541195e-05  -1.6401918e-04  -5.1565301e-05   1.4825047e-03   1.3106909e-04  -1.0055185e-03  -2.1700287e-04  -7.6585900e-05   1.7448307e-04   1.0964888e-04
  -3.6326953e-04   3.0222869e-05  -2.0212963e-05  -3.1869422e-05   1.4428006e-04   1.8078127e-04  -2.2400888e-04   1.8182937e-04  -4.7754267e-05  -6.6488131e-04   7.9708116e-05  -2.9193942e-04  -9.2326984e-05   9.4033043e-05   1.6942265e-04   2.0893169e-05   7.9762685e-05   9.6761090e-05   1.2677016e-03   7.5802927e-05  -4.3209866e-04  -2.1529192e-04  -1.7664672e-05  -1.9643427e-04   1.4472512e-03   1.4154782e-04  -5.6301153e-05   1.2526872e-04  -5.4351691e-05  -1.9205949e-05  -1.2158862e-04   3.7664422e-04   9.0872185e-05   8.5740299e-05   1.6167958e-03  -1.1530556e-03  -4.0206101e-04   5.1826786e-04   3.6210622e-05   4.8964348e-04  -4.1247076e-05  -1.6534526e-04   9.2450558e-05   1.2884273e-03   1.0942225e-04  -3.3016878e-04  -2.5165553e-04   9.1174898e-06   6.8948211e-05   5.0253126e-05
  -2.4403410e-04   8.6266460e-05   1.7571138e-04  -7.7444092e-05   1.0774707e-05   2.4002118e-04   2.5668376e-04   1.9501497e-04   5.7057070e-04  -6.5048382e-04   1.0786484e-05  -2.8561571e-04   7.8109420e-05   3.9134706e-05   1.2291818e-04   3.9975450e-05   4.0501945e-05   6.8264329e-05   7.1243738e-04   3.0398183e-05  -3.9728286e-04  -2.0250017e-04   1.5654849e-04  -9.8405500e-05   1.0157307e-03  -6.1168059e-05   9.9654389e-05   3.5080200e-04  -5.3909671e-04  -1.5390995e-04   4.9127627e-04  -4.5254514e-05   2.7522998e-04  -2.4382999e-04  -1.6969828e-03  -4.9127819e-04   4.2552102e-04   2.4560868e-04   8.3901279e-05  -3.2165404e-05  -1.4319745e-04  -1.5615583e-04   9.3041497e-05   5.8157719e-04   1.6540928e-04  -1.9524973e-04  -2.1054086e-04  -9.9333927e-05   1.2080642e-04   1.0475430e-04
  -1.3129650e-04   6.1503401e-05   1.4275673e-04   4.0788622e-05  -2.7657367e-04   4.5431085e-04   1.7320913e-04   7.7062585e-05   2.8834475e-04  -6.3017447e-04   8.9117450e-05  -2.9400075e-04   4.4553315e-05   8.6324153e-06   6.1471655e-05   4.3304576e-06   1.5514831e-04   3.1472908e-04   6.8028644e-04   1.2311718e-04  -3.7255097e-04  -1.7423209e-04   1.5849406e-04  -1.8138556e-04   6.0118444e-04   2.0866924e-05  -2.9877233e-04   5.7827815e-04  -2.4326389e-04   2.0902512e-04   6.9330004e-04   2.8887318e-04   7.7114069e-05   3.4476005e-05   7.0607057e-04  -1.8478084e-05   3.0897587e-04   9.2966933e-05   4.7379217e-05   2.3028783e-04  -1.2532996e-04  -1.8595855e-04   4.4448843e-05  -1.1851412e-03   8.1756276e-05   1.2935452e-03  -2.2067167e-04  -3.4313391e-05   1.0288913e-05   3.0261870e-05
   2.7088547e-04   7.7711833e-05   2.4823102e-04   3.7981306e-05   3.6070560e-04  -7.5663018e-05  -8.7711887e-05   7.2908959e-05  -3.2613690e-03  -6.6324801e-04  -9.6091680e-06  -2.7247021e-04   7.9729369e-05   3.0186322e-05   2.2107338e-04  -1.0897140e-06   2.4907382e-05   2.1459699e-04   6.0106430e-04   4.5839879e-05  -4.0998971e-04  -2.0798764e-04  -1.1531547e-05  -4.8499183e-05  -3.2184671e-05  -2.0615926e-05  -7.3078518e-05   3.5723617e-05   2.3813985e-04   1.0698829e-04  -6.7476381e-04  -1.0274386e-04  -1.8734149e-04   1.5374470e-04  -4.4177231e-04  -3.2981297e-05   2.9441030e-04   1.5735473e-04   7.5484706e-05   7.1221427e-04   1.6073613e-04  -1.5777418e-04   4.1197774e-05  -7.1606506e-04   1.5836135e-04  -5.4562103e-04  -2.2777209e-04  -6.3083804e-05   6.4376318e-06   2.5923962e-05
   1.7523595e-04   7.5565666e-05   5.0688257e-05  -5.2363055e-05  -2.6602356e-04  -8.3820923e-05  -2.8462030e-04  -1.6448845e-05  -1.6784867e-03  -6.8514724e-04   1.2906188e-05  -2.8718478e-04   4.2378429e-05   1.3422474e-04   1.3671444e-04   4.5439312e-05   6.1361650e-05   1.6550166e-05  -6.0038721e-05   9.5197727e-05  -4.4008374e-04  -2.6941180e-04   1.4249848e-04  -1.3844446e-04  -2.9613089e-04  -2.0754926e-05   1.9009467e-05   4.0665787e-04   1.2490009e-04   5.9859231e-06   5.3487296e-05   2.7542523e-04  -7.8264049e-05   6.5347758e-06   4.3525168e-04  -3.4580105e-05   3.0629279e-05   1.6459303e-04   6.0047430e-05  -4.1616728e-04   3.9515737e-05  -1.2283625e-04   7.3615971e-05  -6.1793158e-05   2.3533887e-05   1.1250529e-03  -2.1981641e-04  -3.8788021e-05   1.9571008e-04   6.4673928e-05
   6.3164727e-05   3.9026927e-05   7.7667406e-05   1.9954768e-04   9.5714815e-04   1.0376773e-04   4.2889627e-05   4.6118666e-04   9.2036994e-03  -5.9453788e-04   1.2941970e-04  -2.9445824e-04   6.4102460e-05   1.0767610e-04   1.0814585e-04   3.1692409e-05   1.1086843e-04   1.2752765e-05  -2.2133706e-04   6.5163615e-05  -3.6867862e-04  -1.7895435e-04   7.4513286e-05  -5.2843944e-07  -3.2815299e-04  -1.5939095e-05   3.3082743e-04   3.0026602e-04   1.7872133e-04   1.0268206e-05   7.7486003e-04   4.2210624e-04   2.3981252e-04   1.6984959e-04   8.9895946e-04   9.2841496e-05   2.4057679e-04   1.1916600e-04   4.8557638e-05  -3.2851135e-04  -2.2365135e-04  -1.5725521e-04  -6.3035237e-05   9.9934568e-04  -2.4383762e-06   1.0041367e-03  -1.9977083e-04  -1.0777992e-05   1.1161286e-04   1.0521895e-04
   3.3457571e-04   5.8641814e-05   6.5813212e-05   5.1580035e-05  -2.5365211e-05  -1.6271883e-04   5.5109056e-05  -2.7514715e-04   4.9931714e-03  -6.3585548e-04   6.2631538e-05  -2.7629381e-04   1.1098466e-04   7.6858458e-05   1.6197099e-04   2.9679084e-05   8.3010294e-05   1.7808913e-04   6.5651390e-04  -4.1828040e-05  -3.7248243e-04  -2.1219146e-04   1.7582213e-04  -6.0935952e-05  -5.2978587e-05   7.0235066e-05   9.1916634e-05   7.0955668e-04   2.4726451e-04  -1.6897025e-04   2.9504017e-04   5.2769476e-04   1.5930053e-04  -1.3205917e-05  -1.6760842e-04   1.5392242e-04   7.0229621e-04  -6.1601299e-05   3.6825946e-05   5.9278199e-04  -1.9146576e-04  -1.5228534e-04  -5.7030662e-05   1.0574771e-03   6.7837800e-06   2.0821398e-04  -2.0744593e-04  -6.9212074e-05   1.0271848e-04   1.0162969e-04
   5.4641623e-05   6.2882551e-05  -1.1280091e-05   7.7231642e-05  -1.2651514e-04   3.8253088e-04   1.1281260e-04   1.0893437e-04   2.0592103e-03  -6.7480950e-04   5.2102889e-05  -2.7581921e-04   7.7386969e-05  -8.0110636e-05   3.0558798e-04   1.1914617e-04   9.9700213e-05   1.0461849e-04   7.9975545e-04   2.8139260e-05  -4.1540683e-04  -2.3290284e-04  -1.4670496e-04  -8.3093502e-05  -7.8077673e-04  -5.2956319e-05   2.7805265e-05   2.8633579e-04   1.4272712e-04  -1.2776158e-04  -5.6043209e-04  -1.8832073e-04  -1.2460709e-04  -3.9328057e-05   8.1386830e-04  -1.6722333e-05  -1.9769241e-04  -4.4994068e-04   1.0212971e-04  -1.0431722e-04   7.9359588e-06  -1.8313117e-04  -2.1994427e-05   1.0248948e-04   2.0994179e-05  -1.1738917e-03  -2.1168320e-04  -1.9639314e-05   1.8713652e-04  -1.4096033e-05
  -2.6080690e-04   1.0078521e-04  -3.4675457e-05   6.9420290e-05   4.4714402e-06  -8.4908424e-05   1.7681163e-04  -2.5525878e-04  -7.4727798e-04  -6.0310133e-04   1.3644063e-04  -2.8259220e-04   6.6626089e-05   2.3987892e-04   8.2865045e-05   3.7294849e-05   7.0930691e-05   2.2841085e-04   1.5946593e-03   6.5081127e-05  -3.5262894e-04  -9.7349650e-05   1.5839891e-04  -5.8660204e-05   7.8259333e-04   4.8304901e-05   3.7665284e-04  -1.4784033e-04   6.6945890e-05   1.1991457e-04   1.2288456e-03   4.8952171e-04  -4.2369931e-05  -1.6501253e-04  -2.9332572e-04   7.1370603e-05  -5.1192963e-04  -6.0490102e-06   6.2463798e-05   5.7793979e-04  -2.7510020e-04  -1.4995599e-04   5.6857945e-05  -9.6446072e-04   3.9432980e-05   5.8131746e-04  -1.9080298e-04  -6.4568136e-05   2.1294902e-05   2.0881453e-05
   5.4684468e-04   5.3575925e-05   1.3429315e-04   9.8672361e-05   5.6794536e-04  -1.1657267e-04   2.9606820e-04   2.1299710e-04   7.2680617e-04  -5.8272516e-04   3.3104530e-05  -2.6742247e-04   3.4895198e-05   5.3096141e-05  -6.1665574e-05   1.1655629e-04   7.3459589e-05   2.5422836e-04   3.9819654e-04   1.3624051e-05  -3.5825773e-04  -2.0235914e-04  -1.4377915e-04  -1.4651917e-04   5.0934392e-04   4.3146258e-05   1.0449847e-04  -9.3983879e-05   2.8213763e-04   1.5615631e-04  -1.0994078e-04   2.7107695e-04   6.2041690e-05   2.2371420e-04   6.6425599e-04  -2.7514502e-04   9.9505451e-05   5.4730870e-05   6.5591827e-05  -5.6925544e-04   9.7004508e-05  -1.9725278e-04   2.7523987e-05   7.1650313e-04   5.5620163e-05  -3.1330343e-04  -2.0274318e-04  -9.8128810e-05  -5.2786840e-05   3.8023148e-07
  -2.3229400e-04   1.9935185e-05   1.0221434e-05  -7.5666205e-05   3.7883877e-04  -3.0900112e-06  -4.4064178e-05   2.1321778e-04  -2.2777000e-03  -6.4005808e-04   1.2749025e-04  -2.5866021e-04   6.9969341e-05  -7.5190270e-05  -1.1490002e-04   8.2011851e-05   1.3511766e-04   1.6492215e-04  -2.6302731e-03  -1.0925211e-05  -4.0122363e-04  -2.0617071e-04  -2.4633435e-05  -2.3798601e-04  -1.1598899e-03  -1.5149840e-04  -9.1791480e-06   3.4800844e-04   2.2206138e-04   7.8313955e-05   3.4307840e-04   2.3690122e-04  -1.5133391e-04   1.4065535e-04  -1.0916550e-03  -1.6081284e-04   3.7410075e-04  -1.9847499e-05   1.5774849e-04   3.7832779e-05   1.5183306e-06  -1.8253653e-04  -2.5779071e-05   8.2518949e-05   8.4984997e-05  -6.2436884e-04  -2.1912991e-04  -7.0466092e-05  -1.4931926e-06  -9.5733494e-06
   2.7906483e-05   5.1304363e-05   1.7614357e-04   1.4162080e-04   3.0876926e-04   2.7883766e-04   1.0772587e-05   8.9794987e-05  -5.9848634e-04  -5.9873896e-04   2.0491125e-04  -2.3208628e-04   9.1531445e-05   1.3286897e-04  -6.2471241e-05   4.9998333e-05   5.3493430e-05   2.0238062e-04  -2.5865606e-03   8.4640225e-05  -3.5379405e-04  -1.3321667e-04   4.2148225e-05  -1.6536687e-04  -7.7699247e-04  -6.8048401e-05  -2.1988846e-05   6.4605230e-04   2.1546830e-04   6.8063957e-05   8.3947423e-05  -9.1961403e-05   1.8964747e-04   1.9563183e-04  -3.5841585e-04   7.4024580e-04  -1.9135608e-04   2.0467119e-04   8.5777152e-05  -3.4858473e-04   1.2149273e-04  -1.5505875e-04  -1.7647279e-05   8.7201537e-04   4.2282900e-05   1.3026224e-03  -1.9345072e-04  -2.0713524e-05   1.0921679e-04  -3.6839312e-05
   2.9838224e-05   4.6120007e-05   7.1268601e-05  -5.5231023e-05  -1.0806141e-04  -1.9421415e-04  -2.6340387e-05   9.0283640e-05  -1.1896302e-03  -6.0545607e-04   1.5837380e-04  -2.3547056e-04   8.6305146e-05   1.3237147e-04   5.4866967e-05   7.9590835e-05   6.1055551e-05   2.0186142e-04  -3.1923652e-03   5.8391237e-05  -3.5839243e-04  -1.4613305e-04   3.1548113e-04  -1.3456881e-04   4.7489570e-04   1.3255152e-04   3.6956244e-05  -1.3816073e-05   2.3198516e-04   1.7011977e-05  -2.2998065e-04   4.8762793e-04   3.8625771e-04   4.9533373e-05  -5.0035183e-04   7.2702074e-05  -1.2816218e-04   6.3235711e-05   6.2662191e-05  -5.5543333e-04   6.4545061e-06  -2.2040626e-04   2.3982395e-05  -7.3582254e-04   8.3809173e-05   7.1510505e-05  -1.8063118e-04  -5.2316725e-05   1.3048536e-04   5.3032833e-05
   2.7252035e-04   5.4466607e-05   2.3098536e-04   5.6120672e-07  -1.2907699e-04   2.6228139e-04   9.2695213e-05   1.3978867e-04  -7.6104334e-04  -6.1325426e-04   1.4650945e-04  -2.3008553e-04   1.9222012e-05   4.6754911e-05   5.7878671e-05   4.1733871e-05  -2.4933915e-05   2.2681826e-04  -1.2307521e-03   4.1798885e-05  -3.7401551e-04  -2.0677675e-04   1.9128229e-04  -1.0461834e-04  -1.7365019e-04   4.7500922e-05   1.4066894e-04   3.8720184e-05  -7.2696734e-05   4.7699512e-05   8.8623608e-04   3.5601671e-04  -2.2080643e-04   9.8044184e-06   7.0323353e-04   4.0518574e-04   1.5031199e-04   7.7056879e-04   1.6511136e-04  -1.4178343e-04  -8.7074834e-05  -1.7572168e-04   7.9078200e-05  -4.9297180e-04   4.7376077e-05  -5.6419655e-04  -1.8379204e-04  -7.0133159e-05   6.7452194e-05   1.4242992e-06
   1.2353898e-04  -1.8688942e-06   1.2535737e-04   5.4929158e-05  -9.2948685e-05  -2.0357431e-04   3.7436231e-04  -9.6364507e-05  -3.3548202e-03  -5.6402793e-04   9.0937334e-05  -2.3669738e-04  -1.1970465e-04   5.9904964e-05   2.4448056e-04   5.9778733e-05   1.0985840e-04   1.6476752e-04  -4.4162819e-04   3.6890182e-05  -3.4600327e-04  -1.6672380e-04   8.6998143e-06   1.6055166e-05  -8.8308792e-04   1.5217852e-04  -2.0691709e-04  -6.3795982e-05   6.4141693e-04  -1.1000479e-06   1.5130237e-03  -4.9122330e-04   2.4239715e-04  -2.5125407e-04   2.1668534e-06  -8.5516536e-04  -7.7046559e-04   2.7945623e-04   8.5897242e-05   1.8394124e-04   3.3092361e-05  -1.3979927e-04  -1.1226637e-04   2.3621721e-04   6.3767693e-05   2.1139020e-04  -1.8190277e-04  -6.3754698e-05   1.2160445e-04   1.2409517e-04
  -2.7373488e-04   3.4965386e-05   3.2943979e-04  -1.9042482e-05   5.7892234e-04   4.5662939e-05  -1.5487545e-04   7.6175471e-05   2.1103430e-03  -5.8514712e-04   7.6831901e-05  -2.0592654e-04   6.2085828e-06   1.1897061e-04   1.5078559e-04   4.7557998e-05   1.0482311e-04   3.6785346e-05   4.9482594e-05   4.9019720e-05  -3.4136773e-04  -1.3357570e-04   1.1939262e-05  -7.3637734e-06  -3.2707531e-04   3.0005458e-05  -1.9049748e-04   3.0753037e-04   3.3865304e-04   1.7672732e-04  -1.4126960e-04  -5.4301554e-04   1.0439023e-04  -7.0720860e-05   1.5463353e-03  -3.3514772e-04   3.2698014e-04   1.0009326e-04   6.1498467e-05  -1.5084480e-04   2.6647409e-04  -1.7653998e-04  -1.1268722e-04   1.1630583e-03  -2.6923966e-05   9.9688000e-04  -1.7936110e-04  -3.4167118e-05  -1.5903253e-04   1.1335451e-05
   4.5556691e-05   5.7463625e-05   8.6039472e-05   1.6306230e-04  -7.8294652e-06   1.6907426e-04   3.3103212e-04  -1.8380008e-04  -1.3385677e-04  -6.0613366e-04   1.0068035e-04  -2.2289531e-04  -9.2342889e-06  -5.1892621e-05   6.7784429e-05   6.3457810e-05   1.0633277e-04   3.3818207e-05  -1.1200098e-03   4.6747133e-05  -3.7018728e-04  -2.1900004e-04   7.5777723e-05  -1.2512723e-04   6.7383848e-04  -4.4169523e-05  -2.1432371e-04   1.5578259e-04   6.1957608e-04   1.5939231e-04   7.1442111e-05   4.7583726e-05   5.7917910e-05  -2.8602835e-05  -3.5952570e-04   3.0084819e-04   2.4333413e-04   9.7347940e-05   9.7646131e-05  -2.0532313e-04  -4.0874424e-05  -1.4848819e-04  -2.4549463e-05  -1.0938228e-03   1.0473293e-04   3.1500321e-04  -1.7217557e-04  -4.8299735e-05   1.3530649e-04  -1.9525978e-05
   6.5218081e-04   1.1365810e-04   1.2589252e-04   6.6335291e-05   2.9488088e-04   1.8507161e-04  -1.4992288e-04   2.5748223e-04   2.1722701e-03  -5.2834250e-04   1.2182523e-05  -1.9046577e-04   6.4724059e-05   1.0580837e-04   4.3816493e-05   4.4850607e-05   4.6447774e-05   1.8365683e-04   5.3383200e-04   5.5537341e-05  -3.0906138e-04  -1.3745866e-04   2.2812343e-04  -1.0962283e-05  -4.0575603e-04   1.5367310e-04   3.2545558e-05  -2.5997215e-04  -2.5559348e-04  -7.5482189e-05  -5.0354813e-04   4.5392354e-04   2.0213639e-04  -2.5385653e-04   1.1029585e-03   8.8305376e-04  -5.0578697e-04   3.3742090e-04   8.8811808e-05   5.7160610e-04  -6.6599023e-05  -1.3358335e-04  -5.8117086e-05  -5.7385355e-04   9.1378068e-05  -6.3132285e-04  -1.3889118e-04   3.3028398e-05   1.3169748e-04   8.8713590e-05
   6.5101885e-05   2.0514695e-05   9.3407456e-05   1.5320036e-07   2.4430652e-04   4.1189496e-04   4.5833457e-04  -4.5991135e-05   6.2405673e-04  -5.3837511e-04   9.5588497e-05  -2.0563284e-04   2.4301502e-05  -2.1553451e-05   1.7490530e-04   2.7360713e-05   9.3993083e-05   1.9755849e-04  -2.0486163e-03   1.4198673e-05  -3.2954078e-04  -1.5326151e-04  -8.1690414e-06  -6.2751526e-05  -5.0437934e-04   1.3801530e-04   2.1390754e-04   1.0135255e-04   1.2966491e-04  -1.2794651e-04  -6.2911102e-05   2.8517543e-04   3.6895249e-04   1.1798122e-04   3.6437518e-04   7.7945628e-04   6.5599335e-04   1.9654309e-04   1.5756130e-04  -4.0434490e-04  -2.1929665e-04  -1.1317674e-04   2.2732855e-05  -2.4746038e-04   8.0369318e-05   2.6464550e-04  -1.6282464e-04  -4.2486931e-06   2.9885108e-04   1.0208990e-04
   4.2276795e-05   1.0382944e-04   1.2901651e-04   9.4609590e-05  -9.4511721e-05  -2.5679282e-04  -2.7202308e-04   4.9535578e-05  -2.5299616e-04  -5.9023552e-04   1.0422923e-04  -2.0798254e-04   1.2629016e-04   2.9020226e-05  -7.2575196e-05   4.7456193e-05   6.0641578e-05   1.5160878e-04   6.7016325e-04   3.8512131e-05  -3.4304115e-04  -2.1308861e-04  -2.9028546e-05  -1.4114001e-05  -3.0694163e-04  -2.6574637e-05  -2.5522042e-04   2.3834540e-04   8.0663580e-07   2.6028653e-04  -7.3368882e-04  -3.9621213e-04  -7.6118718e-05  -8.2007929e-05  -5.9297244e-04  -4.8512302e-04  -8.8254428e-06  -2.2755708e-05   4.9986491e-05   6.1444734e-04   1.0946739e-04  -1.1452590e-04   9.3942319e-05  -7.4388139e-04   1.4881071e-04   1.4017285e-04  -1.6414784e-04  -6.6637665e-05   4.8568222e-04   5.3503380e-05
   4.7257252e-04   6.0824677e-05   1.9409883e-04   2.8296727e-05   4.7514311e-04   1.5243188e-04  -4.2327004e-04   2.5743360e-04   3.4060080e-03  -4.9499888e-04   1.1773513e-04  -2.0582053e-04  -1.2078099e-05   1.4866022e-05   3.7873970e-04  -3.3324188e-05   8.7662091e-05   5.3437987e-05  -4.6672295e-03   6.8350171e-05  -2.8227121e-04  -1.1370809e-04   3.5314843e-06   2.2227436e-05  -1.4362550e-04   1.0622984e-04   3.6528052e-04   9.9261124e-05   1.3336306e-04   2.7368096e-05   5.7124166e-04   6.4357684e-04  -4.0965013e-05  -1.2851143e-04   7.6416350e-04   2.4250349e-04  -3.2064886e-04   1.5019521e-04   1.6570545e-04   3.2938176e-04   9.6294192e-05  -1.2629700e-04   2.2901169e-05   4.2383870e-04   6.8083646e-05   3.5434321e-04  -1.4404750e-04  -3.7965867e-05   2.5707978e-04  -3.2515658e-05
   5.8224011e-04   6.8898669e-05   5.0082337e-05  -5.6294848e-05   4.5118231e-04   1.5536282e-04   5.6699745e-04   8.3123166e-05   8.8842923e-04  -5.1131874e-04   3.4115212e-05  -2.0457085e-04   4.5637866e-05   6.9916983e-05   2.9586224e-04   9.3942808e-06   2.6371019e-05   8.9486261e-05  -1.3066055e-03   1.8445317e-05  -2.9931837e-04  -1.6267973e-04   2.6171812e-05   6.2438907e-05   1.3097799e-04  -1.8256731e-05   6.6319866e-05  -2.3332276e-04   1.3435601e-04  -7.0415037e-05   4.1275547e-04   2.6811258e-04  -4.1830655e-05   9.2879498e-05  -7.9845707e-04   1.6300225e-04   7.0472865e-04  -2.7848902e-04   1.1368745e-04   5.0161488e-04   4.5271845e-05  -1.4333002e-04  -8.6362714e-05  -4.6966970e-04   2.7125826e-04  -8.2620804e-04  -1.5735543e-04   3.4762008e-06   2.1023018e-04   3.6913778e-05
   1.7936392e-05   4.4680073e-05   1.8849503e-04   4.7621532e-05   7.9960853e-04   6.6282068e-05   3.1816217e-05   1.8196537e-04  -9.3921094e-04  -5.2407593e-04   7.4581920e-05  -2.0042466e-04  -3.9958999e-05   8.8203451e-05  -8.1409999e-05  -2.5673869e-05   1.4563276e-05   6.8608686e-05  -1.5958485e-03   7.2888586e-05  -3.2093507e-04  -1.6188085e-04   2.1971849e-04  -1.4669410e-04  -5.5298675e-04   2.4680407e-05   9.5887859e-05  -1.7106728e-04  -2.7372593e-05   3.6548567e-04  -3.5470171e-04   2.3975923e-04   4.5676224e-04   2.6451668e-05  -4.0034886e-04  -3.0750097e-04   3.4912071e-05   4.0081987e-04   6.3160609e-05  -6.8982699e-05  -2.2680573e-04  -1.1669781e-04  -1.1239226e-04   9.9900307e-04   1.8464110e-05  -5.7363155e-04  -1.6811914e-04  -4.7697744e-05  -3.8992279e-05   2.8994724e-05
  -3.5649980e-04   3.9233386e-05   9.1022914e-05   1.1837313e-04  -2.2157654e-05  -2.3156738e-04  -5.9985519e-05   2.0345759e-04  -1.9068685e-03  -4.8326657e-04   8.2977160e-05  -1.9384410e-04  -2.3652334e-05   1.0021041e-05  -3.4456854e-04   1.2329100e-05   2.8560715e-05   9.4600990e-05   1.3961451e-03   6.8113754e-05  -2.8401928e-04  -9.3072165e-05   3.6731351e-04   1.8770166e-05   4.9466593e-04  -2.5557678e-05   7.9462065e-05   7.3944234e-06  -2.9555030e-04  -4.3399141e-05   9.5463579e-04  -5.2981818e-04   1.8974191e-04   4.7074074e-05   1.3298014e-03   4.4432378e-04   7.9997658e-04   2.3260327e-04  -5.3706585e-06   3.3286438e-04   2.8246656e-04  -1.2034648e-04   1.4668488e-04   7.2263245e-04   6.1975676e-05   1.2171512e-03  -1.2490945e-04  -1.1477584e-05   2.4055495e-04   1.3407505e-04
  -4.5508330e-04   6.1856765e-05  -9.9864468e-05   5.9578815e-05   4.1276995e-05  -4.3851923e-04  -1.3534203e-05   1.7503300e-04  -9.6365361e-04  -4.5166418e-04   6.0492541e-05  -1.7970781e-04   8.2073893e-05   4.6128629e-05  -3.7954072e-05  -7.2037096e-06   4.7256390e-06   1.8615168e-04  -6.8128487e-04   8.6624292e-05  -2.9110702e-04  -1.4995516e-04   3.8846872e-05  -5.4506156e-05   1.7783017e-05   5.0776562e-05  -2.1663279e-04   3.4016249e-04   2.6194195e-04   7.4418688e-07   2.9103921e-04   3.5714798e-04   2.3818039e-04   9.5992364e-05   4.5924843e-04  -7.2061887e-04   4.8443399e-04  -1.9318926e-04   9.3217510e-05   2.4970022e-05  -1.2197159e-04  -8.2457416e-05   7.3153700e-05   1.2453143e-04   4.6670113e-05  -1.9088386e-04  -1.3443860e-04  -4.8401635e-06   1.0573313e-04   5.2151048e-05
  -7.6857112e-05   5.3564949e-05   1.2412779e-04  -4.1270003e-05  -6.1577000e-04   1.6524007e-04   1.5161740e-05   1.0966200e-04  -7.9234829e-04  -5.0514430e-04   6.3969870e-05  -1.8848031e-04   1.3603579e-04   1.4317297e-05  -9.2544724e-05   3.3256174e-06  -2.1435448e-05   1.7606787e-04  -1.1769837e-03   4.7461792e-05  -3.2387953e-04  -2.6587147e-04   1.3845325e-04  -1.1207609e-04   6.0011557e-04   8.9299647e-05   2.3590948e-04   3.4523619e-04   1.8514128e-04   3.3295732e-05   6.5885315e-04   7.5143646e-05  -2.9643992e-05  -3.7067093e-05  -5.9155381e-04   1.4554384e-05  -4.5618066e-04  -3.3538814e-05   5.7700290e-05   6.2072260e-04   1.7700902e-04  -8.2155246e-05  -1.0440710e-04   2.1396393e-04  -8.3510786e-05   5.6486332e-04  -1.4627891e-04  -1.1261071e-05  -9.0127309e-05   1.2229758e-04
   6.0741772e-04   1.8612976e-05  -4.9172064e-05  -3.2664841e-05   1.4164482e-04   1.3640054e-04   4.4969466e-04  -9.2603950e-05  -6.5222606e-03  -5.2397739e-04   1.4680778e-04  -1.6388227e-04  -4.5834418e-05   1.2056017e-04   2.4935245e-04   5.0607741e-05   1.7492721e-06   3.0440489e-05  -2.2065083e-03   2.0813641e-06  -3.0492686e-04  -2.3303472e-04  -9.7526005e-05   7.9294354e-05  -1.3149288e-04   4.1621992e-05  -3.5016576e-04   7.7437056e-05  -1.8914953e-04  -9.2356524e-05  -1.4765643e-03  -2.9851272e-04  -2.3700390e-04  -8.4231157e-05   3.5806897e-04  -2.5206991e-04  -1.9665988e-05  -1.8946480e-04   1.0128805e-04  -2.8051922e-04   4.2970959e-04  -6.2557920e-05   1.2519305e-04  -1.7183275e-04   6.4081934e-05   1.1320361e-03  -1.0842412e-04  -2.0739084e-05   2.6787803e-04   6.5006439e-05
  -1.0347823e-04   6.9952010e-05  -6.6993161e-05   1.3220089e-04  -6.4140640e-04   1.3385271e-05  -3.6745932e-04   5.3866508e-05   2.3245707e-04  -4.3351762e-04   9.4253085e-07  -1.4407284e-04   5.9654954e-05   2.3556822e-05   2.2621281e-04   6.5351640e-05   8.9090892e-05   1.9772816e-04  -3.5334137e-04   5.5771299e-05  -2.7962375e-04  -1.1527359e-04   2.8937155e-05   5.3773874e-05  -9.8196045e-04   1.2044766e-04   8.7912893e-05  -8.7068169e-05  -9.6993990e-06   1.3644015e-04  -8.8159391e-04  -2.3332091e-04  -5.4136319e-05   1.0004378e-04   9.3877671e-04  -1.9328282e-04  -5.7077903e-04  -3.1159670e-04   5.2106709e-05   6.4876811e-05   4.1324896e-05  -9.9613841e-05   1.0324887e-04  -1.5066658e-03   7.4139047e-05  -2.5589610e-04  -1.1436657e-04  -5.5451514e-05  -2.4718216e-05   1.1339159e-04
  -2.0192211e-04   2.6699693e-06   2.9068705e-04   8.3602019e-05  -1.9538045e-05   2.5327574e-04   4.7482777e-04   2.3626766e-04   3.7700885e-03  -4.5649766e-04   6.1537547e-05  -1.7010904e-04  -1.1097864e-05   1.1110815e-05   6.9875314e-05   4.8108188e-05   1.0607061e-05   8.5583248e-05  -1.8166444e-04  -4.0886509e-05  -2.8910628e-04  -1.8085139e-04   2.5227907e-04   2.1074198e-05   2.0625122e-04   1.3783008e-04   2.5929415e-04   3.0005875e-04  -1.3847454e-04   1.3407864e-04   1.5775040e-04  -3.5701317e-04   1.3425857e-04   1.2698189e-04  -6.9450954e-04   5.9714704e-04   1.0392186e-03   1.8670273e-05   7.8129058e-05  -2.1502137e-04   4.1179464e-05  -1.0971982e-04  -9.6171541e-05   2.1126836e-03   8.1049038e-05  -1.3952535e-04  -1.4451862e-04  -4.5995923e-05   2.3412908e-04   2.8891193e-07
   1.2003857e-04   5.6308578e-05   2.6761376e-05   1.2527860e-04   9.1593561e-04  -1.6481988e-04  -2.5394530e-04   2.3087536e-04  -9.9853962e-04  -4.9481849e-04   6.7120345e-05  -1.3884220e-04  -1.3594977e-05  -3.4783010e-05  -1.0973620e-04   3.2126329e-05   7.6074866e-05   4.7505637e-05   8.9241599e-04  -6.2473540e-05  -3.1103447e-04  -2.5975480e-04  -1.8599461e-04  -6.8923022e-05   3.3336628e-04  -1.0457622e-04   1.4608816e-04   1.0556063e-04   9.2324139e-05  -3.5834189e-05   3.0287119e-04   3.0370857e-04  -1.0326583e-04   3.9574985e-05   1.3491373e-03  -1.2815185e-04  -1.6751724e-04  -7.5368327e-05   9.1860114e-05  -9.5281046e-04  -7.7872603e-05  -9.1166599e-05   8.9673871e-05  -8.0229004e-04   7.9414574e-05   1.6719123e-04  -1.1523519e-04  -3.5681580e-06   2.5680865e-04   1.0198946e-04
  -1.3016169e-04   4.2244585e-05  -6.2782172e-05   1.2137533e-04   4.3365025e-04   2.4738102e-04   2.9053102e-04  -1.1780108e-04  -9.8373974e-04  -4.2407314e-04   1.0243454e-04  -1.3701939e-04   6.3890067e-05   1.0251639e-05   3.2498330e-04   7.6496954e-06   2.7139335e-05   1.3257022e-04  -1.4006281e-03   3.5336448e-06  -2.6149492e-04  -1.0703878e-04  -1.6312326e-04   1.9813802e-05   9.3288072e-05   1.4071101e-04   3.1190971e-04   9.4450879e-05   2.6299086e-04   3.4708348e-05   1.8102946e-04  -2.4280886e-04   1.4536349e-04  -1.3278943e-04   3.5714926e-04   6.4140372e-04  -2.4003415e-04   9.3472860e-05   8.6295717e-05  -5.7233311e-04   2.2651814e-04  -1.0424678e-04   8.2987848e-05  -3.8854059e-04   2.1767382e-05   1.6676656e-04  -9.2348258e-05   6.7007495e-06  -1.0563435e-04   5.7244655e-08
   3.9519250e-04   6.2541090e-05   1.8376575e-04   6.3739259e-05  -1.0786805e-04   1.0644821e-04   5.7113717e-05   8.1962506e-05   4.9948337e-04  -4.3192742e-04  -7.1559216e-06  -1.4799456e-04  -4.5010496e-05   8.7157285e-05  -2.2849593e-04  -2.0654757e-05   1.2755854e-04   5.9729704e-05  -2.3539632e-03   5.7660924e-05  -2.6185744e-04  -1.6935094e-04   2.9504014e-04   6.5570493e-05   4.3065567e-05   6.1478306e-05  -1.8652821e-05  -3.0701567e-04   3.0134892e-04  -3.1680203e-05   1.0855403e-04  -2.5413107e-04   3.6374759e-04  -1.1100290e-04   9.1036235e-04   4.0259431e-04   8.3952706e-05   1.7650946e-04   1.2039719e-04   6.6070538e-04   8.0238628e-05  -6.9500820e-05   1.2702537e-04  -7.6405493e-05   1.3971793e-04   1.4516697e-03  -1.2735538e-04  -4.0818941e-05   1.6588657e-04   8.6667842e-06
  -3.4164640e-04   3.9404487e-05   1.5302456e-05  -6.5412649e-05   3.7709335e-04   1.1160510e-04   4.8278025e-04   1.4056994e-04  -1.5696940e-03  -4.6564426e-04   2.7001599e-05  -1.7038107e-04  -1.0121218e-05  -2.3963343e-05  -6.5187225e-05  -4.7298523e-05   5.9071126e-06   5.2278974e-05  -5.4687791e-04  -2.6813173e-05  -2.8529155e-04  -1.5684115e-04  -4.9960046e-05   6.0102077e-05  -1.4235020e-04  -9.7344848e-05  -1.7648721e-05  -8.6701213e-05  -2.5946397e-04  -2.9913956e-05  -2.5899566e-04  -4.2127873e-04   1.9542445e-05   1.1382129e-04  -5.8565137e-04  -1.7448484e-04   5.7654735e-04   2.2215175e-04   7.7698060e-05   1.1061064e-04   3.5428235e-05  -5.5145174e-05   4.5824734e-05  -1.8656199e-03   3.4744222e-05  -2.9988971e-04  -9.0467322e-05  -2.1473861e-05  -9.1019801e-06   1.0393421e-04
   3.1362913e-04   6.2571969e-05   5.9457020e-06   1.5795074e-04  -3.9707570e-04  -2.1013989e-04   1.7265632e-04  -2.1373654e-04   1.2369221e-05  -3.9564230e-04   1.3454494e-04  -1.1130087e-04  -6.4838008e-05  -3.3357930e-05   9.0040616e-05  -3.0009813e-05   9.1567548e-05   1.2111359e-04  -3.8143239e-04   9.9691279e-05  -2.1394972e-04  -1.1829656e-04  -2.3255504e-04   7.1156144e-05  -4.1608469e-05   4.4795841e-05   1.3131622e-04   2.5161650e-04   5.3305615e-04   5.9230002e-05   2.6194321e-04  -4.4535156e-04  -1.6147802e-04   8.6800894e-05   2.2537766e-04  -6.7748257e-04   4.1719059e-06  -2.8752953e-05   9.2045659e-05  -3.9819189e-04   1.4211985e-04  -3.7746686e-05   1.4588032e-04  -8.3579787e-04   4.8094731e-05   1.9685754e-04  -8.8687550e-05   4.3452546e-05   3.2075786e-05   1.8717896e-04
  -2.3801553e-05   5.0015991e-05  -2.0604678e-04  -5.9322785e-05   2.0139903e-04   6.3511499e-05  -1.2261842e-04  -3.1076651e-04   8.5348391e-04  -3.9818874e-04   8.7915389e-05  -1.2652075e-04  -8.7127206e-05  -4.7579277e-05  -2.4682500e-05   2.7449632e-05   5.8872214e-05   9.8021730e-05  -1.1962487e-03   6.3990876e-05  -2.4114002e-04  -1.7253681e-04  -1.1036845e-04   7.2272858e-05  -9.1624062e-04   1.2798620e-04   3.8364982e-05  -1.1172363e-04   4.5586785e-05   7.5383250e-05  -1.2505787e-03   2.7531173e-04   2.1439731e-04  -9.4255636e-05   9.1012148e-04   1.9999403e-05  -4.2064342e-04  -3.9024977e-04   1.0903996e-04  -4.1237540e-04   1.3093106e-04  -9.7844051e-05   4.3380274e-05  -7.8075402e-04   2.6714870e-05   3.4392951e-04  -1.0162759e-04  -1.0708666e-05   8.0985301e-05  -6.7294357e-05
  -2.1421805e-04  -1.2941670e-05   4.6808098e-05  -6.7696506e-05  -4.3096906e-04   1.4607538e-04  -2.1633615e-04   2.0187990e-04  -4.8950435e-05  -4.2317095e-04   1.5164436e-04  -1.3214326e-04  -2.8306889e-05   2.8017523e-05   3.6179445e-05   1.0319861e-05   9.3808652e-05   1.2136903e-04   2.1220986e-03  -1.2277588e-05  -2.6108904e-04  -1.6522800e-04  -3.7605708e-04  -6.2130326e-05  -4.7023228e-04   1.6600708e-05   6.5362387e-05  -1.4328497e-04  -5.4660115e-05  -5.4592514e-05  -4.6091925e-04   4.1145951e-04   1.2632164e-04   2.3947997e-04  -5.1698658e-05   5.0946150e-04  -4.8146644e-04   4.0053725e-04   4.4752149e-05   2.5605544e-04   3.5888498e-04  -4.1924101e-05  -3.2518969e-05   5.2406592e-04   1.0637720e-04   1.2714567e-04  -8.2734827e-05   4.4635410e-05   9.0938825e-05   9.5700481e-05
   1.6582891e-04   2.6553493e-05  -1.3538342e-04   1.9177271e-04   1.3579406e-04  -1.3788416e-04  -5.1017840e-05   3.1761403e-05   4.0049222e-03  -3.4470722e-04   9.8655422e-05  -1.2035012e-04  -1.6635850e-05  -9.3578983e-06   1.7350452e-04   2.8927361e-05   6.4185362e-05   9.6048170e-06  -2.0408889e-04   1.0401895e-04  -2.1877396e-04  -8.3675463e-05   1.6149099e-04  -8.9956462e-05  -1.4958013e-05  -5.8389887e-06   1.5600695e-04   1.4602760e-04   4.6206088e-04  -1.4189666e-04  -1.1475936e-03  -1.7050000e-04  -3.7688555e-04   1.0020392e-04  -9.7903446e-04   1.4941901e-04  -6.2618655e-04  -3.1348283e-04   8.3532977e-05   4.0929159e-04  -1.8847703e-04  -1.7734847e-05   1.5167176e-05  -4.9207313e-04  -2.1154845e-05   1.3781058e-04  -6.7989626e-05  -3.5391709e-05   4.6083340e-05   4.8401293e-05
  -1.1710703e-04   4.6136138e-05   4.5212611e-05  -1.1649850e-05  -1.6433954e-04   2.9352677e-04   2.0503922e-04  -1.8009411e-04   5.4152805e-04  -3.5794251e-04  -1.9440222e-05  -1.2538233e-04   5.8594585e-05   4.5449557e-05  -9.2516493e-05  -1.8696412e-06   9.5977623e-05   1.0328705e-04  -1.1766931e-04   7.2082854e-05  -2.1910356e-04  -1.0342783e-04   1.5809602e-04  -1.7948561e-05   6.3158805e-04  -2.7257585e-05  -2.5445093e-05   4.9928942e-04   3.8516332e-04  -1.8663531e-04   5.5545504e-04   1.0975529e-04  -8.6786313e-05   8.4745108e-05  -1.1323829e-03  -2.1620686e-04   9.9546846e-04   2.7078518e-04   5.6623056e-05   5.0009799e-04   6.1380139e-05  -4.0382849e-05   1.0263079e-04   2.1857514e-04   1.1572484e-04  -3.2967707e-06  -7.8346326e-05  -1.0399996e-05   1.6450378e-04   7.5045820e-05
   2.6743187e-04   8.7486907e-05  -3.4294528e-05   8.5130050e-05  -3.9948570e-04   1.1190269e-04  -4.5441262e-05   2.1916223e-04   2.9695805e-03  -3.8191109e-04   1.8780687e-05  -1.2737732e-04   7.4563846e-05  -4.9778992e-05   1.2601247e-04  -3.3765646e-05  -1.9723791e-05   1.6700759e-04   4.2560608e-03  -6.2090953e-06  -2.5313077e-04  -1.0838984e-04  -4.2997484e-04   3.1463456e-05   1.2705503e-04   1.2418561e-05   3.0389766e-04  -1.2671693e-04  -1.6079456e-04  -6.0415765e-05  -1.9289185e-04  -5.4002338e-04   2.0048450e-05   2.5618018e-04   1.0329889e-03  -2.4553700e-04  -3.1191122e-04   4.4969004e-04   1.2665032e-04   1.5278388e-04   1.2519787e-04  -5.4019423e-05   2.3973387e-05   5.0175161e-04   7.9009973e-05  -6.3172943e-04  -1.0046205e-04  -2.6618987e-05   3.4870198e-05   3.1119227e-05
   3.1208203e-04  -1.7606211e-05  -1.8231984e-05  -4.7313893e-05  -3.1136369e-04  -1.2168814e-04  -1.0109811e-04   1.0603148e-04   3.8422500e-03  -3.1795638e-04   1.0031526e-04  -1.0545473e-04   9.2358001e-05  -2.0221401e-05  -1.5175395e-04   2.8396536e-05   7.5732118e-05   3.0206085e-05  -2.3171881e-03   7.1859831e-05  -1.9373893e-04  -9.3176226e-05  -1.7592794e-04   2.8496876e-05  -8.3295960e-04  -7.0634560e-05  -1.8332260e-04  -3.9787707e-04  -4.2098975e-05  -1.2730615e-06  -7.2567542e-05   3.6666865e-04   2.4277541e-04   2.4755680e-04   2.1652535e-03   3.7802296e-05   4.9259647e-04   3.1648724e-05   8.5507883e-05  -6.4919193e-05   2.9696824e-04  -3.6031761e-05   1.0241297e-04   1.6278397e-04  -9.4723699e-05   2.7836033e-04  -6.4302832e-05   1.9752621e-05   2.1614725e-05  -5.0374915e-06
   1.6719277e-04   3.4577555e-05   1.7473369e-05  -9.7998789e-05   1.4641904e-04  -2.8245768e-04  -9.5682735e-05  -1.1292096e-05  -3.6637607e-04  -3.3017027e-04   1.7715683e-04  -1.0997852e-04  -4.6001143e-05  -1.1567289e-06  -1.2656316e-04   3.5962690e-05   8.2336614e-05   7.2664334e-05  -1.4892363e-04   4.2648146e-05  -1.9583509e-04  -7.0498339e-05   8.8924135e-05  -1.7312188e-05   4.1899909e-04   1.4949837e-04  -1.4510116e-04  -1.7468918e-04  -6.0318079e-04  -2.0060888e-05   5.9476553e-04  -1.6358681e-04   1.7692729e-04   4.2253971e-05   9.0653123e-04   5.2387349e-04  -3.4104710e-04   5.3213709e-05   4.3173317e-05   2.3969267e-04  -7.1938142e-05  -6.0399525e-05  -9.8102348e-05  -2.8661679e-04  -9.6851225e-05  -8.6489046e-05  -9.5218791e-05  -1.4495900e-05   9.5938783e-05  -3.3728196e-05
   2.5201798e-04   1.9180436e-05   3.4438610e-05   6.0244278e-05  -2.4468849e-05   6.6342167e-05  -2.3668734e-05  -5.4298405e-05  -3.4259909e-04  -3.4986477e-04   1.3787234e-04  -1.0534086e-04  -6.7621309e-05  -1.4826528e-05  -1.9219905e-04  -4.6759949e-05  -1.9647367e-05   4.8717306e-05   4.9861090e-04  -1.0410870e-05  -2.2273247e-04  -1.8999149e-04   2.7549523e-04  -1.1050754e-04   1.6926671e-05  -7.7259429e-05  -6.3207946e-05  -1.4376499e-04   2.9990022e-04   2.9148718e-05   4.4389322e-04   4.6842749e-04  -6.8171270e-05  -2.5831108e-05   7.1469753e-04   3.5329559e-04   3.0592602e-04  -1.7353274e-04   8.8796303e-05   3.2258680e-04  -3.8534028e-05  -4.6260964e-05   2.6539767e-05   4.3948632e-04  -1.1606265e-04  -9.4863761e-04  -1.0669028e-04  -2.5099231e-05   8.2028761e-05   8.0678386e-05
   2.3763588e-04   7.6213990e-05  -1.0821578e-04  -5.7713285e-05  -7.5108917e-05   3.2712106e-04   6.4674627e-05  -1.4190069e-04  -3.3408466e-03  -3.6540887e-04   6.2126070e-05  -8.2973740e-05  -6.9679110e-05   2.0444735e-05  -5.2728312e-05  -1.2896620e-05  -1.2946391e-04  -9.3908220e-06   1.6402538e-04   2.9578960e-05  -2.1503911e-04  -1.1630447e-04   9.9313576e-05  -4.3520358e-05  -5.4748508e-04  -4.9296941e-05   2.5282401e-04  -6.4835598e-04   2.9544730e-04   1.1921309e-05  -3.8901318e-04   2.1399670e-04   5.9787033e-04  -9.2059548e-05  -1.1569144e-03  -3.7110521e-04  -3.3511731e-04   9.5051371e-05   9.3427581e-05  -7.4622221e-05   2.9051304e-04  -3.2037478e-05  -1.1447141e-04   3.3774658e-04   9.0608875e-05   8.2203757e-04  -7.6154436e-05  -2.7528904e-05   3.3760462e-05   3.3613669e-05
   2.0506751e-04   1.6100266e-05   2.0165552e-04  -6.7402252e-05   3.6718132e-04  -7.9655547e-05   3.8175785e-04  -1.8522046e-04   1.5254682e-03  -3.1762905e-04   1.1744062e-04  -8.4375788e-05   4.2046522e-05  -1.2598673e-04   5.0497765e-05  -1.7537393e-05   5.4427779e-05  -4.4513814e-05  -1.2167799e-04   1.2464540e-05  -1.9484106e-04  -1.2427555e-04   1.6589976e-04   7.3694406e-05  -4.9745955e-04  -1.0276868e-04  -4.2124055e-04  -1.7441119e-04  -2.1049338e-05   2.9427252e-05   1.4141331e-03  -3.1957697e-04   6.2340434e-05   9.2585295e-05   5.9887604e-04  -3.0980122e-04  -2.5516254e-04   2.5260166e-04   5.5260316e-05  -6.4122101e-04   3.8831052e-04  -6.1193867e-07  -7.4678142e-06  -7.8562991e-04   2.7045216e-06   1.4030552e-04  -8.7307119e-05  -6.9703906e-06   5.5260869e-05  -8.0949412e-06
   2.2705321e-04   5.3707703e-05  -2.5988822e-05  -9.1141352e-05   3.9441028e-04   1.5105860e-05   4.5552071e-05   1.0609738e-04  -9.0173574e-04  -3.3116204e-04   8.0727878e-05  -1.0384226e-04  -1.0429019e-04  -4.6147674e-05  -3.3143620e-05  -1.4600126e-04  -8.1854225e-05   1.4247786e-04   1.9945665e-03   2.3642518e-05  -2.0070531e-04  -1.4210095e-04  -3.6225756e-05   2.6022157e-05   1.2717271e-03  -3.2967488e-05   1.1304997e-04  -1.8082157e-05  -9.9757730e-05  -6.6877634e-05  -5.9441134e-04  -8.9711510e-05   4.7012789e-05  -1.2103995e-04   5.7161017e-04  -1.8004034e-04   7.7253417e-04  -1.4104965e-04   3.0146926e-05   4.3339835e-04  -1.0820210e-04  -8.9065637e-05  -1.2572179e-06  -2.2109493e-04  -1.1679075e-04  -1.6976718e-04  -7.7683886e-05   2.0700118e-05   2.1849461e-04   3.1883828e-05
  -5.3552729e-05  -9.2298188e-07  -1.9016587e-05   1.0532015e-04   3.2341995e-04  -2.8427663e-05   5.3796532e-05   3.2133612e-04  -7.4444403e-04  -3.6536474e-04   6.7662870e-05  -8.8870140e-05  -6.7274392e-05   6.4050342e-05  -4.2744305e-06   3.1217667e-05  -4.1651936e-05   1.4393307e-04  -3.1688800e-03  -2.7716484e-05  -2.2769015e-04  -1.2825651e-04  -1.6839853e-05  -1.3301464e-05   1.9581248e-04  -8.1742910e-05  -9.8487573e-05   2.1774994e-04   2.3543551e-04   1.4825052e-04  -2.2842760e-04   2.2558865e-04  -2.9536657e-04   2.4966613e-04  -1.5670112e-04  -1.1441433e-03   8.7148153e-05   1.5860239e-04   9.7994453e-05   1.1745717e-04  -6.5543616e-05  -2.9383400e-05  -8.3622206e-07   7.2225410e-04   9.6667151e-05   6.3932396e-04  -7.6498523e-05   3.1026189e-05   1.1360086e-05   3.6141719e-05
   4.1444822e-05   1.7901126e-05  -2.8626180e-05   2.1166139e-05   2.0460771e-04   1.7039591e-04  -3.0902322e-06  -6.1003400e-05   2.4154566e-03  -3.2250723e-04   1.0321064e-04  -6.6823945e-05   4.7149118e-05  -1.0925787e-04   6.2885942e-05   3.5524754e-06  -5.9649819e-06   1.0383838e-04  -1.6247204e-03   8.7823919e-06  -1.6218203e-04  -8.5554377e-05  -1.3053043e-05  -6.3447874e-06   1.1987836e-04  -1.0562573e-04   1.2900223e-04   2.6871918e-05   4.0484182e-04   1.5745438e-07  -1.2200364e-03   1.2659300e-04  -2.6362302e-04   9.4204719e-05   5.0001231e-04   5.2100734e-04   1.5336549e-04   2.2527724e-05   4.6087694e-05  -3.7887463e-04   6.3271349e-05  -3.9453702e-05   8.1028811e-05  -7.0853368e-04   1.0051916e-04   1.9211942e-04  -8.3959072e-05  -4.4464719e-05   1.4535713e-04   9.3157378e-06
   2.2605911e-04  -3.1232765e-05  -2.2558932e-04   3.5362242e-05   1.9035266e-04  -1.5807407e-05  -1.8606144e-04  -1.8059967e-04   7.0328722e-03  -3.1434270e-04   6.0013615e-05  -8.3227293e-05  -2.8960139e-05  -1.5738177e-04  -2.8100816e-04  -1.5014512e-04   8.4457621e-05   1.5870860e-04   5.9167802e-04  -1.2328683e-05  -1.6710491e-04  -1.0135120e-04   1.5343454e-04  -3.2293319e-05   4.0209128e-05  -5.8825273e-05  -8.6038563e-05   1.9531044e-04   6.0712892e-07   1.1393548e-04   8.0626243e-04   2.4595251e-04   2.3337537e-04   1.6085738e-05  -2.0671508e-03  -3.4258308e-04   5.0528609e-04   2.4671611e-04   5.0591749e-05  -2.9747924e-04  -7.7709316e-05  -4.6452198e-05   5.2350788e-05  -4.3919534e-04   1.3143140e-04  -4.5422593e-04  -9.4030635e-05   4.5148695e-06   1.2957833e-04  -4.4633966e-06
  -3.6048904e-04   2.6786940e-05   4.8799149e-05   4.8307375e-05  -4.6751851e-05  -5.1012015e-05  -1.2882819e-04   1.8607242e-04   1.5766924e-03  -3.5474490e-04   1.3712241e-04  -9.2930750e-05  -8.4502419e-05   1.9853314e-05   6.4981090e-05  -3.8963277e-05  -1.0715920e-04   9.5076146e-05  -2.9270689e-03   2.8681947e-05  -1.9492424e-04  -1.1825241e-04  -7.5720207e-05  -3.3299842e-05   1.5417272e-03  -6.7817207e-05  -9.3869261e-05  -2.0394505e-04   1.0329750e-04   7.4186908e-05  -7.1166651e-05   2.1975975e-04  -2.0928918e-04  -6.1679217e-05   1.2154898e-04   5.4774682e-05   4.6529545e-04  -3.4961729e-05   1.1824467e-04  -1.9569627e-04   2.5525628e-04  -2.0265110e-05   3.3197418e-06  -8.2449260e-04   9.8330049e-05   1.7352549e-04  -7.9134144e-05  -5.2904415e-05   1.6379074e-05  -1.1137263e-05
   3.4970153e-04   7.7049517e-05  -8.6823435e-05   3.2088588e-05  -6.1422924e-04   8.8862194e-05   9.7134085e-05  -1.4134090e-04  -7.8000058e-04  -3.0066739e-04   1.6567299e-05  -7.8347453e-05   1.0728699e-04   7.4774332e-05   8.2982060e-06   4.6491114e-06  -4.2471482e-05   8.1754552e-05   1.7842271e-03   1.0110555e-05  -1.3590313e-04  -1.0630792e-04   4.1303843e-05  -2.4402929e-05   2.9670065e-05   1.6202034e-04  -2.3554207e-05  -1.5062401e-04   7.9679507e-05   5.5659606e-05  -6.2302023e-04  -5.2112428e-05  -7.1051509e-05  -2.7287074e-06  -6.2827021e-04   1.9453575e-05   1.6644965e-04  -1.7202261e-05   2.8424431e-05   6.3972879e-04   9.5979914e-05  -2.1613710e-05  -5.6368641e-05  -5.0800016e-05  -4.9488084e-05  -8.0785753e-07  -5.0129915e-05  -9.5637597e-06   2.8284910e-04   6.4861080e-05
   2.5005938e-04   2.1629874e-05   1.2220202e-04  -3.2407475e-05  -5.8263965e-04  -3.9803315e-05  -1.6474318e-04  -1.1930234e-04  -9.3705475e-04  -3.2601663e-04   4.3805379e-05  -7.4499316e-05   1.1871378e-05  -2.7964056e-06  -2.8740134e-04   2.1734657e-05   2.5425406e-05   6.0534316e-05   1.6801547e-03   9.4516152e-05  -1.5917752e-04  -1.2637448e-04   2.6670849e-04   1.2097850e-05  -9.3725865e-04   4.7090321e-05   3.1755900e-04   1.9068013e-04   1.4322689e-04   1.1347332e-04   6.2673894e-04   1.5890184e-05   2.9247702e-04   1.2852663e-04   8.1872114e-04   2.3352291e-04   2.3698414e-04   1.1684654e-04   7.2232113e-05  -2.9291189e-04  -6.4603897e-05  -3.7234837e-05   1.4076353e-04  -9.5439586e-04   1.1528130e-04   3.4914733e-04  -7.3976298e-05  -8.2245351e-05  -1.1611262e-04   6.3557665e-05
   1.6354848e-04  -7.3044021e-06   5.6592024e-05  -3.5564986e-05  -6.6975415e-05   2.2188957e-05  -3.3069405e-04  -1.4575588e-04   2.9788970e-03  -3.2854910e-04   1.2381990e-04  -7.2266062e-05  -1.4215835e-05  -1.4817181e-04   8.2657316e-05  -4.3686578e-05   1.7856903e-05   1.1930751e-04   1.5258907e-03  -8.3069579e-05  -1.9074926e-04  -1.6236198e-04  -1.0628647e-04  -5.0393755e-05   1.2112250e-04  -1.2062078e-04   2.5388001e-05  -6.0402555e-05  -1.8620280e-04   1.2180488e-05  -7.5739512e-04  -7.0105243e-04  -3.1307124e-04  -1.9422994e-04   1.8255726e-03  -2.2440893e-04  -9.4459783e-06   2.9054336e-04   7.6701188e-05   3.6151547e-04   6.1575993e-05  -3.3353546e-05   6.0850776e-05  -4.7559070e-04  -5.9205402e-05   1.1991378e-03  -3.8756771e-05   3.6649111e-05   5.5818815e-05   2.9899320e-05
  -3.2346114e-04   1.6400019e-05  -1.9030073e-05   2.8900258e-05  -7.3684839e-04  -1.1130694e-04  -5.0750200e-04   9.0977490e-05   4.5784991e-04  -2.5931161e-04   5.0104532e-05  -7.0310343e-05   2.5903615e-05   2.4006578e-05  -1.0924537e-04  -4.0251765e-05  -1.1776214e-05  -7.0638939e-06   4.4819459e-04  -1.9167135e-05  -1.3148352e-04  -2.4385308e-05   1.1609241e-05   1.0073646e-04  -4.9894158e-04   1.4244928e-04   5.5337845e-05   1.2650975e-05  -3.3957884e-04  -1.8355035e-04   2.5694136e-04   3.7903554e-04  -4.5026449e-04   5.7917627e-05   1.7992473e-03   3.5833119e-04  -4.2108775e-04   1.1538759e-04   5.1966104e-05   1.5307705e-04  -6.0763145e-05   8.1038070e-06  -1.1154827e-04  -1.9031831e-03  -2.3506636e-06  -1.4798368e-04  -4.1741088e-05   4.7586196e-05   1.6693999e-04   2.7493481e-05
  -4.4662258e-04   1.4763970e-05   1.9894798e-04   9.2744376e-05   3.4812998e-04  -5.7646801e-04  -1.1677890e-04   1.0224459e-04  -3.5144812e-03  -2.8919661e-04   7.5026757e-05  -5.5385772e-05   5.9456481e-05  -9.4405237e-05   7.4441341e-05  -4.2092411e-06   5.1224422e-05   5.8777281e-05   3.7712182e-04   4.8131584e-05  -1.4268179e-04  -2.0381523e-05   1.7520391e-05   5.0831604e-05   1.8277393e-04  -3.3479242e-05  -3.8136215e-05  -1.8894350e-05  -1.9722911e-04  -7.7942932e-05   1.2364867e-03   2.9246829e-04   1.4070627e-04   1.5601616e-04  -7.9354882e-04  -1.2019410e-03   4.8009091e-04   1.8530445e-04   1.0562253e-04   4.3767234e-04   3.0977905e-04  -2.3815401e-05   1.1651887e-04   9.9791414e-06  -6.0239756e-05   1.1968525e-04  -6.5412030e-05   5.4724387e-05   1.6731388e-04   2.4163824e-05
   3.6296507e-04  -1.5935086e-05   1.4992525e-05  -2.5957817e-05  -5.8984593e-04  -5.2432565e-04  -2.9506569e-04  -1.2947962e-04   6.2563736e-03  -3.2095754e-04   7.5358817e-05  -6.9327150e-05   1.2981329e-05  -9.3462644e-05  -1.7945607e-05  -5.2475458e-05  -3.6463374e-05   3.4126460e-05   9.5977384e-04   4.6117268e-05  -1.7185454e-04  -1.5078926e-04  -1.1731701e-05   1.0853730e-04   3.4016877e-04   7.2626943e-05   2.0655387e-04  -3.2372904e-04   5.2175033e-05   3.9557974e-05   4.5273852e-04  -2.8315349e-04   3.5381431e-04  -7.2868272e-05   6.3346338e-04   1.1648721e-04   6.7907997e-04   4.5562316e-05   9.4606898e-05   1.1958496e-03   1.1727103e-04   4.0347863e-06  -1.4879661e-05  -1.5979019e-03   2.6748443e-05  -4.4957007e-05  -3.1343196e-05  -7.1422910e-05   6.9210386e-05   8.1767350e-05
   1.8250385e-04   3.7485257e-05   1.8784893e-04   1.4431497e-04  -8.7403151e-04  -1.5827340e-04  -6.4432279e-05  -2.0034544e-05  -1.8307429e-03  -2.6092079e-04   2.1307086e-04  -5.7910820e-05  -2.9611854e-05  -1.1528799e-04   4.0838608e-05  -1.9727080e-05   6.5591598e-07   1.9843445e-05   2.8135411e-03  -2.6291416e-05  -8.0990270e-05  -6.2583124e-05   2.5115387e-05   3.0539552e-05  -1.8770680e-04  -6.1809653e-05  -2.5352198e-04  -1.0414586e-04   1.0435372e-04  -1.9629029e-04   4.1702299e-04  -4.2418312e-04  -5.0363466e-05   2.2920698e-04   6.9374393e-04   3.6581018e-04   8.6283639e-05   3.8387261e-05   1.6292506e-05  -4.5635557e-04   3.3323326e-05  -1.0882407e-05   8.5597509e-05  -1.5535835e-03   4.0396255e-05  -1.8277051e-04  -2.0686084e-05   3.5081295e-05   8.0478858e-05   1.5166344e-05
  -2.2068566e-04   4.1936039e-07   5.3077827e-05   7.1001421e-05  -6.3975959e-04  -5.6561039e-05  -1.4250565e-04  -1.2004432e-04   1.8984757e-03  -2.6062859e-04   9.4274117e-05  -7.1164330e-05  -4.6499386e-05  -7.6119301e-05   2.9418529e-06  -5.2775042e-05  -6.3914886e-05   5.3301159e-05  -1.6568666e-03   3.1343872e-05  -1.0753089e-04  -1.3061603e-04   1.9322924e-04   4.0930052e-05   6.4547645e-04   1.0804861e-04  -2.8088500e-04  -3.1816441e-04  -3.3178448e-04  -1.4193765e-05  -1.2489750e-04   9.8762037e-05   1.6185845e-04  -1.1117693e-04   5.2308274e-05   4.4893587e-04   1.1185958e-04   3.2497323e-05   4.5806869e-06  -3.0314797e-04  -1.4044035e-05   1.1718578e-05   6.8521993e-05   1.2020216e-03  -3.4375895e-05   1.4867522e-04  -3.7814898e-05   8.6605869e-06   2.9622644e-04  -2.0003679e-05
   9.1616588e-05  -1.2074985e-05  -6.0616119e-05  -8.1110129e-06   5.4721400e-04   1.6935176e-04  -3.3038689e-04  -2.4201823e-04  -4.5526060e-03  -3.0962389e-04   5.1875086e-05  -7.3481257e-05   1.3446490e-06   6.4553627e-05  -1.2234163e-04  -4.2762967e-05  -5.0891416e-05   2.4691084e-05   1.2175087e-03  -1.1100308e-05  -1.4690812e-04  -1.3046977e-04   4.3981668e-04  -2.8871393e-05   3.9988666e-04   7.2621013e-05  -2.5694440e-05   3.5085276e-04   2.3937774e-04   7.1934403e-05   7.1395951e-04  -5.9995038e-04  -1.6844302e-04   1.0132205e-04  -2.4614343e-04  -6.3771033e-04   3.4256649e-04  -1.2942283e-04   4.7585610e-05   1.1618698e-04   1.8104284e-04  -2.6498592e-05   2.7156075e-05   6.8917710e-05  -3.4671881e-05  -1.8055577e-04  -5.1254236e-05   5.7750127e-05   8.2911734e-05  -4.2477059e-05
