   1.2694269e-03   8.3481944e-05   1.4820364e-03   8.9758605e-04   1.0286312e-03  -5.5034203e-04   8.8030339e-04   4.9264519e-04  -5.3767566e-05   1.1781610e-03   1.3775878e-03   5.4560055e-04   1.3202662e-03   6.8197516e-04   2.5259342e-05   6.0036761e-04   2.0178761e-05  -1.0843861e-03  -1.4887949e-03   2.5494560e-04  -4.5309204e-04  -1.1686588e-03   6.7850738e-04  -2.7183356e-04   5.1442353e-04   1.1638482e-04  -1.8456164e-04  -5.6005234e-04  -1.0126840e-03  -1.9249406e-04   1.3497625e-04  -1.3973097e-03  -1.0465136e-03  -1.0576227e-03  -1.0001694e-03  -8.1088679e-04   1.0313399e-04  -1.0599648e-03  -1.5423810e-05  -3.8843544e-04  -1.2605962e-03  -1.0144905e-03  -9.4597647e-04  -1.3297130e-03   8.0964377e-04  -7.5343426e-04  -1.1729404e-03  -1.1530874e-03   2.0311349e-03  -5.4828014e-04
   4.4382887e-04  -5.6095181e-05   1.1885350e-03   5.1803206e-04   8.0944726e-04  -7.2101434e-04   7.3140307e-04  -4.7715503e-06  -1.2350136e-03   8.7139406e-04   1.1145344e-03   4.2993855e-04   1.0465326e-03   5.2944041e-04  -2.4595571e-04   3.2482325e-04  -4.8164697e-04  -1.3133083e-03  -3.0940215e-03  -1.8611977e-04  -7.4224861e-04  -1.5977488e-03   1.3869580e-04  -4.2256698e-04  -6.9305487e-04  -1.8542224e-04  -1.9671641e-04  -9.7580883e-04  -1.0872403e-03  -6.0887460e-04   1.3597425e-04  -6.4452371e-04  -1.1126121e-03  -1.6300618e-03  -9.7797974e-04  -7.8248640e-04   5.5725948e-04  -1.2884252e-03  -2.8256985e-04  -7.7226106e-04  -2.0221889e-03  -1.2679433e-03  -1.2642532e-03  -1.3853260e-03   4.9267989e-04  -1.7364629e-03  -1.5005149e-03  -1.5127717e-03   1.5198624e-03  -9.6092583e-04
   7.2608824e-04  -3.3128040e-04   2.9758198e-04   2.5531830e-04   3.4176756e-04  -1.0119660e-03   5.7295529e-04  -8.0282327e-05  -2.2940764e-03   1.0908248e-03   1.0463510e-03   4.7764697e-04   8.9314516e-04   4.5627751e-04   2.4738046e-04   3.7779615e-04  -2.1347198e-04  -1.3445345e-03   7.8950945e-04   3.2121292e-04  -3.0891880e-04  -9.7447209e-04   5.0899538e-04  -1.6443187e-04  -6.6133717e-04   6.1892788e-05  -2.6436531e-04  -2.7238388e-04  -1.0645420e-03  -2.6564987e-04  -1.1873186e-03  -1.1098699e-04  -6.2496128e-04  -9.1710454e-04  -6.9594767e-04  -4.6122420e-04   4.5946380e-04  -5.9664855e-04   2.6751735e-04   5.7664456e-05  -8.0399279e-04  -7.8322267e-04  -6.6690543e-04   7.8931701e-04   1.0185593e-03  -9.2782540e-04  -1.0259327e-03  -9.4284682e-04   2.2155384e-03  -4.4850688e-04
   1.3892961e-03   2.9518720e-04   1.3678045e-03   1.3705883e-03   3.0675554e-04   1.0510346e-04   1.4727340e-03   4.9481448e-04   3.5297631e-03   1.3120509e-03   1.3640373e-03   6.6418835e-04   1.3137207e-03   8.3972071e-04   5.3727922e-06   6.6804921e-04   6.6389817e-05  -1.1545421e-03   2.2624524e-03   4.5016035e-04  -2.0414192e-04  -8.3906535e-04   6.2585960e-04  -3.7076341e-05  -1.5062622e-04   6.9397662e-05  -2.1156367e-04  -4.5710878e-04  -6.6881534e-04  -9.5012285e-05   8.8665256e-04  -8.1540743e-04  -1.8856079e-04  -9.3781314e-04  -8.5113599e-04  -7.0051188e-05   1.3284581e-05  -4.9717916e-04   7.7185978e-05   1.1816267e-04  -1.3323973e-03  -9.1126794e-04  -7.9718599e-04  -1.5634325e-03   1.0071725e-03  -7.2821276e-04  -1.1429429e-03  -1.0503745e-03   2.2229638e-03  -6.4829836e-04
   1.3013936e-03   1.2340075e-04   1.2087547e-03   9.0467377e-04   1.8529316e-04  -3.4955758e-04   1.0813932e-03   3.5533262e-04  -1.7066896e-03   1.0188106e-03   1.1926449e-03   5.7663227e-04   1.2367420e-03   6.2385754e-04  -2.5578373e-05   5.1411852e-04  -1.7711984e-04  -1.1288167e-03   5.3834394e-03   3.2654803e-05  -4.1384512e-04  -1.1167345e-03   7.1569651e-05  -3.9068551e-04  -8.0511882e-04  -1.4446260e-04  -3.8034376e-04  -4.8252664e-04  -9.9314284e-04  -4.9433601e-04  -4.8636820e-04  -1.0907353e-03  -5.5623631e-04  -1.1222402e-03  -5.2443256e-06  -1.7475666e-03   2.2265107e-04  -7.4005022e-04  -1.1730335e-04   1.0955184e-04  -1.9247810e-03  -1.1985953e-03  -1.3866742e-03  -9.0974692e-04   6.0542289e-04  -2.6172651e-03  -1.3873201e-03  -1.4210027e-03   2.0277977e-03  -9.4153464e-04
   1.0270346e-03  -2.1165897e-04   6.2102341e-04   1.2048279e-04   7.5439143e-04  -7.7080866e-04   4.4819756e-04  -3.6698728e-04  -1.8300316e-03   6.6356873e-04   7.9717621e-04   3.7092276e-04   8.6378719e-04   1.8158690e-04  -4.3746093e-04   1.7698837e-04  -5.4034498e-04  -1.6618242e-03  -1.4166944e-03  -5.1106530e-05  -3.8453791e-04  -1.0853630e-03   2.3616137e-04  -3.0855625e-04  -7.0509012e-04  -2.5787481e-04  -5.2529847e-04  -1.1916404e-04  -7.4885698e-04  -6.8640185e-04   5.3521112e-04  -3.8322585e-04  -1.7582672e-04  -1.2216604e-03   1.3039305e-03  -1.1341865e-03   2.2201188e-04  -1.1225558e-04   1.3502047e-04   4.0008503e-04  -9.4619545e-04  -8.7000255e-04  -7.3325995e-04  -9.5029367e-04   9.0877578e-04  -1.9324851e-03  -1.0398688e-03  -9.0701785e-04   2.3789043e-03  -3.6093217e-04
   1.6685205e-03   3.0101201e-04   1.1964448e-03   1.2262051e-03   2.2741756e-04  -4.0938443e-07   1.5420137e-03   6.6981657e-04   6.2733325e-03   1.1632185e-03   1.3414308e-03   6.5802137e-04   1.3726533e-03   7.3930930e-04   1.7965969e-04   5.9433433e-04   1.0318348e-04  -1.0387291e-03  -2.2736331e-03   4.3278886e-04  -4.8281679e-05  -5.6185585e-04   2.9189739e-04  -7.1046459e-05  -1.6153243e-03   1.3496245e-04  -1.4328427e-04  -5.6700967e-04  -6.6592620e-04  -1.8682248e-04  -1.1254833e-03  -9.9295343e-04   1.3323940e-04  -6.3775945e-04  -8.9161732e-04   2.7150309e-04   6.8844011e-04  -2.6692360e-04   1.2886092e-04   5.0617999e-04  -1.1379140e-03  -8.5682509e-04  -7.4108463e-04  -1.1621560e-03   1.1215314e-03  -4.6592084e-04  -1.0212889e-03  -9.9381222e-04   2.5193000e-03  -5.0567079e-04
   1.0415786e-03   1.7880910e-04   1.3860716e-03   1.0342498e-03   8.9351245e-04  -1.8854234e-04   9.6465455e-04   4.8368322e-04  -2.4329720e-03   1.0285649e-03   1.2818407e-03   6.0683262e-04   1.3433987e-03   6.6161557e-04  -1.9442911e-04   4.3625536e-04  -3.4818688e-05  -1.1141996e-03  -3.0551308e-03   1.7296623e-04  -1.9594736e-04  -7.1680808e-04   4.1791992e-04  -1.9149743e-04  -7.0361682e-04  -1.1902967e-04  -3.5053189e-04  -8.3025685e-04  -1.1602101e-03  -2.2546333e-04   1.0266840e-03  -8.2913815e-04  -2.6142754e-04  -1.0080494e-03  -8.6906657e-04  -7.8181888e-04   1.8930520e-04  -7.5992511e-04  -1.1285318e-04  -1.2720474e-04  -1.7970009e-03  -1.0982935e-03  -1.1242761e-03  -1.9202172e-03   7.6575420e-04  -6.9653697e-04  -1.2874657e-03  -1.3230684e-03   2.1514820e-03  -9.0897887e-04
   1.0305543e-03  -1.4975309e-04   6.1825989e-04   3.6179009e-04   4.9856154e-04  -1.1644306e-04   6.5770670e-04   1.0721279e-04  -2.8559363e-03   6.8475713e-04   9.1738947e-04   4.6782664e-04   9.2580769e-04   1.9411439e-04  -2.1831143e-04   1.9303098e-04  -4.3842700e-04  -1.4535347e-03  -1.2954174e-03  -2.1313614e-04  -4.3586185e-04  -1.1108610e-03   2.1166228e-05  -2.9643523e-04  -8.7214721e-04  -5.4909580e-04  -7.1503833e-04  -2.5903049e-04  -1.5403278e-03  -5.4117868e-04  -1.0336455e-03  -9.3065208e-04  -9.9453697e-05  -1.1136533e-03  -7.2168309e-04  -1.2962259e-03   5.5782242e-05  -1.0705213e-03  -2.3786637e-05   6.6158461e-04  -1.4973246e-03  -9.3696895e-04  -9.1160351e-04  -9.1988652e-04   1.1213045e-03  -6.3365478e-05  -1.0268651e-03  -1.0091270e-03   2.5213407e-03  -4.8066894e-04
   1.6276354e-03   2.8431707e-04   1.5425914e-03   1.2121976e-03   1.2692579e-03   6.2795368e-04   1.2013043e-03   3.6466209e-04   2.5580221e-04   1.1598561e-03   1.2859242e-03   6.7455543e-04   1.3409277e-03   7.2057964e-04   2.6382541e-04   5.3094584e-04   9.4272451e-05  -9.7781268e-04   2.7390057e-03   4.9039314e-04  -2.2755466e-06  -4.6273257e-04   4.6620061e-04  -6.7075935e-06   2.6895248e-04   1.2840792e-05   9.4430347e-05  -1.6386651e-04  -9.7435468e-04  -1.9488478e-04   2.0425510e-05  -6.4105709e-04   9.1530805e-05  -7.7893538e-04   7.6151284e-04  -1.1804454e-03   7.5259461e-04  -4.5241244e-04   1.4940285e-04  -4.8452578e-04  -1.1925991e-03  -9.1091264e-04  -8.4392261e-04  -1.2301885e-03   1.1816646e-03  -1.1780818e-03  -1.0125457e-03  -9.6479029e-04   2.2320857e-03  -4.4597621e-04
   8.4195239e-04   1.9745661e-04   8.2242134e-04   8.7694760e-04   8.0513500e-04  -3.4472070e-04   5.5316993e-04   5.7902292e-04   2.8015205e-04   9.3732047e-04   1.1493062e-03   5.4494396e-04   1.2581566e-03   8.5075968e-04   1.3057751e-04   5.4797519e-04   3.2325195e-05  -9.8056067e-04  -4.8319579e-04   1.6232612e-04  -1.8216185e-04  -7.8950264e-04   8.3930041e-05  -2.4158355e-04   3.5849551e-04  -1.8276446e-04  -1.5057287e-04  -4.2277141e-04  -1.3411427e-03  -2.9557690e-04  -2.6658821e-04  -7.9755671e-04   5.3120799e-05  -1.0410413e-03   2.8023048e-04  -1.0525571e-03   3.6746298e-04  -8.7024667e-04  -4.0138337e-05  -4.1765161e-05  -1.7596668e-03  -1.1290038e-03  -1.1094097e-03  -6.6655758e-04   9.4045704e-04  -8.9768006e-04  -1.2450527e-03  -1.2279362e-03   2.2516437e-03  -6.3582876e-04
   2.6316207e-04  -1.2272061e-04   1.1049536e-03   3.1737928e-04   4.4410984e-04  -6.2330347e-04   7.8806776e-04   5.7300385e-05  -2.3520854e-03   5.5450492e-04   9.1337430e-04   3.0429792e-04   9.2225865e-04   2.8304890e-04  -4.1827248e-04   1.6180746e-04  -4.6159877e-04  -1.3836275e-03  -5.5759284e-04  -6.4333486e-05  -3.2834610e-04  -1.0505882e-03   1.1228127e-05  -3.3991755e-04   8.3385204e-04  -6.3678215e-04  -3.7978298e-04  -7.9751300e-04  -1.6902513e-03  -4.7809389e-04   5.6973385e-04  -4.9416022e-04  -1.7622206e-04  -8.6337142e-04  -1.7490382e-04  -6.2544473e-06  -4.3800045e-04  -5.0071767e-04   1.3574585e-04   2.1723262e-04  -1.1048173e-03  -8.4164599e-04  -6.1830081e-04  -1.2539055e-03   1.1187574e-03  -2.1454841e-03  -8.7124796e-04  -7.3142647e-04   2.7594580e-03   7.4070456e-05
   1.0253431e-03   2.6584091e-04   1.5375358e-03   1.1398761e-03   5.1763648e-04  -3.2656961e-05   1.2954676e-03   4.7424427e-04   5.1003252e-03   1.0461814e-03   1.4891897e-03   5.3366943e-04   1.4854864e-03   8.4745855e-04   3.2466199e-04   7.8770868e-04   1.2417186e-04  -8.8397332e-04  -1.4851821e-03   4.4911611e-04  -5.8936999e-05  -6.2292820e-04   2.0491467e-04  -2.5224654e-05  -1.7723476e-04   7.1786912e-05  -1.8663169e-04  -9.6242235e-04  -7.5081567e-04  -2.7954520e-04   3.5290408e-04  -1.4825255e-05  -3.3757799e-05  -8.7164046e-04   4.2537617e-04  -6.6338299e-04   7.9744484e-04  -3.5919494e-04   2.9853082e-04   1.3511801e-04  -7.7239168e-04  -5.9562770e-04  -2.9717386e-04  -1.6856600e-03   1.0132078e-03   4.6963748e-04  -6.8979146e-04  -5.3819455e-04   2.8777255e-03   2.4318512e-04
   1.7599094e-03   1.4404145e-04   1.6221355e-03   8.2884158e-04   6.0952391e-04  -4.9406703e-04   1.2468346e-03   1.3496414e-04  -1.3098286e-03   9.4673858e-04   1.4228452e-03   4.8130582e-04   1.4336207e-03   8.6912140e-04   3.1538779e-04   7.2170346e-04  -3.3894730e-06  -1.0854700e-03  -1.7631839e-03   2.0816317e-04  -3.7687575e-04  -1.2195124e-03   3.8626249e-04  -3.5572375e-04   2.3212974e-04   8.3080768e-06  -4.9854873e-04  -4.7166593e-04  -7.7766227e-04  -1.1907451e-04  -3.7333922e-04  -4.2513775e-04  -7.7324174e-04  -1.0746792e-03   1.9995093e-03  -6.6326646e-04   7.7297473e-06  -8.7810407e-04   4.7502181e-05   1.0073049e-03  -1.2216212e-03  -7.7530369e-04  -5.3651689e-04  -1.5650162e-03   7.4864901e-04  -8.8805653e-04  -9.0917409e-04  -7.7853893e-04   2.5690407e-03  -1.6199502e-04
   1.0209032e-03  -9.4670228e-05   1.0120933e-03   2.3263888e-04   3.8381535e-04  -7.1955437e-04   8.5676945e-04   8.6393193e-05   3.7538670e-03   6.2457047e-04   1.0092384e-03   3.4435809e-04   1.1133429e-03   5.7362823e-04  -1.2666878e-04   4.2294120e-04  -2.9477110e-04  -1.3367231e-03   7.4715365e-04  -1.7353632e-04  -5.7055004e-04  -1.5617982e-03  -1.2058698e-04  -3.1708702e-04  -8.0703385e-04  -3.9262269e-04  -4.0568784e-04  -5.4861844e-04  -1.1888321e-03  -4.6063337e-04  -1.0131410e-03  -4.9402664e-04   5.9346974e-05  -8.0655364e-04   1.0636498e-04  -4.1933934e-04  -5.1719014e-04  -8.5403759e-04   1.9287888e-04   7.7190471e-04  -7.2486640e-04  -6.2089000e-04  -2.2465948e-04   6.4806052e-05   1.0206026e-03  -6.4608187e-04  -5.7505415e-04  -4.3232579e-04   2.9644091e-03   3.1441578e-04
   1.2930890e-03   3.2696535e-04   1.6017369e-03   1.2591915e-03   5.4647808e-04   1.4198023e-04   1.8237220e-03   9.2623831e-04   1.7981307e-03   1.1600824e-03   1.6700979e-03   5.7868572e-04   1.6998274e-03   1.1183305e-03   4.7392503e-04   1.0536733e-03   3.3850319e-04  -6.9797249e-04   1.2383614e-03   7.2475587e-04   3.1003179e-05  -6.3272734e-04   1.1191898e-04  -9.4094712e-06   5.3141691e-04   3.2302583e-04   3.1592299e-05  -3.6553072e-04  -9.1740978e-05  -2.2921694e-04  -6.0992657e-05   3.4131840e-04   2.9285756e-04  -6.8739615e-04   3.3696656e-04  -2.2038839e-05   1.7538278e-04  -4.9219845e-04   3.7198322e-04   9.8334707e-04  -7.3834159e-04  -9.5020063e-05   1.8572222e-04  -3.2939835e-04   1.0752201e-03  -6.5510062e-04  -3.4354092e-05  -5.2326821e-05   3.6160687e-03   5.3270336e-04
   2.2978471e-03   1.2217923e-04   1.8321080e-03   7.6701213e-04   6.9879566e-04  -2.2056319e-04   1.4364104e-03   4.5232478e-04  -9.1204065e-04   8.6349435e-04   1.6273492e-03   4.4372413e-04   1.6220734e-03   1.0624152e-03   5.3911965e-04   1.0496979e-03   3.5530806e-04  -8.1664528e-04   2.2992727e-03   3.9421118e-04  -2.5029457e-04  -9.5056999e-04   2.5909141e-04  -2.6208372e-04  -4.9286138e-04  -2.9235063e-04  -4.0482038e-05  -2.8373208e-04  -9.4429031e-04  -6.4487380e-05   2.5295885e-04  -5.3195591e-04   5.5710250e-04  -7.6223555e-04  -1.8145151e-04  -2.3507045e-04   6.6393398e-04  -7.2456943e-04   2.6338064e-04  -3.6714083e-04  -9.6835464e-04  -2.9307642e-04  -7.4942218e-05   3.0454432e-04   7.5188768e-04   3.8815822e-04  -2.6906820e-04  -3.2779062e-04   3.1428384e-03   6.4969080e-04
   1.1938198e-03  -1.1881955e-04   1.3420654e-03   2.8926230e-04  -9.1261332e-05  -7.9159456e-04   1.2037861e-03   1.3893117e-04  -2.9882456e-03   7.1663433e-04   1.1918972e-03   3.9087670e-04   1.2662864e-03   7.4245984e-04   4.8406440e-05   7.6555752e-04  -1.4961019e-04  -1.1422674e-03   1.6947284e-03  -1.0488287e-04  -5.8534078e-04  -1.3407484e-03  -3.1451811e-04  -5.1457714e-04  -1.5605874e-03  -3.3299494e-04   1.3213804e-04  -8.1524707e-04  -6.0843478e-04  -4.0180414e-04  -1.2229563e-03  -7.4027793e-04  -2.8079798e-04  -8.9520134e-04  -6.2343861e-05  -3.9830318e-04   2.7792019e-04  -9.1477326e-04   1.1980831e-04   1.0655342e-04  -8.1385608e-04  -2.0500967e-04  -2.0826288e-05   3.3461803e-04   1.0898126e-03   3.2607419e-04   7.0011381e-05   9.8258861e-06   3.3988177e-03   8.9467544e-04
   1.0779207e-03   3.6367823e-04   1.7163107e-03   1.3357928e-03   8.0200465e-04   5.2291551e-04   1.9049362e-03   6.1287940e-04   5.0031464e-04   1.3448804e-03   1.6272462e-03   7.4404688e-04   1.8089807e-03   1.4053227e-03   5.5804034e-04   1.3776100e-03   5.1637599e-04  -5.8783620e-04   2.7982793e-03   9.9863380e-04   8.0734681e-05  -1.9941904e-04   3.1360969e-04   2.2910786e-04   4.9728906e-04   4.0188045e-04   2.8413217e-04  -3.0437316e-04  -8.4182197e-05   2.5837630e-04  -7.2075479e-04   5.0574017e-05   4.1398147e-04  -1.7446221e-04   2.8398915e-04   3.1477591e-04   9.7707671e-04   1.2889169e-05   5.9385254e-04   1.1657444e-03  -1.4720568e-04   7.8408775e-05   2.1249127e-04   1.6760911e-04   1.2553799e-03   1.4855517e-03   1.3513338e-04   2.4177381e-04   3.6435947e-03   9.7829953e-04
   1.4006031e-03   4.5434941e-04   2.1246823e-03   1.3671566e-03   1.2494883e-03   2.1852813e-04   1.8263205e-03   7.3133362e-04   1.8548019e-03   1.2837477e-03   1.5318083e-03   7.6793827e-04   1.8379197e-03   1.5552257e-03   4.9610017e-04   1.3748634e-03   4.5208528e-04  -6.1013334e-04   2.6511091e-03   5.5917125e-04  -1.3076300e-04  -6.1323063e-04  -5.3317122e-05  -5.3669679e-05   6.3374627e-04   4.8117570e-05   5.1423861e-04  -3.0349821e-04  -1.8704026e-04  -1.2825626e-04  -1.5303723e-03   6.1486050e-04   2.4391862e-04  -4.5039566e-04  -9.9213514e-04  -2.8253667e-04   1.1445415e-03  -2.3553132e-04   4.6647989e-04   3.9270271e-05  -1.6522083e-04  -7.6190576e-05  -3.1536078e-05  -1.1579144e-03   1.0483997e-03   7.7174581e-04  -7.4938376e-05   3.6113714e-05   2.9074897e-03   6.8152481e-04
   1.5824597e-03   1.8672750e-04   1.7742428e-03   8.8906829e-04   5.1371224e-04  -1.2682332e-04   1.4410822e-03   9.2624669e-04  -1.8264398e-04   1.0104119e-03   1.4316459e-03   5.9675809e-04   1.6208879e-03   1.2122832e-03   3.0025613e-04   1.1004810e-03   1.7968329e-04  -8.9592201e-04   8.6617970e-04   8.0607366e-05  -5.2219309e-04  -1.1241050e-03  -2.9432913e-04  -1.7258368e-04  -1.5588690e-03  -1.8391728e-04  -6.3507527e-05   1.8843608e-04  -5.2645348e-04  -2.0457148e-04  -3.8144208e-04   6.0033767e-06  -5.4796657e-04  -8.7355752e-04  -6.7245512e-04  -8.8549923e-04  -5.3610838e-05  -4.9004087e-04   2.2532951e-04  -3.6308917e-05  -1.0302507e-03  -3.3302873e-04  -4.9326953e-04  -1.0288301e-03   7.4237259e-04   3.4590697e-04  -1.8253736e-04  -1.6103004e-04   2.8421765e-03   4.7057398e-04
   1.4786727e-03   2.0297169e-04   1.6099260e-03   1.0795272e-03   4.8172090e-04  -8.1346785e-05   1.4027803e-03   6.6952943e-04   3.4799585e-05   1.3697972e-03   1.6091203e-03   7.0183200e-04   1.7205327e-03   1.3224126e-03   9.1693935e-04   1.3366336e-03   4.4024846e-04  -5.5902475e-04  -8.0903678e-04   9.4150944e-04   1.7593935e-05  -4.9606618e-04   6.4404577e-04   2.0078095e-04  -5.8036216e-04   1.5537576e-04   4.2049307e-04   2.8260404e-04  -6.7052204e-04   1.1177743e-04   1.2272506e-04  -7.6790119e-04   1.4709789e-04  -3.1873057e-04   4.9368327e-04  -2.6868578e-04   9.5729338e-04  -9.2252034e-05   6.2526437e-04   3.1964129e-05   2.7239305e-04   3.8905110e-04   5.2780774e-04   6.5454905e-04   1.1703586e-03  -4.5662149e-04   5.7365483e-04   4.3757496e-04   3.9977543e-03   1.0432128e-03
   2.1608272e-03   1.5808280e-04   2.0941359e-03   9.9919899e-04   6.7886338e-04   5.0435141e-05   2.0172268e-03   5.1560998e-04  -1.8787216e-03   1.1330385e-03   1.8158921e-03   5.8253505e-04   1.8726019e-03   1.4664396e-03   3.4089320e-04   1.3672293e-03   5.1177107e-04  -7.1948802e-04   1.9531230e-03   8.1428187e-04  -2.0968240e-04  -7.9809531e-04  -8.3848121e-05  -2.0656254e-05  -2.1011791e-04   4.2336262e-05   3.2763099e-05  -4.1260346e-04  -8.3611225e-04   1.8804573e-04  -1.3799650e-03  -4.7652630e-04  -1.5284316e-04  -4.6472892e-04   5.2941119e-04   7.3699345e-04   1.2837792e-03  -3.0136469e-04   4.6545753e-04   1.5385646e-03   4.8267859e-05   2.6858767e-04   3.6988669e-04  -1.0228377e-03   1.0179207e-03  -7.3771607e-06   2.7973193e-04   2.2360845e-04   3.3810039e-03   9.4035594e-04
   1.0567962e-03   8.3846477e-05   1.7355456e-03   6.3677062e-04   3.0091833e-04  -2.3318203e-04   1.3892138e-03   4.5302155e-04   4.8960494e-03   1.0270112e-03   1.5490502e-03   5.2903697e-04   1.4734594e-03   1.0892835e-03   6.2953157e-04   1.2419663e-03   1.6698622e-04  -1.0245487e-03  -2.0058006e-03   3.6048901e-04  -4.8765002e-04  -1.1658255e-03  -5.0839060e-04  -2.0156709e-04  -1.9102567e-04  -1.6378348e-04  -7.5949676e-05  -4.3844859e-04  -4.7884157e-04  -3.0143565e-04  -1.7750686e-03  -2.0313446e-04   4.4034481e-05  -8.5185230e-04   1.0260778e-03   8.2147664e-05   5.2240648e-04  -6.1746780e-04   2.4891694e-04   3.5719850e-04  -6.0857506e-04  -1.1133146e-04  -4.7091627e-05  -6.3880783e-04   8.3248067e-04  -5.6449324e-04  -1.2634585e-04  -2.0947620e-05   2.9874893e-03   6.2647654e-04
   1.0640273e-03  -3.6171576e-04   1.4558589e-03   2.9469655e-05   4.5131129e-04  -6.6536904e-04   1.2070921e-03  -2.5097543e-05  -4.6249962e-04   8.7959017e-04   1.2765639e-03   3.8909074e-04   1.3376029e-03   8.4616442e-04  -5.1892330e-05   9.3878253e-04   2.1220214e-06  -1.0991544e-03  -3.4320648e-03   6.2503648e-04  -3.2248450e-04  -9.3497027e-04  -1.9199343e-04  -4.4501972e-05  -4.9805897e-04  -1.2698281e-04   3.3677829e-04  -2.5438200e-04  -5.4624624e-04  -1.3224082e-04  -2.0746260e-04   1.5751019e-04   7.4741209e-04  -6.6477049e-05   1.6492511e-03   5.6743372e-04   5.2403152e-04  -2.5901123e-04   6.0480251e-04   9.2202087e-04   2.2685234e-04   3.8514697e-04   5.0516863e-04   9.2638534e-04   1.1427044e-03   8.8631030e-04   3.1182746e-04   4.2106147e-04   3.4357349e-03   1.0567836e-03
   1.6068937e-03   1.5498318e-04   2.1974051e-03   9.2572777e-04   9.6906914e-04   3.0017912e-04   2.0457865e-03   4.6743907e-04   2.2812576e-03   1.2895038e-03   1.7261200e-03   6.3536403e-04   1.7232263e-03   1.3205780e-03   4.7442963e-04   1.2470066e-03   4.3249447e-04  -7.5113546e-04   1.2491005e-03   7.4452843e-04  -2.2281607e-04  -7.7199360e-04  -3.5648808e-04  -8.8235156e-06  -6.2898803e-04  -1.1916833e-04   2.6222356e-04  -1.4924294e-04  -5.6147086e-04  -8.0414589e-05  -1.4539511e-03  -3.8447217e-04   6.6629332e-04  -5.6926277e-04  -9.1776159e-04  -6.4064562e-04   4.5164456e-04  -1.0371305e-04   5.3906511e-04   7.2033779e-04   2.8575823e-04   2.0193284e-04   2.6785751e-04   5.5862876e-04   9.6296519e-04   4.4002137e-04   1.6271084e-04   2.5506923e-04   3.5117085e-03   8.9547690e-04
   7.8313233e-04   5.5986698e-06   1.6426820e-03   6.1572145e-04   3.4088810e-04  -2.8505057e-04   9.3789044e-04   5.5912341e-04   4.6460962e-04   9.0921298e-04   1.3567539e-03   4.7801927e-04   1.5161964e-03   1.0067688e-03   2.9315730e-04   1.1445595e-03   2.1275217e-04  -9.9645345e-04  -3.3704350e-03   3.9757477e-04  -3.4229559e-04  -7.8682211e-04  -5.4270733e-04  -3.5441032e-04  -4.0413038e-04  -5.0192192e-04  -9.0552958e-06  -4.3246505e-04  -5.8622385e-04  -3.3422423e-04  -2.6253005e-04   4.0594678e-05  -3.1625932e-05  -5.9533364e-04   7.9051708e-04   4.0507168e-04   7.4661628e-04  -6.5507146e-04   2.9423489e-04   3.6794264e-04  -6.7087280e-04  -3.1263323e-04  -4.1800394e-04  -1.5830670e-03   7.2819757e-04  -1.1138193e-03  -1.3411760e-04  -9.3428986e-05   3.1845691e-03   7.8184536e-04
   1.1800968e-03  -4.2115740e-04   1.2519130e-03   1.0281849e-04   2.3451453e-04  -3.3965558e-04   1.0846204e-03   3.1854218e-04  -2.3020343e-03   4.9288193e-04   7.9245528e-04   2.3244460e-04   1.0763502e-03   7.1215531e-04   3.0950151e-04   6.6153053e-04  -3.8492522e-04  -1.2740307e-03   2.8058318e-03  -3.3313915e-04  -5.2704016e-04  -1.0642176e-03  -8.8057498e-04  -6.3247484e-04  -1.3357386e-03  -7.4980763e-04   2.7759412e-05  -9.9169069e-05  -6.6672347e-04  -3.8655131e-04  -1.8899878e-03  -4.7043539e-04   3.1034159e-04  -7.9581689e-04  -3.8384067e-04  -9.9952762e-05  -1.4667251e-04  -7.6023821e-04   3.1276190e-04  -5.1536463e-04  -6.4948516e-04  -1.4196514e-04  -1.1012876e-04  -1.7715321e-04   8.8200212e-04   1.2473332e-03  -1.1489781e-05   1.9761237e-04   3.3811070e-03   1.2231288e-03
   9.4724214e-04  -6.6691566e-05   1.8342526e-03   5.8476481e-04   1.3455513e-03  -1.8287699e-04   1.2810112e-03   4.9158372e-04  -1.9106766e-03   9.4774197e-04   1.3849156e-03   3.9958404e-04   1.5903817e-03   1.0006976e-03   4.2042980e-04   1.1338925e-03   1.6930472e-04  -8.5146783e-04  -1.2554982e-03   4.9539760e-04  -7.2325471e-05  -4.7817803e-04  -6.1368977e-04  -2.0362668e-04  -4.5115573e-04  -2.9786187e-04   2.3737627e-04  -1.8099722e-04  -7.7480573e-04   2.4646495e-05  -4.0924692e-04  -4.3678420e-04   2.5341843e-04  -6.9008960e-04  -1.4383589e-03   3.3686732e-04   1.1368754e-03  -6.0521503e-04   3.9194955e-04  -1.0399883e-04  -2.7280970e-04  -5.6928407e-06  -1.5037824e-05   6.9809309e-04   8.3925272e-04  -9.1405341e-04   7.4608492e-05   1.8356815e-04   3.4535120e-03   1.0708069e-03
   1.5224146e-03  -1.3688234e-04   1.6178602e-03   4.7958113e-04   3.5372254e-04  -1.6626032e-04   1.3483611e-03   4.1833552e-04   6.0989703e-03   9.1102085e-04   1.1621588e-03   3.8165637e-04   1.2094994e-03   9.9464285e-04   1.7412283e-04   1.0238239e-03   1.1694482e-04  -1.1156611e-03  -4.3886150e-03   3.0522689e-04  -3.4938860e-04  -8.8169274e-04  -1.0470835e-03  -2.8178902e-04  -5.7656952e-04  -4.3650536e-04  -5.6646473e-04  -5.2739540e-04  -7.0571050e-04  -1.8645321e-04  -2.5553429e-03  -2.5064277e-04   7.0766482e-06  -7.7631953e-04  -9.5199933e-04  -7.7008524e-05   1.4777147e-04  -1.1074755e-03   1.7597743e-04   6.8529759e-04  -5.2771613e-04  -2.1264302e-04  -3.1056112e-04  -1.2320572e-03   6.3008512e-04   1.1653027e-03  -1.2221506e-04   1.1617822e-05   2.8120996e-03   6.7889423e-04
   7.2942540e-04  -5.9478823e-04   1.2300079e-03  -3.2469860e-04   6.4671016e-04  -1.3682808e-03   1.0093622e-03  -1.2708231e-04   1.9470701e-03   4.6849909e-04   8.1344100e-04   1.0909984e-04   1.0399185e-03   4.4222368e-04  -3.1260110e-04   5.4785266e-04  -4.2312569e-04  -1.5407222e-03   8.1230770e-04  -1.7392801e-04  -7.8706961e-04  -1.3891855e-03  -8.8458159e-04  -6.6174689e-04  -9.8018674e-04  -6.0981134e-04  -1.5296822e-04  -6.4137625e-04  -8.2680624e-04  -5.7901064e-04  -4.2380043e-04  -1.9312911e-03  -3.7108557e-04  -1.2375267e-03   6.0725724e-04  -7.7927031e-04  -1.5282312e-04  -1.2419273e-03   3.1191121e-05  -4.1662369e-04  -6.1391538e-04  -1.1021722e-04  -2.6162522e-04  -1.4850236e-03   7.0461130e-04  -2.2890030e-04   3.6361977e-05   7.5728938e-05   3.4099724e-03   7.7965419e-04
   1.3744200e-03  -1.1371305e-04   1.5830864e-03   6.7310000e-04   1.2049711e-03  -5.8645703e-04   1.1664823e-03   2.5989328e-04  -8.0942246e-04   1.2590195e-03   1.2517249e-03   5.5128010e-04   1.4475596e-03   8.7730266e-04  -1.1262526e-04   9.1805845e-04   1.1804130e-04  -1.1073188e-03   3.1236799e-03   6.4569031e-04  -1.9813122e-04  -6.6417566e-04  -3.5551423e-04  -2.2320218e-04  -8.8601199e-04  -5.9549799e-05   5.9383630e-05  -6.4527919e-04  -7.6658715e-04  -2.0558413e-04  -5.4526783e-04  -2.7338788e-04  -4.6589717e-04  -4.3107482e-04  -1.7866645e-03   2.6006272e-04   8.6343818e-04  -7.4511504e-04   3.4127722e-04   1.1234867e-04  -3.5338922e-04   9.5040632e-06   1.4122301e-05   4.1903876e-04   7.4796192e-04  -8.6567650e-04   5.7217978e-05   1.9427876e-04   3.3230821e-03   8.8422105e-04
   8.8912132e-04  -2.2708660e-04   1.1225851e-03   2.5807499e-04   3.3007064e-04  -7.1144907e-04   9.3585788e-04   4.6507141e-04  -7.0251164e-04   1.0073760e-03   1.2444416e-03   4.6117452e-04   1.2661131e-03   8.2120404e-04   6.7836889e-05   8.6454308e-04  -1.6222047e-04  -1.2636164e-03   4.3028053e-03   2.2374003e-04  -4.1461663e-04  -9.2690490e-04  -7.6898449e-04  -2.6235124e-04  -2.3991624e-03  -2.1561875e-04  -1.7358013e-04  -6.2926760e-04  -7.4664748e-04  -3.9631326e-04  -1.1708175e-03  -6.4648071e-04  -3.6766860e-04  -9.5763319e-04  -1.6639162e-03  -1.2538912e-04  -3.5529005e-04  -1.3018047e-03   1.0660930e-04   1.0173925e-03  -8.4950880e-04  -1.4332692e-04  -4.4943384e-04  -1.5845064e-03   5.1213254e-04   7.7157136e-04  -3.3149299e-05  -6.4323722e-05   3.3480055e-03   5.5572967e-04
   1.1101793e-03  -6.1614707e-04   8.2851871e-04  -2.5798645e-04   4.5612862e-04  -1.5547882e-03   6.6624809e-04  -2.6328248e-04  -2.0363336e-04   5.5024988e-04   9.6178876e-04   2.3944274e-04   1.0300515e-03   3.0751503e-04  -2.5600716e-04   3.3570995e-04  -5.4198341e-04  -1.6755556e-03   9.3813444e-04  -4.2047698e-04  -7.5719791e-04  -1.4089743e-03  -9.8644698e-04  -5.2882329e-04  -1.9279632e-03  -6.7929603e-04  -5.1754003e-04  -6.9166248e-04  -1.1954015e-03  -6.9260295e-04  -1.3125717e-03  -1.0214028e-03  -8.7130634e-04  -1.1367196e-03  -1.0235439e-03  -1.0106605e-03  -1.3820350e-04  -1.5496262e-03  -4.9433962e-05  -1.1771102e-03  -7.6623179e-04  -2.2427479e-04  -2.5431215e-04  -1.2502145e-03   6.0744683e-04  -1.7150722e-03   1.9513404e-04   1.0716416e-04   3.5644246e-03   8.5456989e-04
   1.1372378e-03  -2.6861572e-04   1.1377776e-03   4.0635039e-04   1.0263780e-04  -1.0572057e-03   1.0551671e-03   5.7004328e-04   1.3733527e-03   1.1955382e-03   1.2193084e-03   6.0855999e-04   1.1689800e-03   7.1948784e-04   6.2766881e-06   8.5660000e-04  -2.0882058e-04  -1.3290058e-03   7.2493707e-04   4.6632410e-04  -1.7406556e-04  -5.0867937e-04  -5.2123464e-04  -1.2470507e-04  -1.0991517e-03  -2.1321405e-04  -1.8768696e-05  -6.2782422e-04  -1.0583122e-03  -3.4683224e-04  -1.4056425e-04  -2.4575164e-04   7.3874930e-06  -8.8302075e-04   5.6743226e-04   6.8292039e-04  -2.3311589e-04  -1.1245594e-03   2.4453670e-04  -4.2052547e-04  -5.8058463e-04   1.2350942e-05  -1.4045580e-04  -4.8132506e-04   6.9705927e-04  -1.3503875e-03   3.0994948e-04   1.5878637e-04   3.4949090e-03   6.3233782e-04
   8.7028713e-04  -2.4329450e-04   9.7957812e-04   3.4048321e-04  -5.5340428e-05  -3.1367323e-04   8.4275374e-04   3.2080970e-05   4.6582883e-03   1.0874610e-03   1.1905631e-03   6.2476419e-04   1.1038590e-03   6.6330994e-04  -1.9720549e-04   6.0667814e-04  -1.2781945e-04  -1.4662421e-03   1.1358599e-03   1.1944724e-04  -3.0516685e-04  -7.9594296e-04  -3.5884164e-04  -9.5010444e-05  -5.0595443e-04  -4.4111835e-04   4.3341708e-05  -6.9261092e-04  -9.5927011e-04  -4.3687414e-04  -6.6921761e-04  -7.9748122e-04  -2.3245455e-04  -1.1298376e-03  -1.2605882e-03  -5.8560929e-04  -7.0471797e-05  -1.0230623e-03   1.6133198e-04  -6.9854298e-04  -9.4842870e-04  -1.7985099e-04  -2.7284256e-04  -4.0945456e-06   5.5066933e-04  -1.0887628e-03   2.2268874e-04  -5.9708265e-05   3.1795446e-03   2.5020217e-04
   6.7591650e-04  -5.0441350e-04   7.0863962e-04  -2.7678511e-04   5.2273565e-04  -1.1811684e-03   8.2490908e-04  -2.4401749e-04   4.8635522e-04   7.6620467e-04   8.5198280e-04   5.1750056e-04   9.1046776e-04   2.3419452e-04  -2.7207463e-04   3.1881378e-04  -7.2908559e-04  -1.6594591e-03   8.7566068e-04  -5.9374043e-04  -7.0647948e-04  -1.4190470e-03  -9.2640624e-04  -4.2872730e-04  -1.6652391e-03  -7.6674041e-04  -4.3060942e-04  -7.5562694e-04  -1.0036578e-03  -5.8599451e-04  -1.5919359e-03  -1.3110432e-03  -7.8677450e-04  -1.2299200e-03  -6.9266470e-04  -1.3281823e-03   7.0953130e-05  -9.0147118e-04  -2.4339843e-05   3.7720229e-04  -4.3344719e-04   1.7586241e-04  -2.5459068e-04   6.6179712e-04   5.2752264e-04  -1.3899411e-03   6.2417216e-04   3.6653859e-04   3.4583211e-03   1.0974796e-03
   5.2901241e-04  -3.4774933e-04   1.0513251e-03   4.7967010e-06  -2.8408531e-04  -1.8168372e-04   6.7462213e-04  -1.4020808e-04   1.2815793e-03   1.1629958e-03   1.2610171e-03   6.6879508e-04   1.2791648e-03   7.7324297e-04   1.6668699e-04   6.7125418e-04  -3.5517491e-04  -1.3029280e-03   2.0551530e-03   1.2194091e-04  -2.3151259e-04  -9.8316302e-04  -4.0418477e-04  -1.8656913e-04   5.9781154e-04  -2.6080501e-04  -2.2930351e-05  -6.2277139e-04  -5.8438076e-04  -3.0691264e-04  -1.1679298e-03  -9.0621359e-04   1.6409633e-04  -9.8192680e-04  -1.6635376e-03  -7.1761140e-04  -6.9810172e-05  -8.2472345e-04   2.0188632e-04  -1.4471883e-04  -8.1979507e-04  -9.7185235e-05  -1.0203943e-04  -1.5080484e-03   6.3605834e-04  -1.5701011e-03   5.3596549e-04   5.0540233e-04   3.3770429e-03   1.1244274e-03
   8.5671700e-04  -3.1773726e-04   6.2281487e-04  -1.4936241e-04  -4.5238531e-04  -3.7607815e-04   1.0537688e-03  -4.5737423e-04  -9.5672946e-04   1.0311498e-03   9.6836704e-04   5.3625676e-04   1.0835144e-03   4.8923388e-04  -1.0580214e-04   4.8947625e-04  -4.4418711e-04  -1.3984727e-03  -3.5147963e-03  -2.3839294e-04  -2.9592315e-04  -1.2125744e-03  -6.2843494e-04  -1.4074093e-04  -2.5643196e-04  -6.3508068e-04  -3.8478390e-04  -4.2321216e-04  -7.8470301e-04  -4.3402248e-04   6.1714737e-04  -9.7752945e-04  -2.0656305e-04  -9.7301550e-04   8.9183165e-04  -9.8976807e-04   3.3606408e-04  -8.5829367e-04   1.3383979e-04   1.6221353e-04  -1.1352433e-03  -5.1216676e-04  -5.1095698e-04  -3.5131024e-04   4.8277670e-04  -1.5870035e-04   2.5925631e-04   1.2575134e-04   2.8925820e-03   4.4685105e-04
   4.2043603e-04  -6.2626385e-04   3.9715524e-04  -6.3060905e-04   3.7707214e-04  -1.0813591e-03   2.9212862e-04  -2.8571833e-04   2.0827852e-04   4.4569699e-04   5.9230858e-04  -3.4685154e-04   9.0836658e-04   2.2440657e-04  -4.6556280e-04   2.5287797e-04  -7.5918669e-04  -1.6971456e-03  -4.2638662e-03  -5.7541544e-04  -2.3974832e-04  -1.6850189e-03  -6.5555057e-04  -1.8861984e-04  -6.8796147e-04  -1.0067344e-03  -4.6168678e-04  -2.1212101e-04  -7.7391922e-04  -7.1243662e-04  -1.9441005e-03  -1.7459858e-04  -3.2311512e-04  -1.2673424e-03  -2.2698764e-03  -6.1605324e-04   4.2965045e-04  -6.1339006e-04   1.1606199e-04  -1.5689712e-04  -1.1339925e-03  -6.6907238e-04  -1.6563792e-04   1.4026506e-03   7.2960247e-04  -5.3756224e-04  -3.4340588e-05   4.5171945e-04   3.1810736e-03   6.3144718e-04
   6.1123306e-04  -1.1009112e-04   8.2290842e-04   5.0609966e-04   7.5303018e-04  -3.3789259e-04   8.8729576e-04   2.7087674e-04   1.3914971e-03   2.5789390e-04   1.2391475e-03  -1.1547175e-03   1.1122968e-03   6.4451207e-04  -1.0712072e-04   6.2350807e-04  -2.7842983e-04  -1.3024026e-03   6.3142536e-04   2.7426920e-04   3.3998956e-05  -1.7705514e-03  -5.9137121e-05  -1.0885227e-03   6.9984765e-04  -1.0285025e-03  -1.7133068e-04  -6.9538510e-04  -4.3523632e-04  -2.7646389e-04  -1.8640469e-03  -6.2499923e-04  -3.8411518e-04  -9.7391946e-04  -4.6638111e-04   1.3580785e-05   1.3547098e-04  -1.0200965e-03   2.5272425e-04  -5.3086227e-05  -1.7076423e-03  -1.1287030e-03  -3.3006762e-04  -4.9987418e-04   6.8185828e-04   1.0472966e-04  -5.2789331e-04   4.0929590e-04   3.2759090e-03   2.4443833e-04
   7.4898958e-04  -1.1248406e-04   6.0704100e-04   3.5566097e-04  -7.1306538e-05  -5.1660958e-04   7.2881876e-04  -1.3110545e-04   2.5475442e-03  -1.0662995e-03   1.3598795e-03  -1.9679044e-03   1.2928607e-03   6.0100271e-04  -2.7647632e-04   5.1490823e-04  -3.7656151e-04  -1.2371034e-03  -1.8561623e-03   6.8891578e-04  -5.3556956e-04  -2.9530684e-03   1.6544915e-04  -2.6981088e-03   1.6902361e-04  -1.4472470e-03  -2.8264278e-04  -9.4524239e-06  -8.4633444e-04  -3.9115752e-04  -2.3351484e-03  -1.4594902e-03  -3.8999910e-04  -1.2393477e-03  -1.5001332e-05  -3.8305824e-04   2.5433998e-04  -9.5099211e-04   1.2030002e-05   2.6460298e-04  -2.1895994e-03  -1.9736318e-03  -7.2344497e-04  -9.6889917e-04   5.6681369e-04  -1.9044611e-03  -1.3106430e-03  -7.2300318e-06   3.1557244e-03  -1.2106298e-04
   1.5282023e-04  -2.6580974e-04   6.9205242e-04   1.1188054e-04   5.2126168e-05  -4.1309660e-04   9.8662451e-04  -3.0433535e-04  -1.8644765e-03  -8.9229125e-04   1.3701366e-03  -2.3326098e-03   1.3032431e-03   8.1570877e-04   2.9718108e-04   6.6199596e-04  -1.0767681e-04  -1.1640285e-03   3.3749591e-03   1.2388792e-03  -7.4736169e-04  -2.8933904e-03   5.8366952e-04  -2.8268923e-03   9.0239769e-07  -1.4283683e-03   2.9772364e-05  -5.2673335e-04  -3.7350188e-04  -1.6457849e-04   9.1680203e-04  -1.4671183e-04   1.7883339e-04  -1.0338221e-03   1.0483314e-04   8.7637937e-04  -4.5354460e-05  -8.3574344e-04   3.8829778e-04   6.5565581e-04  -1.7221504e-03  -1.5807800e-03  -1.8645533e-04  -8.4539608e-04   9.2048780e-04  -1.1254770e-03  -8.7335566e-04   3.3384224e-04   3.3554975e-03   2.5109395e-05
   6.6232064e-04   2.3877321e-04   1.1765487e-03   6.7518780e-04   9.3717623e-05  -2.3757944e-04   1.2249521e-03   2.6275817e-04   3.5746468e-03  -2.7045124e-04   1.6883465e-03  -2.3229606e-03   1.7349906e-03   1.0107225e-03   2.2413256e-04   8.2325569e-04  -7.3313009e-07  -1.1030328e-03   2.6422138e-03   1.0162245e-03  -5.2120211e-04  -2.2395325e-03   3.8183253e-04  -2.4959999e-03  -6.6005210e-05  -1.0849914e-03   3.1464308e-04   1.4380511e-04  -3.5016154e-04   6.4310741e-05  -1.9501324e-03  -3.6970424e-04   3.3812423e-04  -1.2367904e-03  -1.1999739e-03   6.6969200e-04   7.8455731e-04  -7.0962089e-04   2.8924239e-04   2.2155931e-04  -1.6801194e-03  -1.2754018e-03  -3.3478389e-04   9.0314436e-04   8.5007818e-04  -8.8844716e-04  -9.1369817e-04   1.8277192e-04   3.0194144e-03  -3.6380833e-04
   1.0392065e-03   3.2232181e-04   7.2905060e-04   9.3479676e-04  -3.2427724e-05  -1.7407603e-04   8.2273618e-04  -5.6077861e-05  -2.3817034e-03   3.5499310e-04   1.3766232e-03  -1.7723361e-03   1.4073243e-03   7.1132137e-04  -1.0149731e-04   8.0591958e-04  -2.4488644e-04  -1.0958255e-03   1.5090004e-03   2.4512204e-04  -6.1278034e-04  -1.2654694e-03  -3.3471249e-05  -1.2856892e-03  -4.0984299e-04  -1.0521683e-03  -5.2104173e-05   3.2611380e-04  -9.1589027e-04  -3.0569252e-04  -8.1255223e-04   2.1185166e-04  -4.3152124e-04  -1.3039385e-03  -3.4722479e-04   1.8318817e-04   4.1715326e-04  -5.9094583e-04   3.4256768e-04  -2.7590734e-04  -6.8892870e-04  -7.2276464e-04  -2.3459205e-04  -1.2223286e-04   1.0492834e-03  -1.0989885e-03  -5.6465843e-04   4.1238053e-04   3.5534562e-03  -1.6817116e-04
   1.6200786e-03   6.8848557e-04   1.6050020e-03   1.5369430e-03   4.3185442e-04   8.1661499e-05   1.6625901e-03   5.3946883e-04   7.2293570e-03   1.4401244e-03   1.7373316e-03  -9.4686559e-04   1.9887753e-03   1.3440409e-03   3.3859554e-04   1.1369537e-03   3.4211113e-04  -8.1709202e-04   1.1014487e-03   9.1837143e-04  -2.3684604e-05  -5.7900845e-05   6.8121956e-04  -5.6426495e-04   2.4102740e-03  -2.5609115e-04   5.7304499e-04   3.9370015e-04  -2.3666666e-04   1.3128483e-04   1.5653089e-04  -2.1446116e-04   5.9504982e-04  -6.0617388e-04  -7.6194521e-04   5.0732378e-05   6.0685421e-04  -2.2825101e-04   4.5568094e-04   1.5219674e-04  -4.5112762e-04  -4.3568539e-04  -1.3843528e-04  -7.9942500e-04   1.1135462e-03   8.6877117e-05  -4.3398459e-04   6.5228366e-04   3.6978780e-03  -2.2799330e-04
   1.2769869e-03   8.1478222e-04   2.0211285e-03   1.5457708e-03   7.9571200e-04   6.0126022e-05   1.1807131e-03   5.5772264e-04   4.6816207e-03   1.6881789e-03   1.7755873e-03  -2.4333420e-04   1.8596720e-03   1.2921641e-03   4.5136194e-04   1.2654576e-03   4.6255297e-04  -7.6086767e-04   2.2514669e-04   8.2704565e-04  -8.8072549e-05  -1.0008612e-04   7.5015979e-04  -1.7462525e-04   5.9158291e-04  -7.3006107e-05   3.5553778e-04   7.5509161e-04  -5.2129140e-04   1.3890475e-04   1.7297921e-04  -3.5218504e-04   4.2503770e-04  -2.8222465e-04   1.5615975e-03   4.3971514e-04   6.3309987e-04  -1.6246682e-04   4.4195444e-04   1.0571883e-03  -1.9317263e-04  -4.8920605e-04  -3.9729322e-04  -1.0630500e-03   1.0859964e-03  -1.2988205e-03  -5.3004880e-04   4.0928711e-04   3.4940958e-03  -2.9147690e-04
   1.2368838e-03   5.9771771e-04   1.5237022e-03   1.1541609e-03   5.0614000e-04  -3.8394346e-04   1.6769024e-03   3.8249118e-04   1.8652031e-03   1.9810677e-03   1.5333063e-03   3.3250285e-04   1.9738835e-03   1.2179834e-03   2.3908273e-04   1.2499293e-03   4.6230212e-04  -6.5995910e-04   6.6059148e-03   1.1789444e-03   1.8467187e-04   6.8378641e-04   7.4179139e-04   2.3981617e-04  -1.6340717e-04   4.1257686e-04   1.8256280e-04  -3.8559677e-04  -3.1305204e-05   3.6063726e-04   4.0726332e-04   6.6017359e-04   1.0934261e-03  -1.2114979e-04   1.9057764e-04   3.7171014e-04   2.0542999e-03  -1.0289385e-04   7.8419765e-04   1.0395434e-03   1.7078974e-05  -1.0960063e-05   1.5643476e-04  -8.1565685e-04   1.3677831e-03  -6.1087997e-04  -9.8742858e-05   8.5959618e-04   4.2444612e-03   2.2694269e-04
   2.0286380e-03   1.1877476e-03   2.1752233e-03   1.9404119e-03   1.0650954e-03   1.9625174e-04   1.7895782e-03   5.2927720e-04   3.8097061e-03   2.3110064e-03   1.9383590e-03   8.0105674e-04   2.2117223e-03   1.5043275e-03   8.0243079e-04   1.6187703e-03   8.6299336e-04  -4.3843052e-04   5.5191019e-03   1.3193113e-03   2.7807071e-04   8.3524792e-04   1.1076673e-03   4.2203828e-04   7.3420384e-04   6.4908515e-04   7.9451309e-04   2.7211942e-04   3.8356578e-04   4.7932187e-04  -1.5604994e-03   2.1062544e-04   1.1496515e-03  -6.0631435e-05   2.0273704e-04   2.5806195e-04   1.1420655e-03  -2.0203834e-04   6.4257911e-04   5.1331986e-04   1.1131495e-04  -8.4186147e-05  -3.1393050e-05  -7.0492206e-05   1.3085061e-03  -6.3995866e-04  -1.7894823e-04   7.1338395e-04   3.9114528e-03   1.8739225e-05
   2.1131882e-03   9.7974262e-04   1.8710088e-03   1.7032357e-03   1.3213643e-03   2.1409267e-04   1.8423662e-03   7.5220014e-04   2.0390844e-03   2.0396502e-03   1.7646140e-03   8.3543058e-04   2.0388707e-03   1.3458122e-03   2.7289981e-04   1.3542710e-03   5.3258438e-04  -4.7664571e-04   1.6082809e-04   8.6552749e-04   4.8112433e-05   3.7536913e-04   6.1440130e-04   3.5107069e-04   7.2393101e-04   2.4531074e-04   3.5941810e-04   3.9260709e-04  -1.5972010e-04   2.5475322e-04  -7.9669314e-04  -5.2061549e-04   8.2878460e-04  -3.2116452e-04  -1.1121848e-03  -3.3793924e-04   7.7774911e-04  -3.9353708e-04   4.7814666e-04   5.0612912e-04  -6.1043620e-04  -3.7664085e-04  -3.6237971e-04   4.6777542e-04   1.1540083e-03  -7.3734368e-04  -3.3401925e-04   4.7582877e-04   4.0502362e-03   1.1964237e-06
   2.1297138e-03   9.0868043e-04   1.9996907e-03   1.7000083e-03   5.4273114e-04   6.2537967e-04   1.7619896e-03   5.6101277e-04   5.2893157e-03   2.2313076e-03   1.9026884e-03   9.3075156e-04   2.2339488e-03   1.6770158e-03   4.0262914e-04   1.6978181e-03   8.4413227e-04  -1.8857262e-04   2.3042855e-03   1.5973044e-03   4.8736119e-04   1.0575554e-03   4.3712888e-04   5.0578575e-04   9.7576546e-04   6.3189934e-04   3.0903000e-04   4.0767610e-04   2.6167434e-04   6.3757855e-04   1.2772583e-03  -6.4250984e-04   1.1632730e-03  -1.2833416e-04  -9.1696437e-04  -1.4151885e-04   6.6277193e-04   3.6169845e-04   8.5750269e-04   8.3700253e-04   1.8654598e-04  -3.9808256e-06   1.1762037e-04   5.5497477e-04   1.6837543e-03   1.6126155e-04   1.4012464e-05   8.5821515e-04   4.4084946e-03   5.3866400e-04
   1.7296306e-03   1.0334704e-03   2.3830340e-03   1.8896959e-03   1.4984058e-03  -7.7102253e-05   1.6229879e-03   7.8790390e-04   2.3499238e-03   2.1214390e-03   2.0373571e-03   1.1067023e-03   2.3321917e-03   1.7087890e-03   3.3946149e-04   1.7818118e-03   7.5214350e-04  -1.9758899e-04   1.3765476e-03   1.2265705e-03   3.3140770e-04   5.7626382e-04   9.5948571e-04   4.4848170e-04   5.5730238e-04   6.0063117e-04   5.0123478e-04   7.3881762e-04   4.4906366e-04   3.5237186e-04  -2.0833618e-03   7.1560533e-04   1.1723319e-03   4.2521475e-05   1.6261720e-04   1.3050004e-03   1.2766564e-03   7.2143914e-05   5.3764379e-04   1.2362350e-03  -4.1318981e-05  -8.6135529e-05  -1.0974085e-04   1.6640313e-04   1.5562481e-03  -1.9060909e-04  -1.4125237e-05   6.6998898e-04   4.1726683e-03   3.0022752e-04
   2.1135209e-03   7.9105009e-04   2.6848721e-03   1.3942072e-03   1.0389432e-03   5.6589243e-04   1.7801622e-03   6.4229185e-04  -1.4943286e-03   1.7331694e-03   1.6495837e-03   1.0703790e-03   1.9255605e-03   1.4322000e-03   5.9746747e-04   1.3934969e-03   3.1399712e-04  -6.0989102e-04   8.8037387e-04   7.4994162e-04  -1.4990390e-05   4.5037177e-05   2.6195255e-04   2.6579280e-04   3.5423052e-04   5.1748517e-05   6.7856046e-04  -2.9478234e-04  -4.7104797e-04   1.1413270e-04  -5.6938041e-04  -4.0711515e-05   4.5146010e-04  -4.0277845e-04  -7.3880435e-04  -6.2486343e-04   1.0497753e-05  -3.6669231e-04   4.1635198e-04   9.7391481e-04  -7.6393550e-04  -1.8782042e-04  -1.9332707e-04   9.0976531e-04   1.1471781e-03   2.7556167e-04   3.6956702e-05   7.4216531e-04   4.1525755e-03   5.1709166e-04
   1.9804947e-03   8.2203414e-04   2.3172859e-03   1.8672101e-03   7.0189772e-04   2.2584019e-04   1.7277036e-03   9.8930090e-04   4.9940072e-04   2.1640416e-03   2.1492231e-03   1.3493971e-03   2.2339488e-03   1.7337975e-03   8.0412510e-04   1.7554277e-03   8.6628291e-04  -2.7634954e-04   4.5051258e-03   1.4021888e-03   5.1232590e-04   8.9745963e-04   1.1147045e-03   9.4552041e-04   1.8407815e-03   7.0485356e-04   9.0521394e-04   4.0101318e-04  -2.9986195e-04   5.4710446e-04   1.8601016e-03   4.9938634e-04   8.5989502e-04  -2.5050325e-04  -4.8675170e-04   5.3275167e-04   1.2237330e-03  -3.2919550e-05   9.4358460e-04   6.4797385e-04   6.2774000e-04   2.0525683e-04   2.7439234e-04  -1.9938388e-04   1.4714688e-03   1.0433343e-04   1.7858467e-04   9.0626621e-04   3.8988616e-03   7.4741320e-04
   2.4614474e-03   1.0581964e-03   2.4992358e-03   1.9975500e-03   8.3885650e-04   6.2429096e-04   2.1969234e-03   8.5462409e-04   1.2265700e-03   2.1405432e-03   1.9467336e-03   1.4534449e-03   2.2031036e-03   1.6913001e-03   7.0800411e-04   1.7017397e-03   7.0973847e-04  -3.7418978e-04   2.2001294e-03   1.1602381e-03   3.5543204e-04   5.2366359e-04   5.5875455e-04   9.3306403e-04   3.1906177e-04   5.4961356e-04   4.6326025e-04   1.3919809e-04  -4.2004736e-05   4.3670632e-04   9.3921780e-04  -1.6604547e-04   5.1521679e-04   2.5700673e-04   6.5466575e-04  -1.7942346e-04   1.2686041e-03  -2.2348252e-04   6.3855154e-04   9.9224353e-04  -1.4650860e-04  -3.1183932e-05  -4.5456534e-05  -2.3525377e-04   1.3256796e-03  -4.7738085e-04  -5.4141481e-05   6.6888321e-04   3.6080892e-03   4.0240167e-04
   2.1553526e-03   7.9411280e-04   2.2013034e-03   1.4532973e-03   9.2019152e-04   2.7211537e-04   1.9426255e-03   8.7676622e-04   1.7325708e-03   1.7962384e-03   1.7643529e-03   1.3542559e-03   1.6851540e-03   1.4278907e-03   3.1555659e-04   1.4323621e-03   4.3704858e-04  -6.7428401e-04   2.2629842e-03   6.4185692e-04   7.3181411e-07  -1.8403097e-04   2.8345169e-04   5.2864407e-04   6.9205114e-04  -2.2622286e-05   3.8852429e-04   1.8016018e-04   1.2620815e-04   9.9723678e-05   7.6453353e-04  -1.1496487e-03   6.6179497e-04  -5.4703595e-04  -9.3670964e-04  -7.0075650e-04   8.9234975e-04  -1.2190888e-04   3.8478349e-04   8.4107736e-04  -6.8926747e-04  -3.2635924e-04  -4.0939316e-04  -7.8259363e-05   1.0037503e-03  -4.6505508e-04  -3.7845774e-04   3.3440001e-04   3.4060779e-03  -2.7634213e-05
   1.2413351e-03   4.3695400e-04   1.7000613e-03   8.9961878e-04   4.4445329e-05   5.0047693e-05   1.2347625e-03   6.4190832e-04  -1.9106523e-03   1.6879851e-03   1.3702748e-03   1.2489191e-03   1.6859639e-03   1.1601392e-03   6.6513720e-04   1.2950882e-03   1.8903069e-04  -7.8195857e-04   1.4926679e-04   9.1624953e-04   2.7790686e-04   2.3853085e-04   7.5084239e-04   8.6907053e-04   2.8800353e-04   1.6626474e-04   2.3833294e-04   3.3689642e-04   1.6137830e-04   2.5732775e-04   1.2453850e-03   1.5636417e-05   9.6472178e-04  -3.6411406e-04   1.7169354e-04   3.9970441e-04   8.5874688e-04  -3.0858145e-04   7.3394447e-04   4.5341597e-04   2.8793220e-05   1.1563871e-05   7.6423705e-05  -4.9988937e-04   1.3614821e-03  -5.5836157e-05  -4.0616145e-05   8.5401029e-04   3.6043855e-03   3.6150153e-04
   2.4790517e-03   1.0983262e-03   2.4950672e-03   1.9572850e-03   1.1674301e-03   1.1786595e-03   1.9824058e-03   8.4333215e-04   1.8165313e-03   1.9398723e-03   1.8896080e-03   9.2040177e-04   2.0676018e-03   1.6045379e-03   8.3995011e-04   1.6786015e-03   7.1784528e-04  -5.1752321e-04  -6.7089411e-04   1.2500121e-03   6.8307220e-04   3.0013546e-04   7.3292281e-04   1.0618399e-03   2.5574246e-04   5.1237049e-04   8.6112990e-04   4.6538157e-04   2.6168823e-04   5.7216058e-04   8.1872271e-04   3.0353223e-04   7.6078111e-04  -8.7183529e-05  -6.5060001e-04  -5.8420678e-04   4.9177482e-04   2.3554367e-04   7.3195220e-04   7.8047474e-04  -2.0208526e-04  -1.4236344e-04  -1.6189108e-04  -1.7088364e-04   1.4411187e-03  -9.8997459e-04  -3.0741375e-04   7.0331519e-04   3.6927012e-03   1.4350461e-04
   2.7652187e-03   9.3570404e-04   2.4978349e-03   1.7473047e-03   8.0097700e-04   7.6269574e-04   1.7137072e-03   1.0518534e-03   5.3093693e-04   1.7285229e-03   1.8541502e-03   8.0315245e-04   1.8396549e-03   1.5284978e-03   6.4167351e-04   1.4778677e-03   5.2190688e-04  -7.4685289e-04  -2.1832278e-03   9.2893781e-04   5.1057508e-04  -1.2912179e-04   5.2292895e-04   9.4514521e-04   3.6903450e-04   2.2335107e-04   4.4762288e-04   2.4700962e-04  -2.6459136e-04   3.4768262e-04   7.8502472e-04  -1.7057515e-04   2.6266891e-04  -5.1744533e-04  -5.1151577e-04   7.0067547e-04   4.3085724e-04  -1.0891914e-04   4.6057190e-04   4.5559989e-04  -1.0027532e-03  -4.3988734e-04  -5.2687246e-04  -9.5852898e-05   1.0275558e-03   5.8401737e-04  -7.3079509e-04   2.0010702e-04   3.2601650e-03  -3.0625856e-04
   1.1950678e-03   6.2059227e-04   1.2951777e-03   1.1459423e-03   8.3552027e-04   9.3725313e-05   1.2901357e-03   8.5702486e-04   2.1324952e-03   1.3927930e-03   1.3655595e-03   8.1370876e-04   1.5232908e-03   1.0331388e-03   1.2783757e-04   1.0607064e-03   9.4381976e-05  -9.5621624e-04   1.2129026e-03   4.1184743e-04   1.3138966e-04  -5.0693710e-04   2.4619597e-04   5.4918113e-04  -3.2082401e-06  -1.6444548e-04   1.3801347e-05   1.5559197e-04  -4.5791169e-04   1.0100693e-05   5.5169075e-04  -5.8970758e-04   1.6826876e-04  -1.2063107e-03   3.7742883e-04  -2.9679429e-04   4.5799301e-04  -6.7612779e-04   1.7311612e-04  -2.4056682e-04  -1.0815079e-03  -6.5150642e-04  -7.8330422e-04  -2.2817531e-03   1.0514836e-03  -1.0899726e-03  -7.4401690e-04   1.4988697e-04   3.4862834e-03  -1.5421853e-04
   1.7956480e-03   8.5756951e-04   2.1154752e-03   1.6795174e-03   1.5589672e-03   7.4780534e-04   1.7834859e-03   1.0167300e-03   5.6759897e-03   1.9324967e-03   1.5687511e-03   1.2258509e-03   1.8371631e-03   1.3468952e-03   8.4523468e-05   1.4195392e-03   5.1414140e-04  -6.5537600e-04   2.9402531e-03   1.0746876e-03   5.8249652e-04   3.9133534e-04   4.5291614e-04   9.1818016e-04   3.5223013e-04   3.4638608e-04   6.3124311e-04  -3.8564325e-05   3.7384854e-04   4.0944395e-04  -5.0256498e-05   4.1723606e-04   1.0198330e-03  -1.7471843e-04   1.3073237e-03  -3.5311279e-04  -3.6213515e-04   1.2953858e-05   7.3245761e-04  -8.0187044e-07  -5.9812691e-04  -3.6228716e-04  -5.2138092e-04  -1.6877869e-03   1.3660094e-03  -1.1640415e-03  -6.8583229e-04   1.6018990e-04   3.3945015e-03  -3.3000301e-04
   2.0666318e-03   9.3406480e-04   2.5179819e-03   1.5637457e-03   9.3318493e-04   1.9510185e-04   1.3987942e-03   8.2249491e-04   4.0263366e-03   1.8881477e-03   1.5847326e-03   1.3458870e-03   1.8016577e-03   1.3759059e-03   3.1004395e-04   1.2384447e-03   4.1072280e-04  -7.7542284e-04   2.4282546e-03   9.7002578e-04   4.0558842e-04   2.2591004e-04   8.1956171e-04   7.9907791e-04   3.9714869e-05   1.1214815e-04   6.7150180e-04   4.2309021e-04  -3.6312654e-04   3.1848333e-04   8.9385365e-05   5.4298533e-04   9.9773309e-04  -6.0146343e-04   2.0580221e-04  -4.9341872e-04   5.2244222e-04  -8.2816725e-04   5.1064487e-04  -5.5072043e-04  -9.8486594e-04  -6.3018239e-04  -7.9664297e-04   1.2236525e-03   1.1425441e-03  -2.2838097e-03  -9.2089380e-04  -2.5374326e-04   3.3971218e-03  -6.4001419e-04
   1.9044132e-03   6.6280505e-04   1.4902864e-03   1.0775098e-03   9.4823842e-04   2.3836122e-04   9.8601135e-04   3.9920656e-04   2.0690216e-03   1.5455980e-03   1.2101204e-03   1.2357491e-03   1.3337794e-03   9.8718540e-04  -6.6341105e-05   8.5625012e-04  -7.4513133e-05  -1.1061032e-03   9.1455231e-04   3.0484432e-04   3.2143125e-05  -3.3703569e-04   4.6234441e-04   4.8679643e-04   9.7216450e-04  -2.1409961e-04  -4.4507709e-05  -1.9158309e-04  -5.2015972e-04   1.0900167e-04  -4.6151553e-04   1.7678148e-04   6.4635783e-04  -9.9414540e-04  -1.2185300e-03  -7.2790345e-04  -1.2992088e-04  -6.9147401e-04   1.6166734e-04   4.7780797e-04  -1.3521919e-03  -9.2043425e-04  -1.1171489e-03  -1.4599857e-03   9.3674194e-04  -2.0855092e-03  -9.8816282e-04  -2.2598363e-04   3.0124832e-03  -5.6727068e-04
   1.1773612e-03   7.8748824e-04   1.7968612e-03   1.3869813e-03   8.9155731e-04   1.8260720e-04   1.6145804e-03   7.5396267e-04   2.4538690e-03   1.9594175e-03   1.4755435e-03   1.3484008e-03   1.5727950e-03   1.1311183e-03   6.3078862e-04   1.2004047e-03   3.3739489e-04  -8.5027324e-04   4.7545568e-03   9.4753021e-04   4.8545646e-04   4.1826410e-04   8.0628792e-04   9.0960541e-04   5.2307459e-04   1.8354155e-04   5.4342585e-04  -6.4994492e-05  -4.6467521e-06   3.5141007e-04   1.5686304e-04  -2.0064828e-04   9.3187491e-04  -4.5954486e-04  -1.4325643e-04  -9.7938093e-05   1.7475385e-03  -2.9710209e-04   6.2236004e-04   8.3628960e-04  -6.4789172e-04  -5.3037441e-04  -5.0894299e-04  -8.4045442e-04   1.1573662e-03  -2.3988821e-03  -8.3342707e-04  -1.2227893e-04   3.1635046e-03  -5.6215283e-04
   1.8940552e-03   8.8006468e-04   2.0996162e-03   1.6936576e-03   1.2306473e-03   6.1988179e-04   1.4175911e-03   8.6843758e-04  -2.6633688e-03   1.9010231e-03   1.5173005e-03   1.3283989e-03   1.7068364e-03   1.1656522e-03   3.3085374e-04   1.0460551e-03   2.3902910e-04  -9.5618819e-04   1.7797358e-03   7.5553148e-04   3.1155601e-04   1.7942990e-04   3.8259226e-04   6.5399241e-04   2.6286035e-04   2.3784273e-04   3.2322825e-04  -4.6955676e-05  -2.1930026e-04   5.2583215e-05  -2.8254726e-04  -9.1342634e-05   8.3779712e-04  -7.1811141e-04  -4.5117486e-04   4.6257843e-04   2.1049420e-04  -6.7738537e-04   4.3875794e-04  -4.9498747e-05  -8.4742269e-04  -7.3666207e-04  -8.2746096e-04   5.2257947e-04   9.2739624e-04  -1.4894517e-03  -9.8117092e-04  -3.8224089e-04   3.1078891e-03  -8.3674252e-04
   1.3878777e-03   3.5860555e-04   1.4671782e-03   8.0204161e-04   8.1141101e-04  -3.2665709e-04   5.7730236e-04   4.4098721e-04   7.1355854e-03   1.3410342e-03   1.2546730e-03   1.0626196e-03   1.2693001e-03   6.4374035e-04  -2.1726415e-04   6.5452192e-04  -2.7582989e-04  -1.3142485e-03  -8.3471014e-04  -1.9752033e-05  -2.0921078e-04  -6.2317494e-04  -3.1684889e-04   2.9433775e-04   4.2552268e-04  -2.7987052e-04  -2.3828328e-04  -2.2826501e-04  -1.3717317e-03  -1.4733803e-04   4.5172649e-04  -4.4873083e-04  -2.8786989e-04  -1.1897027e-03  -6.8682811e-04  -6.2437763e-04   4.0624762e-04  -1.0595167e-03   5.6380057e-05  -7.8664691e-04  -1.7234761e-03  -1.0426096e-03  -1.3599100e-03  -1.9573257e-03   7.2273228e-04  -1.6541429e-03  -9.2859974e-04  -8.0026302e-04   2.3610033e-03  -1.1257805e-03
   1.1653579e-03  -1.7305880e-04   1.1072472e-03   3.8792563e-04  -2.2268205e-04  -1.1171553e-04   8.4680982e-04  -1.0857621e-04  -3.3164432e-03   1.4589073e-03   9.3826972e-04   1.1246260e-03   1.1857374e-03   6.3800899e-04  -4.2111750e-04   5.9873267e-04  -2.0860857e-04  -1.2089798e-03  -5.4016325e-04   4.3486673e-04   1.8762781e-04  -2.9102732e-05   1.7593725e-04   5.0094828e-04  -4.4368411e-05   1.5103920e-05  -7.2134753e-05  -2.6337471e-04  -8.7595428e-04  -8.3393410e-05  -4.9096317e-04  -9.8708165e-07   5.6664215e-04  -7.0835481e-04  -1.5138423e-03  -1.5374165e-03   1.1321616e-03  -4.6574348e-04   4.1109967e-04   3.7537783e-04  -7.6163688e-04  -5.0031813e-04  -6.7010365e-04  -1.4810349e-03   9.9774881e-04  -1.7182631e-03  -4.0643080e-04  -3.1037841e-04   3.2738310e-03  -6.6573877e-04
   1.9342776e-03   5.7059200e-04   1.6943596e-03   1.1724364e-03  -9.3277733e-05  -1.9422606e-04   1.3308203e-03   4.7055027e-04  -2.8812385e-03   1.7670008e-03   1.4365301e-03   1.3228722e-03   1.2241447e-03   7.7107450e-04   3.1666877e-05   7.9807459e-04  -1.1256687e-04  -9.6027693e-04  -1.4761116e-04   5.7754683e-04   2.2767938e-04   2.6405436e-05   3.8330574e-04   6.6388655e-04  -6.8165670e-04   7.1496252e-05  -2.0113410e-05   1.8054558e-04  -2.4316083e-04  -5.9771912e-05  -1.0491187e-03   1.0041869e-04   5.9391762e-04  -8.1061485e-04   4.7841363e-04  -9.1078860e-04   3.3784995e-04  -3.5682216e-04   2.3538758e-04  -6.9542788e-04  -1.1272096e-03  -6.3393032e-04  -1.0170571e-03  -1.6785964e-03   8.7746739e-04  -1.6332620e-03  -5.4354500e-04  -4.8163935e-04   3.1217546e-03  -9.0716308e-04
   1.3496686e-03   2.3546549e-04   1.3505190e-03   6.7032396e-04   2.6389692e-04  -2.6047090e-04   6.3785951e-04  -5.7309469e-05   2.3914643e-03   1.3664197e-03   1.1188132e-03   1.1454797e-03   1.0673824e-03   4.0827674e-04  -7.1519818e-05   4.3255446e-04  -4.8797223e-04  -1.2783256e-03   8.4862427e-04  -8.3477302e-05  -1.7026352e-04  -6.0182333e-04  -2.5492389e-04   1.1211108e-04  -2.0398114e-05  -4.1353024e-04  -1.7920275e-04  -9.7338176e-05  -6.5865956e-04  -3.2164858e-04   3.1893398e-04  -9.6578215e-04  -3.5372621e-05  -1.3471697e-03  -1.5408481e-03  -8.3637011e-04  -2.8301461e-04  -1.2944419e-03  -1.4407085e-05  -1.3047435e-04  -2.2186276e-03  -1.0059836e-03  -1.5226194e-03  -1.2091576e-04   5.1875645e-04  -2.1339236e-03  -5.0967478e-04  -9.0101094e-04   2.3265569e-03  -1.1057628e-03
   9.0595760e-04  -2.9179663e-04   5.9522648e-04  -3.2246369e-04  -2.5337996e-04  -1.2255178e-03   2.9873429e-04  -2.5458715e-04  -2.8373976e-03   8.3572249e-04   6.0459255e-04   9.5598790e-04   5.9507991e-04  -4.6532761e-05  -4.6935605e-04   1.6207867e-05  -9.4470655e-04  -1.8547818e-03  -1.2093950e-03  -5.8530003e-04  -3.4867652e-04  -1.0543521e-03  -5.5438641e-04   8.8571120e-05  -1.5811162e-03  -8.1271207e-04  -5.8785483e-04  -7.0032466e-04  -1.5965475e-03  -6.9063110e-04  -2.0783623e-03  -9.0770650e-04   4.4378842e-04  -1.3393607e-03   7.4156467e-04  -7.5463241e-04   6.8409403e-04  -1.1086409e-03  -1.5000657e-04   6.3228574e-05  -1.2722338e-03  -2.0794252e-04  -9.1587071e-04  -9.8400109e-04   8.0900348e-04  -2.5503838e-03   6.5288995e-04  -4.3792298e-04   3.0864431e-03  -5.4083561e-04
   1.0894883e-03   1.5975464e-05   1.2498193e-03   6.9952983e-04   2.7785861e-04  -1.8099687e-04   7.8809273e-04   9.8848963e-05  -5.7728612e-04   1.7772544e-03   1.1815535e-03   1.4646630e-03   1.1689066e-03   5.7425752e-04  -2.8729854e-05   5.3397630e-04  -3.8057749e-04  -1.1978374e-03   3.4227970e-03   2.6512035e-04   2.2898319e-04  -2.0431120e-04  -5.1529985e-04   4.1282724e-04  -9.3156134e-04  -2.0585998e-04  -1.3410370e-05  -3.6780839e-04  -5.6904124e-04  -2.4755942e-04  -1.8410250e-03  -5.4058072e-04  -1.7472403e-05  -1.0623235e-03  -9.6254272e-04  -1.7794868e-03   7.0553162e-04  -6.4021681e-04   4.1595042e-05   4.2949308e-04  -9.9888002e-04  -1.3683825e-04  -7.6592667e-04   7.8533689e-04   7.6873379e-04  -2.4316295e-03   6.6391722e-04  -3.1226836e-04   2.9647946e-03  -3.6055699e-04
   7.6604524e-04  -1.1246786e-04   9.2039612e-04   3.3490270e-04   3.0934720e-04  -5.6683557e-04   5.5703224e-04  -4.3610577e-05   2.3191380e-03   1.5036650e-03   1.0541582e-03   1.3192747e-03   1.0771825e-03   2.4937157e-04  -4.5052302e-04   3.1706243e-04  -4.9645279e-04  -1.5369643e-03  -8.8462612e-04  -8.6298722e-05  -1.0167578e-04  -6.2389980e-04  -6.3621148e-04   2.1601463e-04  -5.2142650e-04  -4.9942284e-04  -4.2519282e-04  -9.0655545e-04  -1.0378687e-03  -4.8607879e-04  -1.6862989e-03  -3.1502478e-04  -9.6181684e-05  -1.1602102e-03  -1.2777073e-03  -6.2023988e-04  -4.7678288e-05  -9.6402207e-04  -1.1934444e-04   4.6517368e-04  -1.8601936e-03  -4.1943160e-04  -1.1260259e-03  -1.0227965e-03   3.6296077e-04  -6.0397253e-04   3.2243543e-04  -5.0006137e-04   2.7798309e-03  -7.1100314e-04
   7.2421640e-04  -3.5651692e-04   6.5556541e-04  -2.0183905e-04  -4.3167587e-04  -1.0687987e-03   4.2673014e-04  -2.5193018e-04  -3.0427626e-03   1.3519673e-03   7.7482965e-04   1.2388775e-03   6.2297704e-04  -5.8976428e-05  -5.5952452e-04   7.4012045e-05  -8.1315270e-04  -1.7971447e-03  -5.1588484e-04  -7.2192645e-04  -5.6420575e-04  -1.2057321e-03  -1.4039960e-03   1.5348807e-04  -9.5302553e-04  -6.4658257e-04  -5.2807800e-04  -1.0523314e-03  -1.0994393e-03  -8.5387868e-04  -1.5560754e-03  -1.5383333e-03  -8.3473482e-04  -1.9406166e-03  -5.6032505e-04  -3.3456041e-04   1.0709945e-04  -1.4624140e-03  -3.8021663e-04   2.2600809e-05  -2.1199277e-03  -8.8719680e-04  -1.6006392e-03  -7.6631899e-04   4.1518746e-05  -2.0057592e-03  -1.3788449e-04  -6.3486927e-04   2.5433246e-03  -8.4764767e-04
   1.0481888e-03  -3.0073521e-04   4.5207652e-04   1.5458951e-04  -3.1859509e-04  -1.4049639e-03   5.2132714e-04  -4.6822662e-04   2.9425896e-03   1.9324269e-03   8.9492393e-04   1.4561999e-03   8.9745648e-04   3.2118225e-04  -4.6076474e-04   3.6214737e-04  -3.8427493e-04  -1.4930749e-03   9.0667297e-04   1.0939856e-04   6.2969586e-05  -2.1997528e-04   1.9723162e-04   6.7879102e-04  -2.9731907e-05  -8.5133703e-05  -3.0040732e-04  -2.0510636e-04  -5.4611743e-04  -4.5142035e-04   6.2410638e-04  -5.0324568e-04  -2.5867164e-04  -1.1698209e-03  -9.6584618e-04  -6.6917710e-04   1.2515686e-04  -7.9320325e-04   1.4190382e-04  -3.0482173e-04  -9.3471201e-04  -2.6864451e-04  -7.6403824e-04  -3.3291316e-04   8.2345348e-04  -1.4994079e-03   2.7519069e-04  -1.6328579e-04   3.0497536e-03  -2.8264240e-04
   1.1618682e-03   2.3245852e-04   9.5552468e-04   6.1727298e-04  -1.4867455e-04  -6.0638622e-04   1.0277836e-03   7.8669051e-05  -9.1037404e-04   2.0669259e-03   1.1010106e-03   1.6457211e-03   1.2299689e-03   4.6293094e-04   5.2176187e-05   4.3696951e-04  -2.7181543e-04  -1.3793467e-03  -6.7055819e-04   1.4295075e-04   5.5268694e-05  -2.8541835e-04   1.1749107e-04   6.8745395e-04  -9.8523730e-04  -5.8532842e-05  -1.0721960e-04  -3.1469984e-04  -6.5882085e-04  -2.2636591e-04  -7.5665055e-05  -4.2294094e-04   2.2474620e-04  -1.0176926e-03   4.7240370e-05  -1.1621034e-03  -3.2499741e-04  -5.7340972e-04   7.2492694e-05   3.7722103e-04  -1.3195232e-03  -3.8342358e-04  -9.7182899e-04  -2.1962528e-03   6.3591101e-04  -1.6862609e-03   1.4479191e-04  -2.4782179e-04   2.6797552e-03  -5.4399122e-04
   1.3848545e-03  -4.7789290e-05   1.0877250e-03   2.9506054e-04   1.6451687e-04  -9.3946798e-04   2.7201948e-04  -1.1026888e-05  -4.7624373e-04   1.7471403e-03   9.6327701e-04   1.5356686e-03   8.5712282e-04   1.9084735e-04  -5.2683888e-04   3.4973057e-04  -5.9211603e-04  -1.4665120e-03  -7.0220360e-04  -4.2139349e-04  -2.8996912e-04  -8.3291368e-04  -7.2127223e-05   2.8899676e-04  -1.2917365e-03  -4.5998819e-04  -3.4090242e-04  -5.0797063e-04  -1.1719301e-03  -3.8503294e-04  -5.6897191e-04  -1.5696938e-03  -8.2634302e-04  -1.3061400e-03  -1.8999319e-03  -1.7653208e-04  -1.4879374e-04  -1.2257774e-03  -2.0675994e-04  -9.1085321e-04  -1.9509756e-03  -7.2275131e-04  -1.3209676e-03  -1.5819651e-03   3.0874394e-04  -1.2458703e-03  -2.0028515e-04  -5.6532113e-04   2.4345692e-03  -1.0236504e-03
  -2.7577431e-05  -3.7384185e-04   3.1848685e-04  -3.3297771e-04   2.3251366e-04  -1.1981712e-03   2.8094574e-04  -5.5286876e-04   1.3354429e-03   1.5494326e-03   5.7219784e-04   1.3674211e-03   5.9418980e-04  -1.6911291e-04  -5.4316188e-04  -5.1108465e-05  -8.5951627e-04  -1.8262715e-03   4.2461604e-03  -2.4820896e-04  -7.8226272e-05  -5.5900478e-04  -8.3469995e-04   5.6035182e-04  -8.7618042e-05  -4.0915501e-04  -5.0322455e-04  -7.7901955e-04  -6.6518149e-04  -5.7359354e-04  -1.5765715e-03  -1.0861747e-03   1.3620892e-05  -1.3204244e-03  -1.4488967e-04  -9.7857905e-04  -3.1120039e-04  -1.1487473e-03   2.5076533e-05  -5.2603293e-04  -9.4031252e-04  -2.7196220e-04  -8.7813847e-04  -3.1700943e-04   8.0307451e-04  -1.4737260e-03   2.2094614e-04  -1.6346877e-04   2.9243666e-03  -4.1029768e-04
   7.0015457e-04   2.2357091e-04   1.3127287e-03   8.8915467e-04  -3.0801809e-04  -4.7851686e-04   7.3374761e-04  -2.7774039e-04  -1.0047527e-03   2.1060365e-03   1.1076181e-03   1.6697941e-03   1.1264632e-03   4.4212845e-04  -4.9845112e-05   5.8466877e-04  -2.7383110e-04  -1.3221543e-03  -1.7271064e-03   9.1983537e-05   7.6145057e-05  -2.8247500e-04  -2.5138286e-05   7.1308366e-04  -4.1556254e-04  -1.0638311e-04  -2.9361774e-05  -7.0603169e-04  -5.9259293e-04  -2.8150814e-04  -1.1489626e-04  -2.3243068e-04  -6.3975975e-05  -1.4148796e-03  -1.3365557e-03  -1.3815615e-03   4.7642279e-05  -8.3102111e-04   9.0001580e-05  -3.5149420e-05  -1.0829016e-03  -2.9281914e-04  -7.8663480e-04  -2.1940637e-03   6.6284375e-04  -1.6502698e-03   1.1753214e-04  -2.5756020e-04   2.9207889e-03  -6.1264652e-04
   8.7271293e-04   4.9985520e-05   9.4287097e-04   5.5594702e-04   2.1555524e-04  -6.1563734e-04   4.0430506e-04  -3.4156172e-05  -1.5288217e-03   1.9155770e-03   8.8972738e-04   1.6156886e-03   1.0258665e-03   2.9965179e-04  -3.3866649e-04   4.2052247e-04  -4.4406712e-04  -1.5162438e-03   1.0382696e-03  -3.1488173e-04  -1.4922493e-04  -6.4613181e-04  -1.5784602e-04   5.1509496e-04  -1.1139133e-03  -3.4431819e-04  -1.7704256e-04  -8.3913869e-04  -1.1140279e-03  -2.6843196e-04  -1.2536997e-03  -1.5271880e-05  -3.4940164e-04  -1.6592762e-03  -1.1756115e-03  -1.5989165e-03   2.3633582e-04  -9.3708176e-04  -1.0792825e-04  -6.3024735e-04  -1.6183504e-03  -6.5456197e-04  -1.2219171e-03  -2.8457390e-03   4.2141569e-04  -2.4566953e-03  -1.8264183e-04  -6.3208549e-04   2.2998278e-03  -1.0394506e-03
   3.2239527e-04  -2.1990373e-04   9.5165669e-05   3.1761581e-05  -1.9468158e-04  -1.5030731e-03   2.5783232e-04  -3.9898558e-04   1.5153792e-03   1.4985191e-03   6.3245243e-04   1.4048747e-03   6.0892320e-04  -2.2941189e-04  -1.0906549e-03  -3.1168628e-07  -8.4602810e-04  -1.7208365e-03   1.5497289e-04  -8.8255922e-04  -4.9351715e-04  -1.1722194e-03  -1.1015645e-03   2.7251628e-04  -1.2523112e-03  -7.5088540e-04  -4.0873158e-04  -7.3745748e-04  -1.0004698e-03  -6.8259303e-04  -1.0147735e-03  -1.6799967e-03  -3.7391789e-04  -2.0760365e-03  -1.3444580e-03  -1.2532901e-04  -4.5357842e-04  -1.1730485e-03  -3.2061225e-04  -5.8737473e-04  -1.4601101e-03  -5.4729648e-04  -1.1095296e-03  -1.4648911e-03   5.7172903e-04  -2.1854034e-03  -5.2617618e-04  -5.0430512e-04   2.7221958e-03  -6.9240382e-04
   5.3495413e-04   1.3253969e-04   9.8812557e-04   7.5279234e-04   4.6084163e-04  -6.4341235e-05   8.7113661e-04  -1.6372260e-05   1.8758971e-03   2.1043103e-03   9.4410888e-04   1.6815605e-03   1.0826297e-03   4.4387448e-04  -3.9703026e-04   5.4356281e-04  -1.9873001e-04  -1.3030749e-03   2.0939238e-04   1.0021242e-04   1.4072805e-04  -2.0165948e-04   3.8430830e-05   6.8683986e-04   5.0537626e-04  -8.2005332e-05  -2.0652190e-04  -7.8248174e-04  -6.3102541e-04  -2.5316494e-04  -4.8111437e-04  -6.5402291e-04   2.0921636e-05  -1.4848611e-03   5.1861538e-05  -9.2578397e-05  -1.1056388e-04  -8.6205761e-04   1.9745941e-05  -6.2471716e-04  -1.2037129e-03  -4.2345148e-04  -9.0931688e-04  -1.0276736e-03   6.0113921e-04  -1.9875017e-03  -1.0443089e-03  -8.0430339e-04   2.6886079e-03  -6.7288947e-04
   7.5585447e-04   1.4706139e-04   1.0207249e-03   7.6793536e-04   3.9900758e-04  -2.4970938e-04   2.1527337e-04  -8.1177568e-05  -2.8015093e-03   1.9307632e-03   8.8798167e-04   1.6539010e-03   1.0203529e-03   4.5066763e-04  -1.3156339e-04   3.7969975e-04  -3.7159291e-04  -1.3185602e-03  -2.7440432e-03  -1.8971525e-04  -3.1470088e-05  -4.2554922e-04  -4.5341821e-04   5.0764944e-04  -8.4265321e-04  -4.0779827e-04  -4.0974293e-04  -7.8253576e-04  -1.0126919e-03  -3.3520840e-04  -1.0111633e-03  -1.0854561e-03   1.8198384e-04  -1.6949481e-03  -1.2640866e-03  -3.9004002e-04  -1.7698421e-04  -1.4844323e-03  -9.8347897e-05  -8.3068735e-04  -1.6271723e-03  -7.1838399e-04  -1.3264259e-03  -1.8943414e-03   3.6580255e-04  -3.1138603e-03  -1.4528997e-03  -1.1806430e-03   2.3571192e-03  -1.0380611e-03
   3.7592775e-04  -1.1780724e-04   5.2347797e-04   2.2940092e-04  -6.7690230e-04  -8.8222261e-04   3.0004029e-04  -2.7556362e-04  -5.8894199e-03   1.5248595e-03   6.0315611e-04   1.3972956e-03   6.4540806e-04  -1.5350255e-05  -7.1076542e-04   1.0294385e-04  -8.2697760e-04  -1.6807840e-03   7.8452154e-05  -7.7996339e-04  -4.0590810e-04  -1.0315995e-03  -7.5781601e-04   1.5714228e-04  -1.7769680e-03  -7.1490870e-04  -8.6699409e-04  -6.5854314e-04  -1.3931615e-03  -6.2223000e-04  -2.8347077e-03  -1.7082359e-03  -6.0936890e-04  -1.8938405e-03  -2.1417702e-03  -9.8202354e-04  -3.3877604e-04  -1.4532051e-03  -3.9046624e-04  -7.2639051e-04  -1.5972675e-03  -8.0941990e-04  -1.4841103e-03  -2.2275613e-03   5.1359367e-04  -2.8140070e-03  -8.5207011e-04  -7.8056852e-04   2.6213804e-03  -8.2063692e-04
   9.9864416e-04  -1.2120325e-04   9.0532133e-04   4.1252721e-04  -4.2855713e-04  -4.6863829e-04   4.5513164e-04  -2.9488304e-04   3.3874891e-03   1.6573758e-03   8.7491865e-04   1.3027184e-03   9.4859133e-04   2.9129896e-04  -1.1198816e-04   2.6385739e-04  -5.3551950e-04  -1.3350293e-03  -2.3328264e-03  -1.6303708e-04   1.0153322e-04  -4.2128531e-04  -3.8932345e-04   3.3066416e-04  -6.2761073e-06  -4.1256941e-04  -2.3944513e-04  -5.3438847e-04  -1.3480772e-03  -2.3562087e-04  -3.2874718e-04  -8.7722065e-04  -1.4841776e-04  -1.2983631e-03  -1.4796865e-03   8.1480615e-04  -2.9963761e-04  -1.1618785e-03  -1.0914905e-04  -5.4414151e-04  -1.4538798e-03  -6.5789861e-04  -1.0472705e-03  -1.6239294e-03   6.0368201e-04  -1.9850663e-03  -3.3883430e-04  -5.9947296e-04   2.5925708e-03  -6.8666931e-04
   4.9085449e-04  -3.1320870e-04   9.1617886e-04   2.4945012e-04   1.0936971e-04  -4.4861410e-04   9.6111541e-04  -4.9881835e-04   1.9969465e-03   1.4325383e-03   7.2870468e-04   1.1090097e-03   1.0053862e-03   2.6982816e-04  -5.0235022e-04   3.9117143e-04  -6.1939954e-04  -1.4342885e-03   6.1397802e-04  -3.4881744e-04  -1.0569827e-04  -7.1300159e-04  -4.9252156e-04   1.4953935e-04  -1.8257574e-03  -4.7615505e-04  -3.0139138e-04  -1.2482803e-03  -1.1178022e-03  -4.2299868e-04  -1.6933827e-03  -7.8543933e-04  -4.2198913e-04  -1.6114460e-03  -3.1568512e-04  -7.5424294e-04   1.5350453e-05  -1.0611382e-03  -2.9090568e-04  -8.8886678e-04  -1.9661512e-03  -7.4924494e-04  -1.4630342e-03  -7.2328595e-04   2.4662181e-04  -1.3216309e-03  -1.2435287e-04  -9.4183913e-04   2.6034466e-03  -1.0048682e-03
   5.5495481e-04  -5.6533975e-04   4.0387415e-04  -2.9281943e-04   2.5591147e-04  -1.3374994e-03   2.3730776e-04  -3.6542330e-04   4.0414361e-03   9.8438654e-04   5.1734230e-04   9.3182235e-04   5.0169625e-04  -1.0482119e-04  -7.4022909e-04  -2.6069989e-05  -1.2183060e-03  -1.7920434e-03  -6.7949749e-04  -9.3105208e-04  -5.0981407e-04  -1.3844282e-03  -1.1152863e-03  -3.9138182e-04  -1.6594336e-03  -9.3557395e-04  -7.3850638e-04  -1.1997040e-03  -1.4238217e-03  -7.3371403e-04  -2.2367206e-03  -2.5754999e-03  -7.0184609e-04  -2.0983941e-03  -1.4764053e-03  -2.3652026e-03  -8.1353466e-04  -1.1827160e-03  -4.7291134e-04  -1.5573254e-04  -2.1734950e-03  -7.8386848e-04  -1.7069620e-03  -5.0210516e-04   1.4399673e-04  -1.8105261e-03   2.3622991e-04  -8.5643143e-04   2.3082751e-03  -6.1855582e-04
   7.2441337e-04  -4.5150254e-04   5.9989950e-04   7.2879397e-05  -5.3963729e-04  -1.1481574e-03   4.6169988e-04   4.4209000e-06   2.1156166e-03   1.4504085e-03   8.1048068e-04   1.0326392e-03   8.6165330e-04   2.2849844e-04  -4.1382961e-04   3.2311931e-04  -6.0958776e-04  -1.3919648e-03   1.5856669e-03   5.9838487e-05   1.5288306e-04  -3.9453115e-04  -9.1302511e-04   1.9681586e-04  -5.3098524e-04  -5.5832963e-04  -3.0791387e-04  -6.8397855e-04  -7.9662516e-04  -4.4046875e-04  -5.9000560e-04  -9.5465692e-04  -1.9138379e-04  -1.2916845e-03  -1.5816109e-03  -2.1568409e-03   2.1172815e-04  -8.0560136e-04  -3.0344916e-05  -3.1581559e-04  -1.3261156e-03  -2.8301141e-04  -9.0733194e-04  -1.4449244e-03   4.3716922e-04  -1.5263193e-03   3.6634278e-04  -7.2859216e-04   2.7739443e-03  -5.2576291e-04
   9.0167922e-04  -2.5560483e-04   5.7789712e-04   3.4921436e-04   1.9898861e-04  -3.7867523e-04   5.0639058e-04   3.3156510e-05  -1.5750693e-03   1.4985483e-03   8.6950202e-04   1.0754114e-03   8.2822138e-04   3.9581588e-04  -4.7366231e-04   3.7971194e-04  -7.1939779e-04  -1.4487806e-03   2.7654017e-03  -8.2982384e-05  -2.1198264e-05  -6.1899424e-04  -7.6797541e-04   1.7857579e-04  -5.8399141e-04  -5.5592303e-04  -1.0316527e-05  -1.0899556e-03  -1.2625564e-03  -4.7843769e-04  -7.5505371e-04  -8.5014413e-04  -3.8596691e-04  -1.3265549e-03  -1.5667632e-03  -1.5001006e-04   2.6214344e-04  -7.5720105e-04  -8.6560351e-05  -5.5925472e-04  -1.3724547e-03  -6.5494218e-04  -1.1766320e-03  -1.7290921e-03   4.3122907e-04  -1.7599657e-03  -8.4318727e-04  -1.0061788e-03   2.4660951e-03  -6.9551414e-04
   7.6585036e-04  -4.3325385e-04   1.0830859e-03   5.5243137e-05   1.5207029e-04  -9.3547208e-04   5.3913903e-04  -3.2229969e-04  -6.3885498e-04   1.2658312e-03   6.7759887e-04   9.8186068e-04   6.7738554e-04   1.9626928e-05  -7.3291356e-04   1.5521534e-04  -7.4003305e-04  -1.7800827e-03  -1.1084714e-03  -6.4911792e-04  -4.3272521e-04  -9.9473284e-04  -7.9916004e-04   4.3695200e-06  -1.5115299e-03  -6.4947223e-04  -1.3100613e-04  -1.1826971e-03  -8.1266748e-04  -6.2732853e-04  -3.0178586e-03  -1.0291858e-03  -2.7521537e-04  -1.6704365e-03  -7.8168442e-04  -2.0778447e-03   5.0135545e-04  -1.3850247e-03  -2.7452220e-04  -1.0337202e-03  -2.0210240e-03  -9.1362733e-04  -1.5993636e-03  -1.8089714e-03   1.4424940e-05  -2.0079329e-03  -8.0044562e-04  -8.7154686e-04   2.5601916e-03  -9.1001060e-04
   4.7793082e-04  -4.3834667e-04   8.7361934e-04   2.9543033e-04  -5.4847816e-04  -5.5638072e-04   7.3152303e-04  -4.6749163e-04   2.4298048e-03   1.7541387e-03   8.4143766e-04   1.2780773e-03   9.3906187e-04   2.7665019e-04  -7.0370705e-04   4.6232439e-04  -3.3111140e-04  -1.3863322e-03  -4.7722206e-04   1.3140315e-05   1.0446241e-04  -6.4240841e-05  -5.1522121e-04   4.8907747e-04  -4.4746880e-04  -1.4532550e-04   2.6339935e-06  -1.0638752e-03  -8.4678526e-04  -1.1310354e-04  -1.5773709e-03   7.1584669e-05   1.4229539e-04  -1.2675832e-03  -6.8105612e-04  -4.6796756e-04   4.4191711e-06  -6.6006905e-04   2.7878044e-04   6.5749866e-04  -9.5721590e-04  -4.0460983e-04  -7.3878234e-04  -6.5378338e-04   8.7950978e-04  -7.4852922e-04  -4.5464622e-04  -5.1063660e-04   2.9936649e-03  -5.4263591e-04
   3.6466043e-04   1.0274140e-04   9.4318576e-04   9.0614741e-04   6.0091278e-04  -2.7690612e-04   1.2160599e-03   1.0079476e-04  -4.1568093e-04   1.8193732e-03   7.3892577e-04   1.3848152e-03   1.0039827e-03   5.0355581e-04  -4.3591714e-04   5.7785941e-04  -3.6122071e-04  -1.1785998e-03  -1.8584448e-03   1.0630975e-04   5.1056795e-05  -1.7158443e-04  -1.2842176e-04   5.8132590e-04  -2.9262851e-03  -3.4676992e-05  -6.9427479e-05  -9.6292904e-04  -5.5614614e-04  -2.5759757e-04  -2.5288929e-04  -5.0173030e-04   4.0222408e-04  -1.2890096e-03  -1.1347696e-03  -1.1429702e-03   3.1654348e-04  -1.2027717e-03   1.0519897e-04  -6.0131744e-04  -1.4174347e-03  -5.0978188e-04  -1.0638747e-03   1.8037714e-04   6.3293113e-04  -2.8200459e-03  -5.8336777e-04  -6.3151505e-04   2.7605400e-03  -7.4956898e-04
   7.5113954e-04  -9.4062583e-05   7.6971378e-04   4.4767221e-04  -8.6985754e-05  -7.7467802e-04   5.2240287e-04   6.4277570e-05   3.2036456e-03   1.5412954e-03   6.7421037e-04   1.2692332e-03   8.1903231e-04   2.6732674e-04  -3.6949586e-04   3.8454717e-04  -6.0105883e-04  -1.5015549e-03   1.7728832e-03  -5.1263743e-04  -2.4739237e-04  -6.5306673e-04  -7.5286371e-04   2.7173627e-04  -1.4438723e-03  -5.6389614e-04  -6.6297437e-04  -1.3560645e-03  -1.1681259e-03  -4.3012196e-04  -1.4945160e-03  -9.1234362e-04  -3.8148434e-04  -1.7416439e-03  -2.1617629e-03  -6.1487110e-04   1.6422034e-04  -1.2019860e-03  -1.7175775e-04  -4.0479048e-05  -1.5564199e-03  -8.7630330e-04  -1.5862933e-03  -2.2639702e-03   1.8562087e-04  -2.5626956e-03  -8.8386930e-04  -9.4207161e-04   2.2860959e-03  -1.2589381e-03
   6.9886184e-04  -3.5727635e-04   6.0430734e-04   5.3172291e-05  -5.0421013e-04  -8.7491039e-04   9.9469710e-04  -3.5206720e-04   3.3605567e-04   1.7334431e-03   7.5455604e-04   1.3022657e-03   8.0787193e-04   2.3485212e-04  -5.1301724e-04   4.5557308e-04  -5.0651166e-04  -1.5037536e-03  -2.6726727e-03   1.5203736e-04   1.0910811e-04  -5.2645581e-05   7.7105156e-05   6.3862000e-04  -7.4649102e-04  -2.5387391e-04   1.7378510e-05  -4.7948040e-04  -8.1954495e-04  -1.3975882e-04  -2.3710725e-04  -6.5517554e-04   2.7844042e-04  -1.3375351e-03  -1.8286355e-03  -9.2311471e-05   1.2269068e-03  -6.1207503e-04   3.4736734e-04  -1.1618662e-04  -7.8949798e-04  -4.3664733e-04  -1.0075655e-03  -2.7171880e-04   7.0145976e-04  -2.1415190e-03  -5.4148177e-04  -5.0336297e-04   3.0137086e-03  -6.1098684e-04
   1.2733403e-03   1.0130402e-04   1.1980848e-03   9.5200253e-04   2.9569349e-04   2.8508781e-05   7.4461626e-04   3.0789539e-05   4.5551201e-03   1.8924020e-03   9.5978443e-04   1.4398104e-03   1.1077723e-03   5.4608827e-04  -4.1962886e-04   6.8822765e-04  -2.9328119e-04  -1.1973896e-03  -6.6460267e-04   1.2702451e-04   1.0738300e-04  -2.4977793e-05  -4.2873572e-04   6.5612316e-04  -3.6502798e-04  -3.7042540e-04  -3.8069219e-04  -3.8008680e-04  -6.5633119e-04   2.8185879e-05  -1.1752857e-04  -8.1394428e-05   3.3119676e-04  -1.1885285e-03  -1.0653477e-03  -1.0530559e-03   2.8426040e-04  -5.6426140e-04   1.7593571e-04  -4.6759687e-04  -1.0127515e-03  -5.7028193e-04  -1.0940407e-03  -1.9328037e-03   8.7122992e-04  -2.7192780e-03  -6.2144641e-04  -5.9016357e-04   2.7955894e-03  -8.6073257e-04
   9.9248125e-04   2.9415154e-05   9.6209673e-04   8.0130057e-04   2.8796666e-04   1.2081271e-04   1.0309452e-03   1.4611201e-04   1.8248062e-04   1.6050885e-03   7.7538588e-04   1.3464842e-03   8.8343793e-04   3.8476623e-04  -6.9384673e-04   4.6938870e-04  -4.9563631e-04  -1.4225247e-03   1.8542244e-03  -4.2150210e-04  -1.5343209e-04  -3.9543791e-04  -3.5580152e-04   3.4119497e-04  -1.0405992e-03  -4.2086554e-04  -3.3524079e-04  -5.9785700e-04  -9.2706067e-04  -3.6308667e-04  -9.1553736e-04  -8.1216014e-04  -2.6681201e-04  -1.3085380e-03  -1.1747116e-03  -2.3670484e-04   7.0095586e-05  -1.1556527e-03  -4.0001094e-05   5.8482132e-05  -1.7270419e-03  -8.4184442e-04  -1.4885594e-03  -1.1508121e-03   4.1184665e-04  -2.8380917e-03  -9.0920192e-04  -9.1669976e-04   2.4943978e-03  -1.2578412e-03
   5.5905344e-04  -2.0568077e-04   5.1154569e-04   4.8906717e-04   1.9662431e-04  -8.4529974e-04   3.6695972e-04  -3.6453732e-04   1.8771669e-03   1.6658980e-03   6.1369815e-04   1.2959049e-03   9.2729396e-04   2.8835030e-04  -8.7771675e-04   4.3200594e-04  -4.5517189e-04  -1.4510573e-03  -3.0107421e-03   3.8755388e-05   1.7044928e-04   2.2659839e-05  -2.4552669e-04   6.1505823e-04  -8.5578131e-04  -4.4452059e-04  -4.3244494e-04  -2.8150488e-04  -6.4109056e-04  -1.1015998e-04  -1.1294195e-03   2.4745456e-04   5.8044307e-04  -9.0806495e-04  -8.1775524e-04  -7.8672182e-04   1.3930578e-04  -5.6326087e-04   3.8320004e-04   7.9458964e-04  -1.0208830e-03  -4.6298886e-04  -8.7743206e-04  -1.2270485e-03   1.0287821e-03  -1.8119437e-03  -5.5077090e-04  -4.9979467e-04   3.0246158e-03  -7.9247460e-04
   1.1289399e-03   1.7951689e-04   1.2822371e-03   1.1372097e-03   4.5775255e-04   5.3780078e-04   9.5657009e-04   3.2984721e-04  -1.3879843e-03   1.8346390e-03   8.7796833e-04   1.4380532e-03   1.0592713e-03   5.2611588e-04  -3.7685552e-04   5.0036691e-04  -2.7252166e-04  -1.1525227e-03  -4.8533818e-03   1.4845183e-04   1.3708381e-04   6.0228947e-05  -2.7484033e-04   6.6617847e-04   6.5869809e-04  -1.6135842e-04  -3.0315062e-04  -6.6443108e-04  -4.8406783e-04  -1.1330230e-04  -1.0379282e-03  -1.9652997e-04   6.6069973e-04  -1.0878348e-03   3.5212436e-04   7.4381387e-05   4.8973522e-04  -8.1357750e-04   2.8766820e-04  -4.3100418e-04  -1.2741734e-03  -5.6296389e-04  -1.1294364e-03  -1.5653307e-03   8.6131279e-04  -3.0388646e-03  -6.2696234e-04  -6.7057443e-04   2.9137242e-03  -8.7548618e-04
   2.0330008e-03   9.7097429e-05   1.2319175e-03   8.2995556e-04   4.4991958e-04  -6.8985370e-05   1.1559641e-03   3.1577007e-04   2.8898439e-03   1.6729069e-03   8.2899770e-04   1.3929295e-03   1.0920929e-03   3.8948911e-04  -2.6640910e-04   3.9072434e-04  -3.5080369e-04  -1.4849812e-03  -1.6297782e-03  -2.0039214e-04  -1.0435253e-04  -3.0849001e-04  -2.9731207e-04   5.2951730e-04  -1.6496974e-03  -3.1452975e-04  -2.1826883e-04  -4.0287260e-04  -1.2448111e-03  -2.1069293e-04  -6.7019154e-04   2.2677041e-05  -2.9169451e-04  -1.4496347e-03  -2.4412645e-04  -7.7497598e-04  -1.2141314e-04  -1.3503837e-03   4.0921866e-05  -3.7636806e-04  -1.4866693e-03  -8.5767917e-04  -1.5665733e-03  -8.0204761e-04   4.9082394e-04  -2.7076013e-03  -8.5413299e-04  -8.9876103e-04   2.5424641e-03  -1.2105694e-03
   1.1339230e-03  -1.3913123e-04   6.3968432e-04   4.9332069e-04   4.3147328e-04  -5.8203383e-04   3.1785565e-04  -1.6871776e-04   1.5326417e-03   1.7749011e-03   8.0102327e-04   1.3882397e-03   1.0311739e-03   5.2084704e-04  -4.4982592e-04   5.0114177e-04  -3.9298329e-04  -1.2118065e-03   1.1139024e-04   1.8546908e-04   2.0199086e-04   2.9962062e-04   1.5911486e-04   6.8542029e-04  -1.3397516e-03  -1.4659337e-04  -1.3902366e-04  -4.1330163e-04  -8.2711712e-04  -4.5495366e-05   2.2292005e-04  -3.5129397e-04   7.4631162e-04  -1.1294797e-03   2.1656866e-05  -2.2131705e-04   8.8754075e-04  -6.2864157e-04   4.5509057e-04   9.8954064e-05  -8.3071250e-04  -3.8348537e-04  -8.2317949e-04  -6.1223848e-04   9.4844977e-04  -6.5725250e-04  -4.4889867e-04  -4.5693817e-04   3.1107801e-03  -8.0991257e-04
   1.3319625e-03   5.2707363e-04   1.3935192e-03   1.2150101e-03   3.1385277e-04  -3.8614808e-04   1.3390754e-03   4.9036718e-04  -1.2856269e-03   2.0008581e-03   1.1448207e-03   1.5814629e-03   1.2783379e-03   6.7701639e-04  -2.8691022e-04   7.2789786e-04  -1.6094994e-04  -1.1007050e-03  -3.3778213e-03   2.5053471e-04   2.0203811e-04   2.5496981e-04   1.2000102e-04   8.1021694e-04   1.9327407e-04  -3.7139747e-05   1.5763007e-04  -4.8667187e-04  -7.6193339e-04   2.5865891e-05  -1.1981229e-03   2.9388539e-04   1.0228316e-04  -9.0483687e-04  -9.7437605e-04  -9.3731949e-05   3.0405144e-04  -2.4880707e-04   4.7120047e-04   2.4521435e-04  -8.9096761e-04  -5.1156495e-04  -1.0024389e-03  -6.9297419e-04   1.0436479e-03  -2.5806578e-03  -5.1028049e-04  -5.5743422e-04   2.9342077e-03  -9.1620639e-04
   1.2763640e-03   3.3410211e-04   1.3841006e-03   9.4206765e-04   8.9885805e-05  -5.2473857e-04   1.1183218e-03  -5.7645200e-05   6.7250297e-04   1.7751720e-03   9.6643122e-04   1.5019003e-03   1.1043878e-03   4.6965267e-04  -4.3136108e-04   5.9483538e-04  -2.9386941e-04  -1.2037455e-03  -4.9369219e-03  -2.1243817e-05  -5.2043004e-05  -2.0712208e-04  -4.9973890e-04   4.4404049e-04  -2.0569359e-04  -2.5266450e-04  -3.6113765e-04  -8.5646653e-04  -8.4865850e-04  -6.9145362e-06  -3.5136743e-04  -6.7696319e-04   6.7217596e-04  -1.1477692e-03  -1.2928821e-03  -5.7849468e-04   2.0675955e-04  -9.0735353e-04   2.0159112e-04  -7.1115384e-04  -1.6218486e-03  -7.9480233e-04  -1.4537596e-03  -1.1585639e-03   4.8953609e-04  -2.0593053e-03  -7.3710142e-04  -8.7937445e-04   2.4883871e-03  -1.3791760e-03
   9.0475561e-04   5.0520721e-05   1.1889219e-03   6.7249499e-04   4.0466440e-04  -1.0036252e-03   4.1567805e-04  -4.1506276e-04  -1.7629274e-03   1.4801809e-03   7.2260475e-04   1.3208296e-03   7.7750225e-04   1.9804193e-04  -2.8415362e-04   1.9380006e-04  -5.4831302e-04  -1.6418876e-03  -1.5945474e-04  -1.1995401e-04  -6.5793583e-06  -7.8008292e-05  -5.3539034e-04   5.2651321e-04  -5.3686980e-04  -2.9278238e-04  -3.2339472e-04  -1.7878557e-04  -4.5176930e-04  -1.0871850e-04  -2.0408337e-03  -1.0164901e-04   3.5930847e-04  -1.1977386e-03  -1.3746459e-03   8.1434177e-04   8.5150117e-05  -4.5592777e-04   3.8654858e-04   4.3528673e-04  -5.1071867e-04  -3.6130656e-04  -9.2207443e-04  -9.0944400e-04   1.0093334e-03  -9.1888022e-04  -3.5148140e-04  -3.7314100e-04   3.1960639e-03  -8.3311816e-04
   2.3555080e-03   6.1376963e-04   1.7159649e-03   1.4637475e-03   1.0261466e-03   3.1837853e-04   1.0593085e-03   2.8639694e-04  -1.7031154e-03   2.0606064e-03   1.3064096e-03   1.5771147e-03   1.4457520e-03   7.8480743e-04   1.1741341e-04   8.0974266e-04  -1.4165699e-05  -1.0162177e-03   1.0230126e-03   5.0936069e-04   2.9170493e-04   4.0458495e-04  -8.8710178e-05   6.9975550e-04  -2.1618677e-04   1.8180939e-04   1.6666566e-04   9.7229749e-06   5.3326919e-05   1.0151919e-04  -4.8155378e-04  -1.6405435e-04   7.9114485e-04  -7.6225173e-04  -1.6763654e-05  -4.0790404e-04   5.4657366e-04  -4.2850638e-04   4.8531982e-04  -1.0920321e-04  -7.9388608e-04  -3.8296517e-04  -9.1325119e-04  -1.4377090e-03   1.1421887e-03  -1.6814382e-03  -3.7974620e-04  -4.4548523e-04   3.0580293e-03  -9.3824643e-04
   1.3535026e-03   4.3835479e-04   1.5339671e-03   1.2180789e-03   1.0954885e-04  -1.2318336e-04   1.4823320e-03   5.6169898e-05   1.6903300e-03   1.7795892e-03   1.1844684e-03   1.3479148e-03   1.3402565e-03   5.5528263e-04  -4.4398515e-05   5.7630084e-04  -2.0669038e-04  -1.2443786e-03  -8.4586511e-04   1.0351685e-04   7.7682002e-05  -2.7015089e-06  -2.9171340e-04   4.4303646e-04  -8.6058181e-04  -1.5874155e-04  -1.0732398e-04  -9.2095876e-04  -5.6121155e-04  -1.0635302e-04  -1.2122827e-03   2.0115968e-04   1.9488201e-04  -9.7563589e-04  -4.7461761e-04   6.4401975e-04   6.3110370e-04  -9.6450048e-04   9.8845987e-05  -4.1187616e-04  -1.4197554e-03  -7.0038508e-04  -1.3352146e-03  -6.4319221e-04   8.0466853e-04  -2.4963592e-03  -6.7805493e-04  -6.5052661e-04   2.7362141e-03  -1.3615212e-03
   8.1138831e-04   3.0434094e-05   1.0113261e-03   5.4707547e-04   6.8279065e-04  -3.7276774e-04   6.9431117e-04   1.0048940e-06   5.4820743e-04   1.3099328e-03   7.5479608e-04   9.7466679e-04   1.0756799e-03   2.6533345e-04  -3.0909237e-04   3.2403111e-04  -5.8921438e-04  -1.5412474e-03  -1.8191678e-03  -4.2256285e-04  -2.6786065e-04  -6.7947304e-04  -6.9639384e-04   1.0392987e-04  -5.1527767e-04  -5.6069536e-04  -4.9284968e-04  -1.0373028e-03  -1.0201222e-03  -3.2423853e-04  -1.1247933e-03  -8.1058918e-04   2.2333158e-04  -1.4552635e-03  -1.4470088e-03  -2.3069149e-03  -7.0178229e-04  -1.3835108e-03  -9.8084143e-05  -8.5827260e-04  -1.7679984e-03  -8.8634889e-04  -1.5119688e-03  -1.1303741e-03   6.3776859e-04  -2.3586545e-03  -6.6987670e-04  -6.2923779e-04   3.0817161e-03  -1.1101690e-03
   1.2266245e-03   1.4653739e-04   1.2334012e-03   1.1920962e-03   2.9903487e-04   1.7395578e-04   8.9448149e-04   2.0413483e-04  -1.2786738e-03   1.8220890e-03   1.2455637e-03   1.1919364e-03   1.3720742e-03   6.4106786e-04  -2.4343684e-04   6.6264090e-04  -6.1074090e-05  -1.0842310e-03   2.0075087e-03   6.7007029e-04   4.0100180e-04   3.6322445e-04   7.1044640e-05   7.1383972e-04  -1.0073571e-03   1.2177134e-04   1.6551084e-04  -1.9755005e-04  -2.5414565e-04   1.6915825e-05  -6.8945833e-04  -1.2742466e-03   8.9171797e-04  -2.9707281e-04  -5.0893251e-04  -3.2039152e-05   2.3199836e-04  -2.2354488e-04   4.7370058e-04   2.5373422e-05  -6.9921196e-04  -3.3008936e-04  -7.5199618e-04  -1.0088488e-03   1.0768588e-03  -1.0455847e-03  -2.8748170e-04  -2.5812653e-04   3.4879039e-03  -7.3641108e-04
   1.6767208e-03   5.0258369e-04   1.5504987e-03   1.2670857e-03   9.7110053e-04   2.8664514e-04   1.6619205e-03   2.1682678e-04  -2.7767089e-03   1.8179904e-03   1.2207745e-03   1.3188393e-03   1.4509636e-03   7.6943822e-04   1.0682967e-04   7.4146059e-04   1.2718023e-04  -1.0041058e-03  -6.5341516e-04   5.7112158e-04   2.8410103e-04   1.9262900e-04  -1.7769294e-04   6.3661695e-04  -2.5325717e-04   2.3597713e-05   1.0308616e-05  -6.4315920e-04  -8.5483387e-04   4.2775187e-05  -1.6048740e-03  -8.0225221e-04   6.6658796e-04  -5.5985834e-04  -2.2146071e-04  -8.5449475e-04   3.4323559e-04  -9.3881902e-04   3.3380892e-04   3.7743433e-04  -7.5932394e-04  -3.9451316e-04  -8.8247220e-04  -1.8329622e-03   1.1403931e-03  -3.1072951e-03  -2.8600296e-04  -3.4803915e-04   3.2478678e-03  -8.7645068e-04
   1.3592341e-03   1.4884617e-04   1.3365292e-03   7.0003478e-04   8.0253143e-04  -7.1511487e-05   7.2557293e-04   4.6916452e-04  -2.3445743e-03   1.4913994e-03   1.0266053e-03   1.0561689e-03   1.2141909e-03   4.4117068e-04  -3.4901485e-04   4.2849741e-04  -3.7808187e-04  -1.2335631e-03   2.0446931e-03   1.9540041e-05  -5.0016286e-05  -3.3342527e-04  -7.0580764e-04   1.6741604e-04  -1.3093522e-03  -4.5478079e-04  -1.8100525e-04  -7.4311718e-04  -4.3674040e-04  -1.6585574e-04  -6.1328133e-04  -8.5442729e-04   4.8778564e-04  -9.9509116e-04  -7.7984791e-04   4.1284086e-04  -1.5071245e-04  -7.5846742e-04   1.2533717e-04  -9.7915134e-04  -1.2261437e-03  -6.1739614e-04  -1.1987861e-03   8.1607007e-04   7.6152349e-04  -1.3132013e-03  -4.7646454e-04  -6.1435561e-04   2.8100458e-03  -1.0670627e-03
   1.1987964e-03  -2.0624671e-04   8.6998800e-04   3.4627109e-04   4.5803544e-04  -6.8600877e-04   7.0174242e-04   1.2022384e-04   6.6393934e-04   1.1197042e-03   5.7827902e-04   8.8033843e-04   8.7473966e-04   1.5232954e-04  -2.8993745e-04   2.4555027e-04  -7.1398728e-04  -1.5439168e-03  -1.1849497e-03  -1.4526940e-04  -1.0457794e-04  -4.0377380e-04  -4.7164768e-04   2.2428886e-04  -1.1856128e-03  -2.4639818e-04  -2.8927877e-04  -1.1535769e-03  -1.0648454e-03  -4.2272368e-04  -1.8584304e-03  -3.6249071e-04   3.1545715e-04  -9.3961915e-04  -1.6707716e-03  -9.6251117e-04   4.9489427e-05  -6.4386212e-04   2.4294876e-04   4.0081445e-06  -8.2771090e-04  -2.7195094e-04  -6.7888870e-04  -1.5441164e-03   1.0308246e-03  -1.0950722e-03  -2.5536834e-05  -1.0857426e-04   3.4459967e-03  -5.7370210e-04
   1.4207448e-03   3.8743374e-04   1.9090921e-03   1.2553165e-03   9.4146776e-04   4.2064549e-04   1.3408209e-03   7.9573318e-04   1.6739039e-03   1.8367752e-03   1.2256207e-03   1.1890716e-03   1.5368429e-03   8.2351535e-04  -1.2647394e-04   8.7302114e-04   1.7506020e-04  -1.1183802e-03   1.2105381e-03   6.8104762e-04   3.4504657e-04   3.9312436e-04  -5.3382473e-04   5.5220310e-04  -4.5836615e-04   2.2664455e-04   2.2857501e-04  -7.2407600e-04  -6.2855863e-04  -7.2372546e-07  -5.8580929e-04   1.0597927e-04   8.4806292e-04  -4.5503877e-04  -5.1689526e-04  -8.2095689e-04   1.0923678e-03  -3.4656579e-04   4.7898124e-04  -4.5351678e-04  -3.2594134e-04  -1.7435871e-04  -4.9821037e-04   3.2039758e-04   1.2660876e-03  -1.4443099e-03   1.2367251e-04  -5.4540120e-05   3.6622961e-03  -4.8374635e-04
   1.3375203e-03   4.3416442e-04   1.4485687e-03   1.2901238e-03   4.1185415e-04   1.1506442e-04   1.1407175e-03   1.7337817e-04   3.2851484e-03   1.6792970e-03   1.1747757e-03   1.1422923e-03   1.4464555e-03   7.7154924e-04  -4.3287774e-04   7.8017695e-04  -1.4217388e-05  -1.0622618e-03   2.8171661e-04   2.7111947e-04   1.4493287e-04  -6.8370566e-05  -3.4225636e-04   2.2542088e-04  -1.3644919e-03  -2.5060812e-05  -2.1807759e-04  -7.5483113e-04  -5.8269146e-04  -1.9831740e-04  -6.9965614e-04  -5.7719531e-04   3.9356973e-04  -5.9154932e-04   8.6627249e-04  -1.8305053e-03   7.0399494e-04  -9.0338610e-04   1.2363239e-04   3.0018095e-04  -1.1677521e-03  -4.1418101e-04  -9.9937071e-04  -4.9433635e-05   1.0334780e-03  -8.6167688e-04   5.8489841e-05  -2.7819641e-04   3.1668604e-03  -7.6359703e-04
   1.3727812e-03  -1.5690781e-05   1.0090914e-03   4.7081913e-04   7.5524440e-05  -7.8489241e-04   5.8976782e-04   2.6825551e-04   2.9147135e-03   1.2548449e-03   6.9194275e-04   8.5821311e-04   1.0431007e-03   3.1430437e-04  -4.1681921e-04   3.6722000e-04  -3.9575805e-04  -1.4689725e-03   5.9468434e-03  -2.8269971e-04  -2.3687638e-04  -5.6191586e-04  -7.3942036e-04  -2.1617192e-05  -1.4056127e-03  -3.5641796e-04  -3.4192411e-04  -5.7059713e-04  -1.4477611e-03  -4.3304916e-04   2.3548951e-04  -6.3696248e-04  -4.2812673e-05  -7.4506993e-04  -2.4728617e-03  -5.8795966e-04  -1.0581002e-04  -9.9919271e-04  -1.3076300e-04  -4.3185169e-04  -1.6838299e-03  -6.9478387e-04  -1.3584386e-03  -7.6043600e-04   6.8089232e-04  -1.4079252e-03  -1.4869096e-04  -5.6406262e-04   2.7868566e-03  -1.0942656e-03
   9.6156861e-04  -1.8469771e-04   1.0847419e-03   7.5240072e-04   5.4223841e-04  -5.9083791e-04   3.2761396e-04   3.1014679e-05  -2.9885671e-03   1.6040880e-03   9.1017800e-04   1.0317202e-03   1.3359658e-03   5.5981742e-04  -1.9206641e-04   7.2155474e-04   9.5919640e-05  -1.0691788e-03  -2.6511424e-04   5.4058468e-04   2.7112072e-04   4.0110113e-04   1.4101477e-04   6.3456729e-04   1.6647860e-04   2.1910357e-04   1.7424418e-04  -5.4859323e-04  -7.9667516e-04   1.1712908e-04  -2.0745322e-03   6.7682398e-05   8.5098745e-04  -5.1616685e-04  -1.4926414e-03   6.5347919e-04   1.7967111e-04  -3.8208011e-05   4.5187189e-04   2.5062074e-04  -5.6100450e-04  -1.9801033e-04  -7.2176184e-04  -2.5697993e-04   1.2020462e-03  -1.7025468e-03   1.7477894e-04  -1.3243374e-04   3.3110538e-03  -5.5871438e-04
   1.7459963e-03   4.2669210e-04   1.6425309e-03   1.2647188e-03   6.5565982e-04   1.7402736e-04   1.0661923e-03   2.4329391e-04  -3.1119145e-03   1.6929776e-03   1.0803955e-03   1.1559876e-03   1.2936611e-03   7.9336192e-04  -5.3422747e-04   7.1714731e-04  -4.2870652e-06  -9.7664853e-04  -1.3860719e-03   4.9436692e-04   1.8109909e-04   2.8540037e-04  -1.7075292e-04   5.5837416e-04  -4.6345222e-04   6.9182948e-05   1.1088774e-04  -4.7324001e-04  -7.9024123e-04   6.7591660e-05   4.3334009e-04  -3.9328280e-04   5.9337763e-04  -6.0220284e-04  -8.0566382e-04  -4.5189381e-04  -3.7564620e-04  -5.0977245e-04   2.6302677e-04   1.4347746e-04  -7.7980268e-04  -3.1738277e-04  -8.6356886e-04  -3.3146283e-04   1.2308264e-03  -2.0385885e-03   2.6963824e-05  -2.7622009e-04   2.9098063e-03  -7.1296818e-04
   1.0180986e-03   1.0060866e-04   1.2504706e-03   7.0646429e-04   4.6797788e-05  -5.3365226e-04   4.6335743e-04  -2.4004632e-05   6.1760671e-05   1.3475661e-03   8.8730024e-04   9.5861987e-04   1.0567766e-03   3.9050859e-04  -3.6015824e-04   5.2263349e-04  -2.5590128e-04  -1.4976682e-03  -1.2618845e-03  -2.2003854e-04  -1.7341618e-04  -4.0699096e-04  -5.0107570e-04   6.4547537e-05  -6.5992022e-04  -3.7224489e-04  -4.6847490e-04  -4.9995864e-04  -7.7956973e-04  -3.4151459e-04  -9.6924551e-04  -9.0925302e-04   3.6614980e-05  -8.1605115e-04  -7.6725177e-04  -1.2887778e-03   8.1719027e-04  -9.5275661e-04  -1.1990642e-04   4.5642469e-04  -1.4939664e-03  -6.7824672e-04  -1.5243059e-03  -1.0067699e-03   6.0474809e-04  -2.0984500e-03  -2.9643494e-04  -5.8847148e-04   2.7645717e-03  -1.0386675e-03
   5.5635592e-04  -3.7747328e-04   5.2689342e-04   6.3320666e-05   2.9049700e-04  -7.1110838e-04   4.2401886e-04  -3.5015499e-04   2.2137992e-03   8.9145807e-04   6.0525717e-04   7.2649686e-04   6.7420176e-04  -6.9429734e-06  -3.7340808e-04   1.9219976e-04  -7.1185583e-04  -1.7816187e-03   2.4040036e-03  -7.6713198e-04  -5.1801867e-04  -9.2754094e-04  -4.5767875e-04  -1.8669131e-04  -1.4333781e-03  -1.0013620e-03  -1.4207412e-04  -7.5332588e-04  -1.2326848e-03  -4.9873354e-04  -2.2873578e-04  -4.5912480e-04   1.7720228e-04  -1.4885732e-03  -2.1259701e-03  -1.0171100e-03   1.4045987e-04  -8.3214557e-04  -7.7815232e-05  -3.6795409e-05  -1.2760697e-03  -4.6313761e-04  -1.0967348e-03  -1.1816229e-03   8.9149497e-04  -7.0871791e-04  -1.3095327e-04  -4.4251283e-04   3.2021347e-03  -6.9809804e-04
   7.9212018e-04   1.1230275e-04   1.2683573e-03   1.0417181e-03   4.6358339e-04  -3.3116591e-04   8.3722192e-04   5.0233438e-04  -6.2906821e-03   1.4841403e-03   9.3565416e-04   1.0133624e-03   1.2306959e-03   4.3435802e-04  -1.4645695e-04   6.4198626e-04  -6.5175504e-05  -1.1376530e-03  -3.6023520e-03   2.3168615e-04   1.5483907e-05  -7.4466559e-05  -2.4975554e-05   3.4273570e-04  -5.6394277e-04  -1.8259042e-04   1.2312751e-04  -2.9526299e-04  -4.8963283e-04  -1.3536292e-04  -1.4454386e-03   8.0788421e-05   2.6679380e-04  -6.4580981e-04  -3.6324939e-04  -1.1654557e-04   4.2085312e-04  -5.8326666e-04   8.4426683e-05  -2.1146875e-04  -1.0504933e-03  -4.7322776e-04  -9.9973253e-04  -2.7713843e-03   8.2153623e-04  -2.0159229e-03  -1.8769781e-04  -4.8302268e-04   3.1192508e-03  -8.1594591e-04
   1.0259592e-03   4.9596514e-05   7.9795270e-04   8.4827055e-04  -1.7517748e-04  -5.8775151e-04   9.9233375e-04  -1.7593808e-05  -3.5437897e-03   1.3437162e-03   8.2676538e-04   9.6073857e-04   1.1056103e-03   3.7277420e-04  -3.9942138e-04   4.7947379e-04  -3.6862851e-04  -1.3846284e-03   3.1468591e-03  -1.6824575e-04  -1.3059209e-04  -3.2137369e-04  -3.9441860e-04   2.7815695e-04  -1.7648486e-03  -4.6233373e-04  -3.1421744e-04  -7.4793590e-04  -7.7161985e-04  -1.2761218e-04  -1.1249747e-03  -8.7548513e-04   4.2008993e-04  -1.3234079e-03  -1.6692205e-03   2.4906694e-04  -4.4841244e-04  -9.1711874e-04   5.6082677e-05  -3.7968630e-04  -1.6297969e-03  -7.2038284e-04  -1.3120238e-03  -2.0532859e-03   7.0590584e-04  -1.6870473e-03  -3.6906530e-04  -7.3786074e-04   2.7316655e-03  -1.0454094e-03
   1.0201669e-03  -1.6195369e-04   5.0440722e-04   3.9725396e-04  -2.5529633e-04  -1.1798576e-03   6.1721500e-04  -2.4607716e-04  -1.6685959e-03   9.7513071e-04   3.6044177e-04   8.0039765e-04   6.8608206e-04   4.5669265e-05  -3.9805577e-04   1.4157759e-04  -5.6149194e-04  -1.6311024e-03   1.1766606e-04  -7.1144890e-04  -5.1740673e-04  -8.7038835e-04  -6.2376965e-04  -9.2297509e-05  -1.2091949e-03  -8.8631868e-04  -1.8739804e-04  -1.1001023e-03  -6.5675133e-04  -6.6694623e-04  -8.1730151e-04  -1.5788702e-03  -2.6513275e-04  -1.6873819e-03  -2.0338970e-03  -1.1750920e-03  -4.5726600e-05  -1.3932581e-03  -3.3397341e-04  -6.3272374e-04  -2.0547570e-03  -1.0097180e-03  -1.7822052e-03  -6.0265628e-04   3.8219342e-04  -2.7948481e-03  -4.6039696e-04  -8.9418871e-04   2.6558351e-03  -1.1497046e-03
   7.9724292e-04  -4.4785126e-04   5.0913234e-04   2.8268326e-04   4.5317857e-04  -6.6445692e-04   6.4410979e-04  -2.8738778e-04  -1.7015090e-03   1.1057598e-03   6.6830631e-04   7.3307427e-04   8.9281186e-04   2.2380588e-04  -2.6734662e-04   3.7632417e-04  -3.9733987e-04  -1.4162895e-03  -9.7366405e-04   2.7979258e-05  -1.6523858e-05  -2.7717929e-04  -5.1534374e-04  -1.5982165e-05  -6.9832179e-04  -4.2115134e-04  -5.5324018e-04  -6.5992255e-04  -1.3684212e-03  -3.1708978e-04  -3.3243050e-04  -6.2108313e-04   5.4403453e-04  -1.0895493e-03  -9.1300247e-04   3.1708238e-05  -2.8444050e-04  -1.0295018e-03   2.3298358e-05  -2.6067285e-06  -1.3316048e-03  -6.7253795e-04  -1.3015850e-03  -2.3485112e-03   6.3111290e-04  -2.5709032e-03  -1.3753703e-04  -7.1650528e-04   2.6895953e-03  -9.4317837e-04
   6.5009081e-04  -2.9738879e-04   9.4881689e-04   4.3712277e-04   2.3357361e-04  -3.4006307e-04   3.7907256e-04   1.2984904e-04  -1.4879110e-03   1.0694898e-03   6.5237278e-04   6.7175203e-04   9.1349875e-04   1.4871459e-04  -5.0965173e-04   2.8747690e-04  -5.1896943e-04  -1.5267570e-03   1.9631378e-04  -1.6755775e-04  -2.1050232e-04  -5.1822170e-04  -6.4282905e-04  -6.9965288e-05  -6.0149487e-05  -4.8734210e-04  -2.5458820e-04  -9.6447370e-04  -1.0566583e-03  -3.7815768e-04   5.6174442e-05  -1.7842074e-04  -1.2216585e-04  -1.2479896e-03  -1.0286254e-03  -3.5492735e-04  -3.4746673e-04  -8.3866651e-04  -1.2399556e-04  -8.4279751e-04  -1.7167239e-03  -8.6678826e-04  -1.3263387e-03   3.4936992e-04   4.5684213e-04  -1.2202718e-03  -3.5738366e-04  -9.3687203e-04   2.7493080e-03  -1.2253458e-03
   2.5290067e-04  -5.1845587e-04   6.7251583e-04   6.8429181e-05  -7.5501757e-04  -9.7439782e-04   6.2878546e-04  -8.1912891e-05   3.4336392e-03   7.2877255e-04   3.8606735e-04   4.3428212e-04   5.9196883e-04  -7.1744464e-05  -7.2997925e-04   4.4453685e-05  -1.0339782e-03  -1.8523847e-03  -7.5297969e-05  -8.3957490e-04  -5.8194075e-04  -1.1540257e-03  -1.2248687e-03  -5.4362381e-04  -1.1405750e-03  -8.1203674e-04  -5.2501122e-04  -8.2885585e-04  -1.3397891e-03  -5.7940034e-04  -7.6800497e-04  -1.2002309e-03  -2.9478059e-04  -1.9118425e-03  -9.7488042e-04  -1.3245073e-03  -5.7461165e-04  -1.4285988e-03  -4.6285181e-04  -4.3635594e-04  -2.0338483e-03  -1.1589678e-03  -1.8926754e-03  -2.6407838e-03   8.0487443e-05  -2.2956198e-03  -7.2832470e-04  -1.2613875e-03   2.0597209e-03  -1.5869125e-03
  -4.3452351e-04  -7.1024685e-04   1.0105429e-04  -1.9606466e-04   3.0853343e-04  -1.1225217e-03   3.0886361e-04  -2.8210695e-04   1.3700005e-03   1.0422909e-03   3.8313671e-04   5.9819926e-04   6.7999051e-04   7.2983057e-05  -5.9481856e-04   2.4467357e-04  -6.7115587e-04  -1.5808200e-03  -2.3897779e-04  -6.6154993e-05  -6.8182118e-05  -1.8429651e-04  -5.6476716e-04  -2.8566848e-05  -8.5072720e-04  -4.2551677e-04  -2.5681523e-04  -8.2244631e-04  -8.9800329e-04  -2.8697943e-04  -1.0782346e-03  -6.4369949e-04   5.9695978e-04  -1.3542216e-03  -8.5298280e-04  -1.0354788e-03   2.3246680e-04  -1.0368017e-03   5.6134657e-05   6.3729234e-04  -1.0306067e-03  -6.3413859e-04  -1.2122940e-03  -7.4665766e-04   7.3113671e-04  -1.3126199e-03  -3.9029971e-04  -7.2445045e-04   2.7196237e-03  -9.4813481e-04
   3.6451497e-04  -1.7217056e-04   9.8432915e-04   6.6235941e-04   7.5581200e-05  -5.3271418e-04   6.6813047e-04   1.7422825e-04  -6.4803124e-03   1.1789291e-03   6.9868984e-04   7.4853684e-04   8.7029702e-04   1.7887521e-04  -2.6639228e-04   2.6754235e-04  -5.2651955e-04  -1.6027688e-03  -6.5349224e-03  -2.1995304e-04  -1.3652888e-04  -3.1996905e-04  -7.7707611e-04  -3.4194964e-05  -3.6291833e-04  -5.3034181e-04   1.5017504e-04  -1.1481702e-03  -8.6833508e-04  -2.4968307e-04  -4.2994527e-04  -9.7649288e-04   3.9889597e-04  -1.3963236e-03  -2.0646933e-03  -1.2074261e-03   2.8012507e-04  -8.7115442e-04   6.9554017e-06  -3.3035994e-04  -1.1723686e-03  -7.2895677e-04  -1.4198927e-03  -5.6398957e-04   5.2555942e-04  -2.7866431e-03  -5.5354735e-04  -8.8654540e-04   2.4734659e-03  -1.0941623e-03
   5.1494048e-04  -3.2678086e-04   4.6667608e-04   2.4341060e-04   1.2265083e-04  -6.5752730e-04   4.9529196e-04   1.8784554e-04   3.5804969e-03   9.5476472e-04   5.7914958e-04   6.3517375e-04   6.8890408e-04  -5.5641622e-06  -6.5495243e-04   9.6468277e-05  -7.3509704e-04  -1.6422520e-03   3.4146567e-03  -7.0778478e-04  -4.7924815e-04  -9.0015208e-04  -5.2102125e-04  -1.9476983e-04  -8.4858132e-04  -7.5597834e-04  -5.3673884e-04  -1.1145149e-03  -1.2282012e-03  -5.2224513e-04  -7.8795751e-04  -1.0118105e-03  -3.9702890e-04  -1.7241769e-03  -1.7413795e-03  -1.2702192e-03  -2.3755942e-04  -1.2402695e-03  -2.9386769e-04  -1.4362058e-04  -2.0705245e-03  -1.0970997e-03  -1.7533510e-03  -2.0611749e-03   1.2650854e-04  -2.8240716e-03  -8.6451590e-04  -1.2357004e-03   1.9371550e-03  -1.4376612e-03
   6.9616060e-04  -6.2295672e-04   1.3368081e-04  -8.8278510e-05   1.7150545e-04  -1.3518860e-03   1.4047780e-04  -1.6896774e-04   2.6373977e-03   7.1633974e-04   6.6867753e-05   4.7008149e-04   4.0201197e-04  -2.5434964e-04  -7.3970045e-04  -1.5518584e-04  -1.0800140e-03  -1.7741096e-03  -2.0895456e-03  -5.0415279e-04  -3.1888805e-04  -6.0099777e-04  -9.7252079e-04  -1.4871295e-04  -7.4132544e-04  -7.3825405e-04  -4.3551621e-04  -6.3468673e-04  -6.6314940e-04  -3.8080406e-04  -6.7582517e-04  -6.9471815e-04   1.2791944e-06  -1.4956399e-03  -1.5154723e-03  -7.1004115e-04   4.5844057e-04  -7.0796808e-04   9.8304927e-06  -7.9764682e-04  -1.3635809e-03  -7.2772941e-04  -1.0986140e-03  -8.6501896e-05   6.3391845e-04  -1.9445468e-03  -5.2997115e-04  -7.9948670e-04   2.8903659e-03  -8.9904235e-04
   1.3281811e-03  -7.9430138e-05   8.1632700e-04   6.7314744e-04   8.9494465e-04  -6.7064480e-04   1.0543567e-03  -5.3168726e-05   2.0505362e-03   1.2671751e-03   7.4894878e-04   7.8894990e-04   8.2997908e-04   2.5559709e-04  -3.1849812e-04   1.5423157e-04  -4.8678619e-04  -1.4705432e-03   1.9822058e-03  -1.2932479e-04  -1.4053534e-04  -2.7935358e-04  -5.0771871e-04   1.1673682e-04  -9.9598605e-04  -4.4262453e-04  -9.4128583e-05  -1.4846051e-03  -1.3073896e-03  -1.5672760e-04  -3.4463211e-04  -9.1310387e-05   1.1046166e-04  -1.4177060e-03  -8.3111052e-04   6.6801510e-04   5.8853027e-05  -9.0594782e-04   7.8993617e-05  -6.5587275e-04  -1.3033575e-03  -7.5215421e-04  -1.2134686e-03  -6.5802230e-04   5.6543766e-04  -2.2239154e-03  -5.6700694e-04  -9.6528156e-04   2.3391151e-03  -1.0282564e-03
   7.4155524e-04  -1.7364715e-04   7.4610650e-04   5.0805637e-04  -3.0607279e-04  -6.0775224e-04   9.1593247e-04   1.8687012e-04   3.3929218e-03   1.0458566e-03   6.0520699e-04   7.2312565e-04   7.8403763e-04   1.2420313e-04  -8.2305411e-04   2.5592948e-04  -5.9685117e-04  -1.6707942e-03  -1.0673279e-03  -5.5385195e-04  -3.5008899e-04  -7.1416772e-04  -6.1923801e-04  -1.1628523e-04  -1.6210692e-03  -6.5733003e-04  -2.3687720e-04  -9.7883563e-04  -1.3294651e-03  -3.7380579e-04  -1.8392233e-03  -7.0449081e-04  -2.0510526e-04  -1.6684011e-03   9.2715651e-05  -6.4961606e-04  -1.6446298e-04  -1.5034082e-03  -2.3023461e-04  -7.9740875e-04  -1.7826133e-03  -1.0097780e-03  -1.7631374e-03  -1.0777288e-03   2.6861156e-04  -9.3443296e-04  -8.6483429e-04  -1.2647514e-03   2.0172803e-03  -1.3659049e-03
   5.2028679e-04  -6.8225764e-04   1.1297355e-04  -2.5612154e-04  -3.0632372e-04  -1.3834996e-03   2.7650571e-04  -9.5100753e-04  -3.4375333e-03   5.1592436e-04   2.0553544e-04   3.5746090e-04   3.3154606e-04  -3.3381642e-04  -8.9132169e-04  -3.0376730e-04  -1.1185370e-03  -1.9694462e-03  -1.6651038e-03  -1.1174220e-03  -7.7705702e-04  -1.4495434e-03  -1.1967198e-03  -6.3480379e-04  -7.5935794e-04  -1.1682336e-03  -7.5199385e-04  -1.4273274e-03  -1.5459788e-03  -7.9398666e-04  -5.4112333e-04  -1.8878550e-03  -4.7266745e-04  -2.1006137e-03  -1.7706000e-03  -1.2382353e-04  -4.3594959e-04  -1.3060066e-03  -4.3078687e-04  -1.2194854e-03  -1.7254319e-03  -9.9576113e-04  -1.3199619e-03  -1.5478320e-03   3.5574872e-04  -2.8534634e-03  -4.8135506e-04  -9.5772580e-04   2.4951315e-03  -1.0015281e-03
   2.1993714e-04  -4.4802774e-04   7.3903048e-04   3.1044550e-04   4.5988188e-04  -7.4513210e-04   7.5090548e-04  -2.7835436e-05  -4.2344183e-03   9.0267748e-04   7.2553504e-04   5.3317059e-04   8.8396459e-04   2.1908947e-04  -4.9470592e-04   2.4568141e-04  -6.4154813e-04  -1.5075707e-03  -1.1274696e-03  -5.0742481e-05  -7.2027062e-05  -4.0910745e-04  -7.1353011e-04  -2.3618969e-04  -1.3125367e-03  -5.7195191e-04  -3.4310031e-04  -1.0852007e-03  -1.2766568e-03  -5.6130940e-04  -1.1966624e-03  -1.4743283e-03   1.4930146e-04  -1.1499117e-03  -1.5093706e-04  -8.0264319e-04  -2.9812451e-04  -1.3243741e-03  -1.0465157e-04  -4.9827970e-04  -7.9503824e-04  -7.5865688e-04  -1.3276041e-03  -5.4866157e-04   5.7929661e-04  -1.5250578e-03  -1.6216534e-04  -8.8566536e-04   2.4961301e-03  -1.0465687e-03
   1.3992224e-04  -3.7870041e-04   8.1092946e-04   2.3345377e-04  -5.7105598e-04  -6.7898794e-04   2.0005734e-04   3.6431086e-04   2.2726911e-03   9.0708333e-04   6.3962204e-04   4.5460078e-04   8.5571030e-04   3.7476482e-05  -6.3909288e-04   1.6317003e-04  -8.0498692e-04  -1.6789956e-03   3.2698866e-03  -3.1738888e-04  -2.2053997e-04  -5.5159314e-04  -8.6183537e-04  -1.5831110e-04  -1.0265497e-03  -5.9443142e-04  -5.3975330e-04  -1.0774498e-03  -1.0201135e-03  -5.0769967e-04  -4.6570008e-04  -9.4173907e-04  -1.8036544e-05  -1.3560558e-03   1.2322930e-04  -8.8470412e-04  -1.4251129e-04  -1.1920870e-03  -2.6747203e-04   1.2344621e-04  -1.9432612e-03  -9.7063731e-04  -1.2913782e-03   9.9712059e-05   4.9203250e-04  -2.8212119e-03  -3.9261693e-04  -1.0468403e-03   2.1730394e-03  -1.2145665e-03
   5.5502757e-04  -5.3801510e-04   6.8600720e-04  -5.6102974e-05   3.1245749e-05  -9.8548562e-04   2.4263906e-04  -8.3575503e-04   3.5575737e-05   6.8625715e-04   3.1220223e-04   4.1543003e-04   5.9534918e-04  -1.2632973e-04  -7.7139237e-04  -6.5240929e-05  -9.7973703e-04  -1.8523809e-03  -3.3094238e-03  -7.3306746e-04  -6.6497421e-04  -1.4554651e-03  -1.1157983e-03  -3.9736510e-04  -7.9372170e-04  -9.3917112e-04  -6.7200506e-04  -1.3230839e-03  -1.3918778e-03  -7.2302110e-04  -5.2056764e-04  -1.7218166e-03  -9.2738203e-04  -1.5528443e-03  -1.0007242e-03  -1.9369536e-03  -5.6300411e-04  -1.1627660e-03  -4.2149890e-04  -1.4887695e-03  -2.0035496e-03  -1.0568192e-03  -1.4748496e-03  -1.4090874e-03   2.1888624e-04  -1.9987440e-03  -3.8869397e-04  -1.0106184e-03   2.6898170e-03  -1.0563098e-03
   4.7467396e-04  -4.1296912e-04   6.6970929e-04   5.6675106e-04   1.3233442e-05  -5.0460931e-04   7.1349111e-04   4.7872763e-05   5.5728834e-03   1.1905136e-03   7.8850897e-04   6.6476257e-04   9.3113683e-04   2.8740393e-04  -3.8034498e-04   1.8487712e-04  -5.1871862e-04  -1.5755458e-03   3.9453972e-03   1.0858905e-04  -1.4077795e-04  -3.0317198e-04  -6.3251366e-04   1.4530124e-04   2.7975245e-04  -2.8493081e-04  -1.5462757e-04  -4.9474975e-04  -4.3978496e-04  -3.9015073e-04  -6.3048262e-04  -5.0216384e-04   1.3192506e-05  -1.0440670e-03   7.9258677e-04  -5.1351031e-04   5.4286589e-04  -7.6561485e-04   6.7568704e-05  -1.2130792e-04  -9.3015446e-04  -5.9841975e-04  -1.0354568e-03   1.1513799e-03   6.0433842e-04  -1.7854394e-03  -1.9615459e-04  -7.4196461e-04   2.5638766e-03  -8.1246573e-04
   5.9595035e-04  -8.1301339e-05   7.8288681e-04   6.0661108e-04   3.4070859e-04  -8.0711133e-04   3.5834860e-04   4.1121559e-05   2.2803883e-03   1.2111460e-03   7.9276157e-04   7.4025267e-04   8.4369630e-04   2.1037461e-04  -7.0377102e-04   2.9705674e-04  -3.6051398e-04  -1.4653207e-03  -4.0098384e-04  -1.1681214e-04  -2.7972067e-04  -5.1486742e-04  -4.0068448e-04  -8.7374028e-06  -1.1257735e-03  -5.9989007e-04  -1.3453902e-04  -7.1930472e-04  -7.0477067e-04  -2.7121205e-04  -9.4749761e-04  -4.5698279e-04  -1.9846832e-04  -1.5171733e-03  -1.0831859e-03  -1.6812099e-03  -3.2120245e-04  -1.2663521e-03   1.8329835e-06  -1.3028978e-03  -1.5378859e-03  -7.6024071e-04  -1.2785847e-03  -1.0543256e-03   6.0117559e-04  -2.8785781e-03  -3.5950614e-04  -7.8359450e-04   2.2374559e-03  -9.5801882e-04
   5.3310022e-04  -3.2779737e-04   5.2203826e-04   2.0261564e-04   3.6135557e-04  -1.3837529e-03   6.1010406e-04  -1.3283435e-04  -3.8087508e-03   9.0941298e-04   5.1284255e-04   5.8083562e-04   6.4831245e-04  -3.8774411e-05  -4.8647806e-04   6.5048538e-05  -6.7976105e-04  -1.7251063e-03  -9.6053322e-04  -5.9536245e-04  -6.3176808e-04  -1.1241941e-03  -1.0592319e-03  -1.7085699e-04  -9.4965467e-04  -6.6158985e-04  -2.1267821e-04  -1.1338225e-03  -1.7022243e-03  -6.2822434e-04  -1.4636340e-03  -1.3593874e-03  -2.0647376e-04  -1.7233610e-03   1.6810435e-04  -8.4713649e-04  -7.6110143e-04  -1.6966868e-03  -2.9817128e-04  -8.2877092e-04  -1.8470651e-03  -1.0847935e-03  -1.6535341e-03   2.3243060e-04   3.2078134e-04  -2.3822826e-03  -6.5034110e-04  -1.1542685e-03   1.9155592e-03  -1.3934008e-03
  -1.4755125e-04  -5.7901291e-04   1.9819404e-04  -2.5004061e-04  -1.7009399e-04  -1.1115377e-03  -2.4595484e-04  -5.6045927e-04  -4.8484953e-04   9.4708474e-04   1.6593641e-04   5.3396169e-04   6.0225144e-04  -1.8306746e-04  -7.5852138e-04  -7.2825055e-06  -6.1461068e-04  -1.7709206e-03  -2.0525400e-03  -1.7929028e-04  -3.1946902e-04  -5.5022846e-04  -6.5507152e-04   7.6011209e-05  -2.0420374e-03  -4.2019243e-04  -5.1710347e-04  -7.7572605e-04  -6.0173590e-04  -4.1262325e-04  -9.0691482e-04  -9.6938520e-04  -1.1019787e-04  -1.6091805e-03  -6.9395974e-05  -2.2923414e-04   2.8229371e-04  -1.0162934e-03   2.8788370e-05  -3.1696740e-04  -1.1323027e-03  -6.3528615e-04  -1.0703380e-03   1.1582811e-04   6.7560212e-04  -1.9512810e-03  -3.0367894e-04  -7.4228295e-04   2.6230051e-03  -9.0597011e-04
   1.3176196e-04  -2.5437610e-05   1.0321907e-03   7.4275857e-04  -1.2920578e-05  -7.4171944e-04   2.9290380e-04  -1.5536580e-05  -1.4362250e-03   1.1575957e-03   6.0270552e-04   7.1461982e-04   9.4147085e-04   1.4392959e-04  -7.6201756e-04   3.5518865e-04  -3.2101365e-04  -1.3814161e-03   1.3246755e-03  -5.7592773e-05  -2.9537006e-04  -5.1133893e-04  -2.7118065e-05   2.3456025e-05  -1.1512445e-03  -5.0541182e-04  -1.3232515e-04  -3.3936140e-04  -4.2395864e-04  -1.9818589e-04  -1.5713923e-03  -1.0890984e-03  -4.1352825e-05  -1.3350468e-03  -1.8313676e-03  -2.0495230e-04  -6.0092489e-04  -8.4518740e-04  -4.3343007e-06  -8.1318081e-05  -1.0318956e-03  -7.1702193e-04  -1.2741588e-03   6.3709987e-05   6.4464397e-04  -1.5529477e-03  -3.7801312e-04  -8.0668967e-04   2.1333711e-03  -1.0698680e-03
   1.0447908e-03  -1.3338265e-04   8.6204149e-04   6.1202236e-04   8.0799058e-05  -8.9561200e-04   4.6996237e-04   5.4824482e-06  -1.4155604e-03   9.5843017e-04   3.7083321e-04   6.4434373e-04   7.6114049e-04  -1.1461720e-05  -3.8786244e-04   2.0490734e-04  -4.8470314e-04  -1.6456685e-03  -1.5485744e-03  -3.7888778e-04  -5.1445427e-04  -8.2024909e-04  -4.0749041e-04  -1.3772611e-04  -2.5289760e-03  -5.9696188e-04  -4.6826684e-04  -5.9271290e-04  -1.0943381e-03  -4.4541148e-04  -1.5347481e-03  -1.2633330e-03  -3.1075132e-04  -1.3664997e-03  -1.0415219e-03  -1.2576688e-03  -3.5834333e-04  -1.1354946e-03  -7.6610791e-05  -7.8761502e-04  -1.9619563e-03  -1.0468700e-03  -1.5748615e-03  -9.3931699e-04   1.7696081e-04  -2.7997892e-03  -6.5073022e-04  -1.1190469e-03   2.1994130e-03  -1.3594048e-03
   5.1359339e-06  -4.5213979e-04   7.2425595e-05   2.0287041e-05   5.7653895e-05  -8.4263022e-04   1.1451430e-04  -4.4851631e-04  -4.8403810e-03   6.1192538e-04   9.4663999e-05   4.9147324e-04   5.2798301e-04  -3.6605861e-04  -9.2353090e-04  -8.4075087e-05  -9.3998696e-04  -1.8867841e-03   8.6352631e-04  -8.1002084e-04  -7.3012419e-04  -1.1716239e-03  -4.8822782e-04  -2.6694214e-04  -2.7227309e-04  -8.2347909e-04  -8.2916627e-04  -6.3080963e-04  -1.5558386e-03  -5.7658803e-04  -1.4588370e-03  -3.0389859e-04  -5.5897335e-04  -1.6956571e-03  -1.8583611e-03  -4.7787945e-04  -8.5407536e-04  -8.3754491e-04  -8.2872779e-05  -2.1848896e-04  -1.3165551e-03  -7.5914332e-04  -1.3736167e-03  -1.2149161e-03   6.2806555e-04  -2.2949202e-03  -4.5570414e-04  -8.7621179e-04   2.3894669e-03  -1.0223772e-03
   6.5614248e-04   9.3206880e-05   1.1063041e-03   9.4690925e-04   5.1456597e-04  -2.7166476e-04   7.6391653e-04  -3.8911332e-04   3.8209120e-03   1.2271282e-03   4.6219162e-04   7.2369550e-04   8.9589221e-04   1.3874276e-04  -4.0873472e-04   3.3040170e-04  -3.2179663e-04  -1.3787304e-03  -3.8664939e-03  -2.9671135e-05  -3.3102839e-04  -5.1235489e-04  -5.2753696e-04   1.0266390e-04  -1.2798978e-03  -2.5419815e-04  -2.9901398e-04  -8.9041051e-04  -1.2439811e-04  -8.2418723e-05  -7.3513540e-04  -7.4073439e-04  -2.8998640e-04  -1.4287251e-03   1.8593069e-04  -1.1787856e-03  -9.6460950e-04  -1.1228221e-03   9.7721801e-05   1.6627258e-05  -1.1763487e-03  -7.9508871e-04  -1.1819499e-03  -1.1784873e-03   6.5329572e-04  -1.1784028e-03  -5.1376328e-04  -9.2341466e-04   2.2201787e-03  -9.5975702e-04
   8.0777687e-04   6.8395959e-05   8.0389087e-04   6.8687677e-04   3.8532610e-04  -5.5311446e-04   7.5112015e-04  -2.4418221e-04  -3.6608233e-04   1.1160077e-03   3.5824499e-04   6.9113984e-04   7.9759583e-04   1.4100016e-04  -5.0085312e-04   2.5722780e-04  -4.8272082e-04  -1.5694682e-03   1.4242624e-04  -3.4282982e-04  -4.8324370e-04  -7.2136836e-04  -7.5724447e-04  -1.4245544e-04  -1.7878113e-03  -4.4385553e-04  -2.2396170e-04  -4.1069571e-04  -9.3075196e-04  -1.2643376e-04  -9.9744101e-04  -9.4456767e-04  -8.1934710e-04  -1.8705843e-03  -1.6504527e-03  -9.8782964e-04  -4.4659965e-04  -7.3547283e-04  -1.2338733e-04  -9.4654603e-04  -1.5846317e-03  -1.0427301e-03  -1.5966546e-03  -6.7489780e-04   3.4278887e-04  -2.8161609e-03  -7.8276446e-04  -1.1589248e-03   1.9081491e-03  -1.3629827e-03
   5.5416737e-04  -2.2330570e-04   5.4088462e-04   3.6999234e-04  -8.8871086e-05  -7.2287250e-04   1.8590571e-04  -3.2081470e-04  -2.8408205e-03   7.6876674e-04   1.6375490e-04   5.2072707e-04   5.8034761e-04  -2.7892430e-04  -1.0173831e-03  -9.9346609e-05  -7.1611768e-04  -1.7920452e-03  -1.1356027e-03  -8.0485200e-04  -7.5617631e-04  -1.2311542e-03  -1.1682673e-03  -1.7562434e-04  -8.8363048e-04  -9.3224173e-04  -6.1368285e-04  -8.9788565e-04  -8.6288806e-04  -6.2630378e-04  -7.5106713e-05  -1.0921521e-03  -2.7448937e-04  -1.8991412e-03  -2.0565081e-03  -1.4913693e-03  -1.8819563e-04  -7.2934589e-04  -1.3123450e-04  -3.8311016e-04  -1.3384384e-03  -9.0489170e-04  -1.3243370e-03  -1.6038500e-03   4.6152738e-04  -1.5714888e-03  -6.1939855e-04  -1.0611257e-03   2.3611207e-03  -1.1592576e-03
   1.2810900e-03   1.9431995e-04   1.2141088e-03   1.0098449e-03   4.2979431e-04  -7.5541635e-04   6.8034144e-04  -1.1525438e-04   9.7256729e-05   1.1860376e-03   4.9459451e-04   7.3018915e-04   8.2438847e-04   2.1201551e-04  -3.1357378e-04   4.3071961e-04  -3.9942077e-04  -1.3597487e-03   3.3439558e-03  -5.3330692e-05  -2.5844542e-04  -3.5408526e-04  -5.7885685e-04   4.0822815e-05  -8.2644005e-04  -4.9742626e-04   2.2476524e-05  -6.2017195e-04  -5.7670940e-04  -7.3888397e-05  -4.8559092e-04  -1.4357669e-03  -1.8392650e-04  -1.3731222e-03  -3.4349243e-04   1.1494332e-04   3.8919548e-04  -8.7955158e-04   8.8902831e-05   1.1652440e-04  -1.6212891e-03  -9.2710333e-04  -1.3874419e-03  -1.3069635e-03   6.5100344e-04  -3.4162044e-03  -6.9291616e-04  -1.0617416e-03   2.0384146e-03  -1.1378659e-03
   6.0088135e-04   3.7424474e-05   9.9740329e-04   8.7724469e-04   1.8329883e-04  -4.2351053e-04   1.0433415e-04  -2.4161207e-04   2.1062735e-03   9.6898439e-04   2.9092361e-04   6.0646370e-04   7.6131482e-04   1.8059472e-04  -2.9675764e-04   3.3694285e-04  -3.6214519e-04  -1.3858456e-03  -3.4162395e-03  -3.5960512e-04  -3.8340976e-04  -5.6549115e-04  -5.1006145e-04  -1.3988525e-04  -2.1532310e-04  -5.1927118e-04   9.0157861e-05  -7.9611712e-04  -6.2349340e-04  -3.9428120e-04  -4.4859882e-04  -1.7506083e-03  -2.6576026e-04  -1.3630526e-03  -2.0113997e-03  -1.4221652e-03  -9.8401315e-06  -1.0991148e-03   5.1634041e-05  -1.1815346e-03  -1.8647917e-03  -1.2309635e-03  -1.8809573e-03  -1.6430154e-04   3.0836670e-04  -2.7409995e-03  -9.6526422e-04  -1.4355066e-03   2.1721853e-03  -1.4494382e-03
   8.6055475e-04  -2.2087929e-04   4.2534751e-04   3.5717501e-04   1.9433393e-04  -6.5167143e-04   1.4252937e-04  -2.0591335e-04   1.5237555e-03   7.0735399e-04   8.1055616e-05   5.0073420e-04   5.7372963e-04  -3.0882310e-04  -8.2556641e-04   6.0173636e-05  -7.4299221e-04  -1.7098404e-03  -3.0310238e-03  -7.6093129e-04  -5.6281674e-04  -8.3478674e-04  -7.6059072e-04  -1.4402586e-04  -1.0045893e-03  -9.3613751e-04  -2.5990125e-04  -8.5501379e-04  -7.4925151e-04  -6.1126077e-04  -5.0070108e-04  -3.8019527e-04   3.9657421e-04  -1.2654451e-03  -1.1743801e-05  -1.1577172e-03  -4.9750687e-04  -8.6652837e-04   8.9914749e-05  -5.1692728e-04  -1.2962252e-03  -1.0252979e-03  -1.5781756e-03   8.2773634e-04   8.3922956e-04  -2.9628733e-03  -7.6497596e-04  -1.1492727e-03   2.4758605e-03  -1.1440283e-03
   1.1778596e-03   3.1104923e-04   1.1548338e-03   1.3302688e-03   5.0729711e-04  -1.0788813e-04   9.4361446e-04   7.8866149e-05  -7.9635298e-03   1.2814255e-03   5.1614194e-04   7.9706253e-04   1.1206028e-03   4.5175443e-04  -4.1967077e-04   4.5256698e-04  -1.3503028e-04  -1.1350643e-03   2.0732600e-03   5.3926797e-05  -7.3133720e-05  -1.0239566e-04  -5.9261700e-05   1.4972227e-04   2.7898457e-04  -2.2745595e-04  -1.7825022e-04  -7.0029229e-04  -5.4257782e-04   1.3785438e-04  -7.4618385e-04  -9.1899361e-04   2.6588191e-04  -1.2871779e-03  -2.7801172e-04  -1.5298019e-03  -3.9137181e-04  -8.1048568e-04   2.7631459e-04  -8.6776199e-05  -1.1325736e-03  -9.3443686e-04  -1.5137659e-03  -1.1982182e-03   7.3017163e-04  -1.1679606e-03  -7.9001108e-04  -1.2049283e-03   2.4106803e-03  -1.1887166e-03
   1.0773453e-03   2.7755465e-04   8.8258047e-04   1.1780240e-03   1.6348281e-04  -3.5387781e-04   5.1702937e-04   3.8572011e-04  -1.4887386e-03   1.1121264e-03   4.9066986e-04   7.4049039e-04   8.8427856e-04   3.9736199e-04  -5.1713432e-04   3.2753110e-04  -3.0503274e-04  -1.3290554e-03  -4.7515701e-03  -2.3016127e-04  -2.4712112e-04  -2.6382785e-04  -2.1008489e-04   6.0216906e-05  -1.3249636e-03  -4.6508494e-04   9.3314702e-06  -2.5141533e-04  -9.3162316e-06  -6.7074587e-05  -1.2285077e-03  -1.0118496e-03  -3.1853549e-04  -1.2538899e-03  -1.5863558e-04   1.1822033e-04   6.4822219e-05  -9.3581364e-04   8.6621403e-05   1.1425933e-04  -1.8875129e-03  -1.2294181e-03  -1.6903193e-03  -1.6634468e-03   7.3772058e-04  -2.6647968e-03  -1.0495767e-03  -1.5456679e-03   2.1473642e-03  -1.4736534e-03
   6.9385144e-04  -6.1340502e-06   5.9696124e-04   4.3531126e-04   2.4016282e-04  -5.4212770e-04  -1.3294983e-04  -2.3556499e-04  -1.5352885e-03   7.9947553e-04   1.2215304e-04   5.6756812e-04   6.0597860e-04  -1.9738463e-05  -5.7178480e-04   2.0458424e-04  -6.2341744e-04  -1.5252866e-03   2.4336661e-04  -6.8579090e-04  -5.7032605e-04  -7.9533970e-04  -9.1384561e-04  -1.9324604e-04  -6.6748378e-04  -7.1169733e-04  -4.3877962e-04  -4.1472723e-04  -7.6669303e-04  -4.2757666e-04  -1.0789775e-03  -5.8175711e-04  -3.9807797e-04  -1.5867671e-03  -1.8729371e-03  -1.7151240e-03   3.4602472e-04  -7.6152908e-04   1.1082621e-04  -6.4533451e-05  -1.3821725e-03  -1.0388786e-03  -1.6628181e-03  -3.2742137e-05   9.4058894e-04  -2.0523246e-03  -8.4806734e-04  -1.3163738e-03   2.3864531e-03  -1.0647430e-03
   1.3465870e-03   4.3782231e-04   1.4769702e-03   1.5798752e-03   2.6756743e-04  -2.7442355e-05   9.0032746e-04   9.7345197e-05   2.1055636e-03   1.3780218e-03   7.1207411e-04   8.9473272e-04   1.0859816e-03   5.4603833e-04  -2.9222597e-04   7.3348632e-04  -2.7597900e-05  -1.1161607e-03   4.5070397e-03   2.3305154e-04   7.2925024e-05   2.1704490e-04  -2.3692710e-05   2.9182842e-04   2.2135445e-04  -3.7832055e-05   1.7923882e-04  -2.4944343e-04   2.1668861e-04   1.0325912e-04  -1.0988439e-03  -1.6146763e-05   6.8172446e-04  -9.2360220e-04   1.4124266e-04  -1.3814236e-03   6.3668709e-04  -5.0041085e-04   3.4514553e-04  -1.4318325e-04  -1.1452853e-03  -9.4521156e-04  -1.5697608e-03   1.3369024e-04   9.5238956e-04  -2.4169865e-03  -7.9727004e-04  -1.3077374e-03   2.7526347e-03  -9.7027840e-04
