   3.6895700e-04   4.3149278e-04   4.9456168e-04   3.6235846e-04   3.0142631e-04   1.9464921e-04   3.1623291e-04   9.4881936e-05   4.3721069e-04   5.3398905e-04   3.0780409e-04  -5.6303423e-05  -8.7206136e-05   5.3112362e-05  -3.2871211e-04   1.7530279e-04   4.0029705e-04   6.0884532e-04   4.5852811e-04   5.1246613e-04   9.7007694e-04   1.1368670e-03  -4.1931244e-06   1.1977497e-04   1.1840363e-04   5.2518438e-04  -7.9823186e-04  -2.6890379e-04   2.6112146e-04   1.6448578e-04  -1.2043220e-03   4.7622155e-04   6.9163501e-04   2.7941254e-03  -4.1894411e-04   2.7429953e-04  -3.6168395e-04   4.9397146e-04  -6.9704111e-04  -5.6731084e-04   4.7901704e-05   1.1940190e-04  -1.0080147e-04  -8.5316839e-05   1.1097292e-03   1.0684105e-03   4.2326501e-04  -1.9552300e-04   5.9486355e-04   6.8097981e-04
   2.5818028e-04   2.1114883e-04   2.9410719e-04   1.5146658e-04   1.5972668e-04   3.8068989e-05   1.7049258e-04  -2.8175979e-05   2.4388554e-04   2.7443396e-04   8.4426596e-05  -2.2628307e-04  -2.3074678e-04  -6.4203181e-05  -4.3564994e-04   3.1406376e-05   2.3351551e-04   4.3433812e-04   2.8286202e-04   3.5338005e-04   8.1214862e-04   9.4372802e-04  -1.3455532e-04   3.4960842e-06  -4.5244447e-05   3.6686755e-04  -8.3249941e-04  -3.0830866e-04   1.8367333e-04   9.7695207e-05  -1.2506164e-03   4.4570322e-04   7.1791117e-04   2.7794759e-03  -3.5345429e-04   2.9172693e-04  -2.7107564e-04   5.4719875e-04  -4.4979644e-04  -4.5409793e-04   2.2940768e-04   2.9545272e-04   5.9985934e-05   2.5824696e-04   1.3268065e-03   1.2250895e-03   6.8238360e-04   5.5754248e-05   7.4953580e-04   9.3137677e-04
   4.7629702e-04   5.3305033e-04   5.3482439e-04   4.0891170e-04   3.5253036e-04   2.9135402e-04   4.0344783e-04   1.5754826e-04   6.0203561e-04   5.8692449e-04   4.0776443e-04   3.4192013e-05  -1.4263330e-05   1.0746195e-04  -2.7481673e-04   2.5125037e-04   4.2927606e-04   6.4803462e-04   5.9713295e-04   5.7373970e-04   9.9548313e-04   1.1478784e-03   9.9546160e-05   2.2705026e-04   2.0132448e-04   5.8622338e-04  -7.3933980e-04  -2.0008010e-04   3.5297079e-04   2.4541400e-04  -1.1602968e-03   5.9156987e-04   8.4522215e-04   2.9246162e-03  -2.7472293e-04   4.1496035e-04  -2.2702031e-04   6.2353589e-04  -5.9444655e-04  -4.1361322e-04   2.5704203e-04   3.4147181e-04   1.3844772e-04   1.8739232e-04   1.2899868e-03   1.3102756e-03   6.6418695e-04   6.4611915e-05   7.4068143e-04   8.8593870e-04
   4.0978272e-04   3.7845399e-04   4.6705242e-04   3.1313312e-04   3.0596284e-04   1.8890327e-04   3.0665475e-04   1.1642104e-04   5.0564832e-04   4.6408380e-04   3.0301994e-04  -5.0942141e-05  -6.4405416e-05   7.7156903e-05  -3.2004615e-04   2.2281612e-04   3.9138162e-04   6.1471574e-04   4.7831470e-04   5.0246832e-04   9.0252422e-04   1.0573724e-03   4.5606113e-05   1.1827765e-04   1.1646587e-04   5.0735963e-04  -7.7397859e-04  -2.3481612e-04   3.0377827e-04   1.9743155e-04  -1.2217900e-03   5.0541415e-04   7.3134655e-04   2.8228839e-03  -3.6502507e-04   2.6489227e-04  -3.1337884e-04   5.1974016e-04  -6.2741706e-04  -5.2836863e-04   1.0175761e-04   2.0432961e-04  -5.4373158e-05  -2.8132528e-05   1.0711901e-03   1.1026467e-03   3.6235599e-04  -2.3199788e-04   6.7194871e-04   7.3907315e-04
   2.2968894e-04   2.2183340e-04   2.6998422e-04   1.3360249e-04   1.7732846e-04   5.1063522e-05   1.8133459e-04  -2.8625009e-06   2.5821349e-04   2.5384498e-04   1.0670399e-04  -2.0875956e-04  -1.8083132e-04  -3.1308846e-05  -3.9159149e-04   1.1920440e-04   2.6603905e-04   4.9454113e-04   4.3513050e-04   4.4091151e-04   8.8111538e-04   1.0301871e-03   6.8596478e-06   1.6344333e-04   1.0883834e-04   4.8445392e-04  -7.8059826e-04  -2.1036151e-04   3.1122507e-04   2.2018772e-04  -1.1767409e-03   5.7129026e-04   8.2467793e-04   2.9463915e-03  -2.0443664e-04   4.0902439e-04  -1.3461798e-04   6.5167539e-04  -4.3474429e-04  -3.4651216e-04   3.1374968e-04   4.2729030e-04   1.7662584e-04   4.3755976e-04   1.4316791e-03   1.3764212e-03   7.2301907e-04   2.1792414e-04   7.3705293e-04   9.6154952e-04
   5.2157213e-04   5.4783293e-04   5.3312309e-04   4.3118119e-04   3.9069122e-04   2.9972670e-04   4.3375796e-04   2.0122596e-04   6.2187552e-04   5.8288081e-04   4.4990401e-04   4.5068926e-05   4.7255311e-05   1.5018764e-04  -2.3512071e-04   3.3950226e-04   4.7787020e-04   7.2206819e-04   6.5661018e-04   5.9979799e-04   9.3373930e-04   1.1547147e-03   1.8389615e-04   2.8664927e-04   2.7145716e-04   6.2432821e-04  -6.8831269e-04  -1.3372875e-04   4.5682103e-04   3.1474055e-04  -1.1093271e-03   6.4869336e-04   8.5108040e-04   2.9948214e-03  -2.2133953e-04   4.4262377e-04  -1.6518908e-04   6.9735065e-04  -5.9351191e-04  -3.2981220e-04   3.2522524e-04   4.7299589e-04   2.0159069e-04   3.1381808e-04   1.4154767e-03   1.4017560e-03   6.9504121e-04   1.2874314e-04   9.2205824e-04   9.7480026e-04
   4.6654418e-04   4.5154305e-04   4.6745242e-04   3.5723805e-04   3.4365870e-04   2.2172787e-04   3.5608292e-04   1.5190557e-04   5.3340971e-04   4.9657730e-04   3.7481508e-04  -2.0565943e-05  -4.1477138e-06   1.2269689e-04  -2.6256265e-04   3.0366125e-04   4.4777873e-04   6.7592546e-04   5.2993727e-04   5.1682920e-04   8.2895951e-04   1.0392265e-03   1.0553291e-04   1.6483778e-04   1.5690485e-04   5.3039199e-04  -7.2801387e-04  -1.9827814e-04   3.6012218e-04   2.3618665e-04  -1.1830481e-03   5.4991100e-04   7.1465690e-04   2.8646393e-03  -3.1858089e-04   3.2121807e-04  -2.6062987e-04   5.9138052e-04  -5.7778956e-04  -4.8616590e-04   1.5423060e-04   2.7626927e-04   2.1438473e-05   1.4422451e-05   1.2210734e-03   1.2388967e-03   4.4940176e-04  -1.3757915e-04   7.6221809e-04   7.6733070e-04
   2.8464390e-04   2.5251857e-04   3.0125558e-04   1.8611336e-04   2.2897164e-04   1.0152087e-04   2.3389231e-04   3.4429770e-05   4.1469085e-04   3.8236086e-04   2.3311152e-04  -1.1115114e-04  -6.2765270e-05   6.2123952e-05  -3.2191983e-04   2.8556463e-04   4.0784129e-04   6.2954042e-04   6.7193888e-04   5.6283223e-04   8.7156933e-04   1.1197064e-03   2.0137509e-04   2.9535434e-04   2.9417415e-04   6.3345715e-04  -6.6398812e-04  -1.1526623e-04   4.8715866e-04   3.3347751e-04  -1.1051282e-03   6.8678806e-04   9.0829207e-04   3.0718872e-03  -1.1462079e-04   5.3915055e-04  -7.3610834e-05   7.6804496e-04  -4.8338508e-04  -2.4972923e-04   3.9832227e-04   5.0063134e-04   3.0561013e-04   4.3817790e-04   1.5321242e-03   1.6255276e-03   9.2093076e-04   3.6393313e-04   8.4352074e-04   1.1058429e-03
   6.2088802e-04   5.9284782e-04   5.8674114e-04   4.9907831e-04   4.5416722e-04   3.6671618e-04   4.8809691e-04   2.3792245e-04   7.1165751e-04   6.9835992e-04   5.6786678e-04   1.2123551e-04   1.3492249e-04   2.2939249e-04  -1.5429371e-04   4.5099546e-04   5.8749993e-04   8.1998622e-04   7.9228939e-04   6.5632438e-04   8.9182705e-04   1.1833395e-03   3.0447761e-04   3.5113926e-04   3.4356079e-04   7.0002006e-04  -6.0574355e-04  -9.0447458e-05   5.6534191e-04   3.6710914e-04  -1.0514348e-03   7.4919488e-04   8.4925629e-04   3.1026546e-03  -1.8074828e-04   5.2504416e-04  -1.3728051e-04   7.8355474e-04  -6.5325230e-04  -2.5737719e-04   3.6156096e-04   5.4190942e-04   2.6506660e-04   3.6736598e-04   1.5243704e-03   1.5765135e-03   8.5717969e-04   2.1566833e-04   9.0040831e-04   9.7360503e-04
   5.9641647e-04   5.0094270e-04   5.3081033e-04   4.3878745e-04   4.1082239e-04   2.9967076e-04   4.1100878e-04   2.0475862e-04   6.0403941e-04   5.9046311e-04   4.7387928e-04   5.3423570e-05   7.6859636e-05   1.8416930e-04  -2.3294432e-04   3.9060492e-04   5.2963721e-04   7.5193070e-04   6.2257989e-04   5.5294082e-04   8.2564476e-04   1.0474942e-03   2.1680277e-04   2.0867876e-04   2.0725124e-04   5.9116894e-04  -6.6757604e-04  -1.5845185e-04   4.6249424e-04   2.7753555e-04  -1.1369627e-03   6.2822399e-04   6.9366104e-04   2.9590491e-03  -2.8346790e-04   4.0231139e-04  -2.5131844e-04   6.7283527e-04  -6.2104687e-04  -4.0499249e-04   1.6979160e-04   3.4388792e-04   3.7527901e-05   3.2094144e-05   1.3924757e-03   1.3742042e-03   6.0198945e-04  -2.2270733e-05   6.0692657e-04   8.3803479e-04
   4.0799577e-04   2.8918913e-04   3.5387336e-04   2.6469020e-04   2.8720120e-04   1.8511186e-04   2.8408831e-04   8.8049812e-05   4.3636616e-04   4.2119506e-04   2.9747849e-04  -6.6317632e-05  -2.5459776e-05   8.9780755e-05  -2.9012878e-04   3.2523615e-04   4.4505738e-04   6.7261187e-04   6.9715781e-04   5.5075256e-04   8.2945602e-04   1.1088083e-03   2.6737154e-04   3.2437535e-04   2.9413326e-04   6.6187402e-04  -6.4247596e-04  -8.9111461e-05   6.0170487e-04   3.5099528e-04  -1.0743231e-03   7.3677168e-04   8.4409636e-04   3.1320571e-03  -8.1707731e-05   6.1742327e-04  -2.3119104e-05   8.4399281e-04  -4.7825801e-04  -1.8870633e-04   4.0449714e-04   6.1647262e-04   2.8483057e-04   6.2383228e-04   1.7257680e-03   1.6082660e-03   9.8214194e-04   4.7722645e-04   8.6264260e-04   1.0810668e-03
   8.0932351e-04   7.1061827e-04   6.8087608e-04   6.2416238e-04   5.5103091e-04   4.8162678e-04   5.8281183e-04   3.6256723e-04   8.5108739e-04   7.9318363e-04   6.8839412e-04   2.2982937e-04   2.1123516e-04   3.1614379e-04  -1.1326302e-04   5.5323180e-04   6.6452741e-04   9.0203591e-04   8.4420340e-04   6.6517165e-04   9.1704092e-04   1.2263984e-03   4.1163090e-04   4.3282221e-04   4.3522619e-04   7.8269304e-04  -5.3592952e-04  -4.1775682e-05   6.6023861e-04   4.1237791e-04  -9.9991844e-04   8.2700187e-04   8.9980051e-04   3.1745082e-03  -1.1490520e-04   6.0197647e-04  -8.6026645e-05   9.1490819e-04  -6.2491430e-04  -1.3987660e-04   4.0920649e-04   6.2310259e-04   3.0641071e-04   4.4693140e-04   1.6736106e-03   1.6663913e-03   9.6879253e-04   3.4669688e-04   9.0085721e-04   1.0884317e-03
   7.5015501e-04   5.9733499e-04   6.3022657e-04   5.4221437e-04   5.0400326e-04   4.0586662e-04   5.1213050e-04   3.0096012e-04   7.0348289e-04   6.7485642e-04   5.7892682e-04   1.6879967e-04   1.5188595e-04   2.8533730e-04  -1.4955002e-04   5.0035160e-04   6.1418820e-04   8.4544043e-04   7.0503802e-04   5.7086954e-04   8.4772677e-04   1.1047602e-03   3.1931422e-04   2.7822983e-04   2.9359767e-04   6.8381452e-04  -5.9991411e-04  -9.5324634e-05   5.9998722e-04   3.3473462e-04  -1.0893169e-03   7.1882771e-04   7.8364048e-04   3.0267648e-03  -2.0593821e-04   4.6053555e-04  -1.8608609e-04   7.8461051e-04  -5.6165032e-04  -3.1934606e-04   2.5667623e-04   4.1074672e-04   1.0037398e-04   1.9146562e-04   1.4604512e-03   1.4978397e-03   7.6582917e-04   6.3332351e-05   8.9952449e-04   9.2097005e-04
   5.6580931e-04   3.8170020e-04   4.5322187e-04   3.6423176e-04   3.7425870e-04   2.6930819e-04   3.5615044e-04   1.7819359e-04   4.9612846e-04   4.5096397e-04   3.6399942e-04   6.1102655e-06   8.9243586e-06   1.7194722e-04  -2.6903409e-04   3.5158265e-04   4.4453805e-04   6.8384450e-04   5.4238259e-04   4.2945574e-04   6.7925395e-04   9.7053609e-04   2.0365875e-04   1.9880515e-04   1.6239333e-04   5.6861731e-04  -6.5535691e-04  -1.4776050e-04   5.6017796e-04   2.8556742e-04  -1.1070983e-03   7.0993433e-04   7.9867512e-04   3.0497022e-03  -9.5048395e-05   5.5102096e-04  -4.8489317e-05   8.4393943e-04  -3.0647087e-04  -1.5231605e-04   4.2913001e-04   6.0224649e-04   2.8302250e-04   5.9184933e-04   1.7019557e-03   1.6714681e-03   1.0594054e-03   4.6974953e-04   1.0333594e-03   1.0667669e-03
   8.6501177e-04   7.2355865e-04   7.5172907e-04   6.8968395e-04   6.2000181e-04   5.6566409e-04   6.6459179e-04   4.2801190e-04   9.2166854e-04   8.3942019e-04   7.5509079e-04   3.2418719e-04   2.5421969e-04   3.9911983e-04  -6.1177612e-05   6.1149360e-04   6.9232093e-04   9.3560992e-04   8.5162697e-04   6.7031971e-04   9.0424385e-04   1.2229522e-03   4.5626887e-04   4.3790392e-04   4.4122408e-04   8.2277635e-04  -5.0877465e-04  -8.0460995e-06   7.6047651e-04   4.4370999e-04  -1.0001546e-03   8.7399746e-04   9.2904497e-04   3.1883246e-03  -4.3455799e-05   6.5773213e-04  -6.5289005e-06   9.6075580e-04  -5.2969286e-04  -9.5009520e-05   4.9112889e-04   6.3239713e-04   3.6171573e-04   5.4947904e-04   1.7473612e-03   1.6999588e-03   1.0828624e-03   4.9388217e-04   9.9825545e-04   1.0704624e-03
   8.4521261e-04   6.6495436e-04   7.2250649e-04   6.0799089e-04   5.7405769e-04   4.7546771e-04   5.7115423e-04   3.9446473e-04   7.4375956e-04   7.0236460e-04   6.2570663e-04   2.5335484e-04   1.9866608e-04   3.5723438e-04  -1.2700805e-04   5.6958722e-04   6.4422557e-04   8.8943291e-04   7.0942490e-04   6.0379534e-04   8.2139077e-04   1.1401580e-03   3.9261850e-04   3.3994281e-04   3.4940458e-04   7.4884528e-04  -5.5405230e-04  -4.9981325e-05   6.9408945e-04   3.9461168e-04  -1.0705191e-03   7.6787104e-04   7.5125799e-04   3.0686774e-03  -1.4717663e-04   5.1785907e-04  -1.1831302e-04   8.3859806e-04  -5.1252439e-04  -2.6007614e-04   3.0580538e-04   4.5804601e-04   1.6764519e-04   3.0834746e-04   1.5251854e-03   1.4776632e-03   8.0583186e-04   1.9180542e-04   7.6601136e-04   9.4026577e-04
   6.5414893e-04   4.5378294e-04   5.3524628e-04   4.2067346e-04   4.3910486e-04   3.2296780e-04   4.1341537e-04   2.3863932e-04   5.1415653e-04   4.7474983e-04   3.9607182e-04   9.4753254e-05   5.4835924e-05   2.4072221e-04  -2.2796636e-04   3.9722296e-04   4.6984392e-04   7.1884121e-04   5.1664002e-04   4.3224517e-04   6.8292924e-04   9.6339121e-04   2.0341149e-04   1.3100628e-04   1.7563201e-04   5.8316375e-04  -6.4382813e-04  -1.5304492e-04   5.1185727e-04   2.6226445e-04  -1.2139720e-03   5.7641149e-04   5.9755211e-04   2.8860306e-03  -2.2356401e-04   3.7301742e-04  -2.0525423e-04   6.7687314e-04  -3.4871383e-04  -3.6891026e-04   2.2229175e-04   3.7059764e-04   9.4192226e-05   3.2930894e-04   1.5558584e-03   1.4497214e-03   8.8597072e-04   3.5062159e-04   8.3805079e-04   9.3020150e-04
   8.0622721e-04   6.5217935e-04   7.0925668e-04   6.4708234e-04   5.8855471e-04   5.3851999e-04   6.1880448e-04   4.1615221e-04   8.3672814e-04   7.7069405e-04   6.7057915e-04   3.2537835e-04   2.4251980e-04   3.8411864e-04  -7.5858821e-05   5.8879773e-04   6.4730813e-04   8.9881662e-04   8.4466935e-04   6.5529736e-04   8.9577906e-04   1.2290139e-03   4.6108657e-04   4.5411068e-04   4.9638475e-04   8.5121428e-04  -5.0982571e-04   2.1088317e-06   6.9912535e-04   4.5971046e-04  -1.0439119e-03   8.3068263e-04   8.7544153e-04   3.1518464e-03  -8.7128237e-06   6.4320146e-04   2.4043358e-05   9.3163055e-04  -4.4884998e-04  -1.4329157e-04   4.3750755e-04   5.9478340e-04   3.2655298e-04   5.0291681e-04   1.6830351e-03   1.6548169e-03   9.7205973e-04   4.6644156e-04   9.1259147e-04   1.1066289e-03
   8.4370811e-04   6.4407371e-04   7.4946473e-04   6.1312231e-04   5.9153611e-04   4.9401645e-04   5.8614422e-04   4.1075097e-04   7.4681867e-04   6.7129306e-04   5.9554179e-04   2.9227822e-04   2.1732585e-04   3.7669431e-04  -1.1023370e-04   5.6377950e-04   6.0834474e-04   8.7679765e-04   7.0263504e-04   6.1909988e-04   8.5621473e-04   1.1160112e-03   4.0131650e-04   3.5097118e-04   3.9121587e-04   7.7188382e-04  -5.5520877e-04  -2.8755792e-05   6.5932068e-04   4.3422877e-04  -1.1056281e-03   7.5628306e-04   8.1046112e-04   3.0524747e-03  -9.2602859e-05   5.2655465e-04  -6.7630106e-05   8.5522758e-04  -4.4786578e-04  -2.6560703e-04   3.1513404e-04   4.2907102e-04   2.4951395e-04   1.7984504e-04   1.4426884e-03   1.4669845e-03   7.3328486e-04   1.9856148e-04   6.5465271e-04   9.4646687e-04
   6.2409719e-04   4.6049393e-04   5.6761719e-04   3.9927670e-04   4.4367363e-04   3.2642350e-04   4.1863933e-04   2.8766214e-04   4.7204245e-04   4.1960354e-04   3.5560658e-04   1.2186332e-04   7.0175054e-05   2.5085200e-04  -2.1616003e-04   4.0718963e-04   4.3052019e-04   7.1933976e-04   5.1791780e-04   4.6480808e-04   7.2683924e-04   9.3908928e-04   2.1665762e-04   1.3951660e-04   2.2885729e-04   5.8874482e-04  -6.4120261e-04  -1.1248434e-04   4.5418181e-04   3.2201756e-04  -1.2491663e-03   5.7686231e-04   6.5061444e-04   2.8660421e-03  -1.8178958e-04   3.6260110e-04  -1.5895844e-04   6.5516186e-04  -3.1537714e-04  -4.9102888e-04   9.5193398e-05   2.3212397e-04   2.7217515e-05  -6.7229957e-05   1.2203252e-03   1.2922322e-03   5.0209340e-04  -8.4493193e-05   6.7636179e-04   8.1634114e-04
   5.3300080e-04   3.9719607e-04   5.4879731e-04   4.4931573e-04   4.6200422e-04   3.8877310e-04   4.5309513e-04   2.9524259e-04   5.8396586e-04   5.8166072e-04   4.5956121e-04   2.3716882e-04   1.4658422e-04   3.0542389e-04  -1.3064615e-04   4.7400687e-04   4.9976702e-04   7.8049523e-04   6.9603394e-04   5.8001676e-04   8.0523372e-04   1.1436106e-03   3.5801437e-04   3.8008351e-04   4.3181778e-04   7.4523239e-04  -5.6121283e-04  -2.7908632e-06   6.4319599e-04   4.5768285e-04  -1.1250433e-03   7.4339908e-04   8.8306394e-04   3.0722430e-03   4.7552592e-05   5.8591913e-04   8.2219165e-05   8.5773406e-04  -2.7380933e-04  -2.0984320e-04   3.9745859e-04   5.0652010e-04   3.6324310e-04   4.1229304e-04   1.5316429e-03   1.5439991e-03   8.3324063e-04   4.2283168e-04   7.8110263e-04   1.0513144e-03
   7.2699779e-04   5.6120078e-04   6.8550330e-04   5.4178858e-04   5.3408177e-04   4.3525558e-04   5.1929371e-04   3.8231912e-04   6.1860686e-04   5.6975934e-04   4.7909544e-04   2.5084330e-04   1.7496203e-04   3.2970330e-04  -1.1675456e-04   4.8459836e-04   5.1770546e-04   8.0982642e-04   6.4580614e-04   5.8016146e-04   7.8078156e-04   1.1074006e-03   3.2276902e-04   3.0768412e-04   3.9578663e-04   7.0294214e-04  -5.9194030e-04  -3.1491054e-05   5.7572935e-04   4.3816620e-04  -1.1583309e-03   6.8791123e-04   7.6299754e-04   2.9682363e-03  -5.6045916e-05   5.1679893e-04   6.9513630e-06   8.0205203e-04  -3.7334714e-04  -3.0866740e-04   3.0335723e-04   3.9326333e-04   2.8983029e-04   2.0176928e-04   1.4086646e-03   1.4704722e-03   7.4574276e-04   2.4887800e-04   6.4421492e-04   8.5854065e-04
   6.0281547e-04   4.3863984e-04   5.3782651e-04   3.9057661e-04   4.1461078e-04   2.8615369e-04   3.7034316e-04   2.3828007e-04   3.7693704e-04   3.5156077e-04   2.5276042e-04   7.6821590e-05   3.2224663e-05   2.1879429e-04  -2.3503929e-04   3.3033630e-04   3.7789988e-04   6.6299224e-04   4.0977550e-04   4.2458251e-04   7.1129575e-04   9.5053727e-04   1.2049345e-04   1.1016285e-04   2.0810599e-04   5.2842777e-04  -6.8792037e-04  -1.3171441e-04   4.6042676e-04   3.0373834e-04  -1.2718886e-03   4.9560657e-04   5.0626684e-04   2.7682367e-03  -1.7588396e-04   2.9952248e-04  -1.3525558e-04   6.1221665e-04  -3.1498322e-04  -4.9676822e-04   6.5512912e-05   1.8548312e-04   2.3083099e-05  -1.9668933e-04   1.1728309e-03   1.1026921e-03   3.2727997e-04  -1.1694181e-04   3.2473670e-04   6.6131528e-04
   3.8752201e-04   2.2638860e-04   3.2776129e-04   1.9414797e-04   2.7902966e-04   1.4447539e-04   2.1665078e-04   8.5603722e-05   1.8380712e-04   2.2955093e-04   7.1551389e-05  -3.1933887e-05  -4.9811264e-05   1.2907608e-04  -2.7143152e-04   2.5995928e-04   3.1043505e-04   5.8406999e-04   5.2585400e-04   4.4723327e-04   7.2877551e-04   1.0644498e-03   1.8292564e-04   2.5664936e-04   3.3003511e-04   5.9047545e-04  -6.6608842e-04  -6.3638690e-05   5.6453864e-04   3.7930242e-04  -1.2214512e-03   5.9910474e-04   7.2598015e-04   2.9676745e-03   1.9749365e-05   4.9835024e-04   7.4171345e-05   7.5039570e-04  -1.7059677e-04  -2.7947809e-04   2.8350286e-04   4.1833011e-04   2.9782206e-04   2.0362252e-04   1.4661757e-03   1.4364063e-03   7.6288008e-04   3.9407643e-04   5.4938719e-04   9.3834993e-04
   6.9252710e-04   5.5627618e-04   6.3274067e-04   4.9645035e-04   4.7741772e-04   3.6746933e-04   4.4860545e-04   2.8354378e-04   5.0838903e-04   4.7090795e-04   3.5205070e-04   1.4964378e-04   9.8144388e-05   2.4705316e-04  -1.5331387e-04   3.5549214e-04   4.2378085e-04   7.1358343e-04   5.8725459e-04   5.3138606e-04   7.4524147e-04   1.1032070e-03   2.2775063e-04   2.6971943e-04   3.9614650e-04   6.2786532e-04  -6.5453874e-04  -7.6509605e-05   5.7202548e-04   3.8405962e-04  -1.2102175e-03   6.0181227e-04   6.3425855e-04   2.9160443e-03  -5.7810841e-05   4.3548038e-04  -2.7252019e-05   7.1355107e-04  -3.5620629e-04  -3.5142887e-04   2.2170630e-04   3.1746732e-04   1.9177889e-04   6.3341708e-05   1.3656083e-03   1.2836673e-03   6.3318061e-04   1.9544728e-04   6.3070207e-04   7.6097291e-04
   6.1389676e-04   3.8111201e-04   5.4373086e-04   3.9915479e-04   3.8984162e-04   2.5835214e-04   3.3430121e-04   1.9231776e-04   2.9702528e-04   3.1262264e-04   2.0498343e-04   2.5354875e-05  -4.5370648e-06   1.6745499e-04  -2.3471462e-04   2.3711834e-04   3.2949544e-04   5.9685204e-04   4.0003806e-04   4.0662519e-04   6.6315662e-04   9.6442492e-04   7.1918344e-05   5.9545862e-05   2.0053146e-04   4.8094278e-04  -7.5717695e-04  -1.8375042e-04   4.1887924e-04   2.3448345e-04  -1.3226814e-03   4.4517950e-04   4.4911687e-04   2.7075948e-03  -2.1090433e-04   2.2798718e-04  -1.5059041e-04   5.2594364e-04  -3.8157622e-04  -5.4154225e-04  -7.9233723e-05   7.9800600e-05  -1.3045948e-04  -1.9899300e-04   1.0783122e-03   1.0456805e-03   2.7361355e-04  -1.4103703e-04   4.5718369e-04   5.7572301e-04
   4.2463766e-04   2.5638202e-04   3.3093995e-04   1.9000880e-04   2.3440525e-04   1.0671197e-04   1.5327969e-04   1.1830021e-05   4.2390475e-06   6.7111163e-05  -3.3910514e-05  -1.9839706e-04  -1.9244355e-04   2.4362085e-05  -3.7778230e-04   4.8405309e-05   1.4505771e-04   4.0537457e-04   1.9434582e-04   2.3689620e-04   5.9604854e-04   8.1395195e-04  -1.0721669e-04  -1.0689502e-04   4.6272467e-05   2.7289515e-04  -8.4366370e-04  -2.6457227e-04   3.4011735e-04   1.1632664e-04  -1.3683790e-03   3.4495012e-04   4.3861760e-04   2.7013661e-03  -1.9624020e-04   1.8999002e-04  -1.2493732e-04   5.4443273e-04  -1.3681847e-04  -4.3386477e-04   4.2698910e-05   2.0148265e-04  -4.6565117e-05   7.7033932e-05   1.3372061e-03   1.2113967e-03   5.6500395e-04   1.0703185e-04   6.4233562e-04   6.7659252e-04
   6.6773116e-04   5.4320646e-04   6.1125087e-04   5.2023132e-04   4.4378571e-04   3.6044250e-04   4.2698963e-04   2.0165485e-04   4.1494178e-04   4.7191363e-04   3.4296673e-04   9.8118304e-05   5.1969557e-05   1.8475164e-04  -1.8179812e-04   2.3957953e-04   3.6275323e-04   6.2374666e-04   5.7454786e-04   4.7522684e-04   7.7832112e-04   1.1057270e-03   1.4990692e-04   1.6002277e-04   3.3469076e-04   5.4404489e-04  -7.6096493e-04  -1.4948967e-04   5.0206075e-04   2.5982226e-04  -1.2601319e-03   4.9803656e-04   5.8750191e-04   2.8598574e-03  -1.2715714e-04   3.4123540e-04  -8.1414641e-05   6.1620999e-04  -4.1740225e-04  -3.9552661e-04   6.3503197e-05   2.4647563e-04  -5.9115126e-05  -2.5431633e-05   1.4065546e-03   1.2556463e-03   6.0507288e-04   1.0759627e-04   7.2817469e-04   7.5752189e-04
   5.8965757e-04   4.3335778e-04   5.8097328e-04   4.2026612e-04   3.8160247e-04   2.5685754e-04   3.1706915e-04   1.4547531e-04   2.5214328e-04   3.3508125e-04   2.4545938e-04  -3.8141952e-06  -1.9540430e-05   1.2447567e-04  -2.4617073e-04   1.8251799e-04   3.0650644e-04   5.5849348e-04   4.4895211e-04   4.3034350e-04   7.4341096e-04   1.0053057e-03   8.2383493e-05   4.3657055e-05   2.1825748e-04   4.5139060e-04  -8.1427075e-04  -2.0146658e-04   3.5362443e-04   1.8554951e-04  -1.3263116e-03   4.0285199e-04   4.4484611e-04   2.7123161e-03  -2.5106658e-04   1.8210890e-04  -2.0428610e-04   4.7704522e-04  -4.7616294e-04  -5.8630767e-04  -1.2460080e-04  -7.2632602e-08  -2.8276764e-04  -2.8908974e-04   1.1323276e-03   1.0749403e-03   3.2861641e-04  -2.5054259e-04   4.9233681e-04   5.8453047e-04
   4.0615731e-04   2.4712094e-04   3.6035222e-04   2.1475489e-04   2.2334931e-04   8.5167456e-05   1.3552644e-04  -7.6960814e-06   3.0513656e-05   9.6618722e-05   7.8363319e-06  -1.9842070e-04  -1.8527154e-04  -2.0101957e-05  -3.8842447e-04   1.4260696e-07   1.4755667e-04   3.9527850e-04   2.0002700e-04   2.3888820e-04   5.4823142e-04   8.2980067e-04  -1.1040078e-04  -1.5865000e-04   2.1642425e-05   2.4683276e-04  -9.0322946e-04  -3.1452841e-04   1.9182567e-04   3.9022594e-05  -1.4728508e-03   2.0304123e-04   2.2758736e-04   2.5045667e-03  -3.6685591e-04  -4.4549259e-05  -3.3676744e-04   2.6263765e-04  -4.0713983e-04  -8.0255308e-04  -3.5440037e-04  -1.7924843e-04  -5.7481212e-04  -4.6188876e-04   1.0403413e-03   8.6054974e-04   2.1887090e-04  -3.8299125e-04   4.1920293e-04   5.6302652e-04
   4.8475995e-04   3.3739046e-04   4.8056908e-04   4.0951031e-04   3.3376046e-04   2.5740804e-04   2.9669871e-04   9.0792062e-05   2.8946399e-04   4.0205003e-04   2.6969032e-04   1.2525416e-05  -2.0723230e-05   1.1544690e-04  -2.5352775e-04   1.3999017e-04   2.8880633e-04   5.3696573e-04   5.6927517e-04   4.3978929e-04   8.1174285e-04   1.1172825e-03   1.5906413e-04   2.0136846e-04   3.4685267e-04   5.0315709e-04  -7.9983077e-04  -1.7622988e-04   4.5629719e-04   2.1844241e-04  -1.2687901e-03   4.8015255e-04   6.0328736e-04   2.8265633e-03  -1.2624086e-04   2.7083061e-04  -8.7111730e-05   5.6311878e-04  -5.2317587e-04  -4.3967392e-04  -1.2948573e-05   1.3452429e-04  -1.9119510e-04  -1.0564581e-04   1.3465618e-03   1.1896982e-03   5.7613966e-04   4.2271120e-05   5.5594032e-04   6.6588103e-04
   6.3349516e-04   4.9137312e-04   5.6586688e-04   4.6400816e-04   3.7537608e-04   2.6229754e-04   2.9919707e-04   1.0566232e-04   3.0041576e-04   4.2150833e-04   2.9646439e-04   2.4088929e-05  -4.0361661e-07   1.0577014e-04  -2.3017793e-04   1.2855495e-04   3.3581824e-04   5.6826690e-04   4.7594699e-04   4.2504177e-04   7.9719082e-04   1.0716150e-03   1.1261249e-04   1.3814347e-04   2.5390167e-04   4.4020862e-04  -8.3618797e-04  -2.4145280e-04   4.0578976e-04   1.5995465e-04  -1.2768558e-03   4.2428434e-04   4.6405694e-04   2.7177206e-03  -2.5337050e-04   1.8664829e-04  -2.4318576e-04   4.9677474e-04  -6.2164484e-04  -5.5387092e-04  -1.1454603e-04   7.3676711e-05  -3.1732957e-04  -2.3940214e-04   1.2805182e-03   1.0027823e-03   4.3971863e-04  -2.4090885e-04   5.0835044e-04   5.4406328e-04
   4.8401509e-04   2.9201500e-04   3.9943552e-04   2.9132215e-04   2.4034474e-04   1.1255949e-04   1.3426982e-04  -2.9570923e-05   6.2929248e-05   2.0810770e-04   8.0302278e-05  -1.5788480e-04  -1.3505212e-04  -8.0656282e-06  -3.5007382e-04  -6.5058402e-06   2.0548425e-04   4.3361666e-04   2.6185831e-04   2.6199513e-04   6.1002077e-04   8.9094078e-04  -5.0642662e-05  -4.8532529e-05   7.2684445e-05   2.6545528e-04  -9.4145187e-04  -3.3150180e-04   2.1153579e-04   3.7323749e-05  -1.3994507e-03   2.4233188e-04   2.8825222e-04   2.5400030e-03  -3.8109825e-04  -1.1153092e-04  -4.6268155e-04   2.9548811e-04  -5.5726146e-04  -7.5853977e-04  -3.3678277e-04  -1.4845309e-04  -5.6283519e-04  -5.3269119e-04   1.0624123e-03   7.7280757e-04   1.5201072e-04  -5.1918655e-04   3.3584709e-04   3.6421139e-04
   2.5605093e-04   1.1137220e-04   2.5444766e-04   1.6248987e-04   1.6585655e-04   4.6469482e-05   7.7551507e-05  -1.0803802e-04   1.0841822e-04   2.8595643e-04   5.9947408e-05  -1.2563106e-04  -1.0598375e-04  -1.0804891e-05  -3.1808575e-04   3.2154687e-05   2.4021986e-04   4.6500401e-04   4.9317232e-04   3.6156701e-04   7.0980575e-04   1.0771791e-03   1.3819478e-04   1.7492230e-04   2.7615638e-04   4.3278578e-04  -8.6310023e-04  -2.2856770e-04   4.0021629e-04   1.6627015e-04  -1.2696210e-03   4.5368742e-04   5.7602720e-04   2.7897325e-03  -1.4794878e-04   2.5002344e-04  -1.3155266e-04   5.5109593e-04  -4.9582130e-04  -4.3511935e-04   1.2696778e-06   1.9751149e-04  -1.9311842e-04  -2.1187499e-05   1.3872040e-03   1.1881461e-03   6.0421933e-04   4.1466119e-05   7.2173419e-04   6.9966819e-04
   6.2119722e-04   4.7502641e-04   5.6217075e-04   4.7312723e-04   3.6082254e-04   2.4710843e-04   2.9224076e-04   8.8733999e-05   3.4709641e-04   4.8156758e-04   3.2789807e-04   2.2861410e-05   1.7542236e-05   9.7947224e-05  -2.2057461e-04   1.3649355e-04   3.8069821e-04   5.9520756e-04   4.9844710e-04   4.3572893e-04   7.8094233e-04   1.1089739e-03   1.9324149e-04   2.1380075e-04   2.9221064e-04   4.6724244e-04  -8.3986844e-04  -2.4548580e-04   3.8851128e-04   1.7491028e-04  -1.2333100e-03   4.6250707e-04   5.7338801e-04   2.7669782e-03  -2.4168096e-04   1.8555402e-04  -2.3028124e-04   5.4519367e-04  -6.8140117e-04  -4.9266656e-04  -5.1728934e-05   1.4624365e-04  -2.6238512e-04  -1.8682150e-04   1.3364718e-03   1.1044308e-03   5.5110367e-04  -8.1562364e-05   5.6693616e-04   6.4045191e-04
   5.4457464e-04   3.1901491e-04   4.6960358e-04   3.7476860e-04   2.8264470e-04   1.5828152e-04   1.8536128e-04  -4.0530163e-06   2.0916684e-04   3.3444917e-04   1.9518603e-04  -9.7669232e-05  -6.9260030e-05   3.6735986e-05  -2.8960448e-04   3.9709485e-05   3.0000036e-04   5.1260483e-04   3.2683183e-04   3.0085249e-04   5.9064425e-04   9.4555208e-04   5.6482804e-05   6.3249776e-05   1.6265070e-04   3.2593677e-04  -9.0195442e-04  -3.0461472e-04   3.0110063e-04   6.1620907e-05  -1.3250776e-03   3.4649242e-04   3.7154657e-04   2.6385859e-03  -3.5203309e-04   6.1973849e-05  -3.6344276e-04   3.9938529e-04  -6.4138829e-04  -6.5882306e-04  -2.7527002e-04  -6.2626996e-06  -4.8087933e-04  -4.3274657e-04   1.1656098e-03   9.1589673e-04   2.9251282e-04  -4.1680725e-04   4.2995141e-04   4.9839338e-04
   3.2143283e-04   1.8463576e-04   2.6630712e-04   1.6625697e-04   1.3803587e-04   1.6774302e-05   3.5544504e-05  -1.1015322e-04   4.0164741e-05   1.3677074e-04  -9.1930260e-06  -2.5713231e-04  -1.8294808e-04  -9.2900547e-05  -4.0944363e-04  -4.9752616e-05   1.9259653e-04   4.0113460e-04   3.4051191e-04   2.8246205e-04   6.3188002e-04   9.8580238e-04   8.9531619e-05   1.5922608e-04   2.0648856e-04   3.7212973e-04  -8.8808453e-04  -2.6856569e-04   3.8678487e-04   1.1528750e-04  -1.2735804e-03   4.5676247e-04   5.8770127e-04   2.7609740e-03  -1.6400029e-04   2.3453588e-04  -1.7451515e-04   5.3718046e-04  -4.5594072e-04  -4.5714644e-04   9.5970245e-06   2.3898958e-04  -2.2202251e-04   4.5159421e-05   1.4743170e-03   1.2042243e-03   6.7545619e-04   9.8080891e-05   6.5677374e-04   7.2739925e-04
   6.6359062e-04   4.8875995e-04   6.0091080e-04   5.2653888e-04   3.7885830e-04   3.1462137e-04   3.3110374e-04   1.2852049e-04   4.5294606e-04   5.3604244e-04   4.1156024e-04   5.9859860e-05   7.1820381e-05   1.1397278e-04  -1.8968008e-04   1.7003067e-04   4.2393964e-04   6.3968386e-04   5.3195702e-04   4.3690042e-04   7.2225201e-04   1.1111440e-03   2.5508157e-04   2.7812415e-04   3.6086218e-04   5.0890876e-04  -8.0392003e-04  -2.2307887e-04   4.1780900e-04   1.9482303e-04  -1.1948332e-03   5.4737949e-04   6.2667404e-04   2.8227642e-03  -2.0079606e-04   2.8245078e-04  -2.2454470e-04   6.0721481e-04  -6.8270735e-04  -4.0617652e-04   1.6417662e-05   2.4916584e-04  -1.9279857e-04   8.4845703e-07   1.3722803e-03   1.2259128e-03   6.2998524e-04   6.6184955e-05   7.5984985e-04   8.6374261e-04
   5.9312966e-04   4.2542955e-04   5.5450387e-04   4.1768269e-04   3.2675866e-04   2.1223788e-04   2.3844064e-04   8.7765759e-05   3.5631514e-04   4.4332311e-04   3.2230961e-04  -7.1812069e-06   2.6386693e-05   8.1986218e-05  -2.5196557e-04   1.2843855e-04   3.8486370e-04   5.9105805e-04   4.2443877e-04   3.7399956e-04   6.7176524e-04   9.5411832e-04   1.9600098e-04   1.3470587e-04   2.4457017e-04   4.2333396e-04  -8.4714021e-04  -2.6275098e-04   3.3345213e-04   1.2059350e-04  -1.2931372e-03   4.5264946e-04   5.1859120e-04   2.6940051e-03  -3.1506093e-04   1.1595246e-04  -3.4560903e-04   4.8551807e-04  -6.0682627e-04  -5.8454776e-04  -1.8580891e-04   7.4475734e-05  -3.8559193e-04  -2.1392920e-04   1.2296869e-03   9.7752654e-04   4.8040456e-04  -3.0307675e-04   5.6519551e-04   6.8144669e-04
   4.0021751e-04   1.8556276e-04   3.7685316e-04   2.1058595e-04   1.8962695e-04   7.3264600e-05   8.4682346e-05   1.9048834e-07   1.5823267e-04   2.1882202e-04   1.2921914e-04  -1.8198666e-04  -1.1926310e-04  -2.6908816e-05  -3.7121461e-04   1.0872650e-06   2.2513318e-04   4.3082761e-04   3.0139374e-04   2.5651552e-04   5.7225040e-04   7.8801234e-04   8.9093533e-05   7.1938957e-05   1.1426152e-04   2.9943389e-04  -8.8356825e-04  -3.0588251e-04   2.8031837e-04   7.7558849e-05  -1.3085818e-03   4.5293383e-04   6.4887875e-04   2.7033556e-03  -2.1306548e-04   1.6574813e-04  -2.2439733e-04   5.7467970e-04  -3.7059173e-04  -4.4548849e-04   1.0583522e-05   2.5140709e-04  -2.0488123e-04   2.6833155e-04   1.4498638e-03   1.2643265e-03   7.6027116e-04   8.3368439e-05   8.0180651e-04   9.2606293e-04
   6.3410454e-04   4.8114741e-04   6.4116751e-04   4.9460481e-04   3.9805617e-04   3.2349105e-04   3.5603644e-04   2.0580398e-04   5.6612241e-04   5.7439686e-04   5.1084789e-04   1.2949816e-04   1.2611790e-04   1.5037872e-04  -1.9788778e-04   2.2285132e-04   4.4591795e-04   6.5189099e-04   6.0863275e-04   4.7992435e-04   6.9577846e-04   1.0041102e-03   3.4883802e-04   2.9581657e-04   3.4908156e-04   5.3293403e-04  -8.0327917e-04  -1.9064044e-04   4.0060590e-04   2.4045391e-04  -1.2049009e-03   6.1513571e-04   7.6342147e-04   2.8714088e-03  -1.4700362e-04   2.8948978e-04  -2.1105407e-04   6.7219621e-04  -5.7596568e-04  -3.7450975e-04   6.0725113e-05   2.6929373e-04  -1.0986392e-04   1.9077610e-04   1.3999394e-03   1.3148959e-03   7.4151094e-04   4.5768658e-05   9.5420756e-04   9.6315576e-04
   5.9829419e-04   4.3007525e-04   6.0013449e-04   4.0438399e-04   3.6393953e-04   2.5998245e-04   2.7013305e-04   1.7277266e-04   4.9370871e-04   4.6723758e-04   4.2468854e-04   7.6160934e-05   7.8310593e-05   1.3751566e-04  -2.3780709e-04   2.1437989e-04   4.2352732e-04   6.3851883e-04   5.0669687e-04   4.2730774e-04   6.5933930e-04   9.0779021e-04   2.9688785e-04   1.8565902e-04   2.7379609e-04   4.7704211e-04  -8.0045109e-04  -2.1789549e-04   3.8789172e-04   2.0391944e-04  -1.2670562e-03   5.4954860e-04   6.9656182e-04   2.7675091e-03  -2.2972637e-04   1.7260635e-04  -2.7617067e-04   5.7735218e-04  -5.3390855e-04  -5.4291438e-04  -7.3570947e-05   1.3499212e-04  -2.9247097e-04  -1.0324332e-05   1.2232594e-03   1.1769448e-03   5.2423798e-04  -2.3907445e-04   7.8755786e-04   8.1345253e-04
   4.4134189e-04   2.6668375e-04   4.1996845e-04   2.1973011e-04   2.3468590e-04   1.3502892e-04   1.4042527e-04   5.6564706e-05   2.9618805e-04   2.5389789e-04   2.3210105e-04  -7.5118151e-05  -5.3289164e-05   3.1722298e-05  -3.3095892e-04   8.2185717e-05   2.7903554e-04   4.9334037e-04   3.2026257e-04   2.8344401e-04   5.4141803e-04   7.3051290e-04   1.7477147e-04   1.0141894e-04   1.4678511e-04   3.4010841e-04  -8.5786282e-04  -2.4912777e-04   2.8682867e-04   1.4140233e-04  -1.3003469e-03   5.0713698e-04   6.7501538e-04   2.7320234e-03  -1.6607260e-04   2.1514896e-04  -1.9303797e-04   6.3335564e-04  -2.5739989e-04  -4.4049448e-04   6.4579981e-05   2.6608774e-04  -1.1417673e-04   2.6224015e-04   1.4414942e-03   1.2994139e-03   8.4609236e-04   1.8498533e-04   8.9925656e-04   1.0219895e-03
   6.9012534e-04   5.1095273e-04   6.5426476e-04   4.9654848e-04   4.3318147e-04   3.8765048e-04   3.8681037e-04   2.4484194e-04   7.0698204e-04   6.0090440e-04   5.9128733e-04   2.2161394e-04   1.8119243e-04   2.1254315e-04  -1.4559586e-04   3.0110884e-04   4.9921230e-04   7.1512983e-04   6.6496304e-04   5.0060172e-04   6.6395948e-04   9.5484499e-04   4.3748436e-04   3.4128287e-04   4.2207510e-04   5.8614375e-04  -7.3475880e-04  -1.1506958e-04   5.0997525e-04   3.0908396e-04  -1.1906071e-03   6.7881792e-04   8.6157955e-04   2.8852418e-03  -7.4644871e-05   3.7414397e-04  -1.4278079e-04   7.3916465e-04  -4.2070131e-04  -3.4159754e-04   1.5361221e-04   3.4506031e-04  -2.4945864e-05   2.5237357e-04   1.4065226e-03   1.4170451e-03   8.5475342e-04   1.5719060e-04   8.7210588e-04   1.1213585e-03
   6.6807593e-04   4.5035634e-04   6.2492589e-04   4.1477926e-04   4.0734978e-04   3.1910490e-04   3.1871526e-04   2.5306962e-04   5.9887505e-04   4.8651433e-04   5.1700900e-04   1.6616666e-04   1.4220181e-04   1.9046740e-04  -1.7846574e-04   2.9016266e-04   4.7278157e-04   6.7929225e-04   5.7271478e-04   4.6896012e-04   6.4448256e-04   8.4858562e-04   3.8703819e-04   2.6268701e-04   3.4177012e-04   5.2758522e-04  -7.4163772e-04  -1.5242389e-04   4.6990326e-04   2.7853501e-04  -1.2468890e-03   6.1746780e-04   7.4793247e-04   2.8007475e-03  -1.4603944e-04   2.5202849e-04  -1.9294966e-04   6.4624951e-04  -3.9822047e-04  -4.6249887e-04  -6.3528030e-05   2.0469575e-04  -2.6557167e-04  -8.4409388e-05   1.2001951e-03   1.2462038e-03   6.4243493e-04  -1.1910785e-04   7.8701286e-04   8.8935468e-04
   5.2219228e-04   2.9097716e-04   4.5155067e-04   2.4527806e-04   2.9342869e-04   1.9517211e-04   1.7022423e-04   1.2111293e-04   4.0609069e-04   2.8555657e-04   3.2956107e-04   2.0979789e-05   4.6384266e-06   9.3327180e-05  -2.5743779e-04   1.6355151e-04   3.3034128e-04   5.4970558e-04   3.5607614e-04   3.1436136e-04   5.0615065e-04   6.9885253e-04   2.8033552e-04   1.3415153e-04   2.0563936e-04   3.9474337e-04  -7.9920160e-04  -1.9038511e-04   4.0677073e-04   1.8810852e-04  -1.2844597e-03   5.6976732e-04   7.0012343e-04   2.7591388e-03  -1.0193307e-04   2.8949353e-04  -1.3832809e-04   6.7657273e-04  -1.2892154e-04  -4.0316957e-04   9.4087052e-05   3.1106928e-04  -1.0906869e-04   2.8979650e-04   1.4252696e-03   1.4040985e-03   8.7776181e-04   2.0046927e-04   1.0997520e-03   1.0240220e-03
   7.6248567e-04   5.5262429e-04   6.7960285e-04   5.0103554e-04   4.8265714e-04   4.1726130e-04   4.0449758e-04   3.1782853e-04   7.4340921e-04   5.9987983e-04   6.6063908e-04   2.8612968e-04   2.1113879e-04   2.4868915e-04  -8.7809269e-05   3.4388155e-04   5.2991544e-04   7.3332741e-04   6.3025916e-04   4.8779306e-04   6.7843619e-04   8.8767178e-04   4.9134047e-04   3.8395083e-04   4.6101565e-04   5.9818628e-04  -6.9232710e-04  -9.0222849e-05   5.5725581e-04   3.3869830e-04  -1.1658069e-03   7.1589352e-04   7.8447157e-04   2.8732105e-03  -2.5717838e-05   3.9591911e-04  -7.9830032e-05   7.5942412e-04  -3.1026494e-04  -3.2053547e-04   1.5880035e-04   3.5305522e-04  -1.3924872e-05   2.8390760e-04   1.4090725e-03   1.3796308e-03   8.3665288e-04   1.5174935e-04   9.0235809e-04   1.0239821e-03
   7.4255356e-04   5.3639058e-04   6.0637563e-04   4.2435859e-04   4.3919421e-04   3.5505299e-04   3.2542218e-04   2.5905977e-04   7.0119207e-04   4.9548148e-04   5.6731119e-04   2.3050472e-04   1.6481863e-04   2.2800513e-04  -1.0816485e-04   3.1547007e-04   5.0549791e-04   7.0689188e-04   5.2083295e-04   4.2278384e-04   5.6779973e-04   8.1259734e-04   4.3166746e-04   2.9199012e-04   3.7587294e-04   5.3762872e-04  -6.9515640e-04  -1.1160678e-04   4.7380783e-04   3.0112569e-04  -1.2111271e-03   6.4030255e-04   6.3750061e-04   2.7974485e-03  -1.0267997e-04   2.8740629e-04  -1.4397231e-04   6.6437072e-04  -2.6977574e-04  -4.7248931e-04  -2.2171993e-05   1.8422805e-04  -1.6508160e-04   3.3353615e-05   1.1868223e-03   1.1729456e-03   6.6592533e-04  -8.5435975e-05   7.4763014e-04   8.8903552e-04
   5.9549115e-04   3.3987497e-04   4.3442310e-04   2.7400564e-04   3.3054093e-04   2.3969416e-04   1.9288030e-04   1.4363402e-04   5.0456211e-04   2.8969842e-04   3.8072557e-04   8.2534250e-05   3.6977188e-05   1.3182418e-04  -1.8959402e-04   2.0279168e-04   3.7369557e-04   5.9146126e-04   3.4680017e-04   2.6861593e-04   4.4803979e-04   7.0739770e-04   2.9400751e-04   1.4237879e-04   2.4583784e-04   4.1760737e-04  -7.7318598e-04  -1.9349651e-04   4.5495419e-04   1.8676152e-04  -1.3243536e-03   4.9284176e-04   4.9727259e-04   2.6593443e-03  -1.8068650e-04   1.8725351e-04  -2.3435576e-04   4.9149018e-04  -1.6086540e-04  -6.5249705e-04  -2.1904100e-04   2.6420177e-05  -4.5858807e-04  -1.9954612e-04   1.0811412e-03   1.0319441e-03   5.2881031e-04  -3.3224656e-04   6.9189823e-04   8.1958115e-04
   6.3093990e-04   3.7299329e-04   4.8617172e-04   3.9623844e-04   4.0272105e-04   3.7551956e-04   2.9074130e-04   1.7116187e-04   6.6775753e-04   5.0898618e-04   5.6966988e-04   2.2182365e-04   1.5310582e-04   2.1526800e-04  -7.7995734e-05   3.0705356e-04   4.7279071e-04   6.9275068e-04   5.5023539e-04   3.8977209e-04   5.8869628e-04   9.1670704e-04   4.8715304e-04   3.9007873e-04   4.8299387e-04   6.0519029e-04  -6.9327600e-04  -7.4555937e-05   6.6024123e-04   3.2177492e-04  -1.1949327e-03   6.8079267e-04   6.9911347e-04   2.8712205e-03   1.3782628e-05   3.8848465e-04  -5.5581710e-05   6.9965218e-04  -2.2822608e-04  -3.9872387e-04   4.1285643e-05   2.5981534e-04  -2.1683500e-04   1.2558865e-04   1.2782742e-03   1.2346162e-03   7.4694928e-04   3.4459219e-05   7.8101421e-04   8.8802801e-04
   7.6246297e-04   4.8604648e-04   5.5263739e-04   4.3386596e-04   4.5001419e-04   3.8111676e-04   3.2364138e-04   2.0980801e-04   6.7779195e-04   4.6565465e-04   5.6048465e-04   1.9470812e-04   1.6140350e-04   2.3976518e-04  -7.8586781e-05   3.1155543e-04   4.7863252e-04   7.0840889e-04   4.3719268e-04   3.4921127e-04   5.4713001e-04   8.5292134e-04   4.3987951e-04   2.9940123e-04   4.0115821e-04   5.7089282e-04  -6.9699646e-04  -1.0274555e-04   5.5839535e-04   2.8599391e-04  -1.2372269e-03   6.0476776e-04   6.5621966e-04   2.7547248e-03  -8.3007057e-05   2.8673175e-04  -1.3606108e-04   6.3186343e-04  -2.9016734e-04  -4.8253889e-04  -6.2043531e-05   1.3560134e-04  -3.0907360e-04  -3.3948447e-05   1.1595861e-03   1.1773012e-03   6.5174710e-04  -1.5109569e-04   7.1716373e-04   8.6289871e-04
   6.0323952e-04   3.5981429e-04   4.0805765e-04   2.4642321e-04   3.3851745e-04   2.3109818e-04   1.8586285e-04   1.3213859e-04   4.3512613e-04   2.1711062e-04   3.5228895e-04   1.3992802e-05   2.3156968e-05   1.3128256e-04  -1.8622581e-04   1.8238077e-04   3.3102551e-04   5.7048054e-04   2.6987077e-04   1.9851180e-04   3.7756536e-04   6.7822880e-04   2.7636896e-04   8.9485467e-05   2.4043566e-04   4.1529897e-04  -7.8744668e-04  -2.0455131e-04   4.3185917e-04   1.6457589e-04  -1.3689491e-03   4.3417682e-04   4.5805293e-04   2.5632905e-03  -1.8515177e-04   9.5400988e-05  -2.3247785e-04   4.3921178e-04  -2.0541466e-04  -6.8751874e-04  -2.7756984e-04  -1.1223308e-04  -5.8767130e-04  -3.2951357e-04   9.4905839e-04   9.0958859e-04   4.0149191e-04  -5.5350835e-04   6.8105356e-04   6.3804374e-04
   3.8739081e-04   1.5296820e-04   1.7701842e-04   2.9834231e-05   1.8549124e-04   8.8359091e-05   1.0095180e-05  -3.0714902e-05   1.9560041e-04  -4.3374184e-05   8.5435153e-05  -2.1617320e-04  -1.4588967e-04  -8.6898876e-07  -3.3136920e-04  -9.7436150e-06   1.3927024e-04   3.7186977e-04   4.9582617e-05   6.4427154e-06   3.0316488e-04   4.8554168e-04   7.6909018e-05  -1.4152146e-04   4.0339022e-05   1.9279876e-04  -9.0604153e-04  -3.1793953e-04   2.3794081e-04   6.4539904e-06  -1.5299012e-03   1.9208487e-04   2.6494029e-04   2.3786104e-03  -3.2263520e-04  -1.3956588e-04  -3.7337636e-04   1.9876947e-04  -1.3464777e-04  -9.2037523e-04  -5.7848997e-04  -3.9285430e-04  -9.7507337e-04  -7.5472728e-04   6.6783075e-04   6.4227183e-04   1.1726983e-04  -9.6402876e-04   2.8556856e-04   3.5661244e-04
   1.3152056e-04  -9.4061004e-05  -1.0070243e-04  -2.1783123e-04   1.2308931e-05  -5.9828082e-05  -1.7600537e-04  -2.0723365e-04  -8.3371444e-05  -2.5928000e-04  -1.8741375e-04  -4.3600608e-04  -3.1763111e-04  -1.4693396e-04  -4.4938194e-04  -1.3775230e-04  -8.7799490e-06   2.3484565e-04   9.2400755e-05  -2.1410946e-05   3.2201278e-04   5.8865221e-04   1.1289809e-04   3.5775593e-05   1.3988710e-04   2.3333848e-04  -8.9469785e-04  -2.3775271e-04   3.3717530e-04   8.4121304e-05  -1.4858065e-03   2.9468237e-04   4.8786125e-04   2.5327331e-03  -1.1890937e-04   8.0118356e-05  -9.9996767e-05   3.8456003e-04   4.5589306e-05  -6.2389305e-04  -2.8485089e-04  -7.5893928e-05  -6.5425405e-04  -1.6820003e-04   1.0292538e-03   9.4995578e-04   5.8645592e-04  -3.2628493e-04   6.4586045e-04   6.5809331e-04
   5.2807177e-04   3.5615946e-04   2.6794331e-04   2.2117946e-04   3.1627764e-04   2.3957907e-04   1.7215783e-04   6.3555890e-05   3.2794286e-04   1.6051407e-04   2.4985423e-04  -1.3957478e-04  -2.9337829e-05   5.2985735e-05  -2.2044052e-04   5.8230908e-05   1.7917271e-04   4.4438869e-04   2.0445861e-04   8.6421271e-05   3.7405215e-04   7.2324229e-04   2.2126459e-04   1.1377167e-04   2.9059994e-04   3.5555102e-04  -8.4590074e-04  -1.9920773e-04   4.0631596e-04   1.4578963e-04  -1.4461513e-03   3.3798159e-04   5.4928544e-04   2.5401860e-03  -1.4710703e-04   9.0417045e-05  -1.9030094e-04   4.1308647e-04  -3.2661069e-04  -6.4403989e-04  -2.6343649e-04  -1.3059955e-04  -6.8692421e-04  -2.0874292e-04   1.0005794e-03   9.2858472e-04   4.2225007e-04  -3.8255090e-04   4.6308443e-04   5.4921705e-04
   4.4834462e-04   2.4338573e-04   1.6958069e-04   1.3464999e-04   2.6354453e-04   1.6734554e-04   9.0368463e-05  -8.2506943e-07   1.7310846e-04   1.5863174e-05   9.2918934e-05  -2.7324003e-04  -1.0907369e-04   1.4383976e-05  -2.8388051e-04  -2.4645997e-05   1.1991447e-04   3.7728669e-04   1.4023288e-05  -3.6204161e-05   2.7154171e-04   5.8849342e-04   7.5680946e-05  -5.5394608e-05   1.2244475e-04   2.4039138e-04  -9.0804102e-04  -3.0355513e-04   2.6321851e-04   3.1198975e-05  -1.5494792e-03   1.9398041e-04   3.1555336e-04   2.3709177e-03  -2.9674295e-04  -6.9584283e-05  -3.4725299e-04   2.3849742e-04  -4.1982063e-04  -8.4447267e-04  -5.0258258e-04  -3.7022124e-04  -9.7878277e-04  -6.4711092e-04   7.7919755e-04   6.7114510e-04   2.2018977e-04  -8.2598900e-04   2.3236861e-04   3.3647989e-04
   2.4641154e-04   3.2745964e-05  -5.0350518e-05  -9.1638423e-05   1.1902989e-04  -1.9824147e-06  -9.6944663e-05  -1.7471267e-04  -7.5791824e-05  -2.3186597e-04  -1.7171232e-04  -5.0973619e-04  -2.8182755e-04  -1.2119042e-04  -4.1253460e-04  -1.8615139e-04  -5.4481039e-05   2.0771578e-04  -2.0168276e-04  -2.2765268e-04   1.6314357e-04   3.9337121e-04  -1.3417446e-04  -2.9996008e-04  -3.5111902e-05   3.2789205e-05  -1.0209461e-03  -4.0911633e-04   8.5092164e-05  -1.1747438e-04  -1.6919447e-03  -1.6051679e-05   8.9314985e-05   2.1846832e-03  -4.2803551e-04  -2.8550750e-04  -4.6391611e-04   1.1517929e-05  -3.3951915e-04  -1.0754414e-03  -7.9765881e-04  -5.9925584e-04  -1.3333093e-03  -9.6579909e-04   5.4264587e-04   3.4330579e-04  -1.5488973e-04  -1.2723088e-03   4.1638618e-06   1.0426837e-04
  -4.3820710e-05  -2.5043482e-04  -3.0533457e-04  -3.3598239e-04  -4.5597404e-05  -1.4186869e-04  -2.6498677e-04  -3.1672660e-04  -2.7773881e-04  -3.4645695e-04  -3.9045070e-04  -6.4261176e-04  -3.8019920e-04  -2.1831390e-04  -4.9550482e-04  -2.5409900e-04  -1.3310173e-04   1.4590869e-04  -7.2694129e-05  -2.1086032e-04   2.1844589e-04   5.4529583e-04  -2.6118310e-05  -8.7838671e-05   9.5114359e-05   1.5064154e-04  -9.5595606e-04  -3.0878032e-04   2.4015454e-04   1.8153120e-05  -1.6147768e-03   1.2335228e-04   3.7559285e-04   2.3589723e-03  -1.8219481e-04  -7.9319994e-05  -1.9582317e-04   2.3594603e-04  -1.2729187e-04  -7.5910881e-04  -4.0343919e-04  -2.8050825e-04  -8.8503631e-04  -3.3948576e-04   9.5066905e-04   7.9438364e-04   3.7373824e-04  -4.3732615e-04   4.4116410e-04   4.3719492e-04
   3.8096891e-04   2.7695173e-04   9.3594426e-05   1.1275439e-04   2.6327858e-04   1.8052972e-04   1.0157500e-04  -2.0619354e-05   1.4985382e-04   4.0013812e-05   5.2612693e-05  -3.6081846e-04  -1.1902289e-04  -1.1097186e-06  -2.8729590e-04  -6.7278888e-05   4.8706130e-05   3.3930197e-04   6.6430293e-05  -8.7819157e-05   3.1220939e-04   6.3899189e-04   1.0508588e-04   1.1114443e-05   2.1591880e-04   2.5492330e-04  -9.1307360e-04  -2.7401443e-04   2.6651347e-04   7.9010897e-05  -1.5728313e-03   1.7039092e-04   4.6053741e-04   2.3919507e-03  -2.1696102e-04  -1.9224697e-05  -2.6369930e-04   2.5851442e-04  -5.0858868e-04  -7.5510633e-04  -3.6661411e-04  -2.3787319e-04  -8.4922090e-04  -4.3723400e-04   9.2586112e-04   7.8715157e-04   3.9784648e-04  -4.8658092e-04   3.4048109e-04   4.5262385e-04
   2.9301818e-04   1.3643589e-04   3.4228997e-05   2.1375550e-05   2.2194807e-04   7.8106437e-05   1.6993572e-05  -3.4445649e-05   1.5904739e-05  -5.0159830e-05  -6.8148322e-05  -4.5601267e-04  -1.7236893e-04  -3.7923593e-05  -3.3077446e-04  -1.1898502e-04   1.2762998e-05   3.0866059e-04  -8.0437087e-05  -1.6816569e-04   2.7086458e-04   5.3520454e-04  -2.4631661e-06  -1.4925961e-04   8.5880223e-05   1.5221248e-04  -9.5373893e-04  -3.3487851e-04   1.8531833e-04   2.5318352e-06  -1.6462279e-03   5.5859895e-05   2.9985543e-04   2.2580836e-03  -3.3827944e-04  -1.8729390e-04  -4.0768771e-04   1.4870534e-04  -6.1636168e-04  -8.9088501e-04  -5.3918874e-04  -4.2091357e-04  -1.0534312e-03  -6.6679460e-04   7.4636709e-04   5.9934880e-04   2.0896150e-04  -8.4604975e-04   1.9344816e-04   2.8476628e-04
   1.1595464e-04  -7.3943443e-06  -1.4301189e-04  -1.4436065e-04   9.5073126e-05  -4.4310000e-05  -1.4448765e-04  -1.9791941e-04  -2.0966685e-04  -2.4319722e-04  -2.7568248e-04  -6.2671100e-04  -3.0472019e-04  -1.4567630e-04  -4.4382064e-04  -2.4851901e-04  -1.1791462e-04   1.7496431e-04  -2.7124782e-04  -3.0758089e-04   1.5651619e-04   3.8978399e-04  -1.6515877e-04  -3.1682552e-04  -7.4167656e-05  -1.5554377e-05  -1.0469335e-03  -4.1969921e-04   3.6931950e-05  -1.1466265e-04  -1.7681391e-03  -9.2878836e-05   1.2951379e-04   2.1460089e-03  -4.4853170e-04  -3.5680426e-04  -4.9564283e-04  -2.5645506e-05  -5.7343894e-04  -1.0834273e-03  -7.6174049e-04  -6.2702736e-04  -1.3390199e-03  -8.7392452e-04   6.2776875e-04   4.3605774e-04  -6.1367224e-05  -1.1850341e-03   4.4462009e-05   2.4868900e-04
   8.7430686e-05  -2.2986273e-05  -1.0532514e-04  -8.2452034e-06   1.6078283e-04   5.4842963e-05  -2.3800090e-05  -1.2595174e-04   1.9657988e-05   4.5931010e-05  -5.0082897e-05  -4.1901696e-04  -1.5360783e-04  -4.1837266e-05  -2.9045774e-04  -1.0980485e-04   2.3229744e-05   3.1090886e-04   7.4327108e-05  -1.3302141e-04   3.6404582e-04   6.8415655e-04   9.4248033e-05   5.0902145e-05   2.7246992e-04   2.5182875e-04  -9.3113951e-04  -2.6616856e-04   2.4115288e-04   8.3847241e-05  -1.5825343e-03   1.8184875e-04   5.1893952e-04   2.4748105e-03  -1.6143410e-04   3.3559772e-05  -2.2020622e-04   3.1244126e-04  -6.8170310e-04  -6.2546582e-04  -2.6400280e-04  -1.6671716e-04  -7.6878554e-04  -2.5660638e-04   1.1270036e-03   8.5082912e-04   5.1303481e-04  -3.7062430e-04   5.2250503e-04   4.7491252e-04
   3.7200531e-04   2.6363038e-04   1.2486022e-04   1.8165492e-04   3.1719252e-04   1.8700650e-04   1.1036002e-04   1.0751064e-05   2.2749840e-04   1.8059248e-04   1.1431686e-04  -3.2446254e-04  -3.2112843e-05   7.3270814e-05  -2.0068114e-04   9.8482933e-06   1.5964803e-04   4.5016682e-04   1.1668132e-04  -5.4335298e-05   3.8598568e-04   7.4002164e-04   1.6832887e-04   7.8790610e-05   3.1285611e-04   3.2401609e-04  -8.7524613e-04  -2.3318849e-04   2.7000415e-04   1.2370462e-04  -1.5498184e-03   2.0403687e-04   4.6851957e-04   2.4891936e-03  -2.5874792e-04   3.0322648e-05  -3.0970853e-04   3.5484263e-04  -9.2171424e-04  -6.3804671e-04  -2.2662753e-04  -1.2397298e-04  -7.7014609e-04  -2.9063321e-04   1.0845892e-03   8.1130175e-04   5.1815365e-04  -4.4235200e-04   3.7470757e-04   4.5814298e-04
   3.1655366e-04   1.6773962e-04   7.4912306e-05   1.0222461e-04   2.5562907e-04   8.3480525e-05   2.0117253e-05  -4.0641651e-05   7.1959432e-05   5.8218229e-05   3.2157668e-06  -4.1838773e-04  -1.0144501e-04   1.9677724e-05  -2.5782851e-04  -4.9391350e-05   1.1389518e-04   4.0096373e-04   1.9079735e-05  -1.2924834e-04   3.5482744e-04   6.3501316e-04   6.7672154e-05  -2.0877902e-05   1.7793805e-04   2.1433184e-04  -9.0994488e-04  -2.9711641e-04   2.1574726e-04   4.2178872e-05  -1.6050120e-03   1.2494676e-04   3.1592179e-04   2.4011657e-03  -3.5414347e-04  -6.9333575e-05  -4.1527758e-04   2.5692396e-04  -8.9813292e-04  -7.5091468e-04  -3.9047061e-04  -2.4100812e-04  -9.4089948e-04  -4.2530685e-04   1.0021253e-03   7.3717820e-04   3.7892268e-04  -6.2996452e-04   2.8884606e-04   3.2503629e-04
   1.6391226e-04   6.9292223e-06  -5.7005767e-05  -3.7018264e-05   1.4355393e-04  -2.4971750e-05  -1.0987410e-04  -1.2871982e-04  -7.1333387e-05  -1.2502191e-04  -1.5729261e-04  -5.4009893e-04  -2.2703675e-04  -7.3723706e-05  -3.5630722e-04  -1.5307291e-04   3.0996471e-06   3.0091399e-04  -6.8523070e-05  -2.0564230e-04   2.8031360e-04   5.6005758e-04   1.8684388e-05  -1.7165050e-05   1.2397618e-04   1.5288306e-04  -9.1107149e-04  -2.9033897e-04   2.3007327e-04   4.4954038e-05  -1.5707660e-03   1.8501381e-04   4.6945765e-04   2.4967748e-03  -2.0363959e-04   5.6069974e-05  -2.6327348e-04   3.8178568e-04  -6.7933369e-04  -5.6548178e-04  -1.0452895e-04  -2.8667620e-05  -5.8627775e-04   4.5908306e-05   1.2012771e-03   9.9568546e-04   6.9089694e-04  -9.8213859e-05   5.7482737e-04   6.1639497e-04
   4.6598853e-04   3.4666347e-04   2.8733170e-04   3.3622910e-04   3.9818429e-04   2.8931469e-04   2.2651489e-04   1.6017210e-04   4.6691499e-04   3.5466722e-04   3.1603751e-04  -1.5077136e-04   1.0159491e-04   1.8341393e-04  -8.7395369e-05   1.5256184e-04   3.1972566e-04   6.1368616e-04   3.5383023e-04   8.2239239e-05   4.8026472e-04   8.4221072e-04   3.2704009e-04   2.6800309e-04   4.7710125e-04   4.5675441e-04  -7.7310350e-04  -1.4646733e-04   3.7904654e-04   2.3680327e-04  -1.4351766e-03   4.0377580e-04   6.6453806e-04   2.7244089e-03  -1.7655357e-04   2.4617402e-04  -2.6978890e-04   5.6807528e-04  -9.9081197e-04  -4.3032796e-04   4.7093035e-05   1.6897547e-04  -4.4383967e-04   2.2307289e-04   1.4292194e-03   1.1504353e-03   8.4753474e-04   1.1420740e-06   6.1537715e-04   6.5938570e-04
   5.0909194e-04   3.5373386e-04   3.3650227e-04   3.2141482e-04   3.9937088e-04   2.2467472e-04   1.9608301e-04   1.7619837e-04   4.2697624e-04   3.1799063e-04   3.1112932e-04  -1.3265749e-04   9.7460375e-05   2.0877199e-04  -7.7815159e-05   1.8789028e-04   3.5278991e-04   6.5681635e-04   3.4460123e-04   1.0800602e-04   4.8095474e-04   7.9902081e-04   3.0951001e-04   2.3955123e-04   4.3160899e-04   4.5535801e-04  -7.5037417e-04  -1.4594726e-04   3.9726717e-04   2.3046296e-04  -1.4459700e-03   4.0135949e-04   5.6130305e-04   2.6322182e-03  -2.3343401e-04   1.6215570e-04  -3.6045935e-04   5.2899786e-04  -9.6759753e-04  -4.9015519e-04  -7.2990792e-05   8.1954408e-05  -5.2348722e-04   7.2510185e-05   1.2770119e-03   1.0855565e-03   7.2676409e-04  -2.4463807e-04   6.5474113e-04   6.3639000e-04
   3.8595617e-04   1.8453810e-04   2.3704200e-04   2.0076674e-04   3.0810371e-04   1.1030903e-04   9.0308960e-05   8.5014864e-05   3.0935972e-04   1.6494065e-04   1.9883410e-04  -2.1211806e-04  -6.0894349e-06   1.3957215e-04  -1.5992066e-04   1.0606497e-04   2.6489512e-04   5.5730663e-04   2.0541572e-04   2.5188465e-05   3.6766639e-04   6.6586549e-04   2.1490257e-04   1.0138028e-04   3.0992957e-04   3.5278543e-04  -8.0077432e-04  -2.0197946e-04   2.8482976e-04   1.5631765e-04  -1.5259559e-03   3.0194176e-04   4.7372509e-04   2.5280812e-03  -2.9904497e-04   6.9855887e-05  -4.1915971e-04   4.1740888e-04  -8.5983623e-04  -6.1535480e-04  -1.3787982e-04   1.1355558e-05  -5.8711809e-04   8.8540022e-05   1.2797693e-03   1.0929147e-03   8.1991102e-04  -1.0259318e-04   6.0827500e-04   6.7291106e-04
   5.2211812e-04   3.7014106e-04   4.0990417e-04   4.1934830e-04   4.5087040e-04   3.3496632e-04   2.8914353e-04   2.4194238e-04   6.6834857e-04   4.9163343e-04   5.2004115e-04   6.8209512e-05   2.0420914e-04   2.9773649e-04   3.2162559e-05   3.3339506e-04   4.8745569e-04   7.6255936e-04   6.7517289e-04   3.0730505e-04   5.6999607e-04   9.4551395e-04   5.2137964e-04   4.9226329e-04   6.4949912e-04   6.6873839e-04  -6.3321542e-04  -2.6304342e-06   5.6604855e-04   3.8867947e-04  -1.2902608e-03   6.4500445e-04   8.2697254e-04   2.9184411e-03  -4.8018963e-05   4.3156790e-04  -1.9570913e-04   7.6153025e-04  -9.3560788e-04  -2.8142729e-04   2.8563186e-04   3.7447098e-04  -1.4669466e-04   5.0531374e-04   1.5393947e-03   1.4233282e-03   1.1301334e-03   2.7135498e-04   9.6085673e-04   9.0765022e-04
   7.0508197e-04   4.7273963e-04   5.7645998e-04   4.9935182e-04   5.3468748e-04   3.7026557e-04   3.6806066e-04   3.5027941e-04   7.7662850e-04   5.6470570e-04   6.1739830e-04   1.7520682e-04   2.6560531e-04   3.8820936e-04   7.0954637e-05   4.0568356e-04   5.9158879e-04   8.5133972e-04   6.3707086e-04   3.9016875e-04   5.7653768e-04   9.0297684e-04   5.4729887e-04   4.6378680e-04   6.2605867e-04   6.6637131e-04  -5.9511617e-04  -7.3049969e-06   5.4458698e-04   4.0379827e-04  -1.2589900e-03   6.6773320e-04   7.5423502e-04   2.9036088e-03  -1.2808503e-04   4.2208328e-04  -2.6752363e-04   7.7793672e-04  -9.5919607e-04  -2.8176379e-04   2.5598440e-04   3.5209427e-04  -1.4562567e-04   4.0379615e-04   1.5609085e-03   1.2914387e-03   1.0045785e-03   1.6521949e-04   8.9041673e-04   8.6831424e-04
   6.1946106e-04   3.8700970e-04   4.9588725e-04   3.9140030e-04   4.5199375e-04   2.6943960e-04   2.6344135e-04   2.7144820e-04   6.5238017e-04   4.0813300e-04   5.1626354e-04   1.2841451e-04   1.7139754e-04   3.2025264e-04   9.7664615e-06   3.3463672e-04   5.1860517e-04   7.6572772e-04   5.2092777e-04   3.1241187e-04   4.5962140e-04   7.8055175e-04   4.5325208e-04   3.6569822e-04   5.0931220e-04   5.6884455e-04  -6.2465784e-04  -4.0286930e-05   4.9462460e-04   3.4679472e-04  -1.3107613e-03   5.8846379e-04   6.6211628e-04   2.7524955e-03  -1.6088202e-04   2.8653955e-04  -3.0083139e-04   6.6566613e-04  -8.2113181e-04  -4.2617312e-04   1.2819772e-04   2.6822428e-04  -2.5879804e-04   3.0231811e-04   1.3205219e-03   1.2782183e-03   8.1792061e-04  -7.8901612e-05   6.1661261e-04   7.6349167e-04
   5.4160587e-04   2.9593712e-04   4.8071187e-04   3.9649697e-04   4.6038497e-04   3.0869024e-04   3.2392825e-04   2.9006082e-04   8.5280440e-04   5.8613683e-04   6.4968935e-04   2.9827512e-04   2.5549601e-04   3.8668234e-04   1.2343272e-04   4.5491519e-04   6.2069297e-04   8.5026101e-04   8.0719724e-04   4.8756282e-04   5.7954941e-04   9.5383829e-04   6.4630411e-04   6.2623876e-04   7.2974409e-04   7.6318096e-04  -5.0746615e-04   1.0223350e-04   7.1189489e-04   5.0753501e-04  -1.1356939e-03   8.2259817e-04   9.4041525e-04   3.0675039e-03   8.7547072e-05   6.0746231e-04  -5.9672915e-05   9.4762270e-04  -7.3101488e-04  -1.1108399e-04   4.9893139e-04   6.6461484e-04   1.5119121e-04   8.5700105e-04   1.7094294e-03   1.5987605e-03   1.2995518e-03   4.8154558e-04   9.7806216e-04   1.0918139e-03
   8.5213850e-04   5.6713744e-04   7.5412233e-04   6.2337896e-04   6.2788225e-04   4.8853544e-04   4.9857964e-04   5.0647533e-04   1.0264333e-03   7.0752535e-04   8.6544314e-04   4.7347040e-04   3.8430135e-04   5.2903855e-04   2.2659272e-04   5.8633654e-04   7.7313615e-04   9.8906341e-04   8.7878219e-04   6.2213605e-04   6.4176356e-04   9.9573832e-04   7.1990618e-04   7.0023851e-04   7.9205190e-04   8.6092378e-04  -4.3788535e-04   1.5238032e-04   7.5074018e-04   5.6988472e-04  -1.0571220e-03   8.8492618e-04   9.1592863e-04   3.1025882e-03   4.4355784e-05   6.1724184e-04  -1.0425167e-04   9.6745306e-04  -7.2819594e-04  -1.2312333e-04   4.8986578e-04   6.6577207e-04   1.7224955e-04   7.2180916e-04   1.6849929e-03   1.5879377e-03   1.2776885e-03   4.9575232e-04   9.9707022e-04   1.0460604e-03
   8.2307053e-04   5.5472524e-04   7.0894981e-04   5.5495196e-04   5.8316498e-04   4.0891269e-04   4.2545586e-04   4.3812476e-04   8.8093901e-04   5.8424397e-04   7.6509139e-04   4.3199552e-04   3.0540230e-04   4.9653422e-04   1.7759833e-04   5.1737367e-04   7.1772782e-04   9.1884384e-04   7.8764412e-04   5.7633634e-04   5.0806213e-04   8.7836874e-04   6.3990010e-04   5.9785513e-04   6.5022463e-04   7.7735039e-04  -4.7060527e-04   1.2225882e-04   7.0966483e-04   5.1253842e-04  -1.1013347e-03   8.2072156e-04   7.9268205e-04   2.9617392e-03  -1.3220078e-05   4.9464864e-04  -1.2888000e-04   8.7195216e-04  -6.2178005e-04  -2.7144022e-04   3.6076392e-04   5.2426313e-04   2.8535895e-05   5.9309159e-04   1.5280838e-03   1.3912835e-03   1.1463522e-03   2.2827990e-04   7.7816314e-04   9.6097053e-04
   7.0991518e-04   3.9667168e-04   5.9793418e-04   4.5652338e-04   5.2072480e-04   3.5717658e-04   3.6043543e-04   3.5684326e-04   9.0178056e-04   6.0900918e-04   7.4614206e-04   4.5950897e-04   3.0299669e-04   5.0134730e-04   2.1806716e-04   5.6350150e-04   7.6691527e-04   9.4215496e-04   9.7588886e-04   6.9071481e-04   5.9652957e-04   1.0160345e-03   7.5422809e-04   7.6964701e-04   8.2966039e-04   9.5778907e-04  -3.7984311e-04   2.5237919e-04   8.8697666e-04   6.4127299e-04  -9.6035562e-04   9.9495356e-04   9.4252394e-04   3.1724437e-03   2.0754474e-04   7.8432384e-04   1.2555991e-04   1.0803055e-03  -5.3244649e-04  -4.1915817e-07   6.7024468e-04   8.2376483e-04   3.3795607e-04   1.0099972e-03   1.9184527e-03   1.7846805e-03   1.6288910e-03   8.0541865e-04   1.1481130e-03   1.2483125e-03
   1.1164992e-03   7.7887444e-04   9.4319665e-04   8.0523494e-04   7.7578920e-04   6.4749375e-04   6.4959307e-04   6.5043458e-04   1.1904730e-03   8.6743460e-04   1.0718154e-03   7.1403646e-04   4.8505960e-04   6.9256831e-04   3.5656281e-04   7.2570943e-04   9.6387014e-04   1.1096299e-03   1.1120824e-03   8.6487859e-04   6.3457666e-04   1.0964816e-03   8.7207288e-04   8.5974683e-04   9.0935535e-04   1.0638427e-03  -2.8663076e-04   2.9532574e-04   9.8050083e-04   6.9877435e-04  -8.4664626e-04   1.0918360e-03   1.0007098e-03   3.2123702e-03   1.9458067e-04   8.3753630e-04   1.2981379e-04   1.1292495e-03  -5.6957948e-04   4.1686258e-06   6.4229680e-04   8.4907492e-04   3.5880785e-04   9.6778612e-04   1.8469431e-03   1.7668158e-03   1.5453257e-03   7.7154784e-04   9.9355273e-04   1.2230487e-03
   1.1071529e-03   7.2907133e-04   9.1172295e-04   7.4709661e-04   7.3183695e-04   5.5301969e-04   5.7751441e-04   6.0304580e-04   1.0682048e-03   7.4796221e-04   9.8828005e-04   6.7065563e-04   3.9820641e-04   6.5478327e-04   3.4188511e-04   6.7473965e-04   9.0842217e-04   1.0300246e-03   9.6451433e-04   8.0967188e-04   5.4720393e-04   9.9253037e-04   7.7651604e-04   7.1459182e-04   7.4896630e-04   9.7325502e-04  -3.0393034e-04   2.6032378e-04   9.5309614e-04   6.2748912e-04  -8.9504739e-04   9.8395406e-04   8.2396693e-04   3.0482293e-03   1.0536475e-04   6.6381542e-04   5.1998406e-05   9.9031650e-04  -4.4550985e-04  -1.7687176e-04   4.5894313e-04   6.4755557e-04   1.4427799e-04   7.5949391e-04   1.6856166e-03   1.5992107e-03   1.2949795e-03   4.2286477e-04   8.9541206e-04   1.0364450e-03
   9.6852117e-04   5.6489406e-04   7.4360706e-04   5.8303052e-04   6.1547849e-04   4.3290496e-04   4.5644509e-04   4.7480012e-04   8.9132925e-04   5.4732244e-04   7.9234049e-04   5.4366648e-04   2.7079057e-04   5.5156235e-04   2.2366221e-04   5.3384312e-04   7.6153193e-04   8.8280049e-04   8.9455687e-04   7.4623933e-04   4.8436216e-04   9.1726071e-04   7.2619563e-04   7.0061936e-04   7.2356081e-04   9.3655416e-04  -3.1509684e-04   2.8426448e-04   9.4864779e-04   6.2231818e-04  -8.6625613e-04   1.0352290e-03   9.3599263e-04   3.1660167e-03   2.5576621e-04   8.1180967e-04   2.5092118e-04   1.0867268e-03  -1.6895679e-04  -2.4570907e-05   6.4405799e-04   8.2642282e-04   3.4142818e-04   1.1318856e-03   1.8814538e-03   1.8346000e-03   1.7146716e-03   9.1353524e-04   1.1840744e-03   1.3591229e-03
   1.3057764e-03   8.8591210e-04   1.0898755e-03   9.7076286e-04   9.1965741e-04   8.1057235e-04   8.0877397e-04   8.0506306e-04   1.3303484e-03   9.7857893e-04   1.2399745e-03   9.1458287e-04   5.4569758e-04   8.2723337e-04   5.0690421e-04   8.2992850e-04   1.0639200e-03   1.1629068e-03   1.1990569e-03   1.0443514e-03   6.5471674e-04   1.1557546e-03   9.6519303e-04   9.2548778e-04   9.5754414e-04   1.1910925e-03  -1.7460276e-04   4.2138741e-04   1.1334913e-03   7.9882465e-04  -7.0758513e-04   1.1999874e-03   1.0481738e-03   3.2935133e-03   3.1376132e-04   9.3018916e-04   3.5014781e-04   1.2166658e-03  -3.0179170e-04   6.8346606e-05   7.3694024e-04   8.7084417e-04   4.6706205e-04   1.1201475e-03   1.9557464e-03   1.8742055e-03   1.6414274e-03   9.1012963e-04   1.1322122e-03   1.3956887e-03
   1.3109806e-03   8.5813273e-04   1.0475258e-03   8.9232344e-04   8.8144315e-04   7.1908702e-04   7.1210053e-04   7.4682315e-04   1.1634815e-03   8.7211066e-04   1.1371331e-03   8.6991338e-04   4.9350603e-04   7.9789897e-04   4.3395997e-04   7.8145904e-04   1.0332834e-03   1.1161402e-03   1.0771666e-03   1.0026580e-03   6.5003271e-04   1.0876131e-03   8.9319685e-04   8.1146025e-04   8.6618587e-04   1.1245839e-03  -2.0233293e-04   3.8973286e-04   1.0967001e-03   7.5238675e-04  -7.3702866e-04   1.1165097e-03   8.8322151e-04   3.1384761e-03   2.2288617e-04   7.4164837e-04   2.6168785e-04   1.0808775e-03  -2.4383035e-04  -9.6162148e-05   5.3270225e-04   7.1500969e-04   2.4063216e-04   8.1579702e-04   1.7388704e-03   1.6750884e-03   1.4747255e-03   6.4397795e-04   1.2434105e-03   1.2260006e-03
   1.1198585e-03   7.1010087e-04   8.5274247e-04   7.0839125e-04   7.4331119e-04   5.6794938e-04   5.5885565e-04   6.0700299e-04   9.5677678e-04   6.4170460e-04   9.1491587e-04   7.1633246e-04   3.2918857e-04   6.7971437e-04   3.2362752e-04   6.2226848e-04   8.5001526e-04   9.3930052e-04   8.6837512e-04   8.4287545e-04   4.5299949e-04   9.1546820e-04   7.1180693e-04   5.9589680e-04   6.5981399e-04   9.3625713e-04  -3.1044558e-04   2.9403620e-04   9.0556248e-04   6.3595071e-04  -8.7932328e-04   9.1583672e-04   6.8642129e-04   2.9328617e-03   1.1707539e-04   5.8160559e-04   1.9227646e-04   8.6424459e-04  -7.6102697e-05  -2.9004269e-04   3.0906600e-04   5.2747712e-04   1.2280198e-05   7.0686173e-04   1.6110498e-03   1.5374125e-03   1.5101221e-03   5.7339220e-04   9.6497970e-04   1.1561657e-03
   1.1991058e-03   7.9577666e-04   9.2980807e-04   8.7458169e-04   8.6191104e-04   7.8011065e-04   7.3947263e-04   7.2339363e-04   1.1341296e-03   8.9637307e-04   1.1351526e-03   8.9653168e-04   4.7818644e-04   8.1809843e-04   4.6097231e-04   7.6973008e-04   9.8843756e-04   1.0681533e-03   1.1699944e-03   1.0625798e-03   6.5592711e-04   1.1756492e-03   9.4887620e-04   9.1696600e-04   9.6506864e-04   1.1952103e-03  -1.6587210e-04   4.7661821e-04   1.1442970e-03   8.4465090e-04  -6.6237600e-04   1.1875574e-03   9.9961285e-04   3.2254579e-03   3.9913013e-04   8.9063792e-04   4.9245940e-04   1.1331488e-03  -8.6632921e-05  -2.5411151e-07   6.2934391e-04   7.8503514e-04   4.0265379e-04   1.1080056e-03   1.8874953e-03   1.8376590e-03   1.6528761e-03   9.3132845e-04   1.1695130e-03   1.3561768e-03
   1.3509189e-03   8.9741516e-04   1.0238590e-03   9.3559030e-04   9.4992330e-04   8.1663090e-04   7.9654052e-04   8.1001082e-04   1.1050680e-03   8.9895655e-04   1.1529769e-03   9.2801894e-04   4.9854279e-04   8.7001262e-04   4.6663792e-04   7.8564958e-04   1.0138537e-03   1.0969418e-03   1.0622017e-03   1.0663749e-03   6.4883189e-04   1.1521616e-03   9.0177951e-04   8.1494841e-04   8.9140458e-04   1.1373038e-03  -1.9123529e-04   4.3144793e-04   1.0810583e-03   8.2288584e-04  -6.8349182e-04   1.1200131e-03   8.9211296e-04   3.1002520e-03   2.9509864e-04   7.7119260e-04   4.2393501e-04   1.0740747e-03  -8.2363433e-05  -1.1561674e-04   5.0621177e-04   6.8047660e-04   2.7130061e-04   7.0384511e-04   1.6228096e-03   1.7378603e-03   1.4822782e-03   7.1018661e-04   1.1705095e-03   1.2004165e-03
   1.1727768e-03   7.8177871e-04   8.3714188e-04   7.3665031e-04   8.0732559e-04   6.3811830e-04   6.0837873e-04   6.4430333e-04   8.4602681e-04   6.4591598e-04   8.9178327e-04   7.4943132e-04   3.3097735e-04   7.2264625e-04   3.3403005e-04   6.0814887e-04   8.2997780e-04   9.0859295e-04   8.4547000e-04   8.8425609e-04   4.9823971e-04   9.7048620e-04   7.0246134e-04   5.8229483e-04   6.6133245e-04   9.3405269e-04  -2.9953619e-04   3.4210962e-04   8.9045858e-04   6.9524249e-04  -8.4278249e-04   8.9926535e-04   6.8326149e-04   2.8465739e-03   1.8034552e-04   4.9904751e-04   3.0825241e-04   8.2827767e-04   6.7589033e-05  -3.3087708e-04   2.4502585e-04   4.0477785e-04   2.7041726e-05   3.3950669e-04   1.3991533e-03   1.4323059e-03   1.1649615e-03   3.6411206e-04   8.7735843e-04   1.0183605e-03
   9.1190636e-04   5.3299440e-04   5.7361979e-04   4.7520708e-04   6.2655425e-04   4.4129859e-04   4.0948682e-04   4.8297850e-04   4.9160171e-04   3.5861682e-04   5.8247545e-04   4.9090968e-04   1.2502294e-04   5.4820237e-04   1.7621252e-04   3.9500606e-04   6.0026173e-04   6.9747085e-04   6.7944592e-04   7.5431284e-04   4.3857866e-04   8.8359270e-04   5.9060252e-04   5.3205638e-04   5.6883524e-04   8.3690591e-04  -3.4792317e-04   3.2901351e-04   8.3659356e-04   6.8327779e-04  -8.7119162e-04   8.7742234e-04   7.3122873e-04   2.8980603e-03   2.9938496e-04   6.1850075e-04   5.0723710e-04   8.9612720e-04   3.1495115e-04  -2.0899685e-04   3.4453702e-04   5.5682956e-04   1.9982779e-04   8.2504074e-04   1.5648842e-03   1.5476268e-03   1.4250319e-03   7.5291650e-04   1.1198359e-03   1.2206272e-03
   1.1698328e-03   8.4190443e-04   8.4680860e-04   8.2493003e-04   8.8859291e-04   7.8878627e-04   7.4077852e-04   7.3347299e-04   8.3715440e-04   7.4737740e-04   9.4326754e-04   7.9146941e-04   3.6637444e-04   7.5870013e-04   3.6308522e-04   5.9792824e-04   7.9261896e-04   9.0124458e-04   8.8547711e-04   9.3354250e-04   6.0626934e-04   1.0754253e-03   7.6333404e-04   6.9291721e-04   7.3171878e-04   9.8924665e-04  -2.8379494e-04   4.0224797e-04   9.1824564e-04   8.0476841e-04  -8.1612600e-04   9.2890428e-04   8.2872913e-04   2.9195873e-03   3.0217675e-04   6.2883907e-04   5.1555678e-04   9.2338870e-04   1.5983779e-04  -2.2354323e-04   3.9232121e-04   5.6661898e-04   2.2641265e-04   6.7239889e-04   1.5508189e-03   1.5594945e-03   1.3731747e-03   7.1876397e-04   8.8886981e-04   1.2597505e-03
   1.0521178e-03   7.2861643e-04   7.5991120e-04   6.4215210e-04   8.0883136e-04   6.3040474e-04   5.9594354e-04   6.8576488e-04   6.2107586e-04   5.6344812e-04   7.5369258e-04   6.5021863e-04   2.7930492e-04   6.8551284e-04   2.3706064e-04   5.2402692e-04   6.6690566e-04   8.0218760e-04   7.4910704e-04   8.6546526e-04   5.3555204e-04   9.7684923e-04   6.4288103e-04   5.0838338e-04   6.3248625e-04   8.6187926e-04  -5.6519264e-05   3.5804178e-04   7.5971306e-04   5.3319830e-04  -9.4923360e-04   8.0218312e-04   7.3066400e-04   2.7179888e-03   1.7840248e-04   4.2331393e-04   4.5421661e-04   7.7105634e-04   1.5259052e-04  -4.5008236e-04   1.2557187e-04   2.8897970e-04  -1.4253125e-04   3.7983322e-04   1.2101809e-03   1.3655156e-03   1.1314341e-03   2.2159098e-04   9.0360816e-04   1.0934536e-03
   7.6628674e-04   4.9770018e-04   5.4593961e-04   3.8134784e-04   6.4387440e-04   4.2262443e-04   3.8906446e-04   5.1643851e-04   2.6540150e-04   2.9106031e-04   4.5234186e-04   4.0490209e-04   7.8098223e-05   5.1889563e-04   4.5070214e-05   3.5710458e-04   4.3626825e-04   5.7437213e-04   5.2616547e-04   6.9374556e-04   4.5155091e-04   7.9221587e-04   4.4643998e-04   2.4307580e-04   4.1124097e-04   6.7806005e-04  -1.5939354e-04   2.6502385e-04   5.9246487e-04   3.9616248e-04  -1.1633964e-03   5.2555668e-04   5.8586785e-04   2.4372716e-03   4.0015359e-05   1.6064163e-04   3.6118636e-04   5.0890079e-04   3.3575756e-04  -7.1146688e-04  -1.4322568e-04   6.9208186e-06  -4.9539906e-04   1.3436085e-04   1.0280497e-03   1.2958347e-03   9.1279979e-04   5.4041942e-05   7.5204932e-04   1.0984995e-03
   7.1498967e-04   4.8349638e-04   6.1635661e-04   4.8346102e-04   7.1235641e-04   5.4315547e-04   5.2920758e-04   6.0452154e-04   3.9417073e-04   4.8123105e-04   5.8322964e-04   5.1613431e-04   1.7380841e-04   5.4436980e-04   1.0160588e-04   4.7439188e-04   4.5110079e-04   5.9548911e-04   7.7078701e-04   8.5110537e-04   6.4597372e-04   1.0540066e-03   6.4953015e-04   5.3031003e-04   6.7857798e-04   8.8274758e-04  -9.5764772e-05   3.8263906e-04   6.9748261e-04   5.6536548e-04  -1.0505583e-03   6.5739418e-04   9.2138950e-04   2.6686266e-03   2.6540618e-04   4.1087472e-04   6.0817105e-04   6.9782702e-04   2.7177026e-04  -4.7484066e-04   9.7491051e-05   2.5479536e-04  -2.4827066e-04   4.6784451e-04   1.2814972e-03   1.4635482e-03   1.1433655e-03   4.1430295e-04   6.5464003e-04   1.0983972e-03
   8.6383021e-04   5.8333174e-04   6.0439616e-04   5.3128903e-04   7.6416950e-04   5.6343758e-04   5.0301309e-04   6.2365952e-04   2.8633841e-04   5.0500687e-04   5.0157175e-04   5.2127166e-04   1.9063587e-04   5.1482115e-04   1.0648931e-04   4.2651052e-04   4.6161423e-04   5.9923308e-04   5.8045925e-04   7.1770127e-04   6.4887723e-04   9.9285471e-04   5.2545621e-04   4.5994067e-04   6.3715217e-04   7.6176599e-04  -1.2509781e-04   3.1299371e-04   6.4302637e-04   4.9796171e-04  -1.0814070e-03   5.7178712e-04   6.3047919e-04   2.5488655e-03   1.6498887e-04   2.6396313e-04   4.8284713e-04   6.0012494e-04   8.8376248e-05  -5.9482909e-04  -6.3588071e-05   9.5793919e-05  -4.6501885e-04   7.1389761e-05   1.0324921e-03   1.0503177e-03   9.9919643e-04   1.0246044e-04   5.6773523e-04   7.5371470e-04
   7.6595182e-04   4.5693497e-04   3.7963162e-04   3.4804241e-04   6.3320482e-04   3.9710919e-04   2.9772683e-04   4.3782720e-04   2.2405919e-05   2.6323978e-04   2.0890396e-04   3.4946675e-04   2.8094459e-05   3.7592254e-04   1.9469826e-05   2.3396774e-04   2.8822108e-04   4.2479640e-04   2.6672019e-04   4.5266002e-04   5.0980027e-04   7.2783651e-04   3.0621202e-04   2.5875773e-04   4.1510022e-04   5.2317407e-04  -1.2109085e-04   2.0890481e-04   4.3292265e-04   2.6982036e-04  -1.2352364e-03   3.2265770e-04   3.3712870e-04   2.3255127e-03   2.1645474e-05   1.2062597e-05   3.3318804e-04   3.6127045e-04   7.0121896e-05  -8.6026825e-04  -2.5866722e-04  -1.9756539e-04  -5.7450839e-04  -4.8258508e-04   6.6252571e-04   7.0957822e-04   5.6011247e-04  -2.7130105e-04   3.0818311e-04   3.6725102e-04
   4.9198366e-04   2.6240485e-04   1.0601566e-04   1.2985355e-04   4.7945822e-04   2.4215302e-04   1.2025957e-04   3.0798127e-04  -1.8127554e-04   1.6571599e-04  -2.5259342e-05   2.7742441e-04  -4.4318651e-05   2.5942377e-04  -2.1928225e-05   1.4385808e-04   1.8906940e-04   3.3106483e-04   3.0953911e-04   3.7813091e-04   5.7240285e-04   7.0811860e-04   3.2852733e-04   3.9980072e-04   4.4731688e-04   4.9676554e-04  -9.4898460e-05   2.6045143e-04   4.0663179e-04   3.8732711e-04  -1.1647196e-03   4.1213029e-04   5.0625479e-04   2.4267416e-03   1.7086210e-04   1.4720166e-04   5.1392399e-04   4.7776228e-04   3.2078792e-04  -6.4552901e-04  -5.5656041e-05   4.6846199e-05  -2.8184499e-04  -9.8747609e-05   9.4253302e-04   8.7605696e-04   7.6946616e-04   2.3738162e-04   6.5754307e-04   4.3704943e-04
   7.4075465e-04   5.6619931e-04   3.3748697e-04   3.9353158e-04   6.2169804e-04   4.4009631e-04   3.2844872e-04   4.8106807e-04   1.2413117e-04   4.3399396e-04   1.9276106e-04   4.6044955e-04   8.3935854e-05   3.4798501e-04   1.2380241e-04   1.9231104e-04   2.5632203e-04   3.6755405e-04   2.0362434e-04   3.7381196e-04   5.3605111e-04   4.9179053e-04   3.0462409e-04   3.9859864e-04   3.9896634e-04   4.2259740e-04   1.6684066e-04   2.9433146e-04   2.9688404e-04   1.9405260e-04  -1.1742089e-03   3.0135107e-04   3.2164506e-04   2.3976655e-03   1.2614256e-04   8.7659879e-05   4.2472183e-04   3.9999906e-04   1.8609311e-04  -7.2030077e-04  -1.0658039e-04  -5.5060267e-05  -2.5502712e-04  -3.9007229e-04   6.6280190e-04   7.3389499e-04   5.1013473e-04   5.1486928e-05   3.7103504e-04   3.9440981e-04
   5.0595216e-04   3.5751754e-04   2.8265556e-04   2.2760128e-04   5.0813000e-04   2.5256720e-04   1.8293571e-04   3.4981084e-04  -1.7823379e-04   2.4206772e-04   1.1270511e-05   2.3097135e-04  -7.1221446e-05   2.2847822e-04  -9.2349837e-05   9.6711985e-05   7.1901093e-05   1.2321596e-04   1.4824634e-04   3.0757062e-04   5.4873753e-04   4.9292721e-04   1.7245482e-04   1.0158468e-04   2.5355478e-04   3.0888763e-04   1.3360134e-04   1.9967559e-04   1.9237118e-04  -4.5840326e-05  -1.3884098e-03  -5.6590466e-06   3.2206290e-04   2.0726728e-03  -1.1235446e-04  -1.9096065e-04   2.6526061e-04   1.0540221e-04   4.4374901e-04  -1.0512602e-03  -4.7982924e-04  -3.5799938e-04  -8.3472306e-04  -7.6446723e-04   4.3002589e-04   6.7392638e-04   2.7282769e-04  -4.9202313e-04   2.9615342e-04   2.5243752e-04
   2.0741507e-04   8.3856321e-05   3.9212497e-05  -1.0525298e-05   3.0868678e-04   2.2362899e-05  -3.6196052e-05   1.2933373e-04  -4.9872149e-04  -3.5521360e-05  -3.0306177e-04  -5.4786826e-05  -2.8044707e-04   3.3106957e-05  -2.5080293e-04  -9.9539015e-05  -1.3336723e-04  -9.3418843e-05  -1.0986112e-04   9.5968040e-05   4.5357371e-04   3.2486892e-04  -4.2828451e-06   1.3702514e-05   6.9072950e-05   1.0893432e-04   4.3592881e-05   1.0659722e-04   7.2641553e-05  -1.3216748e-04  -1.4166165e-03  -5.7224916e-05   3.3174100e-04   2.0964015e-03  -6.1513594e-05  -1.7174803e-04   3.4275663e-04   1.3734019e-04   4.9123383e-04  -9.1032550e-04  -3.1141916e-04  -2.1522847e-04  -5.8656727e-04  -2.9721137e-04   5.3861638e-04   8.2907552e-04   4.2070571e-04  -3.4177559e-05   3.4155868e-04   2.4567285e-04
   4.8745662e-04   4.1176190e-04   2.8095010e-04   3.5244183e-04   5.3007674e-04   3.3240273e-04   2.5403997e-04   3.7435972e-04  -3.8260063e-05   4.1650687e-04   8.8905093e-05   3.1248020e-04  -1.4061750e-07   1.9123491e-04  -1.7726634e-05   9.2926995e-05   8.2221370e-05   1.2367639e-04   1.3491689e-04   2.2409920e-04   6.5379718e-04   5.5344426e-04   2.1379748e-04   2.3312328e-04   3.0072755e-04   3.0552270e-04   1.3938246e-04   2.1478986e-04   1.8235735e-04   4.2864274e-05  -1.3291861e-03   9.7294969e-06   3.5046643e-04   2.1710710e-03   1.8668088e-05  -1.2653694e-04   3.3956804e-04   1.7176161e-04   3.9230776e-04  -8.6915994e-04  -3.0530183e-04  -2.5821998e-04  -5.0668383e-04  -3.7957891e-04   4.4762591e-04   7.5094757e-04   3.2071167e-04  -1.4335354e-04   3.0187354e-04   1.8128200e-04
   3.8506745e-04   3.0731087e-04   2.2373319e-04   2.2560886e-04   4.2370716e-04   1.8244841e-04   1.0549826e-04   2.5248306e-04  -2.0028533e-04   2.7208793e-04  -5.8842212e-05   1.5887071e-04  -1.1316012e-04   1.0255902e-04  -9.7971104e-05   3.6481053e-06   3.2799537e-05   2.9915698e-05  -8.3475388e-05   1.2996288e-04   5.5803172e-04   4.3281316e-04   5.9899237e-05   4.3589640e-05   1.3573559e-04   1.5763303e-04   5.2007166e-05   1.1261806e-04   2.2316970e-05  -7.1818933e-05  -1.4373219e-03  -1.6820715e-04   1.1857557e-04   2.0101049e-03  -1.2496641e-04  -3.1619053e-04   1.6230802e-04  -3.0033405e-05   2.4833018e-04  -1.0748303e-03  -4.9980282e-04  -4.9145776e-04  -7.1474304e-04  -8.3067740e-04   8.7553133e-05   3.2527457e-04  -3.9105966e-05  -5.1999575e-04   1.5125691e-04  -5.4437696e-05
   8.9673689e-05   7.4303847e-05  -3.2201191e-05  -5.0753264e-05   2.1869730e-04  -5.3466545e-05  -1.3137743e-04   3.6438312e-05  -4.8192806e-04  -1.1529713e-05  -3.4207728e-04  -1.0683400e-04  -3.1205014e-04  -7.3597323e-05  -2.6144649e-04  -2.0499053e-04  -1.4253525e-04  -1.8449675e-04  -3.7969509e-04  -8.3143874e-05   4.4420504e-04   2.1025102e-04  -1.7315565e-04  -2.2355342e-04  -1.1277763e-04  -1.0223727e-04  -8.6148277e-05  -3.3449596e-05  -2.3157817e-04  -2.4429944e-04  -1.5605454e-03  -3.8404998e-04  -6.1289473e-05   1.8024291e-03  -2.2607452e-04  -4.5385063e-04   6.7817455e-05  -1.0575690e-04   4.9714075e-04  -1.0235622e-03  -4.5253310e-04  -4.5060515e-04  -5.3466036e-04  -6.2559289e-04   2.2358255e-04   5.1806442e-04   7.6964585e-05  -1.7136968e-04   2.0604156e-04   9.1490663e-05
   2.5184226e-04   2.4525027e-04   1.9239275e-04   2.4639675e-04   3.6438167e-04   1.5354424e-04   9.1170325e-05   1.7568788e-04  -1.4312762e-04   3.5432898e-04  -1.6587226e-05   1.6345977e-04  -1.0602509e-04   6.9232119e-05  -9.3176801e-05  -2.9523842e-05   1.5151319e-05   3.1249760e-06  -1.9952809e-05   1.3737017e-04   6.5161037e-04   5.6982721e-04   8.9257243e-05   1.0875718e-04   1.8190421e-04   1.7004760e-04   3.1219548e-05   1.1484303e-04   4.6470610e-05  -6.6515444e-05  -1.4599559e-03  -1.9588656e-04   1.9907088e-04   1.9630613e-03  -6.4746528e-05  -2.5827280e-04   2.1837644e-04   2.3949835e-05   3.2726888e-04  -8.5054507e-04  -3.7613732e-04  -3.7759266e-04  -4.6647113e-04  -4.7416118e-04   2.8571420e-04   5.0825829e-04   1.1528476e-04  -2.1302735e-04   1.7914332e-04   1.5638034e-04
   1.8115243e-04   2.2444196e-04   1.6805844e-04   1.5251867e-04   2.8984025e-04   3.1538806e-05  -1.3784678e-05   1.0833605e-04  -2.9831188e-04   2.3173932e-04  -1.2896779e-04   1.8728937e-05  -1.8417172e-04  -4.3408472e-06  -1.6028153e-04  -1.0695661e-04  -2.6228947e-05  -6.9875365e-05  -1.5649092e-04   6.3252068e-05   6.1524031e-04   4.5392907e-04  -4.8852336e-05  -5.1100964e-05   1.3226598e-05   6.1697276e-05  -2.8076185e-05   3.5035482e-05  -5.7094199e-05  -1.5915171e-04  -1.5279511e-03  -3.6121396e-04   5.9901693e-05   1.7953838e-03  -1.7693730e-04  -3.7940574e-04   6.7665074e-05  -1.3684577e-04   2.4895259e-04  -1.0617677e-03  -5.5097404e-04  -5.6946301e-04  -6.2658178e-04  -9.0035953e-04   5.4831751e-05   2.6860152e-04  -1.7953334e-04  -5.4321409e-04  -1.8473655e-04  -3.6762194e-05
  -9.4022609e-05  -1.0824200e-04  -8.8174078e-05  -1.1498324e-04   8.7471562e-05  -1.7446025e-04  -2.3193553e-04  -7.4018018e-05  -5.1189819e-04  -5.8203488e-05  -4.1329765e-04  -2.5299061e-04  -3.9444116e-04  -1.5142483e-04  -3.0539869e-04  -2.8325539e-04  -1.8867628e-04  -2.4849252e-04  -4.4621140e-04  -1.2267314e-04   4.7464680e-04   2.4746242e-04  -2.6328399e-04  -3.1992613e-04  -2.1411291e-04  -1.6310993e-04  -1.3308844e-04  -7.6171877e-05  -2.3693335e-04  -3.2375308e-04  -1.6480786e-03  -5.4391427e-04  -6.1467705e-05   1.6021295e-03  -2.8411462e-04  -4.9805024e-04  -4.1928079e-06  -2.0631525e-04   4.6302401e-04  -1.1030930e-03  -5.6151091e-04  -4.9210375e-04  -6.6341046e-04  -5.9334305e-04   2.4106257e-04   3.4193860e-04   5.4844249e-06  -3.0209110e-04   1.4410424e-04   4.4162964e-05
   9.6415679e-05   1.4017480e-04   1.4032502e-04   1.7921400e-04   2.5268600e-04   3.3928420e-05  -9.7621914e-06   7.7941681e-05  -2.0527105e-04   2.8689418e-04  -9.4496943e-05   1.9161665e-05  -1.8043323e-04  -1.9561594e-05  -1.3193247e-04  -1.0018217e-04  -1.2135362e-05  -4.4430930e-05  -1.3683228e-04   5.1527168e-05   6.2758796e-04   5.5284769e-04  -2.1547592e-05   3.9479743e-05   5.8236285e-05   8.3801257e-05  -1.8164043e-05   7.6423981e-05  -3.0141266e-05  -1.2770582e-04  -1.4744096e-03  -3.6329852e-04   1.1998983e-04   1.8104902e-03  -8.1794336e-05  -3.1713390e-04   9.7738899e-05  -4.3584019e-05   2.7598132e-04  -9.1724884e-04  -4.1348246e-04  -3.9330820e-04  -4.6104845e-04  -6.2738761e-04   1.0364802e-04   2.7488469e-04  -2.2839744e-05  -3.5530044e-04   5.5851699e-05   3.8365193e-05
   5.9387727e-05   9.4706113e-05   8.2225582e-05   1.0324012e-04   1.8138156e-04  -5.4692260e-05  -1.1648899e-04   2.8654789e-05  -3.1325637e-04   1.6128832e-04  -2.1040339e-04  -9.7193049e-05  -2.4977486e-04  -6.4054388e-05  -1.4769752e-04  -1.6702697e-04  -2.7014952e-05  -8.1119193e-05  -3.5152683e-04  -4.6233836e-05   5.5303768e-04   4.4307823e-04  -1.5061075e-04  -1.1698248e-04  -6.5092812e-05  -4.9696897e-05  -5.2417719e-05   6.9601369e-06  -9.9861325e-05  -1.9332532e-04  -1.5099589e-03  -4.4630643e-04  -4.7298610e-05   1.6919344e-03  -1.7299407e-04  -4.7597886e-04   6.8054610e-06  -1.5818355e-04   1.6259933e-04  -1.0825867e-03  -5.3971866e-04  -5.6436477e-04  -5.8301771e-04  -1.0364070e-03  -4.0251980e-05   2.0630727e-05  -2.5876219e-04  -6.4445561e-04  -1.9593281e-04  -1.4587256e-04
  -1.6235661e-04  -1.3005458e-04  -1.3168693e-04  -1.2323918e-04   2.0888941e-05  -2.3882574e-04  -3.0752888e-04  -1.5146400e-04  -5.7186803e-04  -1.0701285e-04  -4.6718953e-04  -3.1441008e-04  -4.1081221e-04  -1.8317807e-04  -2.9789886e-04  -2.8969094e-04  -1.8504956e-04  -2.4790980e-04  -4.8902369e-04  -1.8167576e-04   4.3961528e-04   3.4221463e-04  -2.9447780e-04  -3.2295132e-04  -2.1275559e-04  -1.9460765e-04  -1.0725151e-04  -7.2692012e-05  -1.8083576e-04  -3.6675992e-04  -1.5882454e-03  -5.5245502e-04   1.5410087e-05   1.5791773e-03  -2.2784089e-04  -4.8763814e-04   9.9585232e-06  -1.1800126e-04   4.6637171e-04  -1.0261298e-03  -5.3664658e-04  -3.5494968e-04  -6.7237811e-04  -5.5675855e-04   2.8534475e-04   2.6662025e-04   5.0016049e-05  -3.8351244e-04   1.3016771e-04   1.5114181e-04
   7.4005118e-05   1.1614810e-04   1.7833408e-04   1.9021264e-04   2.3553273e-04   2.0656895e-05  -3.4790217e-05   6.6158194e-05  -2.0949815e-04   2.6131319e-04  -1.0246451e-04  -2.0612259e-05  -1.6984808e-04  -7.8925899e-07  -1.5130363e-04  -5.5544799e-05   8.4993235e-06  -2.6156637e-05  -1.0221392e-04   5.7246983e-05   6.5368996e-04   6.5494858e-04  -4.9181522e-06   7.1092277e-06   8.7929860e-05   1.0258058e-04   5.4415192e-05   9.4487179e-05   1.0537572e-04  -1.8379145e-04  -1.4441776e-03  -3.6198040e-04   2.7551476e-04   1.7529237e-03  -9.9345983e-05  -2.9254318e-04   1.0735117e-04   1.5139818e-05   1.8047623e-04  -9.1324921e-04  -4.8727152e-04  -3.1648640e-04  -7.5890048e-04  -5.3914601e-04   4.1939193e-04   3.3073607e-04   1.1728740e-04  -4.5158557e-04   1.1825446e-04   1.0065325e-04
   8.7149339e-05   1.2528225e-04   1.5419016e-04   1.2998120e-04   1.9744552e-04  -7.2475959e-05  -1.3397710e-04   1.7804825e-06  -3.2789382e-04   1.3630895e-04  -1.9578352e-04  -1.1476451e-04  -2.3099559e-04  -3.3611908e-05  -1.9263802e-04  -8.5858075e-05  -9.0643762e-06  -5.8085723e-05  -2.0125587e-04  -9.1519478e-06   6.8250817e-04   5.8678287e-04  -8.2133789e-05  -9.2549155e-05   5.0849708e-06   2.0550291e-05   4.2320560e-05   5.0704442e-05   3.0404372e-05  -2.5154842e-04  -1.4840213e-03  -4.3339847e-04   1.6340916e-04   1.6598523e-03  -1.8856213e-04  -4.2595246e-04  -3.1127853e-05  -1.1486612e-04   1.2112368e-04  -1.0857742e-03  -6.9701049e-04  -5.2885705e-04  -1.0180781e-03  -8.1802724e-04   1.7335940e-04   1.4638207e-04  -5.9687936e-05  -8.5085881e-04  -2.2702936e-05  -4.5724380e-05
  -1.1920802e-04  -1.0922134e-04  -5.4633107e-05  -1.0188788e-04   4.3942335e-05  -2.5514219e-04  -3.1469532e-04  -1.5295614e-04  -5.9377612e-04  -1.1200587e-04  -4.4025958e-04  -3.1371691e-04  -4.0121627e-04  -1.7040010e-04  -3.3474664e-04  -2.2184561e-04  -1.5955785e-04  -2.1308787e-04  -4.4218363e-04  -1.6190158e-04   5.6018768e-04   4.2493251e-04  -2.2908107e-04  -2.3231593e-04  -1.4757377e-04  -1.3286185e-04  -2.7355309e-05  -3.0393088e-05  -8.7768949e-06  -3.5226552e-04  -1.4937214e-03  -4.4646516e-04   1.9659664e-04   1.6326342e-03  -1.7091306e-04  -4.2406755e-04   2.5891044e-05  -3.3797383e-05   4.0690493e-04  -9.8311144e-04  -5.3599512e-04  -3.8998976e-04  -8.9667365e-04  -4.1928006e-04   5.0731708e-04   4.0512381e-04   1.4424388e-04  -4.5296541e-04   3.1641347e-04   1.5981172e-04
   1.6577091e-04   2.0101819e-04   2.1739709e-04   2.4169852e-04   2.5619770e-04   1.3966568e-05  -2.3667828e-05   6.2664265e-05  -1.8230297e-04   2.7060820e-04  -7.2118317e-05   2.5586894e-05  -1.4348784e-04   2.6011910e-05  -1.0617808e-04   1.8024788e-05   7.9766156e-05   3.4665693e-05  -7.4813077e-05   5.6520817e-05   7.0633867e-04   6.8385457e-04   1.4288820e-05   5.9808415e-05   1.5290905e-04   1.2570470e-04   1.0062411e-04   1.0931825e-04   1.5353880e-04  -1.7679816e-04  -1.3393750e-03  -2.8820851e-04   3.4707968e-04   1.7899036e-03  -6.3751140e-05  -2.9637458e-04   5.4256805e-05   6.4338979e-05   1.4721692e-04  -9.0252532e-04  -4.5509043e-04  -3.2029182e-04  -8.3422987e-04  -4.0879243e-04   5.3246395e-04   3.9781706e-04   2.0183233e-04  -5.2743230e-04   2.4722589e-04   1.8009036e-04
   1.3911024e-04   1.2297978e-04   1.6808056e-04   1.5774363e-04   2.0401571e-04  -7.3892093e-05  -1.3259565e-04   2.4818875e-05  -2.8035280e-04   1.4584250e-04  -1.7178996e-04  -6.7112436e-05  -1.9866329e-04  -1.2815218e-05  -1.4334773e-04  -1.4701334e-05   6.0556125e-05  -1.4658999e-06  -2.1371453e-04   2.1708256e-06   6.8996713e-04   6.1446003e-04  -5.2288015e-05  -7.7537916e-05   3.5683574e-05   5.7501609e-05   8.6548447e-05   6.6117049e-05   7.5421478e-05  -2.3835928e-04  -1.3842180e-03  -3.6769058e-04   2.1787624e-04   1.6760154e-03  -1.6962392e-04  -3.8763441e-04  -8.6064365e-06  -6.3261068e-05   7.0659778e-05  -1.0816754e-03  -6.7289517e-04  -5.0098944e-04  -1.0725273e-03  -6.8812579e-04   2.8533689e-04   1.9050293e-04  -2.9594645e-05  -8.7877311e-04  -1.2684438e-05   1.7859904e-05
  -8.3850042e-05  -1.1253045e-04  -3.6069796e-05  -7.4359865e-05   5.0191462e-05  -2.4207441e-04  -2.9638343e-04  -1.4145528e-04  -5.3658045e-04  -1.0111857e-04  -4.0125445e-04  -2.6136343e-04  -3.6735390e-04  -1.3805511e-04  -2.8607738e-04  -1.6463647e-04  -8.8606103e-05  -1.5582636e-04  -3.9607950e-04  -1.4914670e-04   5.9173058e-04   4.6143818e-04  -1.9364334e-04  -1.9643312e-04  -1.2192068e-04  -1.0131671e-04   2.3358518e-05   4.1269600e-06   4.7723857e-05  -3.3523550e-04  -1.4019413e-03  -3.8049460e-04   2.2602391e-04   1.6798768e-03  -1.2379396e-04  -3.6737582e-04   2.9057017e-05  -6.0959741e-07   3.6625747e-04  -9.4670994e-04  -4.9142714e-04  -3.2695982e-04  -8.8301691e-04  -2.6792497e-04   5.4359081e-04   4.2667534e-04   2.5288403e-04  -4.6816655e-04   4.0462351e-04   2.0102087e-04
   1.9088192e-04   2.2884508e-04   2.3418412e-04   2.5625585e-04   2.5952296e-04   2.4113468e-05  -9.7466473e-06   7.7746001e-05  -1.2235777e-04   2.7112552e-04  -3.4213848e-05   5.6873152e-05  -1.1334471e-04   4.9946673e-05  -9.4522562e-05   7.3958305e-05   1.3388175e-04   7.6469449e-05  -3.7435217e-05   7.8181729e-05   7.2280271e-04   7.5155403e-04   7.1826769e-05   9.6739270e-05   1.7096131e-04   1.9061055e-04   1.6463347e-04   1.4425995e-04   2.2088285e-04  -1.7878482e-04  -1.2630452e-03  -2.2932024e-04   4.1664255e-04   1.8417551e-03  -4.3146953e-05  -2.1327344e-04   6.3885236e-05   9.1462018e-05   9.4536474e-05  -8.8750222e-04  -4.6670865e-04  -2.8706915e-04  -8.9460338e-04  -3.1160424e-04   5.6033424e-04   5.3667551e-04   2.5482604e-04  -5.5760244e-04   3.8267608e-04   3.1310439e-04
   1.4344788e-04   1.5251423e-04   1.8062530e-04   1.6180234e-04   2.1478772e-04  -5.9798513e-05  -1.0043927e-04   2.3516810e-05  -2.7300534e-04   1.5736857e-04  -1.3479177e-04  -2.4803172e-05  -1.6197833e-04   2.7009571e-06  -1.5209567e-04   4.9474365e-05   1.0332224e-04   3.8980812e-05  -1.8557784e-04   1.6661466e-05   6.4399577e-04   6.4810459e-04   1.1534907e-05  -1.7770219e-05   3.8565682e-05   8.9502522e-05   1.1372662e-04   9.2636416e-05   1.3155735e-04  -2.2343025e-04  -1.3034994e-03  -3.3568952e-04   2.5211542e-04   1.6774314e-03  -1.5138480e-04  -3.6574373e-04  -6.2103361e-05  -4.7670437e-05   1.8544364e-05  -1.0918131e-03  -6.6523964e-04  -4.6890561e-04  -1.1578947e-03  -7.3670509e-04   3.6677424e-04   3.2281061e-04   9.0331647e-05  -9.0014219e-04   1.4784580e-04   2.0526652e-04
  -6.2162086e-05  -4.6842375e-05  -4.0719107e-05  -5.4483142e-05   5.5577239e-05  -2.2283064e-04  -2.7505759e-04  -1.1850955e-04  -5.0204294e-04  -7.9124053e-05  -3.6021526e-04  -2.1376531e-04  -3.3113407e-04  -1.2510034e-04  -2.6277694e-04  -1.0280361e-04  -4.4688684e-05  -1.2891172e-04  -3.7492212e-04  -1.4319753e-04   5.3007720e-04   4.7335232e-04  -1.5633331e-04  -1.8797038e-04  -1.2298128e-04  -7.7740129e-05   4.6297017e-05  -3.9211754e-06   2.9562414e-05  -3.3887266e-04  -1.3383585e-03  -3.8132491e-04   3.1064238e-04   1.6813029e-03  -1.4194232e-04  -3.1879792e-04  -4.6739892e-06  -7.2212142e-06   2.8527578e-04  -9.8622194e-04  -5.0842826e-04  -2.8358347e-04  -9.7698392e-04  -2.8310352e-04   6.0906383e-04   5.2972545e-04   3.7021856e-04  -4.9944979e-04   4.3908975e-04   3.1988762e-04
   1.7440926e-04   2.2515860e-04   1.9294374e-04   2.3671280e-04   2.4483798e-04   2.8807886e-05  -7.7975865e-06   5.6317531e-05  -1.5992951e-04   2.6171090e-04  -3.1885877e-05   6.3803287e-05  -1.0336450e-04   4.5851481e-05  -9.3568822e-05   9.8678713e-05   1.5055950e-04   7.1587834e-05  -4.6782530e-05   6.4078959e-05   7.0345425e-04   7.1696902e-04   1.1942726e-04   9.1951639e-05   1.7320272e-04   1.9291865e-04   1.6706638e-04   1.3201190e-04   2.0897099e-04  -1.8152491e-04  -1.2195745e-03  -2.4681733e-04   4.2164925e-04   1.8073694e-03  -5.7431120e-05  -1.8175748e-04   2.4073346e-05   8.0290811e-05   3.3180026e-05  -9.1268693e-04  -4.7865667e-04  -2.8519041e-04  -9.4254856e-04  -2.2006044e-04   5.8108603e-04   5.7432282e-04   2.7847811e-04  -5.8958511e-04   3.1089748e-04   3.5793681e-04
   1.3886372e-04   1.5317192e-04   1.2646089e-04   1.5524271e-04   2.0218341e-04  -5.0337585e-05  -8.9086039e-05  -7.5611879e-06  -2.7335421e-04   1.6554631e-04  -1.2136780e-04  -2.0517473e-05  -1.5637172e-04   1.7546309e-06  -1.5492133e-04   6.2433755e-05   1.2400800e-04   3.2786622e-05  -2.0149493e-04   3.0234346e-06   6.3188310e-04   6.5505010e-04   4.1029249e-05  -7.5853491e-06   8.2991115e-05   1.1516514e-04   1.2699411e-04   6.8945112e-05   1.4206578e-04  -2.3907822e-04  -1.2635473e-03  -3.2597687e-04   2.6316463e-04   1.7372121e-03  -1.4954709e-04  -3.1146497e-04  -5.7662040e-05  -4.7109694e-05  -2.2532377e-05  -1.1009158e-03  -6.5873883e-04  -4.4988981e-04  -1.1541219e-03  -6.4650871e-04   4.1222217e-04   3.8416954e-04   8.2039289e-05  -8.9275866e-04   2.1762750e-04   1.3340033e-04
  -5.0846840e-05  -5.1648203e-05  -8.5631284e-05  -4.6438232e-05   6.1830797e-05  -1.9562356e-04  -2.4363404e-04  -1.3641850e-04  -4.9633079e-04  -6.0974537e-05  -3.5236063e-04  -2.0791155e-04  -3.1034061e-04  -1.2274270e-04  -2.7227428e-04  -8.1876329e-05  -2.2041393e-05  -1.2705364e-04  -3.7475440e-04  -1.4301857e-04   5.4301706e-04   4.9059652e-04  -9.6229807e-05  -9.4979485e-05  -7.9656114e-05  -4.1384552e-05   5.3217034e-05   2.4388535e-05   7.5015865e-05  -3.0275737e-04  -1.2690380e-03  -3.4850481e-04   2.9094744e-04   1.6770315e-03  -1.0931576e-04  -2.5622890e-04   3.1068681e-05   1.6984823e-05   2.5833957e-04  -9.5481728e-04  -4.7395029e-04  -2.8035499e-04  -9.2084124e-04  -3.1722497e-04   6.2959181e-04   5.8026251e-04   3.0366000e-04  -4.5673255e-04   2.7621738e-04   3.9432582e-04
   1.7639037e-04   2.2567097e-04   1.6451445e-04   2.6619117e-04   2.5334192e-04   5.2208663e-05   2.6647782e-05   5.3386528e-05  -1.3907417e-04   2.9579853e-04   3.4321208e-06   7.6841912e-05  -7.3140203e-05   7.0234222e-05  -8.9854439e-05   1.3776020e-04   1.9594387e-04   8.1001490e-05  -5.1636202e-05   6.2626983e-05   6.7048456e-04   7.2249572e-04   1.4491648e-04   1.3454998e-04   1.8158481e-04   2.1265274e-04   1.7507211e-04   1.3078694e-04   2.5416273e-04  -1.5176530e-04  -1.1519155e-03  -2.3045666e-04   3.8350400e-04   1.8533911e-03  -2.9888450e-05  -1.1965575e-04   3.9418814e-05   8.8035296e-05   4.2627475e-05  -8.8300882e-04  -4.0692624e-04  -2.6702185e-04  -8.8608894e-04  -3.4321059e-04   5.6410069e-04   6.0749805e-04   3.3746488e-04  -5.3323555e-04   4.3631712e-04   3.7759508e-04
   1.6331562e-04   1.5482584e-04   1.0925053e-04   1.8561364e-04   2.1090767e-04  -2.4482011e-05  -5.1553816e-05   4.7023464e-06  -2.3238979e-04   2.0727076e-04  -8.4818137e-05  -5.7049701e-06  -1.3681152e-04   2.5401610e-05  -1.3915863e-04   9.0913811e-05   1.7066058e-04   3.5132238e-05  -1.8883967e-04   2.3382595e-06   6.1323110e-04   6.1156810e-04   4.9269445e-05  -2.1757651e-06   3.3126122e-05   1.2122594e-04   1.4507188e-04   7.4428681e-05   1.3847595e-04  -2.0945605e-04  -1.2014204e-03  -3.3748732e-04   2.7015505e-04   1.7005882e-03  -1.2649181e-04  -2.5303688e-04  -4.8096248e-05  -7.1814880e-05  -2.5313275e-05  -1.0999122e-03  -5.8292859e-04  -4.7738021e-04  -1.0578997e-03  -6.6092046e-04   3.4202353e-04   3.8246129e-04   9.6587581e-05  -7.7144592e-04   2.6614763e-04   2.2428700e-04
  -3.8247097e-05  -1.3102768e-05  -9.7969110e-05  -2.0203062e-05   6.5390028e-05  -1.6498507e-04  -2.1491219e-04  -1.2615317e-04  -4.5343002e-04  -1.3086093e-05  -3.1551998e-04  -1.9585127e-04  -2.9414968e-04  -9.6726799e-05  -2.5805354e-04  -6.2245643e-05   1.4669400e-05  -1.2265766e-04  -3.3860118e-04  -1.3354335e-04   5.0900900e-04   4.5872579e-04  -8.1788166e-05  -1.0994365e-04  -1.1443219e-04  -1.2094248e-05   7.8269048e-05   3.2971915e-05   7.8508667e-05  -2.7668421e-04  -1.2152399e-03  -3.6028691e-04   3.0654878e-04   1.7548063e-03  -7.2013594e-05  -1.9218159e-04   3.7574096e-05   8.2785245e-06   2.8666185e-04  -9.3715067e-04  -4.1496567e-04  -2.6050888e-04  -8.2446157e-04  -2.2377653e-04   5.9141812e-04   5.7944097e-04   3.8697480e-04  -3.1595959e-04   5.9224793e-04   4.2254373e-04
   2.2338089e-04   2.1338901e-04   1.6889823e-04   3.1417175e-04   2.7922934e-04   9.6033167e-05   6.4664768e-05   8.6421780e-05  -5.5411329e-05   3.7226049e-04   7.0473026e-05   1.1166900e-04  -4.9517363e-05   8.6090731e-05  -4.1968902e-05   1.6320628e-04   2.4904919e-04   9.5410913e-05  -4.4369546e-05   9.8841403e-05   6.9169619e-04   6.7519193e-04   1.6852797e-04   1.4249065e-04   1.5804928e-04   2.2936711e-04   2.0176586e-04   1.5848163e-04   2.2270891e-04  -9.5838310e-05  -1.0776760e-03  -2.3436353e-04   4.4801290e-04   1.8500602e-03   1.8575749e-05  -1.0036419e-04   8.2740415e-05   8.7160923e-05   3.8665250e-05  -8.9690846e-04  -3.1085472e-04  -2.5784617e-04  -7.1259419e-04  -3.6524163e-04   5.5628119e-04   5.9316750e-04   3.5672038e-04  -3.7372008e-04   4.6336293e-04   4.5040998e-04
   2.0572355e-04   1.9752943e-04   1.1829001e-04   2.2986873e-04   2.2413187e-04  -1.2292996e-05  -2.4350000e-05   3.3808352e-05  -1.4973670e-04   2.7369743e-04  -2.8639648e-05   4.0084717e-05  -1.0330686e-04   5.5647855e-05  -1.0195878e-04   1.2246420e-04   2.3248963e-04   5.1592186e-05  -1.6461630e-04   6.0461098e-05   6.1518187e-04   5.6329486e-04   7.1246854e-05   2.7180340e-05   5.0366863e-05   1.4497037e-04   1.4480545e-04   1.0492466e-04   8.9696259e-05  -1.4409953e-04  -1.1433268e-03  -3.2809810e-04   2.8579848e-04   1.7299538e-03  -8.5571955e-05  -1.9116102e-04  -1.0594299e-05  -5.5657118e-05  -2.1036865e-05  -1.0398435e-03  -4.7465324e-04  -3.7246989e-04  -8.8031008e-04  -6.5822701e-04   3.6134649e-04   4.2031085e-04   9.8779150e-05  -6.8701449e-04   2.0495114e-04   2.8041593e-04
  -6.2789964e-06   1.6704571e-05  -5.9803155e-05   3.7263955e-05   8.7234614e-05  -1.3421918e-04  -1.7718729e-04  -1.1858472e-04  -3.5568399e-04   6.9556685e-05  -2.4870917e-04  -1.3015808e-04  -2.6013269e-04  -7.8309640e-05  -2.1236854e-04  -3.4272762e-05   8.2044899e-05  -1.0668889e-04  -3.6115234e-04  -8.8513887e-05   5.0104508e-04   3.7192332e-04  -9.1960879e-05  -1.0720605e-04  -1.2012281e-04  -2.0701591e-05   7.8244891e-05   2.9461562e-05  -2.1123409e-05  -2.2559005e-04  -1.1744277e-03  -3.8898422e-04   2.0392692e-04   1.7209875e-03  -5.9384111e-05  -1.9896471e-04  -1.3395334e-05  -2.7303413e-05   2.4925001e-04  -9.4538729e-04  -3.0182715e-04  -2.1253724e-04  -6.3326774e-04  -3.9745221e-04   5.4146285e-04   5.0480961e-04   3.5087278e-04  -2.4061176e-04   3.2027764e-04   3.9669871e-04
   2.5669640e-04   2.5986962e-04   1.8865288e-04   3.5007001e-04   2.8395033e-04   1.1120752e-04   8.4049701e-05   1.0570724e-04   3.7043028e-05   4.4606210e-04   1.1411174e-04   1.8330073e-04  -1.9084278e-05   1.1293279e-04  -9.5923333e-06   1.8459691e-04   3.1606189e-04   1.1112096e-04  -5.3266751e-05   1.6760406e-04   7.0868985e-04   6.3974247e-04   1.6145933e-04   1.6672841e-04   1.5787248e-04   2.3264760e-04   2.1059220e-04   1.5043514e-04   1.8538423e-04  -5.0594401e-05  -1.0392920e-03  -2.2227052e-04   4.0155675e-04   1.8707161e-03   4.9772792e-05  -4.3338106e-05   9.3246010e-05   6.5367472e-05   9.3032622e-06  -8.3016721e-04  -2.1297621e-04  -2.0509680e-04  -4.9516594e-04  -3.1677374e-04   5.5019389e-04   5.3241738e-04   2.7675173e-04  -1.8873633e-04   4.0027525e-04   3.8102182e-04
   2.2811008e-04   2.6532047e-04   1.5459106e-04   2.7525847e-04   2.3613204e-04   1.7787617e-05   1.4332913e-05   4.3544427e-05  -7.0295857e-05   3.2614777e-04   2.7711509e-05   1.0916669e-04  -8.2418854e-05   7.9714177e-05  -4.4249144e-05   1.2622248e-04   2.8679622e-04   6.2874729e-05  -1.8493252e-04   1.0528770e-04   5.9044285e-04   5.2398228e-04   4.5105400e-05   4.6379912e-05   2.8315499e-05   1.3265949e-04   1.6028274e-04   9.9567405e-05   4.6341502e-05  -9.6872282e-05  -1.0838018e-03  -3.4261553e-04   2.1048883e-04   1.7399606e-03  -5.4764943e-05  -1.8163509e-04  -2.3904586e-05  -7.9950791e-05  -6.3933352e-05  -1.0295844e-03  -3.5443195e-04  -3.3686691e-04  -5.4634066e-04  -7.0495310e-04   2.5264500e-04   2.9367823e-04   4.9441449e-05  -4.6194959e-04   9.8057244e-05   2.1307758e-04
   1.1944512e-05   2.5827361e-05  -3.0770145e-05   6.4096668e-05   8.3010433e-05  -1.5651702e-04  -1.4394453e-04  -1.0104968e-04  -2.8131439e-04   8.6554181e-05  -2.0609402e-04  -7.9905200e-05  -2.4808515e-04  -4.7266083e-05  -1.5902621e-04  -3.1187803e-05   1.2277295e-04  -1.1300591e-04  -3.8993001e-04  -4.9994651e-05   4.7643762e-04   3.0167907e-04  -1.4251572e-04  -1.5914538e-04  -1.5619159e-04  -5.4152155e-05   6.0189799e-05   7.2816729e-06  -1.1149369e-04  -2.0589327e-04  -1.1878629e-03  -4.9660896e-04   7.7723504e-05   1.6178809e-03  -1.2215237e-04  -2.6696190e-04  -6.1254133e-05  -1.3978865e-04   1.8626785e-04  -1.0274115e-03  -3.1476957e-04  -3.0167258e-04  -4.4537173e-04  -4.8845145e-04   4.1070106e-04   3.6908881e-04   2.4784752e-04  -2.0865865e-04   3.9561864e-04   3.4282909e-04
   2.3220851e-04   2.6535898e-04   1.8840618e-04   3.4355622e-04   2.6118947e-04   7.7773300e-05   8.2287217e-05   7.0177608e-05   1.0244742e-04   4.2032340e-04   1.2675523e-04   1.9851695e-04  -3.0433479e-05   1.0639431e-04   1.9141720e-05   1.6596691e-04   3.3002312e-04   9.4036295e-05  -5.9469116e-05   1.8124195e-04   6.7674113e-04   5.8949186e-04   1.1512723e-04   1.6480913e-04   1.4593663e-04   2.1517543e-04   1.8419549e-04   1.6928425e-04   7.7375465e-05  -1.4854532e-05  -1.0389802e-03  -2.8436203e-04   3.0501976e-04   1.8536191e-03   5.8579062e-05  -2.7165939e-05   7.9256628e-05   2.7286744e-05   2.0261419e-05  -8.8843418e-04  -1.3697860e-04  -1.6774370e-04  -2.8351138e-04  -5.5115455e-04   4.0941342e-04   4.6194388e-04   3.4898633e-04  -1.2430636e-04   4.0306608e-04   3.3521783e-04
   2.3055053e-04   2.3887806e-04   1.9508308e-04   2.9307866e-04   2.3384133e-04   1.0803285e-05   4.7644371e-05   4.6649180e-05   1.3796714e-05   3.1163802e-04   5.3408763e-05   1.2826480e-04  -8.6556982e-05   7.2399984e-05  -2.9780143e-05   1.2054542e-04   2.8743781e-04   3.9284838e-05  -2.0039860e-04   1.3452175e-04   5.9600984e-04   4.9601780e-04   3.3422402e-05   2.7950453e-05   1.7539256e-05   1.3962660e-04   1.6912589e-04   1.1008436e-04   1.8001634e-05  -6.5675915e-05  -1.1022442e-03  -3.8528553e-04   1.9981105e-04   1.7269389e-03  -4.5776269e-05  -1.2112167e-04   3.7000456e-05  -8.7310735e-05  -1.2524934e-05  -1.0258347e-03  -3.0626438e-04  -2.8247215e-04  -4.6941411e-04  -7.7138451e-04   2.8726965e-04   2.7447648e-04   6.2848747e-05  -4.9252145e-04   2.2078484e-04   2.3463013e-04
   3.4963843e-05   3.5444431e-05   1.8349838e-05   8.0193378e-05   9.6530588e-05  -1.5714824e-04  -1.3681476e-04  -8.8266446e-05  -2.5023686e-04   6.9010413e-05  -1.8383432e-04  -6.7770641e-05  -2.4222635e-04  -6.0863273e-05  -1.7999149e-04  -3.9869639e-05   1.2202849e-04  -1.2085672e-04  -3.9581058e-04  -2.7473143e-05   4.5765413e-04   3.0663869e-04  -1.4533124e-04  -1.6148499e-04  -1.5469178e-04  -4.5634559e-05   6.0543258e-05  -2.9883952e-06  -1.5196024e-04  -1.9111445e-04  -1.2490257e-03  -5.6514976e-04   8.5024285e-06   1.5416652e-03  -1.4397218e-04  -3.1453889e-04  -9.0875546e-05  -2.6948735e-04   1.4552817e-04  -1.1955746e-03  -4.2682420e-04  -4.0363005e-04  -5.8518560e-04  -7.3973497e-04   2.4364165e-04   1.9361057e-04   1.5040899e-04  -3.1247330e-04   3.5051501e-04   2.2606648e-04
   1.7759721e-04   1.9721784e-04   1.7497822e-04   2.9901703e-04   2.2554667e-04   4.5358331e-05   6.8171175e-05   3.0096622e-05   4.5001125e-05   3.3574857e-04   7.2405659e-05   1.5607281e-04  -7.5055767e-05   6.7053181e-05  -1.6195198e-05   1.0363476e-04   2.5994767e-04   2.2633252e-05  -1.0811896e-04   1.6861661e-04   6.2318926e-04   5.5451080e-04   9.4306582e-05   1.5386866e-04   9.5510331e-05   1.8266859e-04   1.6355338e-04   1.4345943e-04   7.7443976e-05  -9.1475667e-06  -1.1098246e-03  -3.6192880e-04   2.9382028e-04   1.7580452e-03   4.3719181e-05  -6.4612621e-05   9.8574237e-05  -1.9505984e-05   7.5435608e-05  -9.1392978e-04  -1.8942062e-04  -2.0147355e-04  -3.4092207e-04  -6.5450865e-04   3.7835271e-04   4.0763913e-04   2.3071174e-04  -2.5280245e-04   3.5819615e-04   3.3493183e-04
   1.8884335e-04   1.9858986e-04   2.0320617e-04   2.6613675e-04   2.2290224e-04  -3.8573812e-06   2.1888782e-05   2.6805501e-05  -2.7430491e-05   2.5889647e-04   1.0935701e-05   1.0491387e-04  -1.0658349e-04   4.2827647e-05  -6.9596135e-05   6.4967360e-05   2.2700937e-04  -7.7532004e-06  -2.1759655e-04   1.1135366e-04   5.4169988e-04   4.5982419e-04   1.9405854e-05   1.4902519e-05  -1.1396799e-05   9.4230068e-05   1.3760728e-04   8.2485625e-05  -2.1636912e-07  -7.4253847e-05  -1.1611353e-03  -4.4606157e-04   2.0112694e-04   1.6637337e-03  -4.3461976e-05  -1.2296429e-04   3.4802422e-05  -1.2071952e-04   2.7120281e-05  -1.0374375e-03  -3.5666986e-04  -3.2968604e-04  -5.3375127e-04  -9.1467774e-04   1.6683318e-04   2.1630764e-04   8.6224893e-05  -5.2155362e-04   1.4074825e-04   1.9705380e-04
   8.7003064e-06   1.3573748e-05   2.1869955e-05   4.9223494e-05   8.3880019e-05  -1.6508445e-04  -1.3899506e-04  -1.1301735e-04  -2.9249137e-04   6.6940961e-06  -2.2675458e-04  -9.2693037e-05  -2.6571201e-04  -1.0564224e-04  -2.1744524e-04  -9.0063528e-05   5.5766297e-05  -1.7071096e-04  -4.2572632e-04  -4.6064542e-05   4.3237818e-04   2.7286648e-04  -1.6180081e-04  -1.6582246e-04  -2.1540376e-04  -8.6615270e-05   1.2995431e-05  -1.1682573e-05  -2.0598246e-04  -2.0667068e-04  -1.3154661e-03  -6.2390231e-04   2.6667838e-06   1.4871462e-03  -1.7415125e-04  -3.3068770e-04  -6.7137706e-05  -3.1593183e-04   1.6903732e-04  -1.2620412e-03  -5.6571077e-04  -4.9194746e-04  -8.3278480e-04  -1.0911574e-03   9.5551899e-05   5.6250366e-05  -4.3685039e-05  -6.2481890e-04   1.1511654e-04   1.2995425e-04
   7.0478578e-05   1.1913171e-04   1.3297904e-04   2.2232336e-04   1.8605382e-04  -3.3694880e-06   4.1933622e-06  -2.0560492e-05  -7.9259808e-05   2.4666550e-04  -1.1084365e-05   1.0447534e-04  -1.1454143e-04   7.9137271e-06  -9.9900353e-05   3.7678139e-05   1.6317607e-04  -4.9985942e-05  -1.5319999e-04   1.0642470e-04   5.7920959e-04   5.2338612e-04   6.3702733e-05   1.1009223e-04   4.5909434e-05   1.2706195e-04   1.2569333e-04   1.2820803e-04   3.1241303e-05  -5.4887529e-05  -1.1881792e-03  -4.2709435e-04   2.6387582e-04   1.7177787e-03   2.0007488e-05  -9.8775919e-05   1.2662743e-04  -7.9536447e-05   1.4475343e-04  -9.6735294e-04  -2.7370307e-04  -2.4870515e-04  -5.2198971e-04  -7.8201928e-04   2.9016173e-04   2.9343812e-04   2.2462153e-04  -3.2067113e-04   2.6890830e-04   2.4317174e-04
   1.5329153e-04   1.5664029e-04   1.8189504e-04   2.2204952e-04   2.0219995e-04  -3.5353907e-05  -5.5172427e-07  -5.3694471e-06  -1.3255689e-04   2.0141520e-04  -3.6329842e-05   6.0995939e-05  -1.2348579e-04  -7.1548170e-06  -1.1887015e-04   1.0127897e-05   1.5327858e-04  -6.9368958e-05  -2.6044855e-04   6.2275314e-05   4.8971199e-04   4.3640056e-04   1.5558795e-05   2.8829943e-05  -4.9078935e-05   5.1539813e-05   1.1908195e-04   7.6087927e-05  -6.2192084e-05  -8.8828630e-05  -1.2208361e-03  -5.1567750e-04   1.8809161e-04   1.6392448e-03  -7.0009584e-05  -2.0280319e-04  -9.3532361e-07  -1.5606238e-04   5.8719274e-05  -1.0580036e-03  -3.8904554e-04  -3.4794275e-04  -6.2352698e-04  -1.0551389e-03   1.0994070e-04   9.9265053e-05   4.2801857e-06  -5.1982055e-04   5.1105220e-05   8.9310597e-05
  -2.8900322e-05  -1.4515752e-05   6.6862935e-06   2.8730801e-05   7.0621296e-05  -1.8544601e-04  -1.4845082e-04  -1.4538867e-04  -3.6870068e-04  -1.5922387e-05  -2.5539822e-04  -1.2711770e-04  -2.6909474e-04  -1.3469312e-04  -2.1562719e-04  -1.4328782e-04   8.8942325e-06  -2.0785982e-04  -5.3512631e-04  -1.0288718e-04   3.9280517e-04   2.3699416e-04  -1.7064603e-04  -1.5404554e-04  -2.2046383e-04  -1.3123048e-04   1.3121240e-06  -3.1170672e-05  -2.1604604e-04  -2.0049601e-04  -1.3373480e-03  -6.8666576e-04  -1.0742680e-05   1.4433200e-03  -1.8428410e-04  -3.7768835e-04  -7.2753544e-05  -3.6480391e-04   1.4056271e-04  -1.2956595e-03  -5.6628382e-04  -5.3385529e-04  -7.9345488e-04  -1.2072795e-03  -4.5685636e-05  -2.4301544e-05  -1.4363341e-04  -6.5407145e-04  -8.5706502e-05   5.0295057e-05
   1.3736345e-05   4.8814683e-05   9.4893025e-05   1.8525671e-04   1.5843665e-04  -3.6753689e-05  -1.1484165e-05  -6.3764986e-05  -1.3248998e-04   2.3324999e-04  -4.5776509e-05   7.4743220e-05  -1.2742257e-04  -3.6937628e-05  -9.0993301e-05  -1.4393068e-05   1.2955494e-04  -8.7084816e-05  -2.2282096e-04   5.7611174e-05   5.7425583e-04   4.6497627e-04   6.7783723e-05   1.6140408e-04   3.0459429e-05   7.4574775e-05   1.1036857e-04   9.2955306e-05  -4.2169220e-05  -3.8877155e-05  -1.1820055e-03  -4.7980854e-04   2.7034408e-04   1.7061124e-03   9.9874178e-06  -9.4049370e-05   1.2872866e-04  -1.1181465e-04   1.2553386e-04  -9.5752731e-04  -2.4455145e-04  -1.9424071e-04  -4.2576759e-04  -8.6602150e-04   2.7259430e-04   1.4401322e-04   2.3444809e-04  -2.4555431e-04   2.2494346e-04   1.4841856e-04
   1.4901170e-04   1.2044926e-04   1.8879877e-04   2.2296701e-04   2.0256708e-04  -2.1308771e-05   1.1727550e-05  -3.7664871e-05  -1.4674173e-04   2.3221481e-04  -1.7622067e-05   8.1803970e-05  -1.0316983e-04  -3.1659667e-05  -1.1690511e-04  -5.3970889e-06   1.4169943e-04  -6.9688962e-05  -2.8270096e-04   5.9308382e-05   5.2563386e-04   4.1612500e-04   4.9312141e-05   1.0377823e-04  -3.5842961e-05   4.4804245e-05   8.5896594e-05   6.7940637e-05  -1.0541987e-04  -7.4785443e-05  -1.2164577e-03  -5.3801277e-04   1.9716968e-04   1.6186178e-03  -6.9510672e-05  -1.7419198e-04   2.5946856e-05  -1.6551519e-04   4.2427262e-05  -1.0498746e-03  -3.3273711e-04  -2.7638194e-04  -5.5936119e-04  -9.9408696e-04   1.1383704e-04   8.8568799e-05   1.3946999e-04  -4.5292551e-04  -1.0832741e-05  -1.5614687e-05
   9.6231506e-06   1.5672016e-05   3.6878555e-05   4.6445264e-05   8.1706923e-05  -1.6318919e-04  -1.4520959e-04  -1.6794910e-04  -3.6911835e-04   2.0652391e-05  -2.2702471e-04  -8.4400621e-05  -2.3692807e-04  -1.4064272e-04  -2.3016275e-04  -1.3781030e-04   4.6583891e-06  -2.0930995e-04  -4.8571834e-04  -9.6255295e-05   4.0793742e-04   2.3661101e-04  -9.3995324e-05  -7.4283264e-05  -1.9097971e-04  -1.2763108e-04   8.8437901e-06  -2.5307134e-05  -1.9163391e-04  -2.0638733e-04  -1.3391890e-03  -6.9879671e-04   1.2951085e-05   1.4091688e-03  -1.9963556e-04  -3.5650493e-04  -5.6930759e-05  -3.5081280e-04   1.3706295e-04  -1.2786229e-03  -5.5408076e-04  -4.6593213e-04  -7.9744798e-04  -1.2195247e-03   1.4344863e-05  -1.0577776e-04  -9.0713009e-05  -6.0406304e-04  -3.7474442e-06  -7.3095362e-05
   4.0966788e-05   1.2461309e-05   1.0498284e-04   1.7906063e-04   1.6235933e-04  -2.2689816e-05  -1.6645346e-05  -8.6201639e-05  -1.3529691e-04   2.7703212e-04  -3.3657705e-06   1.1588945e-04  -8.9744593e-05  -5.2577885e-05  -8.8668807e-05  -3.5798425e-06   1.2526123e-04  -8.4915882e-05  -1.8921618e-04   7.4157979e-05   5.2160845e-04   4.4908264e-04   1.2941101e-04   2.3306004e-04   6.3494364e-05   8.6001019e-05   1.1303001e-04   1.0395308e-04  -3.6429381e-05  -3.6303700e-05  -1.1634876e-03  -4.8056411e-04   2.9978485e-04   1.6856127e-03   2.0329588e-05  -9.8907680e-05   1.2679549e-04  -9.3262861e-05   1.3999973e-04  -9.6997153e-04  -2.1000193e-04  -1.4160355e-04  -4.1522822e-04  -8.6524064e-04   2.8571571e-04   2.0434443e-04   3.2053600e-04  -1.4144355e-04   1.2566478e-04   8.3794519e-05
   1.8339693e-04   1.4568049e-04   2.0285972e-04   2.3259777e-04   2.1062768e-04  -1.9083353e-05   6.1155442e-06  -4.8438698e-05  -1.1110598e-04   2.8659523e-04   4.1795687e-05   1.3329458e-04  -6.0531114e-05  -4.0035957e-05  -1.0525529e-04   1.3113153e-05   1.5950018e-04  -6.8890702e-05  -2.1525935e-04   8.0788668e-05   4.4225165e-04   3.8114158e-04   1.2411688e-04   1.7674676e-04  -1.0460617e-05   5.3618813e-05   1.0176875e-04   6.3464686e-05  -1.0846810e-04  -6.0342463e-05  -1.1819657e-03  -5.3826935e-04   2.2441290e-04   1.6203806e-03  -7.3282121e-05  -1.7791278e-04   2.8737453e-05  -1.6112234e-04   6.5636021e-05  -1.0612847e-03  -3.1619653e-04  -2.3096953e-04  -4.8656741e-04  -9.7352639e-04   1.5962236e-04   1.2073985e-04   3.4042099e-05  -3.1295000e-04  -1.9795330e-05   9.3023831e-05
   4.0122024e-05   2.1881562e-05   4.8757989e-05   4.4649747e-05   8.4082814e-05  -1.4930253e-04  -1.5944465e-04  -1.6536783e-04  -3.1349898e-04   7.6122997e-05  -1.5288670e-04  -3.9029648e-05  -2.0021420e-04  -1.4953037e-04  -2.1921983e-04  -1.2471038e-04   1.6336086e-05  -2.0758880e-04  -4.4725466e-04  -7.5230659e-05   2.9998948e-04   1.9154460e-04  -3.5201589e-05  -8.8063489e-06  -1.8380904e-04  -1.2367716e-04   8.6028667e-06  -3.9693205e-05  -2.4170797e-04  -1.7412531e-04  -1.3008722e-03  -7.0045755e-04   2.2099201e-05   1.4478357e-03  -1.9782850e-04  -3.3225227e-04  -6.5451044e-05  -3.5111725e-04   1.8115668e-04  -1.2853730e-03  -5.3090986e-04  -4.6003179e-04  -6.9626560e-04  -1.2287737e-03  -1.1379590e-04  -7.1120070e-05  -4.8174981e-05  -5.9731852e-04  -1.2293860e-04  -2.2055965e-05
   3.3276054e-05   6.3347138e-06   8.4279287e-05   1.5335993e-04   1.3232988e-04  -4.3124721e-05  -4.2791129e-05  -1.2934068e-04  -1.3631413e-04   3.1048202e-04   2.8008681e-05   1.5555881e-04  -6.7237590e-05  -7.7323537e-05  -1.0449974e-04  -3.3210895e-06   1.2906425e-04  -9.0877998e-05  -1.5031487e-04   8.6931141e-05   4.4167339e-04   4.0799813e-04   1.8845480e-04   2.8404468e-04   6.9187743e-05   9.0262009e-05   1.1033434e-04   1.0691991e-04  -5.6525510e-05  -2.2236796e-05  -1.1384552e-03  -4.7296364e-04   2.8583658e-04   1.6925326e-03   2.0653155e-05  -6.0050857e-05   1.0600274e-04  -7.4243915e-05   1.9093673e-04  -9.5549977e-04  -1.9203608e-04  -8.9413850e-05  -3.2228327e-04  -8.0229662e-04   2.3535053e-04   2.6291737e-04   2.4627033e-04  -9.3913150e-05   1.7064907e-04   1.4245698e-04
   1.9462527e-04   1.7300939e-04   1.9104917e-04   2.2972350e-04   2.0045307e-04   1.1216450e-06  -6.8234485e-06  -7.2539660e-05  -6.4564687e-05   3.3239697e-04   9.1717149e-05   1.8195377e-04  -3.8827009e-05  -5.7513498e-05  -8.5632433e-05   2.6561242e-05   1.6530720e-04  -5.2097392e-05  -1.7694070e-04   9.9879311e-05   4.2203590e-04   3.5093116e-04   1.9359244e-04   2.4181719e-04   3.7113587e-05   6.7638495e-05   9.0668545e-05   6.3111729e-05  -7.9644815e-05  -4.8933576e-05  -1.1599720e-03  -5.0448056e-04   2.3294159e-04   1.6165421e-03  -7.6805343e-05  -1.3068957e-04   2.0830748e-05  -1.4778158e-04   9.0697489e-05  -1.0530159e-03  -2.8079303e-04  -1.6172641e-04  -4.0563557e-04  -9.2688092e-04   1.2830444e-04   1.5615733e-04   1.2625220e-04  -2.5348354e-04   1.3509858e-04   4.5844899e-05
   6.2812607e-05   5.7120131e-05   3.9873867e-05   5.1406416e-05   8.5510248e-05  -1.3553974e-04  -1.4801354e-04  -1.7039556e-04  -2.4685109e-04   1.1902687e-04  -9.9654011e-05   1.6265554e-05  -1.6899756e-04  -1.5545756e-04  -2.0392440e-04  -9.6419091e-05   3.2973272e-05  -1.8721944e-04  -3.7163342e-04  -4.0063744e-05   3.5604081e-04   1.8635664e-04   3.9123799e-05   5.1223615e-05  -1.2958459e-04  -8.5293294e-05   1.6661275e-05  -1.9642193e-05  -2.2390862e-04  -1.6374025e-04  -1.2668442e-03  -6.6494732e-04   2.2381679e-05   1.4765091e-03  -1.8624259e-04  -3.1622435e-04  -5.2821695e-05  -3.3125107e-04   2.1346674e-04  -1.2819688e-03  -4.7882588e-04  -3.7350808e-04  -6.3001917e-04  -1.2388960e-03  -1.6671387e-05  -1.3036498e-04  -1.0682208e-04  -5.4163899e-04  -1.2470999e-04  -1.1274269e-04
  -7.0580500e-06   1.6538525e-05   3.2297859e-05   1.2086598e-04   1.0565358e-04  -6.6508976e-05  -7.4749732e-05  -1.5863753e-04  -6.4966829e-05   3.2263563e-04   5.0669423e-05   1.7669257e-04  -5.9720580e-05  -8.3306142e-05  -1.0226942e-04   3.7954478e-06   1.1914213e-04  -8.9176945e-05  -1.2350571e-04   8.7396540e-05   3.9949219e-04   3.7247079e-04   2.3329258e-04   3.1141439e-04   7.5606593e-05   1.0472657e-04   1.0899141e-04   1.0125387e-04  -2.8250059e-05  -2.7519027e-05  -1.1316779e-03  -4.5781676e-04   2.7735383e-04   1.7161251e-03   1.7800556e-05  -6.6420856e-05   1.1761158e-04  -7.4353666e-05   2.5611845e-04  -9.8240771e-04  -1.6269226e-04  -9.3329392e-05  -2.7547625e-04  -8.4966031e-04   1.8481190e-04   2.0029144e-04   2.0421451e-04  -5.3172884e-05   1.5365746e-04   7.9608741e-05
   2.0632397e-04   2.2428307e-04   1.3187640e-04   2.1448385e-04   1.8135359e-04  -7.2194539e-06  -9.4924344e-06  -1.0715359e-04  -9.0942385e-06   3.3355143e-04   1.0507838e-04   1.9613019e-04  -3.3567907e-05  -4.2010008e-05  -7.5964963e-05   2.5011073e-05   1.5800705e-04  -5.3389587e-05  -1.9063894e-04   8.4450083e-05   3.4954897e-04   3.1782905e-04   2.1062804e-04   2.5976280e-04   3.6117177e-05   6.8424633e-05   1.1337922e-04   8.1449034e-05  -1.1721018e-04  -4.8234531e-05  -1.1595091e-03  -4.9444882e-04   2.2053339e-04   1.6169556e-03  -6.3376814e-05  -1.1121439e-04   3.9088678e-05  -1.2965934e-04   1.6994021e-04  -1.0640133e-03  -2.5573373e-04  -2.0467638e-04  -3.7113810e-04  -1.0141106e-03   1.3152107e-04   1.1793085e-04   9.0493144e-05  -2.7470579e-04  -1.0432288e-04  -1.0524830e-05
   6.9056921e-05   4.6220182e-05  -1.0984110e-05   4.5097833e-05   6.8413821e-05  -1.3383452e-04  -1.3681839e-04  -1.9348906e-04  -2.1545986e-04   1.2261060e-04  -8.6134816e-05   3.5035941e-05  -1.5610208e-04  -1.6412257e-04  -1.7756630e-04  -9.0634494e-05   3.8076640e-05  -1.7459951e-04  -4.0017400e-04  -5.1509091e-05   2.5344224e-04   1.4285877e-04   5.9731403e-05   7.1396680e-05  -1.2027637e-04  -8.4687985e-05   3.6702000e-05  -3.1014577e-05  -2.5691569e-04  -1.5715856e-04  -1.2734929e-03  -6.5792177e-04  -1.8309076e-06   1.4657717e-03  -1.6802900e-04  -2.8840228e-04  -4.3282140e-05  -3.1048001e-04   2.8187563e-04  -1.2546233e-03  -4.6739751e-04  -4.1024535e-04  -6.0636195e-04  -1.1323194e-03  -1.3882545e-04  -8.4114195e-05  -1.4055967e-04  -5.4593937e-04  -1.8111101e-04  -1.0185426e-04
  -9.0007388e-06   2.6335023e-05  -2.6286787e-05   9.7980112e-05   9.1274400e-05  -5.9359434e-05  -8.7084882e-05  -1.8328690e-04  -3.7719390e-05   3.0632722e-04   5.6857942e-05   1.8322661e-04  -5.4026019e-05  -9.8875804e-05  -8.5532498e-05  -4.0628684e-06   1.1865655e-04  -8.7602748e-05  -1.4441962e-04   6.6140135e-05   3.7940432e-04   3.1060481e-04   2.4945597e-04   3.0888390e-04   1.0181677e-04   9.8459961e-05   9.8085729e-05   9.6572629e-05  -8.3199309e-05  -1.7451361e-05  -1.1415632e-03  -4.5702796e-04   2.2826630e-04   1.6846347e-03   2.7608892e-05  -5.5048793e-05   1.2688557e-04  -8.4384272e-05   3.2927471e-04  -9.5306570e-04  -1.9362406e-04  -1.4036210e-04  -2.8902735e-04  -8.4677298e-04   1.5831960e-04   2.1611342e-04   2.6267959e-04  -7.9555830e-05   7.8281213e-05   1.1603165e-04
   1.7913102e-04   2.0224584e-04   8.2307983e-05   1.9391029e-04   1.6774102e-04  -4.8421302e-06  -1.4552174e-05  -8.6183165e-05  -8.2106317e-06   3.1111346e-04   1.1374130e-04   1.9409058e-04  -2.4052029e-05  -6.0202718e-05  -7.2342962e-05   1.8357316e-05   1.5414052e-04  -6.3462983e-05  -1.7965912e-04   6.9335452e-05   3.7012287e-04   2.8056116e-04   2.3864425e-04   2.5540317e-04   5.0787858e-05   7.3437797e-05   1.1746601e-04   7.9911661e-05  -1.0294590e-04  -4.7251859e-05  -1.1808475e-03  -4.9367343e-04   1.6005411e-04   1.6205607e-03  -5.1792154e-05  -1.4018080e-04   3.2820539e-05  -1.3391013e-04   2.3199421e-04  -1.0560125e-03  -2.8411156e-04  -1.9909619e-04  -3.7154512e-04  -9.3901134e-04   7.0463822e-05   1.0461508e-04   9.0678019e-05  -2.7420674e-04  -4.1511248e-05   2.4367608e-05
   7.1340633e-05   7.8722565e-05  -7.4225412e-05   3.9093204e-05   6.0353494e-05  -1.2145255e-04  -1.4163746e-04  -2.0774749e-04  -1.9111796e-04   1.0563439e-04  -8.3758161e-05   3.0532232e-05  -1.4908993e-04  -1.6665614e-04  -1.5914901e-04  -9.5710799e-05   4.3655065e-05  -1.8241795e-04  -3.8512162e-04  -8.3455656e-05   1.6499308e-04   1.0023354e-04   7.7732693e-05   4.2759017e-05  -9.6988559e-05  -9.6145173e-05   2.2391778e-05  -9.6565436e-06  -2.1133207e-04  -1.5170735e-04  -1.2837976e-03  -6.5011281e-04  -5.3644610e-05   1.4660015e-03  -1.5021162e-04  -3.1171629e-04  -6.7965120e-05  -3.0381809e-04   2.7590580e-04  -1.2601733e-03  -4.6579339e-04  -4.3963702e-04  -5.7359529e-04  -1.2231317e-03  -1.6331582e-04  -1.5369551e-04  -1.2559426e-04  -4.8775552e-04  -2.3947371e-04  -8.8952373e-05
