  -3.4139270e-05  -2.6560339e-05  -3.6302172e-05  -3.8220496e-05  -1.6812919e-05  -2.9484718e-05  -2.9184506e-05  -6.7796927e-06  -5.6560439e-05  -1.3290434e-05  -4.2474865e-05  -3.2856413e-05  -3.9343300e-05  -2.0337682e-05  -2.2933133e-05  -1.3363177e-05  -2.0740452e-05  -1.4683043e-05  -2.9872072e-05  -1.5822690e-05  -1.5394774e-04  -1.3547852e-04  -2.5826866e-05  -2.5633057e-05  -3.8075712e-05  -3.6945963e-05  -1.7090228e-05  -2.8791152e-05  -5.7557147e-05  -1.1905126e-05  -1.4631691e-05  -3.2861892e-05  -6.0852188e-05  -7.3043229e-06  -4.1154235e-05  -4.3862125e-05  -6.6647677e-05  -3.1030806e-05  -4.0785504e-05  -2.1069795e-06  -5.5214332e-05  -4.1464722e-05  -4.4088698e-05  -5.0415820e-06  -2.5203644e-05  -4.0450257e-05  -5.1266429e-06  -2.2160402e-05  -4.0447008e-05  -9.4505293e-07
  -3.0573327e-05  -2.5695950e-05  -3.8483489e-05  -3.4903627e-05  -1.6778538e-05  -2.8129693e-05  -2.8350380e-05  -8.6900172e-06  -6.1463943e-05  -1.7675775e-05  -4.3781336e-05  -3.6042537e-05  -3.6812806e-05  -2.4010284e-05  -2.1880049e-05  -1.5026293e-05  -2.0333870e-05  -1.6003984e-05  -4.7488840e-05  -2.4437031e-05  -1.6183298e-04  -1.3858594e-04  -2.0885842e-05  -3.0497642e-05  -3.3632237e-05  -3.8008591e-05  -1.8864199e-05  -3.1116000e-05  -5.2086176e-05  -1.3444925e-05  -1.5607877e-05  -3.6772086e-05  -6.0683782e-05  -8.5267056e-06  -4.1773532e-05  -4.5451921e-05  -5.8605430e-05  -3.1089698e-05  -3.6434896e-05  -4.6619316e-06  -5.4037264e-05  -5.2106163e-05  -5.0217557e-05  -2.4663397e-05  -2.6252830e-05  -4.2129770e-05  -1.7764709e-05  -2.4988947e-05  -3.4048149e-05   2.6196872e-06
  -2.7016926e-05  -2.4795274e-05  -4.0565665e-05  -3.1733627e-05  -1.6721817e-05  -2.6659418e-05  -2.7442447e-05  -1.0552814e-05  -6.6131834e-05  -2.2089946e-05  -4.5040517e-05  -3.9239418e-05  -3.4359986e-05  -2.7622951e-05  -2.0781412e-05  -1.6631440e-05  -1.9918298e-05  -1.7241413e-05  -6.4745283e-05  -3.3058841e-05  -1.6955532e-04  -1.4168557e-04  -1.6149019e-05  -3.5167759e-05  -2.9243432e-05  -3.9102524e-05  -2.0493721e-05  -3.3308348e-05  -4.6614077e-05  -1.4944772e-05  -1.6557222e-05  -4.0476854e-05  -6.0412662e-05  -9.6090389e-06  -4.2298805e-05  -4.7064368e-05  -5.0577048e-05  -3.1076452e-05  -3.1932796e-05  -7.1524696e-06  -5.2995303e-05  -6.2300627e-05  -5.6191213e-05  -4.3852542e-05  -2.7311436e-05  -4.3805085e-05  -2.9826040e-05  -2.7890514e-05  -2.7741982e-05   6.1878850e-06
  -2.3480661e-05  -2.3815548e-05  -4.2441985e-05  -2.8832834e-05  -1.6614760e-05  -2.4959078e-05  -2.6367776e-05  -1.2310054e-05  -7.0302136e-05  -2.6544249e-05  -4.6180296e-05  -4.2425949e-05  -3.2055988e-05  -3.1115418e-05  -1.9590168e-05  -1.8116656e-05  -1.9480114e-05  -1.8305236e-05  -8.1262508e-05  -4.1672345e-05  -1.7696690e-04  -1.4476002e-04  -1.1808896e-05  -3.9460225e-05  -2.4963694e-05  -4.0245799e-05  -2.1840455e-05  -3.5245321e-05  -4.1148858e-05  -1.6367350e-05  -1.7453734e-05  -4.3785487e-05  -5.9939808e-05  -1.0420989e-05  -4.2641193e-05  -4.8716673e-05  -4.2584161e-05  -3.0917970e-05  -2.7149777e-05  -9.5181031e-06  -5.2210882e-05  -7.1643459e-05  -6.1878891e-05  -6.2239429e-05  -2.8372591e-05  -4.5466604e-05  -4.0789499e-05  -3.0929317e-05  -2.1603677e-05   9.7589063e-06
  -1.9974028e-05  -2.2712053e-05  -4.4016790e-05  -2.6310023e-05  -1.6433280e-05  -2.2936834e-05  -2.5042791e-05  -1.3915317e-05  -7.3737705e-05  -3.1047439e-05  -4.7129604e-05  -4.5572728e-05  -2.9972489e-05  -3.4432585e-05  -1.8273260e-05  -1.9428209e-05  -1.9000738e-05  -1.9118048e-05  -9.6691998e-05  -5.0250255e-05  -1.8392543e-04  -1.4778879e-04  -8.0334903e-06  -4.3208340e-05  -2.0838519e-05  -4.1450559e-05  -2.2786120e-05  -3.6823505e-05  -3.5695353e-05  -1.7680723e-05  -1.8270637e-05  -4.6524368e-05  -5.9188940e-05  -1.0849173e-05  -4.2729022e-05  -5.0423547e-05  -3.4667548e-05  -3.0550680e-05  -2.1979522e-05  -1.1699952e-05  -5.1795090e-05  -7.9790043e-05  -6.7173663e-05  -7.9477089e-05  -2.9408457e-05  -4.7098500e-05  -5.0194507e-05  -3.4148929e-05  -1.5706648e-05   1.3322784e-05
  -1.6509133e-05  -2.1461772e-05  -4.5210560e-05  -2.4245915e-05  -1.6148717e-05  -2.0533398e-05  -2.3398823e-05  -1.5329892e-05  -7.6250348e-05  -3.5586283e-05  -4.7832196e-05  -4.8651797e-05  -2.8172168e-05  -3.7529437e-05  -1.6812854e-05  -2.0516021e-05  -1.8460983e-05  -1.9609546e-05  -1.1073281e-04  -5.8755526e-05  -1.9028899e-04  -1.5074227e-04  -4.9528671e-06  -4.6267585e-05  -1.6897033e-05  -4.2711341e-05  -2.3236531e-05  -3.7966489e-05  -3.0256615e-05  -1.8865534e-05  -1.8981656e-05  -4.8550090e-05  -5.8110403e-05  -1.0811857e-05  -4.2508182e-05  -5.2184547e-05  -2.6879219e-05  -2.9920118e-05  -1.6353215e-05  -1.3643868e-05  -5.1843526e-05  -8.6473345e-05  -7.2007948e-05  -9.5251053e-05  -3.0357553e-05  -4.8671038e-05  -5.7672547e-05  -3.7572438e-05  -1.0109018e-05   1.6861875e-05
  -1.3102300e-05  -2.0052948e-05  -4.5964385e-05  -2.2693655e-05  -1.5743277e-05  -1.7731591e-05  -2.1379197e-05  -1.6534377e-05  -7.7709650e-05  -4.0137766e-05  -4.8241815e-05  -5.1624502e-05  -2.6709595e-05  -4.0373256e-05  -1.5207019e-05  -2.1350856e-05  -1.7841699e-05  -1.9730263e-05  -1.2314832e-04  -6.7138171e-05  -1.9593470e-04  -1.5358074e-04  -2.6520527e-06  -4.8529651e-05  -1.3151983e-05  -4.4000852e-05  -2.3126149e-05  -3.8630198e-05  -2.4839595e-05  -1.9909759e-05  -1.9563551e-05  -4.9752591e-05  -5.6682369e-05  -1.0257220e-05  -4.1948206e-05  -5.3990771e-05  -1.9296078e-05  -2.8982979e-05  -1.0247007e-05  -1.5303132e-05  -5.2431173e-05  -9.1528440e-05  -7.6354241e-05  -1.0928913e-04  -3.1120559e-05  -5.0141894e-05  -6.2950669e-05  -4.1189960e-05  -4.8586849e-06   2.0340927e-05
  -9.7727634e-06  -1.8489895e-05  -4.6246154e-05  -2.1674619e-05  -1.5197219e-05  -1.4557515e-05  -1.8950550e-05  -1.7524919e-05  -7.8049896e-05  -4.4667908e-05  -4.8324986e-05  -5.4455017e-05  -2.5628276e-05  -4.2952688e-05  -1.3477269e-05  -2.1914228e-05  -1.7129105e-05  -1.9444995e-05  -1.3377603e-04  -7.5335258e-05  -2.0074655e-04  -1.5625743e-04  -1.1646524e-06  -4.9919225e-05  -9.5997784e-06  -4.5278066e-05  -2.2427666e-05  -3.8801096e-05  -1.9448202e-05  -2.0816769e-05  -1.9991679e-05  -5.0062827e-05  -5.4924269e-05  -9.1701449e-06  -4.1044856e-05  -5.5819586e-05  -1.2013496e-05  -2.7709599e-05  -3.6847446e-06  -1.6633709e-05  -5.3604534e-05  -9.4895397e-05  -8.0228776e-05  -1.2136488e-04  -3.1566306e-05  -5.1457137e-05  -6.5881148e-05  -4.4968652e-05   6.7877233e-09   2.3709919e-05
  -6.5423783e-06  -1.6803164e-05  -4.6047502e-05  -2.1176260e-05  -1.4502210e-05  -1.1080968e-05  -1.6099239e-05  -1.8313587e-05  -7.7285120e-05  -4.9121638e-05  -4.8071048e-05  -5.7107336e-05  -2.4958417e-05  -4.5262110e-05  -1.1660713e-05  -2.2203039e-05  -1.6307789e-05  -1.8740147e-05  -1.4253119e-04  -8.3278363e-05  -2.0463025e-04  -1.5871892e-04  -4.7395505e-07  -5.0396382e-05  -6.2217391e-06  -4.6479759e-05  -2.1146616e-05  -3.8508853e-05  -1.4086433e-05  -2.1599208e-05  -2.0248943e-05  -4.9457940e-05  -5.2885636e-05  -7.5745038e-06  -3.9820687e-05  -5.7639892e-05  -5.1350930e-06  -2.6085303e-05   3.2645621e-06  -1.7603998e-05  -5.5382126e-05  -9.6624535e-05  -8.3696112e-05  -1.3130080e-04  -3.1531192e-05  -5.2549130e-05  -6.6435990e-05  -4.8843925e-05   4.4603025e-06   2.6909114e-05
  -3.4371901e-06  -1.5029515e-05  -4.5386965e-05  -2.1153925e-05  -1.3651234e-05  -7.4131303e-06  -1.2836082e-05  -1.8927180e-05  -7.5493386e-05  -5.3438758e-05  -4.7483456e-05  -5.9548751e-05  -2.4720650e-05  -4.7317502e-05  -9.8127430e-06  -2.2230128e-05  -1.5366411e-05  -1.7625682e-05  -1.4941352e-04  -9.0893132e-05  -2.0751740e-04  -1.6090430e-04  -5.1410643e-07  -4.9967752e-05  -2.9856990e-06  -4.7531870e-05  -1.9328812e-05  -3.7806582e-05  -8.7678909e-06  -2.2277050e-05  -2.0318153e-05  -4.7955127e-05  -5.0653136e-05  -5.5273890e-06  -3.8318281e-05  -5.9408827e-05   1.2199376e-06  -2.4113690e-05   1.0484131e-05  -1.8189830e-05  -5.7754969e-05  -9.6864576e-05  -8.6847387e-05  -1.3897802e-04  -3.0833897e-05  -5.3345429e-05  -6.4703949e-05  -5.2727279e-05   8.4860767e-06   2.9867857e-05
  -4.8638196e-07  -1.3227878e-05  -4.4307868e-05  -2.1530721e-05  -1.2646388e-05  -3.6916231e-06  -9.1965449e-06  -1.9404541e-05  -7.2819959e-05  -5.7557721e-05  -4.6591937e-05  -6.1745712e-05  -2.4912313e-05  -4.9144630e-05  -7.9987822e-06  -2.2022139e-05  -1.4298325e-05  -1.6124475e-05  -1.5449886e-04  -9.8101467e-05  -2.0936233e-04  -1.6275744e-04  -1.1779106e-06  -4.8670099e-05   1.5072501e-07  -4.8354650e-05  -1.7047658e-05  -3.6780028e-05  -3.5058661e-06  -2.2880327e-05  -2.0187146e-05  -4.5613084e-05  -4.8338461e-05  -3.1142026e-06  -3.6601792e-05  -6.1072926e-05   6.9377661e-06  -2.1813486e-05   1.7828605e-05  -1.8378303e-05  -6.0682021e-05  -9.5853342e-05  -8.9806053e-05  -1.4433113e-04  -2.9289335e-05  -5.3768170e-05  -6.0889099e-05  -5.6517965e-05   1.2073551e-05   3.2509281e-05
   2.2777756e-06  -1.1462669e-05  -4.2871743e-05  -2.2206481e-05  -1.1496780e-05  -7.9109476e-08  -5.2338896e-06  -1.9790916e-05  -6.9459355e-05  -6.1408187e-05  -4.5439596e-05  -6.3681131e-05  -2.5520883e-05  -5.0773044e-05  -6.2930421e-06  -2.1614507e-05  -1.3101720e-05  -1.4281763e-05  -1.5792767e-04  -1.0482986e-04  -2.1015074e-04  -1.6422359e-04  -2.3225955e-06  -4.6581550e-05   3.2303712e-06  -4.8865950e-05  -1.4404626e-05  -3.5530691e-05   1.6783080e-06  -2.3443294e-05  -1.9855805e-05  -4.2529926e-05  -4.6074420e-05  -4.4922041e-07  -3.4748526e-05  -6.2578438e-05   1.1921382e-05  -1.9221301e-05   2.5130930e-05  -1.8168761e-05  -6.4091910e-05  -9.3896895e-05  -9.2707516e-05  -1.4734866e-04  -2.6727659e-05  -5.3745462e-05  -5.5291999e-05  -6.0104241e-05   1.5223079e-05   3.4757046e-05
   4.8260104e-06  -9.7985003e-06  -4.1159219e-05  -2.3062987e-05  -1.0213792e-05   3.2617183e-06  -1.0182564e-06  -2.0132256e-05  -6.5642162e-05  -6.4932297e-05  -4.4080734e-05  -6.5340100e-05  -2.6516982e-05  -5.2241539e-05  -4.7681647e-06  -2.1051688e-05  -1.1778513e-05  -1.2156000e-05  -1.5989838e-04  -1.1101567e-04  -2.0990652e-04  -1.6526163e-04  -3.7840630e-06  -4.3804797e-05   6.2980412e-06  -4.8990554e-05  -1.1521804e-05  -3.4169610e-05   6.7557644e-06  -2.4000243e-05  -1.9323956e-05  -3.8833259e-05  -4.3998996e-05   2.3434525e-06  -3.2841283e-05  -6.3868974e-05   1.6088339e-05  -1.6388953e-05   3.2211574e-05  -1.7571525e-05  -6.7889705e-05  -9.1336602e-05  -9.5682713e-05  -1.4807332e-04  -2.3006036e-05  -5.3213644e-05  -4.8287904e-05  -6.3376559e-05   1.7936538e-05   3.6540390e-05
   7.1229451e-06  -8.3001614e-06  -3.9259641e-05  -2.3966544e-05  -8.8201241e-06   6.1710707e-06   3.3629717e-06  -2.0470236e-05  -6.1614926e-05  -6.8075504e-05  -4.2586558e-05  -6.6715394e-05  -2.7851616e-05  -5.3586598e-05  -3.4892689e-06  -2.0384454e-05  -1.0337931e-05  -9.8131377e-06  -1.6064403e-04  -1.1659967e-04  -2.0868557e-04  -1.6583849e-04  -5.3902563e-06  -4.0470204e-05   9.3876570e-06  -4.8668546e-05  -8.5351558e-06  -3.2809497e-05   1.1688900e-05  -2.4582052e-05  -1.8606032e-05  -3.4677196e-05  -4.2254876e-05   5.1301627e-06  -3.0965290e-05  -6.4889522e-05   1.9399451e-05  -1.3381202e-05   3.8900751e-05  -1.6612003e-05  -7.1952170e-05  -8.8532339e-05  -9.8844917e-05  -1.4659409e-04  -1.8035200e-05  -5.2127823e-05  -4.0305003e-05  -6.6234366e-05   2.0214617e-05   3.7803591e-05
   9.1410147e-06  -7.0234555e-06  -3.7265294e-05  -2.4783796e-05  -7.3395995e-06   8.5138809e-06   7.8189732e-06  -2.0837309e-05  -5.7624624e-05  -7.0800583e-05  -4.1031613e-05  -6.7813031e-05  -2.9465680e-05  -5.4838918e-05  -2.5080753e-06  -1.9662901e-05  -8.7956514e-06  -7.3288966e-06  -1.6041867e-04  -1.2154512e-04  -2.0657927e-04  -1.6594486e-04  -6.9713856e-06  -3.6720034e-05   1.2520157e-05  -4.7859405e-05  -5.5791293e-06  -3.1553907e-05   1.6432205e-05  -2.5213154e-05  -1.7719618e-05  -3.0228020e-05  -4.0968131e-05   7.7795148e-06  -2.9196097e-05  -6.5591143e-05   2.1851616e-05  -1.0275375e-05   4.5048448e-05  -1.5323294e-05  -7.6143602e-05  -8.5823325e-05  -1.0227918e-04  -1.4304891e-04  -1.1790628e-05  -5.0463561e-05  -3.1797143e-05  -6.8600864e-05   2.2067181e-05   3.8504269e-05
   1.0853209e-05  -6.0135585e-06  -3.5266283e-05  -2.5385420e-05  -5.8005708e-06   1.0187669e-05   1.2253709e-05  -2.1252545e-05  -5.3897507e-05  -7.3083254e-05  -3.9486771e-05  -6.8645197e-05  -3.1288375e-05  -5.6022127e-05  -1.8616606e-06  -1.8930547e-05  -7.1722625e-06  -4.7769345e-06  -1.5947680e-04  -1.2582734e-04  -2.0371203e-04  -1.6558274e-04  -8.3708128e-06  -3.2706834e-05   1.5700884e-05  -4.6550507e-05  -2.7843887e-06  -3.0488834e-05   2.0931124e-05  -2.5907233e-05  -1.6691192e-05  -2.5658073e-05  -4.0242146e-05   1.0172942e-05  -2.7595577e-05  -6.5933629e-05   2.3491517e-05  -7.1555087e-06   5.0533588e-05  -1.3752897e-05  -8.0309554e-05  -8.3510953e-05  -1.0602841e-04  -1.3761279e-04  -4.3209770e-06  -4.8226109e-05  -2.3217042e-05  -7.0424168e-05   2.3496246e-05   3.8626215e-05
   1.2239281e-05  -5.3000990e-06  -3.3348078e-05  -2.5657513e-05  -4.2331558e-06   1.1132152e-05   1.6570770e-05  -2.1719599e-05  -5.0631836e-05  -7.4916141e-05  -3.8030095e-05  -6.9232527e-05  -3.3232522e-05  -5.7148536e-05  -1.5611390e-06  -1.8230510e-05  -5.4922302e-06  -2.2312693e-06  -1.5806069e-04  -1.2944528e-04  -2.0023539e-04  -1.6478282e-04  -9.4628285e-06  -2.8578077e-05   1.8914614e-05  -4.4753378e-05  -2.6783511e-07  -2.9673560e-05   2.5129046e-05  -2.6670397e-05  -1.5554859e-05  -2.1137834e-05  -4.0147399e-05   1.2214862e-05  -2.6210360e-05  -6.5883745e-05   2.4413992e-05  -4.1076291e-06   5.5278018e-05  -1.1957374e-05  -8.4294472e-05  -8.1831182e-05  -1.1008690e-04  -1.3049653e-04   4.2386332e-06  -4.5448938e-05  -1.4991941e-05  -7.1684466e-05   2.4505218e-05   3.8175305e-05
   1.3282593e-05  -4.8912621e-06  -3.1582887e-05  -2.5508662e-05  -2.6716880e-06   1.1337942e-05   2.0684871e-05  -2.2220620e-05  -4.7976751e-05  -7.6308439e-05  -3.6721602e-05  -6.9600312e-05  -3.5215457e-05  -5.8221773e-05  -1.5933192e-06  -1.7593553e-05  -3.7871171e-06   2.4093350e-07  -1.5637696e-04  -1.3240852e-04  -1.9632759e-04  -1.6359158e-04  -1.0155214e-05  -2.4476827e-05   2.2129649e-05  -4.2511070e-05   1.8749845e-06  -2.9142486e-05   2.8963748e-05  -2.7491202e-05  -1.4350467e-05  -1.6824006e-05  -4.0711919e-05   1.3833546e-05  -2.5058494e-05  -6.5424181e-05   2.4757392e-05  -1.2239075e-06   5.9249989e-05  -9.9989138e-06  -8.7942353e-05  -8.0940743e-05  -1.1439605e-04  -1.2193806e-04   1.3671806e-05  -4.2197000e-05  -7.4974159e-06  -7.2398332e-05   2.5094434e-05   3.7186895e-05
   1.3974690e-05  -4.7817034e-06  -3.0032721e-05  -2.4876263e-05  -1.1454290e-06   1.0842168e-05   2.4515381e-05  -2.2722681e-05  -4.6030284e-05  -7.7279554e-05  -3.5615838e-05  -6.9774673e-05  -3.7143229e-05  -5.9229744e-05  -1.9214276e-06  -1.7040325e-05  -2.0914217e-06   2.5820002e-06  -1.5459424e-04  -1.3475151e-04  -1.9217552e-04  -1.6207717e-04  -1.0391127e-05  -2.0525842e-05   2.5289228e-05  -3.9892908e-05   3.5783278e-06  -2.8894698e-05   3.2376633e-05  -2.8348368e-05  -1.3119784e-05  -1.2857028e-05  -4.1917971e-05   1.4989647e-05  -2.4139850e-05  -6.4542008e-05   2.4698646e-05   1.4154131e-06   6.2462626e-05  -7.9454467e-06  -9.1102018e-05  -8.0908976e-05  -1.1884717e-04  -1.1219742e-04   2.3686223e-05  -3.8567287e-05  -1.0378617e-06  -7.2615338e-05   2.5265317e-05   3.5721539e-05
   1.4318974e-05  -4.9476203e-06  -2.8737186e-05  -2.3731067e-05   3.1325933e-07   9.7290658e-06   2.8001481e-05  -2.3177899e-05  -4.4834622e-05  -7.7858102e-05  -3.4747245e-05  -6.9781134e-05  -3.8930386e-05  -6.0147351e-05  -2.4860190e-06  -1.6582442e-05  -4.4205970e-07   4.7463886e-06  -1.5282391e-04  -1.3651839e-04  -1.8797233e-04  -1.6031423e-04  -1.0164848e-05  -1.6826603e-05   2.8330089e-05  -3.6989237e-05   4.8015522e-06  -2.8899280e-05   3.5315312e-05  -2.9208568e-05  -1.1903345e-05  -9.3466861e-06  -4.3697910e-05   1.5678899e-05  -2.3428929e-05  -6.3239997e-05   2.4444573e-05   3.7330578e-06   6.4973283e-05  -5.8665632e-06  -9.3640469e-05  -8.1711820e-05  -1.2328831e-04  -1.0154625e-04   3.3923807e-05  -3.4681187e-05   4.1622993e-06  -7.2418334e-05   2.5010679e-05   3.3861063e-05
   1.4321513e-05  -5.3485451e-06  -2.7722044e-05  -2.2083421e-05   1.6786604e-06   8.1265234e-06   3.1095136e-05  -2.3525645e-05  -4.4372417e-05  -7.8078774e-05  -3.4138935e-05  -6.9645248e-05  -4.0492443e-05  -6.0948274e-05  -3.2104008e-06  -1.6216141e-05   1.1226906e-06   6.7022934e-06  -1.5112531e-04  -1.3776342e-04  -1.8390628e-04  -1.5839860e-04  -9.5069508e-06  -1.3455455e-05   3.1171374e-05  -3.3908269e-05   5.5434625e-06  -2.9099523e-05   3.7735808e-05  -3.0026389e-05  -1.0743615e-05  -6.3750836e-06  -4.5939185e-05   1.5926762e-05  -2.2878545e-05  -6.1523759e-05   2.4210836e-05   5.6658610e-06   6.6878834e-05  -3.8325365e-06  -9.5443254e-05  -8.3243132e-05  -1.2753728e-04  -9.0266651e-05   4.3979602e-05  -3.0683965e-05   7.9672791e-06  -7.1910552e-05   2.4331443e-05   3.1710653e-05
   1.3999529e-05  -5.9377817e-06  -2.6992431e-05  -1.9979962e-05   2.9255484e-06   6.1932815e-06   3.3765362e-05  -2.3699489e-05  -4.4572600e-05  -7.7973033e-05  -3.3791381e-05  -6.9378570e-05  -4.1757583e-05  -6.1588958e-05  -3.9997631e-06  -1.5932126e-05   2.5627089e-06   8.4297899e-06  -1.4949565e-04  -1.3854897e-04  -1.8015261e-04  -1.5641918e-04  -8.4890289e-06  -1.0452976e-05   3.3731754e-05  -3.0766747e-05   5.8273035e-06  -2.9414561e-05   3.9608884e-05  -3.0753228e-05  -9.6747935e-06  -3.9918355e-06  -4.8482896e-05   1.5794856e-05  -2.2425096e-05  -5.9410882e-05   2.4212191e-05   7.1690670e-06   6.8300062e-05  -1.9066307e-06  -9.6421842e-05  -8.5325242e-05  -1.3138486e-04  -7.8638841e-05   5.3426062e-05  -2.6735050e-05   1.0335393e-05  -7.1218506e-05   2.3221432e-05   2.9385208e-05
   1.3375267e-05  -6.6601933e-06  -2.6538768e-05  -1.7499578e-05   4.0368727e-06   4.1045732e-06   3.6003232e-05  -2.3627181e-05  -4.5315250e-05  -7.7566147e-05  -3.3683700e-05  -6.8994159e-05  -4.2669682e-05  -6.2029896e-05  -4.7568324e-06  -1.5710519e-05   3.8425105e-06   9.9250565e-06  -1.4788150e-04  -1.3893603e-04  -1.7685641e-04  -1.5447178e-04  -7.2161447e-06  -7.8376761e-06   3.5926463e-05  -2.7679473e-05   5.7071284e-06  -2.9749792e-05   4.0922914e-05  -3.1335661e-05  -8.7259614e-06  -2.2109684e-06  -5.1143848e-05   1.5364329e-05  -2.1995003e-05  -5.6921828e-05   2.4638271e-05   8.2148226e-06   6.9371898e-05  -1.4800165e-07  -9.6516356e-05  -8.7724024e-05  -1.3462601e-04  -6.6937064e-05   6.1836370e-05  -2.2999491e-05   1.1308794e-05  -7.0473041e-05   2.1684893e-05   2.7007083e-05
   1.2483329e-05  -7.4584473e-06  -2.6335352e-05  -1.4756612e-05   5.0010026e-06   2.0444149e-06   3.7811533e-05  -2.3248705e-05  -4.6441895e-05  -7.6876946e-05  -3.3779488e-05  -6.8487956e-05  -4.3185784e-05  -6.2230487e-05  -5.3828426e-06  -1.5524598e-05   4.9264468e-06   1.1191444e-05  -1.4617841e-04  -1.3898790e-04  -1.7413234e-04  -1.5263731e-04  -5.8171759e-06  -5.5958290e-06   3.7680948e-05  -2.4759356e-05   5.2645569e-06  -3.0001460e-05   4.1690997e-05  -3.1718366e-05  -7.9166248e-06  -1.0153668e-06  -5.3709729e-05   1.4740182e-05  -2.1507629e-05  -5.4082397e-05   2.5646503e-05   8.7933986e-06   7.0232803e-05   1.3956012e-06  -9.5699332e-05  -9.0176072e-05  -1.3705903e-04  -5.5425622e-05   6.8813351e-05  -1.9640940e-05   1.0999845e-05  -6.9807014e-05   1.9728695e-05   2.4698049e-05
   1.1353348e-05  -8.2782708e-06  -2.6342126e-05  -1.1884917e-05   5.8101018e-06   1.8596219e-07   3.9214301e-05  -2.2507784e-05  -4.7767604e-05  -7.5902390e-05  -3.4034369e-05  -6.7846435e-05  -4.3288259e-05  -6.2152467e-05  -5.7877623e-06  -1.5344222e-05   5.7832876e-06   1.2247227e-05  -1.4425123e-04  -1.3875341e-04  -1.7206071e-04  -1.5098590e-04  -4.4368630e-06  -3.6933945e-06   3.8930943e-05  -2.2098397e-05   4.5894590e-06  -3.0073492e-05   4.1940930e-05  -3.1855947e-05  -7.2547277e-06  -3.5857110e-07  -5.5965145e-05   1.4034712e-05  -2.0889189e-05  -5.0918763e-05   2.7339505e-05   8.9227951e-06   7.1004790e-05   2.6860055e-06  -9.3974035e-05  -9.2403570e-05  -1.3851134e-04  -4.4345368e-05   7.4012947e-05  -1.6809159e-05   9.5860059e-06  -6.9344729e-05   1.7360511e-05   2.2570091e-05
   1.0024813e-05  -9.0719795e-06  -2.6517337e-05  -9.0367439e-06   6.4672104e-06  -1.3154867e-06   4.0244813e-05  -2.1368493e-05  -4.9092167e-05  -7.4633776e-05  -3.4380428e-05  -6.7054163e-05  -4.2976677e-05  -6.1767460e-05  -5.8950463e-06  -1.5137535e-05   6.3885168e-06   1.3114954e-05  -1.4194130e-04  -1.3827631e-04  -1.7067070e-04  -1.4957198e-04  -3.2260775e-06  -2.0793525e-06   3.9628252e-05  -1.9768109e-05   3.7873672e-06  -2.9874569e-05   4.1726966e-05  -3.1707095e-05  -6.7372562e-06  -1.7122396e-07  -5.7700439e-05   1.3364304e-05  -2.0071257e-05  -4.7460428e-05   2.9757055e-05   8.6348800e-06   7.1787646e-05   3.6975757e-06  -9.1376052e-05  -9.4141411e-05  -1.3885023e-04  -3.3913711e-05   7.7165801e-05  -1.4632767e-05   7.2822036e-06  -6.9191621e-05   1.4603067e-05   2.0722284e-05
   8.5351594e-06  -9.8020846e-06  -2.6803333e-05  -6.3696202e-06   6.9771809e-06  -2.3426016e-06   4.0945179e-05  -1.9813808e-05  -5.0217292e-05  -7.3044925e-05  -3.4754012e-05  -6.6082110e-05  -4.2271713e-05  -6.1057239e-05  -5.6491408e-06  -1.4878111e-05   6.7254832e-06   1.3822217e-05  -1.3908707e-04  -1.3758687e-04  -1.6995928e-04  -1.4842890e-04  -2.3284335e-06  -6.9069290e-07   3.9744788e-05  -1.7815955e-05   2.9627697e-06  -2.9335339e-05   4.1121177e-05  -3.1243191e-05  -6.3508787e-06  -3.6712859e-07  -5.8729878e-05   1.2839176e-05  -1.9004881e-05  -4.3739172e-05   3.2873984e-05   7.9839283e-06   7.2644209e-05   4.4184699e-06  -8.7974302e-05  -9.5160867e-05  -1.3799004e-04  -2.4317880e-05   7.8098368e-05  -1.3213849e-05   4.3266386e-06  -6.9428635e-05   1.1480032e-05   1.9231502e-05
   6.9208122e-06  -1.0442742e-05  -2.7150134e-05  -4.0337650e-06   7.3500778e-06  -2.8159964e-06   4.1364194e-05  -1.7855213e-05  -5.0958355e-05  -7.1098060e-05  -3.5088258e-05  -6.4906111e-05  -4.1218642e-05  -6.0014070e-05  -5.0228814e-06  -1.4541447e-05   6.7806532e-06   1.4398069e-05  -1.3554016e-04  -1.3669803e-04  -1.6987916e-04  -1.4756703e-04  -1.8776191e-06   5.3422286e-07   3.9270839e-05  -1.6262131e-05   2.2109436e-06  -2.8409138e-05   4.0207931e-05  -3.0451400e-05  -6.0718839e-06  -8.4866434e-07  -5.8907088e-05   1.2553724e-05  -1.7657092e-05  -3.9788305e-05   3.6593330e-05   7.0384112e-06   7.3597781e-05   4.8489751e-06  -8.3859020e-05  -9.5281233e-05  -1.3590029e-04  -1.5710410e-05   7.6742122e-05  -1.2619622e-05   9.5721509e-07  -7.0109258e-05   8.0253521e-06   1.8152328e-05
   5.2124628e-06  -1.0978557e-05  -2.7506838e-05  -2.1689086e-06   7.6014644e-06  -2.7030001e-06   4.1550073e-05  -1.5524251e-05  -5.1158735e-05  -6.8751520e-05  -3.5326433e-05  -6.3501437e-05  -3.9876188e-05  -5.8649784e-05  -4.0141217e-06  -1.4112884e-05   6.5503418e-06   1.4868612e-05  -1.3118215e-04  -1.3561746e-04  -1.7034679e-04  -1.4697541e-04  -1.9817626e-06   1.6455851e-06   3.8212202e-05  -1.5097388e-05   1.6190219e-06  -2.7079159e-05   3.9083716e-05  -2.9330891e-05  -5.8681112e-06  -1.5170840e-06  -5.8136324e-05   1.2583080e-05  -1.6023156e-05  -3.5645120e-05   4.0753144e-05   5.8775108e-06   7.4625110e-05   5.0006115e-06  -7.9144695e-05  -9.4384530e-05  -1.3260891e-04  -8.2031311e-06   7.3133284e-05  -1.2880471e-05  -2.6006762e-06  -7.1251583e-05   4.2769620e-06   1.7509772e-05
   3.4322579e-06  -1.1408585e-05  -2.7828004e-05  -8.8341409e-07   7.7495160e-06  -2.0218679e-06   4.1546231e-05  -1.2880094e-05  -5.0702336e-05  -6.5968517e-05  -3.5423040e-05  -6.1849772e-05  -3.8324004e-05  -5.6981589e-05  -2.6547877e-06  -1.3583878e-05   6.0382399e-06   1.5252619e-05  -1.2593479e-04  -1.3433587e-04  -1.7125826e-04  -1.4662938e-04  -2.7239303e-06   2.6862490e-06   3.6595000e-05  -1.4294119e-05   1.2464382e-06  -2.5356381e-05   3.7848571e-05  -2.7897831e-05  -5.7040602e-06  -2.2750592e-06  -5.6378572e-05   1.2972197e-05  -1.4118708e-05  -3.1353316e-05   4.5140929e-05   4.5898573e-06   7.5662312e-05   4.8933875e-06  -7.3959258e-05  -9.2425435e-05  -1.2819859e-04  -1.8707574e-06   6.7415429e-05  -1.3983402e-05  -6.1555102e-06  -7.2837436e-05   2.7402746e-07   1.7304325e-05
   1.5975065e-06  -1.1740830e-05  -2.8077122e-05  -2.5730023e-07   7.8118383e-06  -8.3746522e-07   4.1392617e-05  -1.0005955e-05  -4.9520746e-05  -6.2711522e-05  -3.5356617e-05  -5.9953767e-05  -3.6651840e-05  -5.5047683e-05  -1.0000787e-06  -1.2955283e-05   5.2516921e-06   1.5566835e-05  -1.1978223e-04  -1.3284286e-04  -1.7248993e-04  -1.4648262e-04  -4.1524659e-06   3.6697415e-06   3.4454501e-05  -1.3801125e-05   1.1318145e-06  -2.3281229e-05   3.6595138e-05  -2.6183883e-05  -5.5383925e-06  -3.0412903e-06  -5.3660686e-05   1.3740125e-05  -1.1983681e-05  -2.6961159e-05   4.9503138e-05   3.2606652e-06   7.6606026e-05   4.5531406e-06  -6.8443587e-05  -8.9430650e-05  -1.2279922e-04   3.2586588e-06   5.9821581e-05  -1.5880812e-05  -9.5577834e-06  -7.4817057e-05  -3.9366460e-06   1.7512300e-05
  -2.8427758e-07  -1.1991353e-05  -2.8231159e-05  -3.3183005e-07   7.8060175e-06   7.4593112e-07   4.1110881e-05  -6.9999182e-06  -4.7597438e-05  -5.8966853e-05  -3.5122444e-05  -5.7824134e-05  -3.4954966e-05  -5.2890493e-05   8.6522135e-07  -1.2241680e-05   4.2046368e-06   1.5812027e-05  -1.1276851e-04  -1.3112112e-04  -1.7391305e-04  -1.4648518e-04  -6.2859049e-06   4.5868369e-06   3.1830881e-05  -1.3558938e-05   1.2887633e-06  -2.0919140e-05   3.5407433e-05  -2.4231707e-05  -5.3360395e-06  -3.7484442e-06  -5.0075574e-05   1.4872009e-05  -9.6843914e-06  -2.2529770e-05   5.3565189e-05   1.9728616e-06   7.7326607e-05   4.0138270e-06  -6.2739608e-05  -8.5496271e-05  -1.1658246e-04   7.1932955e-06   5.0662748e-05  -1.8485216e-05  -1.2708846e-05  -7.7107761e-05  -8.3153955e-06   1.8081777e-05
  -2.2127949e-06  -1.2180392e-05  -2.8271317e-05  -1.1042905e-06   7.7483010e-06   2.5893514e-06   4.0716590e-05  -3.9762767e-06  -4.4971806e-05  -5.4740354e-05  -3.4747532e-05  -5.5501780e-05  -3.3337819e-05  -5.0565901e-05   2.8387074e-06  -1.1464292e-05   2.9177857e-06   1.5984513e-05  -1.0500495e-04  -1.2915753e-04  -1.7540314e-04  -1.4657837e-04  -9.1049415e-06   5.4011807e-06   2.8769107e-05  -1.3506045e-05   1.6963927e-06  -1.8357250e-05   3.4350014e-05  -2.2095785e-05  -5.0645140e-06  -4.3468367e-06  -4.5778845e-05   1.6327296e-05  -7.3003462e-06  -1.8121822e-05   5.7053308e-05   8.0159299e-07   7.7679360e-05   3.3075739e-06  -5.6980298e-05  -8.0773461e-05  -1.0974871e-04   9.9831850e-06   4.0304094e-05  -2.1682292e-05  -1.5559013e-05  -7.9600228e-05  -1.2821020e-05   1.8951636e-05
  -4.1994640e-06  -1.2330018e-05  -2.8201446e-05  -2.5327408e-06   7.6507786e-06   4.5330758e-06   4.0209281e-05  -1.0536917e-06  -4.1736734e-05  -5.0067145e-05  -3.4285022e-05  -5.3049425e-05  -3.1892181e-05  -4.8128284e-05   4.8050047e-06  -1.0650600e-05   1.4142212e-06   1.6068327e-05  -9.6670025e-05  -1.2694864e-04  -1.7685053e-04  -1.4670771e-04  -1.2565154e-05   6.0481625e-06   2.5309415e-05  -1.3583522e-05   2.3165667e-06  -1.5693213e-05   3.3466240e-05  -1.9834748e-05  -4.6996888e-06  -4.8148295e-06  -4.0979092e-05   1.8034983e-05  -4.9224523e-06  -1.3816376e-05   5.9722384e-05  -1.9381893e-07   7.7514618e-05   2.4677768e-06  -5.1295967e-05  -7.5462835e-05  -1.0250763e-04   1.1713465e-05   2.9139874e-05  -2.5330506e-05  -1.8110664e-05  -8.2166916e-05  -1.7418297e-05   2.0042935e-05
  -6.2574104e-06  -1.2458401e-05  -2.8022809e-05  -4.5350052e-06   7.5196053e-06   6.4079345e-06   3.9572245e-05   1.6503511e-06  -3.8029408e-05  -4.5016528e-05  -3.3809371e-05  -5.0550036e-05  -3.0710169e-05  -4.5640823e-05   6.6349794e-06  -9.8412802e-06  -2.8256719e-07   1.6040614e-05  -8.7998938e-05  -1.2449517e-04  -1.7816841e-04  -1.4682031e-04  -1.6586519e-05   6.4426599e-06   2.1487347e-05  -1.3739923e-05   3.0812391e-06  -1.3032277e-05   3.2769080e-05  -1.7514390e-05  -4.2290776e-06  -5.1496827e-06  -3.5931491e-05   1.9906249e-05  -2.6497182e-06  -9.6955810e-06   6.1365223e-05  -9.7131101e-07   7.6700366e-05   1.5216816e-06  -4.5796682e-05  -6.9794449e-05  -9.5070391e-05   1.2495312e-05   1.7569471e-05  -2.9274330e-05  -2.0404219e-05  -8.4667707e-05  -2.2076876e-05   2.1275608e-05
  -8.4081194e-06  -1.2584578e-05  -2.7754822e-05  -6.9963676e-06   7.3605693e-06   8.0482805e-06   3.8779021e-05   4.0228583e-06  -3.4026951e-05  -3.9693277e-05  -3.3415163e-05  -4.8112131e-05  -2.9870343e-05  -4.3157397e-05   8.2087072e-06  -9.0765670e-06  -2.1466226e-06   1.5869071e-05  -7.9277874e-05  -1.2181330e-04  -1.7929486e-04  -1.4687916e-04  -2.1071754e-05   6.4774540e-06   1.7329232e-05  -1.3946303e-05   3.9081110e-06  -1.0478714e-05   3.2243341e-05  -1.5195847e-05  -3.6507347e-06  -5.3706494e-06  -3.0920892e-05   2.1833506e-05  -5.7865435e-07  -5.8476871e-06   6.1840306e-05  -1.5074093e-06   7.5127435e-05   4.9331646e-07  -4.0573461e-05  -6.4007989e-05  -8.7633081e-05   1.2464878e-05   5.9802287e-06  -3.3350185e-05  -2.2516864e-05  -8.6957923e-05  -2.6764932e-05   2.2566759e-05
  -1.0670307e-05  -1.2717889e-05  -2.7421154e-05  -9.7760385e-06   7.1690270e-06   9.3025646e-06   3.7792499e-05   5.9697595e-06  -2.9937937e-05  -3.4233613e-05  -3.3217028e-05  -4.5856872e-05  -2.9429719e-05  -4.0733619e-05   9.4082543e-06  -8.4006688e-06  -4.1521976e-06   1.5519870e-05  -7.0824572e-05  -1.1893777e-04  -1.8019680e-04  -1.4685835e-04  -2.5902287e-05   6.0439042e-06   1.2851738e-05  -1.4190811e-05   4.7050753e-06  -8.1265243e-06   3.1845637e-05  -1.2939076e-05  -2.9815294e-06  -5.5185633e-06  -2.6244214e-05   2.3706072e-05   1.2009483e-06  -2.3615842e-06   6.1084836e-05  -1.8014712e-06   7.2732655e-05  -5.9902567e-07  -3.5695164e-05  -5.8337675e-05  -8.0364480e-05   1.1773036e-05  -5.2812984e-06  -3.7396851e-05  -2.4543575e-05  -8.8898232e-05  -3.1458483e-05   2.3844441e-05
  -1.3060620e-05  -1.2858011e-05  -2.7045227e-05  -1.2720408e-05   6.9418734e-06   1.0044415e-05   3.6572004e-05   7.4142677e-06  -2.5980607e-05  -2.8804690e-05  -3.3322616e-05  -4.3920205e-05  -2.9433484e-05  -3.8411672e-05   1.0135050e-05  -7.8572593e-06  -6.2697281e-06   1.4954183e-05  -6.2970685e-05  -1.1590921e-04  -1.8087510e-04  -1.4674796e-04  -3.0944535e-05   5.0302774e-06   8.0658519e-06  -1.4480996e-05   5.3707504e-06  -6.0550997e-06   3.1502750e-05  -1.0793914e-05  -2.2433480e-06  -5.6456956e-06  -2.2195793e-05   2.5407202e-05   2.6117311e-06   6.7022330e-07   5.9114893e-05  -1.8680433e-06   6.9494985e-05  -1.7464140e-06  -3.1208670e-05  -5.2988958e-05  -7.3394476e-05   1.0576780e-05  -1.5920465e-05  -4.1261046e-05  -2.6583992e-05  -9.0366484e-05  -3.6129284e-05   2.5045691e-05
  -1.5589701e-05  -1.3003159e-05  -2.6657943e-05  -1.5666963e-05   6.6660696e-06   1.0182770e-05   3.5073012e-05   8.3049854e-06  -2.2383063e-05  -2.3595727e-05  -3.3844572e-05  -4.2433687e-05  -2.9899940e-05  -3.6230271e-05   1.0308166e-05  -7.4872828e-06  -8.4740186e-06   1.4138713e-05  -5.6044250e-05  -1.1278539e-04  -1.8135823e-04  -1.4654988e-04  -3.6061010e-05   3.3399033e-06   2.9775249e-06  -1.4848614e-05   5.8109790e-06  -4.3245545e-06   3.1118438e-05  -8.8049737e-06  -1.4783418e-06  -5.8155770e-06  -1.9049616e-05   2.6830208e-05   3.5953510e-06   3.1673540e-06   5.6034954e-05  -1.7478593e-06   6.5451233e-05  -2.9448152e-06  -2.7136328e-05  -4.8133614e-05  -6.6813525e-05   9.0319254e-06  -2.5704947e-05  -4.4806340e-05  -2.8727307e-05  -9.1256334e-05  -4.0747913e-05   2.6121015e-05
  -1.8258814e-05  -1.3139374e-05  -2.6286072e-05  -1.8461438e-05   6.3273496e-06   9.6656404e-06   3.3255557e-05   8.6178070e-06  -1.9357554e-05  -1.8805811e-05  -3.4879038e-05  -4.1524570e-05  -3.0825064e-05  -3.4214085e-05   9.8734527e-06  -7.3268525e-06  -1.0736228e-05   1.3040441e-05  -5.0345934e-05  -1.0963591e-04  -1.8168888e-04  -1.4628045e-04  -4.1109128e-05   8.9793116e-07  -2.4063911e-06  -1.5337655e-05   5.9375993e-06  -2.9704356e-06   3.0576120e-05  -7.0038141e-06  -7.2990395e-07  -6.0937987e-06  -1.7036235e-05   2.7883354e-05   4.1154781e-06   5.0604845e-06   5.2023999e-05  -1.4906726e-06   6.0690953e-05  -4.1951480e-06  -2.3481833e-05  -4.3890966e-05  -6.0664806e-05   7.2880493e-06  -3.4470049e-05  -4.7915648e-05  -3.1045751e-05  -9.1490394e-05  -4.5277728e-05   2.7040554e-05
  -2.1057347e-05  -1.3252125e-05  -2.5950139e-05  -2.0966610e-05   5.9119980e-06   8.4801377e-06   3.1087224e-05   8.3543691e-06  -1.7100048e-05  -1.4632816e-05  -3.6496658e-05  -4.1297419e-05  -3.2185399e-05  -3.2379568e-05   8.8025909e-06  -7.4059476e-06  -1.3028895e-05   1.1640634e-05  -4.6131772e-05  -1.0652864e-04  -1.8192992e-04  -1.4596595e-04  -4.5951147e-05  -2.3376408e-06  -8.0747104e-06  -1.6004808e-05   5.6783565e-06  -2.0056079e-06   2.9754136e-05  -5.4112338e-06  -5.0254545e-08  -6.5466606e-06  -1.6336724e-05   2.8490313e-05   4.1539220e-06   6.2943495e-06   4.7331996e-05  -1.1593207e-06   5.5353215e-05  -5.5059800e-06  -2.0227493e-05  -4.0330062e-05  -5.4952994e-05   5.4790289e-06  -4.2116910e-05  -5.0502164e-05  -3.3577038e-05  -9.1018475e-05  -4.9678179e-05   2.7788676e-05
  -2.3958733e-05  -1.3327236e-05  -2.5669280e-05  -2.3073380e-05   5.4014754e-06   6.6556349e-06   2.8549301e-05   7.5455114e-06  -1.5769609e-05  -1.1259684e-05  -3.8739210e-05  -4.1830172e-05  -3.3936158e-05  -3.0735260e-05   7.1013665e-06  -7.7429058e-06  -1.5323032e-05   9.9278623e-06  -4.3593569e-05  -1.0353519e-04  -1.8214465e-04  -1.4563318e-04  -5.0454149e-05  -6.3651873e-06  -1.4001973e-05  -1.6907521e-05   4.9799833e-06  -1.4228384e-06   2.8522030e-05  -4.0389500e-06   5.0476905e-07  -7.2279599e-06  -1.7059998e-05   2.8601842e-05   3.7204002e-06   6.8424370e-06   4.2249336e-05  -8.2811903e-07   4.9617764e-05  -6.8860272e-06  -1.7344679e-05  -3.7460894e-05  -4.9640013e-05   3.7185987e-06  -4.8608181e-05  -5.2502732e-05  -3.6316524e-05  -8.9824927e-05  -5.3895139e-05   2.8366090e-05
  -2.6927259e-05  -1.3346544e-05  -2.5455747e-05  -2.4701920e-05   4.7836352e-06   4.2575375e-06   2.5639378e-05   6.2457848e-06  -1.5489119e-05  -8.8392535e-06  -4.1605086e-05  -4.3162250e-05  -3.6012101e-05  -2.9277424e-05   4.7987305e-06  -8.3447521e-06  -1.7585831e-05   7.9032325e-06  -4.2839805e-05  -1.0071960e-04  -1.8239254e-04  -1.4531461e-04  -5.4498589e-05  -1.1136746e-05  -2.0146828e-05  -1.8100422e-05   3.8140279e-06  -1.1907060e-06   2.6762993e-05  -2.8858326e-06   8.8599779e-07  -8.1834087e-06  -1.9244455e-05   2.8194434e-05   2.8447566e-06   6.6969046e-06   3.7099078e-05  -5.6625379e-07   4.3693824e-05  -8.3433670e-06  -1.4798694e-05  -3.5248544e-05  -4.4667908e-05   2.0973655e-06  -5.3962962e-05  -5.3884873e-05  -3.9222985e-05  -8.7919609e-05  -5.7868787e-05   2.8786550e-05
  -2.9908351e-05  -1.3299886e-05  -2.5312227e-05  -2.5810567e-05   4.0473460e-06   1.3798453e-06   2.2375276e-05   4.5273237e-06  -1.6331711e-05  -7.4839850e-06  -4.5054730e-05  -4.5284240e-05  -3.8334543e-05  -2.7998451e-05   1.9540503e-06  -9.2130158e-06  -1.9786585e-05   5.5847822e-06  -4.3892076e-05  -9.8131306e-05  -1.8271842e-04  -1.4502864e-04  -5.7976918e-05  -1.6557655e-05  -2.6445514e-05  -1.9623318e-05   2.1756900e-06  -1.2662261e-06   2.4372306e-05  -1.9453964e-06   1.0492781e-06  -9.4395509e-06  -2.2845321e-05   2.7268241e-05   1.5719182e-06   5.8855799e-06   3.2199227e-05  -4.4301729e-07   3.7807171e-05  -9.8871942e-06  -1.2544787e-05  -3.3614670e-05  -3.9952298e-05   6.8040185e-07  -5.8233796e-05  -5.4645683e-05  -4.2207274e-05  -8.5340514e-05  -6.1527186e-05   2.9075189e-05
  -3.2836968e-05  -1.3187228e-05  -2.5238502e-05  -2.6397522e-05   3.1865679e-06  -1.8609940e-06   1.8793467e-05   2.4793960e-06  -1.8319310e-05  -7.2492903e-06  -4.9001250e-05  -4.8137510e-05  -4.0814113e-05  -2.6888416e-05  -1.3529160e-06  -1.0331078e-05  -2.1886659e-05   3.0039164e-06  -4.6674355e-05  -9.5807394e-05  -1.8314391e-04  -1.4478537e-04  -6.0800528e-05  -2.2482152e-05  -3.2809759e-05  -2.1497264e-05   8.3943135e-08  -1.5958711e-06   2.1271482e-05  -1.2061130e-06   9.6261681e-07  -1.1002999e-05  -2.7743030e-05   2.5855696e-05  -3.3587828e-08   4.4624753e-06   2.7853373e-05  -5.1891766e-07   3.2182808e-05  -1.1520313e-05  -1.0544110e-05  -3.2447799e-05  -3.5410270e-05  -4.9381163e-07  -6.1506355e-05  -5.4806365e-05  -4.5150056e-05  -8.2154336e-05  -6.4792235e-05   2.9257642e-05
  -3.5638943e-05  -1.3012605e-05  -2.5225327e-05  -2.6501841e-05   2.2000495e-06  -5.3351009e-06   1.4954320e-05   2.0023704e-07  -2.1420756e-05  -8.1339713e-06  -5.3318749e-05  -5.1614330e-05  -4.3353411e-05  -2.5930078e-05  -5.0220788e-06  -1.1676865e-05  -2.3847300e-05   2.0972126e-07  -5.1018797e-05  -9.3758921e-05  -1.8366516e-04  -1.4458112e-04  -6.2901563e-05  -2.8725764e-05  -3.9126717e-05  -2.3714530e-05  -2.4155590e-06  -2.1197118e-06   1.7415770e-05  -6.5172810e-07   6.0452561e-07  -1.2860050e-05  -3.3742217e-05   2.4011410e-05  -1.8994896e-06   2.5103782e-06   2.4312121e-05  -8.4106887e-07   2.7029293e-05  -1.3242245e-05  -8.7592389e-06  -3.1624415e-05  -3.0963409e-05  -1.4105782e-06  -6.3873973e-05  -5.4410666e-05  -4.7898691e-05  -7.8442521e-05  -6.7581328e-05   2.9359100e-05
  -3.8237278e-05  -1.2793505e-05  -2.5260406e-05  -2.6187494e-05   1.0959420e-06  -8.9125660e-06   1.0934942e-05  -2.2068978e-06  -2.5556752e-05  -1.0067149e-05  -5.7844733e-05  -5.5559303e-05  -4.5853147e-05  -2.5107951e-05  -8.9403720e-06  -1.3213413e-05  -2.5628109e-05  -2.7399144e-06  -5.6665849e-05  -9.1978975e-05  -1.8424324e-04  -1.4439422e-04  -6.4234337e-05  -3.5070421e-05  -4.5261513e-05  -2.6241732e-05  -5.2592695e-06  -2.7808983e-06   1.2792715e-05  -2.6589157e-07  -2.4375774e-08  -1.4976634e-05  -4.0592146e-05   2.1807526e-05  -3.9463548e-06   1.3795521e-07   2.1768446e-05  -1.4377368e-06   2.2524691e-05  -1.5043591e-05  -7.1655145e-06  -3.1015687e-05  -2.6551385e-05  -2.0763609e-06  -6.5431901e-05  -5.3521104e-05  -5.0288447e-05  -7.4299387e-05  -6.9812864e-05   2.9404862e-05
  -4.0552619e-05  -1.2556613e-05  -2.5323010e-05  -2.5554074e-05  -1.1378861e-07  -1.2467193e-05   6.8312661e-06  -4.6454284e-06  -3.0598185e-05  -1.2921247e-05  -6.2389532e-05  -5.9771723e-05  -4.8216727e-05  -2.4408311e-05  -1.2986418e-05  -1.4900173e-05  -2.7188848e-05  -5.7723296e-06  -6.3284373e-05  -9.0432943e-05  -1.8481041e-04  -1.4417962e-04  -6.4777989e-05  -4.1277512e-05  -5.1062081e-05  -2.9012061e-05  -8.3676532e-06  -3.5259536e-06   7.4379309e-06  -3.1141610e-08  -9.1207096e-07  -1.7301700e-05  -4.7993261e-05   1.9334571e-05  -6.0916632e-06  -2.5277366e-06   2.0337238e-05  -2.3228820e-06   1.8812339e-05  -1.6909911e-05  -5.7435300e-06  -3.0502164e-05  -2.2136122e-05  -2.5184786e-06  -6.6261047e-05  -5.2210606e-05  -5.2147643e-05  -6.9833106e-05  -7.1408627e-05   2.9408337e-05
  -4.2514108e-05  -1.2334332e-05  -2.5393301e-05  -2.4711262e-05  -1.4101098e-06  -1.5886762e-05   2.7482890e-06  -7.0253632e-06  -3.6377354e-05  -1.6502319e-05  -6.6746332e-05  -6.4023174e-05  -5.0357521e-05  -2.3816505e-05  -1.7038865e-05  -1.6684302e-05  -2.8486476e-05  -8.8080960e-06  -7.0487280e-05  -8.9067013e-05  -1.8527360e-04  -1.4387815e-04  -6.4532520e-05  -4.7101250e-05  -5.6364890e-05  -3.1935360e-05  -1.1650750e-05  -4.3115542e-06   1.4197888e-06   6.6298547e-08  -2.0242708e-06  -1.9765650e-05  -5.5619148e-05   1.6690119e-05  -8.2588540e-06  -5.3438052e-06   2.0053547e-05  -3.4878335e-06   1.5981483e-05  -1.8817665e-05  -4.4874064e-06  -2.9988376e-05  -1.7712146e-05  -2.7747510e-06  -6.6425753e-05  -5.0559527e-05  -5.3320269e-05  -6.5151820e-05  -7.2304261e-05   2.9374101e-05
  -4.4057924e-05  -1.2165811e-05  -2.5452191e-05  -2.3777260e-05  -2.7625040e-06  -1.9081996e-05  -1.2004889e-06  -9.2695236e-06  -4.2689655e-05  -2.0573676e-05  -7.0702437e-05  -6.8063862e-05  -5.2196225e-05  -2.3321958e-05  -2.0975613e-05  -1.8512053e-05  -2.9482635e-05  -1.1764729e-05  -7.7850527e-05  -8.7806249e-05  -1.8550993e-04  -1.4341570e-04  -6.3528991e-05  -5.2302843e-05  -6.0999453e-05  -3.4894532e-05  -1.5010091e-05  -5.1059610e-06  -5.1490874e-06   3.8520714e-08  -3.3146298e-06  -2.2288988e-05  -6.3138104e-05   1.3976904e-05  -1.0372923e-05  -8.1636426e-06   2.0863552e-05  -4.9052924e-06   1.4073396e-05  -2.0737631e-05  -3.3995329e-06  -2.9407334e-05  -1.3302862e-05  -2.8938287e-06  -6.5965141e-05  -4.8653084e-05  -5.3670130e-05  -6.0363276e-05  -7.2450348e-05   2.9295075e-05
  -4.5135679e-05  -1.2095927e-05  -2.5475867e-05  -2.2866883e-05  -4.1435560e-06  -2.1983033e-05  -4.8999018e-06  -1.1315008e-05  -4.9311820e-05  -2.4867368e-05  -7.4058051e-05  -7.1645169e-05  -5.3667747e-05  -2.2915268e-05  -2.4684816e-05  -2.0324469e-05  -3.0140674e-05  -1.4557627e-05  -8.4936866e-05  -8.6565102e-05  -1.8539184e-04  -1.4270362e-04  -6.1817700e-05  -5.6668134e-05  -6.4811335e-05  -3.7759699e-05  -1.8349489e-05  -5.8908790e-06  -1.2118262e-05  -1.0536954e-07  -4.7216522e-06  -2.4785186e-05  -7.0226990e-05   1.1291259e-05  -1.2367451e-05  -1.0841489e-05   2.2643721e-05  -6.5317818e-06   1.3078780e-05  -2.2634953e-05  -2.4880328e-06  -2.8725153e-05  -8.9654122e-06  -2.9277696e-06  -6.4895568e-05  -4.6568515e-05  -5.3105116e-05  -5.5567896e-05  -7.1821880e-05   2.9154673e-05
  -4.5722736e-05  -1.2157279e-05  -2.5444695e-05  -2.2077571e-05  -5.5160326e-06  -2.4545823e-05  -8.2429997e-06  -1.3118117e-05  -5.6001700e-05  -2.9092891e-05  -7.6632437e-05  -7.4524090e-05  -5.4721462e-05  -2.2590042e-05  -2.8064998e-05  -2.2061269e-05  -3.0428864e-05  -1.7106286e-05  -9.1322647e-05  -8.5242740e-05  -1.8478266e-04  -1.4165445e-04  -5.9471640e-05  -6.0017814e-05  -6.7660359e-05  -4.0393108e-05  -2.1575548e-05  -6.6561183e-06  -1.9312331e-05  -3.5875604e-07  -6.1764372e-06  -2.7165295e-05  -7.6597324e-05   8.7255876e-06  -1.4183783e-05  -1.3241528e-05   2.5204597e-05  -8.3067625e-06   1.2941144e-05  -2.4469920e-05  -1.7683680e-06  -2.7944410e-05  -4.7814269e-06  -2.9285102e-06  -6.3209547e-05  -4.4377677e-05  -5.1573494e-05  -5.0861378e-05  -7.0416463e-05   2.8926754e-05
  -4.5812041e-05  -1.2383486e-05  -2.5340492e-05  -2.1481292e-05  -6.8426907e-06  -2.6750467e-05  -1.1133020e-05  -1.4653787e-05  -6.2513136e-05  -3.2968510e-05  -7.8282523e-05  -7.6493561e-05  -5.5326145e-05  -2.2340171e-05  -3.1029595e-05  -2.3666495e-05  -3.0327827e-05  -1.9337747e-05  -9.6617594e-05  -8.3744846e-05  -1.8355345e-04  -1.4017361e-04  -5.6584511e-05  -6.2222876e-05  -6.9434558e-05  -4.2659671e-05  -2.4604895e-05  -7.4025506e-06  -2.6532047e-05  -7.1155273e-07  -7.6021684e-06  -2.9341607e-05  -8.2003848e-05   6.3569105e-06  -1.5774560e-05  -1.5248066e-05   2.8311530e-05  -1.0162885e-05   1.3567900e-05  -2.6203743e-05  -1.2567339e-06  -2.7101481e-05  -8.4848017e-07  -2.9465918e-06  -6.0885413e-05  -4.2139407e-05  -4.9080940e-05  -4.6322919e-05  -6.8263544e-05   2.8583132e-05
  -4.5415341e-05  -1.2791846e-05  -2.5144647e-05  -2.1118647e-05  -8.0853570e-06  -2.8596745e-05  -1.3484769e-05  -1.5910089e-05  -6.8604713e-05  -3.6222038e-05  -7.8905519e-05  -7.7387267e-05  -5.5467095e-05  -2.2160768e-05  -3.3505097e-05  -2.5084575e-05  -2.9822835e-05  -2.1189175e-05  -1.0048386e-04  -8.1978957e-05  -1.8159569e-04  -1.3818222e-04  -5.3267187e-05  -6.3206433e-05  -7.0055481e-05  -4.4439628e-05  -2.7363594e-05  -8.1333292e-06  -3.3565542e-05  -1.1593741e-06  -8.9206351e-06  -3.1236679e-05  -8.6261665e-05   4.2483071e-06  -1.7096561e-05  -1.6764499e-05   3.1711581e-05  -1.2023286e-05   1.4839747e-05  -2.7794056e-05  -9.6410497e-07  -2.6258384e-05   2.7311696e-06  -3.0241360e-06  -5.7892150e-05  -3.9898248e-05  -4.5686043e-05  -4.2022890e-05  -6.5424669e-05   2.8089355e-05
  -4.4571087e-05  -1.3379468e-05  -2.4842262e-05  -2.0992127e-05  -9.2063947e-06  -3.0102043e-05  -1.5238797e-05  -1.6892509e-05  -7.4045092e-05  -3.8627437e-05  -7.8447258e-05  -7.7094206e-05  -5.5140452e-05  -2.2041299e-05  -3.5436511e-05  -2.6266236e-05  -2.8910714e-05  -2.2611988e-05  -1.0265069e-04  -7.9864163e-05  -1.7882849e-04  -1.3561299e-04  -4.9639508e-05  -6.2953062e-05  -6.9492824e-05  -4.5635064e-05  -2.9789946e-05  -8.8529769e-06  -4.0196679e-05  -1.6873156e-06  -1.0061861e-05  -3.2781747e-05  -8.9251545e-05   2.4414435e-06  -1.8114722e-05  -1.7723596e-05   3.5152378e-05  -1.3810622e-05   1.6626462e-05  -2.9202814e-05  -8.9415903e-07  -2.5492482e-05   5.8548908e-06  -3.1949351e-06  -5.4199652e-05  -3.7681271e-05  -4.1500622e-05  -3.8013270e-05  -6.1991967e-05   2.7417527e-05
  -4.3330554e-05  -1.4127803e-05  -2.4422257e-05  -2.1065231e-05  -1.0174210e-05  -3.1286650e-05  -1.6354179e-05  -1.7614964e-05  -7.8626159e-05  -3.9999079e-05  -7.6913071e-05  -7.5567157e-05  -5.4363602e-05  -2.1973548e-05  -3.6786183e-05  -2.7171291e-05  -2.7601107e-05  -2.3569968e-05  -1.0292717e-04  -7.7336583e-05  -1.7520603e-04  -1.3241913e-04  -4.5827561e-05  -6.1498817e-05  -6.7760600e-05  -4.6178073e-05  -3.1838576e-05  -9.5646465e-06  -4.6217931e-05  -2.2806501e-06  -1.0955932e-05  -3.3921919e-05  -9.0919275e-05   9.6711085e-07  -1.8801225e-05  -1.8082741e-05   3.8408583e-05  -1.5451489e-05   1.8800869e-05  -3.0394924e-05  -1.0385257e-06  -2.4889574e-05   8.4411222e-06  -3.4805546e-06  -4.9787348e-05  -3.5495465e-05  -3.6683603e-05  -3.4331129e-05  -5.8082402e-05   2.6546903e-05
  -4.1763982e-05  -1.4994444e-05  -2.3869961e-05  -2.1265483e-05  -1.0959746e-05  -3.2179083e-05  -1.6812239e-05  -1.8095621e-05  -8.2160113e-05  -4.0220038e-05  -7.4355754e-05  -7.2830371e-05  -5.3164495e-05  -2.1942245e-05  -3.7529240e-05  -2.7763663e-05  -2.5915375e-05  -2.4045161e-05  -1.0120689e-04  -7.4355601e-05  -1.7072723e-04  -1.2858206e-04  -4.1959847e-05  -5.8942107e-05  -6.4918488e-05  -4.6035791e-05  -3.3476474e-05  -1.0260442e-05  -5.1435218e-05  -2.9138778e-06  -1.1548967e-05  -3.4618904e-05  -9.1283226e-05  -1.6965156e-07  -1.9128094e-05  -1.7828617e-05   4.1304324e-05  -1.6878728e-05   2.1250828e-05  -3.1336800e-05  -1.3738545e-06  -2.4527639e-05   1.0430647e-05  -3.8958356e-06  -4.4656852e-05  -3.3333403e-05  -3.1432424e-05  -3.0998068e-05  -5.3842770e-05   2.5467840e-05
  -3.9943443e-05  -1.5915888e-05  -2.3171064e-05  -2.1485030e-05  -1.1537158e-05  -3.2799937e-05  -1.6617878e-05  -1.8354174e-05  -8.4490624e-05  -3.9230537e-05  -7.0876544e-05  -6.8973401e-05  -5.1573701e-05  -2.1928465e-05  -3.7658865e-05  -2.8017355e-05  -2.3883927e-05  -2.4035036e-05  -9.7469958e-05  -7.0906688e-05  -1.6543511e-04  -1.2410921e-04  -3.8159589e-05  -5.5420580e-05  -6.1075923e-05  -4.5215198e-05  -3.4681470e-05  -1.0919780e-05  -5.5681783e-05  -3.5564476e-06  -1.1796166e-05  -3.4851480e-05  -9.0419766e-05  -9.7289876e-07  -1.9070732e-05  -1.6970238e-05   4.3730081e-05  -1.8035213e-05   2.3893206e-05  -3.2002165e-05  -1.8608903e-06  -2.4469835e-05   1.1804612e-05  -4.4397184e-06  -3.8831109e-05  -3.1165968e-05  -2.5964189e-05  -2.8019802e-05  -4.9432907e-05   2.4187633e-05
  -3.7946291e-05  -1.6811447e-05  -2.2312006e-05  -2.1595150e-05  -1.1890815e-05  -3.3160864e-05  -1.5795933e-05  -1.8410445e-05  -8.5495500e-05  -3.7043046e-05  -6.6618210e-05  -6.4153566e-05  -4.9638031e-05  -2.1910068e-05  -3.7179772e-05  -2.7917260e-05  -2.1552645e-05  -2.3554141e-05  -9.1780159e-05  -6.7002664e-05  -1.5941517e-04  -1.1903665e-04  -3.4537188e-05  -5.1109884e-05  -5.6378562e-05  -4.3761316e-05  -3.5440495e-05  -1.1512200e-05  -5.8821435e-05  -4.1694607e-06  -1.1670742e-05  -3.4612196e-05  -8.8456945e-05  -1.4613154e-06  -1.8606128e-05  -1.5536880e-05   4.5653331e-05  -1.8877272e-05   2.6677144e-05  -3.2371339e-05  -2.4393789e-06  -2.4752091e-05   1.2586089e-05  -5.1035972e-06  -3.2366537e-05  -2.8953829e-05  -2.0510686e-05  -2.5384779e-05  -4.5022167e-05   2.2723885e-05
  -3.5841451e-05  -1.7579996e-05  -2.1278767e-05  -2.1450898e-05  -1.2008972e-05  -3.3260512e-05  -1.4385680e-05  -1.8274588e-05  -8.5085820e-05  -3.3732063e-05  -6.1757477e-05  -5.8578538e-05  -4.7400936e-05  -2.1858265e-05  -3.6108257e-05  -2.7458655e-05  -1.8968778e-05  -2.2629687e-05  -8.4272840e-05  -6.2681131e-05  -1.5279537e-04  -1.1342957e-04  -3.1186501e-05  -4.6205812e-05  -5.1006613e-05  -4.1753639e-05  -3.5753383e-05  -1.1992076e-05  -6.0756018e-05  -4.7048370e-06  -1.1158909e-05  -3.3913722e-05  -8.5561711e-05  -1.6590293e-06  -1.7711036e-05  -1.3573951e-05   4.7123147e-05  -1.9377772e-05   2.9594692e-05  -3.2427706e-05  -3.0376025e-06  -2.5375482e-05   1.2836391e-05  -5.8645601e-06  -2.5348199e-05  -2.6644111e-05  -1.5294660e-05  -2.3066745e-05  -4.0780142e-05   2.1115395e-05
  -3.3691736e-05  -1.8112976e-05  -2.0054362e-05  -2.0904021e-05  -1.1887561e-05  -3.3080192e-05  -1.2440864e-05  -1.7946419e-05  -8.3209234e-05  -2.9428353e-05  -5.6485311e-05  -5.2501659e-05  -4.4909819e-05  -2.1744478e-05  -3.4472094e-05  -2.6645492e-05  -1.6190543e-05  -2.1304155e-05  -7.5152282e-05  -5.8006175e-05  -1.4573580e-04  -1.0737684e-04  -2.8179576e-05  -4.0913113e-05  -4.5163990e-05  -3.9300066e-05  -3.5619254e-05  -1.2299029e-05  -6.1428487e-05  -5.1116053e-06  -1.0265609e-05  -3.2779160e-05  -8.1930229e-05  -1.6009263e-06  -1.6367270e-05  -1.1133678e-05   4.8261165e-05  -1.9520296e-05   3.2675016e-05  -3.2161741e-05  -3.5663497e-06  -2.6308135e-05   1.2668184e-05  -6.6953257e-06  -1.7895836e-05  -2.4179340e-05  -1.0518709e-05  -2.1026781e-05  -3.6868765e-05   1.9410725e-05
  -3.1535532e-05  -1.8299716e-05  -1.8623161e-05  -1.9818805e-05  -1.1529663e-05  -3.2585376e-05  -1.0021678e-05  -1.7418186e-05  -7.9853344e-05  -2.4311197e-05  -5.1002004e-05  -4.6201196e-05  -4.2208769e-05  -2.1537189e-05  -3.2309901e-05  -2.5490530e-05  -1.3281732e-05  -1.9626696e-05  -6.4671716e-05  -5.3056898e-05  -1.3842106e-04  -1.0098881e-04  -2.5561718e-05  -3.5430839e-05  -3.9061248e-05  -3.6530699e-05  -3.5046753e-05  -1.2365650e-05  -6.0827537e-05  -5.3332619e-06  -9.0056556e-06  -3.1246567e-05  -7.7760873e-05  -1.3177416e-06  -1.4557721e-05  -8.2737415e-06   4.9257953e-05  -1.9309280e-05   3.5980353e-05  -3.1569165e-05  -3.9293750e-06  -2.7480643e-05   1.2220659e-05  -7.5560893e-06  -1.0154902e-05  -2.1498003e-05  -6.3517646e-06  -1.9209447e-05  -3.3429093e-05   1.7673796e-05
  -2.9391484e-05  -1.8031451e-05  -1.6968204e-05  -1.8080829e-05  -1.0942297e-05  -3.1728876e-05  -7.1910363e-06  -1.6670368e-05  -7.5041302e-05  -1.8589812e-05  -4.5498975e-05  -3.9961797e-05  -3.9342842e-05  -2.1204485e-05  -2.9664672e-05  -2.4015882e-05  -1.0302457e-05  -1.7660272e-05  -5.3124084e-05  -4.7938396e-05  -1.3104279e-04  -9.4385054e-05  -2.3354192e-05  -2.9941086e-05  -3.2908920e-05  -3.3586639e-05  -3.4045272e-05  -1.2119902e-05  -5.8982452e-05  -5.3166445e-06  -7.4126533e-06  -2.9363155e-05  -7.3256349e-05  -8.4253702e-07  -1.2273762e-05  -5.0521107e-06   5.0348222e-05  -1.8761066e-05   3.9593571e-05  -3.0650306e-05  -4.0273067e-06  -2.8792445e-05   1.1667750e-05  -8.4037029e-06  -2.2907652e-06  -1.8543611e-05  -2.9176210e-06  -1.7552460e-05  -3.0574862e-05   1.5969439e-05
  -2.7260330e-05  -1.7213397e-05  -1.5077347e-05  -1.5608346e-05  -1.0139745e-05  -3.0452815e-05  -4.0095092e-06  -1.5671680e-05  -6.8835609e-05  -1.2487078e-05  -4.0153176e-05  -3.4058623e-05  -3.6349295e-05  -2.0716867e-05  -2.6589625e-05  -2.2254295e-05  -7.3173028e-06  -1.5468753e-05  -4.0823557e-05  -4.2759701e-05  -1.2379693e-04  -8.7694374e-05  -2.1543816e-05  -2.4596089e-05  -2.6902806e-05  -3.0606134e-05  -3.2624339e-05  -1.1490281e-05  -5.5970857e-05  -5.0102080e-06  -5.5256583e-06  -2.7183853e-05  -6.8594723e-05  -2.0188649e-07  -9.5162777e-06  -1.5184038e-06   5.1790114e-05  -1.7900851e-05   4.3610813e-05  -2.9412233e-05  -3.7628483e-06  -3.0122559e-05   1.1194011e-05  -9.1875627e-06   5.5110181e-06  -1.5267502e-05  -2.9363878e-07  -1.5988791e-05  -2.8386365e-05   1.4367110e-05
  -2.5113344e-05  -1.5768044e-05  -1.2940373e-05  -1.2358241e-05  -9.1397669e-06  -2.8698358e-05  -5.3454414e-07  -1.4388116e-05  -6.1335304e-05  -6.2325134e-06  -3.5107696e-05  -2.8736251e-05  -3.3263463e-05  -2.0050511e-05  -2.3145627e-05  -2.0242755e-05  -4.3822170e-06  -1.3120591e-05  -2.8097076e-05  -3.7635269e-05  -1.1686196e-04  -8.1041049e-05  -2.0097217e-05  -1.9509758e-05  -2.1212218e-05  -2.7720856e-05  -3.0796469e-05  -1.0414051e-05  -5.1901832e-05  -4.3707837e-06  -3.3948288e-06  -2.4767680e-05  -6.3931016e-05   5.8369216e-07  -6.2999002e-06   2.2817048e-06   5.3833592e-05  -1.6770460e-05   4.8116126e-05  -2.7866396e-05  -3.0516258e-06  -3.1334479e-05   1.0984439e-05  -9.8582386e-06   1.3064215e-05  -1.1636749e-05   1.4975839e-06  -1.4445019e-05  -2.6901151e-05   1.2927856e-05
  -2.2904038e-05  -1.3652317e-05  -1.0554613e-05  -8.3368932e-06  -7.9635211e-06  -2.6410822e-05   3.1859233e-06  -1.2780804e-05  -5.2679097e-05  -3.6881584e-08  -3.0473475e-05  -2.4198225e-05  -3.0117415e-05  -1.9189805e-05  -1.9400468e-05  -1.8029008e-05  -1.5485936e-06  -1.0685548e-05  -1.5262460e-05  -3.2686068e-05  -1.1039227e-04  -7.4538933e-05  -1.8955985e-05  -1.4762911e-05  -1.5975944e-05  -2.5036048e-05  -2.8579827e-05  -8.8388897e-06  -4.6928828e-05  -3.3706299e-06  -1.0762820e-06  -2.2180442e-05  -5.9381571e-05   1.4998081e-06  -2.6557614e-06   6.3091957e-06   5.6698584e-05  -1.5412934e-05   5.3171701e-05  -2.6028250e-05  -1.8286603e-06  -3.2298107e-05   1.1207136e-05  -1.0365747e-05   2.0184025e-05  -7.6372507e-06   2.4819708e-06  -1.2851147e-05  -2.6122420e-05   1.1702671e-05
  -2.0568898e-05  -1.0852720e-05  -7.9207039e-06  -3.6010970e-06  -6.6345933e-06  -2.3547322e-05   7.1130785e-06  -1.0815019e-05  -4.3038432e-05   5.9114350e-06  -2.6321115e-05  -2.0586182e-05  -2.6937430e-05  -1.8124685e-05  -1.5426345e-05  -1.5661903e-05   1.1374902e-06  -8.2286224e-06  -2.6277191e-06  -2.8022214e-05  -1.0450252e-04  -6.8283996e-05  -1.8044651e-05  -1.0386456e-05  -1.1289669e-05  -2.2632115e-05  -2.5991778e-05  -6.7388587e-06  -4.1223615e-05  -1.9953166e-06   1.3687173e-06  -1.9486401e-05  -5.5023276e-05   2.5353711e-06   1.3668514e-06   1.0530933e-05   6.0545375e-05  -1.3878256e-05   5.8797243e-05  -2.3922661e-05  -5.0202203e-08  -3.2894015e-05   1.1998915e-05  -1.0665471e-05   2.6697682e-05  -3.2765602e-06   2.7304300e-06  -1.1145416e-05  -2.6008956e-05   1.0730502e-05
  -1.8037148e-05  -7.3888541e-06  -5.0554136e-06   1.7493264e-06  -5.1799093e-06  -2.0088701e-05   1.1214561e-05  -8.4649128e-06  -3.2619810e-05   1.1459564e-05  -2.2681957e-05  -1.7978575e-05  -2.3752629e-05  -1.6855369e-05  -1.1305473e-05  -1.3194341e-05   3.6409515e-06  -5.8145461e-06   9.5281930e-06  -2.3745702e-05  -9.9269331e-05  -6.2351595e-05  -1.7278151e-05  -6.3794168e-06  -7.2067496e-06  -2.0556343e-05  -2.3059201e-05  -4.1101298e-06  -3.4986104e-05  -2.5003206e-07   3.8815278e-06  -1.6750677e-05  -5.0893243e-05   3.6886338e-06   5.6945037e-06   1.4913881e-05   6.5454391e-05  -1.2221120e-05   6.4958476e-05  -2.1581764e-05   2.2926579e-06  -3.3030534e-05   1.3457778e-05  -1.0719975e-05   3.2449494e-05   1.4067269e-06   2.3437181e-06  -9.2787477e-06  -2.6489210e-05   1.0023310e-05
  -1.5232463e-05  -3.3251017e-06  -1.9801103e-06   7.5703947e-06  -3.6278961e-06  -1.6042008e-05   1.5465270e-05  -5.7140496e-06  -2.1658914e-05   1.6500075e-05  -1.9553787e-05  -1.6385844e-05  -2.0591115e-05  -1.5394338e-05  -7.1209138e-06  -1.0684659e-05   5.9341633e-06  -3.4997984e-06   2.0952933e-05  -1.9945684e-05  -9.4716474e-05  -5.6789861e-05  -1.6574431e-05  -2.7110868e-06  -3.7342720e-06  -1.8815485e-05  -1.9814535e-05  -9.8162479e-07  -2.8429855e-05   1.8393824e-06   6.3981352e-06  -1.4034978e-05  -4.6990026e-05   4.9579335e-06   1.0234818e-05   1.9424739e-05   7.1406430e-05  -1.0493950e-05   7.1551483e-05  -1.9044122e-05   5.1739607e-06  -3.2650911e-05   1.5622731e-05  -1.0503974e-05   3.7309146e-05   6.3490234e-06   1.4499135e-06  -7.2177450e-06  -2.7452999e-05   9.5789574e-06
  -1.2094335e-05   1.2427442e-06   1.2684936e-06   1.3678706e-05  -2.0019763e-06  -1.1448547e-05   1.9845855e-05  -2.5698596e-06  -1.0415311e-05   2.0969364e-05  -1.6899821e-05  -1.5750926e-05  -1.7480477e-05  -1.3765516e-05  -2.9611663e-06  -8.1877461e-06   7.9973761e-06  -1.3342828e-06   3.1434709e-05  -1.6693231e-05  -9.0825240e-05  -5.1618059e-05  -1.5854221e-05   6.7359133e-07  -8.5075794e-07  -1.7381661e-05  -1.6299184e-05   2.5877969e-06  -2.1767020e-05   4.2227325e-06   8.8608485e-06  -1.1401045e-05  -4.3286658e-05   6.3398502e-06   1.4873634e-05   2.4020579e-05   7.8274454e-05  -8.7469289e-06   7.8407160e-05  -1.6360498e-05   8.5325219e-06  -3.1745822e-05   1.8478437e-05  -1.0011758e-05   4.1174961e-05   1.1457170e-05   1.7887785e-07  -4.9530508e-06  -2.8776200e-05   9.3678036e-06
  -8.5729152e-06   6.1819915e-06   4.6432147e-06   1.9872879e-05  -3.3337949e-07  -6.3892912e-06   2.4332463e-05   9.4499768e-07   8.2814631e-07   2.4845371e-05  -1.4664760e-05  -1.5958949e-05  -1.4456896e-05  -1.2001586e-05   1.0800529e-06  -5.7606553e-06   9.8179953e-06   6.3624998e-07   4.0794806e-05  -1.4039578e-05  -8.7532688e-05  -4.6831647e-05  -1.5055138e-05   3.8385324e-06   1.5070146e-06  -1.6197175e-05  -1.2569136e-05   6.5083455e-06  -1.5212403e-05   6.8325253e-06   1.1209039e-05  -8.9041250e-06  -3.9727754e-05   7.8324774e-06   1.9476154e-05   2.8647153e-05   8.5824780e-05  -7.0291999e-06   8.5279236e-05  -1.3586306e-05   1.2269378e-05  -3.0354060e-05   2.1946529e-05  -9.2550063e-06   4.3971686e-05   1.6609900e-05  -1.3371081e-06  -2.4998869e-06  -3.0317109e-05   9.3395265e-06
  -4.6454834e-06   1.1333960e-05   8.0889195e-06   2.5933556e-05   1.3499265e-06  -9.8224780e-07   2.8900478e-05   4.7795579e-06   1.1779081e-05   2.8145956e-05  -1.2776939e-05  -1.6839489e-05  -1.1551640e-05  -1.0142442e-05   4.9130044e-06  -3.4589548e-06   1.1388761e-05   2.3800051e-06   4.8892503e-05  -1.2022188e-05  -8.4733663e-05  -4.2399261e-05  -1.4137408e-05   6.8475856e-06   3.4164379e-06  -1.5174222e-05  -8.6849259e-06   1.0658124e-05  -8.9659834e-06   9.5817477e-06   1.3392066e-05  -6.5950067e-06  -3.6256850e-05   9.4230163e-06   2.3897404e-05   3.3234934e-05   9.3719442e-05  -5.3849153e-06   9.1858288e-05  -1.0791815e-05   1.6254133e-05  -2.8555276e-05   2.5892827e-05  -8.2709621e-06   4.5656045e-05   2.1663831e-05  -2.9895318e-06   1.0601671e-07  -3.1932239e-05   9.4317429e-06
  -3.1885938e-07   1.6519260e-05   1.1541065e-05   3.1643511e-05   3.0221065e-06   4.6161008e-06   3.3513406e-05   8.8595489e-06   2.2136051e-05   3.0916726e-05  -1.1167836e-05  -1.8197417e-05  -8.8091365e-06  -8.2406441e-06   8.4477670e-06  -1.3313143e-06   1.2712618e-05   3.8662611e-06   5.5623241e-05  -1.0654227e-05  -8.2302919e-05  -3.8271606e-05  -1.3087615e-05   9.7546190e-06   4.9678329e-06  -1.4213110e-05  -4.7227618e-06   1.4897770e-05  -3.2085591e-06   1.2367390e-05   1.5359941e-05  -4.5186875e-06  -3.2815064e-05   1.1093726e-05   2.7979690e-05   3.7690046e-05   1.0153942e-04  -3.8541657e-06   9.7786331e-05  -8.0512336e-06   2.0324294e-05  -2.6480307e-05   3.0129600e-05  -7.1222635e-06   4.6208610e-05   2.6454865e-05  -4.6932960e-06   2.7995331e-06  -3.3484284e-05   9.5656596e-06
   4.3592236e-06   2.1548054e-05   1.4925011e-05   3.6796006e-05   4.6554483e-06   1.0217319e-05   3.8123817e-05   1.3087450e-05   3.1603358e-05   3.3222877e-05  -9.7725906e-06  -1.9810499e-05  -6.2758004e-06  -6.3476937e-06   1.1600756e-05   5.7554394e-07   1.3785801e-05   5.0785484e-06   6.0913419e-05  -9.9321060e-06  -8.0095473e-05  -3.4384349e-05  -1.1918882e-05   1.2593952e-05   6.2531967e-06  -1.3202809e-05  -7.6649792e-07   1.9068826e-05   1.9028211e-06   1.5078669e-05   1.7065959e-05  -2.7146593e-06  -2.9354829e-05   1.2813203e-05   3.1570587e-05   4.1902222e-05   1.0880470e-04  -2.4719093e-06   1.0266949e-04  -5.4509524e-06   2.4301999e-05  -2.4285115e-05   3.4436820e-05  -5.8961646e-06   4.5633944e-05   3.0809832e-05  -6.3951775e-06   5.4950096e-06  -3.4852237e-05   9.6610356e-06
   9.3047611e-06   2.6230611e-05   1.8166342e-05   4.1210631e-05   6.2204012e-06   1.5607633e-05   4.2665004e-05   1.7342996e-05   3.9894949e-05   3.5139165e-05  -8.5476804e-06  -2.1466203e-05  -4.0025507e-06  -4.5203114e-06   1.4296803e-05   2.2223703e-06   1.4614323e-05   6.0033967e-06   6.4719650e-05  -9.8336495e-06  -7.7964090e-05  -3.0668969e-05  -1.0678386e-05   1.5370029e-05   7.3523597e-06  -1.2040021e-05   3.0921633e-06   2.3003588e-05   6.2439808e-06   1.7601804e-05   1.8472927e-05  -1.2144740e-06  -2.5852636e-05   1.4539675e-05   3.4516215e-05   4.5740337e-05   1.1500629e-04  -1.2708724e-06   1.0610368e-04  -3.0814629e-06   2.7997803e-05  -2.2152955e-05   3.8569673e-05  -4.7058647e-06   4.3956705e-05   3.4549867e-05  -8.0825012e-06   8.0916825e-06  -3.5935263e-05   9.6358017e-06
   1.4399419e-05   3.0383397e-05   2.1184098e-05   4.4735527e-05   7.6912856e-06   2.0554729e-05   4.7052683e-05   2.1489184e-05   4.6751113e-05   3.6734276e-05  -7.4637805e-06  -2.2956769e-05  -2.0402263e-06  -2.8150587e-06   1.6467486e-05   3.5758528e-06   1.5198409e-05   6.6363596e-06   6.7024943e-05  -1.0316612e-05  -7.5772346e-05  -2.7060480e-05  -9.4362586e-06   1.8059549e-05   8.3237519e-06  -1.0632710e-05   6.7555584e-06   2.6539887e-05   9.7234470e-06   1.9821928e-05   1.9546582e-05  -4.0427111e-08  -2.2314516e-05   1.6220820e-05   3.6685120e-05   4.9057664e-05   1.1964366e-04  -2.7792814e-07   1.0770824e-04  -1.0376083e-06   3.1220847e-05  -2.0269541e-05   4.2275875e-05  -3.6887420e-06   4.1217627e-05   3.7503349e-05  -9.7746861e-06   1.0479232e-05  -3.6661630e-05   9.4216211e-06
   1.9484218e-05   3.3840159e-05   2.3906017e-05   4.7263129e-05   9.0384210e-06   2.4825113e-05   5.1184932e-05   2.5374584e-05   5.1939918e-05   3.8064463e-05  -6.5270606e-06  -2.4115261e-05  -4.4235756e-07  -1.2812768e-06   1.8063056e-05   4.6075347e-06   1.5540367e-05   6.9775338e-06   6.7835215e-05  -1.1329894e-05  -7.3401279e-05  -2.3501572e-05  -8.2854167e-06   2.0611966e-05   9.2037144e-06  -8.9154200e-06   1.0129552e-05   2.9524046e-05   1.2281185e-05   2.1636666e-05   2.0258978e-05   7.9349269e-07  -1.8776369e-05   1.7788865e-05   3.7965990e-05   5.1697913e-05   1.2225634e-04   4.8305981e-07   1.0714268e-04   5.8429566e-07   3.3794724e-05  -1.8810359e-05   4.5322518e-05  -2.9951509e-06   3.7469188e-05   3.9512164e-05  -1.1523446e-05   1.2544397e-05  -3.6987465e-05   8.9595887e-06
   2.4382280e-05   3.6468595e-05   2.6257370e-05   4.8732225e-05   1.0233461e-05   2.8189879e-05   5.4941309e-05   2.8849456e-05   5.5276381e-05   3.9166032e-05  -5.7602356e-06  -2.4808765e-05   7.4064394e-07   3.2571347e-08   1.9048906e-05   5.2984169e-06   1.5637917e-05   7.0348406e-06   6.7176181e-05  -1.2803037e-05  -7.0767172e-05  -1.9944895e-05  -7.3331003e-06   2.2945502e-05   9.9933604e-06  -6.8531226e-06   1.3120881e-05   3.1827076e-05   1.3900173e-05   2.2958204e-05   2.0592941e-05   1.2801870e-06  -1.5310572e-05   1.9172217e-05   3.8280254e-05   5.3504140e-05   1.2247024e-04   9.9073316e-07   1.0414077e-04   1.6931185e-06   3.5565448e-05  -1.7926863e-05   4.7504484e-05  -2.7881508e-06   3.2778302e-05   4.0443385e-05  -1.3402607e-05   1.4177002e-05  -3.6903039e-05   8.2189454e-06
   2.8893526e-05   3.8164868e-05   2.8177787e-05   4.9122937e-05   1.1248373e-05   3.0443756e-05   5.8190693e-05   3.1761043e-05   5.6623976e-05   4.0050363e-05  -5.2149530e-06  -2.4959170e-05   1.4654278e-06   1.0858207e-06   1.9406354e-05   5.6368672e-06   1.5490798e-05   6.8186164e-06   6.5098291e-05  -1.4661781e-05  -6.7819827e-05  -1.6372251e-05  -6.6908838e-06   2.4964995e-05   1.0671188e-05  -4.4439953e-06   1.5645053e-05   3.3345554e-05   1.4594210e-05   2.3718227e-05   2.0535716e-05   1.4232028e-06  -1.2017464e-05   2.0289015e-05   3.7582795e-05   5.4328386e-05   1.2001477e-04   1.2265501e-06   9.8532022e-05   2.2026838e-06   3.6410696e-05  -1.7729706e-05   4.8665544e-05  -3.2307644e-06   2.7222513e-05   4.0198571e-05  -1.5498550e-05   1.5285528e-05  -3.6421734e-05   7.1900740e-06
   3.2818960e-05   3.8872255e-05   2.9613422e-05   4.8467537e-05   1.2055890e-05   3.1411560e-05   6.0791161e-05   3.3968903e-05   5.5910146e-05   4.0695781e-05  -4.9512482e-06  -2.4536614e-05   1.6951187e-06   1.8527386e-06   1.9138195e-05   5.6168237e-06   1.5097066e-05   6.3449656e-06   6.1669933e-05  -1.6814671e-05  -6.4549313e-05  -1.2779896e-05  -6.4644905e-06   2.6558831e-05   1.1180860e-05  -1.7240955e-06   1.7631268e-05   3.4014665e-05   1.4406342e-05   2.3873836e-05   2.0086442e-05   1.2336268e-06  -9.0235853e-06   2.1061116e-05   3.5871868e-05   5.4042182e-05   1.1475622e-04   1.1774951e-06   9.0260110e-05   2.0374709e-06   3.6246478e-05  -1.8279909e-05   4.8709117e-05  -4.4770904e-06   2.0889893e-05   3.8718423e-05  -1.7894063e-05   1.5796304e-05  -3.5583529e-05   5.8924893e-06
   3.5962097e-05   3.8575421e-05   3.0527015e-05   4.6834448e-05   1.2629225e-05   3.0965850e-05   6.2602572e-05   3.5350877e-05   5.3128009e-05   4.1062005e-05  -5.0472881e-06  -2.3563953e-05   1.4085957e-06   2.3112423e-06   1.8268593e-05   5.2437713e-06   1.4451814e-05   5.6331246e-06   5.6986137e-05  -1.9165704e-05  -6.0992359e-05  -9.1901984e-06  -6.7458336e-06   2.7619366e-05   1.1452013e-05   1.2361888e-06   1.9028419e-05   3.3805096e-05   1.3412993e-05   2.3407631e-05   1.9251160e-05   7.3532402e-07  -6.4696369e-06   2.1409011e-05   3.3188306e-05   5.2548457e-05   1.0670809e-04   8.3143345e-07   7.9393831e-05   1.1394540e-06   3.5042300e-05  -1.9576975e-05   4.7609847e-05  -6.6620423e-06   1.3888472e-05   3.5989877e-05  -2.0662112e-05   1.5669028e-05  -3.4444776e-05   4.3687514e-06
   3.8155802e-05   3.7306705e-05   3.0898256e-05   4.4333676e-05   1.2946232e-05   2.9032499e-05   6.3493717e-05   3.5811798e-05   4.8343940e-05   4.1084750e-05  -5.5695255e-06  -2.2111166e-05   6.0541271e-07   2.4529081e-06   1.6839500e-05   4.5295114e-06   1.3558253e-05   4.7056037e-06   5.1166116e-05  -2.1615850e-05  -5.7212092e-05  -5.6452227e-06  -7.6003562e-06   2.8053531e-05   1.1398793e-05   4.3346527e-06   1.9803038e-05   3.2734824e-05   1.1707838e-05   2.2334640e-05   1.8049248e-05  -4.4653593e-08  -4.4996441e-06   2.1261945e-05   2.9611536e-05   4.9790193e-05   9.6038166e-05   1.8333728e-07   6.6125816e-05  -5.3320804e-07   3.2806915e-05  -2.1561224e-05   4.5410299e-05  -9.8899500e-06   6.3412881e-06   3.2052099e-05  -2.3846744e-05   1.4889324e-05  -3.3066790e-05   2.6885195e-06
   3.9265909e-05   3.5142173e-05   3.0724390e-05   4.1098712e-05   1.2987922e-05   2.5600661e-05   6.3351858e-05   3.5289886e-05   4.1699805e-05   4.0688617e-05  -6.5766681e-06  -2.0285905e-05  -7.0329980e-07   2.2829818e-06   1.4912535e-05   3.4926472e-06   1.2420499e-05   3.5884575e-06   4.4356835e-05  -2.4057235e-05  -5.3308908e-05  -2.2028630e-06  -9.0547555e-06   2.7788823e-05   1.0935945e-05   7.4454938e-06   1.9944700e-05   3.0854917e-05   9.4108555e-06   2.0691845e-05   1.6511347e-05  -1.0678651e-06  -3.2526716e-06   2.0562424e-05   2.5264559e-05   4.5762343e-05   8.3054794e-05  -7.6691481e-07   5.0774499e-05  -2.9970452e-06   2.9604029e-05  -2.4116342e-05   4.2226082e-05  -1.4226583e-05  -1.6052085e-06   2.6990896e-05  -2.7452814e-05   1.3488813e-05  -3.1520161e-05   9.3706529e-07
   3.9206068e-05   3.2199394e-05   3.0020716e-05   3.7286336e-05   1.2739075e-05   2.0722904e-05   6.2089472e-05   3.3759065e-05   3.3409891e-05   3.9792732e-05  -8.0988711e-06  -1.8216619e-05  -2.4743822e-06   1.8146707e-06   1.2567224e-05   2.1606545e-06   1.1047185e-05   2.3134219e-06   3.6740021e-05  -2.6378217e-05  -4.9404563e-05   1.0651221e-06  -1.1096159e-05   2.6790365e-05   9.9873341e-06   1.0434269e-05   1.9473118e-05   2.8259521e-05   6.6488851e-06   1.8544715e-05   1.4677617e-05  -2.2875181e-06  -2.8409256e-06   1.9275147e-05   2.0300489e-05   4.0511844e-05   6.8196066e-05  -2.0109796e-06   3.3762575e-05  -6.2468480e-06   2.5537935e-05  -2.7072019e-05   3.8227805e-05  -1.9688243e-05  -9.7832653e-06   2.0945010e-05  -3.1442170e-05   1.1525029e-05  -2.9861027e-05  -7.8895158e-07
   3.7948652e-05   2.8631823e-05   2.8824219e-05   3.3062104e-05   1.2195905e-05   1.4519506e-05   5.9657381e-05   3.1230895e-05   2.3757873e-05   3.8325910e-05  -1.0138847e-05  -1.6045438e-05  -4.6479709e-06   1.0723486e-06   9.8974542e-06   5.7120263e-07   9.4579073e-06   9.1318560e-07   2.8524053e-05  -2.8471159e-05  -4.5624569e-05   4.0908203e-06  -1.3662738e-05   2.5064444e-05   8.4983758e-06   1.3157657e-05   1.8429548e-05   2.5069163e-05   3.5605967e-06   1.5981741e-05   1.2598754e-05  -3.6526501e-06  -3.3490862e-06   1.7382947e-05   1.4902726e-05   3.4148808e-05   5.2000411e-05  -3.5347696e-06   1.5598589e-05  -1.0248397e-05   2.0755151e-05  -3.0222862e-05   3.3641682e-05  -2.6237198e-05  -1.8000619e-05   1.4096438e-05  -3.5729259e-05   9.0962194e-06  -2.8141172e-05  -2.3854489e-06
   3.5528257e-05   2.4620007e-05   2.7190070e-05   2.8591525e-05   1.1360398e-05   7.1747504e-06   5.6051278e-05   2.7760800e-05   1.3091414e-05   3.6239217e-05  -1.2652064e-05  -1.3912444e-05  -7.1381933e-06   8.7394291e-08   7.0089468e-06  -1.2328032e-06   7.6800497e-06  -5.7469362e-07   1.9950570e-05  -3.0222778e-05  -4.2095613e-05   6.8056002e-06  -1.6645274e-05   2.2662209e-05   6.4485089e-06   1.5485435e-05   1.6882957e-05   2.1432266e-05   2.8447002e-07   1.3099992e-05   1.0337307e-05  -5.1054130e-06  -4.8128845e-06   1.4896154e-05   9.2712744e-06   2.6839491e-05   3.5070836e-05  -5.3119065e-06  -3.1455086e-06  -1.4942530e-05   1.5426445e-05  -3.3336091e-05   2.8720566e-05  -3.3776498e-05  -2.6041129e-05   6.6626162e-06  -4.0182200e-05   6.3219118e-06  -2.6392145e-05  -3.7564917e-06
   3.2047021e-05   2.0360212e-05   2.5187581e-05   2.4029117e-05   1.0245558e-05  -1.0721432e-06   5.1311024e-05   2.3442524e-05   1.8009630e-06   3.3504111e-05  -1.5558529e-05  -1.1937026e-05  -9.8379423e-06  -1.0985066e-06   4.0146178e-06  -3.1999994e-06   5.7474545e-06  -2.1109774e-06   1.1287013e-05  -3.1525524e-05  -3.8927978e-05   9.1591637e-06  -1.9884934e-05   1.9685263e-05   3.8567482e-06   1.7307029e-05   1.4923796e-05   1.7512857e-05  -3.0413212e-06   1.0015974e-05   7.9609681e-06  -6.5844488e-06  -7.2147673e-06   1.1858387e-05   3.6139506e-06   1.8803768e-05   1.8047471e-05  -7.3068882e-06  -2.1869460e-05  -2.0241390e-05   9.7460043e-06  -3.6177516e-05   2.3734920e-05  -4.2149721e-05  -3.3678501e-05  -1.1055247e-06  -4.4620720e-05   3.3458980e-06  -2.4632129e-05  -4.8167735e-06
   2.7668231e-05   1.6055563e-05   2.2902308e-05   1.9520887e-05   8.8749948e-06  -9.9345743e-06   4.5533103e-05   1.8407447e-05  -9.6870426e-06   3.0136163e-05  -1.8733252e-05  -1.0215820e-05  -1.2623344e-05  -2.4398157e-06   1.0310969e-06  -5.2758110e-06   3.7059792e-06  -3.6554552e-06   2.8144716e-06  -3.2278866e-05  -3.6203692e-05   1.1121028e-05  -2.3187438e-05   1.6279006e-05   7.8383067e-07   1.8537736e-05   1.2663521e-05   1.3477706e-05  -6.2820700e-06   6.8426434e-06   5.5453274e-06  -8.0288946e-06  -1.0482290e-05   8.3337154e-06  -1.8603863e-06   1.0310452e-05   1.5600314e-06  -9.4716033e-06  -3.9970892e-05  -2.6033615e-05   3.9155534e-06  -3.8522405e-05   1.8949428e-05  -5.1148454e-05  -4.0673025e-05  -8.9470723e-06  -4.8834434e-05   3.2355976e-07  -2.2861470e-05  -5.5022001e-06
   2.2610058e-05   1.1908211e-05   2.0427680e-05   1.5182649e-05   7.2814855e-06  -1.9092364e-05   3.8861515e-05   1.2815344e-05  -2.0933190e-05   2.6185018e-05  -2.2012093e-05  -8.8040360e-06  -1.5358275e-05  -3.8885159e-06  -1.8279242e-06  -7.3971396e-06   1.6058043e-06  -5.1653678e-06  -5.1702191e-06  -3.2396267e-05  -3.3976528e-05   1.2685771e-05  -2.6330817e-05   1.2621721e-05  -2.6585933e-06   1.9130061e-05   1.0228093e-05   9.4977204e-06  -9.3176841e-06   3.6962324e-06   3.1670806e-06  -9.3781882e-06  -1.4484078e-05   4.4236981e-06  -6.9523012e-06   1.6637628e-06  -1.3795718e-05  -1.1752141e-05  -5.6872566e-05  -3.2186497e-05  -1.8646571e-06  -4.0176281e-05   1.4604251e-05  -6.0517377e-05  -4.6793481e-05  -1.6593336e-05  -5.2595562e-05  -2.5911547e-06  -2.1067459e-05  -5.7746920e-06
   1.7136217e-05   8.1061426e-06   1.7863975e-05   1.1112692e-05   5.5081405e-06  -2.8203338e-05   3.1483771e-05   6.8492132e-06  -3.1506432e-05   2.1747344e-05  -2.5206120e-05  -7.7210061e-06  -1.7895596e-05  -5.3963067e-06  -4.4517760e-06  -9.5009764e-06  -4.9906475e-07  -6.6001198e-06  -1.2381941e-05  -3.1797368e-05  -3.2251672e-05   1.3878033e-05  -2.9075378e-05   8.9205705e-06  -6.3222928e-06   1.9079023e-05   7.7489758e-06   5.7290749e-06  -1.2037000e-05   6.8061496e-07   9.0145699e-07  -1.0575607e-05  -1.9033687e-05   2.5136015e-07  -1.1482939e-05  -6.8125910e-06  -2.7499500e-05  -1.4079723e-05  -7.2056740e-05  -3.8549977e-05  -7.4094833e-06  -4.0988649e-05   1.0900777e-05  -6.9963084e-05  -5.1817136e-05  -2.3784269e-05  -5.5668090e-05  -5.2484111e-06  -1.9232817e-05  -5.6241229e-06
   1.1540038e-05   4.8102665e-06   1.5311181e-05   7.3768283e-06   3.6040842e-06  -3.6920395e-05   2.3630868e-05   7.0493235e-07  -4.0998999e-05   1.6956188e-05  -2.8111432e-05  -6.9350153e-06  -2.0095116e-05  -6.9144407e-06  -6.7413721e-06  -1.1528796e-05  -2.5497250e-06  -7.9201773e-06  -1.8551478e-05  -3.0430552e-05  -3.1000371e-05   1.4756760e-05  -3.1188607e-05   5.3932890e-06  -1.0022090e-05   1.8414714e-05   5.3622325e-06   2.3097562e-06  -1.4347320e-05  -2.1114522e-06  -1.1793993e-06  -1.1574904e-05  -2.3901579e-05  -4.0423697e-06  -1.5296231e-05  -1.4788153e-05  -3.9123421e-05  -1.6384460e-05  -8.5075582e-05  -4.4960863e-05  -1.2553242e-05  -4.0868454e-05   7.9884003e-06  -7.9171274e-05  -5.5556528e-05  -3.0285049e-05  -5.7830610e-05  -7.5160328e-06  -1.7337383e-05  -5.0746789e-06
   6.1266473e-06   2.1571243e-06   1.2861685e-05   4.0191485e-06   1.6296887e-06  -4.4909928e-05   1.5559765e-05  -5.4129973e-06  -4.9049995e-05   1.1980770e-05  -3.0520201e-05  -6.3850343e-06  -2.1821348e-05  -8.3961986e-06  -8.6103983e-06  -1.3418308e-05  -4.4930175e-06  -9.0939066e-06  -2.3445324e-05  -2.8259121e-05  -3.0149342e-05   1.5401909e-05  -3.2452816e-05   2.2476465e-06  -1.3545523e-05   1.7206208e-05   3.1978993e-06  -6.4251429e-07  -1.6169955e-05  -4.6079049e-06  -3.0172075e-06  -1.2335918e-05  -2.8826065e-05  -8.3014129e-06  -1.8269815e-05  -2.1946165e-05  -4.8355294e-05  -1.8587965e-05  -9.5579111e-05  -5.1251791e-05  -1.7158191e-05  -3.9781818e-05   5.9547124e-06  -8.7821027e-05  -5.7862733e-05  -3.5893114e-05  -5.8894464e-05  -9.2858891e-06  -1.5362906e-05  -4.1750227e-06
   1.1958172e-06   2.4184908e-07   1.0597667e-05   1.0572089e-06  -3.5568726e-07  -5.1860792e-05   7.5455323e-06  -1.1309149e-05  -5.5363158e-05   7.0121018e-06  -3.2239255e-05  -5.9713852e-06  -2.2954300e-05  -9.8042210e-06  -9.9912240e-06  -1.5120262e-05  -6.2797644e-06  -1.0093994e-05  -2.6880100e-05  -2.5281299e-05  -2.9588957e-05   1.5926438e-05  -3.2689237e-05  -3.1810515e-07  -1.6676442e-05   1.5558224e-05   1.3740050e-06  -3.0441240e-06  -1.7449962e-05  -6.7546730e-06  -4.5614738e-06  -1.2835057e-05  -3.3526157e-05  -1.2359931e-05  -2.0318945e-05  -2.8002160e-05  -5.5007615e-05  -2.0612830e-05  -1.0332130e-04  -5.7252928e-05  -2.1122773e-05  -3.7767222e-05   4.8213374e-06  -9.5602307e-05  -5.8638645e-05  -4.0453080e-05  -5.8717244e-05  -1.0481368e-05  -1.3303544e-05  -3.0074589e-06
  -2.9766538e-06  -8.7316863e-07   8.5943657e-06  -1.5108629e-06  -2.2893548e-06  -5.7504807e-05  -1.3343063e-07  -1.6799642e-05  -5.9713508e-05   2.2597237e-06  -3.3104276e-05  -5.5739370e-06  -2.3394497e-05  -1.1100631e-05  -1.0829635e-05  -1.6588632e-05  -7.8679477e-06  -1.0900742e-05  -2.8728475e-05  -2.1517473e-05  -2.9188002e-05   1.6455690e-05  -3.1768166e-05  -2.1494172e-06  -1.9199939e-05   1.3590930e-05  -9.4486801e-09  -4.8385500e-06  -1.8147915e-05  -8.5210331e-06  -5.7788520e-06  -1.3063909e-05  -3.7721817e-05  -1.6060958e-05  -2.1394992e-05  -3.2714379e-05  -5.9021553e-05  -2.2383336e-05  -1.0816673e-04  -6.2805426e-05  -2.4374120e-05  -3.4921806e-05   4.5479269e-06  -1.0223233e-04  -5.7852172e-05  -4.3861579e-05  -5.7209938e-05  -1.1057723e-05  -1.1168702e-05  -1.6691332e-06
  -6.1557612e-06  -1.1709762e-06   6.9042612e-06  -3.6986366e-06  -4.1117819e-06  -6.1621038e-05  -7.2124922e-06  -2.1725829e-05  -6.1965729e-05  -2.0678794e-06  -3.2986925e-05  -5.0665931e-06  -2.3079707e-05  -1.2259403e-05  -1.1096126e-05  -1.7790497e-05  -9.2258942e-06  -1.1501709e-05  -2.8932083e-05  -1.7027558e-05  -2.8791057e-05   1.7126617e-05  -2.9622006e-05  -3.1328532e-06  -2.0923555e-05   1.1443954e-05  -8.7840630e-07  -6.0000416e-06  -1.8245937e-05  -9.8954461e-06  -6.6594312e-06  -1.3026715e-05  -4.1153697e-05  -1.9256931e-05  -2.1489597e-05  -3.5906443e-05  -6.0460505e-05  -2.3831579e-05  -1.1009191e-04  -6.7761634e-05  -2.6877871e-05  -3.1393633e-05   5.0316398e-06  -1.0747403e-04  -5.5530876e-05  -4.6072248e-05  -5.4359349e-05  -1.1006042e-05  -8.9867071e-06  -2.7346988e-07
  -8.1562694e-06  -6.6775368e-07   5.5634350e-06  -5.5281471e-06  -5.7645757e-06  -6.4048967e-05  -1.3444937e-05  -2.5958198e-05  -6.2070292e-05  -5.7742354e-06  -3.1817402e-05  -4.3242267e-06  -2.1967911e-05  -1.3259110e-05  -1.0779592e-05  -1.8703588e-05  -1.0333408e-05  -1.1897248e-05  -2.7506567e-05  -1.1894309e-05  -2.8246550e-05   1.8078794e-05  -2.6252603e-05  -3.2056382e-06  -2.1688735e-05   9.2546015e-06  -1.1874123e-06  -6.5318732e-06  -1.7745286e-05  -1.0889808e-05  -7.2038492e-06  -1.2745257e-05  -4.3591506e-05  -2.1818752e-05  -2.0628464e-05  -3.7471495e-05  -5.9501068e-05  -2.4895589e-05  -1.0918359e-04  -7.1993658e-05  -2.8632841e-05  -2.7377882e-05   6.1259193e-06  -1.1114593e-04  -5.1776577e-05  -4.7101174e-05  -5.0225182e-05  -1.0352767e-05  -6.8009308e-06   1.0671814e-06
  -8.8637235e-06   5.8444328e-07   4.5907109e-06  -7.0257920e-06  -7.2005355e-06  -6.4692991e-05  -1.8623699e-05  -2.9396680e-05  -6.0065824e-05  -8.6890632e-06  -2.9579380e-05  -3.2384162e-06  -2.0056217e-05  -1.4082668e-05  -9.8865421e-06  -1.9316061e-05  -1.1183429e-05  -1.2091672e-05  -2.4535066e-05  -6.2310737e-06  -2.7408038e-05   1.9438070e-05  -2.1728287e-05  -2.3650316e-06  -2.1386417e-05   7.1532149e-06  -9.2117062e-07  -6.4666133e-06  -1.6667194e-05  -1.1530374e-05  -7.4339077e-06  -1.2256717e-05  -4.4856803e-05  -2.3646431e-05  -1.8873518e-05  -3.7376485e-05  -5.6414749e-05  -2.5529978e-05  -1.0562116e-04  -7.5398857e-05  -2.9663435e-05  -2.3090808e-05   7.6458200e-06  -1.1313853e-04  -4.6750742e-05  -4.7014422e-05  -4.4935561e-05  -9.1520205e-06  -4.6726109e-06   2.2419053e-06
  -8.2285160e-06   2.5038655e-06   3.9881174e-06  -8.2121669e-06  -8.3781906e-06  -6.3522253e-05  -2.2588234e-05  -3.1984920e-05  -5.6074721e-05  -1.0674096e-05  -2.6313837e-05  -1.7273451e-06  -1.7373739e-05  -1.4721484e-05  -8.4408839e-06  -1.9630488e-05  -1.1778810e-05  -1.2099164e-05  -2.0169302e-05  -1.7594927e-07  -2.6149210e-05   2.1316460e-05  -1.6189631e-05  -6.6755365e-07  -1.9961039e-05   5.2525120e-06  -9.6982710e-08  -5.8558776e-06  -1.5053486e-05  -1.1855597e-05  -7.3895876e-06  -1.1609092e-05  -4.4833047e-05  -2.4671781e-05  -1.6314892e-05  -3.5669349e-05  -5.1543666e-05  -2.5700863e-05  -9.9671153e-05  -7.7904777e-05  -3.0016490e-05  -1.8757319e-05   9.3890576e-06  -1.1341707e-04  -4.0671599e-05  -4.5934823e-05  -3.8688049e-05  -7.4853924e-06  -2.6837401e-06   3.1595634e-06
  -6.2759036e-06   4.9859041e-06   3.7371515e-06  -9.1025413e-06  -9.2713126e-06  -6.0574595e-05  -2.5226867e-05  -3.3697790e-05  -5.0293562e-05  -1.1637360e-05  -2.2122043e-05   2.5096656e-07  -1.3979595e-05  -1.5171325e-05  -6.4830042e-06  -1.9661480e-05  -1.2128438e-05  -1.1940736e-05  -1.4614273e-05   6.1157120e-06  -2.4379382e-05   2.3797773e-05  -9.8349883e-06   1.7821451e-06  -1.7423021e-05   3.6371116e-06   1.2381074e-06  -4.7664180e-06  -1.2960303e-05  -1.1911262e-05  -7.1195377e-06  -1.0858971e-05  -4.3467491e-05  -2.4860401e-05  -1.3062438e-05  -3.2471944e-05  -4.5279208e-05  -2.5392910e-05  -9.1665890e-05  -7.9466692e-05  -2.9752675e-05  -1.4591018e-05   1.1153829e-05  -1.1202779e-04  -3.3804223e-05  -4.4024597e-05  -3.1738153e-05  -5.4517054e-06  -9.1940723e-07   3.7464397e-06
  -3.0924896e-06   7.9113379e-06   3.8110798e-06  -9.6972281e-06  -9.8626924e-06  -5.5948229e-05  -2.6490201e-05  -3.4549827e-05  -4.2978325e-05  -1.1540730e-05  -1.7157232e-05   2.6970126e-06  -9.9643430e-06  -1.5428130e-05  -4.0649343e-06  -1.9431898e-05  -1.2251199e-05  -1.1640119e-05  -8.1243998e-06   1.2482445e-05  -2.2045675e-05   2.6934382e-05  -2.9093103e-06   4.8337320e-06  -1.3841402e-05   2.3613920e-06   3.0087635e-06  -3.2777857e-06  -1.0461624e-05  -1.1749678e-05  -6.6822249e-06  -1.0070000e-05  -4.0780022e-05  -2.4218054e-05  -9.2467217e-06  -2.7970587e-05  -3.8037491e-05  -2.4604406e-05  -8.1988212e-05  -8.0073318e-05  -2.8944512e-05  -1.0778851e-05   1.2758544e-05  -1.0909721e-04  -2.6448415e-05  -4.1476538e-05  -2.4377492e-05  -3.1631450e-06   5.2646959e-07   3.9607789e-06
   1.1658957e-06   1.1150373e-05   4.1713934e-06  -9.9941199e-06  -1.0149597e-05  -4.9798211e-05  -2.6383574e-05  -3.4586817e-05  -3.4430577e-05  -1.0398052e-05  -1.1611801e-05   5.5674577e-06  -5.4378911e-06  -1.5491711e-05  -1.2509640e-06  -1.8973582e-05  -1.2168444e-05  -1.1223216e-05  -9.8180271e-07   1.8756748e-05  -1.9142539e-05   3.0737992e-05   4.3045879e-06   8.2986016e-06  -9.3506824e-06   1.4417999e-06   5.1164802e-06  -1.4747638e-06  -7.6441402e-06  -1.1413506e-05  -6.1361834e-06  -9.3057160e-06  -3.6857273e-05  -2.2782628e-05  -5.0033150e-06  -2.2400996e-05  -3.0226565e-05  -2.3352324e-05  -7.1047325e-05  -7.9746940e-05  -2.7660390e-05  -7.4594927e-06   1.4048075e-05  -1.0481665e-04  -1.8922203e-05  -3.8499220e-05  -1.6928092e-05  -7.3422058e-07   1.5663052e-06   3.7962700e-06
   6.2994209e-06   1.4575632e-05   4.7722751e-06  -9.9730714e-06  -1.0141795e-05  -4.2326232e-05  -2.4973710e-05  -3.3882181e-05  -2.4986553e-05  -8.2752913e-06  -5.7076581e-06   8.7731942e-06  -5.2821269e-07  -1.5365564e-05   1.8915870e-06  -1.8322764e-05  -1.1903162e-05  -1.0717638e-05   6.5169470e-06   2.4777250e-05  -1.5709076e-05   3.5182591e-05   1.1510649e-05   1.1971873e-05  -4.1344706e-06   8.6162959e-07   7.4407417e-06   5.6306442e-07  -4.6093423e-06  -1.0947289e-05  -5.5429778e-06  -8.6274922e-06  -3.1855478e-05  -2.0624964e-05  -4.7566675e-07  -1.6041646e-05  -2.2230857e-05  -2.1666525e-05  -5.9266597e-05  -7.8536228e-05  -2.5969030e-05  -4.7172603e-06   1.4922502e-05  -9.9441568e-05  -1.1542763e-05  -3.5310230e-05  -9.7083193e-06   1.7279708e-06   2.1200005e-06   3.2713504e-06
   1.2067005e-05   1.8058525e-05   5.5605251e-06  -9.6094964e-06  -9.8627961e-06  -3.3772896e-05  -2.2376391e-05  -3.2531956e-05  -1.4992427e-05  -5.2918281e-06   3.1300198e-07   1.2188724e-05   4.6292607e-06  -1.5049203e-05   5.2863056e-06  -1.7522352e-05  -1.1477831e-05  -1.0151390e-05   1.4069934e-05   3.0395775e-05  -1.1833850e-05   4.0201208e-05   1.8407269e-05   1.5635647e-05   1.5772916e-06   5.7055649e-07   9.8550699e-06   2.7546250e-06  -1.4675477e-06  -1.0380302e-05  -4.9536434e-06  -8.0901618e-06  -2.5980320e-05  -1.7843486e-05   4.2011638e-06  -9.1863867e-06  -1.4386321e-05  -1.9591451e-05  -4.7059864e-05  -7.6518103e-05  -2.3924122e-05  -2.5775817e-06   1.5335689e-05  -9.3269759e-05  -4.6173000e-06  -3.2115695e-05  -3.0258418e-06   4.1253061e-06   2.1225012e-06   2.4429380e-06
   1.8209574e-05   2.1488575e-05   6.4832047e-06  -8.8730239e-06  -9.3445688e-06  -2.4404722e-05  -1.8754043e-05  -3.0646974e-05  -4.7961962e-06  -1.6074742e-06   6.2066106e-06   1.5655605e-05   9.8906330e-06  -1.4546853e-05   8.8569141e-06  -1.6615217e-05  -1.0908736e-05  -9.5473224e-06   2.1391148e-05   3.5485318e-05  -7.6472497e-06   4.5692163e-05   2.4711861e-05   1.9078094e-05   7.5259545e-06   4.8714031e-07   1.2222283e-05   5.0325889e-06   1.6628965e-06  -9.7316224e-06  -4.4136691e-06  -7.7404129e-06  -1.9484542e-05  -1.4558546e-05   8.8955894e-06  -2.1320909e-06  -6.9721036e-06  -1.7181521e-05  -3.4816861e-05  -7.3791052e-05  -2.1573696e-05  -1.0054912e-06   1.5301495e-05  -8.6628927e-05   1.5804117e-06  -2.9102332e-05   2.8476434e-06   6.3720718e-06   1.5321391e-06   1.3894526e-06
   2.4457113e-05   2.4763738e-05   7.4924465e-06  -7.7352051e-06  -8.6316777e-06  -1.4505406e-05  -1.4304724e-05  -2.8347111e-05   5.2701675e-06   2.5830795e-06   1.1744517e-05   1.8994864e-05   1.5119541e-05  -1.3863249e-05   1.2526438e-05  -1.5642501e-05  -1.0210843e-05  -8.9274672e-06   2.8215705e-05   3.9938888e-05  -3.3043411e-06   5.1518287e-05   3.0169163e-05   2.2106178e-05   1.3436059e-05   5.1348610e-07   1.4407288e-05   7.3317169e-06   4.6577456e-06  -9.0123340e-06  -3.9502715e-06  -7.6134033e-06  -1.2649093e-05  -1.0903054e-05   1.3488760e-05   4.8368656e-06  -1.9836477e-07  -1.4498703e-05  -2.2894030e-05  -7.0472888e-05  -1.8948158e-05   9.5676803e-08   1.4897470e-05  -7.9852842e-05   6.8149675e-06  -2.6428126e-05   7.6962506e-06   8.4064513e-06   3.3874446e-07   2.1214805e-07
   3.0552783e-05   2.7802551e-05   8.5347810e-06  -6.1724295e-06  -7.7749282e-06  -4.3600994e-06  -9.2530017e-06  -2.5753465e-05   1.4901444e-05   7.0646374e-06   1.6719485e-05   2.2022410e-05   2.0186877e-05  -1.2999918e-05   1.6218244e-05  -1.4645365e-05  -9.3907456e-06  -8.3085642e-06   3.4320128e-05   4.3680648e-05   1.0092137e-06   5.7523601e-05   3.4570421e-05   2.4547940e-05   1.9030369e-05   5.3412822e-07   1.6284117e-05   9.6043832e-06   7.3978558e-06  -8.2176957e-06  -3.5845660e-06  -7.7339191e-06  -5.7720458e-06  -7.0196261e-06   1.7875038e-05   1.1462851e-05   5.7965244e-06  -1.1612735e-05  -1.1602694e-05  -6.6697059e-05  -1.6069602e-05   8.5989029e-07   1.4252568e-05  -7.3264862e-05   1.0907188e-05  -2.4215396e-05   1.1364589e-05   1.0186236e-05  -1.4428450e-06  -9.8482462e-07
   3.6258320e-05   3.0539948e-05   9.5672094e-06  -4.1716271e-06  -6.8261011e-06   5.7477700e-06  -3.8371281e-06  -2.2986173e-05   2.3825811e-05   1.1608875e-05   2.0961897e-05   2.4557268e-05   2.4976242e-05  -1.1963755e-05   1.9854158e-05  -1.3657543e-05  -8.4538269e-06  -7.7047862e-06   3.9516348e-05   4.6658064e-05   5.1090547e-06   6.3534295e-05   3.7754973e-05   2.6271362e-05   2.4045892e-05   4.3027711e-07   1.7740260e-05   1.1806091e-05   9.7617249e-06  -7.3364240e-06  -3.3183460e-06  -8.1122180e-06   8.5433385e-07  -3.0489277e-06   2.1962704e-05   1.7528793e-05   1.0935579e-05  -8.5982583e-06  -1.2064389e-06  -6.2601910e-05  -1.2947193e-05   1.4589532e-06   1.3532388e-05  -6.7161338e-05   1.3740097e-05  -2.2547028e-05   1.3772170e-05   1.1688867e-05  -3.7659665e-06  -2.0898688e-06
   4.1367821e-05   3.2934862e-05   1.0547883e-05  -1.7356026e-06  -5.8435662e-06   1.5555670e-05   1.7033087e-06  -2.0157340e-05   3.1817202e-05   1.5996333e-05   2.4343391e-05   2.6437485e-05   2.9392995e-05  -1.0769726e-05   2.3360824e-05  -1.2713075e-05  -7.4034569e-06  -7.1278751e-06   4.3665361e-05   4.8849412e-05   8.8107154e-06   6.9372873e-05   3.9625738e-05   2.7178741e-05   2.8253122e-05   9.0105765e-08   1.8679220e-05   1.3902612e-05   1.1636248e-05  -6.3551779e-06  -3.1450504e-06  -8.7451572e-06   6.9468065e-06   8.7268432e-07   2.5674251e-05   2.2863802e-05   1.5204869e-05  -5.5276919e-06   8.0822683e-06  -5.8333797e-05  -9.5949590e-06   2.0739749e-06   1.2933204e-05  -6.1795290e-05   1.5256848e-05  -2.1469150e-05   1.4909722e-05   1.2911863e-05  -6.5575659e-06  -3.0077247e-06
   4.5719829e-05   3.4956342e-05   1.1439543e-05   1.1144986e-06  -4.8829475e-06   2.4817507e-05   7.1384979e-06  -1.7366772e-05   3.8689774e-05   2.0015565e-05   2.6779806e-05   2.7530774e-05   3.3355784e-05  -9.4308880e-06   2.6665170e-05  -1.1833799e-05  -6.2408021e-06  -6.5846657e-06   4.6678062e-05   5.0257200e-05   1.1959828e-05   7.4871059e-05   4.0147086e-05   2.7218630e-05   3.1457912e-05  -5.8218194e-07   1.9028470e-05   1.5863699e-05   1.2924152e-05  -5.2574892e-06  -3.0480262e-06  -9.6202375e-06   1.2260280e-05   4.6174578e-06   2.8948682e-05   2.7347640e-05   1.8627663e-05  -2.4776105e-06   1.6097734e-05  -5.4038395e-05  -6.0241023e-06   2.8802358e-06   1.2651291e-05  -5.7369238e-05   1.5471283e-05  -2.0987003e-05   1.4839899e-05   1.3861675e-05  -9.7192842e-06  -3.6596484e-06
   4.9196005e-05   3.6594021e-05   1.2211213e-05   4.3362174e-06  -3.9970778e-06   3.3320415e-05   1.2253486e-05  -1.4699184e-05   4.4308261e-05   2.3486307e-05   2.8242497e-05   2.7744718e-05   3.6807985e-05  -7.9717875e-06   2.9696987e-05  -1.1040239e-05  -4.9700043e-06  -6.0816146e-06   4.8510832e-05   5.0905204e-05   1.4430728e-05   7.9878941e-05   3.9342063e-05   2.6374297e-05   3.3524433e-05  -1.6640105e-06   1.8741250e-05   1.7660075e-05   1.3542165e-05  -4.0312934e-06  -3.0038243e-06  -1.0714039e-05   1.6587457e-05   8.0779037e-06   3.1733849e-05   3.0911324e-05   2.1263442e-05   4.8112003e-07   2.2717148e-05  -4.9860515e-05  -2.2561378e-06   4.0294658e-06   1.2871138e-05  -5.4019361e-05   1.4448570e-05  -2.1078029e-05   1.3696717e-05   1.4553637e-05  -1.3140836e-05  -3.9906831e-06
   5.1726151e-05   3.7847367e-05   1.2837932e-05   7.8623752e-06  -3.2336907e-06   4.0880870e-05   1.6865548e-05  -1.2231217e-05   4.8580023e-05   2.6264472e-05   2.8736951e-05   2.7030543e-05   3.9711616e-05  -6.4178453e-06   3.2388933e-05  -1.0347241e-05  -3.6004203e-06  -5.6240706e-06   4.9162863e-05   5.0831917e-05   1.6142527e-05   8.4270345e-05   3.7289105e-05   2.4670031e-05   3.4367597e-05  -3.2028054e-06   1.7795739e-05   1.9265553e-05   1.3429917e-05  -2.6712228e-06  -2.9898674e-06  -1.1997683e-05   1.9772900e-05   1.1158765e-05   3.3989883e-05   3.3530981e-05   2.3184493e-05   3.2773962e-06   2.7855476e-05  -4.5934659e-05   1.6705558e-06   5.6330937e-06   1.3739567e-05  -5.1826217e-05   1.2311079e-05  -2.1690248e-05   1.1658717e-05   1.5007613e-05  -1.6699492e-05  -3.9803681e-06
   5.3284635e-05   3.8722963e-05   1.3298724e-05   1.1606338e-05  -2.6314437e-06   4.7354199e-05   2.0818206e-05  -1.0016810e-05   5.1449057e-05   2.8239272e-05   2.8315850e-05   2.5391024e-05   4.2045311e-05  -4.8092215e-06   3.4675541e-05  -9.7602951e-06  -2.1537519e-06  -5.2198798e-06   4.8675687e-05   5.0095237e-05   1.7069355e-05   8.7961824e-05   3.4115801e-05   2.2158189e-05   3.3967011e-05  -5.2137898e-06   1.6199116e-05   2.0651058e-05   1.2553603e-05  -1.1850711e-06  -2.9819846e-06  -1.3434824e-05   2.1718497e-05   1.3787796e-05   3.5686950e-05   3.5228881e-05   2.4461104e-05   5.8458163e-06   3.1457188e-05  -4.2385756e-05   5.6993972e-06   7.7480527e-06   1.5357275e-05  -5.0806706e-05   9.2128357e-06  -2.2755932e-05   8.9417526e-06   1.5239553e-05  -2.0278017e-05  -3.6415745e-06
   5.3887376e-05   3.9232058e-05   1.3574705e-05   1.5462489e-05  -2.2218323e-06   5.2628213e-05   2.3997884e-05  -8.1026674e-06   5.2900901e-05   2.9349583e-05   2.7055998e-05   2.2873386e-05   4.3808112e-05  -3.1895463e-06   3.6492267e-05  -9.2875225e-06  -6.5705916e-07  -4.8751094e-06   4.7118065e-05   4.8755122e-05   1.7242370e-05   9.0902162e-05   2.9983657e-05   1.8913281e-05   3.2361513e-05  -7.6783117e-06   1.3978528e-05   2.1783113e-05   1.0906861e-05   4.0722202e-07  -2.9670541e-06  -1.4985379e-05   2.2385639e-05   1.5912246e-05   3.6802488e-05   3.6059926e-05   2.5157902e-05   8.1271673e-06   3.3492648e-05  -3.9328082e-05   9.7487182e-06   1.0370421e-05   1.7758211e-05  -5.0925933e-05   5.3368394e-06  -2.4199113e-05   5.7879065e-06   1.5257599e-05  -2.3767128e-05  -3.0167228e-06
   5.3581018e-05   3.9391023e-05   1.3653460e-05   1.9310402e-05  -2.0245923e-06   5.6629877e-05   2.6323494e-05  -6.5213999e-06   5.2946438e-05   2.9577895e-05   2.5061123e-05   1.9569687e-05   4.5006291e-05  -1.6109678e-06   3.7786387e-05  -8.9266323e-06   8.4707398e-07  -4.6002383e-06   4.4584598e-05   4.6876718e-05   1.6738777e-05   9.3089569e-05   2.5080322e-05   1.5023420e-05   2.9640087e-05  -1.0549653e-05   1.1187964e-05   2.2627033e-05   8.5108704e-06   2.0695156e-06  -2.9360292e-06  -1.6613270e-05   2.1793743e-05   1.7496652e-05   3.7322439e-05   3.6104870e-05   2.5320463e-05   1.0064876e-05   3.3950750e-05  -3.6859747e-05   1.3717573e-05   1.3430996e-05   2.0909920e-05  -5.2101754e-05   8.7385610e-07  -2.5942223e-05   2.4318922e-06   1.5060627e-05  -2.7070950e-05  -2.1789526e-06
   5.2440693e-05   3.9213701e-05   1.3528538e-05   2.3019264e-05  -2.0515995e-06   5.9318052e-05   2.7756725e-05  -5.2937789e-06   5.1622512e-05   2.8945862e-05   2.2441536e-05   1.5612677e-05   4.5660130e-05  -1.2834055e-07   3.8504182e-05  -8.6806294e-06   2.3049231e-06  -4.4075682e-06   4.1188028e-05   4.4528486e-05   1.5694366e-05   9.4555973e-05   1.9601339e-05   1.0585933e-05   2.5942865e-05  -1.3750779e-05   7.9003812e-06   2.3145793e-05   5.4198190e-06   3.7523755e-06  -2.8946868e-06  -1.8279994e-05   2.0016038e-05   1.8526018e-05   3.7238493e-05   3.5462173e-05   2.4970224e-05   1.1612521e-05   3.2839813e-05  -3.5060119e-05   1.7482447e-05   1.6797279e-05   2.4704892e-05  -5.4219458e-05  -3.9917300e-06  -2.7915656e-05  -8.9664707e-07   1.4639702e-05  -3.0122921e-05  -1.2269588e-06
   5.0554841e-05   3.8711132e-05   1.3195105e-05   2.6456895e-05  -2.3022562e-06   6.0682345e-05   2.8288339e-05  -4.4372405e-06   4.8985970e-05   2.7511574e-05   1.9311390e-05   1.1156803e-05   4.5791581e-05   1.1975261e-06   3.8604667e-05  -8.5495676e-06   3.6506844e-06  -4.3147470e-06   3.7050017e-05   4.1773306e-05   1.4275028e-05   9.5379364e-05   1.3739541e-05   5.6949002e-06   2.1438396e-05  -1.7181785e-05   4.2056568e-06   2.3297944e-05   1.7149955e-06   5.3917111e-06  -2.8579373e-06  -1.9951305e-05   1.7172475e-05   1.8999513e-05   3.6554418e-05   3.4235716e-05   2.4107138e-05   1.2729021e-05   3.0183268e-05  -3.3988308e-05   2.0906773e-05   2.0285506e-05   2.8976650e-05  -5.7140212e-05  -9.0889771e-06  -3.0057627e-05  -4.0072687e-06   1.3975379e-05  -3.2877972e-05  -2.6654456e-07
   4.8017060e-05   3.7892092e-05   1.2652664e-05   2.9496185e-05  -2.7680535e-06   6.0741928e-05   2.7944026e-05  -3.9591105e-06   4.5108332e-05   2.5363466e-05   1.5775058e-05   6.3794305e-06   4.5426910e-05   2.3083960e-06   3.8056791e-05  -8.5336351e-06   4.8113297e-06  -4.3386381e-06   3.2295680e-05   3.8676364e-05   1.2674893e-05   9.5660580e-05   7.6787128e-06   4.4070467e-07   1.6322174e-05  -2.0733625e-05   1.9673868e-07   2.3051123e-05  -2.4991389e-06   6.9175048e-06  -2.8511429e-06  -2.1601476e-05   1.3417698e-05   1.8933240e-05   3.5282479e-05   3.2533189e-05   2.2713157e-05   1.3384096e-05   2.6024036e-05  -3.3681172e-05   2.3848055e-05   2.3668759e-05   3.3501477e-05  -6.0714603e-05  -1.4279432e-05  -3.2328484e-05  -6.7433384e-06   1.3045526e-05  -3.5320485e-05   5.8585528e-07
   4.4922424e-05   3.6761019e-05   1.1908202e-05   3.2018441e-05  -3.4334657e-06   5.9545415e-05   2.6769356e-05  -3.8657486e-06   4.0078459e-05   2.2607921e-05   1.1926232e-05   1.4581065e-06   4.4593751e-05   3.1433337e-06   3.6839487e-05  -8.6363098e-06   5.7042776e-06  -4.5032002e-06   2.7055170e-05   3.5297326e-05   1.1100119e-05   9.5526688e-05   1.5716000e-06  -5.0990920e-06   1.0794550e-05  -2.4286321e-05  -4.0218470e-06   2.2371589e-05  -7.0953429e-06   8.2493571e-06  -2.9145656e-06  -2.3207582e-05   8.9358628e-06   1.8348364e-05   3.3440869e-05   3.0450850e-05   2.0757770e-05   1.3555459e-05   2.0423602e-05  -3.4153614e-05   2.6163782e-05   2.6700398e-05   3.8017046e-05  -6.4796070e-05  -1.9457553e-05  -3.4701501e-05  -9.0000767e-06   1.1823072e-05  -3.7465968e-05   1.2220462e-06
   4.1357434e-05   3.5319295e-05   1.0969796e-05   3.3923239e-05  -4.2760580e-06   5.7160323e-05   2.4832503e-05  -4.1578487e-06   3.3992284e-05   1.9364217e-05   7.8405519e-06  -3.4295547e-06   4.3318934e-05   3.6549545e-06   3.4950841e-05  -8.8624720e-06   6.2513500e-06  -4.8298116e-06   2.1447044e-05   3.1691085e-05   9.7524289e-06   9.5112155e-05  -4.4497292e-06  -1.0856139e-05   5.0538574e-06  -2.7724811e-05  -8.3453824e-06   2.1237362e-05  -1.1933317e-05   9.3118879e-06  -3.0864323e-06  -2.4755307e-05   3.9192937e-06   1.7281334e-05   3.1069540e-05   2.8075705e-05   1.8207113e-05   1.3231485e-05   1.3471214e-05  -3.5392535e-05   2.7729116e-05   2.9126038e-05   4.2251828e-05  -6.9241469e-05  -2.4558040e-05  -3.7172620e-05  -1.0727188e-05   1.0291318e-05  -3.9355091e-05   1.5497900e-06
   3.7400147e-05   3.3564836e-05   9.8538094e-06   3.5135847e-05  -5.2681962e-06   5.3675369e-05   2.2211199e-05  -4.8360448e-06   2.6962536e-05   1.5757438e-05   3.5742564e-06  -8.1283988e-06   4.1632273e-05   3.8012654e-06   3.2401746e-05  -9.2185001e-06   6.3749449e-06  -5.3433446e-06   1.5592936e-05   2.7915814e-05   8.8049856e-06   9.4556912e-05  -1.0294730e-05  -1.6774851e-05  -7.1944078e-07  -3.0945823e-05  -1.2679651e-05   1.9636176e-05  -1.6865702e-05   1.0032812e-05  -3.4143757e-06  -2.6237889e-05  -1.4312216e-06   1.5769952e-05   2.8214738e-05   2.5480611e-05   1.5036535e-05   1.2413202e-05   5.2835276e-06  -3.7361355e-05   2.8443070e-05   3.0720257e-05   4.5937315e-05  -7.3923271e-05  -2.9552572e-05  -3.9749935e-05  -1.1923697e-05   8.4449312e-06  -4.1047184e-05   1.5025878e-06
   3.3108252e-05   3.1504933e-05   8.5780239e-06   3.5607565e-05  -6.3800039e-06   4.9202445e-05   1.8993713e-05  -5.8960522e-06   1.9115319e-05   1.1899085e-05  -8.3454768e-07  -1.2502735e-05   3.9555805e-05   3.5538383e-06   2.9225135e-05  -9.7165766e-06   6.0094658e-06  -6.0633297e-06   9.6050635e-06   2.4029168e-05   8.4040539e-06   9.3982395e-05  -1.5898397e-05  -2.2804496e-05  -6.3703014e-06  -3.3863853e-05  -1.6936656e-05   1.7573188e-05  -2.1744951e-05   1.0353608e-05  -3.9422157e-06  -2.7652215e-05  -6.9244861e-06   1.3860742e-05   2.4939427e-05   2.2721997e-05   1.1236832e-05   1.1114768e-05  -3.9880174e-06  -3.9996372e-05   2.8240174e-05   3.1290387e-05   4.8836304e-05  -7.8728073e-05  -3.4450655e-05  -4.2453656e-05  -1.2641109e-05   6.2934009e-06  -4.2618354e-05   1.0466970e-06
   2.8532904e-05   2.9141140e-05   7.1695881e-06   3.5319608e-05  -7.5818493e-06   4.3865188e-05   1.5268486e-05  -7.3300289e-06   1.0590388e-05   7.9013871e-06  -5.3588542e-06  -1.6444279e-05   3.7119600e-05   2.9024004e-06   2.5470659e-05  -1.0363781e-05   5.1058769e-06  -7.0099354e-06   3.5928258e-06   2.0090909e-05   8.6428654e-06   9.3492243e-05  -2.1230475e-05  -2.8900622e-05  -1.1777123e-05  -3.6416157e-05  -2.1036203e-05   1.5068385e-05  -2.6432863e-05   1.0232148e-05  -4.7075073e-06  -2.9004896e-05  -1.2383768e-05   1.1602358e-05   2.1321384e-05   1.9841213e-05   6.8288905e-06   9.3608669e-06  -1.4157335e-05  -4.3210352e-05   2.7099190e-05   3.0709019e-05   5.0766899e-05  -8.3560102e-05  -3.9289331e-05  -4.5308236e-05  -1.2967955e-05   3.8635462e-06  -4.4151348e-05   1.8140629e-07
   2.3712546e-05   2.6487287e-05   5.6547683e-06   3.4286782e-05  -8.8443485e-06   3.7801641e-05   1.1122932e-05  -9.1286101e-06   1.5464774e-06   3.8503617e-06  -9.9844456e-06  -1.9884772e-05   3.4352917e-05   1.8558526e-06   2.1210179e-05  -1.1172729e-05   3.6375302e-06  -8.1968437e-06  -2.3406574e-06   1.6164420e-05   9.5641162e-06   9.3165312e-05  -2.6285883e-05  -3.5017929e-05  -1.6854863e-05  -3.8568898e-05  -2.4921666e-05   1.2162676e-05  -3.0806361e-05   9.6487302e-06  -5.7344873e-06  -3.0303489e-05  -1.7656652e-05   9.0473804e-06   1.7451419e-05   1.6871310e-05   1.8632859e-06   7.1938020e-06  -2.5000221e-05  -4.6893481e-05   2.5050387e-05   2.8924524e-05   5.1614126e-05  -8.8337794e-05  -4.4121083e-05  -4.8341873e-05  -1.3024789e-05   1.2061912e-06  -4.5723773e-05  -1.0549419e-06
   1.8676039e-05   2.3564708e-05   4.0693162e-06   3.2555999e-05  -1.0140297e-05   3.1166790e-05   6.6424227e-06  -1.1272350e-05  -7.8421717e-06  -1.7974682e-07  -1.4697789e-05  -2.2783361e-05   3.1292529e-05   4.4126281e-07   1.6529833e-05  -1.2150011e-05   1.6006837e-06  -9.6310650e-06  -8.0933023e-06   1.2316381e-05   1.1148587e-05   9.3037823e-05  -3.1075579e-05  -4.1104195e-05  -2.1558286e-05  -4.0317336e-05  -2.8548600e-05   8.9157411e-06  -3.4760626e-05   8.6101800e-06  -7.0384212e-06  -3.1558433e-05  -2.2616197e-05   6.2550021e-06   1.3430122e-05   1.3833935e-05  -3.5670621e-06   4.6669879e-06  -3.6257228e-05  -5.0915394e-05   2.2176182e-05   2.5965890e-05   5.1348114e-05  -9.2989176e-05  -4.9011956e-05  -5.1572319e-05  -1.2946986e-05  -1.6048000e-06  -4.7407440e-05  -2.5877187e-06
   1.3457237e-05   2.0408595e-05   2.4439541e-06   3.0204374e-05  -1.1448543e-05   2.4121824e-05   1.9044064e-06  -1.3738556e-05  -1.7379565e-05  -4.1345274e-06  -1.9480573e-05  -2.5135831e-05   2.7980173e-05  -1.2959862e-06   1.1539219e-05  -1.3301586e-05  -9.7824204e-07  -1.1309240e-05  -1.3569364e-05   8.6185282e-06   1.3315042e-05   9.3112190e-05  -3.5622696e-05  -4.7098929e-05  -2.5877935e-05  -4.1683492e-05  -3.1887477e-05   5.4033540e-06  -3.8220314e-05   7.1486256e-06  -8.6108321e-06  -3.2782329e-05  -2.7160871e-05   3.2849789e-06   9.3714125e-06   1.0748233e-05  -9.3308845e-06   1.8476310e-06  -4.7639063e-05  -5.5130746e-05   1.8610177e-05   2.1954227e-05   5.0026603e-05  -9.7449061e-05  -5.4016222e-05  -5.5005228e-05  -1.2877976e-05  -4.4827052e-06  -4.9244700e-05  -4.3168643e-06
   8.0883492e-06   1.7059292e-05   8.1838550e-07   2.7333930e-05  -1.2747023e-05   1.6838889e-05  -3.0164072e-06  -1.6494165e-05  -2.6856997e-05  -7.9766642e-06  -2.4303923e-05  -2.6962362e-05   2.4469453e-05  -3.2872913e-06   6.3578000e-06  -1.4626628e-05  -4.0459699e-06  -1.3221898e-05  -1.8674122e-05   5.1444827e-06   1.5935941e-05   9.3358860e-05  -3.9954342e-05  -5.2930598e-05  -2.9835783e-05  -4.2714008e-05  -3.4928697e-05   1.7189852e-06  -4.1135751e-05   5.3228969e-06  -1.0429982e-05  -3.3985667e-05  -3.1222105e-05   2.0448785e-07   5.3900958e-06   7.6339411e-06  -1.5261028e-05  -1.1863784e-06  -5.8833124e-05  -5.9383718e-05   1.4531665e-05   1.7084365e-05   4.7790825e-05  -1.0164861e-04  -5.9173977e-05  -5.8625537e-05  -1.2951058e-05  -7.3239535e-06  -5.1255876e-05  -6.1171932e-06
   2.6118976e-06   1.3579121e-05  -7.6731436e-07   2.4072287e-05  -1.4025211e-05   9.4977968e-06  -8.0507480e-06  -1.9501078e-05  -3.6052781e-05  -1.1682590e-05  -2.9130661e-05  -2.8307457e-05   2.0823514e-05  -5.4518364e-06   1.1177295e-06  -1.6116735e-05  -7.5171697e-06  -1.5345468e-05  -2.3313645e-05   1.9693723e-06   1.8838862e-05   9.3708499e-05  -4.4086992e-05  -5.8506092e-05  -3.3478551e-05  -4.3473312e-05  -3.7670081e-05  -2.0297607e-06  -4.3484230e-05   3.2155940e-06  -1.2451696e-05  -3.5176708e-05  -3.4750145e-05  -2.9157325e-06   1.6038142e-06   4.5155530e-06  -2.1156935e-05  -4.3446507e-06  -6.9509377e-05  -6.3512758e-05   1.0155863e-05   1.1629990e-05   4.4860699e-05  -1.0551924e-04  -6.4499211e-05  -6.2397834e-05  -1.3282753e-05  -1.0019879e-05  -5.3427044e-05  -7.8514868e-06
  -2.9167688e-06   1.0038065e-05  -2.2797249e-06   2.0560195e-05  -1.5270427e-05   2.2747863e-06  -1.3129677e-05  -2.2705590e-05  -4.4739001e-05  -1.5238828e-05  -3.3902339e-05  -2.9228544e-05   1.7118100e-05  -7.6937922e-06  -4.0444411e-06  -1.7757335e-05  -1.1286667e-05  -1.7646673e-05  -2.7402904e-05  -8.3798437e-07   2.1820801e-05   9.4069714e-05  -4.8029080e-05  -6.3724721e-05  -3.6867481e-05  -4.4039411e-05  -4.0126954e-05  -5.7305524e-06  -4.5272685e-05   9.2908766e-07  -1.4616691e-05  -3.6360339e-05  -3.7717957e-05  -5.9981762e-06  -1.8684356e-06   1.4239481e-06  -2.6800370e-05  -7.5333946e-06  -7.9337980e-05  -6.7358771e-05   5.7211573e-06   5.9083500e-06   4.1516476e-05  -1.0898276e-04  -6.9964401e-05  -6.6258872e-05  -1.3958905e-05  -1.2466007e-05  -5.5702531e-05  -9.3887802e-06
  -8.4235489e-06   6.5153254e-06  -3.6794504e-06   1.6950176e-05  -1.6475537e-05  -4.6505929e-06  -1.8188637e-05  -2.6053585e-05  -5.2687661e-05  -1.8637938e-05  -3.8543491e-05  -2.9799283e-05   1.3433876e-05  -9.9120762e-06  -8.9886826e-06  -1.9523250e-05  -1.5225361e-05  -2.0080863e-05  -3.0864037e-05  -3.2162875e-06   2.4664969e-05   9.4333234e-05  -5.1769792e-05  -6.8469039e-05  -4.0067756e-05  -4.4495609e-05  -4.2315885e-05  -9.2619612e-06  -4.6526457e-05  -1.4185856e-06  -1.6850927e-05  -3.7533729e-05  -4.0116978e-05  -8.9613359e-06  -4.9214582e-06  -1.5979637e-06  -3.1953692e-05  -1.0654716e-05  -8.7996727e-05  -7.0768961e-05   1.4786402e-06   2.6939551e-07   3.8072147e-05  -1.1195111e-04  -7.5505355e-05  -7.0122180e-05  -1.5031063e-05  -1.4563866e-05  -5.7993533e-05  -1.0601952e-05
  -1.3816388e-05   3.1054531e-06  -4.9362275e-06   1.3396544e-05  -1.7637798e-05  -1.1104700e-05  -2.3157485e-05  -2.9477211e-05  -5.9680853e-05  -2.1874052e-05  -4.2962714e-05  -3.0084289e-05   9.8612027e-06  -1.1999497e-05  -1.3579993e-05  -2.1380562e-05  -1.9196868e-05  -2.2593185e-05  -3.3626791e-05  -5.1150455e-06   2.7165079e-05   9.4385643e-05  -5.5279674e-05  -7.2620074e-05  -4.3144184e-05  -4.4922668e-05  -4.4257125e-05  -1.2510461e-05  -4.7288253e-05  -3.7039072e-06  -1.9069290e-05  -3.8689814e-05  -4.1943804e-05  -1.1723563e-05  -7.4604663e-06  -4.4987505e-06  -3.6388530e-05  -1.3609654e-05  -9.5189462e-05  -7.3603966e-05  -2.3258258e-06  -4.9361256e-06   3.4858760e-05  -1.1432945e-04  -8.1015576e-05  -7.3877258e-05  -1.6512919e-05  -1.6232612e-05  -6.0179911e-05  -1.1391953e-05
  -1.8992410e-05  -9.9053686e-08  -6.0164357e-06   1.0052563e-05  -1.8753712e-05  -1.6929887e-05  -2.7966009e-05  -3.2908116e-05  -6.5518354e-05  -2.4939711e-05  -4.7058405e-05  -3.0150355e-05   6.4972237e-06  -1.3858993e-05  -1.7691287e-05  -2.3286093e-05  -2.3054392e-05  -2.5120700e-05  -3.5634639e-05  -6.5000454e-06   2.9136483e-05   9.4115734e-05  -5.8508733e-05  -7.6051772e-05  -4.6142792e-05  -4.5388941e-05  -4.5971483e-05  -1.5364851e-05  -4.7613750e-05  -5.8032374e-06  -2.1183194e-05  -3.9814826e-05  -4.3202770e-05  -1.4198694e-05  -9.4042025e-06  -7.2180078e-06  -3.9882318e-05  -1.6305043e-05  -1.0065534e-04  -7.5744458e-05  -5.4694310e-06  -9.3784438e-06   3.2190117e-05  -1.1602075e-04  -8.6349763e-05  -7.7394259e-05  -1.8385559e-05  -1.7418290e-05  -6.2115687e-05  -1.1688194e-05
  -2.3826282e-05  -3.0002218e-06  -6.8972813e-06   7.0589122e-06  -1.9819889e-05  -2.1980972e-05  -3.2535361e-05  -3.6268419e-05  -7.0032154e-05  -2.7818729e-05  -5.0720966e-05  -3.0058196e-05   3.4343782e-06  -1.5396074e-05  -2.1211934e-05  -2.5189473e-05  -2.6654201e-05  -2.7592789e-05  -3.6852638e-05  -7.3615493e-06   3.0438210e-05   9.3436451e-05  -6.1388731e-05  -7.8651246e-05  -4.9090777e-05  -4.5945148e-05  -4.7471807e-05  -1.7729497e-05  -4.7554269e-05  -7.6003448e-06  -2.3107697e-05  -4.0886312e-05  -4.3897391e-05  -1.6305030e-05  -1.0691603e-05  -9.6836993e-06  -4.2238604e-05  -1.8653904e-05  -1.0418111e-04  -7.7096156e-05  -7.7621808e-06  -1.2776360e-05   3.0337780e-05  -1.1692481e-04  -9.1335001e-05  -8.0533544e-05  -2.0588333e-05  -1.8095030e-05  -6.3637846e-05  -1.1458210e-05
  -2.8191984e-05  -5.5031173e-06  -7.5555126e-06   4.5417050e-06  -2.0831709e-05  -2.6131102e-05  -3.6784280e-05  -3.9482598e-05  -7.3086434e-05  -3.0492110e-05  -5.3846405e-05  -2.9847535e-05   7.6384396e-07  -1.6537868e-05  -2.4049888e-05  -2.7033144e-05  -2.9868237e-05  -2.9936125e-05  -3.7261412e-05  -7.7102850e-06   3.0989569e-05   9.2283473e-05  -6.3843341e-05  -8.0314298e-05  -5.1985862e-05  -4.6620295e-05  -4.8760012e-05  -1.9525836e-05  -4.7157559e-05  -8.9951145e-06  -2.4760446e-05  -4.1878942e-05  -4.4025361e-05  -1.7964114e-05  -1.1284763e-05  -1.1823234e-05  -4.3304008e-05  -2.0582800e-05  -1.0561394e-04  -7.7588928e-05  -9.0547610e-06  -1.4911549e-05   2.9512497e-05  -1.1695187e-04  -9.5778640e-05  -8.3149287e-05  -2.3040240e-05  -1.8264996e-05  -6.4583161e-05  -1.0711909e-05
  -3.1954514e-05  -7.5188132e-06  -7.9736137e-06   2.6087487e-06  -2.1782849e-05  -2.9285860e-05  -4.0627419e-05  -4.2474159e-05  -7.4596268e-05  -3.2933352e-05  -5.6339733e-05  -2.9553752e-05  -1.4344279e-06  -1.7230583e-05  -2.6134701e-05  -2.8756989e-05  -3.2582968e-05  -3.2072494e-05  -3.6868187e-05  -7.5837406e-06   3.0769363e-05   9.0634239e-05  -6.5784174e-05  -8.0964797e-05  -5.4792967e-05  -4.7412988e-05  -4.9829454e-05  -2.0694899e-05  -4.6460838e-05  -9.9125846e-06  -2.6074093e-05  -4.2760286e-05  -4.3582382e-05  -1.9110406e-05  -1.1164830e-05  -1.3561330e-05  -4.2962129e-05  -2.2031816e-05  -1.0486649e-04  -7.7185046e-05  -9.2607715e-06  -1.5652920e-05   2.9835652e-05  -1.1602630e-04  -9.9483339e-05  -8.5101645e-05  -2.5635467e-05  -1.7964287e-05  -6.4786749e-05  -9.4994912e-06
  -3.4987712e-05  -8.9741334e-06  -8.1383714e-06   1.3407406e-06  -2.2663449e-05  -3.1376559e-05  -4.3973090e-05  -4.5174111e-05  -7.4525888e-05  -3.5104673e-05  -5.8117312e-05  -2.9195649e-05  -3.0952729e-06  -1.7442628e-05  -2.7421402e-05  -3.0300536e-05  -3.4712048e-05  -3.3929722e-05  -3.5704528e-05  -7.0477645e-06   2.9839717e-05   8.8510897e-05  -6.7126290e-05  -8.0549922e-05  -5.7448266e-05  -4.8298269e-05  -5.0659186e-05  -2.1202402e-05  -4.5474957e-05  -1.0299780e-05  -2.6999192e-05  -4.3493561e-05  -4.2551030e-05  -1.9690851e-05  -1.0338850e-05  -1.4828532e-05  -4.1153377e-05  -2.2959206e-05  -1.0192589e-04  -7.5875614e-05  -8.3476270e-06  -1.4957923e-05   3.1339474e-05  -1.1409695e-04  -1.0226118e-04  -8.6262153e-05  -2.8256911e-05  -1.7260769e-05  -6.4113243e-05  -7.9154652e-06
  -3.7173373e-05  -9.8079618e-06  -8.0405971e-06   7.8947403e-07  -2.3460503e-05  -3.2365529e-05  -4.6728303e-05  -4.7513389e-05  -7.2892202e-05  -3.6964128e-05  -5.9130009e-05  -2.8780390e-05  -4.1710878e-06  -1.7171784e-05  -2.7892520e-05  -3.1602893e-05  -3.6196703e-05  -3.5437635e-05  -3.3829365e-05  -6.1887886e-06   2.8330593e-05   8.5975298e-05  -6.7792258e-05  -7.9056976e-05  -5.9851205e-05  -4.9219936e-05  -5.1213145e-05  -2.1039634e-05  -4.4194519e-05  -1.0137612e-05  -2.7503200e-05  -4.4041790e-05  -4.0909945e-05  -1.9670440e-05  -8.8360348e-06  -1.5560607e-05  -3.7876667e-05  -2.3339537e-05  -9.6853852e-05  -7.3681855e-05  -6.3444063e-06  -1.2880145e-05   3.3941793e-05  -1.1114265e-04  -1.0394354e-04  -8.6526037e-05  -3.0789688e-05  -1.6242397e-05  -6.2444538e-05  -6.0759876e-06
  -3.8414568e-05  -9.9790868e-06  -7.6746901e-06   9.8290798e-07  -2.4153413e-05  -3.2254771e-05  -4.8802562e-05  -4.9438368e-05  -6.9769303e-05  -3.8466958e-05  -5.9346399e-05  -2.8310311e-05  -4.6374057e-06  -1.6441165e-05  -2.7555447e-05  -3.2609631e-05  -3.7011250e-05  -3.6530721e-05  -3.1321404e-05  -5.1137772e-06   2.6439766e-05   8.3144878e-05  -6.7719091e-05  -7.6511365e-05  -6.1880914e-05  -5.0099079e-05  -5.1442705e-05  -2.0223979e-05  -4.2583652e-05  -9.4401485e-06  -2.7577045e-05  -4.4364057e-05  -3.8632712e-05  -1.9035293e-05  -6.7026572e-06  -1.5710257e-05  -3.3185566e-05  -2.3167569e-05  -8.9784742e-05  -7.0653157e-05  -3.3438355e-06  -9.5655905e-06   3.7464877e-05  -1.0718119e-04  -1.0439283e-04  -8.5819680e-05  -3.3121611e-05  -1.5021567e-05  -5.9702397e-05  -4.1317817e-06
  -3.8642855e-05  -9.4654652e-06  -7.0375854e-06   1.9173308e-06  -2.4718225e-05  -3.1079489e-05  -5.0110444e-05  -5.0898376e-05  -6.5282984e-05  -3.9565479e-05  -5.8772814e-05  -2.7781251e-05  -4.4916287e-06  -1.5301737e-05  -2.6446036e-05  -3.3272845e-05  -3.7160058e-05  -3.7158603e-05  -2.8279361e-05  -3.9428833e-06   2.4424389e-05   8.0170648e-05  -6.6863729e-05  -7.2971103e-05  -6.3390093e-05  -5.0837421e-05  -5.1288640e-05  -1.8797535e-05  -4.0584120e-05  -8.2524311e-06  -2.7232663e-05  -4.4424080e-05  -3.5687710e-05  -1.7797132e-05  -4.0088394e-06  -1.5245601e-05  -2.7193437e-05  -2.2457707e-05  -8.0926729e-05  -6.6859531e-05   5.0824571e-07  -5.2373548e-06   4.1631716e-05  -1.0226932e-04  -1.0351417e-04  -8.4102561e-05  -3.5157271e-05  -1.3715648e-05  -5.5839402e-05  -2.2395734e-06
  -3.7813978e-05  -8.2712913e-06  -6.1292599e-06   3.5609321e-06  -2.5133186e-05  -2.8908233e-05  -5.0577673e-05  -5.1859734e-05  -5.9602859e-05  -4.0216950e-05  -5.7448538e-05  -2.7192731e-05  -3.7592856e-06  -1.3823155e-05  -2.4622195e-05  -3.3553079e-05  -3.6677706e-05  -3.7276954e-05  -2.4817889e-05  -2.8024870e-06   2.2576585e-05   7.7241108e-05  -6.5209933e-05  -6.8538298e-05  -6.4230058e-05  -5.1322026e-05  -5.0686755e-05  -1.6822014e-05  -3.8120252e-05  -6.6461589e-06  -2.6502266e-05  -4.4184380e-05  -3.2050193e-05  -1.5987991e-05  -8.3351512e-07  -1.4151814e-05  -2.0067757e-05  -2.1236910e-05  -7.0548107e-05  -6.2394291e-05   5.0234598e-06  -1.8974981e-07   4.6082921e-05  -9.6508331e-05  -1.0125725e-04  -8.1377351e-05  -3.6818030e-05  -1.2450510e-05  -5.0850213e-05  -5.5693431e-07
  -3.5919755e-05  -6.4172664e-06  -4.9491227e-06   5.8565684e-06  -2.5364930e-05  -2.5845799e-05  -5.0142338e-05  -5.2298808e-05  -5.2942731e-05  -4.0378625e-05  -5.5436194e-05  -2.6542712e-05  -2.4870326e-06  -1.2095902e-05  -2.2162785e-05  -3.3425513e-05  -3.5620007e-05  -3.6859368e-05  -2.1057120e-05  -1.8167551e-06   2.1216909e-05   7.4563824e-05  -6.2762425e-05  -6.3342341e-05  -6.4245382e-05  -5.1438110e-05  -4.9565191e-05  -1.4379636e-05  -3.5098936e-05  -4.7207463e-06  -2.5430498e-05  -4.3615146e-05  -2.7696116e-05  -1.3672310e-05   2.7295694e-06  -1.2438816e-05  -1.2019425e-05  -1.9551388e-05  -5.8974809e-05  -5.7364050e-05   9.9728386e-06   5.2367113e-06   5.0403763e-05  -9.0036403e-05  -9.7618984e-05  -7.7684148e-05  -3.8055372e-05  -1.1339338e-05  -4.4767476e-05   7.6911084e-07
  -3.2990618e-05  -3.9499591e-06  -3.5043752e-06   8.7230310e-06  -2.5386751e-05  -2.2022394e-05  -4.8762140e-05  -5.2204152e-05  -4.5539484e-05  -4.0020928e-05  -5.2826588e-05  -2.5836927e-05  -7.4528725e-07  -1.0226168e-05  -1.9164669e-05  -3.2877946e-05  -3.4068453e-05  -3.5892408e-05  -1.7118198e-05  -1.0991520e-06   2.0655692e-05   7.2355862e-05  -5.9556438e-05  -5.7541289e-05  -6.3290528e-05  -5.1069299e-05  -4.7862606e-05  -1.1567161e-05  -3.1422765e-05  -2.5904894e-06  -2.4075425e-05  -4.2688498e-05  -2.2617603e-05  -1.0931781e-05   6.5765489e-06  -1.0136781e-05  -3.3047113e-06  -1.7455952e-05  -4.6575198e-05  -5.1882816e-05   1.5109021e-05   1.0680103e-05   5.4147349e-05  -8.3031264e-05  -9.2643008e-05  -7.3105140e-05  -3.8838814e-05  -1.0480708e-05  -3.7656082e-05   1.6162739e-06
  -2.9085015e-05  -9.3371153e-07  -1.7992040e-06   1.2059510e-05  -2.5171146e-05  -1.7594968e-05  -4.6417281e-05  -5.1578525e-05  -3.7652233e-05  -3.9121405e-05  -4.9728882e-05  -2.5088533e-05   1.3831757e-06  -8.3213190e-06  -1.5734358e-05  -3.1906951e-05  -3.2112850e-05  -3.4375858e-05  -1.3120337e-05  -7.3928283e-07   2.1192485e-05   7.0827140e-05  -5.5648041e-05  -5.1311319e-05  -6.1244784e-05  -5.0112605e-05  -4.5516914e-05  -8.4898766e-06  -2.7003507e-05  -3.8423346e-07  -2.2503766e-05  -4.1384563e-05  -1.6821143e-05  -7.8711382e-06   1.0604898e-05  -7.2989178e-06   5.7948760e-06  -1.5014123e-05  -3.3746270e-05  -4.6075005e-05   2.0174670e-05   1.5777679e-05   5.6869467e-05  -7.5696320e-05  -8.6421947e-05  -6.7756315e-05  -3.9171086e-05  -9.9518484e-06  -2.9617278e-05   1.8983794e-06
  -2.4296696e-05   2.5454126e-06   1.5342883e-07   1.5748043e-05  -2.4690522e-05  -1.2739702e-05  -4.3116470e-05  -5.0436061e-05  -2.9544104e-05  -3.7675629e-05  -4.6263733e-05  -2.4323232e-05   3.7921895e-06  -6.4902083e-06  -1.1993213e-05  -3.0528263e-05  -2.9847901e-05  -3.2330128e-05  -9.1692309e-06  -8.1055970e-07   2.3075359e-05   7.0162729e-05  -5.1114304e-05  -4.4840544e-05  -5.8012607e-05  -4.8485053e-05  -4.2487707e-05  -5.2601263e-06  -2.1765583e-05   1.7688600e-06  -2.0775296e-05  -3.9692382e-05  -1.0338790e-05  -4.6106857e-06   1.4702564e-05  -3.9951783e-06   1.4975089e-05  -1.2299919e-05  -2.0899970e-05  -4.0058691e-05   2.4920419e-05   2.0188538e-05   5.8151778e-05  -6.8254980e-05  -7.9082660e-05  -6.1786450e-05  -3.9069240e-05  -9.7976717e-06  -2.0778527e-05   1.5642539e-06
  -1.8743114e-05   6.3929424e-06   2.3385317e-06   1.9663283e-05  -2.3928464e-05  -7.6427223e-06  -3.8894348e-05  -4.8803562e-05  -2.1473366e-05  -3.5690828e-05  -4.2557102e-05  -2.3570188e-05   6.3817242e-06  -4.8330135e-06  -8.0580794e-06  -2.8769755e-05  -2.7367789e-05  -2.9787760e-05  -5.3597869e-06  -1.3432496e-06   2.6494783e-05   7.0513044e-05  -4.6047415e-05  -3.8312493e-05  -5.3542284e-05  -4.6127017e-05  -3.8751394e-05  -1.9870511e-06  -1.5661628e-05   3.7453506e-06  -1.8952198e-05  -3.7609778e-05  -3.2246469e-06  -1.2832355e-06   1.8764522e-05  -3.1543286e-07   2.3927298e-05  -9.3818498e-06  -8.4484891e-06  -3.3953511e-05   2.9115979e-05   2.3617869e-05   5.7640427e-05  -6.0934904e-05  -7.0790556e-05  -5.5362005e-05  -3.8575010e-05  -1.0034936e-05  -1.1297581e-05   6.1426402e-07
  -1.2564456e-05   1.0497077e-05   4.7365315e-06   2.3668250e-05  -2.2870800e-05  -2.4960993e-06  -3.3816879e-05  -4.6718258e-05  -1.3685286e-05  -3.3194327e-05  -3.8726041e-05  -2.2865304e-05   9.0353233e-06  -3.4411210e-06  -4.0539476e-06  -2.6670899e-05  -2.4761066e-05  -2.6797550e-05  -1.7685801e-06  -2.3435189e-06   3.1561551e-05   7.1976705e-05  -4.0549945e-05  -3.1908447e-05  -4.7821850e-05  -4.3010576e-05  -3.4303132e-05   1.2200819e-06  -8.6853825e-06   5.4324037e-06  -1.7084925e-05  -3.5142471e-05   4.4384583e-06   1.9800041e-06   2.2689130e-05   3.6375272e-06   3.2344884e-05  -6.3365824e-06   3.2140379e-06  -2.7870085e-05   3.2558211e-05   2.5832782e-05   5.5069992e-05  -5.3957880e-05  -6.1731917e-05  -4.8666923e-05  -3.7740785e-05  -1.0643628e-05  -1.3473662e-06  -9.1090180e-07
  -5.9118547e-06   1.4748259e-05   7.3183705e-06   2.7631731e-05  -2.1515621e-05   2.5110528e-06  -2.7983122e-05  -4.4229713e-05  -6.3997886e-06  -3.0230409e-05  -3.4882665e-05  -2.2252929e-05   1.1649858e-05  -2.3827556e-06  -9.9186423e-08  -2.4283860e-05  -2.2101878e-05  -2.3422523e-05   1.5389315e-06  -3.7768975e-06   3.8306702e-05   7.4587086e-05  -3.4726520e-05  -2.5789137e-05  -4.0893679e-05  -3.9141105e-05  -2.9173378e-05   4.2635265e-06  -8.7261446e-07   6.7382421e-06  -1.5210943e-05  -3.2310782e-05   1.2534354e-05   5.0438148e-06   2.6377038e-05   7.7488849e-06   3.9934341e-05  -3.2360899e-06   1.3720851e-05  -2.1912885e-05   3.5088749e-05   2.6675378e-05   5.0286057e-05  -4.7527737e-05  -5.2109990e-05  -4.1886720e-05  -3.6630852e-05  -1.1577193e-05   8.8773722e-06  -2.9277430e-06
   1.0509335e-06   1.9027271e-05   1.0048586e-05   3.1420830e-05  -1.9870484e-05   7.1991926e-06  -2.1520997e-05  -4.1396172e-05   1.9330858e-07  -2.6860338e-05  -3.1119132e-05  -2.1772366e-05   1.4126852e-05  -1.7032052e-06   3.6981876e-06  -2.1667482e-05  -1.9445173e-05  -1.9738121e-05   4.5144202e-06  -5.5816740e-06   4.6659232e-05   7.8315679e-05  -2.8679375e-05  -2.0096075e-05  -3.2843123e-05  -3.4557459e-05  -2.3417488e-05   7.0564115e-06   7.6897868e-06   7.5933863e-06  -1.3352925e-05  -2.9142413e-05   2.0922231e-05   7.7862960e-06   2.9735051e-05   1.1897823e-05   4.6432808e-05  -1.4869561e-07   2.2751372e-05  -1.6173446e-05   3.6595196e-05   2.6072510e-05   4.3257234e-05  -4.1818330e-05  -4.2139276e-05  -3.5201916e-05  -3.5305529e-05  -1.2752464e-05   1.9173864e-05  -5.3135236e-06
   8.1676235e-06   2.3222081e-05   1.2883963e-05   3.4913563e-05  -1.7956252e-05   1.1406771e-05  -1.4582449e-05  -3.8281560e-05   5.9400350e-06  -2.3162340e-05  -2.7507169e-05  -2.1463033e-05   1.6380249e-05  -1.4293847e-06   7.2322937e-06  -1.8888881e-05  -1.6833654e-05  -1.5830550e-05   7.1182722e-06  -7.6634569e-06   5.6463647e-05   8.3056548e-05  -2.2507877e-05  -1.4942299e-05  -2.3811830e-05  -2.9336339e-05  -1.7123963e-05   9.5204841e-06   1.6860573e-05   7.9557112e-06  -1.1522080e-05  -2.5679337e-05   2.9428551e-05   1.0097488e-05   3.2683794e-05   1.5964897e-05   5.1606210e-05   2.8598429e-06   3.0036810e-05  -1.0735655e-05   3.7014594e-05   2.4032781e-05   3.4079498e-05  -3.6967998e-05  -3.2024720e-05  -2.8776883e-05  -3.3829507e-05  -1.4070351e-05   2.9333380e-05  -7.9213669e-06
   1.5284191e-05   2.7220451e-05   1.5769490e-05   3.8001064e-05  -1.5806920e-05   1.4991218e-05  -7.3453757e-06  -3.4960889e-05   1.0720481e-05  -1.9231906e-05  -2.4099365e-05  -2.1358408e-05   1.8339328e-05  -1.5567973e-06   1.0412179e-05  -1.6019943e-05  -1.4290809e-05  -1.1797842e-05   9.3200333e-06  -9.9096578e-06   6.7475710e-05   8.8635228e-05  -1.6296275e-05  -1.0412897e-05  -1.3984974e-05  -2.3581439e-05  -1.0406126e-05   1.1597793e-05   2.6441678e-05   7.8146413e-06  -9.7145785e-06  -2.1974151e-05   3.7863785e-05   1.1888009e-05   3.5147037e-05   1.9823881e-05   5.5262990e-05   5.7296470e-06   3.5368710e-05  -5.6750609e-06   3.6334786e-05   2.0643405e-05   2.2970466e-05  -3.3067383e-05  -2.1965230e-05  -2.2753398e-05  -3.2252559e-05  -1.5412530e-05   3.9147348e-05  -1.0586461e-05
