   3.8040176e-04   4.6474126e-04   1.7493569e-04  -1.8480963e-04   1.0495463e-04   3.3475045e-04   3.1141643e-04  -1.5471480e-04  -3.7866335e-05   7.7935000e-04   2.1903381e-04   4.1495546e-04  -6.5924228e-06   1.0470685e-04   5.0531927e-04  -2.8538625e-05  -1.0304184e-04   1.5569387e-04   1.3907627e-03   2.3183547e-04   2.3993426e-03   1.2638017e-03   1.3332005e-04   2.9842055e-04   3.6415504e-04  -1.0291226e-04   4.0125969e-04   2.3323970e-04   4.6485342e-04  -1.8013806e-04   4.6796416e-04   1.2091265e-04   6.5168337e-04   3.4447687e-05   1.0567670e-04   6.9534988e-05   6.8492271e-05   6.3022024e-05  -6.9149777e-05   2.5601084e-05  -3.1449957e-04  -9.6042623e-04  -9.3098811e-04  -1.8433222e-04   3.6659837e-04  -4.6796000e-04   1.1361160e-04  -5.2355177e-04   1.5393365e-04  -9.2380395e-04
   3.2081493e-04   4.3756637e-04   1.3461469e-04  -2.9770524e-04   7.6770470e-05   2.2017291e-04   2.1909084e-04  -1.5175859e-04  -1.6129232e-04   5.7370565e-04   1.0309048e-04   2.3200881e-04  -7.4559313e-05   5.9539583e-05   4.4911366e-04  -6.5796929e-05  -1.7692587e-04   1.0659471e-04   1.1497537e-03   1.3222790e-04   2.2523820e-03   1.0621306e-03   1.1242181e-05   1.1499719e-04   2.3012792e-04  -2.2991300e-04   3.6091066e-04   2.2105644e-04   4.5060032e-04  -1.9574942e-04   3.6013307e-04   1.6235741e-05   5.6079810e-04  -1.1595432e-04   4.2772259e-05  -1.0314520e-04   4.7895155e-05  -4.1913758e-05  -3.4518147e-05  -9.4244489e-05  -4.7050245e-04  -1.0696141e-03  -1.0285914e-03  -5.4285425e-04   1.6484801e-04  -5.2550918e-04  -1.7145660e-04  -8.6100970e-04  -7.7090954e-05  -1.0298206e-03
   7.7557939e-05   1.6925094e-04  -1.4293073e-04  -6.1070942e-04  -1.0990344e-04   3.8128852e-05  -1.5043405e-05  -3.1722017e-04  -4.7586672e-04   2.1066971e-04  -2.0807443e-04  -1.1368390e-04  -2.5590620e-04  -7.6643730e-05   3.6450755e-04  -1.9107017e-04  -3.6381438e-04  -2.4482977e-05   1.0064638e-03   6.4262281e-06   2.1169249e-03   9.9682482e-04  -3.5794437e-05   1.0361963e-04   1.9403030e-04  -2.2936131e-04   3.4688367e-04   2.3578819e-04   4.9023301e-04  -2.0268696e-04   3.8912010e-04   4.9866594e-05   6.8215013e-04  -2.1361360e-05   1.5836077e-04   1.0363948e-04   2.1684291e-04   5.0041970e-05   3.5734123e-05   1.1285858e-04  -2.0548643e-04  -8.7567489e-04  -7.6760602e-04   7.1708564e-05   4.8452831e-04  -2.7324664e-04   2.3142804e-04  -2.6459774e-04   2.7611697e-04  -8.2295464e-04
   3.4515664e-04   4.5917436e-04   1.4694447e-04  -1.8626574e-04   1.0465459e-04   2.7134109e-04   2.5986132e-04  -8.7334403e-05  -9.3265422e-05   5.3179538e-04   1.0538068e-04   1.1413374e-04  -9.0720263e-05   6.5516215e-05   4.2891825e-04  -3.2448283e-05  -1.2229312e-04   1.3785712e-04   1.2086423e-03   1.6360045e-04   2.1846320e-03   1.0737022e-03   2.9191971e-05   1.7551697e-04   2.7493128e-04  -1.4374232e-04   3.6003877e-04   2.3454615e-04   4.5609282e-04  -1.3328056e-04   3.8444708e-04   3.7582457e-05   5.8398262e-04  -1.5912050e-05   1.0110557e-04   2.9602499e-05   1.2511713e-04   5.8644593e-05   3.6931815e-05   3.9938714e-05  -2.3418484e-04  -8.9587620e-04  -6.7654671e-04  -2.1955262e-04   2.9290273e-04  -2.8565421e-04   7.3356197e-05  -4.5588554e-04  -1.3993832e-05  -8.2380220e-04
   1.9515114e-04   2.6149067e-04  -3.9891769e-05  -4.3647649e-04  -3.6269194e-05   1.1155228e-04   1.1154768e-04  -2.3223578e-04  -3.1029279e-04   3.1135094e-04  -1.1240965e-04  -1.2439690e-04  -2.2318319e-04  -7.5658409e-06   4.0319975e-04  -1.3660913e-04  -2.1442566e-04   6.1021958e-05   9.5471635e-04  -3.1857609e-05   1.8492645e-03   8.0995564e-04  -1.5807548e-04  -3.4111490e-05   9.8222001e-05  -3.4990037e-04   2.8594706e-04   1.7760880e-04   3.7084997e-04  -1.8934335e-04   2.1665976e-04  -1.2367469e-04   2.9393664e-04  -2.1857677e-04   1.1894098e-06  -2.5679698e-04   3.8184906e-05  -1.1196467e-04  -3.0756523e-06  -3.0539423e-04  -4.3361838e-04  -1.0101412e-03  -7.5744925e-04  -7.2793942e-04  -8.4283573e-05  -5.5895140e-04  -2.8476497e-04  -7.7100133e-04  -4.1275891e-04  -9.7758044e-04
  -7.7003351e-05   2.8768376e-05  -3.2696352e-04  -7.3094969e-04  -2.3854336e-04  -9.7566663e-06  -8.6192398e-05  -4.1242616e-04  -4.1647797e-04   1.3866441e-04  -3.0155390e-04  -2.7283121e-04  -2.6740989e-04  -6.6242064e-05   4.0540929e-04  -1.3685726e-04  -2.0182214e-04   2.6918369e-05   1.0650749e-03   4.4512348e-05   1.8072596e-03   8.6807954e-04  -7.9796497e-05   1.8517293e-04   2.1383182e-04  -1.8764939e-04   2.6245785e-04   1.9510627e-04   3.5421434e-04  -1.1555357e-04   3.8095520e-04  -4.3903579e-05   4.8265242e-04   2.5247813e-05   1.6022472e-04   8.3407984e-05   2.1958274e-04   4.4114866e-05   5.7022313e-05   9.6091593e-05   7.1839619e-05  -5.3227437e-04  -1.9316128e-04   5.5746343e-05   2.4939500e-04  -1.6615111e-04   1.8441294e-04  -3.7294056e-05   2.9806270e-05  -6.4066076e-04
   1.9319756e-04   3.3911935e-04   9.0032981e-06  -3.2760677e-04   3.4591542e-06   1.9665624e-04   2.1500426e-04  -1.2372775e-04  -1.4567682e-04   3.1007000e-04  -2.8392065e-05  -1.0682241e-04  -9.5328127e-05   3.8079983e-05   3.9427940e-04  -1.8281651e-05  -6.2600157e-05   1.3146462e-04   1.1094370e-03   1.4602607e-04   1.9374471e-03   9.9307531e-04  -1.0753070e-05   1.8023574e-04   2.4437922e-04  -7.9074955e-05   2.8192197e-04   1.8933549e-04   3.6488945e-04  -7.4208314e-05   3.6118049e-04  -2.3368102e-05   5.0560868e-04   1.3239715e-05   9.5679359e-05   6.6517212e-05   1.3448847e-04   7.5736622e-05   1.2811905e-05   8.4868712e-05  -1.3778705e-04  -5.3181534e-04  -3.9216547e-04  -1.5739886e-04   3.3954249e-04  -2.5806815e-04   1.4286833e-04  -3.2898676e-04   1.1456304e-04  -7.1894500e-04
   7.0906994e-05   1.9537722e-04  -1.3213410e-04  -5.1425531e-04  -8.8792673e-05   8.4941981e-05   6.8170673e-05  -2.0706265e-04  -3.2609256e-04   9.7838398e-05  -2.0133238e-04  -3.7894229e-04  -1.8685467e-04  -4.4255965e-05   3.4733198e-04  -9.8830256e-05  -2.1983669e-04   6.2938110e-05   8.2089944e-04  -9.3690127e-05   1.7926570e-03   8.5809920e-04  -1.4147341e-04  -2.2540256e-05   1.1146923e-04  -2.2047199e-04   2.8961815e-04   1.5794112e-04   3.9537778e-04  -1.3582132e-04   2.0582491e-04  -1.3836783e-04   3.5292548e-04  -1.9858054e-04   2.7493399e-05  -1.7512699e-04   5.1873096e-05  -4.6506466e-05   2.0379717e-05  -1.8095360e-04  -4.4267604e-04  -7.8855408e-04  -8.2384725e-04  -5.4529449e-04   1.3144838e-04  -4.0360936e-04  -1.4022549e-04  -8.3968556e-04  -1.7000343e-04  -8.7263936e-04
  -1.9659007e-04  -5.2350573e-05  -4.0212873e-04  -8.3725748e-04  -2.5516871e-04  -8.0874008e-05  -1.3979830e-04  -3.7331463e-04  -5.1646936e-04  -8.3094099e-05  -4.2193427e-04  -6.1858259e-04  -2.9964413e-04  -1.3031342e-04   3.0729355e-04  -1.2089504e-04  -2.8256216e-04   2.6754626e-05   9.8304416e-04  -8.0923295e-05   1.8184378e-03   9.6688623e-04  -5.8932321e-05   1.3658860e-04   2.2364817e-04  -3.9527098e-05   3.1576041e-04   2.0003341e-04   4.7470749e-04  -9.4597490e-05   3.3900727e-04  -8.1365015e-06   5.7573250e-04   2.1202874e-05   2.0308387e-04   1.6501140e-04   2.0301632e-04   1.2671940e-04   7.9418438e-05   1.9870604e-04  -2.0179728e-05  -4.7703451e-04  -4.1020414e-04   6.1949933e-05   5.5885856e-04  -4.6478319e-05   4.0502267e-04  -6.8980457e-06   3.6337457e-04  -5.3691771e-04
   1.7742217e-04   3.5505320e-04  -2.4625002e-05  -3.1617784e-04   1.2458146e-05   2.2770990e-04   2.3213553e-04  -8.6632346e-05  -1.2545531e-04   2.4468702e-04  -5.8297639e-05  -3.4931046e-04  -8.9179724e-05   7.0607719e-05   4.4681359e-04   3.9824008e-05  -1.7182525e-05   2.3146323e-04   1.0681219e-03  -2.7144251e-05   1.6897109e-03   9.2010701e-04  -4.2019856e-05   2.2468084e-04   2.6766336e-04  -3.6950452e-05   3.5666311e-04   2.1614753e-04   4.3561394e-04   1.8226050e-05   4.1214927e-04  -4.9930458e-07   4.0626625e-04   1.0896332e-04   1.7708709e-04   9.6724900e-05   1.9250115e-04   1.7991931e-04   7.6981829e-05   1.8881616e-04   1.7305743e-05  -4.6384413e-04  -2.2218093e-04  -9.1247755e-05   3.6146003e-04  -1.0001915e-04   2.6335000e-04  -1.0453465e-04   1.1606126e-05  -5.4584618e-04
   1.1372886e-04   2.6501267e-04  -1.6641278e-04  -4.5542404e-04  -7.9203513e-05   1.6502153e-04   1.1666022e-04  -1.7851232e-04  -2.7791050e-04   8.6556247e-05  -2.4109824e-04  -4.5907000e-04  -1.3676791e-04   3.8904214e-05   4.6239293e-04  -3.7479051e-05  -8.0454367e-05   1.8899800e-04   7.7608298e-04  -2.7170058e-04   1.4582997e-03   5.8842724e-04  -1.8333782e-04   6.6700828e-05   1.4364964e-04  -2.5206449e-04   3.4859151e-04   2.0087893e-04   4.4211035e-04  -2.4891244e-05   2.4824124e-04  -1.2331392e-04   1.6637011e-04  -9.4837676e-05   9.8691955e-05  -1.6240551e-04   8.2279214e-05   4.9106173e-05  -6.0740658e-06  -8.3282561e-05  -2.2728383e-04  -5.9074257e-04  -4.8695499e-04  -5.7234854e-04   8.4189152e-05  -4.0047025e-04   4.3098295e-05  -5.1079469e-04  -1.9295653e-04  -7.7361020e-04
  -8.5618783e-05   1.1743829e-04  -4.0246127e-04  -7.1025098e-04  -2.4369992e-04   2.1909938e-05  -5.8787464e-05  -3.5430194e-04  -5.0610513e-04  -1.6193246e-04  -4.8628898e-04  -6.6231668e-04  -2.6657066e-04  -9.8846423e-05   3.7200275e-04  -1.7885504e-04  -2.8078930e-04   7.5602351e-05   5.5677682e-04  -4.7632682e-04   1.3537982e-03   5.2973093e-04  -2.4458763e-04   6.6971690e-05   1.1383031e-04  -3.0858154e-04   3.5930562e-04   2.0999415e-04   4.7829168e-04  -7.9620375e-05   2.5656418e-04  -8.2780251e-05   2.0833169e-04   8.8314782e-06   2.1452228e-04   1.1005704e-04   2.0978152e-04   1.6289114e-04   6.2508348e-06   1.8373084e-04   3.5355843e-05  -3.7549480e-04  -3.4087256e-04   2.5270224e-04   5.5565103e-04  -1.6454697e-04   4.2086651e-04   2.9150306e-05   4.5466158e-04  -5.0658337e-04
   2.2734150e-04   4.7236111e-04  -2.4274470e-05  -2.7778937e-04   6.4662949e-05   3.2931173e-04   3.0715359e-04   9.5596079e-06  -7.6733682e-05   3.0738863e-04  -5.4731587e-05  -3.1340268e-04  -1.5562963e-06   1.6045345e-04   5.2037276e-04   1.1885658e-04  -1.1572441e-05   2.7637315e-04   1.0250102e-03  -1.7767076e-04   1.5931005e-03   7.6308206e-04   1.3995013e-05   1.4343410e-04   3.1064439e-04  -5.1966581e-05   4.7210458e-04   3.0584732e-04   5.5193726e-04   6.9092908e-05   2.8640125e-04   7.3968506e-05   2.8271772e-04   8.1531434e-05   2.3662094e-04   1.1054885e-04   2.1508208e-04   2.4567553e-04   1.1458835e-04   2.3855023e-04   1.5731985e-05  -4.4091427e-04  -2.7798323e-04   9.5885793e-05   4.7877146e-04  -1.8025297e-04   3.5882581e-04  -4.1905365e-05   3.9280075e-04  -5.1259494e-04
   1.0095080e-04   3.1404625e-04  -1.5068331e-04  -3.8455828e-04  -2.2293869e-05   2.3367751e-04   1.8454948e-04  -3.8149206e-05  -1.3483549e-04   1.7970371e-04  -1.2135996e-04  -5.5142748e-04  -9.2500253e-05   1.0681776e-04   5.0580763e-04   6.9318005e-05  -1.3899263e-04   1.8868176e-04   8.1522542e-04  -3.2691387e-04   1.5809678e-03   5.5056444e-04  -8.0452031e-05  -1.4041428e-04   1.9079796e-04  -1.8915898e-04   4.3637035e-04   2.9336443e-04   5.3959078e-04   3.2713480e-05   1.3158483e-04  -4.0258783e-05   1.2916100e-04  -9.6598131e-05   1.5966722e-04  -1.1844958e-04   1.6445336e-04   1.1184827e-04   9.9416473e-05  -9.3545077e-06  -2.1313483e-04  -7.5040787e-04  -5.0507247e-04  -3.4071578e-04   2.6067073e-04  -3.1242101e-04   4.2204897e-06  -4.3792327e-04   1.4233837e-04  -7.0036686e-04
  -1.2474487e-04   7.8637328e-05  -3.8077554e-04  -5.9995899e-04  -1.7688278e-04   6.4986918e-05  -1.4651108e-05  -1.9391220e-04  -3.7341815e-04  -6.8867914e-05  -3.2173283e-04  -7.6487794e-04  -2.5660766e-04  -4.2129988e-05   3.9973139e-04  -8.9917237e-05  -3.7353302e-04   2.8783592e-05   5.3288136e-04  -5.6207663e-04   1.4722642e-03   3.0016343e-04  -2.2154400e-04  -3.6752736e-04   3.2365249e-05  -3.7331050e-04   3.7353279e-04   2.1693137e-04   4.5062843e-04  -8.4215782e-05  -1.2334262e-05  -1.2746479e-04   1.0574363e-04  -2.3531094e-04   9.5335366e-05  -1.7676232e-04   7.0483380e-05   6.4107669e-05   2.4255887e-05   7.6233053e-05  -1.7259117e-04  -7.3983980e-04  -5.5539300e-04   1.3775700e-04   5.9472007e-04  -1.8618582e-04   2.8361334e-04  -9.0861395e-05   5.3522084e-04  -6.0646300e-04
   2.6545011e-05   2.9639489e-04  -8.4642255e-05  -3.2505838e-04   4.5657591e-05   2.1739406e-04   2.2098242e-04   5.3598491e-05   2.9205048e-05   3.3442859e-04   6.6117907e-05  -3.6901562e-04  -5.4511424e-05   1.1805345e-04   4.1433115e-04   1.3601198e-04  -1.6991905e-04   1.9478584e-04   1.0331933e-03  -2.6357561e-04   1.8776389e-03   6.8347418e-04   6.9074536e-05  -5.0551007e-05   2.8071392e-04   1.9225386e-05   3.7172082e-04   2.0879947e-04   3.3252317e-04   7.1059432e-05   1.2248727e-04   9.4175120e-05   4.2980135e-04   3.3343978e-05   1.2633594e-04   8.7439163e-05   1.3046849e-05   2.3161154e-04  -1.1681882e-04   2.0149663e-04  -3.5934190e-05  -6.0719711e-04  -4.2051112e-04   2.4606433e-04   6.8891048e-04  -4.3121025e-07   3.0573984e-04  -6.0725517e-05   6.9560017e-04  -5.2410830e-04
  -4.5391065e-05   2.0828604e-04  -9.6366675e-05  -4.1859836e-04   1.2214474e-05   3.8317376e-05   4.6879642e-05   1.5297661e-06  -1.8548933e-05   2.1663467e-04   1.8020948e-05  -3.6091750e-04  -9.5682568e-05   9.6452757e-05   2.9061848e-04   8.9332265e-05  -2.4791676e-04   1.4438432e-04   8.1776100e-04  -3.0830453e-04   1.8744956e-03   5.8616715e-04   6.6118450e-06  -1.6919372e-04   1.7410146e-04  -7.6060925e-05   3.0759000e-04   1.2994671e-04   1.7970159e-04   6.2546293e-05   1.0804994e-05   6.2365900e-05   4.5323087e-04  -3.7164548e-06   2.2349695e-05  -9.3134098e-05  -1.3595691e-04   1.4450678e-04  -2.5145890e-04   8.5462554e-05  -1.6311351e-04  -7.2013098e-04  -5.5680837e-04   9.7943512e-06   5.3025247e-04  -1.6368955e-04   3.2952918e-05  -3.4425777e-04   5.2689435e-04  -6.6172378e-04
  -2.9491037e-04  -3.2382955e-05  -3.3119935e-04  -5.1515538e-04  -1.3051095e-04  -1.8435012e-04  -2.0576865e-04  -1.5673824e-04  -2.4398779e-04  -2.5215320e-05  -1.7495226e-04  -4.7751833e-04  -2.2742653e-04  -1.5657039e-05   1.5292998e-04  -4.7295227e-05  -4.7648291e-04  -1.6804732e-05   3.7952678e-04  -5.3826958e-04   1.7272031e-03   4.4635966e-04  -1.2365067e-04  -3.4375960e-04   3.7290360e-05  -2.6206864e-04   1.9117555e-04   3.9447867e-05   5.6564859e-05  -2.0268484e-05  -2.2145906e-04  -4.3736094e-05   3.4786086e-04  -1.9838010e-04  -1.1717882e-04  -3.1854722e-04  -2.2788260e-04  -1.2413831e-05  -3.1315649e-04  -1.1467694e-04  -2.9774726e-04  -8.1952271e-04  -6.8113301e-04   1.1442016e-04   4.8710781e-04  -2.4938941e-04   3.3589982e-05  -3.6860470e-04   6.0594321e-04  -6.3320086e-04
  -2.4072672e-04   6.6312045e-05  -1.8148145e-04  -1.5942128e-04  -2.0758828e-06  -6.1512568e-05  -9.6064650e-05  -3.3012111e-05   4.4179193e-05   3.3022798e-04   8.0250684e-05  -1.7770143e-04  -7.4526870e-05   7.6855824e-05   1.6496141e-04   7.8588528e-05  -3.1586611e-04   8.5819927e-05   6.6546816e-04  -3.1843368e-04   1.8907887e-03   7.4113155e-04   9.6359159e-05  -5.9493719e-05   2.4907451e-04   3.1643787e-05   2.2862697e-04   4.6172187e-05   7.8852105e-07   1.2916607e-04  -6.9171845e-05   1.7855344e-04   5.4273993e-04   8.7683453e-05  -1.3844460e-05  -5.4770633e-05  -1.9071340e-04   1.6624652e-04  -2.5862255e-04   1.3355745e-04  -1.0913490e-04  -6.2973530e-04  -5.2054483e-04   2.8481270e-04   6.1941665e-04  -5.3287600e-05   1.4544754e-04  -1.8340004e-04   6.0431502e-04  -5.6306308e-04
  -1.8197585e-04   5.6262514e-05  -6.0988037e-05  -6.8103880e-05   3.2864737e-05  -2.9710662e-05  -9.3494054e-05   1.0401735e-04   1.0301013e-04   2.9955574e-04   1.6518935e-04  -2.2441868e-04  -2.2977656e-05   1.3984989e-04   1.2439834e-04   9.9842189e-05  -4.1885479e-04  -4.5652843e-05   3.9254484e-04  -3.1502717e-04   1.7331175e-03   5.2295066e-04   5.6438934e-05  -2.3277153e-04   1.5323913e-04  -9.0815731e-05   1.1032465e-04   3.8532595e-05  -2.0359101e-04   1.6675402e-04  -1.9375872e-04   1.6526699e-04   4.7781784e-04  -1.5880449e-06  -2.1279720e-05  -2.1572008e-04  -1.3158200e-04   4.3773449e-05  -1.3639084e-04   6.4611431e-06  -1.1405298e-04  -7.2460360e-04  -4.2144646e-04   1.7598324e-04   2.7281299e-04  -1.2556810e-04  -9.0300236e-05  -2.5117688e-04   2.2455539e-04  -6.2799099e-04
  -4.3131429e-04  -2.1234645e-04  -2.2299611e-04  -2.6209099e-04  -1.2194950e-04  -2.1868716e-04  -3.2305199e-04  -2.3820083e-05  -1.9972266e-04  -7.1510563e-05  -1.1513761e-04  -2.9592900e-04  -1.7311287e-04   1.0995243e-05  -9.0525136e-06  -6.5400032e-05  -5.8343896e-04  -1.6248677e-04  -5.9916561e-05  -4.9101782e-04   1.3859328e-03   4.7587315e-04  -1.1627854e-04  -3.1186687e-04  -2.2997685e-05  -2.0684156e-04   2.3150358e-05  -3.8684448e-05  -2.6920816e-04   9.6765136e-05  -3.4038510e-04  -4.3969645e-05   2.6022160e-04  -1.9928950e-04  -1.2160528e-04  -3.6688751e-04  -2.1338154e-04  -1.0201575e-04  -2.6807081e-04  -2.3354068e-04  -3.1423292e-04  -7.8045536e-04  -6.3230185e-04  -7.6730947e-05   1.2175846e-04  -2.7379967e-04  -2.6282124e-04  -5.2290264e-04   1.5009797e-04  -7.2967593e-04
  -3.6572898e-04  -1.8107913e-04  -8.3731800e-05  -1.2066017e-04  -6.1571933e-05  -1.3089841e-04  -2.2747580e-04  -1.4302321e-05  -4.1830132e-05   2.9662222e-04   1.0517260e-05  -7.7042832e-06  -7.8219018e-05   6.8208734e-05   5.7897494e-05   3.3646051e-05  -4.2739531e-04  -2.9651226e-05   4.0915605e-04  -2.2113354e-04   1.7191585e-03   9.2037214e-04   7.6238844e-05   5.7708767e-05   2.3350029e-04   8.5123735e-05   1.3039204e-04  -8.3572249e-06  -1.6643330e-04   1.7517582e-04  -1.2234211e-04   1.5212133e-04   7.7394518e-04   9.1649228e-05   1.2780474e-05  -9.2055467e-07  -1.3695311e-04   1.0441920e-04  -2.2364251e-04   1.4182064e-04  -1.6310494e-05  -5.0406397e-04  -4.4017233e-04   3.9310695e-04   5.4352375e-04   4.8237842e-05   5.2913376e-05  -1.1511325e-04   4.7986661e-04  -5.2391016e-04
  -1.5812743e-04   2.3581484e-05   1.2121880e-04  -1.3468664e-05   2.9250112e-05  -6.6686291e-05  -1.2512888e-04   7.9533347e-05   1.9477429e-05   4.2242557e-04   8.3362953e-05   8.5565240e-05  -3.4239492e-05   1.2452791e-04   1.1060668e-04   7.1834089e-05  -3.9985453e-04  -1.3409388e-06   4.1679901e-04  -9.3327944e-05   1.6208367e-03   1.0097406e-03   7.7763405e-05   2.9969546e-05   2.1263669e-04   5.0954124e-05   1.7305007e-04   4.2417229e-05  -9.4708230e-05   1.8783849e-04  -1.2810749e-04   1.4694021e-04   7.1956270e-04   3.0977444e-05  -6.7876913e-06  -1.2316932e-04  -1.1395437e-04   3.9783772e-05  -1.5068300e-04   3.3360149e-05  -1.7127689e-04  -5.8141339e-04  -6.0297444e-04   3.1646778e-04   4.1132228e-04  -8.3561958e-05  -2.7464474e-05  -3.9333839e-04   2.6836633e-04  -6.6123303e-04
  -3.1294432e-04  -1.3438928e-04  -4.3305499e-05  -2.1170470e-04  -1.1528791e-04  -1.8481771e-04  -2.9064008e-04  -2.0122907e-05  -1.8799544e-04   1.7093148e-04  -1.2064545e-04  -1.8628416e-04  -1.6828424e-04   1.4026381e-05   5.8479309e-05  -6.2429266e-05  -6.0297817e-04  -1.5249732e-04   1.1324748e-04  -2.7021070e-04   1.4626606e-03   7.5449579e-04  -9.0398258e-05  -2.1528495e-04   3.7948423e-05  -1.7467243e-04   1.3651475e-04   3.1172422e-05  -2.2069633e-05   6.7782064e-05  -2.8238978e-04  -2.5789419e-05   3.4480239e-04  -2.4681745e-04  -8.8532674e-05  -4.3159738e-04  -1.3203161e-04  -1.5434519e-04  -1.2852976e-04  -2.4959122e-04  -5.0445081e-04  -8.9685968e-04  -9.8707119e-04  -1.5664486e-04   1.2589293e-04  -4.6299788e-04  -3.3794437e-04  -9.8816620e-04  -6.1824525e-05  -9.1121020e-04
  -5.0134212e-04  -3.1201530e-04  -1.8145777e-04  -3.5105390e-04  -1.9874641e-04  -2.1436582e-04  -3.5959535e-04  -9.9235971e-05  -2.1234564e-04   2.6891060e-04  -1.2459405e-04  -2.1614182e-04  -1.6976279e-04  -3.4300127e-05   6.2952771e-05  -5.9275899e-05  -5.8556453e-04  -1.5640742e-04   3.6430141e-04  -1.4778563e-04   1.6346453e-03   9.7219337e-04   3.0227029e-05  -3.7469177e-05   1.5183557e-04   2.9329833e-05   1.4107476e-04   3.1444051e-05   2.3695911e-06   7.2931805e-05  -1.4514268e-04   6.0764665e-05   4.8209578e-04  -3.9771032e-05   2.3317831e-05  -1.2118337e-04   7.5114062e-06  -5.6509431e-05  -8.7449931e-05  -2.4745576e-05  -2.6247738e-04  -7.2088483e-04  -7.9094485e-04   2.9274047e-04   3.9778851e-04  -1.7867752e-04  -1.9220197e-05  -5.0383847e-04   1.6787885e-04  -7.4268295e-04
  -2.8388610e-04  -1.1066535e-04   2.5504611e-05  -1.6087908e-04  -8.0020036e-05  -1.0909932e-04  -2.4149667e-04   6.3141797e-06  -1.1408102e-04   2.7575574e-04  -4.0646799e-05  -1.8830322e-04  -1.6937080e-04  -1.1845756e-05   8.0680780e-05  -7.7921344e-05  -5.8328733e-04  -1.5037846e-04   3.3695096e-04  -1.9474195e-04   1.6242454e-03   8.9229655e-04  -3.0949508e-05  -1.5899232e-04   7.1621034e-05  -5.4718857e-05   1.3732628e-04   4.2173324e-05   3.3672288e-05   5.5135490e-05  -1.9911285e-04  -2.0852780e-05   3.9991917e-04  -1.4306958e-04  -1.7502980e-05  -2.5289014e-04  -2.7633132e-05  -1.4352927e-04  -1.1082444e-04  -1.5506381e-04  -3.5075020e-04  -8.9841906e-04  -9.3940744e-04   8.6159300e-05   2.4891383e-04  -2.7399298e-04  -1.9067786e-04  -8.1582967e-04   7.4195486e-05  -8.0897589e-04
  -3.9117120e-04  -2.1061726e-04  -1.1748727e-04  -3.0633001e-04  -1.9256130e-04  -2.4144819e-04  -3.6766048e-04  -1.1299819e-04  -3.3235268e-04   2.1448161e-05  -2.5585719e-04  -4.2821508e-04  -3.2886246e-04  -1.3417145e-04   1.8301544e-05  -2.0400716e-04  -7.2167336e-04  -2.4158988e-04   6.3918393e-05  -3.9095868e-04   1.3663529e-03   7.5296796e-04  -1.8515644e-04  -3.5411806e-04  -5.9201670e-05  -1.9869335e-04   1.3912888e-04   1.8225463e-05   5.5997982e-05  -3.6201382e-05  -3.4300762e-04  -1.6182513e-04   2.0456080e-04  -3.7095670e-04  -9.5948715e-05  -4.6168076e-04  -2.8101354e-05  -2.8079952e-04  -1.0896772e-04  -3.8610990e-04  -6.4389111e-04  -1.1495780e-03  -1.2362011e-03  -4.1105555e-04  -3.2152275e-06  -5.3603837e-04  -4.6085383e-04  -1.1814146e-03  -1.2949461e-04  -9.4905298e-04
  -6.5068703e-04  -4.1415144e-04  -2.0841115e-04  -4.3357324e-04  -2.6248873e-04  -2.7011125e-04  -4.2035131e-04  -1.2821583e-04  -2.6011176e-04   1.3497201e-04  -1.5231039e-04  -4.5569456e-04  -3.4062372e-04  -1.3096431e-04   5.3691860e-05  -1.4918478e-04  -6.5686362e-04  -2.8860066e-04   3.4902937e-04  -1.0523193e-04   1.6561797e-03   8.7529264e-04  -8.3139523e-05  -1.6941298e-04   5.4527725e-05  -3.9257302e-05   1.0481544e-04  -1.4935932e-05  -2.4738589e-05  -2.8910723e-05  -1.6370832e-04  -5.3120428e-05   4.2467311e-04  -1.4293943e-04  -1.8918241e-05  -1.9641890e-04   1.6295577e-05  -1.8811581e-04  -1.6869644e-04  -8.1390179e-05  -2.8311968e-04  -9.3841640e-04  -8.8746980e-04   4.7233178e-05   1.7603321e-04  -3.3465296e-04  -2.0204735e-04  -5.3234387e-04   3.3582608e-05  -7.3473714e-04
  -3.9087737e-04  -1.8643023e-04   1.4149919e-05  -1.6011921e-04  -1.3479257e-04  -1.6878042e-04  -3.4319208e-04  -1.5791480e-05  -1.3960636e-04   3.2295653e-04  -1.8321161e-07  -3.7524113e-04  -2.7420785e-04  -6.4486710e-05  -2.7805972e-05  -1.5282900e-04  -6.0911413e-04  -3.3341502e-04   2.7053652e-04   4.8171918e-05   1.6220931e-03   6.0299877e-04  -1.1376126e-04  -2.6512143e-04  -2.7289041e-05  -1.7313889e-04  -3.1952379e-05  -6.3011394e-05  -2.8293024e-04  -3.1402946e-05  -2.0871287e-04  -1.2281578e-04   2.3071785e-04  -2.4017038e-04  -1.5435887e-04  -4.6734951e-04  -5.4910644e-05  -3.5310449e-04  -1.9035742e-04  -2.5545750e-04  -4.4338685e-04  -1.0299719e-03  -7.6182582e-04  -3.2036786e-04  -1.8634838e-04  -5.7849591e-04  -3.7407558e-04  -6.5975025e-04  -3.5603985e-04  -8.4489194e-04
  -5.5822387e-04  -3.8631461e-04  -1.3701033e-04  -3.7043396e-04  -2.8247450e-04  -2.7451015e-04  -5.0104264e-04  -1.4407620e-04  -3.4239638e-04   9.9226134e-05  -1.8242234e-04  -5.8687897e-04  -4.2828132e-04  -1.9475653e-04  -1.0154471e-04  -3.2705319e-04  -7.5316930e-04  -4.6839382e-04  -1.0993567e-04  -2.2129760e-04   1.3234833e-03   3.2741055e-04  -3.5943609e-04  -5.6654721e-04  -2.5357481e-04  -4.5135236e-04  -7.2789153e-05  -8.3008505e-05  -2.3878309e-04  -1.4253588e-04  -3.7409359e-04  -3.6362911e-04  -1.8764869e-04  -5.2632741e-04  -2.5462621e-04  -8.2257658e-04  -7.4296076e-05  -5.4849678e-04  -1.6108793e-04  -5.9610099e-04  -7.6507183e-04  -1.3657816e-03  -1.0402593e-03  -8.3262619e-04  -4.8955932e-04  -7.8047579e-04  -7.0057967e-04  -1.1070474e-03  -5.1410962e-04  -1.0115729e-03
  -5.4856722e-04  -3.9185619e-04  -1.0498898e-04  -2.3020840e-04  -2.2730998e-04  -1.0634121e-04  -3.3888701e-04  -1.0805924e-04  -2.0808342e-04   2.6870921e-04  -2.5201296e-05  -5.0207530e-04  -3.3232418e-04  -1.8750720e-04  -2.4977022e-05  -2.3934267e-04  -6.0444453e-04  -4.0785340e-04   2.6088709e-04  -2.3802286e-05   1.6073805e-03   7.5434468e-04  -1.5054365e-04  -2.9915484e-04  -4.7317953e-05  -1.4522897e-04   6.4546525e-06  -6.0506274e-05  -8.6814835e-05  -1.3746893e-04  -1.0966494e-04  -2.3958363e-04   1.2130542e-04  -2.4026496e-04  -8.1939826e-05  -3.2736902e-04   7.6898541e-05  -3.2423867e-04  -1.5104376e-04  -1.7927667e-04  -3.2894127e-04  -1.0343213e-03  -7.1764854e-04  -2.8522225e-04  -1.3271716e-04  -4.6052338e-04  -2.2348890e-04  -4.1025851e-04  -1.6633907e-04  -7.9384877e-04
  -3.1081482e-04  -1.3137041e-04   7.9787351e-05  -1.1409099e-04  -9.9932724e-05  -4.1888503e-05  -2.3959219e-04  -3.7742353e-05  -2.1816396e-04   2.8279496e-04   1.4062003e-05  -4.7972181e-04  -2.9585481e-04  -1.1809143e-04  -1.4430736e-05  -1.9522215e-04  -5.3533708e-04  -3.4772922e-04   2.2125345e-04   2.7608350e-05   1.6257809e-03   7.7453972e-04  -1.4686861e-04  -3.9355850e-04  -6.1028368e-05  -1.9185925e-04   3.2451859e-05  -2.8115976e-05   3.4063642e-06  -1.6702336e-04  -1.5200721e-04  -3.1177499e-04  -3.8030121e-05  -3.5443713e-04  -1.4943878e-04  -4.7480190e-04   3.8486221e-05  -4.0126248e-04  -1.4600508e-04  -3.2037109e-04  -5.0267874e-04  -1.1451893e-03  -8.2778069e-04  -5.4397492e-04  -2.7323351e-04  -6.0284062e-04  -3.0834682e-04  -6.5067271e-04  -4.2581893e-04  -8.5565139e-04
  -4.2282563e-04  -2.7785604e-04  -7.2595270e-05  -2.9867500e-04  -2.2743602e-04  -1.8306912e-04  -4.1066133e-04  -1.5570293e-04  -4.0141560e-04  -2.2329286e-05  -1.3420859e-04  -8.8335091e-04  -4.3152101e-04  -2.1313902e-04  -1.2630766e-04  -3.1539524e-04  -6.9546141e-04  -4.9784296e-04  -8.6607513e-05  -1.1636489e-04   1.4891039e-03   5.1052752e-04  -3.3482950e-04  -8.0097909e-04  -3.0443736e-04  -4.6625259e-04  -6.6559063e-05  -1.0663746e-04  -1.0327096e-04  -2.8740565e-04  -3.0829050e-04  -4.9744832e-04  -2.5206988e-04  -5.8344903e-04  -3.1085828e-04  -8.6028606e-04  -4.5636898e-05  -5.8519881e-04  -1.3912476e-04  -6.1988295e-04  -7.1693852e-04  -1.4379503e-03  -9.0046041e-04  -6.4248731e-04  -5.2225700e-04  -7.7671447e-04  -3.9682386e-04  -7.1929960e-04  -4.5891604e-04  -8.3818653e-04
  -3.8954764e-04  -2.1124240e-04   6.4010863e-05  -1.2641547e-04  -1.2629802e-04  -2.4582434e-05  -2.5394338e-04  -1.4399277e-05  -1.4010807e-04   2.2656505e-04   1.5426587e-04  -7.3464884e-04  -3.1644496e-04  -1.6067829e-04  -1.0141019e-04  -1.8762237e-04  -5.1211880e-04  -4.2375622e-04   3.2235947e-04   1.5280630e-04   1.7216217e-03   9.3399914e-04  -1.2281127e-04  -5.3129945e-04  -1.0371902e-04  -1.4393803e-04  -9.7852671e-06  -8.5128348e-05  -2.1598318e-05  -2.2488131e-04  -4.6935675e-05  -3.5826131e-04   8.8910390e-05  -2.9354115e-04  -1.6411621e-04  -4.7625389e-04   9.1955488e-05  -3.8969127e-04  -1.5003094e-04  -2.6414634e-04  -4.2083993e-04  -1.1980868e-03  -6.1828527e-04  -2.9524486e-04  -3.0820386e-04  -6.0661667e-04  -2.1033002e-04  -4.7324091e-04  -2.6192635e-04  -6.8432034e-04
  -2.8528759e-04  -1.5446333e-04   1.2273461e-04  -1.4424247e-04  -8.5000036e-05  -4.1310879e-05  -2.1820089e-04  -2.3326402e-05  -2.4659967e-04   1.2823152e-04   9.2624803e-05  -6.8133924e-04  -3.5987451e-04  -1.5804642e-04  -9.3136063e-05  -1.9044495e-04  -5.0452421e-04  -3.9745870e-04   1.8332007e-04   9.4788018e-05   1.6862984e-03   8.8210835e-04  -1.8371419e-04  -6.0484419e-04  -2.0592185e-04  -2.2543264e-04   2.3645571e-05  -8.2727965e-05   9.5262018e-05  -2.6680663e-04  -8.5258987e-05  -4.2635141e-04  -5.0557919e-05  -3.8985186e-04  -2.0248895e-04  -5.8392040e-04   8.9692308e-05  -4.1140130e-04  -9.6002899e-05  -4.0883786e-04  -5.7745317e-04  -1.2832595e-03  -7.9281174e-04  -6.2924071e-04  -4.1299331e-04  -6.3612108e-04  -4.0065328e-04  -7.8707852e-04  -3.3929333e-04  -7.5992401e-04
  -4.2874448e-04  -2.8493529e-04  -8.4720035e-05  -3.7315112e-04  -2.1498936e-04  -1.7890542e-04  -3.6229225e-04  -2.0094680e-04  -5.6020840e-04  -1.4041255e-04  -1.7566030e-04  -8.9311844e-04  -5.2079267e-04  -2.7588397e-04  -1.5935577e-04  -3.1891471e-04  -6.7124929e-04  -4.8420072e-04  -1.4328051e-04  -1.3997426e-04   1.4331806e-03   7.1721256e-04  -3.6041701e-04  -8.2975504e-04  -3.4300747e-04  -4.1886544e-04   1.9663291e-06  -1.3953859e-04   7.5731827e-05  -3.6605500e-04  -2.3289389e-04  -5.7286763e-04  -2.2384654e-04  -5.8908068e-04  -2.7537005e-04  -7.1749027e-04   1.0481737e-04  -4.7800236e-04  -2.8989474e-05  -4.4547705e-04  -5.7890953e-04  -1.2871452e-03  -8.5954624e-04  -5.4246711e-04  -3.1666728e-04  -6.4267486e-04  -2.2034359e-04  -5.2194600e-04  -1.9106080e-04  -6.6254265e-04
  -2.3251004e-04  -6.7579698e-05   1.1786501e-04  -8.5871601e-05  -4.0881860e-05   5.2516727e-05  -9.7228833e-05  -2.4882971e-05  -3.2580533e-04   2.1664368e-04   5.1159030e-05  -5.9588684e-04  -3.5156432e-04  -1.3876824e-04  -5.9842387e-05  -1.1865892e-04  -3.9869445e-04  -2.8936670e-04   2.8580221e-04   1.3117660e-04   1.7808649e-03   1.1202849e-03  -1.0924033e-04  -4.9273955e-04  -8.1708546e-05  -7.9295256e-05   8.7244422e-05  -6.5752160e-05   1.4335176e-04  -2.6940394e-04   5.5823643e-06  -3.6693239e-04   4.0685769e-05  -2.9365477e-04  -1.5279581e-04  -4.4601873e-04   7.6867400e-05  -2.5692111e-04  -1.8807464e-04  -2.6647790e-04  -4.0552576e-04  -1.1350452e-03  -6.6393591e-04  -5.9902779e-04  -2.0701408e-04  -5.2784762e-04  -1.2118380e-04  -4.8587203e-04  -1.6278493e-04  -5.5721513e-04
  -2.4628273e-04  -1.1521359e-04   7.8509795e-05  -1.1026072e-04  -7.1454771e-05  -9.6803975e-05  -1.9556277e-04  -8.9071153e-05  -5.1188242e-04   5.7811270e-05  -6.3224732e-05  -7.7094388e-04  -3.8051000e-04  -1.4820043e-04  -1.1556797e-04  -1.3947862e-04  -4.5435084e-04  -2.7522902e-04   6.2050691e-05  -3.8189093e-05   1.5707444e-03   1.0363250e-03  -1.9295556e-04  -6.8434229e-04  -2.1921382e-04  -1.7030993e-04   9.1779984e-05  -9.7834658e-05   1.0700677e-04  -2.9764199e-04  -8.0948870e-05  -4.1265809e-04  -1.3714582e-04  -4.0102249e-04  -2.2652028e-04  -5.7548174e-04  -1.7169215e-05  -3.2945717e-04  -2.3570954e-04  -3.9309714e-04  -5.0407235e-04  -1.2489648e-03  -7.2438206e-04  -8.3791371e-04  -4.4174460e-04  -6.4431655e-04  -4.3968458e-04  -7.7565369e-04  -4.3864490e-04  -5.6086411e-04
  -4.9790688e-04  -3.5513818e-04  -1.9539376e-04  -4.5992789e-04  -2.7000596e-04  -3.4660209e-04  -4.6190814e-04  -2.7343843e-04  -8.3063613e-04  -2.9857608e-04  -3.8709509e-04  -1.0056311e-03  -5.5979250e-04  -2.2396624e-04  -1.8978526e-04  -2.8120136e-04  -6.0892897e-04  -3.8607288e-04  -3.5014894e-04  -2.9718669e-04   1.0733858e-03   4.8744274e-04  -4.5872052e-04  -8.5453002e-04  -3.5224858e-04  -5.3371571e-04   1.0522102e-05  -1.0141191e-04   6.6062501e-05  -2.7489374e-04  -2.1848106e-04  -4.8962398e-04  -6.2535715e-04  -5.0082029e-04  -1.7948980e-04  -6.9702487e-04   1.3054555e-04  -3.8407691e-04  -3.2300773e-05  -3.1422050e-04  -1.9621712e-04  -9.6252357e-04  -3.8812545e-04  -3.5797045e-04  -5.3082063e-04  -6.8780006e-04  -3.3578509e-04  -2.0302249e-04  -1.1750036e-04  -7.3833864e-05
  -2.4536205e-04  -7.9599056e-05   2.3291339e-05  -1.6656150e-04  -1.4309656e-04  -1.2292552e-05  -1.6631420e-04  -1.2647969e-04  -5.0904090e-04   6.9865346e-05  -1.8879546e-04  -5.6383567e-04  -3.5679273e-04   7.6826245e-07   5.9009224e-05  -2.7659411e-05  -2.3635334e-04  -2.3315108e-04  -5.6798446e-05  -1.5907724e-04   1.0956170e-03   5.2013062e-04  -3.1818452e-04  -4.3803803e-04  -1.8374105e-04  -2.9405169e-04   2.4468862e-05  -3.9439008e-05  -2.5324014e-05  -1.3908566e-04  -1.0633575e-04  -3.7814633e-04  -6.1315682e-04  -2.6792445e-04  -6.2777872e-05  -4.0964221e-04   1.8815768e-04  -2.5540084e-04  -1.6641272e-04  -2.6343274e-04   4.3903085e-05  -5.5835885e-04  -3.7069643e-05  -3.8465697e-04  -5.3579197e-04  -5.9873564e-04  -2.9711943e-04  -9.2288028e-05  -1.1490897e-04  -6.5645138e-05
  -3.3874103e-04  -1.8453138e-04  -5.9448837e-05  -2.5915290e-04  -1.8391456e-04  -1.4815060e-04  -2.8153192e-04  -1.6091220e-04  -6.9164240e-04  -7.2278701e-05  -3.4644161e-04  -6.2274322e-04  -3.9570482e-04  -4.0752919e-05  -4.1012595e-06  -8.0096768e-05  -3.6044323e-04  -2.4459220e-04  -2.6872201e-04  -2.7623877e-04   1.0112043e-03   4.3325432e-04  -3.8939973e-04  -4.4465915e-04  -2.5569700e-04  -3.1098846e-04   6.8887588e-05  -2.0168553e-05   9.5912878e-07  -1.1147642e-04  -1.7700906e-04  -3.9090382e-04  -6.3504779e-04  -3.8425266e-04  -4.7753845e-05  -4.9316150e-04   1.9229065e-04  -2.7004944e-04  -5.1267729e-05  -4.0154351e-04  -1.1474299e-04  -5.5522250e-04  -1.9130025e-04  -8.1380142e-04  -6.5062364e-04  -6.1201100e-04  -4.8691832e-04  -3.9816892e-04  -4.9850915e-04  -2.9577449e-04
  -5.2465982e-04  -3.0453323e-04  -3.3404626e-04  -5.0408515e-04  -3.3866617e-04  -2.7420226e-04  -4.8236223e-04  -3.0172727e-04  -9.5220655e-04  -3.4555900e-04  -6.2517694e-04  -7.8057783e-04  -5.1225419e-04  -1.6046445e-04  -1.5838810e-05  -1.9498933e-04  -5.1449187e-04  -2.9998776e-04  -3.0257867e-04  -4.1529856e-04   9.8752324e-04   4.1357466e-04  -4.1008150e-04  -3.6208433e-04  -2.5489723e-04  -2.7558516e-04   1.4789078e-04   4.1040748e-05   1.7034367e-04  -9.2213944e-05  -1.0111743e-04  -3.4394817e-04  -4.8738002e-04  -2.7830724e-04   1.2028182e-04  -2.5382134e-04   4.2816714e-04  -1.2847233e-04   7.8565281e-05  -2.1610066e-04   4.6901063e-05  -2.9903301e-04  -7.2522344e-05  -5.0722749e-04  -2.6736548e-04  -4.4818598e-04  -1.3445766e-04  -1.1119809e-04   1.7446599e-05  -1.5536119e-04
  -1.9098293e-04   4.0792416e-05  -1.3206998e-05  -1.0746442e-04  -6.5096625e-05   4.4464981e-05  -1.3807515e-04  -3.1945281e-05  -6.3070393e-04   3.1817613e-05  -3.0344090e-04  -4.7712895e-04  -2.9361190e-04   3.6262714e-05   1.6645472e-04   2.9188561e-05  -3.1186361e-04  -1.0130546e-04  -6.7984227e-05  -2.6738740e-04   1.2381793e-03   6.0952798e-04  -2.2339803e-04  -2.4435978e-04  -9.0743219e-05  -1.5087270e-04   2.4395916e-04   1.2084117e-04   2.5647029e-04  -2.6512866e-05  -4.8908103e-05  -2.6361438e-04  -3.8959173e-04  -2.4737904e-04   1.2345388e-04  -3.0920521e-04   3.5097628e-04  -8.2506631e-05   6.4481232e-05  -2.1364827e-04  -6.3943415e-05  -3.5744690e-04  -1.8102374e-04  -5.6348194e-04  -2.9095673e-04  -4.8799664e-04  -1.6837167e-04  -2.5843698e-04  -7.4322619e-05  -2.7433800e-04
  -2.8178567e-04  -8.4390602e-05  -1.2582447e-04  -2.8771177e-04  -1.2902648e-04  -3.5380741e-05  -2.2023640e-04  -1.2592692e-04  -7.8583148e-04  -9.7826924e-05  -4.0012316e-04  -5.8640342e-04  -3.5581007e-04  -1.3186819e-05   1.5514009e-04  -3.0489473e-05  -4.1502345e-04  -1.5558279e-04  -2.7118993e-04  -4.4833179e-04   1.0860481e-03   4.4179399e-04  -3.2102477e-04  -4.1636603e-04  -2.1869640e-04  -2.9523982e-04   2.2561043e-04   1.1179005e-04   2.7193170e-04  -7.4633281e-05  -1.7951048e-04  -3.6268987e-04  -5.8416795e-04  -4.1799297e-04   2.7004524e-05  -5.1067641e-04   3.3132729e-04  -1.9271912e-04   7.7714714e-05  -4.4515496e-04  -3.6763994e-04  -6.1464560e-04  -4.7248116e-04  -1.0480135e-03  -4.8532139e-04  -7.1744033e-04  -4.4743781e-04  -7.5653492e-04  -2.8623483e-04  -4.7776641e-04
  -4.1220136e-04  -1.7265140e-04  -2.7030081e-04  -4.1072554e-04  -1.8848454e-04  -6.7523426e-05  -2.4190328e-04  -2.0907294e-04  -7.7532703e-04  -2.4296143e-05  -4.0851682e-04  -5.0224696e-04  -3.1767326e-04   2.1511070e-05   1.9703062e-04   6.6595858e-05  -3.5059077e-04  -1.0131584e-04  -6.2326690e-05  -3.7942221e-04   1.2204943e-03   6.6779583e-04  -1.6405746e-04  -1.8922104e-04  -5.8586222e-05  -1.0041316e-04   2.9815175e-04   1.5075065e-04   3.2955749e-04  -2.2124987e-05  -1.8697975e-06  -1.8614516e-04  -3.5363933e-04  -1.7366429e-04   1.7678483e-04  -1.9375782e-04   3.9544021e-04   8.5589936e-06   2.4674171e-05  -1.3272240e-04  -1.2015543e-06  -3.6156998e-04  -1.7005262e-04  -3.5854703e-04  -1.1852676e-04  -3.6968538e-04  -9.9013763e-05  -1.6553354e-04   1.1376270e-04  -1.6920683e-04
  -1.2121829e-04   5.9890168e-05   7.8927569e-06  -1.1773087e-04   3.1369091e-06   4.0247953e-05  -8.7838285e-05  -2.6814076e-05  -6.2321662e-04   9.5184361e-05  -2.1823049e-04  -3.9596923e-04  -2.1010164e-04   1.2179546e-04   2.2293018e-04   1.4497949e-04  -2.5790755e-04  -3.3395488e-06  -1.4696528e-04  -3.8375438e-04   1.1676073e-03   6.0567772e-04  -1.2266282e-04  -2.5304477e-04  -8.1336475e-05  -1.4266430e-04   2.9863455e-04   1.3405819e-04   2.7025538e-04   1.8973888e-05  -1.2635342e-05  -1.8478042e-04  -3.3055057e-04  -2.1197763e-04   8.2895283e-05  -3.2371268e-04   2.6054430e-04  -1.2781724e-05  -5.0886181e-05  -2.2168408e-04  -8.2733968e-05  -4.9235899e-04  -1.9632006e-04  -6.7653693e-04  -2.5312701e-04  -4.2614309e-04  -2.7933321e-04  -4.1675000e-04  -4.7047142e-05  -2.1823125e-04
  -2.6492329e-04  -9.4234318e-05  -1.3044121e-04  -3.3718260e-04  -1.1591602e-04  -1.3348884e-04  -2.7680708e-04  -1.3154496e-04  -7.9423358e-04  -1.4510041e-04  -3.9356865e-04  -5.7997531e-04  -3.2155431e-04   3.9691029e-05   1.3961576e-04   3.0444764e-05  -4.1539705e-04  -9.9737656e-05  -4.3015371e-04  -5.0781126e-04   7.5371627e-04   3.3682241e-04  -2.9856563e-04  -4.9002253e-04  -2.7251520e-04  -3.8537418e-04   2.0718704e-04   8.9340348e-05   1.5743650e-04  -5.1007639e-05  -1.9679109e-04  -3.1405175e-04  -3.4838164e-04  -4.0111490e-04  -1.0626456e-05  -5.7371502e-04   2.0645060e-04  -1.7545754e-04   3.5243934e-06  -4.7600633e-04  -2.8911763e-04  -6.6908431e-04  -3.0609182e-04  -9.4452273e-04  -4.9307349e-04  -5.3074863e-04  -4.7516631e-04  -4.4796916e-04  -1.7337748e-04  -2.6500734e-04
  -2.5866769e-04  -6.3991509e-05  -4.8006954e-05  -1.5082992e-04  -4.2229083e-05   1.8448432e-05  -1.3411627e-04  -3.4860303e-05  -5.6032144e-04   1.2110436e-04  -2.0561348e-04  -3.1225596e-04  -1.8576968e-04   1.4742871e-04   2.3388263e-04   1.7818128e-04  -2.1270108e-04   3.4790159e-05  -1.2243148e-04  -2.8210779e-04   1.0458073e-03   6.3504028e-04  -9.0880312e-05  -1.6017738e-04  -5.9373149e-05  -1.0802583e-04   2.8636877e-04   1.7432569e-04   2.1910948e-04   1.1476783e-04   6.6634333e-05  -8.3235806e-05  -1.6120252e-04  -2.8907261e-05   1.9046629e-04  -1.2982494e-04   3.1455615e-04   1.0396559e-04   3.6199799e-05  -1.1265460e-04   2.3688766e-04  -3.2415203e-04   1.5442584e-04  -4.2029747e-04  -1.9920005e-04  -1.7464343e-04  -1.1797013e-04   3.7287250e-06  -7.3893410e-05  -4.6466077e-05
  -1.1803338e-04   5.8215657e-05   4.0400162e-05  -1.0774662e-04   5.9573840e-06  -1.0929261e-05  -1.2518666e-04   1.5610758e-06  -5.4574944e-04   1.1247271e-04  -1.8597128e-04  -3.0479021e-04  -1.5307660e-04   2.0459462e-04   2.6102434e-04   2.1055796e-04  -1.9178790e-04   7.7265460e-05  -2.3699708e-04  -3.5435293e-04   8.2536211e-04   5.1606807e-04  -1.4777602e-04  -2.7207209e-04  -1.2046595e-04  -1.8026546e-04   3.1266842e-04   2.0369991e-04   2.5563349e-04   1.4188339e-04  -1.0070795e-05  -1.2512467e-04  -3.6662788e-04  -1.2668609e-04   1.7534365e-04  -2.3414247e-04   3.2155230e-04   4.7930404e-05   1.0601985e-04  -2.3641907e-04   8.8860324e-05  -4.0682952e-04   4.5878809e-05  -5.0332997e-04  -3.5401288e-04  -2.2922562e-04  -3.6904367e-04  -2.9887297e-04  -2.1853654e-04  -1.8105202e-04
  -2.8137860e-04  -1.2650200e-04  -1.6213977e-04  -3.4785029e-04  -1.3416202e-04  -1.5137962e-04  -3.0620722e-04  -1.3614145e-04  -8.0894562e-04  -1.4999152e-04  -4.2818833e-04  -5.4070906e-04  -2.9617449e-04   7.1172566e-05   2.0094145e-04   5.6503690e-05  -3.9673175e-04  -6.8410271e-05  -5.1830249e-04  -6.0187106e-04   6.4259686e-04   2.6886206e-04  -3.1681411e-04  -5.1572651e-04  -2.8599106e-04  -4.1076800e-04   2.6659455e-04   1.5147121e-04   2.6058973e-04   3.9108636e-05  -1.9051672e-04  -2.8922624e-04  -5.6977855e-04  -3.7326352e-04   9.5367141e-05  -4.6483206e-04   3.1473130e-04  -1.2583105e-04   1.7717364e-04  -4.4245450e-04  -2.7632018e-04  -6.4582523e-04  -4.0139380e-04  -1.0121953e-03  -5.0070655e-04  -5.3985935e-04  -6.1963691e-04  -9.1102539e-04  -2.8921140e-04  -5.1644526e-04
  -4.3399606e-04  -2.9013239e-04  -2.3892870e-04  -3.8233658e-04  -1.6232031e-04  -1.1053971e-04  -2.7090116e-04  -1.6230546e-04  -7.1408274e-04   3.9204842e-05  -3.7760372e-04  -4.2487151e-04  -2.3895164e-04   1.0568171e-04   2.6492725e-04   1.4677460e-04  -3.3404559e-04  -9.7694146e-06  -1.6607398e-04  -4.4141326e-04   9.7999815e-04   5.9537921e-04  -1.3555126e-04  -2.5553812e-04  -7.2266121e-05  -1.5210084e-04   3.4693908e-04   2.0908707e-04   3.7551299e-04   8.8757828e-05   5.5174883e-06  -9.7813470e-05  -2.6531835e-04  -6.9144065e-05   2.9194675e-04  -4.5481043e-05   4.5341972e-04   8.0115955e-05   1.5243127e-04  -6.5373897e-05   7.1257207e-05  -4.0609404e-04  -2.0054556e-04  -2.4457867e-04  -7.1069786e-05  -2.8999746e-04  -1.5351121e-04  -2.9724507e-04  -6.5185868e-06  -3.0808483e-04
  -1.2554252e-04   5.4953645e-05   2.4711951e-05  -1.4383942e-04  -1.8920158e-06   1.1102172e-05  -1.2545896e-04   2.9598300e-06  -5.6823122e-04   1.9920435e-04  -2.2001160e-04  -3.4245587e-04  -1.6316575e-04   1.6911849e-04   2.6930525e-04   1.7799367e-04  -2.8887458e-04   3.6102898e-05  -1.7750691e-04  -4.0236194e-04   9.5900928e-04   5.3558522e-04  -1.4626101e-04  -3.0715883e-04  -8.8374058e-05  -2.1884449e-04   3.5817802e-04   2.2059596e-04   3.7335110e-04   1.1262458e-04  -4.8245340e-05  -1.3164166e-04  -3.4449517e-04  -1.4501961e-04   2.3860157e-04  -1.5002736e-04   3.9562353e-04   1.9761055e-05   1.4565125e-04  -2.1119039e-04  -1.0571493e-04  -5.9333828e-04  -3.9228224e-04  -6.0485298e-04  -2.1393457e-04  -4.5350837e-04  -3.4393586e-04  -6.3959404e-04  -1.7125066e-04  -4.3449574e-04
  -2.6395216e-04  -1.3084075e-04  -1.2945515e-04  -3.6919166e-04  -1.2430659e-04  -1.1506709e-04  -2.9910557e-04  -1.1332653e-04  -7.6804584e-04  -7.1199363e-05  -4.0770124e-04  -5.6091161e-04  -2.8524883e-04   4.9427483e-05   2.0462371e-04   3.8763297e-05  -4.7318172e-04  -1.0195236e-04  -4.8435299e-04  -5.6011323e-04   7.6913455e-04   2.7711614e-04  -3.4479602e-04  -5.7364762e-04  -2.6601375e-04  -4.4860240e-04   2.6963578e-04   1.6788662e-04   2.7634538e-04   1.8931671e-05  -2.4124084e-04  -2.7955047e-04  -5.3507311e-04  -3.7125571e-04   1.2883809e-04  -4.1530517e-04   3.2545725e-04  -1.7990144e-04   2.0207631e-04  -4.8848597e-04  -3.6892257e-04  -8.5654610e-04  -7.2036020e-04  -9.7663701e-04  -5.1916589e-04  -6.6668232e-04  -7.2075904e-04  -1.0774812e-03  -4.5001117e-04  -5.7703676e-04
  -5.7639636e-04  -4.2557169e-04  -4.0949893e-04  -6.9611304e-04  -3.3116253e-04  -2.8934790e-04  -5.4793147e-04  -2.7078160e-04  -1.0177915e-03  -3.8879339e-04  -6.7895959e-04  -8.4771425e-04  -4.7411455e-04  -8.8925881e-05   8.4174208e-05  -9.7675322e-05  -6.4635562e-04  -2.7744294e-04  -5.1666755e-04  -5.5657205e-04   6.7666022e-04   1.8703811e-04  -3.8291753e-04  -5.3270592e-04  -2.9596945e-04  -4.2483842e-04   2.0370523e-04   1.8406658e-04   1.7103677e-04   4.3495453e-05  -1.6008178e-04  -2.4490853e-04  -3.9494591e-04  -2.3721505e-04   2.9018545e-04  -1.8932461e-04   5.8925134e-04  -1.4254590e-04   3.4874055e-04  -2.5985396e-04   2.8715003e-05  -6.3546293e-04  -1.4666849e-04  -4.3856088e-04  -3.7927408e-04  -3.6178084e-04  -3.3082796e-04  -2.8072961e-04  -3.6765059e-04  -3.0922185e-04
  -3.1360242e-04  -8.6843072e-05  -5.5813071e-05  -2.2736330e-04  -1.2893543e-04   5.8331075e-06  -2.5186405e-04   2.8481471e-05  -5.8886863e-04   9.0551424e-05  -3.3823555e-04  -4.3949604e-04  -2.3199776e-04   1.2787020e-04   2.2461692e-04   5.3286785e-05  -3.8875709e-04  -1.7657936e-04  -3.8952995e-04  -2.8477452e-04   3.8015025e-04  -3.3723718e-05  -3.6134850e-04  -4.5372220e-04  -3.1113109e-04  -3.4998934e-04   1.1443720e-04   1.9098824e-04  -3.7046826e-05   1.4859856e-04  -1.3776918e-04  -2.5823675e-04  -4.6365193e-04  -2.3867415e-04   2.3626621e-04  -2.4339405e-04   5.3842063e-04  -1.9388046e-04   2.7957046e-04  -3.8064711e-04   1.3688600e-04  -4.6824416e-04   2.1079696e-04  -7.4263313e-04  -5.8518612e-04  -3.5043238e-04  -4.4263227e-04  -2.9491191e-04  -7.2833471e-04  -3.2948144e-04
  -5.1527133e-04  -3.5603988e-04  -1.9956900e-04  -4.2071511e-04  -2.8835406e-04  -1.2946055e-04  -4.2352616e-04  -6.0615301e-05  -7.4443762e-04  -1.7377330e-05  -5.0613616e-04  -5.4750766e-04  -2.9339126e-04   5.2052714e-05   1.8582983e-04  -5.5442189e-05  -4.6613568e-04  -2.8473348e-04  -5.8997981e-04  -3.6015394e-04   1.3568140e-04  -3.8838107e-04  -5.5101060e-04  -6.5504841e-04  -4.7670593e-04  -5.3972233e-04  -1.7913226e-05   1.3428558e-04  -1.9779861e-04   8.9141315e-05  -3.0273301e-04  -4.1454268e-04  -7.4842334e-04  -5.0466880e-04   1.4495988e-04  -5.1720394e-04   4.9474154e-04  -3.8907889e-04   2.9530312e-04  -6.9155090e-04  -9.6684278e-05  -5.6772173e-04   1.0829441e-04  -1.1183020e-03  -9.6883479e-04  -5.7409273e-04  -7.7072484e-04  -6.8441813e-04  -1.0851804e-03  -5.1520451e-04
  -8.2961243e-04  -6.1979372e-04  -4.7177484e-04  -6.5900595e-04  -4.8587148e-04  -2.8115648e-04  -6.8259629e-04  -2.5449388e-04  -9.7814179e-04  -3.4506671e-04  -7.8591943e-04  -8.3338632e-04  -4.6077505e-04  -1.3328633e-04   3.9636761e-05  -2.4795983e-04  -6.9905177e-04  -4.8405546e-04  -9.0137537e-04  -5.3376920e-04  -7.0213835e-05  -6.8983226e-04  -7.5799413e-04  -8.8538555e-04  -6.6935195e-04  -7.3977292e-04  -1.3457304e-04   4.6755693e-05  -3.5832493e-04  -2.7881553e-05  -3.8779204e-04  -5.4385472e-04  -8.1754668e-04  -6.3283922e-04   1.2726009e-04  -4.8309553e-04   5.0136645e-04  -4.3948551e-04   3.6954900e-04  -5.7796418e-04  -4.7670153e-05  -3.9319650e-04   1.5547528e-04  -7.5179723e-04  -6.2601996e-04  -4.7232548e-04  -4.3499673e-04  -4.3163326e-04  -5.6963746e-04  -4.6407996e-04
  -6.0925423e-04  -2.7112267e-04  -1.5246301e-04  -2.5211452e-04  -2.4128579e-04  -2.2981232e-05  -3.5511932e-04   9.3136605e-06  -5.9829117e-04   2.1952133e-04  -3.7955126e-04  -3.7550760e-04  -1.8970297e-04   2.9847019e-05   1.7859883e-04  -3.8105230e-05  -4.0270531e-04  -3.0611875e-04  -2.3815405e-04  -1.0612124e-04   3.4800445e-04  -2.1861297e-04  -4.4973451e-04  -4.9283996e-04  -3.3858276e-04  -3.8660757e-04  -5.9913742e-05   9.9367062e-05  -2.6467402e-04   6.4540218e-05  -1.6471575e-04  -3.9040676e-04  -5.3847203e-04  -4.1188661e-04   1.9691400e-04  -3.2980708e-04   4.7830419e-04  -3.3672788e-04   1.8198584e-04  -4.9589353e-04  -7.7424032e-05  -3.4363623e-04   7.9037272e-05  -7.4166997e-04  -5.3227588e-04  -4.3869883e-04  -3.9999653e-04  -4.1379675e-04  -6.0183677e-04  -4.4850374e-04
  -6.0722884e-04  -3.5011984e-04  -1.6372951e-04  -3.2701681e-04  -2.8243187e-04  -1.3070206e-04  -4.3977625e-04  -4.0070710e-05  -6.5806124e-04   1.1456804e-04  -4.3648697e-04  -4.6239526e-04  -2.4751219e-04  -7.8247367e-06   1.2676076e-04  -9.8061988e-05  -4.4780909e-04  -3.5808093e-04  -3.9838688e-04  -1.1777767e-04   2.5766896e-04  -3.7797450e-04  -5.4089702e-04  -6.1781012e-04  -4.5856400e-04  -5.1053631e-04  -1.0441773e-04   8.5803709e-05  -3.1241134e-04   3.3744192e-05  -2.5247873e-04  -4.8270976e-04  -6.7881821e-04  -5.6198653e-04   1.4490487e-04  -4.8852578e-04   4.8147311e-04  -4.6167779e-04   2.1606334e-04  -7.2195038e-04  -2.1190483e-04  -4.7246515e-04   1.8872128e-06  -1.1996283e-03  -7.7070581e-04  -5.5285834e-04  -6.6625461e-04  -7.0288533e-04  -8.6610665e-04  -5.7906186e-04
  -8.0736028e-04  -5.8053603e-04  -3.7660083e-04  -5.7175459e-04  -4.3956292e-04  -2.7566747e-04  -6.3594204e-04  -2.0843498e-04  -8.9629280e-04  -1.5934066e-04  -6.6300802e-04  -6.7192852e-04  -4.1202630e-04  -1.5886633e-04   2.6178775e-05  -2.5823349e-04  -6.3520262e-04  -5.0943613e-04  -6.2670157e-04  -2.9691984e-04   7.9427169e-05  -5.9146062e-04  -7.2536460e-04  -8.3214202e-04  -6.0991460e-04  -6.8623334e-04  -1.9110300e-04   2.1602526e-05  -3.9016857e-04  -6.8811780e-05  -3.9436403e-04  -6.3008431e-04  -8.2590082e-04  -7.7250204e-04   5.8754049e-05  -6.2665279e-04   4.4508913e-04  -5.8353541e-04   3.0917366e-04  -7.9251418e-04  -2.8920625e-04  -4.7122416e-04  -1.3311989e-05  -9.2440296e-04  -6.4921350e-04  -5.4930703e-04  -4.6070584e-04  -5.3496129e-04  -6.5725576e-04  -5.0505053e-04
  -6.4929680e-04  -3.3251126e-04  -1.3848497e-04  -2.3806478e-04  -2.6790937e-04  -3.0542356e-05  -3.5851781e-04  -3.3971821e-05  -4.9982383e-04   2.7385144e-04  -3.3425409e-04  -2.9439191e-04  -2.0791104e-04  -1.8363520e-05   1.5739436e-04  -6.7907706e-05  -3.5476178e-04  -3.5347234e-04  -5.1795159e-05   1.1418696e-04   4.5387942e-04  -1.7254567e-04  -4.3275006e-04  -4.1416459e-04  -3.2788489e-04  -3.4980016e-04  -1.0886341e-04   8.4680563e-05  -3.0558067e-04   1.7955897e-05  -1.2148023e-04  -4.2314906e-04  -4.8203731e-04  -4.6662573e-04   1.9265751e-04  -3.5165064e-04   4.8695575e-04  -4.3302312e-04   1.3695052e-04  -6.0390361e-04  -1.1445389e-04  -2.8579464e-04   1.7289633e-04  -8.1147539e-04  -5.1310530e-04  -3.8284314e-04  -2.9324935e-04  -3.3341852e-04  -5.4078142e-04  -4.0001876e-04
  -5.8117538e-04  -3.2722019e-04  -8.3493760e-05  -2.7374027e-04  -2.5645809e-04  -9.1187205e-05  -3.9806098e-04  -3.4715918e-05  -5.4775178e-04   2.3674585e-04  -3.1376368e-04  -3.3394151e-04  -2.1683649e-04  -4.4307722e-05   1.2665460e-04  -1.0730325e-04  -3.7352578e-04  -3.8344468e-04  -1.5607619e-04   8.2692874e-05   4.0529360e-04  -3.0064184e-04  -5.0201610e-04  -5.2426039e-04  -4.0844912e-04  -4.5950609e-04  -1.3956262e-04   3.3993627e-05  -3.1997333e-04  -2.5109395e-05  -1.5321840e-04  -4.9503066e-04  -6.1838253e-04  -6.0117518e-04   1.2231705e-04  -5.1493198e-04   4.3738529e-04  -4.9789291e-04   1.1817510e-04  -7.4800162e-04  -3.5647021e-04  -4.4376936e-04   1.9105798e-06  -1.1885730e-03  -6.5000221e-04  -5.1743176e-04  -5.0251343e-04  -6.2271865e-04  -7.2816410e-04  -5.1952363e-04
  -7.2529475e-04  -5.0208630e-04  -2.6367730e-04  -4.6037888e-04  -3.7992213e-04  -2.4034735e-04  -5.4653146e-04  -1.9563257e-04  -7.0635579e-04  -3.4738256e-05  -4.9054890e-04  -5.6063384e-04  -3.5242760e-04  -1.6819297e-04   3.9408067e-05  -2.3877971e-04  -5.3002749e-04  -4.8774487e-04  -4.0637294e-04  -1.3134073e-04   2.1291424e-04  -4.5142614e-04  -6.3187827e-04  -6.9184607e-04  -5.6004367e-04  -6.2973710e-04  -2.0803441e-04  -2.4776436e-05  -3.4449881e-04  -1.3743035e-04  -2.8844242e-04  -6.5243681e-04  -8.4197079e-04  -7.8176794e-04   8.4945868e-06  -7.1938772e-04   3.4488642e-04  -6.2302680e-04   3.6241185e-05  -9.4433420e-04  -4.7183494e-04  -5.5804366e-04  -8.4784697e-05  -1.2790855e-03  -7.9429586e-04  -6.1458664e-04  -4.2357270e-04  -5.9331080e-04  -7.9914118e-04  -4.7338760e-04
  -5.8856007e-04  -3.3949572e-04  -9.6472104e-05  -2.4734248e-04  -2.6888578e-04  -4.8200738e-05  -3.4992595e-04  -8.8729510e-05  -4.1321522e-04   3.3554016e-04  -2.4525900e-04  -2.5184199e-04  -1.4816003e-04  -3.0205874e-05   1.4445894e-04  -8.2579019e-05  -2.3324569e-04  -3.1785920e-04   8.4228108e-05   1.9811851e-04   2.8419663e-04  -2.0934573e-04  -3.9950319e-04  -2.4744970e-04  -2.9690674e-04  -3.6134809e-04  -1.4048371e-04  -4.8603074e-06  -3.2694242e-04  -1.7749657e-05   3.7166013e-05  -3.9622083e-04  -5.5980554e-04  -3.9066753e-04   1.5999090e-04  -3.3220433e-04   3.5129942e-04  -3.6949076e-04  -1.0291926e-04  -5.2631157e-04  -1.3229498e-04  -1.9324351e-04   2.9253541e-04  -7.4663508e-04  -4.0304044e-04  -2.5954057e-04  -1.6726392e-04  -6.5558277e-05  -4.7782360e-04  -2.2668953e-04
  -3.1787992e-04  -1.3055939e-04   6.7857647e-05  -6.6629596e-05  -1.3509387e-04  -4.7366553e-05  -2.9880748e-04  -1.9376877e-05  -3.5899869e-04   3.5220309e-04  -1.5064671e-04  -1.1665407e-04  -6.0451599e-05   1.4508287e-05   1.1700636e-04  -4.6925375e-05  -1.2589578e-04  -2.2063812e-04   6.0562023e-05   2.1015940e-04   3.6524876e-04  -2.1550761e-04  -3.7165589e-04  -2.2531039e-04  -3.0337970e-04  -4.0167000e-04  -1.4165827e-04  -3.0558564e-05  -3.7073804e-04  -3.4948593e-05   5.4290867e-05  -4.0767828e-04  -5.8046594e-04  -4.4622133e-04   7.2967632e-05  -4.2121724e-04   1.8710087e-04  -3.7750773e-04  -2.3128655e-04  -6.1125372e-04  -2.1931896e-04  -2.2984030e-04   2.3201211e-04  -8.9340803e-04  -4.6801221e-04  -3.7481030e-04  -3.2002621e-04  -2.5448794e-04  -5.1438023e-04  -3.2120821e-04
  -3.5830823e-04  -1.2843779e-04  -8.7246161e-05  -1.7287095e-04  -1.6369020e-04  -1.9221782e-04  -4.4759968e-04  -9.7969540e-05  -5.4405234e-04   1.4338814e-04  -3.1929449e-04  -1.2186345e-04  -1.3521893e-04  -9.0908732e-05   4.9198661e-05  -1.2223632e-04  -2.4631459e-04  -2.9638916e-04  -1.6606724e-04   7.1429269e-05   2.9743119e-04  -3.1558090e-04  -4.3337228e-04  -2.4918909e-04  -3.8917060e-04  -4.9924559e-04  -1.9969929e-04  -9.8130869e-05  -4.3299180e-04  -1.1382969e-04  -6.6391396e-05  -4.6997200e-04  -6.0933077e-04  -5.8058905e-04  -9.5931837e-06  -5.5659842e-04   7.4500880e-05  -4.6217086e-04  -2.9153581e-04  -7.5537316e-04  -3.7832503e-04  -3.1738760e-04   1.0092274e-05  -1.0345246e-03  -5.0422340e-04  -5.0541887e-04  -3.8403433e-04  -5.3666590e-04  -4.3648217e-04  -4.0562273e-04
  -3.3240832e-04  -1.4900982e-04   7.7198223e-05  -4.3141212e-05  -1.1870710e-04  -1.2472204e-04  -3.1129754e-04  -4.5576056e-05  -3.2694635e-04   3.6744087e-04  -1.1598663e-04   1.5247871e-04  -3.2910277e-05   1.6729162e-05   1.3958027e-04   6.7278372e-05  -4.8379185e-05  -1.4784942e-04   3.5369088e-04   3.5391736e-04   8.1475597e-04   1.5372365e-04  -1.4303208e-04   2.0920504e-04  -1.4212359e-04  -1.0775618e-04  -3.3767810e-05  -2.3870618e-05  -2.4434773e-04  -1.1655665e-05   2.4146846e-04  -1.7580092e-04  -8.0289370e-05  -2.3366955e-04   1.4744229e-04  -1.2468573e-04   1.5947151e-04  -1.6834828e-04  -2.3131976e-04  -3.1678431e-04   1.0716670e-05   3.4497851e-05   2.7474790e-04  -4.6013933e-04   1.2538576e-04  -8.9302848e-05   3.1960270e-05   6.1556362e-05   1.7837679e-04  -1.0878387e-04
  -3.6659087e-05   8.6865308e-05   3.3518375e-04   1.2196357e-04   2.3189286e-05  -1.4548899e-06  -1.7709334e-04   1.3513367e-04  -1.5350603e-04   4.8624029e-04   1.4806923e-04   7.9686914e-05   6.6583285e-05   1.3669721e-04   1.8441858e-04   1.9308216e-04   3.7717629e-05  -1.0620143e-04   4.3204872e-04   4.5793978e-04   8.4292860e-04   6.2565232e-05  -5.1020244e-05   3.2628054e-06  -1.2826969e-04  -9.1232418e-05   4.6817691e-05   4.4070344e-05  -1.3184248e-04  -2.8473877e-07   2.5595957e-04  -1.3219756e-04  -5.5846544e-05  -2.8330355e-04   1.2887018e-04  -2.5324750e-04   1.7800667e-04  -1.7549779e-04  -5.6459590e-05  -3.3994633e-04  -1.2374511e-04  -1.1756931e-04   1.2548547e-04  -5.4637162e-04   1.5887941e-04  -1.1314321e-04  -7.6416218e-05  -1.7963843e-04   2.2330157e-04  -2.0079313e-04
  -3.5965029e-05   1.1881583e-05   1.9911784e-04  -5.5175151e-06  -3.5011370e-05  -6.6115781e-06  -2.4386901e-04   5.2124502e-05  -3.6939021e-04   1.6132151e-04  -1.0958844e-04  -4.0405494e-06  -3.9151022e-05   3.6701524e-05   2.2555338e-04   1.1186783e-04  -9.4594339e-05  -1.1494245e-04   1.5529167e-04   2.4395045e-04   6.7245896e-04   9.6177711e-05  -1.4264238e-04   2.4065444e-05  -2.0766992e-04  -1.3198564e-04   9.4647483e-05   4.1572039e-05   5.5646186e-05  -5.4234311e-05   1.2476766e-04  -2.1710925e-04   1.5136105e-04  -3.7855684e-04   1.3152583e-04  -3.1360978e-04   2.0805674e-04  -2.3264633e-04   1.6068401e-05  -5.1395147e-04  -2.5930308e-04  -2.9291361e-04  -1.3199911e-04  -7.9640525e-04  -3.8297228e-05  -2.3999883e-04  -3.7467602e-04  -5.5040722e-04   7.3537725e-05  -2.9206686e-04
  -2.1889410e-04  -1.7537118e-04   6.6231572e-05  -2.0666224e-04  -1.1048489e-04  -5.2018826e-05  -2.5998728e-04   7.8697076e-06  -3.6926632e-04   2.5989558e-04  -1.1728991e-04  -2.5857373e-05  -2.7775975e-05   9.4198942e-05   2.7452843e-04   2.0809178e-04  -1.9449206e-05  -5.8549413e-05   4.5908478e-04   3.9633171e-04   8.1480079e-04   2.7129430e-04   3.1595275e-05   2.5475558e-04  -1.3193397e-05   1.6152879e-04   1.2314579e-04   7.4379423e-05   3.9435898e-05  -1.6021513e-05   3.5598432e-04   4.8018177e-05   5.8668607e-04  -4.7781250e-05   2.3147678e-04   3.0003570e-05   2.0161294e-04  -7.4068676e-06  -1.1103353e-04  -1.0920244e-04   2.1909965e-04   2.2886919e-05   2.4130855e-04  -8.0264261e-05   4.6727734e-04   1.5504997e-04   9.2296199e-05   1.6339243e-04   5.9212046e-04   5.3953572e-05
   1.2697453e-04   1.6255802e-04   3.4303768e-04   2.0662574e-04   1.2487528e-04   3.7786886e-05  -8.1844766e-05   2.1361637e-04  -1.7371183e-04   3.9732232e-04   1.1335053e-04   1.3506202e-04   1.0344552e-04   2.1926242e-04   2.8535080e-04   3.1296941e-04   1.1372971e-04   5.4876116e-05   4.3486737e-04   4.9492071e-04   8.2918035e-04   2.8558227e-04   9.2902148e-05   2.4806382e-04  -1.9302572e-05   2.3625638e-04   1.4078055e-04   7.6013624e-05  -2.4164387e-06   5.2106756e-05   3.9710911e-04   1.4493734e-04   4.7693989e-04   1.3715246e-05   1.7134675e-04  -1.4416935e-05   1.2936938e-04   3.1719523e-05  -1.0885797e-04  -9.8276541e-05   1.6861776e-04  -2.9084156e-05   1.9642540e-04  -1.2514484e-04   4.1454399e-04   1.2499513e-04  -1.1116617e-05  -1.2352355e-04   5.6188524e-04   6.1811152e-05
   5.1453564e-05   7.4981595e-05   2.4319447e-04   7.9167912e-05   7.4138094e-05  -6.7949535e-05  -2.4911782e-04   1.3984104e-04  -3.1374162e-04   1.5679171e-04   1.2740387e-05  -3.4092467e-05   1.2649959e-05   1.6040492e-04   2.1848384e-04   2.1040205e-04  -2.4924226e-05  -3.3460517e-05   1.0499263e-04   2.4774342e-04   5.9027784e-04   4.6927958e-05   4.1376520e-06  -5.4920120e-06  -1.3008830e-04   1.0575073e-04   9.4789888e-05   5.6327677e-05  -8.5558720e-05   2.0929294e-05   2.5046637e-04   5.5557477e-05   3.0963318e-05  -1.5810573e-04   9.5124582e-05  -2.1705290e-04   1.2345314e-04  -8.7396365e-05  -3.2595370e-05  -2.8829472e-04  -9.0735057e-06  -2.3580957e-04   5.5525588e-06  -5.6186103e-04   1.3947424e-04  -8.0447338e-05  -3.7798198e-04  -4.7271626e-04   2.4461476e-04  -1.5233096e-04
  -1.5369432e-04  -1.2135215e-04   7.6505312e-05  -1.7138913e-04  -5.6677753e-05  -1.4835762e-04  -4.0239305e-04   2.2792425e-05  -4.2785215e-04  -4.5021505e-05  -1.2701334e-04  -1.8634071e-04  -4.1625324e-05   9.5332391e-05   2.2047169e-04   1.9331966e-04  -7.8429621e-05  -7.8291792e-05   1.4863766e-04   2.2055228e-04   6.3237449e-04   1.0626904e-04   6.8540452e-05   1.1125606e-04  -5.2464675e-05   2.2872108e-04   1.4639586e-04   1.1034375e-04   3.4863344e-05   5.6761186e-05   3.8038296e-04   1.4517199e-04   2.1016836e-04   1.5257155e-05   2.5420534e-04   3.7771275e-05   3.1367660e-04   5.5014214e-05   9.2862203e-05   3.4842647e-05   2.6874139e-04  -4.4946635e-05   2.4061131e-04   3.2408312e-05   4.7541020e-04   2.0219915e-04   1.8730258e-05   1.1106193e-04   5.8545353e-04   1.0622192e-04
   1.9459311e-04   1.8653393e-04   4.0216758e-04   1.3108020e-04   2.1011557e-04   1.5053670e-04  -1.1234018e-04   3.5023279e-04  -4.5374531e-05   2.9205935e-04   2.9874383e-04  -1.4001475e-05   1.3598525e-04   2.6030568e-04   2.8845656e-04   3.1863136e-04   6.2700958e-05   1.6599096e-06   2.4460765e-04   3.6424358e-04   7.7029265e-04   6.5715303e-06   1.2823139e-04   7.8231213e-05  -4.6440953e-05   2.2376890e-04   1.3600975e-04   1.2897013e-04   2.9461412e-06   9.7854761e-05   3.9860961e-04   1.4583614e-04   2.1201788e-04   3.7308651e-05   2.1831651e-04  -1.5627078e-05   2.8195319e-04   5.1539100e-05   8.7473498e-05  -3.8158282e-06   2.1124439e-04  -1.0575959e-04   1.8303665e-04  -2.0180758e-04   2.9251800e-04   9.8385870e-05  -7.0262031e-05  -1.3656718e-04   4.6135503e-04  -9.0923631e-06
   1.2697338e-04   9.2721544e-05   3.0208111e-04   1.1351662e-04   1.6227277e-04   7.9747442e-05  -2.1387641e-04   2.6065714e-04  -1.7959652e-04   1.3581623e-04   1.4991027e-04   2.0321770e-05   7.2993855e-05   2.0918467e-04   2.1606330e-04   2.2314968e-04  -3.7776019e-05  -1.9016832e-05  -8.2964194e-05   1.2474935e-04   5.2196649e-04  -1.4990695e-04   5.6463668e-06  -5.4229324e-05  -1.5404446e-04   8.3673331e-05   1.0792985e-04   6.9819238e-05  -6.9942464e-05   6.8692891e-05   2.4966273e-04   2.2787584e-05  -5.5332439e-05  -1.0254102e-04   1.3937827e-04  -1.4161252e-04   2.3132315e-04  -5.4640412e-05   8.3716273e-05  -1.8251500e-04   1.0502819e-04  -2.7059854e-04   2.8017115e-05  -4.8338884e-04  -3.8010348e-05  -8.2426952e-05  -3.0245230e-04  -4.6766954e-04   1.4472229e-04  -1.3855034e-04
  -8.4923617e-05  -1.3490807e-04   6.8885463e-05  -1.6848893e-04   4.0672076e-06  -8.3130202e-05  -4.2331620e-04   1.0107170e-04  -4.2527611e-04  -1.5248927e-04  -6.8370588e-05  -1.3817017e-04  -5.0859893e-05   8.6312197e-05   1.5404403e-04   1.1709218e-04  -1.9136799e-04  -1.2525602e-04  -1.1841761e-04   4.4766603e-05   4.4100772e-04  -1.8472968e-04   5.8079850e-06   6.1352580e-06  -1.3820913e-04   1.3072329e-04   1.0918258e-04   9.1019443e-05  -4.5298217e-05   8.0819154e-05   3.0513035e-04   8.4866217e-05   2.0608789e-04   1.9689944e-05   2.5289349e-04   1.2195252e-04   3.5714489e-04   4.4684159e-05   1.1121677e-04   6.3678686e-05   4.2192792e-04  -8.3274710e-05   2.5292468e-04   3.1967102e-05   3.0019000e-04   2.3010522e-04  -6.8041896e-05   5.4768414e-05   5.4881669e-04   1.9243771e-04
   2.3704593e-04   1.6772318e-04   4.2700183e-04   2.1300014e-04   2.5092161e-04   9.6354204e-05  -1.3681350e-04   3.1835705e-04  -1.6550021e-04   2.1697505e-04   1.6391752e-04   3.3301715e-04   1.4519299e-04   2.9794167e-04   2.4823612e-04   3.2437939e-04   4.8553160e-05   8.3260282e-05   2.8470722e-05   2.7438792e-04   4.2036432e-04   2.9429517e-05   1.4279164e-04   2.2776016e-04  -2.5471812e-05   3.3284389e-04   1.7937017e-04   1.2928210e-04  -7.0936430e-06   1.8693085e-04   3.5789239e-04   1.8550674e-04   4.8410567e-04   1.6066359e-04   2.4666425e-04   1.8413823e-04   2.8917217e-04   1.4856717e-04   1.2038992e-04   1.0502686e-04   5.0150813e-04   3.8478400e-05   3.5041253e-04  -5.9479749e-05   1.4815012e-04   1.8090197e-04  -6.4715641e-05  -5.4352484e-05   3.9922883e-04   1.7788968e-04
   1.1891084e-04   6.5319524e-05   3.3629651e-04   6.0095324e-05   1.5621986e-04  -2.4272600e-05  -2.7341032e-04   2.2598167e-04  -3.4042209e-04   1.0336194e-04  -1.1656534e-05   1.7854366e-04   7.3343370e-05   2.6623157e-04   2.2184062e-04   2.5471096e-04  -3.3784272e-05   3.2420892e-05  -1.7087265e-04   1.4762810e-04   3.2819502e-04  -1.8421537e-04  -1.5251396e-05   6.0132348e-05  -1.5631058e-04   1.9539197e-04   1.0474162e-04   8.5152504e-05  -6.8571040e-05   1.4497350e-04   2.3222515e-04   9.9142198e-05   2.6378565e-04   1.6285398e-05   1.5056538e-04   1.0660698e-05   2.4907611e-04   2.8711707e-05   7.4952251e-05  -5.0541275e-05   2.1725443e-04  -1.6404230e-04   1.5250413e-04  -3.2254102e-04  -6.0853778e-05  -1.5670497e-05  -3.4089817e-04  -4.2275697e-04   8.0224345e-05  -4.5434925e-05
  -1.2837231e-04  -2.1139508e-04   6.1375482e-05  -2.3443592e-04  -2.4697694e-05  -1.9818265e-04  -4.4571375e-04   6.0623854e-05  -6.8312767e-04  -2.4758952e-04  -3.7518214e-04  -2.0651873e-05  -8.8257475e-05   1.3499329e-04   1.2891734e-04   1.1533535e-04  -2.5882549e-04  -1.0292311e-04  -3.5202375e-04  -8.8811750e-05   2.0180222e-04  -3.4624949e-04  -1.4745763e-04  -3.0672451e-05  -2.2169361e-04   2.2111271e-04   1.1286302e-04   7.9988313e-05  -7.2531118e-05   1.0958011e-04   2.0539908e-04   1.4535498e-04   4.2203499e-04   7.6590288e-05   2.2783915e-04   1.4378944e-04   3.9117393e-04   5.8033394e-05   1.8216335e-04   1.3251523e-04   3.4716507e-04  -5.1245912e-05   1.2123780e-04   1.6883810e-04   2.8510918e-04   7.1159659e-05  -4.7326532e-05  -1.1967983e-04   4.5528280e-04  -6.0436646e-06
   6.0355673e-05   4.7979800e-05   1.8205463e-04   1.9789435e-04   2.1544457e-04   7.3037903e-05  -2.1982011e-04   3.3591819e-04  -2.6540610e-04  -3.9591108e-05   1.1775742e-04   2.7482823e-04   1.7179191e-04   3.1510074e-04   2.0986634e-04   2.8581417e-04  -5.7798759e-05   2.7291193e-05  -8.2062048e-05   2.7536805e-04   4.9222028e-04  -2.9769655e-05  -4.5639217e-06   2.2184050e-04  -7.7568468e-05   3.7991622e-04   1.0127254e-04   9.3558585e-05  -1.3874116e-04   2.1821218e-04   3.0321718e-04   2.1612273e-04   5.2749790e-04   2.0044897e-04   2.2596930e-04   1.7098771e-04   3.5258633e-04   9.5270640e-05   1.6686409e-04   9.6127558e-05   4.3595533e-04   2.2308901e-05   1.6676218e-04  -9.5810254e-05  -1.7605682e-05  -3.6575446e-05  -9.2069087e-05  -2.9430550e-04   2.2216360e-04  -8.6255321e-05
  -9.6079748e-06  -1.3675245e-05   1.8450554e-04  -2.5452724e-05   1.4319192e-04  -2.0834506e-05  -3.8648385e-04   2.5920544e-04  -4.8312728e-04  -2.1485059e-04  -1.1662300e-04   1.8476346e-04   1.1715572e-04   2.6315913e-04   1.9282606e-04   1.8004735e-04  -1.7767304e-04  -6.8545603e-05  -4.9058854e-04   3.8172404e-04   5.6230183e-05   4.0209674e-05  -1.2254169e-04   3.9652219e-05  -1.8689095e-04   1.9012183e-04   7.2124043e-05   1.2044450e-04  -1.3596029e-04   2.2824228e-04   2.4407193e-04   1.5003684e-04   1.8837138e-04   7.9948324e-05   2.2566711e-04  -1.8874511e-05   4.1800676e-04  -8.4670086e-05   2.3679905e-04  -1.0188694e-04   2.7548504e-04  -1.5138215e-04   6.6144159e-05  -5.9699785e-04  -4.5456746e-04  -4.0988339e-04  -3.5323479e-04  -5.2606326e-04  -4.2663328e-04  -4.9519242e-04
  -1.2341209e-04  -7.6927565e-05  -6.5048713e-05  -1.1189652e-04   5.1500519e-05  -4.3265693e-05  -6.2124291e-04   1.4188794e-04  -6.7202182e-04  -6.3048315e-04  -2.7792229e-04  -3.8876471e-05   3.8017046e-05   1.5590424e-04  -1.2681728e-05  -3.6197031e-05  -3.7336274e-04  -3.0433666e-04  -9.2380674e-04   3.8667160e-04  -2.4297756e-04  -2.3179365e-04  -3.0495535e-04  -2.4781283e-04  -3.1982936e-04  -1.0915440e-04  -2.2546740e-04  -6.0780603e-06  -5.5278605e-04   1.7365927e-04   2.0050738e-04   1.0120125e-04   3.2222488e-05   1.7378854e-05   1.8349406e-04  -1.2846469e-04   5.3958996e-04  -1.9298280e-04   2.6627301e-04  -9.4131086e-05   5.3663709e-04  -4.4771939e-05   4.0624657e-04  -3.2985490e-04  -6.2958820e-04  -5.3606363e-04  -1.5669569e-04  -1.0873138e-04  -5.7456637e-04  -3.9201573e-04
  -3.0450730e-05  -1.7026940e-05   1.5509030e-04   2.9619698e-05   1.8819403e-04   6.9080990e-05  -4.1445353e-04   2.9278456e-04  -3.9410184e-04  -9.2152666e-05   3.5445184e-06   2.1757981e-04   2.0531478e-04   2.3252731e-04  -4.7813696e-06   6.5398010e-05  -1.8442055e-04  -2.4192754e-04  -6.2353374e-04   5.6047103e-04   5.9331844e-05   2.9595863e-05  -1.7804903e-04  -1.9958550e-04  -2.6634109e-04   2.3436782e-05  -2.0777753e-04  -1.8296243e-05  -5.7815592e-04   2.2635752e-04   2.3303909e-04   1.0419644e-04  -1.1226696e-04   3.8459104e-05   1.5499516e-04  -1.4333341e-04   4.9574830e-04  -2.2062403e-04   2.9056103e-04  -1.4099525e-04   3.1920080e-04  -8.8109133e-05   2.4587777e-04  -5.9542729e-04  -5.9520110e-04  -6.3610810e-04  -3.5579636e-04  -3.4798682e-04  -5.2958867e-04  -6.3628220e-04
  -1.7211007e-04  -1.8321394e-04   1.7780966e-04  -1.6734019e-04   4.6524285e-05  -2.3905714e-05  -4.9421447e-04   2.1114545e-04  -4.6402248e-04  -1.6099433e-04  -3.4556608e-05  -2.0071959e-04   6.8775553e-05   1.1711083e-04  -7.1121140e-05  -5.4648724e-05  -3.2651296e-04  -3.6779809e-04  -7.2239828e-04   3.5351689e-04   2.8115025e-04  -6.1897357e-05  -3.3461960e-04  -4.1267148e-04  -4.0448768e-04  -1.9157285e-04  -2.5928079e-04  -9.7150129e-05  -5.6649331e-04   1.1291463e-04   4.1618252e-05  -1.5811530e-04  -3.8896906e-04  -2.1399172e-04   5.3045260e-05  -2.8389835e-04   3.6739171e-04  -3.6611038e-04   1.1136998e-04  -3.6023490e-04   2.1988752e-04  -2.1371405e-04   1.1615253e-04  -1.0763414e-03  -9.3100150e-04  -9.0186502e-04  -6.3709746e-04  -6.0904474e-04  -8.5529184e-04  -7.6083816e-04
  -3.1692817e-04  -3.0414827e-04  -5.5345572e-05  -3.0191749e-04  -1.0131417e-04  -1.4869716e-04  -6.1838480e-04  -1.5436214e-06  -8.4789743e-04  -3.6940427e-04  -4.6578495e-04  -7.7261029e-05  -9.4740994e-05  -4.4426455e-05  -1.3510813e-04  -2.0417805e-04  -5.0790765e-04  -4.5069231e-04  -9.2471950e-04   2.3357583e-04  -3.0076189e-04  -3.9465231e-04  -4.5532273e-04  -2.9145184e-04  -4.6485756e-04  -2.8923069e-04  -2.3905945e-04  -1.5003569e-04  -4.7121220e-04   7.0722413e-06  -3.9675691e-05  -2.7756189e-04   1.4177752e-04  -2.1917594e-04   1.0327121e-04  -5.2956679e-05   3.2041987e-04  -3.0087348e-04  -2.4921712e-05  -1.6831941e-04   3.3250736e-04  -2.8360977e-05  -2.6751131e-05  -5.7834794e-04  -4.6977360e-04  -7.1314297e-04  -2.9571421e-04  -3.1475673e-04  -3.6117859e-04  -5.6504615e-04
  -9.5745738e-05  -1.1931370e-07   2.1802618e-04   5.3220552e-05   8.5946260e-05  -6.1453677e-05  -3.9464331e-04   1.3177376e-04  -5.8175420e-04   2.4092785e-04  -1.5772677e-04   2.5830179e-04   1.2330251e-04   1.4819641e-04  -1.0216612e-04  -3.9710932e-05  -2.7074668e-04  -2.8547531e-04  -4.9475231e-04   5.9009023e-04  -1.9600295e-04   7.4412255e-06  -2.3458696e-04  -1.8618466e-05  -2.1922299e-04   5.6727538e-05  -2.1538835e-04  -1.0875916e-04  -5.0681247e-04   1.2599719e-04   5.0006358e-05  -1.0645517e-04   1.7025537e-04  -3.3087028e-05   8.9452275e-05  -2.3876057e-05   3.3253504e-04  -2.7639308e-04   1.0899132e-04  -2.2691241e-04   4.2189335e-04   1.4019536e-05   1.8946559e-04  -8.1294903e-04  -7.6914614e-04  -7.2013523e-04  -3.3350746e-04  -3.0953644e-04  -8.3909195e-04  -5.3399283e-04
  -2.4455180e-04  -1.9908878e-04   7.8951220e-05  -1.9002779e-04  -7.6553602e-05  -9.3905648e-05  -4.4821145e-04   3.1103802e-05  -7.3615101e-04   1.2156458e-04  -3.8946193e-04  -6.3984044e-05   3.7469319e-05   8.4757274e-05  -4.8059046e-05  -1.0686770e-04  -3.7223657e-04  -3.6308134e-04  -7.1190897e-04   2.9199172e-04  -1.5834758e-04  -1.9719737e-04  -3.7615752e-04  -2.9810678e-04  -3.8454990e-04  -1.8793164e-04  -2.0514330e-04  -1.0176378e-04  -4.7587758e-04   5.9626796e-05  -9.2852875e-05  -2.9554992e-04  -4.3016739e-04  -2.8533503e-04   2.9980336e-05  -2.8561568e-04   2.5654817e-04  -4.2053917e-04   4.5152545e-05  -4.8727510e-04   9.8444318e-05  -2.0191631e-04  -1.0023949e-04  -1.3597341e-03  -1.0027399e-03  -9.9141372e-04  -6.7199999e-04  -7.7825430e-04  -1.0461827e-03  -7.9249061e-04
  -5.3112447e-04  -4.4915944e-04  -2.1214814e-04  -5.1001331e-04  -2.8684494e-04  -2.5586065e-04  -7.0118468e-04  -1.0804115e-04  -9.3516457e-04  -3.4320692e-04  -5.4917851e-04  -6.8702473e-04  -1.6982011e-04  -1.0554242e-04  -1.6776878e-04  -3.0375607e-04  -6.5052207e-04  -6.0490874e-04  -1.0273975e-03  -1.2572949e-05   1.0360473e-04  -1.1277520e-04  -5.9994025e-04  -8.1241911e-04  -6.2333583e-04  -5.6163396e-04  -3.1336880e-04  -2.1283564e-04  -5.5538368e-04  -9.5437339e-05  -2.2641568e-04  -4.3736337e-04  -7.8126136e-04  -4.8727961e-04  -2.5513156e-05  -3.4832934e-04   2.7362400e-04  -5.0260313e-04   4.8119240e-05  -4.7244475e-04   7.7222256e-05  -2.8070027e-04  -1.5979343e-04  -9.4163802e-04  -8.3179015e-04  -1.0109157e-03  -5.0626340e-04  -5.8456301e-04  -8.6661114e-04  -8.0844050e-04
  -4.0624329e-04  -2.2917314e-04  -2.4615701e-06  -1.5428492e-04  -9.8899931e-05  -1.2733368e-04  -4.6456221e-04   1.2907139e-05  -6.2886166e-04  -2.4588760e-06  -2.4286247e-04  -4.1357285e-04  -1.0386250e-05  -4.5649860e-05  -1.3563935e-04  -1.9199828e-04  -4.7539896e-04  -4.6021951e-04  -6.7882676e-04   1.0399528e-04   3.3617832e-04   3.8401567e-04  -4.1856623e-04  -5.4584577e-04  -4.5808050e-04  -3.1644033e-04  -2.6230214e-04  -2.2235054e-04  -4.9411447e-04  -6.4378459e-05  -1.4287849e-04  -4.0442057e-04  -6.8606948e-04  -3.9034919e-04  -8.1719309e-06  -1.9995985e-04   1.3919918e-04  -4.3999698e-04  -1.0258745e-04  -4.4381001e-04   5.4672273e-05  -2.7404798e-04  -3.0944767e-04  -1.0570234e-03  -8.0030819e-04  -1.0071063e-03  -5.8372610e-04  -6.9091487e-04  -8.7911804e-04  -8.8387151e-04
  -4.2263590e-04  -2.8177779e-04  -9.8252189e-05  -2.3519267e-04  -1.5890833e-04  -1.9000212e-04  -5.4147572e-04  -4.7959351e-05  -7.4886804e-04  -2.1195330e-04  -4.0517750e-04  -5.7959929e-04  -8.6206208e-05  -7.6908400e-05  -9.1056187e-05  -2.6555583e-04  -5.4846855e-04  -4.8523504e-04  -8.5409021e-04  -7.0220078e-05   8.3075640e-05   2.1856255e-04  -5.1173224e-04  -6.4258859e-04  -5.2447192e-04  -4.7932137e-04  -2.4795483e-04  -2.0767114e-04  -5.0341338e-04  -9.8123906e-05  -3.0222200e-04  -5.4618850e-04  -9.1539189e-04  -5.9013098e-04  -3.9610284e-05  -3.6853700e-04   1.2102407e-04  -5.6977902e-04  -1.3344467e-04  -6.5536902e-04  -1.2296962e-04  -4.5743867e-04  -4.6394143e-04  -1.5039322e-03  -1.0431684e-03  -1.2018528e-03  -7.4983068e-04  -9.7906834e-04  -1.2519743e-03  -1.0198435e-03
  -6.4220082e-04  -4.4333338e-04  -3.6065144e-04  -5.1980768e-04  -3.5114345e-04  -3.5905794e-04  -7.4457750e-04  -2.2245324e-04  -1.0322348e-03  -5.2802346e-04  -6.8922964e-04  -9.4853289e-04  -2.6337424e-04  -2.1614144e-04  -1.7704011e-04  -4.2732464e-04  -7.2478864e-04  -6.1745342e-04  -1.0939349e-03  -2.7248135e-04  -1.2205714e-04   1.0595626e-05  -6.6090346e-04  -7.5023103e-04  -6.4434268e-04  -6.4805237e-04  -3.0447872e-04  -2.3543253e-04  -5.5315241e-04  -1.5682392e-04  -3.1510470e-04  -5.9804274e-04  -8.8127091e-04  -5.8079092e-04   2.2797845e-05  -2.3500602e-04   2.5311825e-04  -5.4338283e-04  -7.8939775e-05  -5.0975103e-04   3.9289247e-05  -3.3897517e-04  -2.4997504e-04  -9.7845739e-04  -8.2062307e-04  -1.0506943e-03  -5.6920946e-04  -6.0958095e-04  -9.9080114e-04  -8.7598665e-04
  -4.1806395e-04  -2.0674050e-04  -7.9956306e-05  -1.2162334e-04  -1.3519883e-04  -1.5444191e-04  -4.3126158e-04  -4.5947345e-06  -6.5173267e-04  -1.3809468e-04  -3.4593060e-04  -6.6054199e-04  -8.0766411e-05  -7.6125471e-05  -6.5127359e-05  -2.3829198e-04  -5.0443423e-04  -4.7834890e-04  -6.5982371e-04  -4.4189375e-05   1.9333475e-04   3.1044681e-04  -4.7339642e-04  -5.7837163e-04  -4.5058309e-04  -4.2868726e-04  -2.3730966e-04  -2.0829233e-04  -4.3481516e-04  -1.1965471e-04  -2.6756004e-04  -5.4864888e-04  -7.9280010e-04  -5.3039595e-04   7.2094997e-07  -2.3144681e-04   1.4745320e-04  -5.0991547e-04  -1.4148896e-04  -5.1861361e-04  -1.5762826e-05  -3.7979957e-04  -2.7406553e-04  -1.1079974e-03  -8.3134265e-04  -1.0626252e-03  -6.1949593e-04  -6.1019929e-04  -1.0199784e-03  -9.0645294e-04
  -4.6517528e-04  -2.5170291e-04  -1.7961850e-04  -2.6066197e-04  -2.1015562e-04  -2.0355429e-04  -4.8560833e-04  -9.3214985e-05  -8.0247695e-04  -3.3449483e-04  -4.9453037e-04  -8.4933476e-04  -1.4597095e-04  -1.0008197e-04  -6.6939378e-05  -2.7915355e-04  -5.6542130e-04  -5.0540303e-04  -8.3933736e-04  -2.2382935e-04   2.4592433e-05   1.6634360e-04  -5.5629952e-04  -6.9886941e-04  -5.1930838e-04  -5.5642775e-04  -2.3991268e-04  -2.1008191e-04  -4.0618167e-04  -1.6817034e-04  -4.0163344e-04  -6.4469851e-04  -9.4464875e-04  -7.1628985e-04  -5.3582266e-05  -4.0338960e-04   1.2987931e-04  -6.3180452e-04  -9.6900840e-05  -7.3663297e-04  -2.7922419e-04  -5.5270607e-04  -5.0157891e-04  -1.7050820e-03  -1.0200306e-03  -1.2964586e-03  -8.2856417e-04  -1.0455763e-03  -1.2203660e-03  -1.1093979e-03
  -6.8612531e-04  -4.9365649e-04  -3.9740227e-04  -6.3745287e-04  -3.7556360e-04  -3.5256776e-04  -6.7923981e-04  -2.2651484e-04  -9.8156452e-04  -5.4545380e-04  -6.9458259e-04  -1.0870177e-03  -2.6871008e-04  -2.3903164e-04  -1.3794740e-04  -3.3566155e-04  -6.8532681e-04  -6.0807180e-04  -7.4278150e-04  -2.1433012e-04   1.2260463e-04   1.8180760e-04  -5.0576858e-04  -5.5508490e-04  -4.7787675e-04  -4.8369548e-04  -2.1182584e-04  -1.7420141e-04  -3.7357851e-04  -1.7863687e-04  -3.0098535e-04  -5.4771878e-04  -6.2911975e-04  -5.5464148e-04   6.8421345e-05  -2.1055556e-04   3.2047930e-04  -5.3785945e-04   1.2342685e-05  -4.6881175e-04  -9.5368036e-05  -3.9642837e-04  -3.4796839e-04  -1.0715332e-03  -6.1000278e-04  -9.9841889e-04  -4.1968166e-04  -5.4960279e-04  -7.0223090e-04  -9.0880867e-04
  -3.2504249e-04  -1.2422983e-04   6.5211934e-06  -1.0647914e-04  -1.0885373e-04  -4.4464130e-05  -2.9534061e-04   6.2415129e-05  -5.4908742e-04  -1.8079112e-04  -2.6589492e-04  -7.4594928e-04  -8.9652232e-05  -7.3122290e-05  -3.7493646e-06  -1.7465920e-04  -4.7251664e-04  -4.5713768e-04  -5.3174503e-04  -8.9023888e-05   2.4063549e-04   2.6502850e-04  -3.8511993e-04  -4.4624766e-04  -3.9161707e-04  -4.0280737e-04  -1.5710117e-04  -1.5412424e-04  -2.8119551e-04  -1.5634092e-04  -2.5024594e-04  -5.3932687e-04  -5.1631639e-04  -5.3200347e-04   5.9588940e-05  -2.0690178e-04   2.6170173e-04  -5.0106063e-04  -5.4809861e-06  -4.7085373e-04  -1.7609703e-04  -4.3396521e-04  -4.1648431e-04  -1.1409899e-03  -5.4151763e-04  -9.4079075e-04  -4.9060932e-04  -6.9722912e-04  -6.6128862e-04  -8.3339168e-04
  -3.4495472e-04  -1.8103058e-04  -7.8020494e-05  -2.4173711e-04  -1.6056877e-04  -1.3554189e-04  -3.2820614e-04  -4.8333444e-05  -7.3919410e-04  -3.4101575e-04  -4.2497582e-04  -8.0570229e-04  -1.9505354e-04  -1.2982667e-04  -4.0529048e-06  -2.0400211e-04  -5.1589095e-04  -4.6045380e-04  -6.8800757e-04  -2.4454703e-04   1.3056058e-04   1.6223214e-04  -4.5732537e-04  -5.4087664e-04  -4.4292258e-04  -4.7053728e-04  -1.2825262e-04  -1.6411289e-04  -1.9873952e-04  -2.2489068e-04  -3.6283044e-04  -6.2601076e-04  -6.1766012e-04  -6.7610922e-04  -1.9412499e-05  -3.8590978e-04   1.5224470e-04  -5.7534268e-04  -3.0274163e-05  -6.9953047e-04  -4.0489360e-04  -6.0149375e-04  -6.2097487e-04  -1.3925682e-03  -7.5493759e-04  -1.0505799e-03  -6.9468917e-04  -9.8105427e-04  -9.1939908e-04  -8.8688679e-04
  -4.8312914e-04  -3.3206693e-04  -2.4154480e-04  -3.5296916e-04  -2.6192362e-04  -2.0016578e-04  -4.0077447e-04  -1.4197313e-04  -7.1695884e-04  -2.9439179e-04  -4.5965530e-04  -7.3058298e-04  -1.6388413e-04  -8.9199835e-05   7.0667011e-05  -1.3453777e-04  -4.0230970e-04  -3.8789620e-04  -4.8080136e-04  -1.4195491e-04   1.3008949e-04   3.3209869e-04  -3.1872190e-04  -2.8893823e-04  -2.7559488e-04  -2.7305703e-04  -7.0290036e-05  -1.1467173e-04  -1.4535700e-04  -1.5619387e-04  -1.5074640e-04  -4.2376225e-04  -3.5374091e-04  -3.4962583e-04   1.2928434e-04  -4.9000635e-05   2.4736300e-04  -3.6299505e-04  -6.0356713e-05  -2.8681997e-04   2.4806557e-05  -2.8373292e-04  -1.5676122e-04  -7.6088007e-04  -3.3064632e-04  -6.2505720e-04  -1.5348560e-04  -1.7553891e-04  -4.7326059e-04  -4.7302776e-04
  -8.0013691e-05   1.8344488e-05   1.5197525e-04   2.8158791e-05  -6.3182647e-06  -3.2361797e-06  -1.1604926e-04   1.0250301e-04  -4.8054376e-04  -3.9697956e-05  -1.6905388e-04  -4.6521079e-04  -9.5358473e-06   6.3492596e-05   1.3978670e-04   6.9322659e-06  -2.0040260e-04  -2.4357048e-04  -3.4880350e-04  -3.2457629e-05   2.6250567e-04   3.6674444e-04  -1.9215788e-04  -1.6648679e-04  -1.8700026e-04  -1.9033234e-04  -1.0429461e-05  -9.4509829e-05  -1.2333326e-04  -1.1599100e-04  -8.9053712e-05  -3.4655727e-04  -2.4867553e-04  -3.2373655e-04   7.6959375e-05  -1.0134916e-04   1.6710373e-04  -3.0356963e-04  -9.9850622e-05  -3.2108318e-04  -4.5320361e-05  -2.6038705e-04  -1.6487054e-04  -8.8804774e-04  -3.0514033e-04  -6.0334458e-04  -2.0018636e-04  -3.2131595e-04  -3.9669147e-04  -4.3698103e-04
  -1.2669474e-04  -6.7884073e-05   9.0877271e-05  -5.1838731e-05  -9.2960843e-05  -1.4907455e-04  -2.5778927e-04   3.6551633e-06  -5.9626839e-04  -4.6283595e-04  -2.8373252e-04  -3.1052492e-04  -6.7278954e-05  -5.3191661e-07   5.6622470e-05  -5.8947906e-05  -2.8010836e-04  -2.6270709e-04  -5.2318565e-04  -8.1269776e-05  -1.8222678e-04  -8.6182081e-05  -2.7148667e-04  -6.8405760e-05  -3.2476636e-04  -2.8010117e-04  -7.8599391e-05  -1.8970518e-04  -2.5106673e-04  -1.8159037e-04  -2.1767315e-04  -3.9240209e-04   1.1861823e-04  -3.8859187e-04  -3.7761431e-05  -2.7089749e-04  -3.7794547e-05  -3.6708565e-04  -2.9144439e-04  -4.4241475e-04  -2.4257648e-04  -2.8194344e-04  -3.7528874e-04  -1.1586985e-03  -3.4460309e-04  -6.8444491e-04  -4.0022851e-04  -6.5125484e-04  -3.6805001e-04  -5.0524867e-04
  -2.3758426e-04  -2.2896119e-04   3.0150046e-05  -1.1004378e-04  -1.3251809e-04  -1.9251043e-04  -2.7694643e-04  -4.9521641e-05  -5.4254883e-04  -5.1590253e-04  -2.1127662e-04  -1.1282953e-04   2.0626043e-05   7.7456534e-05   1.3368172e-04   7.4115953e-05  -1.1465691e-04  -1.1716712e-04  -1.5743780e-04   1.4109572e-04  -1.7453326e-04   1.7326250e-04  -4.7954407e-05   3.2854846e-04  -8.3647705e-05   5.4559092e-05   2.5570407e-05  -9.1267815e-05  -1.0944791e-04  -7.2010451e-05   6.5373963e-05  -8.9508430e-05   6.0172298e-04  -4.7715912e-06   1.3460843e-04   1.2488151e-04   5.5456843e-05  -6.8292116e-05  -1.7726688e-04   1.2539331e-06   2.2206736e-04   1.3346267e-04   7.4675787e-05  -3.9174853e-04   1.6723556e-04  -2.1956333e-04   1.9874523e-04   1.0655652e-04   1.6768946e-04  -1.3211030e-04
   1.3255929e-04   1.6837307e-04   3.2644754e-04   2.1772301e-04   6.5915352e-05   9.4763418e-06  -5.8417063e-05   1.4304495e-04  -2.7928498e-04  -2.7802199e-04   1.9668656e-05   9.8394623e-05   1.7447419e-04   2.2333427e-04   2.5136408e-04   2.1989187e-04   6.5995766e-05   6.3600048e-05  -5.4906890e-05   2.1209280e-04  -1.0832657e-04   2.7157014e-04   6.7463348e-05   4.5968211e-04   5.3966928e-06   1.7306292e-04   1.4451015e-04   2.8686497e-06   2.1240825e-05  -7.3983290e-07   1.4012157e-04   4.3018983e-05   5.0445984e-04   6.3173422e-05   1.5578591e-04   1.0466042e-04   6.0098901e-05  -9.9632551e-08  -1.0064903e-04  -4.3910732e-05   1.2743891e-04   1.3261447e-04   4.0394038e-06  -4.5062561e-04   1.6125101e-04  -2.0502535e-04   9.4264797e-05  -6.9767135e-05   1.5826825e-04  -1.2041105e-04
   7.9826830e-05   6.2435225e-05   2.1695685e-04   1.0152758e-04  -2.7069520e-05  -6.9341062e-05  -1.4520524e-04   7.3745250e-05  -4.2426080e-04  -4.0925288e-04  -1.3761295e-04  -5.4618060e-05   8.0082071e-05   1.7792416e-04   2.5014402e-04   1.5325453e-04  -4.3785596e-05   2.4311421e-05  -3.0031087e-04   6.9820580e-06  -2.5236327e-04   1.1791773e-04  -2.0712496e-05   3.0520686e-04  -7.0112517e-05   8.1408558e-05   1.3397378e-04  -1.2800213e-06   7.0476774e-05  -4.7584675e-05   3.1492458e-05   9.7447582e-06   2.2300195e-04  -6.8118337e-05   1.1067768e-04  -5.9925322e-05   6.3713131e-05  -1.0536450e-04  -6.3255204e-05  -2.2875774e-04  -8.7443856e-05  -1.6119426e-05  -2.1761435e-04  -8.5668796e-04  -5.0010494e-05  -3.6044040e-04  -1.6164884e-04  -4.7652467e-04  -6.0756673e-05  -2.7151962e-04
  -6.7009816e-05  -5.6869227e-05   1.1175488e-04  -3.9821476e-05  -8.4188272e-05  -8.2989012e-05  -1.5643868e-04   9.7496095e-06  -3.8606802e-04  -2.1854437e-04  -1.2782788e-04   7.7500545e-06   1.1442405e-04   2.0779543e-04   3.2587218e-04   2.3750526e-04   5.4655575e-05   9.3186805e-05   1.0367882e-05   1.4748611e-04  -8.3291437e-05   3.2521877e-04   1.5065257e-04   5.6231744e-04   1.2179446e-04   3.5020505e-04   1.8873745e-04   5.8873222e-05   1.3425489e-04   2.8324264e-05   2.6164216e-04   2.3477965e-04   5.0617591e-04   2.2239336e-04   2.6708163e-04   2.4595440e-04   1.7433340e-04   1.3497405e-04   1.6212676e-05   1.2817272e-04   3.2149995e-04   3.1456121e-04   2.3674405e-04  -8.2233848e-05   3.3639939e-04   6.7122943e-05   3.0834367e-04   2.5760077e-04   2.6978052e-04   1.1856703e-04
   2.7906202e-04   2.7345330e-04   4.0170210e-04   2.9113758e-04   1.0852171e-04   1.1001767e-04   5.9650389e-05   2.3486337e-04  -1.2986823e-04   8.5092855e-05   9.4295850e-05   1.8798542e-04   2.3143723e-04   3.5158411e-04   3.9572406e-04   3.3338505e-04   2.0378985e-04   2.2080321e-04   1.1761688e-04   2.3402009e-04  -7.7507822e-05   3.1328938e-04   2.0685734e-04   6.0404744e-04   1.7777065e-04   4.1235343e-04   2.3497693e-04   1.2937498e-04   1.7185799e-04   9.9905148e-05   2.9101325e-04   2.8680277e-04   5.0644419e-04   2.5190969e-04   2.6965834e-04   2.0877336e-04   1.8051939e-04   1.7109473e-04   6.6092034e-05   9.1785521e-05   3.1992537e-04   3.1941751e-04   2.8883491e-04  -2.0075886e-04   2.1895376e-04   1.0088627e-04   2.0658679e-04   1.1055096e-04   1.5944098e-04   1.5618546e-04
   2.1130830e-04   1.8494271e-04   2.8088639e-04   1.1955106e-04   3.9617316e-06   6.5382956e-06  -6.3708365e-05   1.4456506e-04  -2.8042126e-04  -5.8342921e-05  -7.2529700e-05   4.0927080e-05   1.2027186e-04   2.6931523e-04   3.6608169e-04   2.4280412e-04   6.8642636e-05   1.3605620e-04  -1.3873146e-04   8.6374937e-05  -2.6491244e-04   1.0387220e-04   8.8746274e-05   4.2831246e-04   3.4761273e-05   3.0783980e-04   1.7506345e-04   9.0193651e-05   1.1539513e-04   4.1077812e-05   1.4554402e-04   2.1668764e-04   3.3617704e-04   8.6915374e-05   1.8981432e-04   4.5355395e-05   1.3870483e-04   4.4833429e-05   2.1986840e-05  -1.0657765e-04   8.9458634e-05   2.0700057e-04   7.0702539e-05  -6.0999475e-04   6.1358958e-05  -1.1012066e-04  -7.6654156e-05  -2.8073177e-04   1.4038953e-05  -8.9498535e-05
  -2.1196318e-05  -5.2536718e-05   6.5001514e-05  -1.4161534e-04  -1.3576042e-04  -1.5783278e-04  -2.5367402e-04  -4.1097308e-05  -3.9398859e-04  -8.5122134e-05  -2.4132588e-04  -5.0371505e-05   3.7452079e-05   1.7543518e-04   2.9099663e-04   1.9264854e-04   4.9687169e-06   6.5117638e-05   3.3803441e-05   1.2617141e-04  -3.7044545e-05   2.2244603e-04   1.6782196e-04   5.2897085e-04   1.4374543e-04   4.4580881e-04   1.5657321e-04   8.8059598e-05   1.0251786e-04   3.7607380e-05   2.9160062e-04   3.4832038e-04   4.5266503e-04   2.9935080e-04   2.4271902e-04   2.5611944e-04   1.5100322e-04   1.7419667e-04  -5.4359341e-05   1.3179705e-04   4.5877803e-04   5.1430968e-04   4.4283367e-04   2.8022592e-05   2.7742618e-04   1.5255058e-04   2.7717589e-04   4.4235875e-04   1.7404402e-04   3.4183045e-04
   2.9760014e-04   2.7268525e-04   4.7873188e-04   2.6548951e-04   1.2327412e-04   6.9296431e-05   3.5139299e-05   2.0052464e-04   1.9867979e-07   5.0861924e-04   1.9725171e-04   2.2634918e-04   2.4584666e-04   3.5677539e-04   2.6074500e-04   3.0259413e-04   2.1445437e-04   1.7018970e-04   1.8804305e-04   2.8974627e-04  -1.3264235e-04   1.1616998e-04   2.4842363e-04   5.2427937e-04   2.0733802e-04   3.8094155e-04   1.2261934e-04   5.1117840e-05  -2.8877565e-05   9.4352486e-05   3.3631350e-04   3.3780944e-04   5.5675936e-04   3.3036241e-04   1.3415437e-04   1.7150998e-04  -3.7048772e-05   1.8064486e-04  -2.0299270e-04   1.4320624e-04   3.2206296e-04   4.8663819e-04   3.8948728e-04  -2.0269354e-04   3.2424190e-04   4.7147692e-05   1.7357596e-04   1.9394809e-04   3.7767386e-04   1.7175748e-04
   1.9180540e-04   1.1181816e-04   3.8956490e-04   7.8210396e-05   6.7099601e-05  -3.9161227e-05  -6.6716850e-05   1.3600122e-04  -1.3005575e-04   4.4741685e-04   8.8582739e-05   2.1873241e-04   1.7919112e-04   2.7883920e-04   1.9430931e-04   2.5030633e-04   6.5524007e-05   9.5949494e-05   1.4717721e-04   2.4015091e-04   2.9079427e-04   1.7387672e-04   2.3506915e-04   3.4858508e-04   9.5054478e-05   3.0113748e-04   1.0218580e-04  -1.2205493e-05  -2.4544062e-05  -3.3559188e-06   2.1748035e-04   3.0424347e-04   5.5557478e-04   1.8384229e-04   2.1221042e-05   2.8479772e-05  -1.5135201e-04   1.0882955e-04  -2.6293652e-04   2.0118434e-05   2.9954208e-05   3.0146696e-04  -1.2198363e-04  -4.0724600e-04   3.5468439e-04  -5.9307127e-05  -1.2274109e-05  -3.0768628e-04   1.1061916e-04  -4.6722627e-05
  -1.0479924e-05  -1.0159428e-04   1.1515088e-04  -1.5346101e-04  -1.2859645e-04  -1.8011835e-04  -2.8902342e-04  -7.1426548e-05  -4.2573336e-04   1.1050321e-04  -1.8249128e-04  -2.4718174e-05  -8.8005118e-06   1.1814240e-04   1.5799262e-04   6.0188351e-05  -1.6303656e-04  -6.2075262e-05  -1.2287058e-04  -8.5053289e-06   5.5370427e-05  -2.6755792e-05   8.4333173e-05   2.8758525e-04   3.1578860e-05   1.1271430e-04   1.7401745e-04   8.2998158e-05   1.8604480e-04  -3.0697240e-05   2.3748516e-04   2.8771465e-04   2.9110257e-04   2.5119432e-04   1.8729332e-04   1.3112622e-04   1.7203495e-04   1.1961674e-04   6.1664330e-05   1.2771097e-04   2.6405472e-04   3.3181001e-04   2.5439018e-04  -9.8515731e-05   1.7816247e-04   2.7347600e-05   2.4462023e-04   2.8244653e-04   1.8701699e-04   1.5860272e-04
   3.2555754e-04   2.5286039e-04   4.7718181e-04   2.8884993e-04   1.3696977e-04   2.1753859e-04   1.3499577e-04   2.6075475e-04   1.7697571e-04   7.7323627e-04   2.8326508e-04   5.0264224e-04   2.4536348e-04   2.9270299e-04   3.4803650e-04   2.8679895e-04   8.4073654e-05   9.7316595e-05   2.9710354e-04   2.3490233e-04   2.6113653e-04   2.7197870e-04   3.2523362e-04   4.8126443e-04   2.1248277e-04   3.7300331e-04   2.1074782e-04   1.0539018e-04   1.8172796e-04   3.1829470e-05   3.0608429e-04   3.4378128e-04   4.6111099e-04   3.3251711e-04   1.8288640e-04   2.4092996e-04   8.5472748e-05   1.8810299e-04  -3.5946050e-05   1.4413337e-04   3.4954411e-04   3.4890609e-04   2.5170002e-04   1.8635286e-05   1.7397864e-04   1.8105393e-05   1.9378139e-04   1.7899997e-04   1.3908347e-04   3.9352519e-05
   2.6219024e-04   1.7056274e-04   3.5781847e-04   1.0303903e-04   4.9967817e-05   1.3294100e-04   5.1796113e-05   1.7554709e-04  -3.8926424e-05   5.7573867e-04   1.0487276e-04   4.3737431e-04   1.8954102e-04   2.9413935e-04   3.0247052e-04   1.8579178e-04   1.2269317e-06   3.0241697e-05  -3.0208432e-06   1.8023042e-04  -1.8338754e-06   8.6735687e-05   1.7120592e-04   3.7253651e-04   8.0450642e-05   1.8117859e-04   1.3532530e-04   7.6072385e-05   6.5130480e-05   2.1544499e-06   1.5821417e-04   2.6138467e-04   4.0473585e-04   1.5698583e-04   1.0419570e-04   1.5296258e-05   6.9119174e-05   1.7855828e-05  -3.6855283e-05  -9.7478820e-05   1.1789922e-04   2.2400006e-04   4.7585065e-05  -5.6397961e-04  -1.2946058e-04  -1.7737580e-04  -1.1127247e-04  -2.4327202e-04  -7.3403782e-05  -1.8204722e-04
   1.7471863e-05  -2.0290687e-05   8.1127357e-05  -1.7230412e-04  -1.3302157e-04  -5.7038531e-05  -1.6281578e-04   9.8089529e-08  -3.5691090e-04   3.3279514e-04  -2.0192444e-04   2.2913438e-04   2.9985795e-05   1.1740362e-04   1.9974944e-04   8.8479537e-06  -2.4580632e-04  -1.0370916e-04  -2.1892281e-04  -6.1748215e-05   2.3334045e-05   4.1582414e-05   3.4405810e-05   2.0161030e-04  -3.1256401e-05   2.6203643e-05   9.4229152e-05   1.0592400e-05   1.3136643e-04  -1.1758969e-04   1.0731392e-04   1.6972197e-04   3.9079008e-04   1.0313914e-04   1.1625808e-04   1.0784544e-04   8.5512911e-05   4.2861528e-05  -9.0848494e-05   5.4751894e-05   2.8802551e-04   3.0574825e-04   6.2451712e-05  -1.9353657e-04   6.2890293e-05  -7.0410460e-05   6.9113186e-05   1.1138892e-04   1.5253863e-05  -3.1918869e-05
   1.9024636e-04   1.6801627e-04   3.3396456e-04   1.5453405e-04   4.6386664e-05   1.3223769e-04   8.7162072e-05   1.8524761e-04  -4.5163029e-05   7.2147773e-04   1.0364072e-04   5.3019787e-04   1.9856878e-04   2.9203648e-04   3.0764705e-04   1.6299596e-04  -3.3411176e-05   1.5262525e-05   1.6179289e-04   2.0113721e-04   1.0025569e-04   2.0826710e-04   2.0160017e-04   3.6554254e-04   1.4718044e-04   2.3623527e-04   1.0459723e-04   4.9831491e-05   3.7991518e-05  -7.8133044e-06   1.9511882e-04   2.4824956e-04   4.2719912e-04   2.6067573e-04   1.0360061e-04   1.3510602e-04   4.1206175e-05   5.1090559e-05  -1.0468203e-04   3.9912575e-05   3.2457168e-04   2.8009503e-04   2.1830776e-04  -2.9573508e-04  -1.0860954e-04  -6.6102031e-05  -1.1075959e-06   9.1792979e-05  -1.7142351e-04  -5.7949295e-05
   7.2118070e-05   3.8176775e-05   2.1786155e-04   6.1811596e-05  -4.1208106e-05   1.3858190e-05  -3.7757043e-05   1.2007243e-04  -1.8277443e-04   5.3150469e-04  -4.6527253e-05   3.8086410e-04   1.2081701e-04   2.2404725e-04   2.4216926e-04   6.9457026e-05  -1.5639799e-04  -1.0328005e-04  -6.7188135e-05   7.9960977e-05  -1.9482606e-05   8.4373431e-05   8.8511035e-05   2.0714122e-04   2.3310420e-05   8.3295447e-05   3.8477090e-05   3.5956202e-07  -3.3319317e-05  -5.8802238e-05   6.5234184e-05   1.2644267e-04   2.2813321e-04   8.3795232e-05   3.1820622e-05  -4.1357151e-05   3.1757452e-06  -9.7134420e-05  -1.2788636e-04  -1.7078727e-04   1.3772040e-04   1.2664506e-04   2.3887331e-05  -6.5530639e-04  -3.8217343e-04  -2.9790579e-04  -2.3644073e-04  -3.3279808e-04  -5.1916513e-04  -2.8185872e-04
  -1.1306394e-04  -1.7260955e-04  -4.1813491e-05  -2.2229990e-04  -2.1995876e-04  -1.1475451e-04  -2.3346492e-04  -6.3486856e-05  -4.7728067e-04   1.9972352e-04  -3.4353073e-04   5.1566483e-05  -6.1132254e-05   6.4935826e-05   1.5384916e-04  -1.1658459e-04  -3.8722032e-04  -2.7973426e-04  -4.1988486e-04  -1.3256224e-04  -2.5347824e-04  -1.6556132e-04  -1.5014838e-04  -1.0963584e-04  -1.6945304e-04  -1.8544766e-04  -4.3270553e-05  -5.0714003e-05  -5.7931913e-05  -1.6488263e-04  -6.3501473e-05  -5.1439012e-05   1.7402186e-05  -7.3664567e-05   2.7754104e-05  -9.0645502e-05   9.8828052e-05  -1.7755857e-04  -4.0746791e-06  -1.4244718e-04   1.2501141e-04   1.0341111e-04   8.2981014e-06  -3.7191829e-04  -2.3726179e-04  -1.9058707e-04  -2.1709914e-04  -9.5194315e-05  -2.7425980e-04  -1.7280337e-04
  -7.3175120e-06   1.0231575e-05   1.4046978e-04   6.6555258e-05  -5.1088216e-05   6.8047899e-05   4.8335264e-06   1.2157144e-04  -1.8452657e-04   4.7515196e-04  -5.5602934e-05   2.5000644e-04   9.3063871e-05   1.5278625e-04   2.0809245e-04   5.9885215e-06  -2.6278602e-04  -1.9867567e-04  -6.2095576e-05   9.9754201e-05   2.3783447e-05   2.2936675e-04   4.4777320e-05   2.5718356e-05  -1.9984695e-06   9.9008103e-05  -3.8261336e-05  -3.0999090e-05  -7.6544908e-05  -1.1248884e-04   2.9840083e-05  -2.1719919e-07   1.5859301e-04   4.1706375e-05   4.7265694e-05   2.7147640e-05   7.8468292e-05  -1.5162556e-04  -5.3805747e-05  -1.3359726e-04   9.3797164e-05   4.9198035e-05  -9.4014351e-05  -4.1905115e-04  -2.5335076e-04  -1.7099659e-04  -2.6754304e-04  -3.0335266e-04  -2.5430339e-04  -2.4495731e-04
  -1.3306587e-04  -1.1811304e-04  -4.4764009e-05  -1.0427765e-04  -1.3615440e-04  -8.0994483e-05  -1.2088507e-04   2.7879394e-05  -4.0763291e-04   1.7634247e-04  -2.3741326e-04  -3.1078249e-05  -1.2721691e-05   4.6751891e-05   1.1914212e-04  -1.1312574e-04  -4.3130878e-04  -2.8117682e-04  -2.5072359e-04  -9.9207457e-05  -6.9850299e-05   6.5887682e-05  -8.8867891e-05  -1.7387985e-04  -1.2634922e-04  -4.4907763e-05  -8.1005543e-05  -8.5482257e-05  -1.1420041e-04  -1.8776936e-04  -8.1191109e-05  -1.6853889e-04   4.9368606e-05  -1.5546971e-04  -4.1340863e-05  -1.7755614e-04   5.9824080e-05  -3.1778682e-04  -5.9502563e-05  -3.7234515e-04  -2.6335521e-04  -2.5646758e-04  -4.5541165e-04  -8.2436018e-04  -5.1612180e-04  -4.1112400e-04  -5.3040724e-04  -8.3125749e-04  -6.0646457e-04  -4.7107419e-04
  -3.9934050e-04  -3.6875712e-04  -3.5088175e-04  -5.3199823e-04  -3.2374184e-04  -2.3712679e-04  -3.3235180e-04  -1.4847760e-04  -7.1767787e-04  -2.3218626e-04  -5.5428728e-04  -4.2695590e-04  -2.0634419e-04  -1.2194537e-04  -1.6926313e-05  -2.9628939e-04  -6.4638257e-04  -4.4325151e-04  -4.8640298e-04  -3.2667050e-04  -2.7675624e-04  -1.7865960e-04  -2.9817515e-04  -4.3409845e-04  -3.1587292e-04  -2.7011754e-04  -1.9255883e-04  -1.6113692e-04  -1.7019168e-04  -3.0454868e-04  -1.7967900e-04  -3.4683364e-04  -4.3484040e-05  -2.9325692e-04  -7.1466529e-05  -2.1302109e-04   9.4718067e-05  -3.8742056e-04  -2.0261554e-05  -3.0253554e-04  -2.0515826e-04  -2.5095340e-04  -4.2375299e-04  -4.9873028e-04  -3.4430774e-04  -3.4931509e-04  -3.3356034e-04  -4.8905169e-04  -3.9756717e-04  -3.9763041e-04
  -2.6505621e-04  -1.5941211e-04  -1.7549664e-04  -1.9092903e-04  -1.6087866e-04  -6.6527704e-05  -9.8654571e-05   1.9348347e-05  -4.0765275e-04   4.2336666e-05  -2.9464145e-04  -1.9698992e-04  -4.5209195e-05  -2.4153971e-05   5.0674204e-05  -1.7209929e-04  -4.7992766e-04  -3.5437179e-04  -9.2817892e-05  -7.0790913e-05  -7.7796089e-05   6.0673199e-05  -1.4114163e-04  -2.5878332e-04  -1.5328513e-04  -4.6993086e-05  -1.7502146e-04  -1.4473146e-04  -2.0361746e-04  -2.2056747e-04  -8.8375149e-05  -2.8796506e-04   9.3847128e-05  -1.8028911e-04  -3.9000752e-05  -1.6408450e-04   1.1361041e-04  -3.8784544e-04  -2.9854646e-05  -2.9781423e-04  -2.7177884e-04  -3.4795605e-04  -5.2473613e-04  -6.2410574e-04  -4.0535053e-04  -3.6911698e-04  -4.8486472e-04  -6.1776116e-04  -4.8900308e-04  -4.6109091e-04
  -3.5625903e-04  -2.9518612e-04  -3.0389227e-04  -3.7994576e-04  -2.4067273e-04  -1.7130459e-04  -1.9321743e-04  -5.9187780e-05  -6.2383915e-04  -1.4843806e-04  -4.7532714e-04  -3.4794846e-04  -1.6087279e-04  -1.0753863e-04   1.0378876e-05  -2.7859883e-04  -5.5672741e-04  -4.1523803e-04  -3.0604555e-04  -2.0723966e-04  -1.8073984e-04  -1.2736634e-05  -2.7447008e-04  -3.2523938e-04  -2.5272791e-04  -1.4588406e-04  -2.1889314e-04  -1.8746416e-04  -2.2928538e-04  -2.7837366e-04  -2.5336418e-04  -4.2899090e-04   6.7308123e-05  -3.3566903e-04  -1.0349620e-04  -2.8768164e-04   7.4285956e-05  -4.8510873e-04  -4.4293578e-05  -4.8479156e-04  -4.0412135e-04  -4.5278980e-04  -6.9173105e-04  -1.0889285e-03  -6.4868265e-04  -5.2799890e-04  -7.4883032e-04  -9.3523634e-04  -8.4352482e-04  -6.1358785e-04
  -5.7162711e-04  -4.8583027e-04  -5.6239514e-04  -6.1379187e-04  -4.2893112e-04  -3.1342870e-04  -4.1420889e-04  -2.6125510e-04  -8.6631317e-04  -4.4951728e-04  -7.7281031e-04  -5.3875183e-04  -3.4296425e-04  -2.4114658e-04  -8.3531006e-05  -4.1550436e-04  -7.0844387e-04  -5.2162609e-04  -4.0452421e-04  -3.3555887e-04  -2.9662115e-04  -7.7781275e-05  -3.3057932e-04  -2.7302103e-04  -2.9085114e-04  -1.8647512e-04  -2.4622091e-04  -1.9161891e-04  -2.1612810e-04  -2.7876173e-04  -1.9360230e-04  -4.0748427e-04   1.7999051e-04  -1.9574819e-04   5.0002495e-06  -4.8665039e-05   1.9580607e-04  -4.3337053e-04  -3.0963121e-05  -2.4690415e-04  -1.7351087e-04  -2.8652194e-04  -4.3263286e-04  -5.8899220e-04  -4.1636120e-04  -3.0996406e-04  -3.7973604e-04  -3.6384168e-04  -5.2337209e-04  -3.9764890e-04
  -3.0130256e-04  -1.7245489e-04  -2.0228759e-04  -2.0155503e-04  -2.0285937e-04  -1.1492243e-04  -9.9380464e-05  -3.5046571e-05  -4.6025711e-04  -8.3373616e-06  -3.3202444e-04  -2.2912734e-04  -1.4035663e-04  -7.5208038e-05   7.0086576e-06  -2.5721430e-04  -4.5240685e-04  -4.1301237e-04  -1.4396755e-04  -4.5102930e-05  -1.0647740e-06   4.1469757e-05  -2.3552256e-04  -1.9859355e-04  -2.3263386e-04  -1.4870765e-04  -2.4734231e-04  -2.0287253e-04  -2.9024994e-04  -2.5552142e-04  -1.4932969e-04  -3.8040002e-04   2.2164063e-04  -2.0767050e-04  -8.0804821e-05  -2.0693833e-04   4.9124832e-05  -4.6645026e-04  -1.0244850e-04  -2.8230724e-04  -2.5160139e-04  -3.6280943e-04  -4.6866134e-04  -6.9529307e-04  -5.1157834e-04  -4.3531542e-04  -5.0304318e-04  -5.2354945e-04  -6.1466586e-04  -4.7605589e-04
  -4.3546379e-04  -3.2511406e-04  -3.1216175e-04  -3.4679228e-04  -3.0931205e-04  -2.4958234e-04  -3.0885232e-04  -8.0729136e-05  -4.6946789e-04  -2.3543216e-04  -3.6456643e-04  -3.4295319e-04  -2.0801778e-04  -1.1466412e-04  -1.5976245e-04  -3.3993661e-04  -5.6475407e-04  -5.6419801e-04  -4.8022505e-04  -1.3558008e-04  -3.3169528e-04  -2.5656261e-04  -3.6205590e-04  -3.9233660e-04  -4.2264181e-04  -3.7057043e-04  -5.1062281e-04  -3.9647246e-04  -7.7421009e-04  -3.0818564e-04  -3.4681882e-04  -4.3749926e-04   1.7018859e-04  -3.2319286e-04  -2.8032062e-04  -4.9616129e-04  -1.5819666e-04  -6.5752870e-04  -3.4162975e-04  -5.3913757e-04  -3.4956867e-04  -4.3618624e-04  -4.0388948e-04  -1.0355045e-03  -9.4641879e-04  -6.6682510e-04  -7.2549988e-04  -7.8830170e-04  -9.3665760e-04  -6.2318752e-04
  -7.4266590e-04  -6.1904837e-04  -5.1461352e-04  -3.9524416e-04  -4.1687189e-04  -5.0813146e-04  -5.0049293e-04  -2.8267613e-04  -6.1107863e-04  -1.5127160e-04  -4.4440318e-04  -1.5316263e-04  -1.9987463e-04  -1.6289891e-04  -1.9770731e-04  -3.0693933e-04  -4.8924825e-04  -5.1541033e-04  -2.4632327e-04  -3.6128349e-05  -1.3062256e-04   1.5857753e-04  -1.6751092e-04  -2.4672683e-05  -2.2598651e-04  -4.4515353e-05  -4.4233291e-04  -4.1334887e-04  -6.9049827e-04  -2.5835406e-04  -8.2685001e-05  -2.9243215e-04   6.2464364e-04  -6.0858685e-05  -1.8363800e-04  -9.3102120e-05  -1.2948742e-04  -4.3140282e-04  -3.1772262e-04  -1.2873845e-04  -7.3859541e-05  -1.2873042e-04  -1.6593562e-04  -1.6983120e-04  -2.7428195e-04  -2.9044086e-04  -2.6594230e-04  -2.1218653e-04  -3.1497455e-04  -4.0834839e-04
  -3.4404852e-04  -1.7744229e-04  -1.7768466e-04  -1.7934672e-05  -1.6964042e-04  -2.7585716e-04  -2.1739649e-04  -6.3058556e-05  -3.4826892e-04   4.7137652e-05  -1.6035252e-04  -5.1103456e-05  -6.2944375e-05  -8.4908461e-05  -1.1249559e-04  -1.8427407e-04  -3.5028244e-04  -3.9483252e-04  -1.2725859e-04   1.1298855e-05   1.0875649e-04   4.1029442e-04  -4.8958856e-05   2.0709251e-06  -1.5441168e-04   1.1988066e-05  -2.9784752e-04  -3.6814634e-04  -4.7687005e-04  -2.6156049e-04  -5.6221950e-05  -2.7221197e-04   6.3721417e-04  -1.0298381e-04  -1.7999472e-04  -1.2092278e-04  -1.9085707e-04  -4.0658872e-04  -2.7505160e-04  -1.5144091e-04  -2.7352068e-04  -2.3215469e-04  -4.5916456e-04  -5.4945424e-04  -1.7611761e-04  -3.5714870e-04  -3.3193716e-04  -4.7330506e-04  -2.1532338e-04  -4.5369708e-04
  -3.5592105e-04  -2.4788253e-04  -2.4248462e-04  -1.4948242e-04  -2.3605220e-04  -3.3193620e-04  -2.7496796e-04  -1.6977092e-04  -4.6417644e-04  -1.2646448e-04  -2.9520466e-04  -2.3920879e-04  -1.5170618e-04  -1.4784075e-04  -9.3543909e-05  -2.4291618e-04  -4.4200680e-04  -4.2052122e-04  -2.8620745e-04  -1.5692199e-04   1.0197445e-04   3.2394615e-04  -1.5130771e-04  -1.7130192e-04  -2.3119373e-04  -1.2096055e-04  -3.0173731e-04  -3.4343108e-04  -3.6628635e-04  -3.3949284e-04  -1.8380421e-04  -3.4096176e-04   4.4839797e-04  -2.6512623e-04  -2.2548015e-04  -2.8699919e-04  -1.9902208e-04  -4.6777807e-04  -2.2083108e-04  -2.5292716e-04  -3.6619088e-04  -3.4944917e-04  -6.1663450e-04  -3.8428832e-04  -3.5274199e-05  -3.2231823e-04  -2.6829378e-04  -2.2739089e-04   9.5038868e-06  -3.4125434e-04
  -2.4897582e-04  -1.2333915e-04  -1.5730233e-05   7.9448517e-05  -1.1830214e-04  -1.9306944e-04  -1.1991247e-04   1.9031422e-05  -1.2398398e-04   1.7102557e-04   8.0948361e-05  -8.4238032e-05   3.1605738e-05  -5.2053820e-06  -4.5931953e-05  -5.9001275e-05  -2.1588159e-04  -3.0423159e-04   1.6329880e-04   1.5526540e-04   4.0381929e-04   6.0178014e-04   1.7123547e-04   6.8219080e-05  -4.2627958e-06   1.9713282e-04  -2.4693282e-04  -2.9869186e-04  -3.7191078e-04  -2.1311725e-04   7.0143542e-05  -9.6404561e-05   6.1334361e-04  -5.6767840e-06  -1.1545170e-04   7.5524167e-06  -1.3955063e-04  -2.9021932e-04  -1.4557982e-04  -5.1935331e-06  -1.6133321e-04  -2.1452455e-04  -4.0741285e-04  -7.5298238e-05   1.8155584e-04  -9.4949210e-05  -7.6089171e-05  -2.6165511e-04   1.6564215e-04  -1.8736410e-04
  -1.3735043e-04  -1.0047571e-04   5.1498322e-05  -1.6210073e-05  -9.9253659e-05  -2.0887528e-04  -1.1238054e-04   1.8603815e-06  -1.1978367e-04   1.4523414e-04   8.5000771e-05  -1.3284576e-04   6.8641293e-06  -4.7327536e-05  -7.8532257e-06  -7.3629439e-05  -2.0623245e-04  -2.5314713e-04   7.5877484e-05   3.6269161e-05   3.8335420e-04   5.5272860e-04   1.1444392e-04   5.9545797e-05  -3.2142067e-05   1.2309854e-04  -1.6771514e-04  -2.6944908e-04  -1.9642466e-04  -2.4198899e-04   3.5185240e-05  -1.4654789e-04   5.4603157e-04  -5.0633600e-05  -1.0934960e-04  -1.9040664e-05  -1.4232442e-04  -2.7393279e-04  -1.7408427e-04  -3.8307822e-05  -3.1572161e-04  -2.7152005e-04  -6.5263885e-04  -4.8439772e-04   1.7920858e-04  -1.6930480e-04  -2.4946980e-04  -5.4178672e-04   1.3519975e-04  -2.6227121e-04
  -1.7340033e-04  -1.6435482e-04  -7.6875032e-05  -1.5330216e-04  -2.1043325e-04  -3.0379175e-04  -2.0666477e-04  -1.9326289e-04  -3.1199362e-04  -4.6492469e-06  -1.5618547e-04  -1.9551348e-04  -8.6642569e-05  -1.1560958e-04  -9.2330938e-06  -1.2837844e-04  -2.4452049e-04  -2.2165105e-04   1.5660111e-04  -4.4755623e-05   3.9998058e-04   6.5611687e-04   1.5128701e-04   2.4237091e-04   7.5905911e-05   1.9589654e-04  -4.7732785e-05  -2.2115000e-04  -4.6685262e-05  -2.6969163e-04   1.5907499e-04  -3.4867164e-05   6.3652283e-04   1.1290372e-04  -3.4998811e-05   1.8380636e-04  -1.7105219e-04  -9.1983631e-05  -2.3439857e-04   2.3789961e-04  -7.1515446e-05  -6.8652320e-05  -4.4056345e-04   8.6259897e-05   5.1686523e-04   9.0126079e-05   1.2821628e-04   7.3074050e-05   5.4507056e-04  -6.7780770e-06
   1.8805359e-04   1.9039110e-04   2.4613162e-04   2.5429795e-04   4.2154410e-05  -9.6257259e-05   4.4019551e-05   8.7960188e-06   1.4467569e-04   4.5604794e-04   3.0891781e-04   1.6222034e-04   1.5626966e-04   7.1994815e-05   6.9805741e-05   4.4032484e-05   5.1008985e-05  -3.8773658e-05   4.3507176e-04   2.3430579e-04   5.8622658e-04   5.9310801e-04   3.0339771e-04   3.2766632e-04   1.5126383e-04   2.4005769e-04  -7.9043602e-05  -2.6270509e-04  -2.3092864e-04  -1.9395071e-04   2.4820620e-04   1.0328250e-04   6.1993877e-04   2.4617987e-04  -1.2302323e-04   1.1024869e-04  -3.5418046e-04  -4.8672726e-05  -3.2732432e-04   2.5750283e-04   1.1200372e-07  -7.6339340e-05  -2.9985825e-04  -1.0433200e-04   3.6823144e-04   3.6640704e-05   9.4971656e-05  -3.5561858e-05   3.6971385e-04  -1.7826644e-05
   1.3326707e-04   1.1295312e-04   1.5124818e-04   1.6618936e-04  -1.3765611e-05  -1.8228113e-04  -8.1057464e-05  -6.1281477e-05   7.5487820e-05   2.9511307e-04   2.1201198e-04   1.1123516e-04   1.0697361e-04   4.9626404e-05   4.2816078e-05   1.2334524e-05  -2.2569549e-05  -8.6845830e-05   1.7230031e-04   1.1560918e-04   3.1517437e-04   3.3696994e-04   2.1603261e-04   1.3514969e-04   6.1757091e-05   8.3255516e-05  -1.0168813e-04  -2.2648003e-04  -2.2781301e-04  -1.9709171e-04   1.5010042e-04   5.4472988e-05   4.7734421e-04   9.7433338e-05  -1.8030316e-04  -1.4054462e-04  -3.2315563e-04  -1.9018384e-04  -2.2213628e-04   5.0602694e-06  -2.1028267e-04  -2.4447739e-04  -3.0759591e-04  -4.2709420e-04  -2.5926391e-05  -2.1304149e-04  -1.8423457e-04  -2.4672516e-04   1.2458945e-04  -1.6727384e-04
  -7.2221269e-06  -2.1333104e-05   1.1057260e-04   2.1432831e-04   2.0644118e-06  -1.1618794e-04  -9.4192779e-05   4.2264728e-05   2.5789833e-04   3.5707839e-04   3.6633023e-04   3.0096827e-04   2.0229662e-04   1.0633931e-04   7.2173731e-05   1.0911195e-04   1.0339502e-04  -1.9773657e-05   3.9837210e-04   2.8558660e-04   3.1655107e-04   5.1366520e-04   4.4082224e-04   4.3752219e-04   2.3682775e-04   3.7406539e-04  -8.8748049e-05  -1.9042821e-04  -2.7006393e-04  -7.4779520e-05   3.6731880e-04   2.8733566e-04   8.0006104e-04   3.9250017e-04   1.6979482e-05   3.4783734e-04  -1.5808786e-04   8.8136585e-05  -8.8945555e-05   4.2858507e-04   4.0711966e-04   2.3352394e-04   2.4841793e-04   5.4170308e-04   4.5399976e-04   3.6832140e-04   3.0300603e-04   5.3484697e-04   4.5585525e-04   3.2917058e-04
   3.8143963e-04   2.6033746e-04   5.1408820e-04   3.8824868e-04   1.6384287e-04   2.5366475e-05   1.3861757e-04   1.7128479e-04   4.2275264e-04   5.3657498e-04   4.9635203e-04   4.8746515e-04   2.8707774e-04   2.4023188e-04   1.6058302e-04   2.3660538e-04   2.9124154e-04   1.6898643e-04   5.6466990e-04   3.3071049e-04   2.7255854e-04   5.4797967e-04   5.1425642e-04   5.1070086e-04   3.2529121e-04   4.7139166e-04   1.0415653e-05  -1.2113725e-04  -1.1082888e-04   1.9657249e-05   3.9304272e-04   3.1422975e-04   6.9389626e-04   4.1327704e-04   5.2861710e-06   3.2599806e-04  -2.0353998e-04   1.6427280e-04  -8.2548584e-05   4.3437906e-04   3.8951857e-04   3.4871179e-04   3.8164726e-04   2.9742240e-04   3.5561225e-04   4.2273660e-04   2.4007219e-04   4.8313622e-04   3.3372841e-04   3.1336767e-04
   3.2046414e-04   1.5419960e-04   3.9073048e-04   1.5331841e-04   6.5027656e-05  -3.9036135e-05   5.9682494e-05   9.2136019e-05   2.8533995e-04   3.6863194e-04   3.1922612e-04   3.7101482e-04   1.9617753e-04   2.1298791e-04   1.7424613e-04   1.7864844e-04   1.8422627e-04   1.3986124e-04   3.1759051e-04   1.5089214e-04   1.3912610e-04   3.8416870e-04   3.8691415e-04   3.8730123e-04   2.2425791e-04   3.0402493e-04   3.0345349e-05  -1.1613487e-04  -4.4606422e-05  -2.0821659e-05   2.8175765e-04   2.0888944e-04   5.7095161e-04   2.4687778e-04  -2.4577217e-05   1.8301279e-04  -2.0761580e-04   9.6375792e-05  -7.0429589e-05   2.5099702e-04   3.1413804e-04   3.3435412e-04   2.6835554e-04   2.7551263e-04   3.2855105e-04   3.7511616e-04   2.3896895e-04   4.6335204e-04   5.5511843e-04   3.7256186e-04
   4.0953897e-04   2.9471560e-04   5.1610701e-04   4.5907329e-04   1.8409791e-04   1.4841849e-04   2.7357979e-04   2.3551064e-04   5.7373202e-04   7.1637926e-04   5.7283812e-04   6.6770765e-04   3.7747607e-04   3.8517575e-04   3.2014633e-04   4.1463962e-04   4.5342001e-04   3.4726047e-04   8.9757878e-04   5.0483586e-04   4.5289972e-04   7.4672600e-04   7.1308581e-04   7.4901019e-04   5.4769870e-04   6.7553337e-04   2.0173688e-04   1.7074852e-05   1.7149046e-04   1.4373842e-04   5.9317495e-04   5.3263898e-04   9.2388142e-04   6.1739207e-04   1.4002855e-04   5.2514893e-04  -1.0755995e-04   4.0983059e-04   6.0276248e-05   6.4532913e-04   5.9321040e-04   5.9011491e-04   5.3401885e-04   6.8786624e-04   6.6325546e-04   6.1463646e-04   5.9898588e-04   6.9908483e-04   7.7902945e-04   4.9657963e-04
   5.7170412e-04   4.2014377e-04   6.0389866e-04   4.8442965e-04   2.4920708e-04   1.7091283e-04   2.9090652e-04   3.1187353e-04   6.5701420e-04   8.1373105e-04   6.8257062e-04   6.5674348e-04   4.2538779e-04   4.2663867e-04   2.9958613e-04   4.1118811e-04   4.5563345e-04   3.3141652e-04   7.9728442e-04   6.0087163e-04   6.0162216e-04   5.8299239e-04   6.7402987e-04   6.2039046e-04   4.4614213e-04   5.5582210e-04   1.2234364e-04  -5.9564347e-05  -3.2888256e-05   1.0193118e-04   5.2015495e-04   5.0602108e-04   9.8694535e-04   5.5485265e-04   3.3067481e-05   4.0514991e-04  -2.7600912e-04   3.4977531e-04  -6.0311238e-05   5.4762111e-04   6.0925283e-04   5.3974264e-04   5.8921642e-04   4.5944253e-04   4.4854020e-04   6.4052286e-04   4.2707549e-04   5.3184299e-04   5.6298741e-04   5.0729630e-04
   3.7608691e-04   2.3259595e-04   4.2173106e-04   3.4191593e-04   1.3370453e-04  -4.4136475e-05   8.6697168e-05   1.1718924e-04   3.6744628e-04   5.4202235e-04   3.7413006e-04   6.3722319e-04   2.9085451e-04   3.4176628e-04   2.1247265e-04   2.8558497e-04   2.7714897e-04   2.6518994e-04   4.7254818e-04   3.7311076e-04   1.9655009e-04   3.8308848e-04   5.2593992e-04   4.5467564e-04   3.1609481e-04   3.6201571e-04   6.3754815e-05  -7.6220495e-05  -7.7995661e-05   6.2436389e-05   3.4023088e-04   4.3256782e-04   6.3383265e-04   3.7898251e-04  -7.9598110e-05   7.9094716e-05  -3.0072447e-04   1.8266264e-04  -9.6270989e-05   2.8016485e-04   3.1973756e-04   2.9019671e-04   3.6404099e-04   7.2901603e-05   2.0200491e-04   3.1560630e-04   1.9112359e-04   1.8323059e-04   4.1005251e-04   3.2396766e-04
   2.6678291e-04   9.4375479e-05   4.5989253e-04   3.6268504e-04   1.6359981e-04   1.1038395e-05   1.1202152e-04   2.2322340e-04   6.9334765e-04   8.3816051e-04   7.3190714e-04   7.2826189e-04   3.8514182e-04   3.4550225e-04   2.1551485e-04   3.6978463e-04   3.5766137e-04   2.5515858e-04   8.7382359e-04   5.8211701e-04   5.5867754e-04   6.2985980e-04   7.4752833e-04   6.8091910e-04   5.1118771e-04   6.4723357e-04   8.2172221e-05  -8.0201840e-05  -6.3505184e-05   1.4475979e-04   5.4515392e-04   5.8437127e-04   8.2716462e-04   6.6951901e-04   8.4624320e-05   5.6758488e-04  -2.3709820e-04   4.8326937e-04  -9.7766733e-06   7.2984502e-04   7.2884670e-04   6.7262718e-04   6.2683475e-04   8.5526198e-04   7.3891430e-04   8.1377686e-04   5.6630775e-04   7.6249026e-04   9.4426796e-04   6.2382326e-04
   5.9979438e-04   4.1575191e-04   7.0290762e-04   5.9800455e-04   3.4846331e-04   1.3676223e-04   3.0425424e-04   3.1827245e-04   7.8228209e-04   9.3131431e-04   7.8318262e-04   8.9092390e-04   4.6244194e-04   4.3600940e-04   3.5179869e-04   4.4937208e-04   4.2440990e-04   4.3416096e-04   9.3178608e-04   5.1881134e-04   6.9912692e-04   8.3064754e-04   7.8291644e-04   6.6272484e-04   5.8421528e-04   7.1382429e-04   3.0358380e-04   6.6658227e-05   3.0258764e-04   1.7369572e-04   4.9921114e-04   5.7904416e-04   7.3845591e-04   5.9747242e-04   1.2660427e-04   5.6469976e-04  -1.7435527e-04   5.4215244e-04   9.8998680e-05   7.0482987e-04   5.3219951e-04   5.5830000e-04   2.5655937e-04   7.4361492e-04   8.0328272e-04   6.7325728e-04   5.0595880e-04   4.0898094e-04   8.8552950e-04   4.7865117e-04
   5.6905992e-04   3.3959962e-04   5.4173963e-04   4.0152646e-04   2.5840869e-04   1.1404196e-04   2.3920654e-04   2.1457800e-04   5.4363004e-04   7.2983949e-04   5.7328027e-04   7.4460724e-04   3.5045668e-04   3.6437906e-04   3.5066839e-04   3.3852222e-04   2.4780561e-04   3.4835294e-04   7.7207951e-04   4.5503260e-04   4.0607376e-04   5.4748147e-04   6.0406455e-04   5.9693394e-04   4.6580477e-04   5.1686278e-04   3.2761501e-04   7.6106582e-05   3.7823999e-04   6.5829947e-05   3.5333418e-04   4.4145330e-04   9.4314868e-04   4.4946806e-04   4.0634612e-05   3.4755407e-04  -2.2283623e-04   3.7784633e-04   4.1452658e-05   4.5986450e-04   3.0587267e-04   2.7998988e-04  -2.4345673e-05   3.2823044e-04   4.7445670e-04   4.6226926e-04   2.2483147e-04  -3.5089037e-05   5.5226509e-04   3.5627585e-04
   3.6643853e-04   1.3896525e-04   3.4454704e-04   2.0489974e-04   1.3276421e-04   5.1916781e-05   1.7178086e-04   1.0126025e-04   5.2637188e-04   6.8727869e-04   4.4096651e-04   7.2979467e-04   3.0812263e-04   3.7493408e-04   3.9586320e-04   3.5093451e-04   2.7381131e-04   3.7847369e-04   9.5584209e-04   5.3385203e-04   3.9600942e-04   6.5709039e-04   6.6898484e-04   7.1161444e-04   5.8231241e-04   6.8698288e-04   3.3635963e-04   1.3004383e-04   4.2009429e-04   1.5302788e-04   4.8404018e-04   5.8690249e-04   1.0017648e-03   6.9512543e-04   1.9938235e-04   6.5099512e-04  -3.4550187e-05   5.2430091e-04   1.9453331e-04   7.2274212e-04   6.9338753e-04   5.4855482e-04   3.9911745e-04   9.6153433e-04   6.3311879e-04   8.2546507e-04   5.5383181e-04   6.4243621e-04   6.5916363e-04   6.1039254e-04
   5.8221776e-04   4.4373624e-04   5.7479087e-04   5.2669516e-04   3.0049044e-04   2.2510285e-04   3.8840738e-04   2.8743673e-04   6.8873842e-04   8.3767227e-04   5.8450981e-04   8.1993861e-04   3.7125271e-04   4.4304464e-04   4.5698253e-04   3.8776701e-04   3.2252085e-04   4.1346313e-04   9.7250810e-04   5.9131754e-04   3.4059543e-04   6.3434144e-04   6.3979632e-04   6.5156847e-04   6.0385739e-04   6.4926315e-04   3.6412716e-04   1.8192861e-04   4.4927481e-04   1.7476303e-04   4.5967722e-04   5.4574327e-04   8.7902433e-04   6.1578851e-04   1.6888113e-04   5.4067950e-04  -1.3571583e-05   4.9939932e-04   2.1235936e-04   6.1372819e-04   5.7318888e-04   4.0830224e-04   2.8784893e-04   6.5383530e-04   4.1038153e-04   7.1250129e-04   3.6879440e-04   3.5247667e-04   4.7422660e-04   5.0430885e-04
   4.6292561e-04   2.9384426e-04   4.2912690e-04   3.2650263e-04   1.8407308e-04   1.5865402e-04   2.8721086e-04   1.9644634e-04   4.7951462e-04   5.9615565e-04   3.6100502e-04   5.7404448e-04   2.2883291e-04   3.5616854e-04   4.2964437e-04   2.5528131e-04   1.4395447e-04   2.7895987e-04   6.7920639e-04   4.1038293e-04   1.5548368e-04   4.3603845e-04   4.0737182e-04   3.9001636e-04   3.8994735e-04   4.1579377e-04   3.0510774e-04   1.4600648e-04   3.9691356e-04   6.8978006e-05   2.6887620e-04   3.4813667e-04   6.0457515e-04   3.5443765e-04   7.8515011e-05   2.7927780e-04  -4.5305187e-05   2.9794738e-04   1.7799255e-04   3.3164193e-04   2.4874069e-04   1.8733837e-04  -3.7876402e-05   1.4998332e-04   1.8419803e-04   4.1069940e-04   1.5892429e-05  -7.4183867e-05   2.3373973e-04   1.9462031e-04
   1.9609556e-04   6.8432179e-05   1.3210307e-04   1.1549955e-04   8.7348244e-06   1.9634053e-05   9.1623624e-05   2.5128626e-05   1.7392298e-04   3.2304629e-04   6.3451131e-05   3.4789735e-04   7.1168077e-05   1.8814486e-04   3.4735788e-04   1.0425169e-04  -5.1330222e-05   1.2909438e-04   6.6363328e-04   3.2046993e-04   1.8677139e-04   4.8172064e-04   3.6104553e-04   4.5633089e-04   4.2206023e-04   4.2747697e-04   3.0469024e-04   1.1912662e-04   4.3673997e-04   2.4602781e-05   3.0977468e-04   3.8107744e-04   7.2605856e-04   4.7328384e-04   1.5173999e-04   4.9381464e-04   2.3834114e-05   3.5032732e-04   1.5188674e-04   5.4212823e-04   4.3784475e-04   3.1310844e-04   2.2578672e-05   7.9369592e-04   4.3403261e-04   5.8206602e-04   3.0920497e-04   3.9592345e-04   4.6067403e-04   3.2960746e-04
   4.7487699e-04   3.8538655e-04   4.6705507e-04   5.0772313e-04   2.5135954e-04   2.5965224e-04   3.9452902e-04   2.5331811e-04   5.6597323e-04   7.0481887e-04   4.0912614e-04   6.3140620e-04   2.4707787e-04   3.2441720e-04   4.0933705e-04   2.1112409e-04   1.0021644e-04   2.1609165e-04   8.3212182e-04   4.4840499e-04   2.2448250e-04   5.5311614e-04   4.0452072e-04   4.8331684e-04   4.4555592e-04   4.3022246e-04   2.9964195e-04   1.2906270e-04   3.6997395e-04   5.3088450e-05   2.6324677e-04   3.6313740e-04   5.6664314e-04   4.3800930e-04   1.0075804e-04   3.8748610e-04  -5.6642302e-06   3.0931059e-04   1.3627953e-04   4.9191056e-04   3.5949671e-04   1.8617045e-04  -4.3403128e-05   5.6409120e-04   2.1512911e-04   4.8414554e-04   2.0743754e-04   1.3564013e-04   1.9077341e-04   2.2249053e-04
   3.2578077e-04   2.5558038e-04   2.9633119e-04   3.1718949e-04   1.3781634e-04   1.3110344e-04   2.4531651e-04   1.4409072e-04   3.6961469e-04   4.7700683e-04   2.4230046e-04   4.2086115e-04   1.3676284e-04   2.2608458e-04   3.4891116e-04   6.7599336e-05  -7.4796859e-05   8.0506383e-05   5.8645976e-04   2.7286660e-04   8.6523512e-05   3.0603117e-04   2.0726259e-04   2.2088399e-04   2.7583961e-04   1.8582810e-04   1.9156502e-04   7.1609349e-05   2.7605251e-04  -4.2396336e-05   6.4335836e-05   1.5361905e-04   2.1658195e-04   1.6176692e-04  -2.3433498e-05   9.1727175e-05  -8.2142069e-05   7.4564661e-05   7.1025643e-05   1.1687332e-04   6.4364676e-06  -1.1494042e-04  -3.3007914e-04   1.1479023e-04  -1.5016696e-04   7.9721671e-05  -2.0117272e-04  -3.2454700e-04  -1.9831727e-04  -6.2245257e-05
   1.3118404e-05  -2.9347999e-05  -3.1716103e-05  -5.1425890e-05  -8.3964187e-05  -7.7077799e-05  -2.8307137e-05  -7.9875208e-05   8.9589295e-05   9.7683784e-05  -3.9150134e-05   1.5983749e-05  -7.0967923e-05   2.0671087e-05   1.8703812e-04  -1.6309980e-04  -3.6724927e-04  -1.6747181e-04   2.5511795e-04   1.2878823e-05  -6.3113104e-05   1.8621915e-05  -3.2024353e-05  -3.5159770e-05   5.4752953e-05  -8.4005602e-05   5.1462830e-05  -4.0963823e-05   1.4631863e-04  -1.6904571e-04  -2.5113628e-05   1.2163922e-05   1.3982029e-04   7.0648690e-05  -5.1415602e-05   8.8827794e-05  -7.7951867e-05  -3.4901721e-05   3.9718521e-05   1.8146445e-04   6.1603714e-05  -8.7700748e-05  -2.9377348e-04   2.8055348e-04  -2.7646400e-05   1.1422910e-04   1.9577225e-05  -7.9418474e-05  -9.3807350e-05  -6.3835600e-05
   1.6891057e-04   2.0843145e-04   2.0525543e-04   2.9035044e-04   1.0004258e-04   8.4472551e-05   1.9915597e-04   9.7136814e-05   4.0449091e-04   4.5241401e-04   2.9422523e-04   2.9404921e-04   8.2657578e-05   9.3066948e-05   1.9759510e-04  -8.0673650e-05  -2.0156799e-04  -1.1081027e-04   6.3522841e-04   2.4830838e-04   1.3208289e-04   2.7866670e-04   7.9669517e-05   1.1254447e-04   1.9765455e-04   1.0289071e-04   1.5700492e-05  -8.0014572e-05   4.8587899e-05  -1.2413837e-04  -1.3270683e-07   1.4685254e-05   1.7264567e-04   1.1275126e-04  -8.6261694e-05   7.7182514e-05  -1.7119678e-04  -5.0939863e-05  -2.7192233e-05   1.2925862e-04  -4.3929365e-05  -1.6143557e-04  -3.3780246e-04   2.0409642e-04  -1.4177119e-04   1.9729796e-05  -9.8238394e-05  -1.4177794e-04  -2.7132564e-04  -1.5792063e-04
   7.4043091e-05   6.3876025e-05   9.7142809e-05   1.4726470e-04   5.3092012e-06  -2.4753768e-05   7.7608071e-05   3.1139149e-07   2.8520485e-04   2.8978827e-04   1.8340632e-04   9.2338327e-05  -3.6412079e-05  -7.9920246e-06   1.2389578e-04  -1.8844861e-04  -3.2913726e-04  -2.3371543e-04   4.3469598e-04   1.0633765e-04   3.0728759e-05   9.6861804e-05  -7.3375079e-05  -4.4322933e-05   2.6443755e-05  -1.0985811e-04  -6.3517844e-05  -1.4575136e-04  -6.5064865e-05  -2.2492251e-04  -1.8478777e-04  -1.7001363e-04  -1.1361242e-05  -1.0643677e-04  -2.1309200e-04  -2.0640150e-04  -2.6686292e-04  -2.2780284e-04  -1.5491503e-04  -1.2368184e-04  -3.1182260e-04  -4.2535894e-04  -5.8277056e-04  -2.6157292e-04  -4.0484924e-04  -2.2387346e-04  -3.4320939e-04  -5.4275099e-04  -5.3269765e-04  -3.9205514e-04
