   2.7750075e-04   1.1576552e-04   1.4423460e-04   1.4823291e-04   8.3913721e-05   1.2077179e-04   2.2334601e-04   8.0813123e-05   1.7807340e-04   4.3007902e-05   1.1407294e-04   1.5464744e-04   1.0118905e-04   1.2984766e-04   2.0431893e-04   1.4876169e-05   1.0087174e-05  -2.8593868e-06   2.3667177e-04   3.2349821e-05   9.7800785e-06  -7.0078255e-05   1.0189988e-04   1.7617435e-04   1.4095820e-04  -5.4942557e-05   1.8072277e-04   1.4134894e-04   1.0500181e-04  -4.2873571e-06   3.1384818e-05   5.0629173e-05   2.0295251e-04   5.1232000e-05   1.4538034e-04   1.7033335e-05   3.0549179e-04  -2.4873607e-05   1.4367522e-04  -4.7295955e-05   2.3501809e-05   1.2814805e-04  -3.7393278e-05  -1.4102829e-05   1.6203782e-04   1.3841936e-04   1.1429648e-04   6.2642328e-05  -3.8912465e-05   2.8777551e-05
   2.5030991e-04   1.0263555e-04   1.4588665e-04   1.2294411e-04   6.7809393e-05   1.2593489e-04   1.8314313e-04   1.0261535e-04   2.3332211e-04   3.7641050e-05   1.4974820e-04   1.9796457e-04   1.0575144e-04   1.2310213e-04   1.4389098e-04   1.1177503e-05   1.5336343e-05  -1.3038885e-05   2.4707749e-04   3.0774660e-05  -1.8520741e-05  -6.5805405e-05   9.6859774e-05   1.8582086e-04   6.3354564e-05  -2.9280131e-05   7.3368559e-05   6.7357832e-05  -6.1841150e-05  -2.3220748e-05   2.8964103e-05   3.8230319e-05   1.5927061e-04   2.5483143e-05   9.2990318e-05   1.8767802e-06   7.4762196e-05  -5.0750390e-05   2.7991735e-05  -6.6851338e-05   5.1841511e-05   1.1365748e-04   3.0413770e-05   4.2185409e-05   1.0948691e-04   1.1233696e-04   9.2548493e-05   3.0519516e-06  -9.1912443e-05   4.0026884e-05
   1.4160814e-04   3.9069790e-05   1.2553473e-04   1.1209706e-04   5.7769463e-05   5.4333421e-05   1.4201012e-04   9.9864767e-05   2.1590001e-04   4.6742887e-05   1.5682458e-04   1.6117890e-04   8.3083447e-05   1.0823418e-04   8.2932711e-05   8.5741749e-06  -2.2871989e-06  -4.1866489e-05   1.9610781e-04   5.0167665e-07  -2.8279512e-05  -7.1613620e-05   8.3116138e-05   1.5044064e-04   6.2463885e-05  -3.5896512e-05   6.3731481e-05   4.5924036e-05  -1.0299739e-04  -2.8454877e-05   1.8650042e-05   2.2178641e-05   1.9647702e-04   6.6951020e-06   8.3367682e-05   7.3240344e-06   5.1672061e-05  -4.9233389e-05   2.3666546e-05  -1.0521301e-04   3.5058842e-05   9.8162229e-05   2.1439000e-05   3.0644718e-05   8.1787417e-05   1.4490927e-04   2.6590580e-05  -9.9915123e-06  -5.6047127e-05   4.8119837e-05
   1.3351283e-04   5.1768406e-05   1.2372195e-04   9.3877425e-05   6.1938801e-05   5.7204550e-05   1.1242070e-04   1.0242687e-04   1.8770402e-04   3.0266836e-05   1.3061913e-04   1.2452104e-04   8.2879960e-05   1.1066897e-04   9.0608890e-05   4.5133279e-06  -1.4510951e-05  -3.5109158e-05   1.9183902e-04   9.5992550e-07  -1.6761054e-06  -3.0086134e-05   8.2418141e-05   1.4733961e-04   5.4469128e-05  -3.3651617e-05   7.6028169e-05   8.7692941e-05  -5.9268175e-05  -1.4169756e-05   3.2173168e-05   3.5584992e-05   1.9157025e-04   1.8374822e-05   1.0079615e-04   3.3539254e-06   1.0640903e-04  -2.4962743e-05   4.9905870e-05  -8.3964464e-05   2.4927183e-05   1.0013684e-04  -2.0024015e-06  -1.1109341e-04   1.2835320e-04   1.6253447e-04   5.8818285e-05   4.7760191e-06  -9.4510411e-05   6.5647015e-05
   1.4004434e-04   4.1866435e-05   1.2993641e-04   6.6693188e-05   5.6689598e-05   2.0243191e-05   9.0664369e-05   6.4260785e-05   1.7063542e-04   5.1530202e-05   1.4484156e-04   1.5481484e-04   7.9250553e-05   7.2288960e-05   5.9319089e-05  -1.6998734e-05  -1.2334355e-05  -3.5434001e-05   1.9613946e-04   1.0162010e-05   2.1350412e-05   1.1021613e-05   7.7828590e-05   1.5476086e-04   7.9142868e-05  -1.4568238e-05   5.6927536e-05   1.7055960e-05  -1.0048773e-04  -3.6570236e-05   2.5310974e-05   2.5861131e-05   1.7173857e-04   8.8829156e-06   7.1957074e-05   4.9824798e-06  -1.9431853e-05  -2.7354257e-05  -1.4644541e-05  -1.0213903e-04   2.5205204e-06   6.6310822e-05  -3.4507750e-05  -9.1876907e-05   1.4446743e-04   1.0557525e-04   8.7079970e-05   1.8081622e-05  -2.4727702e-05   7.6408003e-05
   1.4345166e-04   3.9600611e-05   1.2884634e-04   8.4383420e-05   6.0133440e-05   1.8192308e-05   1.0955970e-04   7.8183490e-05   1.3584984e-04   4.7928028e-05   1.2272087e-04   1.3088733e-04   7.5978605e-05   6.4116262e-05   6.0883500e-05  -1.5406020e-05  -2.2934861e-05  -3.8727150e-05   1.7504665e-04  -4.0131422e-07   1.7628854e-05   5.7185489e-06   7.1377362e-05   1.3820535e-04   6.9255751e-05  -2.5512923e-05   6.8742287e-05   3.2094078e-05  -7.4096148e-05  -2.0527859e-05   2.9371842e-05   2.6737041e-05   1.6256637e-04   5.1132774e-06   8.4638232e-05  -1.1602606e-05   5.1195821e-05  -4.2187108e-05   1.1327880e-05  -1.0672872e-04  -4.8217335e-06   5.2007228e-05  -5.6880461e-05  -8.8990273e-05   1.3639685e-04   1.3515873e-04   8.0364298e-05  -2.8671557e-05  -3.1014923e-05   7.6200376e-05
   1.5237795e-04   4.1882893e-05   1.2834228e-04   7.0910457e-05   7.1067050e-05   4.7891608e-05   1.1327301e-04   9.3054594e-05   1.4184488e-04   4.5187313e-05   1.0665469e-04   1.1443723e-04   7.7229102e-05   7.3039453e-05   7.1161565e-05  -9.6172862e-06  -2.8371212e-05  -3.7039383e-05   1.4721637e-04   1.4610627e-06   1.0551105e-05   1.0000249e-05   7.6658827e-05   1.3439119e-04   8.9210567e-05  -3.5135272e-05   9.4917552e-05   5.6127297e-05  -4.2521999e-05  -1.4703575e-05   4.7314319e-05   3.3274326e-05   1.4101689e-04  -3.2893638e-06   9.8462609e-05  -8.7339949e-06   1.0491854e-04  -3.7786103e-05   9.3324297e-06  -1.1024679e-04  -2.7587717e-05   5.1130730e-05  -4.3924028e-05   6.0765483e-06   1.2940096e-04   1.4380991e-04   5.7904224e-05  -3.4910274e-06  -5.8370228e-05   8.5632382e-05
   1.5151445e-04   2.4108131e-05   1.3215000e-04   8.9801069e-05   5.4635384e-05   6.5580639e-06   8.2379658e-05   5.2503707e-05   1.4171236e-04   5.8210779e-05   1.2724769e-04   1.4361578e-04   7.4569572e-05   5.3764041e-05   3.6196991e-05  -2.0253492e-05  -2.0351690e-05  -3.4442539e-05   1.5464990e-04   2.5929298e-06   2.3033663e-05   6.6544521e-06   6.6736597e-05   1.3860154e-04   7.2226598e-05  -2.4719255e-05   2.3212053e-05   1.3458590e-05  -1.1958917e-04  -3.2342970e-05   2.9689780e-05   6.7076439e-06   1.3191126e-04   8.5603351e-06   6.3465326e-05  -3.5554101e-05  -8.9275281e-06  -4.3766464e-05  -2.2601775e-05  -1.3582029e-04  -1.6956634e-05   6.2447369e-05  -3.7969843e-05  -8.1905659e-05   8.0118829e-05   1.2373354e-04   1.4390553e-04   1.8560855e-05  -7.1090530e-05   8.1053055e-05
   1.2808408e-04   4.8678026e-05   1.2132432e-04   7.1118222e-05   5.4016760e-05   2.1863341e-05   7.7941702e-05   5.4320542e-05   1.2914612e-04   3.9937575e-05   1.1811341e-04   1.1496511e-04   6.2685416e-05   6.3452128e-05   5.5227792e-05  -2.0253692e-05  -2.8871262e-05  -4.6127898e-05   1.4050682e-04   3.7699589e-08  -1.3220809e-05  -1.4947510e-05   7.1261195e-05   1.0786863e-04   5.3844658e-05  -3.9333754e-05   4.2942822e-05   3.3363143e-05  -1.0318024e-04  -1.4490162e-05   1.8521590e-05   7.6269876e-06   1.3937357e-04  -3.3468466e-05   7.5556884e-05  -5.2522526e-05   4.2958720e-05  -5.6126042e-05   1.0266994e-05  -1.0859458e-04  -8.4320418e-06   4.7989521e-05  -5.0399311e-05  -4.6114896e-05   9.2313639e-05   1.1986141e-04   1.2690545e-04  -7.1522118e-05  -5.8513382e-05   8.6849432e-05
   1.3296668e-04   6.5004051e-06   1.1695780e-04   7.5983298e-05   5.5288936e-05   4.8444657e-05   7.0696995e-05   8.7971857e-05   1.3567331e-04   2.9568992e-05   1.1230682e-04   9.4617193e-05   5.4688386e-05   8.1377788e-05   7.1487753e-05  -7.0981055e-06  -2.9663064e-05  -5.1167241e-05   1.2366878e-04   2.1010680e-06  -9.7948414e-06  -4.6181878e-05   6.3732477e-05   1.1298728e-04   2.8823810e-05  -6.0620048e-05   4.9828093e-05   6.4580250e-05  -8.0919774e-05   2.0767252e-06   3.8121765e-05   3.6284582e-06   1.2578120e-04  -2.4877965e-05   9.4513169e-05  -6.5072461e-05   9.9092234e-05  -6.5133405e-05   3.9469021e-05  -1.2487282e-04  -1.8086545e-05   6.3963496e-05  -4.4579327e-05  -6.5441964e-05   8.6910601e-05   1.0729776e-04   7.4101394e-05  -5.4109893e-05  -7.3896859e-05   8.8194931e-05
   1.3061083e-04   5.1763268e-06   1.1921706e-04   1.0134185e-04   4.2515967e-05   1.0969149e-05   5.2636042e-05   5.8290138e-05   1.4763634e-04   4.2717653e-05   1.2899810e-04   1.2129988e-04   5.1439049e-05   6.3170810e-05   4.5799407e-05  -2.4700756e-05  -1.9994504e-05  -5.5487690e-05   1.3811087e-04   1.5494001e-05   1.3976254e-05  -3.1200772e-05   6.5268236e-05   1.1231346e-04   4.2696705e-05  -3.3660777e-05  -7.7921359e-06   9.4637480e-06  -1.4908431e-04  -1.4812844e-05   3.3501296e-05  -1.2352121e-05   1.3182743e-04  -3.2569191e-05   6.6428816e-05  -4.1836112e-05   1.1216662e-06  -6.4714150e-05  -2.1300144e-05  -1.3084197e-04  -1.6677632e-05   6.0530325e-05  -1.2491981e-05  -1.0742787e-04   6.3791995e-05   1.2393958e-04   1.0884072e-04  -8.8046414e-05  -9.5159419e-05   7.5259391e-05
   1.1068069e-04  -9.4185652e-06   1.1444525e-04   8.4014879e-05   3.8298705e-05   1.1750761e-05   3.6318866e-05   6.8657981e-05   1.3600747e-04   2.6419480e-05   1.2107501e-04   1.0192570e-04   4.0173491e-05   6.9507660e-05   4.6961075e-05  -2.5739037e-05  -2.6217242e-05  -5.7476063e-05   1.1670872e-04   1.4164792e-05   2.1722139e-05  -4.2994314e-05   6.4903041e-05   9.9771409e-05   4.1302388e-05  -6.5074149e-05   2.0793022e-05   2.9534171e-05  -1.3469480e-04  -1.3654533e-05   2.4667826e-05  -1.2218411e-05   1.1819976e-04  -3.4975728e-05   7.6965553e-05  -5.6487293e-05   6.0445025e-05  -7.0909940e-05   6.8856589e-06  -1.2996960e-04  -2.4374131e-05   6.0060847e-05  -2.7847418e-05  -8.0416030e-05   7.0042290e-05   1.1209683e-04   9.9899131e-05  -1.3236820e-05  -1.4214947e-04   6.9392598e-05
   1.2492127e-04   1.0930878e-05   1.1787941e-04   7.9241348e-05   4.2135405e-05   4.0562663e-05   3.1851941e-05   7.9004210e-05   1.2412280e-04   2.0717069e-05   1.1426163e-04   8.6511252e-05   4.2662534e-05   9.2320341e-05   7.0037066e-05  -1.3371919e-05  -3.0882831e-05  -5.6282148e-05   1.1772003e-04   1.9612617e-05  -4.9559676e-06  -4.7741243e-05   5.2478503e-05   1.0234302e-04   3.6812093e-05  -7.8973157e-05   3.3601234e-05   5.6894587e-05  -1.2183702e-04   9.2113432e-06   3.0775715e-05  -1.0277511e-05   1.1583915e-04  -4.6307065e-05   9.9616926e-05  -5.0261799e-05   1.1871880e-04  -8.2194325e-05   4.4721048e-05  -1.5053534e-04  -2.8096010e-05   7.2987983e-05  -1.8678560e-06  -4.9480219e-05   7.9147656e-05   1.1984990e-04   8.6544329e-05  -1.4828040e-05  -7.8867917e-05   8.0496458e-05
   1.1761643e-04  -1.4389827e-05   1.2516056e-04   7.4777832e-05   3.3620297e-05   1.6102567e-05   1.7807251e-05   4.1801752e-05   1.5662305e-04   2.8491104e-05   1.2754078e-04   1.0782740e-04   3.3155244e-05   6.5835316e-05   4.6908292e-05  -2.4877187e-05  -2.0198340e-05  -6.3495419e-05   1.3211678e-04   2.9529278e-05   1.6123180e-05  -4.4245247e-05   5.9901649e-05   1.0441917e-04   3.8663078e-05  -5.5038963e-05   6.3373791e-06   1.6448133e-05  -1.7244533e-04  -1.9064802e-05   2.5279955e-05  -2.5154906e-05   1.0051666e-04  -5.0088431e-05   7.1390838e-05  -4.6207839e-05   1.2774794e-05  -7.9828329e-05  -1.5438141e-05  -1.3321984e-04  -3.4157281e-05   8.2136627e-05  -1.1552442e-05  -6.6671499e-05   6.6831002e-05   1.3279531e-04   9.8264718e-05  -4.5991412e-05  -8.0921105e-05   7.2950839e-05
   1.0642951e-04   1.5268164e-05   1.2259404e-04   6.9128342e-05   3.0184818e-05   1.9316438e-05   1.9391468e-05   4.1562093e-05   1.4385569e-04   2.2962338e-05   1.1561382e-04   8.6808432e-05   2.7427584e-05   7.4895288e-05   5.9681341e-05  -2.4156689e-05  -2.3520539e-05  -6.6136272e-05   1.2212625e-04   2.9752760e-05  -1.4412090e-05  -5.7242440e-05   4.8977734e-05   8.8285997e-05   2.9332488e-05  -6.0102971e-05  -8.1928494e-07   3.9975122e-05  -1.5688998e-04  -1.0315258e-05   1.9528165e-05  -2.5681227e-05   1.0212063e-04  -6.2118794e-05   9.0296184e-05  -6.4068525e-05   4.7279696e-05  -7.5367112e-05   2.7669308e-05  -1.4933504e-04  -1.0691720e-05   6.3704181e-05  -8.1540298e-07  -1.2144126e-04   3.4245131e-05   9.2175782e-05   1.1116725e-04  -9.9286714e-05  -1.1124023e-04   6.6523105e-05
   1.0902764e-04   9.2989449e-06   1.2262291e-04   8.5078405e-05   3.3608416e-05   4.7498514e-05   2.8198359e-05   7.1465256e-05   1.4345133e-04   1.8211987e-05   1.0444463e-04   6.8347203e-05   2.4205287e-05   9.0514899e-05   8.1243277e-05  -1.9716575e-05  -2.7623042e-05  -6.3660867e-05   1.3583606e-04   3.2739252e-05   7.9105057e-06  -6.9229740e-05   5.9174232e-05   8.5154948e-05   3.1781641e-05  -7.4404881e-05   4.4101729e-05   6.4994550e-05  -9.9428085e-05   1.3776092e-05   2.4377590e-05  -2.0104539e-05   1.1532660e-04  -6.0975010e-05   9.9188328e-05  -6.0697119e-05   1.4677033e-04  -7.7125864e-05   9.2958922e-05  -1.3173053e-04  -7.8245512e-06   8.6137472e-05  -7.1727055e-07  -1.1764781e-04   7.0203743e-05   1.2549484e-04   5.3967338e-05  -3.7450593e-06  -6.1785075e-05   7.4283678e-05
   1.3217123e-04  -1.4440946e-05   1.3284385e-04   1.0966409e-04   2.5403679e-05   2.3224138e-05   2.0966681e-05   5.2749798e-05   1.7594727e-04   2.9831735e-05   1.2085894e-04   9.0781105e-05   2.2589154e-05   7.1038958e-05   6.0676335e-05  -2.7492659e-05  -2.2984219e-05  -6.1972612e-05   1.3301300e-04   4.5020239e-05   3.4240384e-06  -5.2526710e-05   5.1850111e-05   8.5221385e-05   4.4486471e-05  -5.6099801e-05  -1.2428158e-06   2.1927211e-05  -1.5877736e-04  -1.2609867e-05   2.0197991e-05  -4.2093401e-05   7.6718046e-05  -7.4263633e-05   7.6444456e-05  -4.4698922e-05   3.7885671e-05  -7.3287156e-05   2.8711027e-05  -1.0861906e-04  -2.2984254e-05   7.8030891e-05  -5.0252947e-07  -2.0676735e-04   5.9853155e-05   9.6379699e-05   5.5310342e-05  -3.6571062e-05  -5.5383505e-05   6.7645102e-05
   1.0278969e-04   9.8437968e-06   1.2949501e-04   4.5469729e-05   2.5608613e-05   3.2570471e-05   2.7898648e-05   6.0335795e-05   1.5284561e-04   1.9501656e-05   1.0053117e-04   6.6360037e-05   1.9150371e-05   9.6336320e-05   6.5184249e-05  -2.3929650e-05  -2.9256680e-05  -7.0333983e-05   1.4639860e-04   4.6035668e-05   1.0941917e-06  -6.2318890e-05   4.4384866e-05   7.1586066e-05   4.5271139e-05  -7.1309201e-05   1.1230455e-07   5.2101732e-05  -1.3991199e-04  -1.8675846e-06   8.1833696e-06  -3.7410788e-05   8.8278306e-05  -6.1269951e-05   8.8207540e-05  -6.0728897e-05   8.1152029e-05  -7.2298135e-05   8.3959923e-05  -1.0822334e-04  -1.7765611e-05   8.8091256e-05  -7.3485203e-06  -4.3833723e-05   4.7301572e-05   7.5717850e-05   6.9851034e-05  -1.1466392e-04  -9.4380011e-05   6.3774292e-05
   1.2256524e-04   2.0848785e-05   1.3204770e-04   1.8019191e-05   3.3294866e-05   6.2128507e-05   4.4814602e-05   7.6844335e-05   1.4867140e-04   1.8487161e-05   9.3846887e-05   4.5545912e-05   2.3336584e-05   9.7627511e-05   8.9690569e-05  -1.7399678e-05  -3.1600030e-05  -6.5740656e-05   1.2448814e-04   4.9609404e-05  -1.3929935e-05  -7.9814563e-05   5.1533782e-05   7.3901909e-05   3.0981537e-05  -8.0000442e-05   4.4683125e-05   9.4137446e-05  -1.0068997e-04   1.2854111e-05   1.9593797e-05  -3.0258059e-05   1.0029382e-04  -6.5450302e-05   1.1499668e-04  -5.2940282e-05   1.9887774e-04  -7.9758771e-05   1.5167792e-04  -1.2031006e-04   7.6939250e-06   6.9861890e-05   5.8784854e-06  -1.5089805e-04   2.2680211e-05   1.0868165e-04   9.6243886e-05  -8.2873674e-05  -4.9992559e-05   7.1749739e-05
   1.3267741e-04  -3.4781976e-06   1.4396904e-04   9.8794997e-05   2.6304897e-05   3.5333738e-05   2.5954088e-05   5.7728299e-05   1.6332309e-04   3.0395935e-05   1.1130781e-04   6.8240959e-05   1.8335624e-05   8.6221793e-05   7.9562880e-05  -2.2099488e-05  -2.6896974e-05  -6.3329768e-05   1.5547653e-04   6.0128044e-05   2.2901981e-05  -5.8750476e-05   4.0857303e-05   7.5868389e-05   3.5811529e-05  -5.8042046e-05  -2.2158845e-06   3.7355399e-05  -1.6335226e-04  -2.1090782e-05   6.7444603e-06  -4.0006147e-05   1.0042427e-04  -4.3159438e-05   8.3533545e-05  -6.8723792e-05   7.6667267e-05  -6.7162422e-05   7.5118878e-05  -9.6366508e-05   1.1819430e-05   8.4789746e-05  -8.4884692e-07  -5.9926377e-05   5.4332148e-05   9.5875032e-05   1.3664349e-04  -6.0779694e-05   1.7828883e-06   6.1621293e-05
   1.2532057e-04   1.5544929e-05   1.4577519e-04   5.8924506e-05   2.4789357e-05   3.6602472e-05   3.5820125e-05   7.2165087e-05   1.4709098e-04   2.7526259e-05   9.1882423e-05   5.2845975e-05   1.8441699e-05   7.9094723e-05   8.5397158e-05  -2.4891175e-05  -3.3664455e-05  -5.7525423e-05   1.4210492e-04   6.3720414e-05   2.4346453e-05  -5.2881423e-05   4.2182874e-05   6.6667722e-05   4.3439435e-05  -7.2899202e-05   1.2812032e-05   6.1586470e-05  -1.1973881e-04  -3.1012830e-06   3.0671877e-06  -3.3854340e-05   9.7511118e-05  -4.8565969e-05   1.0305581e-04  -5.4754692e-05   1.4761831e-04  -6.4223874e-05   1.1933787e-04  -9.9112833e-05  -2.8021612e-05   8.5799016e-05  -1.4789136e-05  -5.9279068e-05   1.9299965e-05   6.1977349e-05   1.1653286e-04  -1.2891312e-04  -9.5973184e-05   5.7274094e-05
   1.3144739e-04   1.0440675e-06   1.4624609e-04   1.0063800e-04   3.2707594e-05   6.6824876e-05   5.5806639e-05   7.7339522e-05   1.4519335e-04   3.1487652e-05   8.0082922e-05   4.2952910e-05   2.2101362e-05   9.5003365e-05   1.1039006e-04  -1.9264395e-05  -3.7191920e-05  -6.0123351e-05   1.3753391e-04   6.7658519e-05   3.4406443e-05  -4.9048536e-05   3.9616763e-05   7.0132883e-05   3.4654095e-05  -8.7572917e-05   5.9057948e-05   9.1468464e-05  -6.1634535e-05   1.5044418e-05   1.3980378e-05  -2.6315829e-05   9.7626304e-05  -3.2882963e-05   1.3181595e-04  -3.4670975e-05   2.3653990e-04  -5.2259566e-05   1.9185513e-04  -1.0240834e-04  -2.5249630e-05   9.1697060e-05  -1.4124008e-05  -1.3005186e-04   5.6642450e-05   8.0046331e-05   1.2022209e-04  -8.1727070e-05  -2.3276199e-05   5.2622363e-05
   1.5233806e-04   5.0031987e-05   1.6496505e-04   9.8488075e-05   2.8639297e-05   5.5543791e-05   5.3266976e-05   6.7201792e-05   1.7738993e-04   5.0013565e-05   1.0477714e-04   7.4728203e-05   2.5168049e-05   9.2171147e-05   8.5316002e-05  -3.2367247e-05  -3.0806419e-05  -5.1074556e-05   1.5380546e-04   8.0710262e-05   2.3097267e-05  -1.6326576e-05   5.0786184e-05   8.9066023e-05   4.2397853e-05  -4.8846643e-05   4.3114760e-06   4.7027588e-05  -1.1066107e-04  -9.9775207e-06   1.3105685e-05  -3.8416511e-05   1.1752157e-04  -3.1309664e-05   8.6789798e-05  -4.1701467e-05   1.1403296e-04  -5.3099589e-05   1.1147441e-04  -9.6650168e-05   4.5369006e-06   7.1242488e-05  -1.3909300e-05  -1.6416120e-04   4.5935903e-05   6.9474991e-05   1.0582487e-04  -1.2186263e-04  -5.2557887e-05   5.3492007e-05
   1.2794841e-04   1.8407460e-05   1.6605986e-04   5.5319855e-05   2.9720564e-05   4.5262761e-05   6.2372557e-05   7.2927476e-05   1.5992321e-04   4.8043043e-05   9.3568939e-05   6.5632965e-05   2.6603459e-05   9.3004659e-05   9.3960174e-05  -3.0750223e-05  -3.6564135e-05  -5.0644612e-05   1.6317390e-04   7.8011428e-05   1.8880044e-05  -2.8773704e-05   4.5776036e-05   7.2797302e-05   5.1514460e-05  -6.6308065e-05   2.9318073e-05   7.1049617e-05  -9.0936584e-05   1.5050680e-06   1.0262991e-05  -2.2541397e-05   1.2061917e-04  -6.2056724e-06   1.1117532e-04  -5.8782502e-05   1.8057565e-04  -4.6198842e-05   1.6135343e-04  -6.7157111e-05  -1.7451128e-05   8.0391976e-05  -3.1057003e-05  -1.7458064e-05   2.5341255e-05   6.9056143e-05   1.3396914e-04  -9.9766039e-05  -1.2669649e-05   4.7125115e-05
   1.3970160e-04   2.0144780e-05   1.6885686e-04   1.0156102e-04   3.0864685e-05   7.3004310e-05   5.3444604e-05   9.1392263e-05   1.8317129e-04   5.2243235e-05   8.4482468e-05   5.3170454e-05   2.5628662e-05   1.0122883e-04   1.1630025e-04  -2.0047497e-05  -4.3779553e-05  -5.2484465e-05   1.5171990e-04   8.2553634e-05   3.1687552e-05  -2.7073582e-05   5.1724954e-05   7.9737991e-05   4.7902704e-05  -8.0645477e-05   6.5586886e-05   9.4695133e-05  -3.6833073e-05   3.0871572e-05   9.5064306e-06  -3.2997428e-05   1.2705354e-04  -9.0856547e-06   1.3968171e-04  -3.7271715e-05   2.6638329e-04  -4.7420046e-05   2.4202367e-04  -6.4699241e-05  -1.6133314e-05   7.8878926e-05  -2.7111624e-05  -4.8404854e-05   5.5099128e-05   9.2614784e-05   8.8667024e-05  -1.5314025e-04  -4.0172774e-05   6.5050554e-05
   1.4871484e-04   2.4681458e-05   1.8144162e-04   9.2037488e-05   2.7480792e-05   7.5113639e-05   5.9967104e-05   7.6143246e-05   2.1144272e-04   7.2259536e-05   1.0993280e-04   8.3232429e-05   2.8099303e-05   1.0527227e-04   9.3096372e-05  -3.3657863e-05  -2.8308694e-05  -4.6633701e-05   1.8435545e-04   9.3114781e-05   4.1267198e-05  -9.0953317e-06   5.1348659e-05   8.7759625e-05   6.4387859e-05  -4.5724486e-05   2.1803084e-05   6.0540096e-05  -9.6120530e-05  -3.8331136e-06   1.3496409e-05  -3.1114254e-05   1.2537207e-04   4.3742120e-06   1.0014528e-04  -5.7989575e-05   1.3935250e-04  -4.4297947e-05   1.3442244e-04  -4.3298136e-05   2.5053660e-06   8.4554500e-05  -8.1114820e-07   7.7670600e-05   4.2983542e-05   3.1788961e-05   9.8261102e-05  -5.3022210e-05   5.7349794e-06   6.3035957e-05
   1.4165719e-04  -9.9039596e-07   1.7862322e-04   7.4018601e-05   2.7584932e-05   5.3790365e-05   5.5061453e-05   8.4608124e-05   1.9609732e-04   7.0622438e-05   9.9058081e-05   7.1565773e-05   2.6054384e-05   9.4838048e-05   1.0461081e-04  -3.2632219e-05  -3.6697693e-05  -5.2389994e-05   1.6889369e-04   9.0418223e-05   7.2629475e-05  -1.5494090e-05   4.2992007e-05   7.5269381e-05   5.1914612e-05  -5.3855503e-05   3.5615878e-05   8.1361271e-05  -4.1533596e-05   1.2515386e-05   6.7758406e-06  -3.8414459e-05   1.4205556e-04   2.4284305e-05   1.1533369e-04  -5.5472145e-05   1.8931273e-04  -5.5426997e-05   1.8813579e-04  -4.9136066e-05  -2.1825888e-05   8.5894062e-05  -2.1790993e-05  -9.6693439e-06   4.2441043e-05   6.1165272e-05   1.3086181e-04  -7.4188276e-05  -1.2292505e-05   5.6635974e-05
   1.3381876e-04  -1.1741138e-05   1.7312879e-04   1.0539629e-04   3.1296240e-05   7.1559720e-05   7.4525880e-05   7.7746481e-05   1.8637053e-04   7.2065370e-05   8.3886182e-05   6.2183302e-05   2.9773657e-05   1.0028329e-04   1.1489803e-04  -2.8293100e-05  -4.4214637e-05  -4.9261034e-05   1.5191722e-04   8.8096102e-05   3.4535824e-05  -1.5962716e-05   5.2223106e-05   8.1736413e-05   6.6684632e-05  -6.9033886e-05   6.4171785e-05   1.1552987e-04  -1.9299845e-05   2.9020166e-05   9.4469533e-06  -3.5219513e-05   1.2634593e-04   3.1117597e-05   1.3505921e-04  -6.5670974e-05   2.9954695e-04  -2.3497319e-05   2.8358950e-04  -3.9838662e-05  -9.0901102e-07   1.0072441e-04  -3.1900592e-05  -1.0503065e-04   4.8071910e-05   8.0728074e-05   9.2472059e-05  -1.1167001e-04  -1.1360862e-05   5.8415531e-05
   1.4104950e-04  -6.9779810e-07   1.8506049e-04   1.2742661e-04   3.0494542e-05   8.7001914e-05   8.0535952e-05   9.0420559e-05   1.9999580e-04   8.8491528e-05   1.0899742e-04   8.9382200e-05   3.2342639e-05   9.3196802e-05   1.0405299e-04  -2.9209363e-05  -3.3448217e-05  -4.8724967e-05   1.7498431e-04   9.9402554e-05   4.2034215e-05   3.9860812e-09   5.1578547e-05   9.3969036e-05   7.6616059e-05  -3.2591986e-05   2.8787987e-05   6.9905873e-05  -6.2014406e-05   1.1076174e-05   1.7992817e-05  -2.9528059e-05   1.4592377e-04   4.7586018e-05   1.0901026e-04  -3.0851530e-05   1.5586136e-04  -3.6248406e-05   1.7491521e-04  -4.2208198e-05   9.6827625e-06   9.1279187e-05  -1.7520857e-05  -2.7230315e-05   4.4688757e-05   4.5301433e-05   1.5285358e-04  -6.3633313e-05  -5.2459112e-05   4.8653557e-05
   1.3535272e-04  -1.9759804e-05   1.7358450e-04   1.1054437e-04   2.3639725e-05   5.8101476e-05   6.4988322e-05   7.7346289e-05   2.0929304e-04   8.4203035e-05   1.0191072e-04   8.2734718e-05   2.9502933e-05   9.0315029e-05   9.9934012e-05  -3.1291078e-05  -3.5423658e-05  -4.9212740e-05   1.5299713e-04   9.1303744e-05   4.9811868e-05  -5.1924430e-06   4.5889719e-05   7.6346318e-05   7.0464608e-05  -5.2942036e-05   3.0546871e-05   7.6224584e-05  -4.0667845e-05   2.1766329e-05   1.4121551e-06  -3.7697413e-05   1.3197759e-04   4.1097366e-05   1.2045484e-04  -5.6779492e-05   1.8402698e-04  -3.1757572e-05   2.1774456e-04  -2.4900510e-05   4.6450346e-06   8.3842344e-05  -3.1702370e-05  -8.7183325e-05   2.5457442e-05   6.0774779e-05   1.4610472e-04  -1.1257520e-04  -3.7649374e-05   6.0770813e-05
   1.2196915e-04   3.2836419e-05   1.6836045e-04   5.7980069e-05   2.4355712e-05   7.7319659e-05   5.6720350e-05   8.9332658e-05   2.0847388e-04   8.0952603e-05   9.3788680e-05   6.9236426e-05   2.7546326e-05   1.0636589e-04   1.1947809e-04  -2.6217795e-05  -4.1512834e-05  -4.9277034e-05   1.6275443e-04   8.8961388e-05   4.2557607e-05  -1.9010666e-05   4.2676351e-05   7.3433439e-05   7.5087162e-05  -6.2075706e-05   5.8184476e-05   1.1341853e-04  -1.5560970e-05   3.3520337e-05  -1.3150035e-06  -3.6317542e-05   1.3235558e-04   3.8237347e-05   1.4189979e-04  -5.1737141e-05   2.8938430e-04  -3.4950681e-05   3.0701247e-04  -3.3744276e-05   3.1175325e-06   9.8388620e-05  -2.9044772e-05   6.4837468e-06   2.3001663e-05   6.7042703e-05   8.6982887e-05  -1.1409592e-04  -3.6493540e-05   6.7654539e-05
   1.3911819e-04   3.3019598e-05   1.7363514e-04   8.5772139e-05   2.4502086e-05   8.0897094e-05   6.6676927e-05   9.4931253e-05   2.2474000e-04   9.4724441e-05   1.0700505e-04   9.3546158e-05   2.9394105e-05   9.7665848e-05   1.1033790e-04  -3.2888875e-05  -3.2305830e-05  -4.5102657e-05   1.7776265e-04   9.6202748e-05   7.2864881e-05   4.0064906e-06   5.8644819e-05   9.5787102e-05   7.8096942e-05  -2.5837153e-05   3.0781161e-05   7.1623152e-05  -3.1700372e-05   1.7469183e-05   9.7264037e-06  -4.2371681e-05   1.3685817e-04   6.6517998e-05   1.0434809e-04  -2.3049044e-05   1.8338329e-04  -2.7098657e-05   2.1991441e-04  -5.1884414e-05   1.7442746e-05   8.9780617e-05  -1.0617744e-05  -5.3851574e-05   2.5003275e-05   7.0319169e-05   1.2726992e-04  -7.9197409e-05  -3.2672880e-05   7.2658164e-05
   1.4131841e-04  -6.7164310e-06   1.6394159e-04   6.4124899e-05   1.7689146e-05   5.4547065e-05   4.9746526e-05   6.8799149e-05   1.9404119e-04   8.8582165e-05   9.8524572e-05   8.9191301e-05   2.5829117e-05   8.7415043e-05   1.0539937e-04  -3.8835031e-05  -4.1095089e-05  -4.5643555e-05   1.5117675e-04   8.7757217e-05   5.6284920e-05   7.1649418e-07   4.5342676e-05   7.7401688e-05   7.1435403e-05  -3.7962520e-05   3.5103636e-05   8.0912672e-05  -3.7714748e-05   2.2203380e-05   6.4018955e-06  -3.9402788e-05   1.4617917e-04   5.7858553e-05   1.1503953e-04  -2.2115168e-05   1.8100716e-04  -2.4898516e-05   2.4839558e-04  -2.6777338e-05  -1.6000609e-05   7.2177943e-05  -7.8806825e-06  -5.7834415e-05   1.3208767e-05   6.2394691e-05   1.4073862e-04  -1.2276448e-04  -5.2976844e-05   5.3959146e-05
   1.2984127e-04   1.8080353e-06   1.6561084e-04   5.5228214e-05   2.1352163e-05   7.4326490e-05   4.9691389e-05   8.6249725e-05   1.9370837e-04   8.1960337e-05   8.5816995e-05   7.6866185e-05   3.1461888e-05   1.0725907e-04   1.0551520e-04  -2.7511473e-05  -4.1772641e-05  -4.8117588e-05   1.4947461e-04   8.4763386e-05   4.6964145e-05  -1.2998990e-05   5.3572159e-05   7.6924473e-05   6.4907646e-05  -4.9470491e-05   5.8779719e-05   1.2199693e-04   2.5040455e-07   5.2482945e-05   5.0656167e-06  -3.0214760e-05   1.6186941e-04   5.3573251e-05   1.3738149e-04  -4.1590676e-05   2.9442384e-04  -3.5427973e-05   3.2668613e-04  -4.6090281e-05  -5.3782433e-06   8.3856801e-05  -3.1614694e-05  -2.0934451e-05   2.3609820e-05   3.0402583e-05   1.4309214e-04  -1.0523206e-04  -4.5384728e-05   4.8120011e-05
   1.4493417e-04   1.9646384e-05   1.6985377e-04   8.0195699e-05   1.8068500e-05   8.2059938e-05   5.0031242e-05   8.6210435e-05   2.2068537e-04   9.4929681e-05   1.1438096e-04   9.8182281e-05   2.9578663e-05   8.2961385e-05   1.0551390e-04  -3.7459777e-05  -3.5850615e-05  -4.2039526e-05   1.7820345e-04   9.3124851e-05   6.8397523e-05   5.3320596e-06   5.0144296e-05   9.0461501e-05   8.3441177e-05  -2.6641545e-05   2.8744880e-05   7.0801703e-05  -4.4087865e-05   3.1262553e-05   9.5644382e-06  -4.5527657e-05   1.2488366e-04   5.3260203e-05   1.0850971e-04  -3.4608383e-05   1.5318673e-04  -4.0419422e-05   2.4820463e-04  -3.5333796e-05   7.2353655e-06   7.2556599e-05  -5.3717404e-06  -2.2197386e-05   3.7433474e-05  -1.4068672e-08   8.2378647e-05  -8.4891159e-05  -3.6485093e-05   6.0078743e-05
   1.3931627e-04  -1.0983491e-05   1.6467620e-04   9.7491611e-05   1.2301117e-05   4.9003029e-05   4.5375600e-05   7.5542885e-05   2.1001713e-04   9.3454124e-05   1.0102937e-04   8.7160821e-05   3.1452553e-05   9.5265917e-05   9.0743473e-05  -3.5894402e-05  -4.1306845e-05  -4.8791135e-05   1.6040671e-04   8.6711480e-05   6.3339045e-05  -6.7314113e-06   6.6004621e-05   7.5491589e-05   7.5121847e-05  -3.1520867e-05   3.9411578e-05   7.9402562e-05  -2.6735026e-05   3.7542275e-05  -7.2386579e-06  -3.7180696e-05   1.4442253e-04   4.2517226e-05   1.2047430e-04  -1.3926556e-05   2.1181753e-04  -2.8195160e-05   2.7686922e-04  -5.9993072e-05  -2.4851402e-05   8.0540573e-05  -7.0370306e-06  -7.0045382e-05   2.4223593e-05   3.8666112e-05   1.4634797e-04  -9.0637011e-05  -4.6830406e-05   4.3512780e-05
   1.2051297e-04  -1.9620014e-05   1.6758162e-04   5.2364125e-05   1.6708738e-05   6.9236252e-05   4.5465833e-05   8.5790474e-05   2.1035309e-04   9.4363430e-05   9.8026874e-05   7.3317402e-05   2.7185817e-05   1.0319531e-04   1.1224344e-04  -3.3152286e-05  -4.6210433e-05  -4.3499080e-05   1.3981582e-04   8.2915270e-05   4.5042958e-05  -5.7840557e-06   6.1257582e-05   7.7514924e-05   7.7125522e-05  -4.3200624e-05   6.5530461e-05   1.2391938e-04   3.1165717e-05   5.1621570e-05  -1.7774727e-06  -3.3639339e-05   1.4461105e-04   4.3519842e-05   1.3484740e-04  -2.2456883e-05   3.0155474e-04  -3.4491106e-05   3.4696193e-04  -5.9326983e-05   3.0020612e-06   5.9046302e-05  -2.1181359e-05   2.3115870e-05   1.7612061e-05   9.2854390e-07   8.4183193e-05  -6.6890600e-05  -1.1025434e-04   4.6977228e-05
   1.5235999e-04   1.4193553e-05   1.7611952e-04   6.1861560e-05   1.3209705e-05   6.3557680e-05   4.0603139e-05   6.4565662e-05   2.1988344e-04   1.0929136e-04   1.1784576e-04   1.0523407e-04   2.7566701e-05   8.6106251e-05   1.0188508e-04  -3.8432470e-05  -3.8359751e-05  -4.3625143e-05   1.2720531e-04   9.3372866e-05   5.8606674e-05   8.9398154e-06   6.9141723e-05   8.7788474e-05   8.3207575e-05  -2.0800340e-05   2.1296000e-05   7.3270654e-05  -1.1759087e-05   3.1772975e-05   1.8381428e-06  -4.5166587e-05   1.3674042e-04   3.8029553e-05   1.0500644e-04  -3.7957079e-06   1.4903091e-04  -2.9068573e-05   2.2638554e-04  -5.3267318e-05   9.3936878e-06   5.6492860e-05  -1.4797530e-06   4.6313794e-06   2.8238122e-07   4.2424643e-05   7.6442171e-05  -6.6344030e-05  -5.7007725e-05   4.5241159e-05
   1.4158657e-04  -3.8218996e-06   1.7488320e-04   6.2686340e-05   9.1276588e-06   4.1624466e-05   3.4385059e-05   5.9131413e-05   1.9758548e-04   1.0610383e-04   1.0383410e-04   9.8677374e-05   2.2314785e-05   7.0003989e-05   9.1277660e-05  -4.4399432e-05  -4.7919180e-05  -4.1974465e-05   1.1686276e-04   8.9345798e-05   4.9281080e-05   9.5547884e-06   6.8459580e-05   6.7945621e-05   8.0279540e-05  -2.2013763e-05   2.5097455e-05   8.4138213e-05  -1.5908865e-05   3.6524874e-05  -1.1417735e-05  -4.2828196e-05   1.2631010e-04   4.1948169e-05   1.1514148e-04  -6.7330529e-06   1.6691335e-04  -2.3911069e-05   2.3843559e-04  -7.1587616e-05   4.6161298e-05   5.7014106e-05  -3.0432186e-05  -1.2530043e-04  -5.7489552e-07   9.2638566e-06   9.2959555e-05  -1.1671385e-04  -4.7191708e-05   3.2793243e-05
   1.3711079e-04  -9.2173963e-07   1.7925342e-04   4.7744434e-05   1.1239362e-05   5.2206069e-05   2.6693242e-05   7.7858233e-05   1.9795432e-04   1.0290485e-04   9.2689930e-05   9.2649410e-05   2.7838792e-05   8.6598287e-05   1.0426328e-04  -4.0724826e-05  -4.7732519e-05  -4.4955028e-05   1.0933459e-04   8.8404347e-05   7.7292774e-05   8.9361538e-06   6.7168592e-05   7.5793942e-05   8.4752784e-05  -3.2659289e-05   6.1852530e-05   1.1458709e-04   2.5222687e-05   4.9984319e-05  -5.0720369e-06  -4.8506103e-05   1.2828819e-04   3.2266002e-05   1.3734013e-04  -6.4999886e-06   2.4728806e-04  -2.1550873e-05   3.1072137e-04  -6.0154722e-05   1.1070643e-05   6.9321701e-05  -2.6268232e-05  -1.0710231e-04   3.0241908e-05   1.4531717e-05   1.2238075e-04  -8.9713867e-05  -3.0584630e-05   2.6130509e-05
   1.3671422e-04  -4.0282507e-06   1.9035117e-04   3.2177210e-05   4.3466021e-06   5.2604533e-05   2.6675532e-05   5.4984932e-05   2.1146498e-04   1.1872831e-04   1.0961652e-04   1.2364467e-04   2.0362208e-05   6.2930834e-05   7.7481083e-05  -5.0149294e-05  -4.5007695e-05  -4.1505187e-05   1.4063295e-04   1.0198439e-04   6.8724607e-05   2.2627770e-05   7.0952621e-05   8.8748260e-05   7.7405748e-05  -1.7374401e-05   6.4937340e-06   6.8696405e-05  -3.0792038e-05   2.8382103e-05  -9.9913223e-06  -5.5720651e-05   8.5942178e-05   5.1817555e-05   9.4155672e-05   9.3728795e-06   9.9920908e-05  -2.8652201e-05   1.9515448e-04  -4.6231082e-05   7.1392174e-06   7.6366065e-05  -5.1025604e-06  -2.6320753e-05  -1.3600650e-05  -8.3647092e-06   1.8833432e-04  -1.4216272e-04  -5.5721768e-05   2.9656130e-05
   1.2967120e-04  -2.6278299e-06   1.8142416e-04   7.6054443e-05   5.5269174e-07   2.6200010e-05   1.1124470e-05   5.2206866e-05   1.9661458e-04   1.1543868e-04   9.3340132e-05   1.1510403e-04   1.0415851e-05   5.8326590e-05   6.1474726e-05  -5.7873087e-05  -5.3792595e-05  -5.1579802e-05   1.3010908e-04   1.0257339e-04   7.3956049e-05   1.1589985e-05   5.6522382e-05   6.5484724e-05   8.4650928e-05  -1.8585753e-05   1.3806341e-05   8.4793654e-05  -3.6029895e-05   3.3070195e-05  -1.1572970e-05  -7.1686678e-05   1.0665836e-04   2.6402366e-05   9.9796503e-05  -2.2077891e-06   1.3094128e-04  -2.7879425e-05   2.2384254e-04  -7.3999166e-05  -6.0546853e-07   4.4707253e-05  -1.2455601e-05  -5.8734124e-05  -4.2481784e-05   7.9369847e-06   1.0749226e-04  -1.3334349e-04  -7.5276505e-05   3.1304331e-05
   1.1677352e-04   1.1864280e-05   1.7809206e-04   5.5350429e-05   2.6622891e-07   3.5076977e-05   5.6021581e-06   5.5533455e-05   1.9542511e-04   1.1244309e-04   8.5107233e-05   1.0195695e-04   7.6592851e-06   7.1496936e-05   7.1938710e-05  -5.0324765e-05  -5.6396304e-05  -5.4985019e-05   1.0875845e-04   1.0139885e-04   3.9988707e-05  -2.6598977e-06   4.1536965e-05   5.5619330e-05   8.2432576e-05  -3.4342978e-05   4.1940380e-05   1.2048439e-04  -4.5475272e-06   5.5728575e-05  -2.2554319e-05  -5.7492663e-05   9.0284026e-05   2.4863079e-05   1.2357121e-04  -2.7007245e-06   2.1676297e-04  -3.0037669e-05   2.8516899e-04  -7.1460687e-05   7.6228257e-06   8.7054366e-05  -5.2084179e-06  -1.5331552e-04  -1.5830807e-05  -2.3138284e-05   4.0397525e-05  -1.3458246e-04  -5.4270673e-05   2.9051434e-05
   1.2535704e-04  -6.6804837e-06   1.8561479e-04   3.4466859e-05  -6.3453817e-06   2.4755132e-05  -5.1967709e-07   4.0684517e-05   1.9413781e-04   1.2357747e-04   1.0068700e-04   1.3167071e-04   4.5246551e-07   4.9647453e-05   5.7639918e-05  -6.4951899e-05  -5.2189665e-05  -5.1436178e-05   1.0509187e-04   1.1607682e-04   5.1955143e-05  -3.2102082e-06   4.5515746e-05   7.3514937e-05   4.7728612e-05  -9.3943418e-06  -4.3484911e-06   5.5757988e-05  -9.6525604e-05   2.7580145e-05  -1.0453861e-05  -7.5946649e-05   8.2180319e-05   1.3294663e-05   8.4530409e-05  -1.2178035e-05   7.0636088e-05  -4.2023774e-05   1.8913274e-04  -8.9908499e-05   1.7715623e-05   5.6620371e-05  -3.5997136e-06  -7.9770987e-05  -4.4186327e-05  -3.1152787e-05   3.8877773e-05  -1.5167496e-04  -6.3742009e-05   4.2660151e-05
   9.7924021e-05  -8.3950017e-06   1.7325371e-04   6.0952691e-05  -1.3573487e-05   1.9473846e-06  -2.4927351e-05   4.2746473e-05   1.7799798e-04   1.1964949e-04   8.2261206e-05   1.2277025e-04  -1.2912405e-05   4.7312606e-05   4.5227192e-05  -6.3523257e-05  -6.5307067e-05  -6.6570923e-05   1.0814938e-04   1.1650951e-04   4.7118639e-05  -2.1479980e-05   3.6622721e-05   5.2008334e-05   5.1977771e-05  -2.2584192e-05  -8.6137097e-06   7.3158961e-05  -6.7349945e-05   2.7709544e-05  -2.2386435e-05  -8.0507729e-05   8.2032442e-05  -7.9354237e-07   8.2573046e-05  -1.5157421e-05   1.2142916e-04  -4.3802389e-05   2.1317370e-04  -1.0444795e-04   1.8389439e-05   5.1932126e-05  -5.6285144e-06  -1.0813782e-04  -4.6633075e-05  -4.2753640e-05   1.5406225e-04  -1.2493266e-04  -1.2446132e-04   4.2319574e-05
   8.1131380e-05  -2.4756195e-05   1.7099448e-04   4.7055742e-05  -1.2179653e-05   1.2193521e-05  -2.5716734e-05   4.5558190e-05   1.6975679e-04   1.1680945e-04   6.6257373e-05   1.0695755e-04  -1.7011669e-05   5.3594158e-05   6.4002590e-05  -6.4109932e-05  -7.1399438e-05  -6.8234345e-05   9.8493932e-05   1.2014920e-04   1.8819839e-05  -2.2046543e-05   1.9613100e-05   5.4472348e-05   5.7058671e-05  -2.9722498e-05   8.3430659e-06   1.0076751e-04  -3.5760400e-05   4.3428950e-05  -1.4757128e-05  -8.4673688e-05   4.0723142e-05  -2.9843613e-06   9.6965363e-05  -1.3826941e-05   2.1107818e-04  -4.4858218e-05   2.7051513e-04  -1.0200482e-04   2.4904177e-06   6.6649816e-05  -1.0850908e-05  -1.7318441e-04  -2.6818949e-05  -4.3510390e-05   1.1362402e-04  -8.7104308e-05  -1.0909051e-04   3.0399016e-05
   9.2940107e-05  -2.2240371e-05   1.8115374e-04   5.4710268e-05  -1.7322956e-05   1.6667094e-05  -2.0029715e-05   2.1172938e-05   1.7123125e-04   1.4084623e-04   7.7121447e-05   1.3797487e-04  -2.2147462e-05   3.4515426e-05   4.2394367e-05  -7.4618110e-05  -7.0975846e-05  -6.9184614e-05   1.2659903e-04   1.3474387e-04   5.0670737e-05  -3.3318072e-06   2.5800386e-05   5.4962642e-05   4.6232675e-05  -4.9910377e-06  -1.8753703e-05   4.0629136e-05  -8.4599807e-05   2.1788641e-05  -1.9125002e-05  -8.5397311e-05   9.8996599e-05  -1.2099752e-06   5.8061269e-05   5.2875753e-06   5.5373683e-05  -4.9033984e-05   1.5442760e-04  -1.1415355e-04  -1.3428153e-06   4.9892726e-05  -2.8779543e-05  -5.0869330e-05  -2.3752909e-05  -3.7101243e-05   5.6020795e-05  -1.4542260e-04  -2.6981246e-05   1.7577106e-05
   7.5777702e-05  -6.6551274e-06   1.5783956e-04   4.4239114e-05  -1.6472515e-05  -5.1279916e-05  -1.6319411e-05  -5.2600308e-06   9.5169613e-05   1.5100090e-04   4.0574549e-05   1.2992164e-04  -4.8356997e-05  -6.0145476e-06   3.3610078e-05  -7.7009136e-05  -8.7734079e-05  -6.8164627e-05   8.3252729e-05   1.0241594e-04   9.3251532e-05   3.9043985e-05   3.3304379e-05   3.6624882e-05   1.0258446e-04   2.4684832e-05   3.4625311e-05   4.8981834e-05   7.2177463e-06  -6.8352625e-07  -3.4750115e-05  -7.3556505e-05   8.6902517e-05  -2.9933923e-05   6.5136570e-05   1.2000767e-06   7.4781048e-05  -3.8921182e-05   1.5682343e-04  -9.2218317e-05  -3.5709614e-05   1.5506808e-05  -1.2880961e-04  -2.0661418e-04   4.6395009e-05  -4.9390132e-05   5.2903499e-05  -1.2349548e-04  -5.3050961e-05  -4.8643644e-05
   9.8286051e-05  -2.8263710e-05   1.2981841e-04   2.6228425e-05  -6.1534488e-06  -6.9936337e-05   1.6825246e-05  -5.5423156e-06   4.6460736e-05   2.2299336e-04   9.8138307e-06   1.0706329e-04  -5.6149078e-05  -1.3259027e-05   4.9425740e-05  -6.0475712e-05  -1.0499093e-04  -6.1204832e-05   8.2350110e-05   8.9128589e-05   1.4662946e-04   7.3938740e-05   4.8427453e-05   5.3497639e-05   1.2262174e-04   4.5146597e-05   7.8239864e-05   8.7843735e-05   1.0451231e-04  -5.9103168e-06  -5.8850645e-05  -7.1611787e-05   8.4444437e-05  -4.7392408e-05   8.0029895e-05   1.0060242e-05   1.8802995e-04  -5.1845753e-05   2.3927544e-04  -1.1820739e-04  -1.1673033e-05  -8.4329713e-06  -1.5618028e-04  -2.1668825e-04   5.9753216e-05  -2.1352967e-05   7.4126692e-05  -1.9667763e-04  -7.6980577e-06  -1.7015747e-05
   9.0372603e-05  -3.4313045e-05   7.7221142e-05   4.4734948e-06   7.3219718e-07  -7.0636008e-05   4.3490691e-05  -3.4360241e-05  -2.6585365e-06   2.2491474e-04  -1.3939620e-05   8.7896922e-05  -6.4114422e-05  -1.4607066e-05   6.2761435e-05  -6.8826972e-05  -9.5373791e-05  -5.0827941e-05   1.1262739e-04   1.1094321e-04   9.7955577e-05   8.5558837e-05   3.7836042e-05   6.9900401e-05   1.1607030e-04   5.8937283e-05   4.5594785e-05   6.0767990e-05   6.8451329e-05  -2.3801267e-05  -3.0363844e-05  -7.9127371e-05   7.1388029e-05  -3.8998329e-05   5.7556885e-05   6.9980933e-06   7.2902963e-05  -5.0827904e-05   1.4024545e-04  -9.8494886e-05  -2.4052266e-05   2.5654057e-05  -1.4290935e-04  -2.1779306e-04   4.7622700e-05  -1.3442671e-05   8.9863010e-05  -1.3500226e-04  -4.2160940e-05   9.9977542e-06
   7.3952266e-05  -4.4450517e-05   4.3967746e-05   3.2395266e-05  -8.0591881e-06  -9.1954578e-05   2.6578466e-05  -4.9716302e-05  -7.3312855e-05   2.0141376e-04  -2.1573274e-05   8.1210193e-05  -7.2673196e-05  -2.4291619e-05   4.0992913e-05  -7.7021308e-05  -7.9608712e-05  -4.7990037e-05   1.0923790e-04   1.0709439e-04   6.7875138e-05   4.0944637e-05   1.2083567e-05   6.7919267e-05   9.7830562e-05   2.2677432e-05   3.2284446e-05   5.2588504e-05   7.9172351e-05  -1.4565104e-05  -4.4118140e-05  -8.1239232e-05   5.8371395e-05  -3.5293317e-05   6.0535047e-05  -2.6563461e-05   1.3435601e-04  -6.5675915e-05   1.8631389e-04  -8.9611924e-05  -2.5470765e-05  -2.2016559e-07  -1.6918343e-04  -1.8104854e-04   4.0041665e-05   1.0052085e-05   7.7614975e-05  -1.3647381e-04  -3.8693175e-05   1.8532084e-05
   5.9007634e-05  -4.1071191e-05   2.8395543e-05  -1.1171770e-06  -6.9505786e-06  -6.8299581e-05   3.0074572e-05  -5.1154271e-05  -5.6188903e-05   2.1119602e-04  -2.8639102e-05   8.8044391e-05  -7.5444630e-05  -2.2617873e-05   7.3182127e-05  -7.3392053e-05  -8.4305168e-05  -5.1579103e-05   1.0192478e-04   9.4762763e-05   8.2788691e-05   1.8714938e-05   1.0441305e-05   6.3188243e-05   9.6332289e-05   7.2856747e-06   6.5763525e-05   9.1863010e-05   8.9873465e-05   5.1991719e-06  -3.5979301e-05  -8.6153399e-05   6.4163265e-05  -2.7363234e-05   8.7501779e-05  -3.6251236e-05   2.3936156e-04  -5.7708032e-05   2.7737988e-04  -9.2194910e-05  -4.2047814e-05  -8.3140858e-06  -1.3791541e-04  -1.6342197e-04  -4.4619583e-06   1.6842490e-05   9.2223177e-05  -1.8418186e-04  -1.0739267e-04  -4.5732359e-05
   7.1779999e-05  -1.3251135e-05   3.4117482e-05   3.6088466e-05  -6.1072492e-06  -1.3435722e-05   2.5626952e-05  -3.1002939e-05  -6.0231712e-05   1.8349952e-04  -1.6370523e-05   1.2433763e-04  -6.1421109e-05   4.5646325e-06   1.1237938e-04  -6.3332845e-05  -7.5569485e-05  -5.1906110e-05   1.1442262e-04   1.0976072e-04   3.4894394e-05  -5.7482152e-06   1.3283729e-05   8.5052270e-05   8.5141146e-05   4.5150609e-06   3.8814087e-05   8.1354505e-05   7.3938718e-05  -4.4715580e-06  -2.0904688e-05  -8.0517631e-05   8.7884873e-05  -2.6623704e-05   7.4836556e-05  -3.2343716e-05   1.8376656e-04  -5.6325789e-05   1.7155353e-04  -8.4073297e-05  -6.5482956e-05   3.5318358e-06  -1.4199007e-04  -1.6474172e-04   3.4755169e-05  -2.3725759e-05   9.3948736e-05  -1.4310669e-04  -2.2150714e-05  -8.8572178e-06
   4.5424189e-05  -2.6576547e-05   2.2550697e-05   2.9726622e-05  -1.4469383e-05  -6.8617795e-05   4.3243317e-06  -5.5449269e-05  -5.5718610e-05   1.8517210e-04  -4.6406162e-06   1.4395292e-04  -6.7968256e-05  -6.3816606e-06   6.8392197e-05  -8.3029627e-05  -6.7037843e-05  -4.6419420e-05   1.0331268e-04   1.0457724e-04   4.0179428e-05  -7.7278046e-06   9.5085352e-06   7.7488490e-05   6.1929306e-05  -8.9863524e-06   1.1914629e-05   6.4918197e-05   4.0008876e-05  -3.4483339e-06  -3.2973086e-05  -7.9455116e-05   3.9842475e-05  -2.0669801e-05   6.7832356e-05  -3.7030248e-05   1.4752829e-04  -6.4693217e-05   1.6406165e-04  -9.5455005e-05  -3.1486044e-05   2.2322258e-05  -1.2732466e-04  -1.3192644e-04   8.1526878e-06  -2.2402268e-05   1.1685419e-04  -1.7706616e-04  -5.3017935e-05  -1.2693566e-05
   3.2571726e-05  -4.7192305e-05   1.5722746e-05  -1.5623835e-05  -1.4634084e-05  -7.0357091e-05   3.1445813e-06  -5.3975848e-05  -5.0066970e-05   2.0596410e-04  -1.1587161e-05   1.3829705e-04  -7.3248826e-05  -1.0506946e-05   6.9165864e-05  -7.9250953e-05  -7.6270990e-05  -5.3837248e-05   1.0695450e-04   1.0483371e-04   4.4732620e-05  -6.2451300e-06   1.3597456e-05   8.1969098e-05   8.1865408e-05  -1.2414056e-05   2.6734702e-05   8.0021542e-05   7.5508098e-05  -2.6066698e-06  -4.2291740e-05  -8.4740255e-05   4.7432492e-05  -1.3293877e-05   6.9765149e-05  -7.0321556e-05   2.2450526e-04  -5.0171788e-05   2.2707228e-04  -8.8655681e-05  -6.2689418e-05   7.5357771e-06  -1.3797070e-04  -2.3266951e-04   4.0976498e-05  -1.9283591e-05   1.4390137e-04  -1.4598602e-04  -7.3209667e-05  -3.1720825e-05
   3.8437036e-05  -1.6618222e-05   1.2142293e-05   2.5422030e-05  -1.0958690e-05  -4.7225221e-05   4.7454309e-06  -4.9647373e-05  -5.6866669e-05   1.9879840e-04  -1.0475266e-05   1.3628909e-04  -5.8679023e-05  -3.2764440e-06   1.0438818e-04  -7.3094343e-05  -7.3715557e-05  -4.6366771e-05   1.0816007e-04   1.0204135e-04   5.2822405e-05   1.5496659e-06   2.3152972e-05   9.7054020e-05   8.3336396e-05  -5.1299116e-06   4.3895336e-05   8.3928615e-05   1.0521404e-04   3.3420131e-06  -2.2940538e-05  -6.8033951e-05   7.2654191e-05  -4.3246318e-06   7.6340519e-05  -5.4588556e-05   2.1070200e-04  -3.8993014e-05   1.7335851e-04  -8.2838749e-05  -4.8033231e-05  -2.4850315e-06  -1.4116488e-04  -1.3265996e-04   5.0279075e-05  -2.0809392e-05   8.3883169e-05  -9.7018732e-05   2.0081789e-06  -1.9995779e-05
   3.6579950e-05  -4.5569206e-05   1.1426696e-05   2.0435633e-05  -1.5109415e-05  -7.9341837e-05  -5.7308207e-06  -6.9444075e-05  -5.1204210e-05   2.0921818e-04   8.0358050e-06   1.5642554e-04  -5.4887507e-05  -2.2866592e-05   5.4116808e-05  -7.9235484e-05  -6.9824979e-05  -4.5911864e-05   8.8191715e-05   9.1235539e-05   4.1543186e-05   7.4173777e-06   1.9776751e-05   8.9776222e-05   8.1367783e-05   4.8355719e-06   1.7096720e-05   6.0420243e-05   7.5555050e-05  -1.6343938e-05  -3.7677528e-05  -7.0275892e-05   4.7790836e-05  -1.8766670e-05   5.8943981e-05  -5.8514310e-05   1.6754150e-04  -5.0549745e-05   1.8665896e-04  -1.0290272e-04  -6.2837411e-05   1.1034374e-05  -1.4994966e-04  -7.9347818e-05   5.1444302e-05  -1.3001054e-05   1.0402541e-04  -1.1860026e-04   1.6706435e-05  -5.6296149e-06
   3.2486580e-05  -3.4453482e-05   5.2374849e-06   2.2396191e-05  -1.5585489e-05  -6.5503729e-05  -1.7464110e-07  -5.4774941e-05  -5.4374912e-05   1.9940596e-04  -9.1920555e-08   1.3378769e-04  -5.9966584e-05  -1.0744940e-05   7.4517389e-05  -8.1903025e-05  -7.4030919e-05  -3.5601570e-05   9.4677656e-05   7.7143159e-05   4.9019120e-05   5.3733402e-06   1.8635968e-05   8.6569999e-05   8.6024113e-05  -6.1033111e-06   2.9833529e-05   8.7469038e-05   8.9284964e-05   1.3929709e-06  -5.1623694e-05  -7.3015530e-05   6.2494059e-05  -3.2800446e-05   7.4386488e-05  -4.9740247e-05   2.1906105e-04  -4.4395023e-05   2.3044281e-04  -9.8300166e-05  -8.2530700e-05  -2.1053978e-05  -1.6563208e-04  -4.8203488e-05   6.7978530e-05  -6.5590525e-06   1.0420020e-04  -1.8355032e-04   1.1503201e-06  -9.1830971e-06
   3.7080725e-05  -1.6586362e-05   4.5335491e-06   2.2014045e-05  -7.1340301e-06  -3.5446217e-05   1.6023117e-05  -4.6035315e-05  -5.0319377e-05   1.9209960e-04  -7.5752376e-07   1.2315559e-04  -5.7079389e-05   8.1032176e-06   9.0671550e-05  -7.6009361e-05  -7.0994894e-05  -2.8962815e-05   8.6329223e-05   7.3019459e-05   4.0150862e-05   2.4940042e-05   3.1166466e-05   9.5755262e-05   8.8807676e-05   1.1874597e-05   4.2322015e-05   8.0995429e-05   1.3251742e-04  -5.1266184e-06  -3.1355972e-05  -6.4636886e-05   7.3710682e-05  -1.7399296e-05   6.5320528e-05  -5.5323628e-05   1.9096701e-04  -3.2719076e-05   1.8211854e-04  -9.1993228e-05  -7.1098519e-05   2.3586692e-05  -1.4447366e-04  -1.4585037e-04   8.3478386e-05   4.2073216e-06   1.4595682e-04  -1.1433625e-04  -1.3209126e-06  -1.1971295e-05
   4.3402244e-05  -2.7692473e-05   6.8488639e-06   2.4712950e-05  -1.2414646e-05  -8.6991000e-05   1.7208169e-05  -7.7842094e-05  -6.0128255e-05   2.0619009e-04   8.6509599e-06   1.4822907e-04  -5.3843924e-05  -2.9426248e-05   5.6931065e-05  -8.4232510e-05  -6.9419708e-05  -2.8933275e-05   9.5591589e-05   6.1213468e-05   7.8348188e-05   3.1982290e-05   2.7825523e-05   8.1709353e-05   1.0777179e-04   1.5370228e-05   1.6162177e-05   6.2252380e-05   9.7665230e-05  -1.1440324e-05  -4.2951389e-05  -6.1823484e-05   5.4289289e-05  -9.8985711e-06   5.6636349e-05  -4.3899381e-05   1.4990036e-04  -3.0344996e-05   1.5933938e-04  -1.1689705e-04  -8.4522952e-05  -1.7919623e-05  -1.5781599e-04  -1.0133543e-04   6.3254600e-05  -3.5766941e-05   1.0458550e-04  -1.4383016e-04   3.0270960e-05  -2.8885527e-06
   4.3898326e-05  -5.7188743e-05   1.9525080e-06   3.0968158e-06  -9.1368665e-06  -5.6580418e-05   1.7219130e-05  -4.2940890e-05  -8.2630060e-05   1.8982666e-04   1.2921552e-06   1.3137919e-04  -4.5008597e-05  -1.5244577e-05   7.8499485e-05  -7.7922894e-05  -7.6201810e-05  -2.5549934e-05   9.5971802e-05   5.2916508e-05   6.0997787e-05   2.3674951e-05   2.2324857e-05   8.5108935e-05   8.8166147e-05  -3.7930843e-06   3.0317815e-05   9.5320029e-05   1.5764790e-04  -7.1161998e-07  -4.6454348e-05  -6.2443985e-05   6.6977227e-05  -3.9268140e-05   7.6421195e-05  -3.8506572e-05   2.4360562e-04  -3.5779278e-05   2.2119326e-04  -1.2574837e-04  -8.9921770e-05  -3.6247031e-05  -1.8525585e-04  -1.6670166e-04   8.5838568e-05  -8.1332968e-05   2.7931388e-05  -2.1323553e-04   1.7849017e-04   2.1878604e-05
   6.8358968e-05   2.3661937e-06   1.8067571e-05   1.7794212e-06   1.7116535e-07  -2.7236749e-05   4.2804371e-05  -5.0623315e-05  -2.8738237e-05   2.1246159e-04   2.3868746e-05   1.0445154e-04  -4.0814251e-05   1.6470822e-05   1.0065698e-04  -5.2413739e-05  -6.6348221e-05  -2.6660307e-05   1.1427663e-04   1.1910137e-04   1.0371867e-04   1.4620916e-05   2.1537006e-05   7.2074115e-05   1.1144142e-04  -7.3867068e-06   4.5412868e-05   9.8353012e-05   1.6485265e-04   1.1777924e-05  -5.4105127e-05  -5.2579751e-05   4.1352167e-05  -2.8276603e-05   8.3227387e-05  -3.7063128e-05   2.7312463e-04  -6.8635018e-05   1.9262264e-04  -1.1160885e-04  -7.3960458e-05  -1.4533552e-05  -1.7510437e-04  -4.8062571e-05   7.8665813e-05  -1.3905046e-04   6.0327162e-05  -1.5260962e-04   2.2680141e-04   6.3673804e-05
   5.1997831e-05  -1.0281105e-05   3.9031656e-05   2.5320580e-05   9.5673180e-08   1.5672970e-06   6.8351124e-05  -5.5677247e-05  -8.0945656e-06   2.3286301e-04   6.1850304e-05   5.7197278e-05  -5.8682675e-05  -1.7400258e-05   9.6232034e-05  -5.8039488e-05  -7.2924995e-05  -4.6327375e-05   1.2602414e-04   1.2807091e-04   1.3697875e-04   1.2173027e-05   4.0596415e-06   2.6448886e-05   1.1863033e-04  -1.8598377e-05   2.4344770e-05   9.4441246e-05   1.4966828e-04   2.5711502e-06  -8.6022083e-05  -6.2899184e-05   1.3204936e-05  -5.7529636e-05   7.0297712e-05  -5.6774617e-05   2.6177653e-04  -7.0307826e-05   1.6332093e-04  -1.2499341e-04  -1.0356581e-04  -3.9599192e-05  -2.0329846e-04  -1.4789250e-04   6.6601169e-05  -1.1565658e-04   5.9773509e-05  -1.9715654e-04   2.3813745e-04   9.4795389e-05
   3.5215653e-05  -7.2097359e-06   3.3172208e-05   2.7572818e-05   1.6803427e-06  -6.7915435e-06   5.6259152e-05  -4.6136422e-05  -6.8900845e-06   2.2167407e-04   3.8776761e-05   1.9969075e-05  -6.9167436e-05  -1.9622477e-05   7.9667458e-05  -6.4249944e-05  -8.1658385e-05  -5.2454689e-05   1.0623188e-04   1.4144527e-04   1.2888151e-04  -4.2198200e-05  -1.0483113e-05   1.3220437e-05   9.7276330e-05  -5.6332494e-05   2.9554114e-05   1.2058461e-04   1.3912552e-04   2.3746603e-05  -9.2097231e-05  -7.2144350e-05   3.7251400e-05  -8.4244079e-05   9.1740229e-05  -7.9265439e-05   3.6859079e-04  -9.3899122e-05   2.7829391e-04  -1.1829589e-04  -8.3708648e-05  -3.3106138e-05  -1.8066633e-04  -3.2072458e-05   2.6693890e-05  -1.2320564e-04   5.0902254e-05  -1.6088401e-04   1.1605895e-04   5.8479061e-05
   4.1179565e-06  -1.1906181e-05   2.0224175e-05  -1.6953598e-05  -4.1443527e-06   2.1278198e-05   3.9218954e-05  -2.1971737e-05   2.9038967e-05   2.1452003e-04   7.0593116e-05   2.6565205e-05  -5.5562152e-05  -6.6220159e-06   6.1814171e-05  -7.8456462e-05  -7.0685332e-05  -6.0670798e-05   1.1469131e-04   1.5073335e-04   8.8004570e-05  -6.8758061e-05  -2.0256808e-05   1.3567980e-05   6.3051652e-05  -4.3257438e-05  -4.7516205e-05   3.8861159e-05   2.1113920e-05  -1.2310958e-05  -8.1424900e-05  -8.8216555e-05   3.2725740e-05  -8.1608989e-05   1.9204606e-05  -6.0297269e-05   9.2939314e-05  -1.0619604e-04   2.3726745e-05  -1.0473048e-04  -9.8398807e-05  -3.6766793e-05  -1.4582589e-04  -1.5487382e-04   4.3926149e-05  -1.2256528e-04   4.6724112e-05  -1.5108440e-04   1.0525870e-04   6.8287191e-05
  -3.3941935e-05  -2.3843495e-05   1.6371860e-05  -1.9586187e-06  -1.8036713e-05  -9.0297981e-05  -3.1719639e-05  -7.1674091e-05   1.5069614e-05   2.1050246e-04   6.9552385e-05   1.5824728e-05  -6.6317203e-05  -2.0732055e-05   8.8665111e-06  -8.9917761e-05  -7.7966361e-05  -7.3098308e-05   8.8130873e-05   1.3555959e-04   1.0847869e-04  -9.8074896e-05  -3.9451050e-05  -1.9307734e-05   2.4148476e-05  -6.9586851e-05  -7.8694560e-05   2.8275876e-05  -2.2858165e-05  -7.7236855e-06  -1.0166776e-04  -1.0528569e-04  -1.7746350e-05  -7.9474092e-05   7.1792742e-06  -6.7665482e-05   5.1555078e-05  -1.0986662e-04   1.8522831e-05  -1.4115381e-04  -8.1612001e-05  -4.7160349e-05  -1.6196941e-04  -1.3912906e-04  -7.4221198e-06  -1.4300497e-04  -9.5406203e-06  -1.9168459e-04   1.2052835e-04   7.6439981e-05
  -3.0221583e-05  -6.2251034e-05   6.6621888e-06  -6.9917169e-06  -2.2613071e-05  -9.6698197e-05  -4.3529690e-05  -7.1330476e-05  -9.1583806e-06   1.5083604e-04   1.3198084e-05   1.3230599e-05  -7.9139332e-05  -2.4747058e-05   2.3174203e-05  -1.0389764e-04  -8.2036080e-05  -5.7645466e-05   6.7288893e-05   7.0648515e-05   1.8482655e-05  -9.7227014e-05  -4.7831218e-05  -6.5199406e-06   2.9214041e-05  -7.3692201e-05  -5.3719712e-05   4.3150932e-05   7.3023107e-06   7.9896211e-07  -9.5447380e-05  -1.0530555e-04  -3.6838446e-05  -7.1833878e-05   2.1167578e-05  -7.4759642e-05   1.2163402e-04  -8.5789856e-05   7.9084930e-05  -1.5254780e-04  -7.2448616e-05  -3.3013112e-05  -1.5242992e-04  -1.0338412e-04   6.3102689e-06  -1.1447998e-04   3.8246446e-05  -2.3813271e-04   9.1411588e-05   6.9943831e-05
  -1.1887135e-05  -4.2154599e-05  -1.9794732e-06  -4.3945780e-05  -1.3021192e-05  -4.4846391e-05  -2.7391281e-05  -7.4371877e-05  -4.0984401e-06   1.1738984e-04  -6.0374655e-06   1.4835365e-05  -7.3970405e-05   6.5797121e-06   6.9449401e-05  -8.5851723e-05  -7.1424583e-05  -4.4751414e-05   6.9464972e-05   5.2448278e-05   4.0037212e-05  -6.6197230e-05  -3.4272300e-05   1.1602153e-05   4.5437122e-05  -2.7135220e-05  -3.8232720e-05   5.5405613e-05   4.6931866e-05   1.1700289e-06  -8.3172410e-05  -8.5898515e-05  -1.1312760e-05  -5.1038762e-05   2.3301443e-05  -3.3270138e-05   9.8640063e-05  -7.7153047e-05   2.7609840e-05  -1.0614192e-04  -6.9774491e-05  -2.2540833e-05  -1.5697243e-04  -1.5209695e-04   3.2500793e-05  -1.1482871e-04   1.5715970e-05  -1.9659016e-04   8.6624059e-05   6.6065433e-05
   7.4679028e-06  -1.6192169e-05   5.6729255e-06  -2.5007836e-05  -2.0394024e-05  -7.3689305e-05  -1.8956043e-05  -9.2251081e-05  -5.3542179e-05   1.1706649e-04  -8.7690414e-06   1.7833328e-05  -8.1528829e-05  -2.8175569e-05   5.6151046e-05  -9.2385570e-05  -6.5208835e-05  -2.6997222e-05   7.4265125e-05   3.3811099e-05   3.0623865e-05  -4.6123954e-05  -4.2791300e-05   7.1888853e-06   5.1460804e-05  -2.8679602e-05  -2.7314332e-05   2.7919208e-05   6.3089603e-05  -3.7686891e-06  -7.5029733e-05  -7.8584795e-05   3.6416322e-06  -4.1710333e-05   1.6680959e-05  -6.2949810e-05   1.0546578e-04  -6.7830020e-05   3.6327943e-05  -1.3464369e-04  -7.9938975e-05  -3.9852883e-05  -1.6644660e-04  -2.1423270e-04   7.4284776e-06  -1.4348145e-04   9.6579788e-06  -1.9746165e-04   1.2883214e-04   4.7045065e-05
   2.4196217e-05  -5.6014269e-06   7.2108986e-07  -2.4185481e-05  -1.5996786e-05  -6.1266081e-05   1.7485218e-07  -7.4580326e-05  -4.1669762e-05   1.0866389e-04  -3.1071078e-05  -3.9604324e-06  -8.7385415e-05  -8.6553755e-06   7.0961076e-05  -8.6726701e-05  -6.6978559e-05  -2.7718997e-05   4.8941958e-05   2.0653335e-05   2.6811682e-05  -5.2203730e-05  -4.1722058e-05   6.5770755e-06   6.0701761e-05  -4.7617235e-05   1.9109918e-06   7.7798264e-05   1.4231149e-04   1.6830107e-05  -7.5266420e-05  -8.0565434e-05  -1.3202923e-05  -4.5951143e-05   4.3390773e-05  -4.7683778e-05   2.2645215e-04  -7.7122560e-05   1.1507835e-04  -1.0322586e-04  -7.5819757e-05  -3.4483131e-05  -1.7681844e-04  -1.8034515e-04   1.6515900e-05  -1.2325791e-04  -2.0157524e-05  -2.0634396e-04   1.4000045e-04   4.2394469e-05
   2.6834903e-05  -3.8575403e-05   1.8890481e-06  -1.9959323e-06  -1.2895088e-05  -2.1018739e-05   1.6163121e-05  -6.8260961e-05  -4.9931663e-05   1.0698323e-04  -3.9250328e-05  -1.8220077e-05  -8.1646125e-05   2.1006013e-05   1.0884718e-04  -7.8678640e-05  -5.8656729e-05  -2.1526239e-05   6.5411434e-05   3.2523720e-05   2.3580564e-05  -4.8281803e-05  -3.3955039e-05   1.6758726e-05   6.5035361e-05  -3.0739953e-05   1.1771603e-05   6.8386835e-05   1.3546609e-04   7.9008696e-06  -6.4929518e-05  -8.4799569e-05   4.0801619e-06  -2.5938265e-05   4.5931993e-05  -3.4599943e-05   1.7885640e-04  -7.1338196e-05   4.1778483e-05  -1.1912557e-04  -5.7422330e-05  -4.0375278e-05  -1.3681847e-04  -1.0250564e-04  -3.7510365e-06  -1.2486086e-04   6.2105391e-05  -1.8089880e-04   5.7837129e-05   6.4616994e-05
   3.5012443e-05  -1.3912219e-05   4.4951776e-06  -3.2875512e-05  -2.2525990e-05  -5.3381362e-05  -6.2320996e-06  -9.3978437e-05  -1.5023913e-05   1.1537380e-04  -2.5430963e-05  -3.1874446e-05  -7.2860537e-05   4.5431730e-06   7.6925840e-05  -8.0649872e-05  -4.9670376e-05  -2.3437104e-05   4.3174023e-05   3.1027779e-05   4.2080435e-05  -8.2838997e-05  -3.9863175e-05   9.2496583e-07   3.7046429e-05  -4.7686732e-05  -1.9549589e-05   6.6102111e-05   7.6975317e-05   8.7600656e-06  -7.3045849e-05  -8.7895627e-05  -1.5207766e-05  -3.4897541e-05   3.6283163e-05  -2.4955380e-05   1.7436984e-04  -8.1110680e-05   4.1242292e-05  -1.0023724e-04  -6.3281273e-05  -3.1049341e-05  -1.4036414e-04  -3.5801833e-05  -1.3340981e-06  -1.4638940e-04   3.4255183e-05  -1.5597366e-04   8.0286518e-05   5.8207916e-05
   8.7945782e-06  -1.6717690e-05   3.5914163e-06  -1.9695210e-05  -1.9133477e-05  -3.2054828e-05  -3.7672612e-06  -6.0578779e-05  -3.0824780e-05   1.3430858e-04  -2.5787002e-05  -5.9296788e-05  -7.5064832e-05   1.3623026e-05   8.1800208e-05  -6.9946436e-05  -6.0332375e-05  -3.9367354e-05   3.4512552e-05   2.9101555e-05   3.8333485e-05  -9.3610412e-05  -4.0551844e-05  -1.3220996e-05   3.0439098e-05  -5.7849989e-05   1.0327404e-05   9.4020834e-05   1.2962449e-04   1.6648359e-05  -8.3872801e-05  -8.3634928e-05  -2.5449901e-05  -5.9483566e-05   5.2070151e-05  -5.1878935e-05   2.5563472e-04  -9.2376788e-05   1.2028697e-04  -1.3002066e-04  -7.7498044e-05  -3.1039341e-05  -1.3818963e-04  -1.8665762e-04  -2.2216587e-05  -1.1837529e-04   6.5168206e-05  -1.8643068e-04   6.8101319e-05   3.4780329e-05
   7.3586380e-06  -4.7269128e-05   7.1250366e-07  -2.8326533e-05  -1.5190973e-05  -2.3054068e-05   9.6121985e-06  -6.1987514e-05   6.2073636e-06   1.3616358e-04  -1.5431937e-05  -6.0900293e-05  -7.6505756e-05   2.0988533e-05   8.8236862e-05  -5.3653232e-05  -6.4869848e-05  -4.4025466e-05   3.2015170e-05   1.5426853e-05   4.4865636e-05  -7.6478871e-05  -3.2703363e-05   9.8872497e-06   4.9956929e-05  -2.8736205e-05   2.2655038e-05   1.1482557e-04   1.1948415e-04   2.5383421e-05  -4.6888268e-05  -7.1014802e-05   6.1437910e-05  -6.4444510e-05   5.8172052e-05  -3.9890878e-05   2.6307107e-04  -9.7713855e-05   1.1593869e-04  -1.4774401e-04  -8.7808818e-05  -3.3178439e-05  -1.3192545e-04  -8.9906942e-05   7.3223804e-05  -1.0504525e-04   3.8528102e-05  -1.3727410e-04   1.8699400e-04   9.6214266e-05
  -2.4782426e-05  -4.4285211e-05  -7.1269956e-06  -4.8655038e-05  -2.0472322e-05  -7.2833056e-05  -5.9718204e-06  -3.4408615e-05  -5.4060424e-06   1.4128130e-04  -3.6892052e-06  -8.8342749e-05  -8.3818675e-05  -2.5809832e-05   2.5341464e-05  -6.3088388e-05  -6.9193644e-05  -4.4031374e-05   4.7436512e-05   5.6151624e-05   1.1289560e-04  -3.2442487e-05  -2.5418936e-05  -2.1300340e-05   3.9147795e-05   6.2834524e-06  -1.8257719e-05   3.9680661e-05   7.3287476e-05  -7.4592817e-06  -8.3642233e-05  -7.0295682e-05   4.8948863e-05  -8.5693304e-05   2.0920113e-05  -3.3169439e-05   1.7286009e-04  -7.9081452e-05   7.5347212e-05  -1.3093749e-04  -8.3526160e-05  -5.4887958e-05  -1.6704769e-04  -1.1603472e-04   5.7038982e-05  -4.9089202e-05   9.6110714e-05  -1.9640179e-04   1.2641180e-04   5.5660119e-05
  -2.6833553e-05  -3.3348169e-05   1.0699925e-05  -3.4464592e-05  -1.0865858e-05  -6.5494096e-05   1.3922777e-05  -3.6189045e-05  -5.9945018e-05   2.1471937e-04  -1.2719901e-05  -1.2847970e-04  -9.1104448e-05  -3.2435015e-05   3.5280220e-05  -5.3485255e-05  -6.7178444e-05  -5.6586243e-05   6.5627864e-05   8.2132807e-05   1.2995604e-04  -6.3994936e-05  -1.9441659e-05  -3.7375583e-05   5.3753014e-05  -1.4254687e-05  -4.9808191e-06   5.4601656e-05   7.7558951e-05  -1.0931515e-05  -9.5015086e-05  -6.1612569e-05   7.4848955e-05  -1.0179041e-04   1.7773304e-05  -4.3602617e-05   1.5838495e-04  -8.5796972e-05   7.3105395e-05  -9.0345304e-05  -8.5445732e-05  -6.7116860e-05  -1.8123703e-04  -2.2192039e-04   5.6908746e-05  -5.9387352e-05   1.3263309e-05  -1.7872525e-04   1.4305157e-04   4.2935731e-05
  -2.8175928e-05  -6.2531450e-05   6.9523708e-06  -3.1010881e-05  -6.1241144e-06  -6.5660963e-05   9.5371688e-06  -3.2530021e-05  -4.3566761e-05   1.9166630e-04  -2.2549151e-05  -1.1931900e-04  -9.3013012e-05  -2.2286040e-05   4.5770463e-05  -5.0220886e-05  -6.9633752e-05  -3.9944840e-05   4.5740158e-05   2.5475883e-05   9.8969613e-05  -3.6620630e-05  -1.6859188e-06  -6.6282005e-06   7.1735034e-05   1.5718375e-05   2.9629549e-05   4.7568454e-05   1.4066628e-04  -3.7202665e-06  -6.9854024e-05  -4.6139263e-05   6.9353060e-05  -6.2029925e-05   2.5277222e-05  -1.3690723e-05   1.5260247e-04  -5.1308249e-05   1.1462185e-05  -1.0187541e-04  -5.4384946e-05  -7.5308715e-05  -1.7532408e-04  -7.0394919e-05   1.1045307e-04  -1.3937709e-05   4.0668936e-05  -1.7541726e-04   2.1774894e-04   7.0388196e-05
   2.1949281e-06  -6.1092862e-05   6.8195909e-06  -8.9896394e-06  -1.9943911e-05  -1.1971932e-04  -1.5488204e-05  -7.7853038e-05  -3.1074484e-05   1.5021501e-04  -3.6212652e-05  -7.6658071e-05  -8.8838256e-05  -4.0258281e-05   1.8676928e-05  -6.8578978e-05  -5.6171339e-05  -1.5778794e-05   5.4781205e-05  -2.1738591e-05   8.7289831e-05  -4.7613712e-06   2.3690718e-06   8.1888293e-06   7.2795847e-05   3.0378478e-05  -1.5411795e-05   1.9100624e-05   7.9781094e-05  -1.1286110e-05  -5.9149999e-05  -5.7466288e-05   1.0073439e-05  -3.5502591e-05   6.5754334e-06  -2.8956836e-05   6.7668268e-05  -4.0349834e-05  -4.8006514e-06  -9.2794398e-05  -4.3477088e-05  -5.1387407e-05  -1.3590905e-04  -1.5480276e-04   2.3988048e-05  -3.1053489e-05   2.8185998e-05  -1.4916497e-04   2.4420541e-04   1.4743427e-04
  -3.8993963e-05  -7.5723299e-05   2.2056181e-05  -1.3461282e-07  -1.2477626e-05  -9.6654905e-05  -1.7986426e-05  -3.4698445e-05   8.4721187e-06   2.1606285e-04  -2.8124476e-05  -9.6949880e-05  -1.0185455e-04  -3.3062377e-05   3.1278389e-05  -4.3837914e-05  -5.6802241e-05  -3.2828586e-05   5.0772604e-05   1.1630773e-05   7.3522722e-05  -1.7603439e-05   1.6092765e-06   1.4366246e-05   6.0388164e-05   1.1362056e-05  -3.7401940e-05   2.9967143e-05   5.8955629e-05  -1.0799165e-05  -7.1612179e-05  -5.7688489e-05   3.6970061e-05  -2.5376557e-05   1.1017856e-05  -4.3569937e-05   6.1116043e-05  -5.7256962e-05   6.7615161e-05  -9.0901369e-05  -3.4285520e-05  -7.6362885e-06  -8.2228195e-05  -1.9268552e-04   2.0437551e-06  -2.6928004e-05   2.7356942e-05  -1.7654539e-04   9.2644950e-05   1.4817437e-04
  -7.2105424e-05  -6.6913934e-05   2.9539553e-05  -2.6235348e-05  -1.6459018e-05  -5.0164919e-05  -2.1999835e-05  -7.2531329e-06   3.9834154e-05   2.1580281e-04   5.5413057e-06  -1.3240037e-04  -8.0387435e-05   2.1008213e-05   3.4334542e-05  -1.7632467e-05  -5.4798787e-05  -6.7463669e-05   7.1700742e-05   2.8718394e-05  -1.3916246e-05  -9.9010635e-05   2.7028345e-06  -1.3728592e-05   2.0019685e-05   4.9340042e-06  -6.6495129e-05   3.8321585e-05  -1.7943972e-05   3.8303556e-06  -5.7115041e-05  -3.9768653e-05   6.8288042e-05  -7.7068675e-05  -9.7312495e-06  -4.9064922e-05   1.0734254e-05  -7.5619391e-05   3.1715128e-05  -1.1677978e-04  -2.6715465e-05  -3.8814440e-05  -6.7007895e-05  -3.8482682e-05   1.2124880e-05  -3.0550531e-05  -9.5875484e-06  -1.2203967e-04   9.3858340e-05   1.6284506e-04
  -5.0728831e-05  -4.2922409e-05   3.3399687e-05  -2.9269237e-05  -3.0257468e-05  -9.3033486e-05  -4.6819103e-05  -6.8809408e-05   3.3561784e-05   1.7702569e-04  -2.7615285e-06  -1.2197513e-04  -8.0427832e-05  -3.4750733e-06  -1.9445593e-05  -4.5577715e-05  -4.8655857e-05  -5.1844356e-05   6.4970147e-05   3.4195318e-06  -1.4075800e-05  -9.4375493e-05  -1.6611295e-05  -5.1933330e-06   2.2755035e-05   1.8689960e-05  -8.4709623e-05  -9.5640371e-06  -3.2583313e-05  -1.9549389e-05  -7.1349998e-05  -5.3990738e-05   1.1889450e-04  -6.2830026e-05  -3.7725171e-05  -2.6865939e-05  -9.0572605e-05  -6.7755151e-05  -9.1837748e-05  -7.6785152e-05  -4.5025561e-05  -5.2565301e-05  -1.4108149e-04   2.6439280e-05   5.4804888e-05  -2.9822215e-05  -1.2082919e-05  -1.6657630e-04   1.7785089e-04   1.9190232e-04
  -6.0908198e-05  -2.0438341e-05   3.1326628e-05  -3.4899716e-05  -2.4982855e-05  -9.8834615e-05  -5.3974618e-05  -1.0473572e-04  -1.2305120e-05   1.8260289e-04  -2.7899558e-05  -1.3855280e-04  -8.1817074e-05  -2.8732738e-05  -1.5644047e-05  -5.7766527e-05  -6.0106366e-05  -4.6310561e-05   4.6681907e-05   1.6936492e-05   4.8575032e-05  -4.3706757e-05  -3.4049906e-05  -1.4490941e-05   3.0148727e-05  -5.2138995e-07  -5.7072237e-05   2.3865418e-06   2.5024879e-06  -2.4473136e-05  -8.8232657e-05  -5.5969547e-05   6.2089362e-05  -5.1603500e-05  -3.1644198e-05  -4.3517088e-05  -6.0269045e-05  -4.3813470e-05  -5.3035754e-05  -9.8815726e-05  -8.7056782e-05  -5.5684101e-05  -1.6853551e-04  -4.6501656e-05   4.1869058e-05  -3.2931821e-05  -6.7552312e-05  -2.0288605e-04   2.6203581e-04   1.8146196e-04
  -3.5719040e-05  -4.2679640e-05   3.0670624e-05  -3.5484383e-05  -1.4817686e-05  -9.3060989e-05  -3.5794928e-05  -8.4580621e-05  -4.5883848e-05   1.7308368e-04  -5.1214640e-05  -1.4301752e-04  -7.8440360e-05  -1.2636202e-05   1.2846206e-05  -4.3471413e-05  -5.6329580e-05  -2.8894805e-05   6.6684443e-05   3.8805210e-05   8.1585924e-05  -2.1503471e-05  -2.4610254e-05  -1.0936917e-05   2.7789158e-05   1.3849337e-05  -4.9130977e-05  -4.3191799e-06   3.4254419e-05  -2.6850306e-05  -7.0065122e-05  -4.1168882e-05   6.8984380e-05  -3.5008081e-05  -4.0611216e-05  -3.3309127e-05  -8.1145175e-05  -5.7858128e-05  -9.4106472e-05  -7.1561568e-05  -5.2638236e-05  -4.5499681e-05  -1.2113227e-04  -1.2159246e-04   3.8922040e-05  -3.6320955e-05   4.7118367e-05  -1.9103561e-04   1.8855957e-04   1.3115008e-04
  -3.6316291e-05  -6.0722516e-05   3.4643501e-05  -2.3608811e-05  -2.2380582e-05  -9.2733120e-05  -4.7900714e-05  -9.6827614e-05   5.2161486e-06   2.1140710e-04  -5.5104937e-07  -1.5891362e-04  -7.1314047e-05  -1.5329748e-05  -1.5697427e-05  -5.2366497e-05  -6.2898675e-05  -4.5902652e-05   3.4499411e-05   6.0183920e-05   8.7252833e-05  -6.5541608e-05  -3.3606437e-05  -5.4604287e-05   3.5949637e-05  -4.7980070e-06  -6.6900437e-05  -9.6671583e-06   2.1533884e-05  -3.7421461e-05  -9.1206319e-05  -6.7258072e-05   7.0529904e-06  -3.7404901e-05  -4.4088712e-05  -5.0460072e-05  -9.1789327e-05  -3.9621231e-05  -1.1897468e-04  -9.9598845e-05  -9.9661862e-05  -5.3250216e-05  -1.5369432e-04  -1.0361446e-04   2.5910442e-05  -5.2326730e-05  -2.0281186e-05  -1.5163941e-04   1.8116362e-04   1.1802727e-04
  -2.4833907e-05  -3.3617023e-05   2.2935532e-05  -3.2460768e-05  -1.8968973e-05  -8.8902540e-05  -4.3122196e-05  -1.0439920e-04  -5.1942141e-05   1.5793218e-04  -4.7191028e-05  -1.4410657e-04  -8.4850559e-05  -2.6466932e-05  -7.5362873e-06  -6.7235880e-05  -6.8633664e-05  -3.3575274e-05   2.1756608e-05   1.3510406e-05   7.8590354e-05  -5.1314251e-05  -4.6750425e-05  -5.2030158e-05   2.2278784e-05  -8.0893542e-06  -5.1110113e-05  -3.8080627e-06   5.2308416e-05  -3.3794175e-05  -9.4932089e-05  -5.0301562e-05   2.7940216e-06  -3.2779601e-05  -4.4442855e-05  -6.5743654e-05  -8.0931917e-05  -4.3806045e-05  -1.0268815e-04  -9.1372458e-05  -7.1912960e-05  -7.5586504e-05  -1.6142911e-04  -1.5405848e-04   8.1663648e-06  -6.9509028e-05  -1.8432151e-05  -2.4091548e-04   1.8781959e-04   1.1428590e-04
  -2.7696606e-05  -5.1858897e-05   2.2124994e-05  -4.6618679e-05  -1.5893229e-05  -1.0800771e-04  -6.0248509e-05  -1.2875392e-04  -6.6854023e-05   1.6671658e-04  -4.5192159e-05  -1.2102345e-04  -7.7984732e-05  -2.8614086e-05  -2.2956618e-05  -6.1878556e-05  -7.2798197e-05  -2.2677594e-05   3.1116240e-06   4.6892851e-06   8.3070598e-05  -7.2244620e-06  -4.0629486e-05  -3.9871920e-05   2.4650582e-05   1.6983888e-05  -6.5468957e-05  -5.5140739e-05   1.5717203e-05  -5.6115885e-05  -8.2584294e-05  -4.8284910e-05   3.2658797e-06  -1.3973766e-05  -8.7264692e-05  -6.0389757e-05  -1.8336521e-04  -3.5039826e-05  -1.7576010e-04  -9.2656621e-05  -1.0302876e-04  -8.4208652e-05  -1.4267772e-04  -1.7855232e-04  -4.2614884e-06  -8.8129789e-05  -3.3017780e-06  -1.8237581e-04   1.7259885e-04   1.1828176e-04
  -3.0997453e-05  -3.9420775e-05   1.5704109e-05  -2.0717147e-05  -1.5174936e-05  -1.1706085e-04  -4.7520014e-05  -1.1829573e-04  -5.6393033e-05   1.6728730e-04  -4.5054709e-05  -1.0661793e-04  -8.5599393e-05  -3.0002844e-05  -3.0741870e-05  -5.4501783e-05  -7.5728378e-05  -2.1033426e-05  -1.5043439e-05  -2.7363529e-05   7.2845338e-05   1.2970536e-05  -4.6909736e-05  -4.9954979e-05   2.5347626e-05   1.6630654e-05  -2.2819562e-05  -1.3617417e-05   7.6729666e-05  -5.5619272e-05  -8.7228684e-05  -5.2393876e-05  -3.4417750e-05  -3.2203276e-05  -7.4544871e-05  -5.4584663e-05  -1.1800197e-04  -3.3246873e-05  -1.3927804e-04  -7.3157833e-05  -1.1886512e-04  -9.6371848e-05  -1.4579469e-04  -1.5135012e-04  -7.2675889e-06  -7.8080513e-05  -5.2718960e-06  -2.5242567e-04   9.8430268e-05   1.1004718e-04
  -2.2954539e-05  -5.1563511e-05   9.1772299e-06  -5.4586559e-05  -1.5940657e-05  -9.2211456e-05  -3.0258674e-05  -9.5546267e-05  -8.7710141e-05   1.6706376e-04  -4.8172609e-05  -1.1309435e-04  -7.8794255e-05  -2.9393272e-05  -1.1113028e-05  -5.2213258e-05  -8.1095721e-05  -1.9923626e-05   2.1107548e-06  -3.0432861e-05   4.7993068e-05  -1.0043209e-05  -4.2207506e-05  -6.4322885e-05   1.0891484e-05  -3.9340230e-06   7.3087099e-06   1.2724742e-05   1.0404943e-04  -3.4896482e-05  -9.7858552e-05  -4.5651384e-05  -3.3900033e-05  -2.8636461e-05  -4.4618926e-05  -8.0021578e-05  -2.8313090e-05  -4.0655217e-05  -5.8719081e-05  -1.0585404e-04  -9.6961834e-05  -1.0577624e-04  -1.4797261e-04  -2.2175776e-04  -1.7575368e-05  -1.0286455e-04   2.9858678e-05  -2.6661059e-04   7.4949749e-05   1.1932408e-04
  -3.4729655e-05  -5.1431507e-05   1.0243336e-05  -7.4882933e-05  -1.7283977e-05  -7.2819748e-05  -3.3147589e-05  -9.6146949e-05  -6.4839121e-05   1.7485759e-04  -2.6643080e-05  -9.7060220e-05  -7.1313778e-05  -1.4504611e-05  -1.4996151e-05  -4.3155440e-05  -7.3990021e-05  -2.0191961e-05   4.6974164e-06  -2.3692484e-05   6.0632403e-05  -5.2166529e-06  -4.8311882e-05  -5.0820192e-05   7.8925368e-06   1.7122471e-05  -2.8562023e-05  -2.3356028e-05   4.9903640e-05  -5.6304991e-05  -8.3336818e-05  -5.9142334e-05  -4.7006808e-05  -2.2106127e-05  -7.7618730e-05  -6.7503912e-05  -1.2201270e-04  -2.7221970e-05  -1.5809110e-04  -1.1173380e-04  -1.1234100e-04  -9.7318567e-05  -1.2375075e-04  -2.0697426e-04  -2.1896245e-05  -8.4215812e-05   8.0455124e-05  -1.9996562e-04   1.1964512e-04   1.0926290e-04
  -4.6821238e-05  -6.0963997e-05   1.0803001e-06  -2.5559670e-05  -1.9974928e-05  -1.0732474e-04  -3.3664321e-05  -1.1423900e-04  -8.2214945e-05   1.4379529e-04  -3.8070717e-05  -9.1495902e-05  -9.0051610e-05  -3.1131905e-05  -1.8583438e-05  -6.4003325e-05  -5.8613186e-05  -1.7688231e-05  -2.6035268e-05  -1.4023033e-05   9.7289949e-06  -9.2046634e-05  -4.8233800e-05  -7.5295015e-05   7.9103529e-06  -1.1333533e-05  -4.7004607e-05  -7.3935844e-06   6.0847658e-05  -2.4919384e-05  -7.9248755e-05  -4.8861053e-05  -1.5769296e-05  -4.5467350e-05  -4.3129170e-05  -7.2005278e-05  -5.2269046e-05  -4.4805915e-05  -1.1289599e-04  -7.8276382e-05  -1.1173565e-04  -1.1389730e-04  -1.5544365e-04  -2.2108672e-04  -1.5470298e-05  -6.6919521e-05  -1.0526884e-04  -2.1622817e-04   1.6187486e-04   1.2253154e-04
  -5.4600318e-05  -3.9811777e-05  -4.0463243e-07  -3.6455007e-05  -1.8756606e-05  -8.8589004e-05  -4.7173646e-05  -1.0093507e-04  -1.1654176e-04   1.1732413e-04  -8.2010221e-05  -9.7896889e-05  -1.1206351e-04  -2.4700890e-05   6.1093324e-06  -4.1158662e-05  -6.9836904e-05  -2.5098527e-05  -4.7035704e-05  -1.8522796e-05   1.4068413e-05  -8.3341452e-05  -5.2693485e-05  -7.0592927e-05   2.4067624e-05  -1.4009232e-06  -2.1430611e-05   8.1273051e-08   9.0329311e-05  -2.7958133e-05  -8.8371671e-05  -5.1087449e-05  -2.3459243e-05  -5.5196211e-05  -4.6204357e-05  -6.3540640e-05  -2.8468387e-05  -3.1006679e-05  -9.8029901e-05  -6.2388848e-05  -9.2987582e-05  -9.7530370e-05  -1.3410019e-04  -2.9808126e-04  -1.3282119e-05  -8.1724516e-05  -4.1036190e-05  -2.2516328e-04   8.4381667e-05   6.5287510e-05
  -2.4491628e-05  -3.7999700e-05   1.2790790e-05  -3.0400766e-05  -2.4354667e-05  -9.2521776e-05  -6.0191622e-05  -1.2441307e-04  -7.7170356e-05   1.6684514e-04  -5.0708109e-05  -1.0744442e-04  -1.0425331e-04  -2.1329484e-05   1.1715154e-05  -4.1476596e-05  -5.7186640e-05  -2.9600918e-05  -1.9248260e-05   3.2080854e-05   2.7564760e-05  -1.1832126e-04  -5.4974164e-05  -5.6819521e-05   2.0917234e-05   4.6712756e-08  -5.2916730e-05  -1.1106106e-05   4.3100779e-05  -3.3138258e-05  -6.9893671e-05  -3.7695107e-05  -1.1289903e-07  -7.9174984e-05  -5.9200655e-05  -4.1423547e-05  -6.2023486e-05  -5.8620975e-05  -1.6165711e-04  -6.0720820e-05  -1.1695805e-04  -7.3218835e-05  -1.5532033e-04  -2.1277176e-04  -5.2252499e-06  -7.0068731e-05  -3.6764355e-05  -1.9224027e-04   9.8417870e-05   5.8795991e-05
  -3.8869715e-05  -5.1738691e-05  -3.3036242e-06  -4.3467866e-05  -2.9297578e-05  -1.0731046e-04  -6.6073189e-05  -1.3777611e-04  -8.6619439e-05   1.4308289e-04  -5.0427680e-05  -1.1576981e-04  -1.0830917e-04  -2.8779565e-05  -2.2824730e-05  -5.2064221e-05  -5.8764508e-05  -3.0230722e-05  -2.9051978e-05   6.4886768e-07   4.6895304e-05  -1.3098372e-04  -7.1018891e-05  -7.1859256e-05  -1.1887513e-05  -3.0676001e-05  -8.0473867e-05  -3.9309365e-05   2.5752935e-05  -3.5711593e-05  -8.3379957e-05  -6.3363746e-05  -2.4072206e-05  -5.2867024e-05  -7.5655378e-05  -8.9316032e-05  -1.1359870e-04  -5.7709640e-05  -1.7141308e-04  -9.9228921e-05  -1.0083880e-04  -7.0020797e-05  -1.0687934e-04  -2.6396420e-04  -4.7091631e-05  -8.7012952e-05  -5.6039658e-05  -2.2234708e-04   1.2339254e-04   4.9884940e-05
  -7.2226743e-05  -7.3267918e-05  -7.4863960e-06  -4.1619653e-05  -3.1485321e-05  -1.2491153e-04  -1.0157574e-04  -1.4664122e-04  -8.9543326e-05   1.3784034e-04  -5.8301572e-05  -1.1990011e-04  -1.0440776e-04  -2.2066130e-05  -1.9132231e-05  -5.2330652e-05  -6.5796165e-05  -2.9494760e-05  -7.0159687e-05  -1.5197490e-05   2.1868063e-05  -1.3443507e-04  -7.7038254e-05  -7.9033642e-05  -2.5147534e-05  -4.3375901e-05  -7.7125995e-05  -3.2414551e-05   1.3673108e-05  -2.8714856e-05  -8.2320061e-05  -6.2769264e-05  -4.0106661e-05  -3.5585541e-05  -7.5638280e-05  -5.5941196e-05  -1.3019852e-04  -5.5792763e-05  -1.9099055e-04  -8.7202381e-05  -6.7406450e-05  -6.9934424e-05  -7.3757466e-05  -2.0982123e-04  -6.6353306e-05  -8.6768116e-05  -4.9900627e-05  -2.2590997e-04   1.2550133e-04   6.3505475e-05
  -6.3249237e-05  -3.1883843e-05   3.0705346e-06  -3.8810547e-05  -3.8001006e-05  -1.5891068e-04  -1.3157865e-04  -1.7811889e-04  -8.2913662e-05   1.3512709e-04  -5.1074385e-05  -8.4366671e-05  -1.0684021e-04  -3.4333472e-05  -4.2275584e-05  -6.4991560e-05  -5.5547411e-05  -3.5787169e-05  -6.6171553e-05  -1.9099431e-05   5.6812347e-05  -1.2921842e-04  -7.1888709e-05  -8.4453706e-05  -4.0379864e-06  -1.0038884e-05  -1.1174000e-04  -8.8660825e-05  -2.2327547e-05  -6.8276517e-05  -8.9803805e-05  -6.0038892e-05  -6.8886955e-05  -5.8017598e-05  -1.1455518e-04  -7.4674164e-05  -2.3497593e-04  -4.0893367e-05  -2.4577286e-04  -4.6644342e-05  -1.0219229e-04  -5.0559120e-05  -9.8489800e-05  -2.2122565e-04  -8.9563466e-05  -1.1263222e-04  -5.0904942e-05  -1.9265526e-04   4.9397815e-05   6.1978608e-05
  -4.6431967e-05  -3.1457479e-05  -9.3715153e-06  -4.4354187e-05  -4.2325206e-05  -1.3910235e-04  -1.1651143e-04  -1.9652996e-04  -9.1269547e-05   1.1474413e-04  -6.6062225e-05  -1.0697343e-04  -1.0868954e-04  -2.7312792e-05  -1.9338011e-05  -5.9750986e-05  -5.9487698e-05  -3.0991279e-05  -6.6689652e-05  -4.1710002e-05  -2.3381470e-05  -1.6342978e-04  -8.9413916e-05  -1.0038428e-04  -6.7790261e-06  -4.3884051e-05  -8.3273764e-05  -4.8310823e-05   2.6438536e-06  -5.6586090e-05  -8.5298074e-05  -5.7549554e-05  -6.3216787e-05  -6.3462940e-05  -9.5957854e-05  -8.5064501e-05  -1.6850716e-04  -5.1714800e-05  -2.3230779e-04  -8.1691294e-05  -7.7488134e-05  -8.8609122e-05  -1.1554681e-04  -1.8299400e-04  -5.4233584e-05  -1.1747678e-04  -9.2169073e-05  -1.8626843e-04   8.8514244e-05   4.7741196e-05
  -5.7584719e-05  -3.2893044e-05  -1.1537693e-05  -4.9335049e-05  -3.5154309e-05  -1.1293634e-04  -1.0231445e-04  -1.6927812e-04  -9.8224766e-05   1.1521959e-04  -7.2421484e-05  -1.1667229e-04  -1.0546828e-04  -6.4159735e-06  -5.1726929e-06  -5.0941657e-05  -5.5537384e-05  -3.3506109e-05  -6.9908674e-05  -3.9652259e-05  -6.1594342e-06  -1.7454711e-04  -9.1521004e-05  -8.5655069e-05  -1.2937393e-05  -3.8958922e-05  -1.0244150e-04  -7.3894895e-05  -1.2464329e-05  -5.6757071e-05  -7.7681856e-05  -6.9035639e-05  -9.2507333e-05  -5.7104578e-05  -1.2059278e-04  -9.2788039e-05  -2.3235143e-04  -6.3930485e-05  -2.8868404e-04  -8.3632447e-05  -9.1729977e-05  -5.8036556e-05  -7.7133111e-05  -2.4392316e-04  -6.9376954e-05  -1.2940372e-04  -1.0967928e-04  -1.6797108e-04   1.0311553e-04   6.8042631e-05
  -6.8388428e-05  -3.2005824e-05  -8.9321456e-06  -2.8437042e-05  -4.8877941e-05  -1.7270456e-04  -1.4003056e-04  -2.2245328e-04  -8.7149318e-05   1.2149085e-04  -6.8397916e-05  -9.2006136e-05  -1.1733197e-04  -5.2361487e-05  -6.4537351e-05  -7.1866751e-05  -5.6078119e-05  -3.9692954e-05  -8.7589397e-05  -4.5345769e-05   1.2024077e-06  -1.8345214e-04  -1.0656876e-04  -1.1530497e-04  -3.9798608e-05  -4.0002553e-05  -1.5249397e-04  -1.1061403e-04  -7.9295125e-05  -7.1459865e-05  -9.9852703e-05  -8.6795684e-05  -9.8449971e-05  -7.8995938e-05  -1.5252280e-04  -6.9452537e-05  -3.3714410e-04  -5.8059690e-05  -3.0837010e-04  -7.5079348e-05  -9.6984288e-05  -1.0127238e-04  -6.6635024e-05  -2.6228491e-04  -1.1928238e-04  -1.3229440e-04  -8.7879693e-05  -2.1210419e-04   5.5911103e-05   4.6022924e-05
  -9.9853780e-05  -7.1147500e-05  -1.9939256e-05  -8.7035507e-05  -5.0594888e-05  -1.7378318e-04  -1.4901935e-04  -2.2252074e-04  -1.1255386e-04   1.0992821e-04  -8.4402956e-05  -1.0392327e-04  -1.2135495e-04  -5.1783376e-05  -6.5406297e-05  -7.1107119e-05  -6.4641397e-05  -4.7695368e-05  -1.1100795e-04  -5.2525440e-05  -2.6515328e-05  -2.0709775e-04  -1.1760132e-04  -1.2307620e-04  -6.4844724e-05  -5.2847834e-05  -1.5374369e-04  -9.7537217e-05  -6.1778381e-05  -7.8728939e-05  -1.0426740e-04  -7.5417382e-05  -1.2578012e-04  -8.9707260e-05  -1.5562662e-04  -1.0669688e-04  -2.8074370e-04  -6.2849853e-05  -3.0977977e-04  -7.8171368e-05  -1.0923032e-04  -1.0754580e-04  -8.6217711e-05  -2.4034642e-04  -1.4185358e-04  -1.2444763e-04  -9.9314835e-05  -1.9308018e-04   5.4760832e-05   4.0600804e-05
  -9.6018164e-05  -5.7713274e-05  -1.6587386e-05  -7.0529393e-05  -5.1709594e-05  -1.7152303e-04  -1.5351803e-04  -2.0698999e-04  -1.2812584e-04   1.4295755e-04  -7.6873053e-05  -1.0314154e-04  -1.1838970e-04  -3.7775018e-05  -7.7862969e-05  -5.7963302e-05  -7.0800270e-05  -6.2120460e-05  -1.1145724e-04  -8.7999924e-06   3.2515578e-05  -2.0728422e-04  -1.1296934e-04  -1.1874206e-04  -6.6990251e-05  -4.8033533e-05  -1.8783912e-04  -1.4533095e-04  -1.2720407e-04  -9.5865194e-05  -1.0470059e-04  -7.2747607e-05  -1.0860087e-04  -1.0450788e-04  -1.8469326e-04  -1.1023578e-04  -3.9749159e-04  -8.0087462e-05  -3.6348734e-04  -8.1339989e-05  -1.0301778e-04  -8.7626402e-05  -6.8220135e-05  -2.1990623e-04  -1.0189687e-04  -1.5265851e-04  -6.4934116e-05  -1.6279698e-04   8.9655594e-05   6.0834194e-05
  -1.3623196e-04  -5.8349797e-05  -9.9029476e-06  -9.6262345e-05  -5.7876168e-05  -2.1964470e-04  -1.8537133e-04  -2.3061887e-04  -1.0553383e-04   1.5780042e-04  -4.3978365e-05  -1.1770987e-04  -1.3052230e-04  -7.0648217e-05  -1.3144953e-04  -7.3326970e-05  -8.7633518e-05  -8.8263485e-05  -1.3392394e-04  -2.0873860e-05   1.1300664e-05  -2.2971953e-04  -1.3121670e-04  -1.7278283e-04  -9.6987576e-05  -3.9191826e-05  -2.2073212e-04  -1.6462566e-04  -1.9524337e-04  -1.1376742e-04  -1.1979456e-04  -8.7149107e-05  -9.7982265e-05  -1.2553237e-04  -2.0861509e-04  -1.2978447e-04  -4.4721115e-04  -7.8585115e-05  -3.8826829e-04  -1.1634637e-04  -1.0606453e-04  -1.1511754e-04  -7.9181307e-05  -2.7492308e-04  -1.2301932e-04  -1.4692005e-04  -1.6448872e-04  -1.6858242e-04   2.7069405e-05   6.1207720e-05
  -1.5327416e-04  -1.0584942e-04  -3.1386553e-05  -9.7105498e-05  -6.6596534e-05  -2.3013723e-04  -2.1497154e-04  -2.3595615e-04  -1.4195335e-04   9.2986127e-05  -1.0119093e-04  -1.1713633e-04  -1.3647214e-04  -5.9047008e-05  -1.4447307e-04  -8.3308703e-05  -9.9472833e-05  -7.7265489e-05  -1.5032764e-04  -4.5662389e-05  -1.6852307e-05  -2.6097737e-04  -1.4316213e-04  -1.6071586e-04  -1.2096389e-04  -6.4324558e-05  -2.4438289e-04  -1.5033486e-04  -2.0074128e-04  -9.3041512e-05  -1.1649538e-04  -9.9183024e-05  -1.1301856e-04  -1.2769293e-04  -1.9647300e-04  -1.5555935e-04  -4.1372952e-04  -7.9259458e-05  -3.8528146e-04  -1.1958417e-04  -1.2313751e-04  -8.3760598e-05  -5.5918907e-05  -2.5529528e-04  -1.5225296e-04  -1.5870230e-04  -1.4532245e-04  -2.4473594e-04   7.2504205e-05   9.6696946e-05
  -1.8087940e-04  -9.8388766e-05  -3.5787656e-05  -1.0791545e-04  -6.8406858e-05  -2.3225056e-04  -2.1807305e-04  -2.2476474e-04  -1.5852228e-04   9.0435715e-05  -1.2093822e-04  -9.8715253e-05  -1.3738062e-04  -6.3898835e-05  -1.2783641e-04  -8.2859020e-05  -9.6376811e-05  -7.7976089e-05  -1.5989435e-04  -4.1589545e-05  -6.6996859e-06  -2.1929485e-04  -1.3512514e-04  -1.3969786e-04  -9.0350732e-05  -4.9127742e-05  -2.5974819e-04  -1.9682459e-04  -2.2041801e-04  -1.1314840e-04  -1.1027334e-04  -8.5252534e-05  -1.2683762e-04  -1.0638502e-04  -2.2180172e-04  -1.4102522e-04  -4.9391668e-04  -7.8885561e-05  -4.2186887e-04  -9.6740470e-05  -7.7835415e-05  -6.9251852e-05  -3.1731059e-05  -2.1809548e-04  -1.4778883e-04  -1.5786717e-04  -6.4999513e-05  -1.7080162e-04   3.3288248e-05   4.9167589e-05
  -1.5535302e-04  -7.4290743e-05  -3.4448232e-05  -9.0508052e-05  -7.9977079e-05  -2.2052684e-04  -2.2244256e-04  -2.6146442e-04  -1.3869880e-04   1.2261388e-04  -8.5034510e-05  -1.1860433e-04  -1.2851525e-04  -4.7983016e-05  -1.2065448e-04  -7.4438969e-05  -9.0020236e-05  -9.0028901e-05  -1.4709940e-04  -1.7888517e-05  -4.7284735e-05  -3.0503396e-04  -1.5639792e-04  -1.6945734e-04  -1.0571701e-04  -8.4283100e-05  -2.5107912e-04  -1.7871402e-04  -2.2676268e-04  -1.0106208e-04  -1.1105355e-04  -9.9739133e-05  -1.6355277e-04  -1.3390141e-04  -2.1158265e-04  -1.4586649e-04  -4.6910153e-04  -9.1578979e-05  -4.2292543e-04  -1.1841782e-04  -1.1567499e-04  -9.7811790e-05  -5.1766187e-05  -2.8150342e-04  -1.3662060e-04  -1.4795680e-04  -1.2101539e-04  -1.7430988e-04   2.5724781e-05   3.9965220e-05
  -1.5843888e-04  -9.6828982e-05  -3.8229427e-05  -1.2157513e-04  -7.9710531e-05  -2.2093597e-04  -2.2147059e-04  -2.7643659e-04  -1.8031463e-04   8.6020584e-05  -1.2722233e-04  -1.1157928e-04  -1.3060066e-04  -6.5609645e-05  -1.2145932e-04  -9.2711693e-05  -9.6842392e-05  -7.5554788e-05  -1.5634249e-04  -3.8328293e-05  -2.8151193e-05  -2.7438087e-04  -1.4390003e-04  -1.7026307e-04  -8.5959473e-05  -7.6679877e-05  -2.0430265e-04  -1.3457697e-04  -1.2858112e-04  -1.0519422e-04  -1.1488482e-04  -9.6266434e-05  -1.6939043e-04  -1.0543795e-04  -1.9564466e-04  -1.4488307e-04  -3.7893062e-04  -8.7050947e-05  -3.6877271e-04  -1.1157650e-04  -1.1800185e-04  -9.7137025e-05  -8.3819461e-05  -3.0082589e-04  -1.4842443e-04  -1.5132026e-04  -1.8837956e-04  -2.0184195e-04   9.5543233e-05   5.1582287e-05
  -1.3908157e-04  -8.6076405e-05  -3.7947513e-05  -1.1001482e-04  -6.8577487e-05  -1.7999561e-04  -1.9108619e-04  -2.5160916e-04  -1.8691803e-04   6.0588874e-05  -1.5504025e-04  -9.2550836e-05  -1.2304158e-04  -3.9170078e-05  -6.9922164e-05  -8.0611106e-05  -9.0439498e-05  -6.1166669e-05  -1.7244322e-04  -8.1925582e-06  -3.6384907e-05  -2.5018756e-04  -1.3848144e-04  -1.3233454e-04  -9.0285248e-05  -5.8864931e-05  -2.0802606e-04  -1.7252489e-04  -1.5127556e-04  -1.0755817e-04  -1.0123287e-04  -8.7228087e-05  -1.5156623e-04  -6.5078508e-05  -2.0975329e-04  -1.1875311e-04  -4.5201753e-04  -6.2792074e-05  -4.5689030e-04  -7.1381684e-05  -7.3935131e-05  -4.9758106e-05  -3.6659952e-05  -2.3885728e-04  -1.2279491e-04  -2.1031527e-04  -1.1649180e-04  -1.8335490e-04   6.3053012e-05  -3.6321147e-05
  -1.4883489e-04  -8.1482496e-05  -3.0252124e-05  -7.7587189e-05  -8.0268328e-05  -2.3596275e-04  -2.2819992e-04  -3.0237640e-04  -1.8320166e-04   8.1064725e-05  -1.3252684e-04  -9.6185890e-05  -1.0667636e-04  -6.8968875e-05  -1.1899831e-04  -1.0486548e-04  -9.5182360e-05  -6.3315660e-05  -1.4608254e-04  -5.6979520e-06   4.0080813e-05  -2.3708682e-04  -1.3461984e-04  -1.4950735e-04  -8.6415363e-05  -5.7003435e-05  -2.2814993e-04  -1.7920384e-04  -1.7336327e-04  -1.4399143e-04  -1.1552148e-04  -6.9629743e-05  -1.3641096e-04  -9.3510149e-05  -2.1768360e-04  -1.0611592e-04  -4.9758772e-04  -7.1084476e-05  -4.9530197e-04  -6.1174855e-05  -1.3107792e-04  -8.0398757e-05  -8.0116217e-05  -2.0646164e-04  -1.0283577e-04  -2.0900882e-04  -9.5450421e-05  -1.6161888e-04   1.3268720e-04  -3.6594596e-05
  -1.3265571e-04  -8.4946769e-05  -3.2308217e-05  -1.1620791e-04  -8.0813697e-05  -2.5006325e-04  -2.2075333e-04  -3.0886018e-04  -2.1514008e-04   8.0403101e-05  -1.4392479e-04  -9.6146789e-05  -1.0539855e-04  -8.6389940e-05  -1.3334681e-04  -1.0506385e-04  -1.0833763e-04  -6.4169333e-05  -1.4775364e-04  -3.0968884e-05   5.7565157e-05  -1.9616596e-04  -1.3088381e-04  -1.3084953e-04  -7.1821349e-05  -3.7742448e-05  -2.0871861e-04  -1.8397125e-04  -1.3567207e-04  -1.4877139e-04  -1.0463606e-04  -6.2001694e-05  -1.2101724e-04  -9.9605131e-05  -2.1312825e-04  -1.0729209e-04  -4.6710501e-04  -5.8672165e-05  -4.7731312e-04  -7.8629870e-05  -1.2291891e-04  -7.3653166e-05  -1.2931270e-04  -1.1284620e-04  -6.7070017e-05  -2.5525980e-04  -1.0421636e-04  -1.7400377e-04   1.7485951e-04   2.5348559e-06
  -1.2779793e-04  -9.9821831e-05  -2.9712413e-05  -8.7456407e-05  -6.4237996e-05  -2.4031480e-04  -2.0717950e-04  -2.9366178e-04  -2.0986272e-04   8.4442843e-05  -1.5631062e-04  -8.8436784e-05  -1.0064110e-04  -6.4268788e-05  -1.0145452e-04  -8.5912521e-05  -1.0034507e-04  -4.4470115e-05  -1.4098572e-04  -2.9082892e-05   7.4068979e-05  -1.6609926e-04  -1.0716744e-04  -1.1089338e-04  -2.8202530e-05  -1.9837124e-05  -1.6825987e-04  -1.7536846e-04  -8.5385895e-05  -1.5275271e-04  -1.0282319e-04  -5.2822048e-05  -1.2897070e-04  -5.8925598e-05  -2.1488883e-04  -6.3151594e-05  -4.5780549e-04  -5.3032178e-05  -4.5338957e-04  -6.8112902e-05  -9.0539033e-05  -5.9491671e-05  -7.4108459e-05  -1.5423693e-04  -1.0012177e-04  -2.4103740e-04  -7.6892953e-05  -1.3972913e-04   8.0797239e-05  -3.8361599e-05
  -1.0427697e-04  -6.8647823e-05  -2.8339291e-05  -7.6856086e-05  -7.1966846e-05  -2.0476175e-04  -1.8172892e-04  -2.8172255e-04  -1.7176309e-04   1.0413839e-04  -1.3201067e-04  -8.2795086e-05  -8.2231418e-05  -5.2385534e-05  -8.1481718e-05  -7.8335273e-05  -8.6505104e-05  -4.2295556e-05  -1.2330375e-04  -2.7788406e-05  -2.1811998e-06  -2.4431033e-04  -1.0857273e-04  -1.0683563e-04  -2.5842142e-05  -3.9477924e-05  -1.6970173e-04  -1.3272800e-04  -6.1082137e-05  -1.3859622e-04  -8.5374668e-05  -4.0648483e-05  -1.1853684e-04  -8.5987107e-05  -1.8323425e-04  -9.1228292e-05  -3.9121072e-04  -5.8734651e-05  -4.3443678e-04  -5.5056265e-05  -1.1228892e-04  -4.1718973e-05  -1.3946365e-04  -2.0865742e-04  -7.7993078e-05  -2.3788157e-04  -7.4013857e-05  -1.8077379e-04   1.4872850e-04  -2.2516479e-05
  -1.1268562e-04  -3.9256047e-05  -3.5285815e-05  -1.1958347e-04  -7.0041679e-05  -1.4258889e-04  -1.7059098e-04  -2.1671411e-04  -1.5763291e-04   9.6880329e-05  -1.0396249e-04  -1.0303735e-04  -5.9422164e-05  -7.8278972e-06  -7.5661614e-05  -3.8706843e-05  -9.0741451e-05  -6.9071823e-05  -9.9846373e-05  -3.0857650e-06  -4.5402874e-05  -2.4202335e-04  -1.0919061e-04  -1.1768815e-04  -6.0985843e-05  -6.1772742e-05  -1.5810032e-04  -9.5393043e-05  -7.6749377e-05  -1.0414194e-04  -1.0406165e-04  -5.1389565e-05  -1.8767091e-04  -9.2197493e-05  -1.6550039e-04  -1.2358472e-04  -3.3551757e-04  -7.1220500e-05  -3.6197156e-04  -4.4132943e-05  -9.7446777e-05  -5.7883019e-05  -7.0153867e-05  -1.3817521e-04  -1.2363469e-04  -2.6007782e-04  -8.6206324e-05  -2.0026113e-04   1.6805215e-04   5.0305116e-05
  -1.5539078e-04  -7.3889081e-05  -1.0447397e-05  -7.3983880e-05  -6.3009851e-05  -1.8029595e-04  -1.7897556e-04  -2.3611799e-04  -1.2055803e-04   1.6710183e-04  -8.5354863e-05  -1.1384508e-04  -7.3285555e-05  -3.4332028e-05  -1.0532519e-04  -5.9115919e-05  -9.4135918e-05  -7.1778457e-05  -8.6330328e-05   2.6439473e-05   2.7264650e-05  -2.0777297e-04  -1.0813042e-04  -1.0366391e-04  -6.9986258e-05  -5.0098217e-05  -2.2746356e-04  -1.7848464e-04  -1.5966097e-04  -1.3596563e-04  -1.0170784e-04  -4.2792384e-05  -1.2293023e-04  -9.9573561e-05  -2.0955702e-04  -1.0709956e-04  -4.8029367e-04  -7.6329656e-05  -4.6373450e-04  -5.1027208e-05  -7.1218470e-05  -3.6232115e-05  -4.7797424e-05  -1.4543330e-04  -1.1725919e-04  -2.4917445e-04  -7.8167250e-05  -1.3815158e-04   1.2950493e-04   2.4824429e-05
  -1.4620106e-04  -7.7585435e-05  -1.9245334e-05  -3.9095736e-05  -6.8117377e-05  -2.2904716e-04  -2.0803137e-04  -2.8183215e-04  -1.2831562e-04   1.4431254e-04  -9.0560869e-05  -8.5028383e-05  -7.3108800e-05  -4.8989401e-05  -1.1002514e-04  -7.9717596e-05  -8.3444815e-05  -5.6730813e-05  -9.5938143e-05  -9.8244627e-06  -1.9085221e-06  -2.1785764e-04  -1.1594485e-04  -1.0081434e-04  -3.9202583e-05  -4.9387920e-05  -2.0153470e-04  -1.6015352e-04  -1.1719309e-04  -1.3889777e-04  -1.0104586e-04  -5.8389374e-05  -1.7498700e-04  -6.0203332e-05  -1.9568742e-04  -9.6536365e-05  -4.3961976e-04  -5.5223409e-05  -4.1801334e-04  -5.5759985e-05  -7.6050266e-05  -3.0333926e-05  -7.9157529e-05  -3.6843438e-05  -9.2422692e-05  -2.4847605e-04  -7.1464317e-05  -1.1907482e-04   1.3360080e-04   1.3879364e-05
  -1.0700749e-04  -5.3542906e-05  -1.8863757e-05  -7.0009934e-05  -6.6023080e-05  -1.8081501e-04  -1.6271436e-04  -2.6861584e-04  -1.2898308e-04   1.3694646e-04  -1.0802895e-04  -8.6945714e-05  -6.6683970e-05  -3.7091799e-05  -8.1248552e-05  -6.3534782e-05  -7.9873476e-05  -4.1736621e-05  -8.4436055e-05  -4.2913693e-05  -5.3890246e-05  -2.1940298e-04  -1.0918496e-04  -1.0353700e-04  -3.3935681e-05  -3.7642807e-05  -1.5542754e-04  -1.3113060e-04  -7.9845326e-05  -1.2235256e-04  -1.0109865e-04  -4.0410217e-05  -1.3695823e-04  -4.5243247e-05  -1.6087724e-04  -9.6897849e-05  -3.2004356e-04  -3.5431105e-05  -3.2298442e-04  -5.0013456e-05  -7.7199882e-05   3.5142989e-06  -6.0558334e-05  -7.9843659e-05  -1.3110292e-04  -2.5511134e-04  -1.0716035e-04  -1.4381863e-04   9.3070485e-05   3.8611473e-05
  -1.2491120e-04  -7.4792333e-05  -2.8488792e-05  -1.0100302e-04  -6.9344882e-05  -1.1823980e-04  -1.4853335e-04  -2.0870901e-04  -5.5530032e-05   1.5791193e-04  -5.3548309e-05  -1.2294779e-04  -3.8575850e-05   8.2262586e-06  -6.3622560e-05  -2.9159984e-05  -6.2603714e-05  -5.4653712e-05  -5.9216207e-05  -9.0440362e-06  -6.3209656e-05  -2.5247500e-04  -1.0011982e-04  -9.8363249e-05  -6.1822306e-05  -5.0414616e-05  -2.1443187e-04  -1.2369428e-04  -1.6318579e-04  -1.0349190e-04  -7.3231393e-05  -4.3105239e-05  -1.8611524e-04  -5.4711378e-05  -1.6586103e-04  -8.9202396e-05  -3.9382587e-04  -3.8930069e-05  -3.4423798e-04  -3.3187804e-05  -3.5809906e-05   3.4099488e-05   2.3374983e-05   8.6527843e-06  -1.3765266e-04  -2.5381881e-04  -1.0104193e-04  -1.2132890e-04   4.9699123e-05   5.9962433e-05
  -1.7106977e-04  -8.5941836e-05  -3.2017746e-05  -9.7818876e-05  -7.6077260e-05  -1.4041341e-04  -1.7509499e-04  -2.0058115e-04  -3.5383484e-05   1.4304084e-04  -3.6366808e-05  -1.3456520e-04  -3.9525981e-05   1.2881809e-05  -7.8439538e-05  -3.9985658e-05  -5.9771428e-05  -6.0344344e-05  -4.3847900e-05  -1.6961920e-05  -9.9882804e-05  -2.7677321e-04  -1.1687200e-04  -1.1301090e-04  -8.5555221e-05  -5.9852628e-05  -2.3610852e-04  -1.3358040e-04  -1.8394152e-04  -9.5116266e-05  -7.2031769e-05  -4.6440069e-05  -1.8628963e-04  -5.0935501e-05  -1.6577252e-04  -1.1448639e-04  -3.8451052e-04  -4.0363575e-05  -3.2437401e-04  -3.9238970e-05  -1.6306098e-05   2.2445169e-05   1.6492932e-05  -8.8201952e-05  -1.3345416e-04  -2.3538480e-04  -1.1778195e-04  -1.7035154e-04   8.6140673e-05   4.1866999e-05
  -1.7097201e-04  -4.5494926e-05  -4.2490046e-05  -1.0647856e-04  -7.0972244e-05  -1.2775403e-04  -1.6753691e-04  -1.8879317e-04  -6.4960841e-05   1.2183570e-04  -5.2422973e-05  -1.2806103e-04  -3.8173668e-05   2.1661437e-05  -7.2177958e-05  -3.5912828e-05  -5.7168389e-05  -5.3192220e-05  -5.0350511e-05  -2.2366363e-05  -1.1533284e-04  -2.5981374e-04  -1.1402045e-04  -1.0116184e-04  -8.0557329e-05  -7.3903997e-05  -1.8981278e-04  -9.0172602e-05  -1.2245396e-04  -8.1645616e-05  -7.3862524e-05  -3.0708234e-05  -1.7386898e-04  -4.8568898e-05  -1.4079628e-04  -9.8998637e-05  -2.6862207e-04  -2.4641946e-05  -2.5957057e-04  -2.8008704e-05  -2.8634920e-05   3.3268745e-05   5.5808600e-06  -5.1729578e-05  -1.2441480e-04  -2.2669726e-04  -6.5269684e-05  -1.6669564e-04   5.4255802e-06   2.7247870e-05
  -1.4752742e-04  -6.5805427e-05  -3.6486173e-05  -6.9351452e-05  -6.7961591e-05  -1.2699486e-04  -1.6383058e-04  -2.0641139e-04  -5.2744483e-05   1.3177373e-04  -4.7214704e-05  -9.6141834e-05  -3.7164009e-05  -7.5062876e-06  -8.7389992e-05  -4.9965605e-05  -5.1662086e-05  -3.8197384e-05  -5.5277589e-05  -2.3108525e-05  -5.9299211e-05  -2.1885580e-04  -1.0652571e-04  -8.7931578e-05  -6.4517044e-05  -2.7529613e-05  -2.1038332e-04  -1.5517355e-04  -1.7320558e-04  -1.0885726e-04  -6.7933121e-05  -3.5562665e-05  -1.6011990e-04  -2.0596048e-05  -1.6770461e-04  -6.8827998e-05  -3.8170305e-04  -8.8052020e-06  -3.4003850e-04  -1.5008821e-05  -1.7761991e-05   8.6481595e-07   6.1894997e-07   9.0567819e-06  -1.0891618e-04  -2.3016238e-04  -5.0145274e-05  -1.5734787e-04   8.7715089e-05   1.5927679e-05
  -1.3530535e-04  -5.7149351e-05  -4.1463285e-05  -6.3153035e-05  -6.1620856e-05  -1.2770953e-04  -1.4563953e-04  -1.9639710e-04  -6.0811646e-05   1.4896040e-04  -5.6313300e-05  -9.4959898e-05  -3.3924225e-05  -1.3835685e-05  -7.4461335e-05  -4.7415513e-05  -5.3742322e-05  -3.3554450e-05  -3.6614794e-05  -3.0662119e-05  -2.4957935e-05  -2.1037705e-04  -1.0508030e-04  -8.4602711e-05  -5.5889606e-05  -3.5825229e-05  -1.8198341e-04  -1.2468580e-04  -6.9160895e-05  -1.0644614e-04  -7.6770491e-05  -2.5594298e-05  -1.4984762e-04  -1.9779496e-05  -1.5114997e-04  -6.3943065e-05  -3.4759249e-04  -1.3970325e-05  -3.0490791e-04   7.4634681e-06  -5.2806026e-05   5.8123314e-06  -3.6541955e-05  -6.5149674e-05  -8.7743523e-05  -2.0049259e-04  -7.5351934e-05  -1.7384253e-04   7.7077450e-05  -2.5934241e-05
  -1.2089688e-04  -4.4812605e-05  -4.1649437e-05  -8.4920313e-05  -4.9809954e-05  -1.0800007e-04  -1.2795017e-04  -1.7826630e-04  -7.8559104e-05   1.6228951e-04  -7.3130141e-05  -9.3162482e-05  -3.0319974e-05  -2.2068181e-05  -5.2895644e-05  -4.9216243e-05  -6.1940555e-05  -2.0637477e-05  -5.6492467e-05  -5.0748742e-05   1.1400943e-05  -1.9492592e-04  -9.5549833e-05  -8.9848450e-05  -3.2300592e-05  -3.9255327e-05  -1.3392675e-04  -1.0193810e-04  -2.7799448e-05  -1.0049374e-04  -6.0540515e-05  -1.8843262e-05  -1.4324584e-04  -1.0090431e-05  -1.4450042e-04  -4.3128486e-05  -3.1214079e-04   9.4743864e-06  -3.0991444e-04   2.8087392e-05  -4.1972820e-05   1.8121581e-06  -4.1928135e-05   8.1872800e-05  -6.9122914e-05  -1.6879232e-04  -5.3319382e-05  -1.1274956e-04   9.1703965e-05  -2.2408401e-05
  -9.0495661e-05  -6.7005982e-05  -2.4896241e-05  -8.4175997e-05  -5.7823454e-05  -1.5674112e-04  -1.3685582e-04  -2.3209937e-04  -8.7347908e-05   1.6923017e-04  -5.7612051e-05  -5.5040953e-05  -3.0806921e-05  -5.0875547e-05  -8.0559723e-05  -6.2185463e-05  -5.1091109e-05  -1.0924565e-05  -4.6850673e-05  -6.0485290e-05  -3.0613828e-06  -1.7659938e-04  -8.3378574e-05  -8.2840219e-05  -3.7529175e-05  -1.0677649e-05  -1.6251150e-04  -1.4705234e-04  -5.5094377e-05  -1.2085038e-04  -7.6746546e-05  -9.8094154e-07  -1.2947626e-04  -7.1135946e-06  -1.7263996e-04  -5.2833129e-05  -3.8622916e-04   1.8257657e-05  -3.5031154e-04   3.6637812e-05  -5.3280211e-05  -1.6774398e-05  -4.6724337e-05  -2.8011529e-05  -7.7103308e-05  -2.2830421e-04  -6.0314342e-05  -1.0345291e-04   1.5341745e-04  -1.6011041e-05
  -9.4856805e-05  -3.9737140e-05  -3.0545478e-05  -8.1316728e-05  -4.8228940e-05  -1.3459465e-04  -1.1530002e-04  -2.1109496e-04  -9.1879359e-05   1.5465192e-04  -8.1330560e-05  -6.2665851e-05  -3.3776378e-05  -3.7139034e-05  -7.3958101e-05  -5.9442711e-05  -5.5626722e-05  -4.6071254e-06  -5.1255985e-05  -8.2542079e-05  -4.1636172e-06  -1.6983837e-04  -9.4823590e-05  -8.6018779e-05  -3.5699828e-05  -5.2411483e-06  -1.5631966e-04  -1.2978312e-04  -2.7984268e-05  -1.1478025e-04  -7.8957259e-05  -8.1788430e-06  -1.2765918e-04   8.4793965e-06  -1.4726493e-04  -4.8588197e-05  -3.2762339e-04   2.1894350e-05  -3.0553632e-04   3.3377379e-05  -3.4380009e-05  -4.9262970e-05  -6.2696367e-05  -7.5382224e-05  -1.0574509e-04  -2.0389090e-04  -4.8879872e-05  -1.1786867e-04   4.0126175e-05  -3.9701285e-05
  -9.8927885e-05  -4.5063389e-05  -3.1420972e-05  -8.7199805e-05  -4.7152495e-05  -1.1823136e-04  -1.1005995e-04  -2.0448443e-04  -7.2133655e-05   1.5908373e-04  -7.3168725e-05  -4.7696936e-05  -2.8783888e-05  -3.4277869e-05  -8.9177149e-05  -5.2903917e-05  -4.6361096e-05   5.0659501e-06  -5.3483007e-05  -8.1134531e-05  -3.2860989e-05  -1.5981725e-04  -9.0346708e-05  -7.8542900e-05  -3.8208902e-05   8.5027605e-06  -1.7878022e-04  -1.6501706e-04  -7.6893877e-05  -1.1957800e-04  -7.6711731e-05  -7.0564374e-06  -1.4925055e-04   1.8402052e-05  -1.8131833e-04  -3.3138640e-05  -4.3571772e-04   3.3951543e-05  -3.6643987e-04   5.5868564e-05  -3.3258428e-05  -2.3557983e-05  -4.8306185e-05   7.6114094e-07  -8.4805979e-05  -1.9372601e-04  -7.7945813e-05  -7.5924101e-05   1.1967452e-04  -3.3253928e-05
  -9.1950147e-05  -4.2411928e-05  -3.7532223e-05  -6.7017500e-05  -5.0396964e-05  -1.3803483e-04  -1.1022033e-04  -2.1124043e-04  -9.7286807e-05   1.4936278e-04  -8.4043888e-05  -5.2379524e-05  -3.6117744e-05  -5.2977804e-05  -9.0882822e-05  -5.7362620e-05  -4.9465012e-05   1.2251247e-06  -9.0868096e-05  -9.8269607e-05  -3.1041578e-05  -1.5573479e-04  -9.1837152e-05  -9.1330978e-05  -2.9127570e-05   1.6989054e-06  -1.7135325e-04  -1.5227924e-04  -6.3132415e-05  -1.1069852e-04  -7.8391138e-05  -2.9633741e-06  -1.4029574e-04   9.6984413e-06  -1.7232448e-04  -4.3435793e-05  -4.0064278e-04   3.0492552e-05  -3.4556555e-04   5.4287462e-05  -2.7943335e-05  -4.3760352e-05  -4.8108359e-05   2.8952369e-05  -9.1657195e-05  -1.9167508e-04  -6.4589520e-05  -1.5249575e-04   5.8315196e-05  -3.5088447e-05
  -1.1366476e-04  -6.6540444e-05  -4.1177831e-05  -6.6893153e-05  -4.6769026e-05  -1.1506073e-04  -1.1816772e-04  -1.9224420e-04  -8.9158108e-05   1.5319852e-04  -9.1912138e-05  -7.2965799e-05  -2.8441069e-05  -2.5854572e-05  -7.4776726e-05  -4.3177064e-05  -5.5015127e-05  -3.8918797e-06  -1.0029309e-04  -9.5017633e-05  -2.8019162e-05  -1.9925951e-04  -9.9198747e-05  -9.6743002e-05  -4.2650470e-05  -3.1482145e-05  -1.5388953e-04  -1.0914850e-04  -2.2676815e-05  -8.8177250e-05  -6.6778070e-05   1.1973594e-06  -1.5475161e-04   5.2253577e-06  -1.4964161e-04  -7.5902077e-05  -2.9869517e-04   2.7666543e-05  -2.8361205e-04   7.1586343e-05  -3.2408541e-05  -3.7281316e-05  -3.1181378e-05  -7.2416980e-05  -1.1770531e-04  -1.9639453e-04  -3.2947177e-05  -1.1569183e-04   3.3452416e-05  -8.6136242e-06
  -1.1036880e-04  -3.1258834e-05  -4.0134222e-05  -8.6225831e-05  -5.4870485e-05  -1.3734127e-04  -1.4407271e-04  -2.0715412e-04  -7.7371042e-05   1.4899390e-04  -6.0959403e-05  -4.8560061e-05  -3.6506506e-05  -3.2996097e-05  -1.0502666e-04  -4.4858632e-05  -3.8202095e-05  -1.1064295e-05  -7.5800053e-05  -8.4025509e-05  -3.2540978e-05  -2.0294383e-04  -9.4932300e-05  -8.1545419e-05  -6.0802311e-05  -1.8386755e-06  -2.1462223e-04  -1.8792506e-04  -1.2202490e-04  -1.0110157e-04  -6.0627961e-05  -8.3113919e-06  -1.7595092e-04   2.6480075e-06  -1.9092897e-04  -7.1791954e-05  -4.5236127e-04   1.9727144e-05  -3.6698772e-04   4.1048126e-05  -2.6484436e-06  -1.7532799e-05   6.6571852e-06  -7.0478593e-05  -1.5827708e-04  -1.7457186e-04  -7.0176036e-05  -7.6359356e-05   5.8321428e-05  -1.5640794e-06
  -1.4532049e-04  -6.4045547e-05  -5.2841660e-05  -1.1573035e-04  -6.7584297e-05  -1.4759414e-04  -1.7017250e-04  -2.1009690e-04  -8.1294056e-05   1.3417141e-04  -7.3801326e-05  -5.9271457e-05  -4.2074320e-05  -2.3342755e-05  -9.7742799e-05  -5.2706917e-05  -4.2071744e-05  -1.9567184e-05  -1.1630904e-04  -9.2104608e-05  -8.3635096e-05  -2.5413683e-04  -1.1998110e-04  -1.0478972e-04  -9.1397342e-05  -2.6299289e-05  -2.1235399e-04  -1.4951806e-04  -1.3055012e-04  -9.2117356e-05  -6.4843196e-05  -3.6771271e-05  -1.6490745e-04   5.7297934e-06  -1.8440580e-04  -6.6988148e-05  -4.0345106e-04   1.4589117e-05  -3.3404666e-04   3.1413507e-05  -8.7836324e-06  -2.1798940e-05   2.9346464e-05  -3.6528898e-05  -1.7546010e-04  -1.9860886e-04  -9.6757329e-05  -1.3184617e-04   1.0002109e-05   4.1951084e-06
  -1.4723808e-04  -6.2844352e-05  -6.2681982e-05  -1.0065240e-04  -6.5264547e-05  -1.2280160e-04  -1.6441474e-04  -2.0023200e-04  -9.1693000e-05   1.0860149e-04  -8.4835658e-05  -7.1247967e-05  -4.2458076e-05  -8.3817458e-06  -7.4256277e-05  -3.5301939e-05  -4.3170017e-05  -1.9335332e-05  -1.0072709e-04  -1.0010059e-04  -1.0972800e-04  -2.6562682e-04  -1.2309199e-04  -9.6447984e-05  -8.8477449e-05  -3.5357883e-05  -1.7952750e-04  -1.0983326e-04  -7.6817159e-05  -7.2051065e-05  -5.9724443e-05  -3.6261521e-05  -1.8500656e-04   1.0572577e-05  -1.5370804e-04  -9.4586474e-05  -3.0999508e-04   1.2854734e-05  -2.8536245e-04   6.7750319e-05   5.9514000e-06  -1.7046823e-05   3.2363267e-05  -1.7931861e-05  -1.7591956e-04  -1.6724155e-04  -7.9266239e-05  -9.2750342e-05  -1.2438293e-05  -1.0834032e-05
  -1.5406231e-04  -5.1910793e-05  -5.9590857e-05  -1.4215590e-04  -6.3151645e-05  -1.1255535e-04  -1.5093990e-04  -1.9447331e-04  -7.8130623e-05   1.2019931e-04  -7.4571704e-05  -4.6691621e-05  -4.3765816e-05  -1.0593008e-05  -8.6762382e-05  -4.0958388e-05  -3.1560743e-05  -1.3859795e-05  -1.0594847e-04  -8.2429018e-05  -8.4913700e-05  -2.3648936e-04  -1.2027577e-04  -8.1614337e-05  -8.8286331e-05  -1.8217648e-06  -2.1716433e-04  -1.6315101e-04  -1.4564344e-04  -9.0294961e-05  -5.7852929e-05  -3.3276494e-05  -1.7549378e-04   1.1121295e-05  -1.9935427e-04  -6.9722431e-05  -4.3766372e-04   8.6541322e-06  -3.7375861e-04   8.8549372e-05   1.8525305e-05  -7.1947090e-07   5.5103879e-05  -5.1398103e-05  -1.6175392e-04  -1.8299575e-04  -7.3079944e-05  -1.1135299e-04   6.7748288e-06  -7.3180031e-06
  -1.5027216e-04  -8.4625441e-05  -6.0193754e-05  -7.5375385e-05  -7.6537908e-05  -1.5740759e-04  -1.6319261e-04  -2.1637286e-04  -9.4800023e-05   1.2265769e-04  -7.5558681e-05  -4.1807321e-05  -4.7776764e-05  -3.4766108e-05  -1.0780579e-04  -4.6242549e-05  -3.7927704e-05  -1.6713224e-05  -1.1706162e-04  -8.6980988e-05  -3.8121249e-05  -2.2755738e-04  -1.1938158e-04  -1.0653818e-04  -7.5016811e-05  -2.4201706e-06  -2.3733903e-04  -1.7438468e-04  -1.4506631e-04  -9.9687662e-05  -5.6351117e-05  -2.6388288e-05  -1.7673889e-04   2.7495384e-05  -1.9497058e-04  -5.4866567e-05  -4.4551605e-04   2.0809315e-05  -3.6892504e-04   7.0670758e-05   7.6270439e-06  -2.4668857e-06   3.7014055e-05  -6.4476932e-05  -1.6689376e-04  -1.6686322e-04  -6.2706305e-05  -6.9485890e-05   3.2204847e-05  -2.5621370e-05
  -1.4497446e-04  -6.9710659e-05  -6.3644962e-05  -9.5203883e-05  -7.0027454e-05  -1.4424401e-04  -1.7109344e-04  -2.1778297e-04  -1.3271472e-04   1.0699456e-04  -8.9121248e-05  -4.2749551e-05  -4.9448361e-05  -4.3188440e-05  -8.3432642e-05  -4.1955809e-05  -4.5010878e-05  -1.3519279e-05  -1.3010556e-04  -8.9110734e-05  -2.8968007e-05  -2.1621444e-04  -1.1780300e-04  -1.0370628e-04  -8.3270985e-05   5.8445329e-07  -1.8279662e-04  -1.3670753e-04  -6.5445114e-05  -9.2238151e-05  -4.6287954e-05  -1.8979397e-05  -1.4713539e-04   1.3110463e-05  -1.7088144e-04  -5.7230478e-05  -3.6855484e-04   3.0030058e-05  -3.1987595e-04   9.4111092e-05  -1.3526201e-05  -3.6177895e-05   1.4192892e-05  -1.1510726e-04  -1.5020340e-04  -1.7138143e-04  -1.0685693e-04  -1.2233199e-04   3.3670822e-05  -2.9585588e-05
  -1.3875964e-04  -5.4186687e-05  -6.0975890e-05  -1.4499929e-04  -6.1855957e-05  -1.3584616e-04  -1.5347097e-04  -1.9779167e-04  -1.4381058e-04   9.8439828e-05  -9.7223718e-05  -3.9795024e-05  -4.2888500e-05  -3.1728800e-05  -7.6166267e-05  -3.2643766e-05  -4.2702970e-05  -1.1036459e-05  -1.2231083e-04  -7.6105491e-05  -5.9704562e-06  -1.8340081e-04  -1.0458755e-04  -7.9947087e-05  -6.7594818e-05   3.5907000e-05  -1.8294885e-04  -1.6044731e-04  -8.6171283e-05  -1.0202344e-04  -4.1093121e-05  -2.1865735e-06  -1.4291635e-04   4.0429964e-05  -1.9200704e-04  -4.5256500e-05  -4.4568913e-04   2.2660122e-05  -3.9615404e-04   8.4334417e-05   1.7312537e-05  -3.1213283e-05   3.4249679e-05  -6.1874207e-06  -1.2291502e-04  -1.7441277e-04  -8.9883921e-05  -9.9072349e-05   5.6235829e-05   4.2994438e-06
  -1.4322708e-04  -7.9196179e-05  -6.1210980e-05  -1.3319931e-04  -7.2379895e-05  -1.7213772e-04  -1.7466572e-04  -2.3194423e-04  -1.2944700e-04   1.1632169e-04  -8.5188251e-05  -2.2840812e-05  -4.9368329e-05  -4.4914435e-05  -1.1461142e-04  -4.2707423e-05  -4.1701209e-05  -7.9389056e-06  -1.2464033e-04  -8.3839368e-05   3.7392781e-06  -1.8179195e-04  -1.0964192e-04  -9.9056677e-05  -7.1849019e-05   4.6904534e-05  -2.1391467e-04  -1.7776054e-04  -9.1594957e-05  -1.1773950e-04  -5.7179728e-05  -5.1923058e-07  -1.4861397e-04   5.4398770e-05  -2.1218974e-04  -5.2870855e-05  -4.9059879e-04   3.1342679e-05  -3.8056809e-04   1.0078800e-04   1.6750411e-06  -2.9885152e-05   1.3067551e-05  -7.3965864e-05  -1.1088049e-04  -1.6352293e-04  -6.9514092e-05  -6.0128379e-05   6.0519895e-05  -1.4604286e-06
  -1.4954410e-04  -4.7430243e-05  -6.4272899e-05  -7.0297210e-05  -6.7488611e-05  -1.6752047e-04  -1.6397737e-04  -2.2973951e-04  -1.7023232e-04   1.1374853e-04  -1.0012422e-04  -2.9189205e-05  -5.0271487e-05  -5.9857499e-05  -1.0411594e-04  -2.9265035e-05  -5.5021701e-05  -1.1068528e-05  -1.3622690e-04  -9.8052660e-05   5.0609768e-05  -1.5712024e-04  -9.9283447e-05  -1.0694126e-04  -5.8410515e-05   5.6468114e-05  -1.7342034e-04  -1.5253559e-04  -3.4582743e-05  -1.1170896e-04  -6.5978122e-05   1.2600261e-05  -1.2776344e-04   3.1213356e-05  -1.8469509e-04  -5.3320375e-05  -4.2875463e-04   3.2142318e-05  -3.3371020e-04   9.0334739e-05  -2.5813897e-05  -4.1085899e-05  -5.1030552e-06  -5.1799969e-05  -1.0977922e-04  -1.7368422e-04  -7.9140591e-05  -7.0771035e-05   8.0922466e-05   4.2526008e-06
  -1.4385782e-04  -7.8923738e-05  -7.1208531e-05  -9.6942320e-05  -5.6370034e-05  -1.6309452e-04  -1.4830811e-04  -2.0302989e-04  -1.8479256e-04   1.0725924e-04  -1.0659471e-04  -4.9952811e-05  -5.0762930e-05  -5.1736453e-05  -9.5679366e-05  -2.3384973e-05  -6.0270468e-05  -8.2273882e-06  -1.0491753e-04  -1.0406219e-04   3.9024944e-05  -1.4606958e-04  -9.1348767e-05  -1.0510113e-04  -6.5621352e-05   5.4544096e-05  -1.4478894e-04  -1.3674032e-04   1.5394620e-06  -9.6233191e-05  -4.5825353e-05   1.6679329e-05  -1.3238605e-04   2.0338848e-05  -1.7266057e-04  -2.1947069e-05  -3.6651199e-04   4.0611139e-05  -3.2155035e-04   1.2251975e-04   2.3767463e-05  -3.6443402e-05  -1.1813221e-05   5.0948762e-05  -7.7807221e-05  -1.5056012e-04  -7.9431054e-05  -6.2211657e-05   1.7708863e-04   1.9025580e-05
  -1.5110326e-04  -8.5019725e-05  -6.1579412e-05  -1.1606111e-04  -7.0967035e-05  -1.9886452e-04  -1.6061282e-04  -2.1100075e-04  -1.6882180e-04   1.2492044e-04  -8.3714403e-05  -1.9774538e-05  -5.2274292e-05  -8.0863123e-05  -1.3105011e-04  -2.5970510e-05  -4.2815369e-05  -5.1888301e-06  -1.1027936e-04  -1.0431276e-04   6.3893451e-05  -1.1858811e-04  -8.1587110e-05  -1.1744129e-04  -3.9793631e-05   1.0059110e-04  -1.7241947e-04  -1.8879373e-04  -7.5223383e-05  -1.2780599e-04  -4.9950773e-05   2.3261768e-05  -1.1834411e-04   4.5650660e-05  -2.0063913e-04  -1.9553145e-05  -4.8381713e-04   4.0379942e-05  -3.6555587e-04   1.0613636e-04   1.3494744e-06  -4.6977329e-05  -1.1692259e-05  -4.6251356e-05  -1.1282363e-04  -1.8133176e-04  -9.2703580e-05  -2.1458969e-05   1.4691796e-04   1.5013004e-05
  -1.5419821e-04  -9.6202457e-05  -6.7397559e-05  -9.2545371e-05  -6.4388383e-05  -1.8937331e-04  -1.4770954e-04  -2.2121606e-04  -1.8647000e-04   1.2091957e-04  -1.0684623e-04  -4.8996677e-05  -5.1556330e-05  -7.6516735e-05  -1.1345033e-04  -2.2012211e-05  -5.2686093e-05  -3.2382377e-06  -1.5798860e-04  -1.1103264e-04   5.5366156e-05  -1.3549157e-04  -9.3236849e-05  -1.1964290e-04  -6.2832441e-05   8.3532032e-05  -1.5648552e-04  -1.6759560e-04  -3.1910909e-05  -1.1935528e-04  -6.0643870e-05   2.3338556e-05  -1.5404583e-04   4.4784611e-05  -1.8725639e-04  -3.0632207e-05  -4.3131874e-04   4.5233541e-05  -3.1484035e-04   1.0690553e-04  -1.3255119e-05  -7.1844232e-05  -1.4791716e-06  -2.2316890e-05  -1.2072740e-04  -1.6301277e-04  -1.1336827e-04  -7.0380258e-05   1.7384859e-04   5.7892817e-07
  -1.5349295e-04  -7.4963711e-05  -7.8412202e-05  -1.4635778e-04  -6.0300790e-05  -1.5885397e-04  -1.4567196e-04  -1.7798723e-04  -1.8596042e-04   1.1199889e-04  -1.1469610e-04  -6.4015570e-05  -4.7052301e-05  -4.7243073e-05  -9.7200347e-05  -2.0322565e-05  -4.9931470e-05  -9.0697648e-07  -1.5137596e-04  -1.1894639e-04   3.4159209e-05  -1.5439159e-04  -9.7272321e-05  -1.1625623e-04  -5.8544621e-05   5.4473941e-05  -1.2252441e-04  -1.2524024e-04   1.9529711e-05  -1.0579125e-04  -4.7094109e-05   2.6289505e-05  -1.2867102e-04   4.7109883e-05  -1.6155669e-04  -3.5149114e-05  -3.3743860e-04   4.7567428e-05  -2.4370184e-04   1.1441882e-04   3.1814129e-06  -7.4206182e-05  -4.3195982e-06  -3.0561001e-05  -1.0937473e-04  -1.6459209e-04  -7.8289726e-05  -2.0646754e-05   1.5799307e-04   5.4540269e-06
  -1.4148949e-04  -6.4338179e-05  -7.5204691e-05  -1.5520875e-04  -6.4024229e-05  -1.5137120e-04  -1.4030340e-04  -1.8256933e-04  -1.6463325e-04   1.1689762e-04  -8.8456967e-05  -3.1327654e-05  -3.6874986e-05  -6.5876084e-05  -1.0612582e-04  -2.2100692e-05  -2.8679777e-05   5.2398327e-06  -1.3619503e-04  -1.1218288e-04   5.2983611e-05  -1.4384936e-04  -8.7805238e-05  -1.0262368e-04  -6.0243441e-05   7.9225480e-05  -1.7196570e-04  -1.8707874e-04  -5.3047039e-05  -1.1647560e-04  -3.8828890e-05   1.6890652e-05  -1.2402427e-04   6.4161715e-05  -1.9298658e-04  -1.4135740e-05  -4.4050688e-04   5.3206975e-05  -3.2097308e-04   1.5273593e-04  -2.8198469e-06  -6.2592611e-05   1.8353414e-05   6.5481268e-05  -1.3398194e-04  -1.8273464e-04  -1.1164937e-04  -5.4858796e-05   1.4028589e-04   1.7707751e-05
  -1.6172764e-04  -6.5486012e-05  -9.3252987e-05  -6.6463952e-05  -6.3761589e-05  -1.4604484e-04  -1.5180795e-04  -1.8623497e-04  -1.8683828e-04   8.7790053e-05  -8.3863823e-05  -3.0559924e-05  -2.8368704e-05  -6.8598092e-05  -1.2239222e-04  -2.2923905e-05  -2.8637729e-05  -1.4834951e-07  -1.9073678e-04  -9.3344766e-05   5.3725012e-06  -1.2889583e-04  -9.9160359e-05  -1.1918991e-04  -7.6375392e-05   5.9038939e-05  -1.8109805e-04  -1.5109507e-04  -9.1306094e-05  -1.0147949e-04  -3.6213831e-05   4.4943718e-06  -1.1633241e-04   4.8790211e-05  -1.8114572e-04  -3.3786440e-05  -4.1634575e-04   5.0722982e-05  -2.8218084e-04   1.2576250e-04  -1.9769946e-05  -6.2772895e-05   1.2780672e-05   4.9096019e-05  -1.3512255e-04  -1.3350467e-04  -1.2837326e-04  -1.0884540e-04   4.2952423e-05  -2.0173463e-06
  -1.4306018e-04  -6.3995787e-05  -6.7000852e-05  -6.6281755e-05  -5.5220047e-05  -1.3653609e-04  -1.5585293e-04  -1.5124948e-04  -1.9115960e-04   7.8758450e-05  -1.0591857e-04  -3.7679220e-05  -2.7171936e-05  -5.4672742e-05  -1.1254482e-04  -1.4526629e-05  -3.7465405e-05  -6.2231443e-06  -2.1048939e-04  -8.4840307e-05   1.1766232e-05  -1.2358614e-04  -8.6987857e-05  -1.1831983e-04  -9.4665884e-05   2.8537115e-05  -1.5946689e-04  -1.3942890e-04  -2.4943454e-05  -8.7129156e-05  -4.8137510e-05   1.7679280e-05  -1.2111235e-04   5.0192626e-05  -1.5798818e-04  -3.3837048e-05  -3.4927862e-04   5.1982461e-05  -2.2475790e-04   1.1711231e-04  -2.7093263e-05  -5.8254569e-05   1.3532658e-05  -8.3145380e-05  -1.3290311e-04  -1.6707191e-04  -8.2440798e-05  -8.6917949e-05   4.6122816e-05  -1.8661280e-05
  -1.3483742e-04  -5.9574155e-05  -5.1244671e-05  -8.5780797e-05  -4.9684266e-05  -1.1259350e-04  -1.4704827e-04  -1.5757990e-04  -2.0857867e-04   8.8036431e-05  -1.0485618e-04  -3.7923295e-05  -1.7245504e-05  -4.0988412e-05  -9.0826055e-05  -1.3399231e-05  -3.6273483e-05   1.5822500e-06  -1.7659931e-04  -6.6688146e-05   1.6505765e-05  -1.1842584e-04  -8.1550766e-05  -9.4071635e-05  -9.9895071e-05   4.1444084e-05  -1.6180942e-04  -1.6852444e-04  -5.0886330e-05  -8.9016372e-05  -4.1057603e-05   1.0519256e-05  -1.2728553e-04   5.4038759e-05  -1.8006640e-04  -3.3667984e-05  -4.0147518e-04   5.4351647e-05  -2.8648757e-04   1.3035246e-04  -8.4584190e-06  -5.7714624e-05   3.6831298e-05  -6.8750262e-05  -1.2736922e-04  -1.3289445e-04  -5.5208588e-05  -7.7784425e-05   5.6549194e-05   2.9304194e-06
  -1.3299343e-04  -6.7700996e-05  -3.7821421e-05  -5.8146121e-05  -5.3602569e-05  -1.4166642e-04  -1.7150590e-04  -1.7408076e-04  -1.9029468e-04   9.6245378e-05  -9.2024638e-05  -1.5995860e-05  -9.7108696e-06  -5.5872137e-05  -1.1855396e-04  -1.7119375e-05  -3.5475041e-05  -4.9474370e-06  -2.0309271e-04  -6.0909053e-05   1.9647361e-05  -1.0672293e-04  -7.7488781e-05  -9.8508513e-05  -1.0752746e-04   2.8073957e-05  -1.7723495e-04  -1.7390927e-04  -6.1294690e-05  -9.7308985e-05  -4.9683007e-05   9.1777065e-06  -1.1176043e-04   5.8802238e-05  -1.8570755e-04  -5.1273779e-05  -4.0849837e-04   5.2713152e-05  -2.7583318e-04   1.2824422e-04   1.1236209e-05  -6.4462809e-05   3.0441664e-05  -6.8781526e-05  -1.5684908e-04  -1.1707588e-04  -9.3364361e-05  -5.5925557e-05   7.2777526e-05  -1.8231050e-05
  -1.3270171e-04  -4.5813413e-05  -3.6484107e-05  -8.1497048e-05  -4.6470483e-05  -1.1898340e-04  -1.4653060e-04  -1.6302706e-04  -2.1865858e-04   9.5099807e-05  -1.0395022e-04  -2.2716824e-05  -1.1590672e-05  -4.7090998e-05  -1.0245850e-04  -1.6532606e-05  -3.7282713e-05   5.5010369e-06  -1.8982202e-04  -5.2307707e-05   1.6396607e-05  -9.3087096e-05  -8.9607020e-05  -1.1086713e-04  -1.0127832e-04   1.0762620e-05  -1.4667220e-04  -1.4356217e-04  -1.8383365e-05  -8.4047409e-05  -4.6973531e-05   4.8028942e-06  -1.0356108e-04   6.9699570e-05  -1.6240112e-04  -4.5700450e-05  -3.4708207e-04   7.0436872e-05  -2.1641603e-04   1.2757661e-04  -3.7121798e-05  -6.8653128e-05   9.6474696e-06   6.6486151e-05  -1.2110171e-04  -1.5300636e-04  -1.0700369e-04  -1.3104492e-04   3.9052389e-05  -2.7781842e-05
  -1.2985041e-04  -6.7521345e-05  -3.5717112e-05  -4.6626410e-05  -3.9141254e-05  -9.0269394e-05  -1.3317809e-04  -1.4557774e-04  -2.0070570e-04   9.6999429e-05  -1.0302278e-04  -1.8530898e-05  -7.8244993e-06  -2.4158664e-05  -7.8004392e-05  -6.1390624e-06  -4.0805742e-05   1.1320873e-05  -1.7705084e-04  -4.9209415e-05   3.6302259e-05  -6.8738344e-05  -7.4340423e-05  -8.5439649e-05  -9.4450137e-05   1.6521941e-05  -1.1241141e-04  -1.3278631e-04  -2.4331878e-06  -7.4329851e-05  -3.6532972e-05   3.7286845e-05  -8.6469547e-05   7.7079232e-05  -1.5643827e-04  -2.7047325e-05  -3.2849744e-04   7.2828261e-05  -2.3911316e-04   1.5736654e-04  -2.4328263e-05  -3.9377646e-05   3.0149677e-05   3.1520267e-05  -1.1562029e-04  -1.1820012e-04  -1.7631092e-04  -2.6128027e-05   1.0620463e-04  -2.4677900e-05
  -1.0807476e-04  -4.0148385e-05  -2.7732545e-05  -4.1208645e-05  -4.7684560e-05  -1.1697405e-04  -1.4547778e-04  -1.7036237e-04  -2.1447297e-04   1.1457377e-04  -9.2769347e-05   1.0315359e-05  -6.4778983e-06  -4.7773472e-05  -1.0624111e-04  -1.5373547e-05  -3.7251328e-05   1.0949159e-05  -1.6386338e-04  -4.5743232e-05   5.7386154e-05  -4.7197707e-05  -7.0567687e-05  -8.6789514e-05  -9.7115480e-05   2.6361153e-05  -1.3964783e-04  -1.5363675e-04   1.0019180e-05  -8.3751183e-05  -4.4725268e-05   2.0598063e-05  -1.0532040e-04   7.0370152e-05  -1.7242710e-04  -4.9803748e-05  -3.6683417e-04   8.0153426e-05  -2.4317460e-04   1.6183591e-04  -2.9618943e-05  -6.5621774e-05   4.5916190e-06  -1.8315232e-05  -9.4746858e-05  -1.4905378e-04  -1.3349121e-04  -1.1079578e-04   8.5283675e-05  -4.0073526e-05
  -1.0360919e-04  -6.3398620e-05  -2.8518689e-05  -5.9008540e-05  -4.2599135e-05  -1.0660746e-04  -1.1578161e-04  -1.5140127e-04  -1.9630912e-04   1.1392163e-04  -9.6090276e-05   1.2960450e-06   4.8810116e-06  -3.4544631e-05  -9.1714603e-05   9.0911664e-07  -4.7151920e-05   1.0498217e-05  -1.6551552e-04  -4.7501238e-05   6.1250648e-05  -4.4146083e-05  -6.8254521e-05  -9.2302434e-05  -1.0879520e-04   1.9141091e-05  -1.0326211e-04  -1.2927801e-04   2.2818933e-05  -6.9883732e-05  -4.6200283e-05   3.3259665e-05  -6.8214082e-05   7.9953548e-05  -1.4592921e-04  -4.3834567e-05  -3.0282768e-04   7.4133306e-05  -1.8013359e-04   1.4343769e-04  -1.9297571e-05  -7.1958792e-05  -5.9218091e-06  -1.1358986e-05  -1.0415341e-04  -1.5980123e-04  -1.2705989e-04  -1.3262319e-04   1.0044326e-04  -3.9215025e-05
  -1.0701322e-04  -4.2971442e-05  -2.5578818e-05  -7.6338089e-05  -3.2425785e-05  -8.2304374e-05  -1.1551369e-04  -1.3084117e-04  -2.0631221e-04   1.1446415e-04  -9.9795398e-05  -1.0384317e-05   1.1113783e-05  -1.2533268e-05  -6.0930815e-05   8.6112277e-06  -4.9659669e-05   1.6029222e-05  -1.4880869e-04  -4.5631878e-05   6.0601647e-05  -4.3699565e-05  -7.3088362e-05  -6.4045918e-05  -9.2080081e-05   3.1649231e-06  -7.4874450e-05  -1.0564302e-04   7.9715763e-05  -5.4492913e-05  -2.9585486e-05   3.5820089e-05  -6.4785003e-05   8.8044719e-05  -1.3816362e-04  -4.5121433e-05  -2.5607029e-04   8.4481362e-05  -1.8449180e-04   1.6252200e-04  -2.9953275e-05  -3.6889844e-05   1.8313243e-05  -5.2389652e-05  -8.4424457e-05  -1.1818106e-04  -1.3344377e-04  -9.6970252e-05   1.2606634e-04  -1.5849608e-05
  -9.2776521e-05  -2.9991756e-05  -2.1735235e-05  -6.4393651e-05  -3.9510032e-05  -1.0794174e-04  -1.2118649e-04  -1.4714764e-04  -1.7241684e-04   1.3399214e-04  -7.8172576e-05   1.3768023e-05   1.0990715e-05  -3.1180167e-05  -9.6783107e-05   1.6179425e-06  -4.5550463e-05   1.9330795e-05  -1.2876251e-04  -4.0980718e-05   5.3961365e-05  -3.9743263e-05  -7.0729955e-05  -6.4400767e-05  -9.3088260e-05   2.3168250e-05  -1.2113719e-04  -1.4275628e-04   2.3620893e-05  -7.8705634e-05  -3.8593356e-05   2.7451359e-05  -7.3987649e-05   8.0917547e-05  -1.5615448e-04  -3.1153071e-05  -3.1949836e-04   7.8562836e-05  -2.1474159e-04   1.3079938e-04  -1.8605610e-05  -5.8645583e-05   2.3016055e-05  -8.1388709e-05  -1.1047242e-04  -1.3851977e-04  -1.7014181e-04  -1.2260283e-05   6.5765154e-05  -3.5745947e-05
