   2.4778576e-04   4.5583503e-05   3.5003730e-05   3.1408406e-05   1.5015436e-05  -1.6281518e-05  -5.3757085e-05  -1.0148217e-04   1.1382698e-04  -3.0302712e-05   1.8776847e-04  -6.7614938e-06   2.8704855e-05  -2.2085933e-05  -6.4566913e-05  -6.2934268e-05   1.7123674e-04   9.0374640e-05   5.7090656e-05   1.9805993e-04  -1.4582371e-04  -6.4891654e-05   1.7687007e-04   1.0149888e-04   4.3958138e-05   7.5114467e-06  -1.6139164e-04  -3.2805889e-05  -1.4758417e-04   9.4017596e-05  -3.3154833e-04  -1.8127326e-05  -7.4655480e-05   8.2027668e-04  -1.7889113e-04  -6.0825532e-05  -2.1550087e-04   3.7957230e-05  -6.7729276e-04  -3.1966929e-04  -5.6633467e-05   1.2228992e-05  -1.2403695e-04  -2.7182087e-04   2.3487337e-04   6.5895649e-05   1.5878242e-04  -1.2496006e-04   2.3239694e-04   3.5022540e-04
   1.8876830e-04   4.6752542e-05   3.1520318e-05   3.2342905e-05   2.1600852e-05   1.0736222e-06  -5.8588044e-05  -7.7220458e-05   1.0610130e-04  -3.8664206e-05   1.8802151e-04  -1.0827304e-05   3.6238966e-05  -5.7152433e-06  -7.6385215e-05  -5.3717664e-05   1.6487140e-04   9.5049370e-05   7.5852120e-05   2.0541724e-04  -1.2230095e-04  -6.8589477e-05   1.8380432e-04   1.0640720e-04   3.5137866e-05   1.9616967e-07  -1.8235626e-04  -1.5471953e-05  -1.3428128e-04   1.1599949e-04  -3.1876299e-04  -2.3175287e-05  -6.2338462e-05   8.1710552e-04  -1.5066686e-04  -4.1841125e-05  -1.8058319e-04   2.9816598e-05  -5.5364310e-04  -3.3194409e-04  -7.1255316e-05   1.9068924e-05  -9.6320982e-05  -1.8999637e-04   1.9546491e-04   1.2561593e-04   1.2442248e-04  -3.8984690e-05   2.4963942e-04   2.9249018e-04
   1.9359938e-04  -4.7758613e-07   3.9189312e-05   2.9457669e-05   1.2395824e-05  -1.3793883e-05  -5.0871742e-05  -7.7141638e-05   1.0405358e-04  -3.0361964e-05   2.1116408e-04   9.7394186e-06   4.0238785e-05  -1.7831830e-05  -6.4679843e-05  -6.0860712e-05   1.6747731e-04   8.6784894e-05   7.2422881e-05   2.0193141e-04  -1.8464553e-04  -6.7332199e-05   1.8799992e-04   1.0111376e-04   3.6559428e-05   1.2268705e-05  -1.8812271e-04  -3.1352603e-05  -1.7186154e-04   9.8843317e-05  -3.2641593e-04  -3.2723528e-05  -5.1551076e-05   7.8799122e-04  -1.7725743e-04  -6.1670362e-05  -2.0748402e-04   3.5942991e-05  -6.8517542e-04  -3.3677678e-04  -5.7517107e-05   1.6533788e-05  -1.1399702e-04  -2.2488345e-04   2.2272942e-04   1.2696491e-04   1.0989428e-04  -9.8989753e-05   2.9391953e-04   3.5038078e-04
   1.8595370e-04   3.0783136e-05   3.3470438e-05   2.4703053e-05   1.0405266e-05  -7.4086925e-06  -4.6771747e-05  -7.1585608e-05   7.0806687e-05  -3.9916584e-05   1.9566577e-04   6.6278617e-06   3.7271882e-05  -2.7387719e-05  -7.4540760e-05  -6.9671136e-05   1.6809763e-04   8.5894673e-05   6.0454600e-05   1.9647866e-04  -1.4390018e-04  -6.2840874e-05   1.6902432e-04   9.9324345e-05   4.0387531e-05   1.2706262e-05  -1.7218463e-04  -2.8391729e-05  -1.5894869e-04   1.1314497e-04  -3.2363227e-04  -3.8333335e-05  -8.4449341e-05   7.8607490e-04  -1.7239741e-04  -4.3575426e-05  -1.8499332e-04   2.6550748e-05  -6.1711122e-04  -3.2553865e-04  -6.8241417e-05  -2.2448068e-05  -1.1183607e-04  -2.6182717e-04   2.7121310e-04   1.4016463e-04   1.6598674e-04  -7.7618861e-05   1.9100332e-04   3.2247638e-04
   1.8697757e-04   2.5267691e-05   3.7124875e-05   2.5032212e-05   1.6677772e-05   8.2323741e-06  -4.7868809e-05  -7.3220013e-05   8.4920794e-05  -5.2391566e-05   1.8134234e-04   6.9811847e-07   2.9499195e-05  -1.8049186e-05  -8.9529545e-05  -6.7213194e-05   1.6404393e-04   8.4023675e-05   5.9775692e-05   1.9191403e-04  -1.7232393e-04  -6.4918517e-05   1.7935624e-04   1.0514704e-04   3.0582512e-05   5.4531311e-06  -1.5327620e-04  -1.1559890e-05  -1.0755630e-04   1.2324037e-04  -3.2462034e-04  -2.8858063e-05  -5.9810496e-05   7.7604834e-04  -1.5669814e-04  -3.3830707e-05  -1.7174448e-04   3.0401314e-05  -5.6558312e-04  -3.5007118e-04  -6.4800173e-05  -2.6749231e-05  -1.0831879e-04  -2.5703735e-04   2.0026098e-04   1.5166122e-04   1.2958286e-04  -1.0898385e-04   3.5938856e-04   3.6888188e-04
   1.8580479e-04  -1.5990983e-06   3.7984570e-05   2.3627561e-05   7.0127817e-06  -5.0245940e-06  -6.0716313e-05  -7.2564559e-05   9.3026931e-05  -4.6870777e-05   1.8852856e-04   1.6806551e-05   2.5074221e-05  -3.0997209e-05  -8.2798404e-05  -8.0450794e-05   1.6960615e-04   7.1229166e-05   4.9689246e-05   1.8206658e-04  -1.5254937e-04  -5.8126971e-05   1.6665092e-04   8.5035390e-05   3.1073443e-05   1.3782720e-05  -1.8437700e-04  -4.2653028e-05  -1.7759812e-04   1.0301368e-04  -3.3943076e-04  -4.1420193e-05  -7.0843482e-05   7.5335841e-04  -1.7713259e-04  -4.5469693e-05  -1.8811061e-04   3.0363914e-05  -6.5854512e-04  -3.5409277e-04  -7.5583870e-05  -6.8133202e-05  -1.2586621e-04  -3.1288512e-04   1.9393933e-04   1.3015958e-04   1.3471051e-04  -9.4529263e-05   1.5279811e-04   2.9754962e-04
   1.8587090e-04   1.3051402e-05   3.1067768e-05   1.3320838e-05   1.0105088e-05  -4.6480304e-06  -5.3811262e-05  -7.6553224e-05   5.7198220e-05  -6.0630908e-05   1.5650316e-04   7.5373828e-06   1.8647355e-05  -2.9820685e-05  -8.4593972e-05  -8.0758924e-05   1.5546466e-04   7.5588061e-05   2.5745181e-05   1.6784234e-04  -1.4712046e-04  -6.1307503e-05   1.5389471e-04   7.8643563e-05   2.3957989e-05   4.3492960e-06  -1.6620272e-04  -2.7955268e-05  -1.3446301e-04   1.1990353e-04  -3.4103187e-04  -5.3690874e-05  -8.3750158e-05   7.5174775e-04  -1.6614198e-04  -4.7905447e-05  -1.7906126e-04   1.2964211e-05  -6.0140179e-04  -3.4734418e-04  -6.9780705e-05  -4.5586858e-05  -1.3112590e-04  -2.7296878e-04   1.9178787e-04   1.0094889e-04   1.3875420e-04  -8.0497004e-05   1.8927710e-04   3.3706488e-04
   1.7679707e-04   8.9545583e-06   3.2051175e-05   1.4856510e-05   1.6529464e-05  -8.3177349e-07  -4.4528795e-05  -6.2684259e-05   3.2018532e-05  -6.7830821e-05   1.5232527e-04   5.3316767e-06   7.0742494e-06  -1.9491607e-05  -8.5620297e-05  -7.9969526e-05   1.5422769e-04   7.5997552e-05   2.6602420e-05   1.6966998e-04  -1.3219129e-04  -4.8063641e-05   1.4684822e-04   8.6753593e-05   1.9429843e-05   7.1214708e-06  -1.6096690e-04  -1.4660317e-05  -1.3347044e-04   1.2379524e-04  -3.4233468e-04  -5.0731553e-05  -7.9050158e-05   7.2231400e-04  -1.6848516e-04  -7.3667419e-05  -1.5339586e-04   1.4109149e-05  -5.9729925e-04  -3.6166623e-04  -7.1828013e-05  -2.6865473e-05  -1.3135061e-04  -2.8074213e-04   1.9517864e-04   2.9987677e-05   7.0118236e-05  -8.6494554e-05   2.9597181e-04   2.5907377e-04
   1.7986567e-04   1.8517160e-06   2.2794908e-05   5.8321739e-06   2.9941348e-06  -2.1866223e-05  -6.0798262e-05  -8.3622253e-05   3.1754971e-05  -6.7209199e-05   1.3786656e-04   1.1227346e-05  -9.0887124e-06  -4.3270978e-05  -9.8258985e-05  -9.5851748e-05   1.4836848e-04   6.4022141e-05  -1.7816517e-05   1.5053629e-04  -1.1857181e-04  -4.9510058e-05   1.1833838e-04   6.7012792e-05   2.6329350e-05   2.0461976e-05  -1.8777972e-04  -3.3286291e-05  -1.6430170e-04   9.7909222e-05  -3.5768090e-04  -7.5735523e-05  -7.7352306e-05   6.9696089e-04  -1.9555724e-04  -6.0962546e-05  -2.1661341e-04   2.4632865e-05  -6.9343642e-04  -3.5751145e-04  -7.6886419e-05  -9.9280114e-05  -1.5921917e-04  -3.3213556e-04   1.5346477e-04  -2.2440920e-06   3.6336383e-05  -1.1803122e-04   2.1550282e-04   3.2694568e-04
   1.7531209e-04   1.7623732e-05   1.7112465e-05  -7.3254462e-08   5.6615550e-06  -2.9337501e-05  -6.4480853e-05  -9.7373952e-05   1.1232710e-07  -7.7501332e-05   1.1153661e-04   4.5103534e-06  -2.9500601e-05  -4.4810848e-05  -8.6629138e-05  -1.0122900e-04   1.3018954e-04   5.7372519e-05  -2.6919361e-05   1.4012764e-04  -1.2732313e-04  -5.0467854e-05   9.6846852e-05   5.3213091e-05   1.8354549e-05   4.3321802e-06  -1.6831880e-04  -2.4821111e-05  -1.5776306e-04   1.0750288e-04  -3.6526541e-04  -7.4651514e-05  -8.2389015e-05   7.0979784e-04  -1.9282541e-04  -9.1157723e-05  -1.8410888e-04   6.7496198e-06  -6.0620287e-04  -3.6930683e-04  -7.2341041e-05  -8.7337408e-05  -1.5475405e-04  -3.0990902e-04   1.1844017e-04   1.9586771e-05   9.5921663e-05  -1.4060861e-04   3.2977565e-04   2.7784324e-04
   1.7538678e-04   4.0215713e-05   1.8057361e-05   3.8636108e-06   1.2996669e-05  -2.9773144e-05  -6.2611820e-05  -9.1124995e-05   1.2511217e-05  -8.3949250e-05   1.0376961e-04   3.0405797e-06  -2.7878006e-05  -3.2706099e-05  -9.5290001e-05  -9.7731870e-05   1.2212440e-04   5.1189632e-05  -3.0609266e-05   1.3693912e-04  -1.3439576e-04  -3.7567032e-05   9.6555348e-05   6.3541811e-05   2.4883821e-05   1.1329490e-05  -1.4422310e-04  -1.8209414e-05  -1.4552695e-04   1.1098784e-04  -3.6300102e-04  -6.7677051e-05  -7.6116441e-05   7.0503075e-04  -1.8334921e-04  -9.8369703e-05  -1.7683071e-04   2.0891716e-06  -5.9731066e-04  -3.7138531e-04  -7.1270049e-05  -1.2254466e-04  -1.6357654e-04  -3.8464036e-04   1.1988191e-04   3.5703666e-05   7.8741519e-05  -1.4376223e-04   3.2903205e-04   2.9140309e-04
   1.5727086e-04  -1.2002096e-05   9.7329730e-06  -4.7094882e-06  -7.9945471e-07  -4.2819313e-05  -7.3760020e-05  -1.2482564e-04  -3.4013217e-05  -7.9030528e-05   1.0268259e-04   1.5917096e-05  -3.5496218e-05  -5.7793379e-05  -9.2968221e-05  -1.1130885e-04   1.2368902e-04   5.2961466e-05  -5.7725341e-05   1.3244248e-04  -1.3584910e-04  -3.0139372e-05   8.0933445e-05   4.5294677e-05   5.3995209e-06   1.3439108e-05  -1.7837904e-04  -4.8893224e-05  -1.4463643e-04   9.2066395e-05  -3.7037308e-04  -8.3834952e-05  -1.0247865e-04   7.1533927e-04  -2.2115103e-04  -7.0340138e-05  -2.2330269e-04  -3.4855188e-06  -7.1419642e-04  -4.1704817e-04  -6.2666077e-05  -1.3137539e-04  -1.8707097e-04  -3.4781714e-04   5.2132920e-05  -4.1698797e-05   1.5127870e-05  -1.5044690e-04   3.2638002e-04   2.3103603e-04
   1.5327211e-04  -1.2276289e-05   1.2575381e-06  -1.0723094e-05   3.9808770e-06  -5.6054378e-05  -8.6758679e-05  -1.2427017e-04  -4.7627622e-05  -8.9698340e-05   8.2563711e-05   1.0583957e-05  -4.2051564e-05  -6.0464172e-05  -1.0699218e-04  -1.1088044e-04   1.0759809e-04   4.8625567e-05  -7.9256162e-05   1.2599748e-04  -1.5008952e-04  -3.6806177e-05   7.4270771e-05   4.4792730e-05   7.6015513e-06   1.5000717e-06  -1.5420867e-04  -3.6551435e-05  -1.6143279e-04   1.0085156e-04  -3.7094665e-04  -8.8151173e-05  -1.4768931e-04   6.9010747e-04  -2.1843529e-04  -6.3679305e-05  -1.9497411e-04  -1.2788111e-05  -6.3162553e-04  -3.9499463e-04  -8.8227644e-05  -1.1316634e-04  -1.8553113e-04  -3.5728936e-04   1.1284686e-04  -4.9868449e-05   2.5972555e-05  -1.4670435e-04   9.8063370e-05   2.3320952e-04
   1.4818268e-04   1.8655865e-05  -4.9047826e-06  -1.5143498e-05   6.6975113e-06  -5.2247022e-05  -7.4881529e-05  -1.1406172e-04  -2.5365827e-05  -9.7667013e-05   7.7440840e-05   6.0159387e-06  -4.5458881e-05  -5.6138069e-05  -9.0510075e-05  -1.0558009e-04   9.9808101e-05   4.6491488e-05  -7.6339973e-05   1.2970818e-04  -1.0621104e-04  -3.7879505e-05   7.4205505e-05   5.3167096e-05   1.2725637e-05  -5.7686675e-06  -1.3768410e-04  -8.3244640e-06  -1.3558353e-04   1.1528888e-04  -3.6993000e-04  -8.1207145e-05  -1.2091336e-04   7.0282473e-04  -1.9415338e-04  -8.2666978e-05  -1.5098948e-04  -2.4615006e-06  -5.0936238e-04  -4.1777815e-04  -9.2567920e-05  -1.3150892e-04  -1.7496238e-04  -3.8042321e-04   8.6428874e-05  -2.3185728e-05   5.1914129e-05  -1.3860705e-04   1.5766539e-04   2.9243145e-04
   1.3435489e-04  -4.6634657e-05  -9.7042512e-06  -1.9614205e-05  -6.6192374e-06  -5.6924669e-05  -9.5790339e-05  -1.3135925e-04  -3.7743393e-05  -8.3678009e-05   9.6890362e-05   2.1381678e-05  -4.3302720e-05  -6.8473382e-05  -9.1976297e-05  -1.1304821e-04   1.0703323e-04   5.0132014e-05  -6.7667861e-05   1.2869656e-04  -1.3522599e-04  -2.9294997e-05   6.8761910e-05   5.2648415e-05   7.8583716e-06   1.9236553e-05  -1.8017735e-04  -4.4368091e-05  -1.7337535e-04   9.0501955e-05  -3.7673794e-04  -9.8683471e-05  -1.2855152e-04   6.9833174e-04  -2.2969060e-04  -7.2020172e-05  -2.3216939e-04  -1.7236294e-05  -6.9026602e-04  -4.1576469e-04  -9.7072982e-05  -1.1482823e-04  -1.9159920e-04  -3.5613726e-04   4.8195398e-05  -2.3445729e-05   1.1758093e-05  -2.0225933e-04   1.7624810e-04   3.0878518e-04
   1.2582072e-04  -4.6694651e-05  -2.3290220e-05  -2.9288287e-05  -7.3248066e-06  -6.9892732e-05  -1.0005051e-04  -1.3991905e-04  -4.9990205e-05  -9.1581678e-05   8.3211249e-05   1.4782367e-05  -5.3330779e-05  -7.1428891e-05  -9.2577051e-05  -1.1977087e-04   9.7609671e-05   4.8927217e-05  -6.0997721e-05   1.2746544e-04  -1.1040404e-04  -3.5167122e-05   5.1408417e-05   3.3750315e-05   4.9857977e-06   7.9898682e-06  -1.5226704e-04  -3.7196522e-05  -1.9155009e-04   9.3715134e-05  -3.7782994e-04  -8.5048305e-05  -1.1469513e-04   6.8304501e-04  -2.2419009e-04  -7.7201272e-05  -1.9555500e-04  -1.8646651e-05  -6.2928529e-04  -4.1768141e-04  -9.6908363e-05  -1.2368326e-04  -1.9590661e-04  -4.0891458e-04   6.1693034e-05  -2.9786155e-05   5.4747077e-05  -2.1623107e-04   2.1941334e-04   2.7081260e-04
   1.1681979e-04   7.1508503e-06  -2.6573551e-05  -2.8267223e-05  -3.5816493e-06  -6.2856874e-05  -9.5573887e-05  -1.2655399e-04  -3.1173600e-05  -9.8927128e-05   8.6563618e-05   1.1581832e-05  -5.8365833e-05  -6.5325636e-05  -9.0539135e-05  -1.0506360e-04   9.4404611e-05   4.7496673e-05  -5.3279415e-05   1.3524573e-04  -1.2266729e-04  -4.0876923e-05   6.5192915e-05   4.3659456e-05   6.4385681e-06  -6.1373362e-06  -1.5363455e-04  -1.6053607e-05  -1.4372302e-04   1.1790585e-04  -3.7378643e-04  -7.9413207e-05  -1.2863024e-04   6.8609772e-04  -1.9586732e-04  -8.8171160e-05  -1.4352918e-04  -8.2273791e-06  -4.8661296e-04  -4.1319637e-04  -8.7332446e-05  -1.0674304e-04  -2.0681538e-04  -3.3092554e-04   7.1981412e-05   8.1402510e-07   7.9892874e-05  -1.6324130e-04   1.9459752e-04   3.1404517e-04
   1.2798532e-04  -2.8606664e-05  -2.3371918e-05  -2.7863014e-05  -8.5502652e-06  -6.4953565e-05  -8.8803405e-05  -1.3354314e-04  -1.8237633e-05  -7.9773679e-05   1.1631600e-04   3.0585670e-05  -5.5740424e-05  -6.8227295e-05  -8.1590741e-05  -1.0872760e-04   1.0262019e-04   5.5536122e-05  -4.0703220e-05   1.4918680e-04  -1.2218802e-04  -2.8505752e-05   5.7107340e-05   5.1975658e-05   4.9980954e-06   9.8213168e-06  -1.7356615e-04  -3.7604201e-05  -1.4839313e-04   9.2119350e-05  -3.7314391e-04  -8.6613407e-05  -1.3311626e-04   6.9436920e-04  -2.2173999e-04  -6.1382656e-05  -2.1367612e-04  -2.7320795e-05  -6.7359733e-04  -4.0802831e-04  -9.2554212e-05  -1.3356488e-04  -1.9747234e-04  -3.4558304e-04   8.7285880e-05  -2.3760071e-05   6.9770467e-05  -1.8456594e-04   2.0465409e-04   2.2977310e-04
   9.8916353e-05  -2.0183561e-05  -3.5464407e-05  -4.0706218e-05  -1.5622460e-05  -8.0662583e-05  -1.0858376e-04  -1.3600194e-04  -3.6200610e-05  -8.2449311e-05   1.1008012e-04   2.4899420e-05  -5.5355755e-05  -7.9930614e-05  -9.2498572e-05  -1.1905905e-04   9.6426760e-05   4.5535857e-05  -2.6707012e-05   1.5590644e-04  -1.5691818e-04  -3.5539073e-05   5.9252612e-05   5.1781721e-05  -1.8014407e-05   1.4677726e-06  -1.6914861e-04  -4.5658217e-05  -2.2000616e-04   9.5701784e-05  -3.6998131e-04  -9.2710914e-05  -1.2718956e-04   6.6940906e-04  -2.2410358e-04  -6.4601008e-05  -1.8301563e-04  -3.6455691e-05  -6.1956269e-04  -4.0421367e-04  -6.4617561e-05  -8.9354922e-05  -1.8168820e-04  -2.9457326e-04   1.1019142e-04   4.3373588e-05   8.9068191e-05  -1.4031398e-04   3.7360538e-04   2.9637330e-04
   8.8221474e-05  -3.7098507e-05  -4.2249347e-05  -4.7073900e-05  -1.0111143e-05  -7.7483492e-05  -1.0216577e-04  -1.2430274e-04  -6.2177537e-06  -8.9946741e-05   1.0996382e-04   2.1910899e-05  -5.2395510e-05  -6.2285297e-05  -1.0497360e-04  -1.1265654e-04   9.5154937e-05   3.7713744e-05  -2.5151712e-05   1.6055617e-04  -1.5439284e-04  -4.3653672e-05   7.0543683e-05   5.9039205e-05  -3.0643798e-05  -3.9223364e-06  -1.6321008e-04  -2.9946401e-05  -1.4316531e-04   1.2452248e-04  -3.6584743e-04  -8.9274574e-05  -1.2176639e-04   6.6997926e-04  -1.9347068e-04  -8.9017674e-05  -1.3027508e-04  -2.6321666e-05  -4.3443745e-04  -3.8687710e-04  -5.4445525e-05  -8.2197868e-05  -1.8532516e-04  -3.2965461e-04   9.7612246e-05   2.1506770e-05   8.8377237e-05  -1.4988052e-04   1.9687771e-04   2.7840817e-04
   1.0160075e-04  -3.8898535e-05  -3.5903071e-05  -3.9113704e-05  -1.2752668e-05  -6.1403662e-05  -8.0168873e-05  -1.2070264e-04   5.2347947e-05  -7.0708127e-05   1.3584916e-04   3.6082456e-05  -4.6081663e-05  -5.8516784e-05  -9.1790753e-05  -9.8241318e-05   1.0170155e-04   5.1121788e-05   2.5285824e-05   1.7161985e-04  -1.3390694e-04  -2.5795669e-05   8.5234031e-05   7.7359196e-05  -2.1460786e-05   1.5573454e-05  -1.7237591e-04  -3.8604383e-05  -1.6233588e-04   1.1049884e-04  -3.6022186e-04  -7.8927929e-05  -1.0132702e-04   6.9616537e-04  -2.0254590e-04  -5.9427941e-05  -1.6278158e-04  -1.5105999e-05  -5.4126565e-04  -4.0063594e-04  -5.7966503e-05  -8.4306150e-05  -1.7337834e-04  -3.2958234e-04   1.4210037e-04   4.7351947e-05   6.7999237e-05  -1.7111040e-04   2.7616817e-04   2.5434815e-04
   8.8887064e-05  -2.4390760e-05  -4.8238770e-05  -4.8194499e-05  -1.8289415e-05  -7.5218260e-05  -9.8436270e-05  -1.2236794e-04   4.1310028e-05  -6.7433371e-05   1.4175891e-04   3.1822787e-05  -5.0577251e-05  -6.9019101e-05  -9.0572677e-05  -1.0665967e-04   1.1210109e-04   5.8230500e-05   1.8448904e-05   1.7827717e-04  -1.2194293e-04  -3.0099538e-05   8.1071303e-05   7.9619145e-05  -3.5782261e-05   7.6157280e-06  -1.8001809e-04  -4.8886912e-05  -1.5885801e-04   1.0937174e-04  -3.5994485e-04  -9.3368188e-05  -9.7610682e-05   7.0479925e-04  -1.9879363e-04  -6.8203968e-05  -1.8916569e-04  -2.1757711e-05  -5.4976204e-04  -3.9822940e-04  -4.9736129e-05  -6.5877030e-05  -1.8057141e-04  -3.1416063e-04   1.3818344e-04   9.5259480e-07   3.4619177e-05  -1.9197456e-04   2.2766400e-04   2.8678641e-04
   8.8741304e-05  -1.3123457e-05  -5.5831933e-05  -4.3084892e-05  -1.2848867e-05  -6.4995751e-05  -9.8238772e-05  -1.1797679e-04   3.4395554e-05  -6.8573601e-05   1.3731123e-04   2.4295625e-05  -5.0834933e-05  -6.6524219e-05  -7.3515017e-05  -1.0511590e-04   1.1517495e-04   5.9415921e-05   3.2954649e-05   1.7866796e-04  -1.4078294e-04  -2.4487892e-05   9.3812458e-05   9.1095615e-05  -1.2327632e-05  -6.8456461e-06  -1.6275652e-04  -2.7799049e-05  -1.4488197e-04   1.2993149e-04  -3.5528719e-04  -7.8687597e-05  -7.0421993e-05   7.1936927e-04  -1.7478090e-04  -2.8134633e-05  -1.2285309e-04  -1.3343713e-05  -4.1612153e-04  -3.8235201e-04  -4.3503929e-05  -4.2017360e-05  -1.7737786e-04  -2.4348030e-04   1.2390758e-04   7.6193428e-05   1.8187471e-04  -1.3071886e-04   3.7600321e-04   2.7688147e-04
   9.3515970e-05  -1.6782369e-05  -5.3897784e-05  -3.2615597e-05  -1.0177012e-05  -4.8747774e-05  -7.9028388e-05  -1.1616432e-04   8.1045124e-05  -5.6287561e-05   1.4849502e-04   2.2673668e-05  -4.7291716e-05  -6.2084313e-05  -6.5927044e-05  -9.1837115e-05   1.2666536e-04   7.3137671e-05   5.1775594e-05   1.9384529e-04  -1.0430264e-04  -1.0156855e-05   1.0569597e-04   1.0331416e-04  -1.4190641e-06   1.8613604e-05  -1.3425821e-04  -1.9764368e-05  -1.3760335e-04   1.3642458e-04  -3.4270712e-04  -7.6068005e-05  -8.8025423e-05   7.2119717e-04  -1.6968623e-04  -5.2205025e-05  -1.3566844e-04  -2.1080530e-05  -4.3263461e-04  -3.8642902e-04  -3.3139881e-05  -4.3098269e-05  -1.7702633e-04  -2.0553089e-04   1.6493864e-04   4.3580760e-05   1.0467368e-04  -1.7364546e-04   3.7769089e-04   2.2225619e-04
   1.0084423e-04  -1.4255466e-05  -5.4014097e-05  -3.3128286e-05  -1.9883781e-05  -5.5296907e-05  -8.3795174e-05  -1.2129393e-04   7.1855808e-05  -3.4992547e-05   1.6995252e-04   2.8211796e-05  -4.4002085e-05  -6.8005851e-05  -6.2424420e-05  -9.6378186e-05   1.3588325e-04   6.7345449e-05   6.6266264e-05   1.9143394e-04  -7.5366297e-05  -8.6751388e-06   1.0005965e-04   9.5973082e-05  -2.1398972e-05   9.4853413e-06  -1.5708459e-04  -4.1215706e-05  -1.3702361e-04   1.1161412e-04  -3.4987670e-04  -8.8154469e-05  -5.8434245e-05   7.3619804e-04  -1.9049583e-04  -4.3639382e-05  -1.4832000e-04  -7.8670146e-06  -5.0517294e-04  -3.7865402e-04  -4.9757291e-05  -2.9581135e-05  -1.9984235e-04  -2.8348115e-04   1.2833743e-04   4.7232254e-05   1.2859149e-04  -1.5607529e-04   1.6900912e-04   2.9360177e-04
   9.2637216e-05   3.6957015e-05  -5.8740869e-05  -3.3019154e-05  -1.4878719e-05  -5.5170432e-05  -7.8661615e-05  -1.2553355e-04   9.5161486e-05  -2.4402898e-05   1.5921656e-04   1.7361890e-05  -5.0784070e-05  -6.6138884e-05  -6.7713037e-05  -9.5938871e-05   1.3070423e-04   6.9972026e-05   7.5650292e-05   1.9386318e-04  -9.2094204e-05  -7.9465608e-06   1.0221488e-04   9.9418678e-05  -7.5924208e-06  -1.6904725e-06  -1.4937224e-04  -2.8251490e-05  -1.2034442e-04   1.2714771e-04  -3.5666217e-04  -9.3074283e-05  -6.9519032e-05   7.4470241e-04  -1.8229531e-04  -2.3882709e-05  -1.4629222e-04  -5.3145382e-06  -3.8316677e-04  -3.7862346e-04  -1.2408443e-05  -4.8213624e-06  -1.9571981e-04  -3.0547215e-04   1.9770899e-04   4.9123522e-05   2.1182017e-04  -2.1118265e-04   1.8005673e-04   2.7307079e-04
   9.8375531e-05  -2.9434705e-05  -5.3102751e-05  -1.2805488e-05  -7.5989783e-06  -4.6446978e-05  -5.8572281e-05  -1.1716367e-04   1.2300603e-04  -1.9927704e-05   1.5075952e-04   7.2143744e-06  -4.3122425e-05  -7.0422022e-05  -5.7843408e-05  -8.9339999e-05   1.3186671e-04   7.6810938e-05   1.0168814e-04   1.9658296e-04  -1.3825060e-04  -8.6386274e-07   1.1304455e-04   1.1603907e-04  -2.6224302e-06   1.1883289e-05  -1.3027145e-04  -2.0892810e-05  -1.0170197e-04   1.3233052e-04  -3.4728344e-04  -7.3543466e-05  -5.9538808e-05   7.5033988e-04  -1.5411137e-04  -1.0082326e-06  -9.9966492e-05  -5.6667673e-06  -2.7957678e-04  -3.7782954e-04  -3.6722136e-05  -1.0281857e-05  -1.9611907e-04  -2.4682804e-04   1.7780424e-04   4.4359324e-05   1.8727197e-04  -1.2574211e-04   1.4007947e-04   3.0265708e-04
   1.2974947e-04  -5.0776807e-06  -5.4735017e-05  -1.1224616e-05  -1.7285480e-05  -4.5516641e-05  -6.7394249e-05  -1.2089577e-04   1.2013321e-04   5.3583321e-06   1.6764604e-04   2.0066504e-05  -5.2521707e-05  -7.4630516e-05  -6.0613187e-05  -8.9211513e-05   1.3971438e-04   7.9947022e-05   9.7709461e-05   1.9396820e-04  -7.9935278e-05   1.9894538e-05   1.0881359e-04   1.3012196e-04   1.1877376e-05   2.1380110e-05  -1.4358926e-04  -4.3083968e-05  -9.3014030e-05   1.1114249e-04  -3.5713540e-04  -7.8020959e-05  -6.2800143e-05   7.3545298e-04  -1.8537114e-04  -2.1695849e-05  -1.5067778e-04  -1.5162419e-06  -4.4690975e-04  -3.7477049e-04  -3.3263623e-05  -3.9417624e-05  -2.0315636e-04  -1.7040994e-04   1.3713767e-04   3.1812142e-05   1.3471584e-04  -1.5962264e-04   9.4068382e-05   2.6188241e-04
   1.2063538e-04   1.6873868e-05  -5.6085719e-05  -1.8516725e-05  -1.8798273e-05  -5.0508959e-05  -5.4244796e-05  -1.1595608e-04   1.2969710e-04   4.8431207e-06   1.4120726e-04   5.6436920e-06  -5.4354983e-05  -7.8221332e-05  -8.0482299e-05  -1.0159587e-04   1.3001791e-04   7.2270646e-05   9.1646943e-05   1.8811518e-04  -1.3654030e-04   9.0076710e-06   9.3383067e-05   1.0963971e-04  -7.1655445e-06   1.4382465e-05  -1.3875126e-04  -4.5725228e-05  -8.0235215e-05   1.1733850e-04  -3.6481227e-04  -7.7111130e-05  -6.1060840e-05   7.2023825e-04  -1.7646421e-04  -3.5752306e-05  -1.4234311e-04  -7.9118545e-06  -4.2166602e-04  -3.6618192e-04  -4.1554002e-05   2.1769822e-06  -2.1334206e-04  -2.4198547e-04   1.6002727e-04   3.0783598e-05   1.6649370e-04  -1.4273620e-04   1.6785783e-04   2.5531751e-04
   9.8838660e-05  -2.0036543e-05  -5.8624613e-05  -1.2193693e-05  -1.0138205e-05  -3.2392189e-05  -4.5593515e-05  -1.1625162e-04   1.0732053e-04   1.0857327e-05   1.3295928e-04  -3.2860205e-06  -5.3487471e-05  -6.7618952e-05  -5.5641762e-05  -8.7326822e-05   1.2673154e-04   7.6645774e-05   1.0607261e-04   1.8571183e-04  -7.9995203e-05   9.3980470e-06   9.4734081e-05   1.1431392e-04  -3.0111387e-06   4.6968780e-06  -1.4152273e-04  -2.6046135e-05  -5.7524529e-05   1.3464846e-04  -3.5371515e-04  -7.2339833e-05  -5.1165607e-05   7.5009710e-04  -1.6163335e-04   1.0872728e-05  -1.0035262e-04   2.8029035e-06  -2.6305750e-04  -3.5715505e-04  -3.8828890e-05  -2.5466865e-05  -2.0857266e-04  -2.2397918e-04   1.7177044e-04   5.8213700e-05   1.8059400e-04  -1.6872989e-04   2.0459434e-04   2.2308166e-04
   1.2288611e-04   3.9400838e-05  -5.4434135e-05  -5.2143400e-07  -1.4874850e-05  -2.6770425e-05  -3.8206988e-05  -1.2040092e-04   1.5640720e-04   3.0153871e-05   1.4762346e-04   8.5163711e-06  -4.6080531e-05  -9.0439418e-05  -4.8766400e-05  -8.3258856e-05   1.3510561e-04   8.4620042e-05   1.0560808e-04   1.8892466e-04  -1.0987589e-04   3.2154730e-05   8.7736225e-05   1.1943862e-04   5.4737238e-06   2.0278663e-05  -1.4211844e-04  -3.6775655e-05  -7.9474266e-05   1.1510829e-04  -3.6050938e-04  -8.6905624e-05  -7.0558461e-05   7.4283266e-04  -1.7696407e-04   1.5939639e-06  -1.7189776e-04  -4.3663977e-06  -4.1332829e-04  -3.6703341e-04  -2.3472989e-05   8.7318585e-06  -2.1038033e-04  -2.2407001e-04   1.5766147e-04  -3.0429204e-05   1.3520065e-04  -1.8127098e-04   2.7534165e-04   2.5629377e-04
   1.0983877e-04  -1.1190055e-05  -7.0026297e-05  -4.5306597e-06  -1.8116320e-05  -3.1996849e-05  -4.4672157e-05  -1.2403498e-04   1.1851535e-04   2.9470033e-05   1.2025223e-04  -6.8350264e-06  -5.9311289e-05  -9.2376504e-05  -6.8296897e-05  -8.8550194e-05   1.2964898e-04   8.1381047e-05   8.3507533e-05   1.7863500e-04  -1.5193321e-04   2.6301912e-05   6.9840673e-05   1.0161905e-04  -2.3144351e-06   1.6325928e-05  -1.4574673e-04  -3.5249483e-05  -1.0061220e-04   1.1364715e-04  -3.6929201e-04  -8.7260902e-05  -6.2489511e-05   7.5491314e-04  -1.8711580e-04  -3.5404359e-05  -1.6101758e-04   2.1876878e-07  -4.5530018e-04  -3.6176143e-04  -3.6067569e-05  -1.6679454e-05  -2.1001563e-04  -2.5699785e-04   1.0436167e-04  -1.2841014e-06   1.6199065e-04  -1.4911540e-04   1.4367595e-04   2.5615154e-04
   1.0354429e-04   2.3650009e-05  -7.5433360e-05  -4.8476113e-06  -1.1232344e-05  -2.9705579e-05  -3.5830501e-05  -1.1816401e-04   1.3947110e-04   1.9048011e-05   9.9004217e-05  -1.9484483e-05  -6.4413463e-05  -8.2319690e-05  -6.0512550e-05  -9.0776957e-05   1.2191726e-04   7.3239433e-05   7.9879588e-05   1.7202724e-04  -1.1276411e-04   1.5356394e-05   6.9961723e-05   8.5485619e-05  -4.0077230e-06  -3.6749582e-06  -1.2347782e-04  -2.3576356e-05  -5.4148983e-05   1.3297146e-04  -3.6454704e-04  -7.9676349e-05  -7.2347459e-05   7.5430074e-04  -1.5635822e-04   1.0770364e-04   2.2169614e-05   8.1399667e-06  -3.1264932e-04  -3.4382608e-04  -3.7794620e-05  -1.5668311e-05  -2.1237895e-04  -2.5457135e-04   6.0748756e-05   2.4581428e-05   1.8228283e-04  -1.8373187e-04   1.6930095e-04   2.7324274e-04
   1.0135450e-04   9.9377385e-06  -6.5689674e-05  -6.7764535e-07  -1.3007262e-05  -2.9049681e-05  -2.9054027e-05  -1.1915588e-04   1.3071456e-04   2.8167980e-05   1.1736783e-04  -1.4227056e-05  -5.9329388e-05  -6.7534522e-05  -5.0468319e-05  -7.7901474e-05   1.2488087e-04   7.8582889e-05   7.8927078e-05   1.8102470e-04  -8.9357061e-05   3.0808846e-05   5.9910763e-05   1.1331920e-04   7.4636368e-06   2.1934567e-05  -1.2650403e-04  -1.7525725e-05  -7.4513868e-05   1.2594587e-04  -3.6267229e-04  -9.1341288e-05  -6.9459522e-05   7.5043523e-04  -1.6365552e-04  -1.3435904e-05  -1.5384253e-04  -4.6617506e-06  -4.3298653e-04  -3.6048034e-04  -4.0299987e-05  -2.1640537e-05  -2.1390352e-04  -2.4626200e-04   1.4219484e-04  -4.3485245e-05   1.6917980e-04  -1.4545878e-04   8.3380415e-05   2.0176225e-04
   9.9219636e-05   7.2400189e-07  -7.2768744e-05  -1.0357885e-05  -2.0471642e-05  -3.4530749e-05  -3.6411286e-05  -1.2467634e-04   1.0062124e-04   2.2698034e-05   9.8404053e-05  -2.0714680e-05  -6.1091450e-05  -8.5690823e-05  -7.1482224e-05  -9.7729819e-05   1.1321890e-04   6.7016736e-05   7.6402976e-05   1.6387278e-04  -1.3376772e-04   2.3362503e-05   4.1857278e-05   8.2902734e-05   3.3820113e-06   9.5381829e-06  -1.4175192e-04  -2.9914661e-05  -9.0510628e-05   1.0339842e-04  -3.7858298e-04  -9.4474875e-05  -1.0254343e-04   7.3346501e-04  -1.9529594e-04   4.8985089e-06  -1.9304593e-04  -4.1200485e-07  -5.1543879e-04  -3.5706477e-04  -4.2164327e-05  -2.7832139e-05  -2.2241911e-04  -2.3398166e-04   9.1173140e-05  -3.3635300e-05   1.8084660e-04  -2.0693912e-04   1.8184888e-04   2.2907057e-04
   9.5520067e-05   2.8055376e-05  -7.6075004e-05  -1.6928736e-05  -1.3885092e-05  -4.1496623e-05  -3.8600912e-05  -1.0656576e-04   8.3071180e-05   8.4852627e-06   7.6622106e-05  -3.0706204e-05  -7.0072027e-05  -8.8016284e-05  -7.7421733e-05  -9.1797912e-05   1.0788208e-04   6.3162413e-05   4.9542843e-05   1.5973362e-04  -1.0353773e-04   1.9087174e-05   4.0651688e-05   6.3502652e-05  -2.2909282e-05   2.6757762e-06  -1.2778712e-04  -3.9169685e-05  -8.4444990e-05   1.2370393e-04  -3.7780980e-04  -1.1107189e-04  -9.0470385e-05   7.1359018e-04  -1.8377589e-04  -3.5566823e-05  -1.5001043e-04  -5.5023311e-06  -4.0946403e-04  -3.6731528e-04  -1.7835997e-05  -5.1273168e-05  -2.1778089e-04  -2.7187867e-04   7.8396210e-05  -5.8499030e-05   1.6405544e-04  -1.7910547e-04   1.8537667e-04   2.2877476e-04
   1.0358418e-04  -2.1460648e-05  -7.2635885e-05  -1.1919945e-05  -8.2377464e-06  -3.0255709e-05  -3.0645697e-05  -1.0895015e-04   7.2976734e-05  -4.7662393e-06   7.3304218e-05  -3.6140878e-05  -7.1693546e-05  -5.3561776e-05  -5.9154921e-05  -8.5041531e-05   1.0635405e-04   6.4628279e-05   6.3828091e-05   1.5862030e-04  -1.2277675e-04   2.0435429e-05   3.6250320e-05   6.6255045e-05  -1.6917584e-05  -9.2006155e-07  -1.1387633e-04  -1.0331770e-05  -8.2574756e-05   1.3608251e-04  -3.6919484e-04  -1.0223680e-04  -1.0502031e-04   7.3537847e-04  -1.7562105e-04  -2.2099086e-05  -1.2744986e-04   1.3095128e-05  -4.0104918e-04  -3.5203312e-04  -3.6898735e-05  -5.2494248e-05  -1.9638347e-04  -2.2926221e-04   7.6304830e-05  -6.2413477e-05   1.7118880e-04  -1.8758608e-04   1.4795287e-04   2.4921095e-04
   9.7368043e-05   3.6741596e-05  -7.5068696e-05  -2.0617515e-05  -1.7655624e-05  -5.5658486e-05  -4.4921650e-05  -1.1902065e-04   6.1484221e-05   3.4631833e-07   7.4052092e-05  -3.0064246e-05  -7.6290584e-05  -8.2337981e-05  -8.8528766e-05  -9.9256380e-05   1.0751055e-04   5.4866359e-05   5.4685530e-05   1.5836136e-04  -1.1458900e-04   1.7914725e-05   2.8963139e-05   5.1131243e-05  -3.5024936e-05   1.2353386e-05  -1.5542143e-04  -2.8048335e-05  -8.9060057e-05   1.0265469e-04  -3.8363997e-04  -1.0726901e-04  -9.8500721e-05   7.1972259e-04  -2.1235083e-04  -4.0965635e-05  -2.0847128e-04  -1.8578261e-07  -5.4354162e-04  -3.8431084e-04  -3.9542916e-05  -6.8569854e-05  -2.0643714e-04  -2.8020723e-04   1.3017585e-04  -5.9389597e-05   1.6795217e-04  -2.3118431e-04   1.6755557e-04   1.6803551e-04
   6.9838643e-05  -2.2890250e-05  -7.8358673e-05  -3.4554083e-05  -1.7199449e-05  -4.8639315e-05  -4.0292911e-05  -1.0066239e-04   2.4857105e-05  -2.4040472e-05   5.2716623e-05  -4.4300559e-05  -8.3365732e-05  -8.2673461e-05  -9.5046023e-05  -9.7395241e-05   9.0112466e-05   4.4126766e-05   3.4089782e-05   1.5570043e-04  -1.1754141e-04   3.6715182e-06   1.8195082e-05   4.5929417e-05  -5.3781434e-05   1.0531380e-06  -1.5035356e-04  -3.6927704e-05  -1.0945128e-04   1.1901266e-04  -3.8580652e-04  -1.1648920e-04  -1.0347361e-04   6.8544119e-04  -2.1471818e-04  -3.6663925e-05  -1.5854501e-04  -1.5429896e-05  -4.8623374e-04  -3.7855763e-04  -2.5214826e-05  -1.1132951e-04  -2.2465158e-04  -2.5967546e-04   5.7272675e-05   3.0478666e-05   9.3351366e-05  -2.1200761e-04   2.7586770e-04   2.2334426e-04
   4.0068564e-05   7.4509630e-06  -7.3457093e-05  -4.4351651e-05  -1.2085677e-05  -4.6862944e-05  -3.5074358e-05  -1.0656547e-04   3.2344735e-05  -3.2315449e-05   4.1413499e-05  -4.5641733e-05  -7.7048266e-05  -8.1332124e-05  -1.0797679e-04  -8.9223504e-05   8.2623432e-05   3.7439120e-05   4.5672892e-05   1.6512132e-04  -1.1681503e-04  -2.4624726e-06   2.5247293e-05   2.7935996e-05  -6.1684841e-05  -2.1673757e-06  -1.3948075e-04  -1.2109498e-05  -1.1239035e-04   1.2975799e-04  -3.7858859e-04  -1.0392470e-04  -1.2450962e-04   7.0396042e-04  -1.9031891e-04  -2.9330367e-05  -1.1950475e-04  -2.8574543e-05  -3.7257775e-04  -3.9037198e-04  -4.1914420e-05  -1.1750107e-04  -1.9499651e-04  -3.4443237e-04   1.0559407e-04  -5.1546831e-06   9.4839685e-05  -1.8409484e-04   1.8368398e-04   2.1835121e-04
   5.0845483e-05   5.8091241e-06  -6.3831663e-05  -5.4154407e-05  -2.2729899e-05  -5.5179917e-05  -5.2553922e-05  -9.9955738e-05   1.7464748e-05  -3.0292476e-05   5.1025974e-05  -3.0766565e-05  -8.5754618e-05  -8.3529689e-05  -1.2356535e-04  -9.1017515e-05   8.5073858e-05   3.8368406e-05   3.6905389e-05   1.7044798e-04  -7.1177259e-05   3.9115102e-06   2.3012279e-05   2.9607798e-05  -4.4730699e-05   2.5087520e-05  -1.4883047e-04  -3.0931475e-05  -1.2903661e-04   1.0614983e-04  -3.8729832e-04  -1.2229399e-04  -8.7279543e-05   6.5364898e-04  -2.3060481e-04  -3.4792629e-05  -1.7408439e-04  -2.7418559e-05  -5.1737920e-04  -4.0066434e-04  -4.0205039e-05  -1.1312497e-04  -1.9902093e-04  -3.2591211e-04   1.0022404e-04   2.7246588e-05   7.2784489e-05  -1.5948205e-04   8.0566773e-05   2.2863284e-04
   2.6623051e-05  -2.5367033e-05  -7.1527356e-05  -6.3127525e-05  -2.1577434e-05  -7.3873911e-05  -5.2145202e-05  -8.9186906e-05  -3.1918542e-05  -4.6987392e-05   3.4136330e-05  -3.8848459e-05  -8.4292777e-05  -9.2690781e-05  -1.3944105e-04  -9.3901144e-05   8.1529412e-05   3.1985317e-05   3.2745396e-05   1.7221690e-04  -1.0930897e-04  -2.2064196e-08   2.1296684e-05   2.4713016e-05  -7.1794209e-05   8.1453309e-06  -1.6335023e-04  -3.0385630e-05  -1.7563881e-04   1.1662913e-04  -3.8327900e-04  -1.1927047e-04  -1.1209997e-04   6.3967460e-04  -2.3366962e-04  -3.6658461e-05  -1.6463381e-04  -2.9682245e-05  -4.7592595e-04  -3.7406987e-04  -4.2245978e-05  -1.3710857e-04  -1.9063352e-04  -3.3467304e-04   1.3385263e-04   1.9063051e-05   9.3204391e-05  -1.5275335e-04   1.1379920e-04   2.4864750e-04
   1.1639809e-05  -4.7896356e-05  -7.5717551e-05  -6.5250941e-05  -1.5357660e-05  -6.9561087e-05  -5.4181568e-05  -8.7274602e-05  -3.2428929e-05  -6.1526916e-05   2.5508387e-05  -4.0300274e-05  -8.3869003e-05  -8.3694198e-05  -1.3447914e-04  -8.2153463e-05   8.1435050e-05   2.9892850e-05   4.6078938e-05   1.7686364e-04  -1.2100001e-04  -1.0247762e-05   2.7382339e-05   1.5333026e-05  -6.7107212e-05  -1.5675280e-07  -1.4025075e-04  -1.8297016e-05  -1.2863995e-04   1.3141772e-04  -3.7221183e-04  -1.1959652e-04  -8.0891776e-05   6.6896743e-04  -2.0304981e-04  -4.9368438e-05  -1.1253026e-04  -2.7376751e-05  -3.6037492e-04  -3.7977574e-04  -3.5666406e-05  -1.1568372e-04  -1.7630291e-04  -3.1019220e-04   8.6884334e-05   5.8568468e-05   3.2092332e-05  -2.1040971e-04   1.6211311e-04   1.9829636e-04
   1.4174261e-05  -2.3837141e-05  -6.7723849e-05  -6.7174245e-05  -2.6031375e-05  -7.5946649e-05  -5.6999408e-05  -8.2687031e-05  -3.7294260e-05  -5.4148441e-05   4.3860116e-05  -1.9123017e-05  -8.7374225e-05  -9.1774331e-05  -1.3372292e-04  -8.4160223e-05   8.2057704e-05   2.5424044e-05   2.7909957e-05   1.8410178e-04  -8.5023523e-05  -5.8416517e-06   2.2440159e-05   1.7181648e-05  -7.4642710e-05   1.6767573e-05  -1.5693897e-04  -3.6641639e-05  -1.7616199e-04   1.1157896e-04  -3.7667176e-04  -1.2189701e-04  -1.1287376e-04   6.6354597e-04  -2.2880847e-04  -6.0314531e-05  -1.5922062e-04  -2.6203330e-05  -5.0160108e-04  -4.1078730e-04  -4.9943352e-05  -1.2773588e-04  -1.7926958e-04  -3.2556936e-04   1.1652206e-04   4.9763232e-05   1.3955403e-05  -1.9204860e-04   2.3377228e-04   1.8865998e-04
  -1.4971907e-05  -3.8970848e-05  -6.9572197e-05  -7.5351731e-05  -2.6599724e-05  -8.0226004e-05  -7.0892849e-05  -9.9247052e-05  -6.2701336e-05  -7.1050337e-05   1.9290830e-05  -2.4820267e-05  -9.5473748e-05  -8.5229731e-05  -1.5759826e-04  -8.2549363e-05   7.7880024e-05   2.8685508e-05   2.9706951e-05   1.8192816e-04  -1.1613096e-04  -3.6837516e-06   2.4400391e-05   6.4870014e-06  -7.7869401e-05   2.2565535e-05  -1.4923835e-04  -2.6186175e-05  -1.5263144e-04   1.1228822e-04  -3.7403047e-04  -1.2506574e-04  -1.2573074e-04   6.4078480e-04  -2.3477149e-04  -5.9014867e-05  -1.5680293e-04  -2.2800365e-05  -4.3855541e-04  -4.0052872e-04  -2.7071028e-05  -1.5523836e-04  -1.8898852e-04  -2.4675089e-04   1.4728495e-04   4.8630580e-05   3.2637017e-05  -2.0799309e-04   1.9115707e-04   2.5030319e-04
  -5.8647502e-06  -1.1174190e-05  -6.4025873e-05  -6.7787507e-05  -1.8117671e-05  -7.4031632e-05  -5.0817427e-05  -8.8285065e-05  -6.2223597e-05  -8.0049656e-05   1.1915718e-05  -2.4187129e-05  -9.3498275e-05  -8.7671397e-05  -1.5413426e-04  -7.3213247e-05   7.7388890e-05   2.2268647e-05   5.9935293e-05   1.8107142e-04  -9.3382485e-05  -4.1687131e-06   1.5230795e-05   1.5398140e-05  -6.5774890e-05   1.9145376e-05  -1.2138819e-04  -1.9890334e-05  -1.3436640e-04   1.2911242e-04  -3.6650235e-04  -1.0647729e-04  -7.3849318e-05   6.5433263e-04  -2.0380989e-04  -6.6881788e-05  -1.0861582e-04  -3.0639902e-05  -3.2091205e-04  -3.7421781e-04  -5.1430365e-05  -1.5876097e-04  -2.0236999e-04  -3.3109399e-04   1.3886401e-04   2.1868438e-05   4.8653874e-05  -2.1494174e-04   5.2444255e-05   2.5661173e-04
   4.8916149e-06  -4.4535209e-05  -5.9271406e-05  -6.9787937e-05  -2.9292505e-05  -7.3409945e-05  -5.8442372e-05  -9.2613431e-05  -3.6533158e-05  -7.1518763e-05   3.2323307e-05  -3.3585177e-06  -8.7559471e-05  -8.1634782e-05  -1.5139331e-04  -6.9565438e-05   8.8650479e-05   3.0150861e-05   5.4178268e-05   1.9150773e-04  -1.2242371e-04   4.7251688e-06   9.0135545e-06   2.1832593e-05  -8.1407059e-05   2.6342426e-05  -1.5108846e-04  -3.4020031e-05  -1.7355460e-04   1.0490334e-04  -3.7312586e-04  -1.2200748e-04  -8.2590486e-05   6.6633930e-04  -2.2973459e-04  -6.7446061e-05  -1.5084802e-04  -3.9869898e-05  -4.6445720e-04  -4.0380273e-04  -3.7483685e-05  -1.6377683e-04  -1.8268911e-04  -3.6974010e-04   1.0137004e-04   8.0630482e-05   2.3962610e-05  -1.7347932e-04   1.7152060e-04   2.3462191e-04
  -1.2903496e-05  -6.8190689e-05  -6.9408379e-05  -6.8800764e-05  -3.1808828e-05  -8.5510874e-05  -6.3575550e-05  -1.0325886e-04  -9.8731318e-05  -8.5917578e-05   1.4234833e-05  -1.1280643e-05  -9.8107950e-05  -9.2058348e-05  -1.5103741e-04  -7.3690528e-05   8.4321044e-05   3.1849668e-05   3.3432927e-05   1.8264387e-04  -8.7269334e-05   7.9487618e-06   6.2921495e-06   1.1751536e-05  -8.7503358e-05   1.0851839e-05  -1.6104715e-04  -3.0283014e-05  -1.2030615e-04   1.1289067e-04  -3.6997275e-04  -1.1953983e-04  -7.0213020e-05   6.4074009e-04  -2.1785130e-04  -5.2583113e-05  -1.4675672e-04  -3.4546116e-05  -4.1417335e-04  -3.9817960e-04  -1.6112654e-05  -1.6615045e-04  -1.9004630e-04  -3.7599856e-04   1.1866958e-04   7.2186340e-05  -1.1110405e-05  -2.0711255e-04   1.5336083e-04   2.0825400e-04
  -1.6259944e-05  -3.3205670e-05  -7.0431211e-05  -6.3282416e-05  -2.5089214e-05  -8.7240609e-05  -5.0736620e-05  -1.0709000e-04  -9.8259996e-05  -9.6688564e-05   1.1430872e-05  -8.3569685e-06  -9.7072509e-05  -7.5856420e-05  -1.4347571e-04  -6.7614208e-05   8.9945068e-05   3.4063909e-05   3.3752465e-05   1.7485519e-04  -1.0806577e-04   1.7365332e-05   1.0286298e-05   7.6657707e-06  -6.7431662e-05   9.4200614e-06  -1.2038540e-04  -1.1058245e-05  -1.1599482e-04   1.2962204e-04  -3.6797262e-04  -1.1459063e-04  -7.8823628e-05   6.4921979e-04  -1.9539226e-04  -6.3711799e-05  -6.9070273e-05  -2.1034071e-05  -2.6045018e-04  -3.6809122e-04  -3.5189241e-05  -1.6304015e-04  -1.9013247e-04  -3.6876259e-04   8.5200591e-05   4.2762549e-05  -1.7933886e-05  -2.0856671e-04   2.5098395e-04   1.4845846e-04
   1.7472070e-05  -1.3593510e-05  -5.2804684e-05  -4.5026030e-05  -2.1863785e-05  -8.3500934e-05  -2.7114525e-05  -9.7725155e-05  -5.7236812e-05  -7.3976757e-05   3.2737822e-05   5.8307219e-06  -9.3980925e-05  -7.4211152e-05  -1.2493799e-04  -5.8232887e-05   9.3936280e-05   4.0168616e-05   5.6846475e-05   1.7666754e-04  -1.0107367e-04   3.9841954e-05   6.3378538e-06   1.2241306e-05  -6.1318540e-05   3.3436092e-05  -1.2028802e-04  -2.8973343e-05  -1.1901903e-04   1.0246201e-04  -3.6762081e-04  -1.1521247e-04  -5.0343395e-05   6.6162122e-04  -2.1014173e-04  -3.2361466e-05  -1.2750560e-04  -2.0889271e-05  -4.1570506e-04  -3.8977107e-04  -4.5649449e-05  -1.8122878e-04  -1.8150754e-04  -3.1800469e-04   1.6024627e-04   6.6153734e-05   2.8841638e-05  -1.7518304e-04   1.8101175e-04   2.1429699e-04
   1.0758667e-05  -1.3489169e-05  -5.6842262e-05  -4.6019260e-05  -2.4375608e-05  -9.1121685e-05  -4.4302578e-05  -9.9531499e-05  -8.7349908e-05  -8.3634484e-05   1.7116403e-05  -2.8609848e-06  -1.0017584e-04  -9.0201196e-05  -1.4009450e-04  -6.6739769e-05   8.5958563e-05   3.2941989e-05   6.3504558e-05   1.6832707e-04  -1.0595753e-04   3.4620272e-05   6.3800612e-06  -7.7540972e-07  -5.6542762e-05   2.1573342e-05  -1.3114332e-04  -3.1034302e-05  -1.2231010e-04   9.8724595e-05  -3.7189940e-04  -1.1637643e-04  -6.5158209e-05   6.5598672e-04  -2.1635136e-04  -3.4851073e-05  -1.4404482e-04  -2.3331761e-05  -3.8097668e-04  -3.8918594e-04  -3.3656066e-05  -1.3946487e-04  -1.9627283e-04  -3.4102838e-04   1.6279127e-04   6.1743252e-05   3.3221339e-05  -1.8167881e-04   1.6379914e-04   2.0248133e-04
  -6.5982758e-06  -5.5175384e-05  -5.6942830e-05  -5.0627288e-05  -1.9514198e-05  -8.3668790e-05  -4.1974843e-05  -9.8515302e-05  -9.8378121e-05  -9.4580530e-05   3.1317518e-06  -1.0734239e-05  -9.9325080e-05  -8.3035025e-05  -1.5383081e-04  -6.4071966e-05   8.4681451e-05   2.8195611e-05   3.2069220e-05   1.6442843e-04  -8.9566231e-05   3.0730225e-05   1.1706323e-05   1.0889818e-05  -6.7660018e-05   6.4686333e-06  -1.2209002e-04  -1.6192849e-05  -9.8855053e-05   1.1967766e-04  -3.6847027e-04  -1.1435236e-04  -6.2398351e-05   6.7029143e-04  -2.0123554e-04  -6.7903488e-06  -9.6391792e-05  -1.5646341e-05  -2.6898205e-04  -3.6554784e-04  -2.8062566e-05  -1.2209588e-04  -1.9969878e-04  -3.0606976e-04   1.6424511e-04   8.9537942e-05   3.6749445e-06  -1.5855224e-04   4.6464138e-05   2.2086396e-04
  -4.5919223e-06  -4.4537461e-05  -5.2235027e-05  -3.8524606e-05  -1.0104916e-05  -7.5030985e-05  -2.3471506e-05  -8.2079860e-05  -8.7398977e-05  -9.2382033e-05   1.2757389e-05  -1.4719289e-05  -9.6615659e-05  -9.0597488e-05  -1.3701963e-04  -5.0949569e-05   8.1428530e-05   3.5810375e-05   5.7043606e-05   1.6496998e-04  -1.5427561e-04   4.1889489e-05   7.0167471e-06   1.4692724e-05  -5.9767248e-05   2.0217210e-05  -1.0562782e-04   1.5737839e-06  -5.6098601e-05   1.3301134e-04  -3.6766721e-04  -8.8553468e-05  -5.9057969e-05   6.9719413e-04  -1.7160125e-04   5.0192211e-06  -3.8036280e-05   6.9443223e-07  -1.1642154e-04  -3.4802803e-04  -2.7617511e-05  -1.2833979e-04  -2.0647720e-04  -3.0614383e-04   1.7264251e-04   1.1021941e-04   2.5058540e-05  -2.2273729e-04   1.5420125e-04   2.7146452e-04
   4.3088339e-06  -1.0402191e-05  -4.3887529e-05  -2.1948126e-05   5.9033295e-07  -6.7665125e-05  -4.7238705e-06  -6.9189628e-05  -5.4927841e-05  -7.9177451e-05   2.3699629e-05  -1.3998209e-05  -7.8482793e-05  -7.0560098e-05  -1.3290002e-04  -3.9710339e-05   9.5164192e-05   4.2264863e-05   7.6164084e-05   1.6685860e-04  -1.0822812e-04   5.8417721e-05   2.2117434e-05   4.2104333e-05  -3.9958089e-05   4.3080930e-05  -9.7004864e-05   2.1307371e-06  -4.5598284e-05   1.3865228e-04  -3.5835549e-04  -9.2016868e-05  -4.5530487e-05   7.0857920e-04  -1.4509408e-04   9.5091409e-06  -5.9444654e-05   5.2886185e-06  -1.2418562e-04  -3.3984327e-04   5.2697333e-06  -1.2196002e-04  -1.8275660e-04  -2.4059863e-04   2.2413436e-04   1.0078783e-04  -1.3677077e-05  -1.4632933e-04   1.4801527e-04   2.0778086e-04
   2.0418758e-05  -6.9161438e-06  -3.3799042e-05  -1.6709353e-05  -1.2638828e-05  -6.3365951e-05  -8.2702709e-06  -8.9476234e-05  -3.4722678e-05  -4.6926074e-05   4.2241034e-05   1.8741098e-06  -8.2874714e-05  -7.6487246e-05  -1.3398529e-04  -5.6800578e-05   1.0535560e-04   4.6802692e-05   7.4163829e-05   1.6233847e-04  -7.9103869e-05   7.3214942e-05   2.4760977e-05   5.3786935e-05  -3.8830040e-05   4.7865771e-05  -1.2074885e-04  -2.6581181e-05  -8.4352854e-05   9.9648052e-05  -3.6422521e-04  -9.4374125e-05  -2.7651618e-05   7.4341742e-04  -1.7669649e-04   2.8758112e-05  -1.2025855e-04  -5.1111501e-06  -3.1883546e-04  -3.2369251e-04  -2.0606765e-05  -1.0047548e-04  -1.9245013e-04  -3.4330189e-04   2.2088706e-04   8.9907837e-05   1.3392372e-04  -1.6345037e-04   2.4222322e-04   2.2404968e-04
   3.5645611e-05   3.3910651e-06  -3.9603296e-05  -7.1171098e-06  -6.2660861e-06  -7.8143392e-05  -2.4691300e-05  -8.6055341e-05  -4.2883228e-05  -5.0420906e-05   4.7525122e-05  -6.5613235e-06  -7.7757191e-05  -8.6270178e-05  -1.3792914e-04  -5.1391169e-05   1.0147789e-04   4.9191571e-05   8.8405373e-05   1.5824367e-04  -8.1914033e-05   6.9776681e-05   2.9313764e-05   4.4019242e-05  -2.4805919e-05   3.5869947e-05  -1.2290910e-04  -1.5082120e-05  -5.1557519e-05   1.1370301e-04  -3.5930102e-04  -1.0031303e-04  -1.3164809e-05   7.6063088e-04  -1.7654871e-04  -1.0511958e-06  -1.0104029e-04  -1.6609156e-06  -2.5528966e-04  -3.1652377e-04  -1.3209016e-05  -9.0002330e-05  -1.9900801e-04  -2.3692266e-04   2.0356571e-04   1.0101288e-04   8.3651052e-05  -1.3059149e-04   2.3668481e-04   2.4739781e-04
   3.3333898e-05   4.9795158e-06  -3.2288674e-05   6.6711600e-06  -1.9983063e-06  -5.4779997e-05  -3.5463077e-07  -6.0530081e-05  -4.5413122e-05  -4.6727830e-05   3.8593287e-05  -1.4914466e-05  -7.3694740e-05  -8.0221602e-05  -1.3558906e-04  -4.5512694e-05   1.0375788e-04   5.1875446e-05   9.7793061e-05   1.5793770e-04  -1.1670571e-04   7.4921809e-05   4.3703792e-05   5.8330017e-05  -3.7484988e-05   2.9820692e-05  -1.0230197e-04   4.0232334e-07  -4.5713482e-06   1.3330864e-04  -3.6065027e-04  -8.7988439e-05  -2.8634261e-06   7.6000142e-04  -1.5151582e-04   4.0044575e-05  -5.8879072e-05   1.2997018e-05  -1.1269682e-04  -3.0047298e-04   4.9836799e-06  -1.0453988e-04  -1.9219855e-04  -1.9769682e-04   1.9801632e-04   1.6736523e-04   1.3283116e-04  -1.5996974e-04   2.0179260e-04   2.7283013e-04
   5.7708774e-05   3.1026673e-05  -2.1160266e-05   1.6153514e-05   8.7033595e-06  -3.7638511e-05   1.7030323e-05  -6.4369742e-05  -4.3925425e-07  -3.0360017e-05   5.3751031e-05  -1.0999505e-05  -6.1425708e-05  -6.3179476e-05  -1.0498759e-04  -3.1388870e-05   1.2375475e-04   5.9385180e-05   1.0062813e-04   1.6182699e-04  -7.1324976e-05   9.1427981e-05   4.5482560e-05   9.3194416e-05  -2.8508164e-06   3.8898143e-05  -9.9326877e-05   4.5656839e-06  -1.8614599e-05   1.3012765e-04  -3.5215280e-04  -7.4578616e-05   8.0253985e-06   7.9520093e-04  -1.3656019e-04   7.6444958e-05  -5.9763825e-05   2.3113822e-05  -1.8446677e-04  -2.7256054e-04   2.8352340e-05  -6.7012064e-05  -1.6772738e-04  -1.6665553e-04   2.4360542e-04   1.2140610e-04   1.4492244e-04  -1.3222026e-04   1.4784279e-04   2.1506433e-04
   5.6027344e-05  -8.5146849e-06  -1.2627876e-05   1.8828800e-05  -3.0210483e-06  -4.8077538e-05   1.5718253e-05  -6.6918197e-05   4.1228282e-06  -9.6749600e-06   7.0833376e-05  -2.6771290e-06  -5.2170704e-05  -8.5465341e-05  -1.1098576e-04  -4.4005912e-05   1.2040115e-04   5.7525973e-05   1.1091743e-04   1.6043786e-04  -7.1772658e-05   9.2596551e-05   5.4730084e-05   8.5334541e-05   8.4579160e-06   6.5006861e-05  -1.3687530e-04  -2.4388504e-05  -2.1708433e-05   9.2592018e-05  -3.6405091e-04  -7.8267010e-05   8.4760022e-06   7.9659245e-04  -1.7431650e-04   6.0446986e-05  -1.5797772e-04   3.7559585e-05  -3.6556969e-04  -2.6636288e-04   3.6282036e-05  -7.9108657e-05  -1.7430878e-04  -1.2454648e-04   2.6281152e-04   1.4202637e-04   7.8837700e-05  -1.3001746e-04   2.3690338e-04   2.6760381e-04
   5.1180155e-05   2.1962809e-05  -1.1006407e-05   9.8434448e-06  -3.8104704e-06  -4.0155235e-05   5.8473502e-06  -7.9598525e-05   8.7026847e-06  -1.8748629e-05   6.6404347e-05  -1.7890512e-05  -5.3187778e-05  -9.6078511e-05  -1.2122287e-04  -4.4643435e-05   1.2181920e-04   5.3025822e-05   1.0858426e-04   1.5709364e-04  -7.8562480e-05   8.1856269e-05   5.0919069e-05   8.4159641e-05  -2.2758927e-06   5.1977328e-05  -1.4087660e-04  -2.4846764e-05  -6.1105347e-05   1.0403151e-04  -3.6911078e-04  -9.0252004e-05  -2.0190968e-05   7.8864774e-04  -1.8075356e-04   7.7099561e-05  -1.2922255e-04   3.1848660e-05  -3.3837595e-04  -2.6114949e-04   3.6748992e-05  -8.3232240e-05  -1.7397609e-04  -1.5993795e-04   2.5340368e-04   1.4349751e-04   5.5905479e-05  -9.0785405e-05   2.0817739e-04   2.6732381e-04
   7.4673415e-05   7.0290826e-06  -1.2054547e-05   2.2892153e-05   7.3365804e-06  -3.3736014e-05   3.4966131e-05  -4.7118985e-05   1.4722140e-05  -2.2383318e-05   6.6883724e-05  -2.7465763e-05  -4.8216200e-05  -8.0883896e-05  -1.1237375e-04  -3.6828129e-05   1.1999619e-04   5.8246460e-05   1.2054497e-04   1.4900498e-04  -6.3499334e-05   8.7201748e-05   5.6500030e-05   6.9804344e-05   1.3316438e-05   4.8297228e-05  -1.1956537e-04  -1.4145634e-05  -2.3848052e-05   1.1791311e-04  -3.7072686e-04  -8.5613996e-05  -8.8344214e-06   7.7812589e-04  -1.5924513e-04   8.3086321e-05  -1.0305123e-04   4.0062925e-05  -2.2586432e-04  -2.3152377e-04   2.5925958e-05  -6.8289584e-05  -1.7114385e-04  -1.9904452e-04   2.4100629e-04   1.0961051e-04   1.0429656e-04  -7.0982031e-05   2.8213963e-04   1.9522541e-04
   9.7626027e-05   3.6825797e-05   3.8603157e-06   3.2305164e-05   3.4692478e-06  -1.6859860e-05   3.6971003e-05  -7.1850904e-05   6.3884836e-05  -1.1305955e-05   8.9053246e-05  -1.9152860e-05  -3.8272778e-05  -7.8613411e-05  -1.0833755e-04  -3.7678798e-05   1.2785649e-04   7.2558723e-05   1.1898613e-04   1.5577379e-04  -7.7867764e-05   1.0152222e-04   5.8876401e-05   6.7491572e-05   1.3911741e-05   7.6689146e-05  -1.1896108e-04  -1.9846873e-05  -8.5680967e-06   9.7038268e-05  -3.6979353e-04  -8.8271176e-05  -4.1249397e-05   8.0412807e-04  -1.7901670e-04   8.3265164e-05  -1.9517742e-04   4.6766028e-05  -4.3941240e-04  -2.7188697e-04   4.8652648e-05  -6.5684842e-05  -1.5807488e-04  -1.3559946e-04   2.2368570e-04   1.5559296e-04   1.0165040e-04  -6.0311577e-05   6.3458283e-05   2.5102458e-04
   9.5587020e-05   3.1242209e-05  -1.6291754e-06   2.0217291e-05  -3.2892999e-06  -2.6278836e-05   3.5881014e-05  -5.9672351e-05   6.8416530e-06  -2.4978750e-05   8.0472870e-05  -3.2659995e-05  -5.1984309e-05  -1.0410652e-04  -1.2554952e-04  -6.0446229e-05   1.2117132e-04   6.1369414e-05   9.6744108e-05   1.3945762e-04  -4.6233454e-05   8.7554828e-05   3.7592665e-05   4.0747022e-05   1.2252907e-07   6.4956446e-05  -1.5004229e-04  -5.6435831e-05  -5.6624969e-05   7.2569776e-05  -3.8495986e-04  -1.0218402e-04  -5.1633280e-05   7.8518258e-04  -2.2737381e-04   5.4719196e-05  -2.6872850e-04   3.1741627e-05  -5.6465081e-04  -2.7700290e-04   2.6377440e-05  -1.0345172e-04  -1.6302640e-04  -1.5821481e-04   2.0855054e-04   1.4021777e-04   7.8482204e-05  -8.1521976e-05   1.6355456e-04   2.3701075e-04
   9.6127194e-05   1.9909252e-05  -9.9476247e-06   1.4497195e-05   5.4862776e-06  -2.6435266e-05   4.1625037e-05  -5.8804697e-05  -1.5584325e-05  -4.8486683e-05   5.7275203e-05  -5.6136654e-05  -6.6752516e-05  -1.0684277e-04  -1.4229413e-04  -6.0340335e-05   1.0792760e-04   5.7314792e-05   6.2091342e-05   1.2641762e-04  -8.7184257e-05   8.4124920e-05   2.7585938e-05  -9.4164379e-06  -2.4858603e-06   5.8050056e-05  -1.4863462e-04  -3.6952722e-05  -6.2768566e-05   8.6719592e-05  -3.9411627e-04  -1.0434866e-04  -5.6892906e-05   7.5746397e-04  -2.2820225e-04   5.5170858e-05  -2.3435970e-04   3.8677750e-05  -5.0620612e-04  -2.8650611e-04   3.6912519e-05  -1.3502067e-04  -1.6528789e-04  -2.4975263e-04   1.4800920e-04   8.9261695e-05   6.4351116e-05  -1.4074371e-04   1.5562399e-04   2.4328992e-04
   1.0608967e-04   3.5909339e-05  -1.4456293e-05   1.4466729e-05   1.3221308e-05  -2.3346603e-05   4.5925113e-05  -5.9270653e-05  -1.7311353e-05  -6.1533952e-05   4.3710595e-05  -7.4426847e-05  -6.2805724e-05  -9.1174275e-05  -1.3300340e-04  -5.3172691e-05   1.0238469e-04   5.3507869e-05   6.1260333e-05   1.2395844e-04  -7.3135721e-05   7.6797674e-05   1.5518313e-05  -1.4372282e-05  -2.0234589e-05   4.8029495e-05  -1.3064827e-04  -2.3184570e-05  -5.4405729e-05   1.0205772e-04  -3.7814488e-04  -1.0734723e-04  -7.5321550e-05   7.7302998e-04  -2.0363831e-04   2.6804226e-05  -2.1395279e-04   3.9227529e-05  -4.7194966e-04  -2.6721592e-04   2.7127617e-05  -9.8235614e-05  -1.3854596e-04  -2.2518936e-04   2.2758052e-04   1.0659794e-04   5.0312530e-05  -1.2056879e-04   1.7431175e-04   1.8543529e-04
   1.0373423e-04   3.4295426e-05  -1.4471882e-05   2.5974401e-07  -1.0170309e-07  -3.5775105e-05   2.8691151e-05  -7.2318282e-05  -5.0943981e-05  -6.4728432e-05   4.8588390e-05  -6.6647604e-05  -7.3507079e-05  -1.0193598e-04  -1.4916672e-04  -6.4624313e-05   1.0206490e-04   4.4042790e-05   2.4177145e-05   1.2447301e-04  -6.8124209e-05   6.5115753e-05   1.0843372e-05  -4.0225266e-05  -4.4015003e-05   6.6542423e-05  -1.7302416e-04  -5.9950751e-05  -1.0007897e-04   6.1452316e-05  -3.9551998e-04  -1.3470113e-04  -1.0980161e-04   7.1230641e-04  -2.7255251e-04   2.1012562e-05  -3.1002675e-04   2.3798533e-05  -7.1774918e-04  -3.0541193e-04   1.3538554e-05  -1.6480750e-04  -1.5280567e-04  -2.8619581e-04   8.4119922e-05   8.2314611e-05   1.2390809e-05  -1.4301811e-04   1.9029649e-04   2.7440404e-04
   8.5019165e-05   8.9358394e-07  -2.6420130e-05  -1.6779250e-05   2.0759501e-06  -4.4123037e-05   1.3473458e-05  -6.7866378e-05  -1.1253976e-04  -9.0410424e-05   6.3400953e-06  -8.4908912e-05  -8.2112434e-05  -1.1104823e-04  -1.7412780e-04  -7.4858937e-05   8.7645538e-05   2.7814363e-05  -1.9362218e-05   1.0624136e-04  -8.6160748e-05   5.4789904e-05   2.0861671e-06  -8.0396087e-05  -5.8474689e-05   4.4645047e-05  -1.6017613e-04  -6.0390852e-05  -1.5335018e-04   6.8284367e-05  -4.0020316e-04  -1.4422245e-04  -1.1369045e-04   7.3336286e-04  -2.9150449e-04   4.1267140e-06  -2.8454061e-04   2.6194990e-05  -7.1031944e-04  -3.3480956e-04   2.3257377e-05  -1.7050121e-04  -1.6625661e-04  -3.6159976e-04   1.0908810e-04   4.4970828e-05  -2.1277863e-05  -1.2164616e-04   3.1970856e-05   2.2505560e-04
   6.8174966e-05   2.6849855e-05  -3.0247553e-05  -2.9880719e-05   5.9466206e-06  -3.5731053e-05   2.5642346e-06  -5.4077696e-05  -1.3015192e-04  -1.0910958e-04  -1.9817429e-05  -9.7227363e-05  -8.3795821e-05  -9.2658942e-05  -1.7458812e-04  -6.8787776e-05   7.3346950e-05   2.7798842e-05  -2.8540833e-05   1.0217971e-04  -8.2519888e-05   3.6946363e-05  -6.6074863e-06  -1.0001534e-04  -7.9079502e-05   3.2903710e-05  -1.4963075e-04  -3.8987582e-05  -1.2936303e-04   8.6604196e-05  -4.0174386e-04  -1.4852791e-04  -1.4139689e-04   6.9374882e-04  -2.5758994e-04  -1.6269527e-05  -2.4292119e-04   1.5465686e-05  -5.8647152e-04  -3.2945440e-04   1.0064563e-05  -1.7711104e-04  -1.6145744e-04  -3.1049896e-04   1.1927167e-04   2.7475960e-05  -6.5201166e-05  -1.5601206e-04   1.8826303e-04   2.3835694e-04
   7.1641749e-05   7.4118311e-06  -2.4870749e-05  -3.2244527e-05  -3.6706371e-07  -4.3272023e-05   9.2818773e-06  -6.7367073e-05  -1.3048398e-04  -1.0918889e-04  -9.3435037e-06  -8.9091242e-05  -8.9784597e-05  -8.2927036e-05  -1.8850877e-04  -7.4002208e-05   7.4725183e-05   2.9105813e-05  -6.9971844e-05   1.0836611e-04  -5.3625408e-05   4.4421296e-05  -1.8746743e-05  -1.0589150e-04  -9.2067232e-05   3.5509544e-05  -1.7815373e-04  -7.8580604e-05  -1.8817092e-04   5.6769190e-05  -4.0621051e-04  -1.6388044e-04  -1.5186843e-04   6.5499294e-04  -3.2157687e-04  -1.7572824e-05  -3.3800592e-04  -4.8302365e-07  -8.2625140e-04  -3.4319679e-04  -3.3532051e-05  -2.2368248e-04  -1.6273190e-04  -4.0116004e-04   6.9985545e-05   1.3979903e-05  -8.7922825e-05  -1.7726695e-04   6.3014304e-05   2.2847136e-04
   2.0791189e-05  -3.8156697e-05  -3.8095182e-05  -5.1963525e-05  -6.6912285e-06  -7.7226345e-05  -2.7839598e-05  -7.7801757e-05  -2.0641148e-04  -1.2400765e-04  -3.7676207e-05  -9.9736171e-05  -1.0211681e-04  -1.1469838e-04  -2.1224718e-04  -9.1803558e-05   5.7511377e-05   1.0850910e-05  -7.3819036e-05   9.5984949e-05  -7.8015852e-05   2.7715465e-05  -3.2689848e-05  -1.3186369e-04  -1.2369060e-04   2.7657123e-05  -1.9073828e-04  -8.8206027e-05  -2.2622195e-04   5.3217063e-05  -4.1127784e-04  -1.7022906e-04  -1.4364622e-04   6.2897464e-04  -3.4424048e-04  -5.7085384e-05  -3.4029273e-04  -6.3857347e-06  -8.6071383e-04  -3.6525240e-04  -2.7118487e-05  -2.4007750e-04  -1.3901459e-04  -3.8969176e-04  -4.9735583e-05   6.7175999e-05  -9.1382717e-05  -1.9239417e-04  -4.9595685e-05   1.9521320e-04
   1.8184590e-05  -5.8749752e-05  -4.5027064e-05  -6.7889174e-05  -5.7177126e-06  -8.1987942e-05  -4.1262596e-05  -8.2476341e-05  -2.4694263e-04  -1.3822448e-04  -6.6932887e-05  -1.0676521e-04  -1.0775660e-04  -1.0180547e-04  -2.1379394e-04  -8.7989174e-05   4.7930815e-05   9.5298547e-06  -1.1112695e-04   9.8696080e-05  -6.9414280e-05   1.7047587e-05  -4.4818313e-05  -1.5699997e-04  -1.4858476e-04   1.0896717e-05  -1.8099719e-04  -6.3705178e-05  -2.2832920e-04   6.6793284e-05  -4.1093095e-04  -1.7661584e-04  -1.9159148e-04   6.4636971e-04  -3.2590609e-04  -4.1448442e-05  -3.0211199e-04  -1.4138580e-05  -7.2927278e-04  -3.8015438e-04  -4.3205942e-05  -2.5093486e-04  -1.5095089e-04  -4.9184827e-04   5.2110325e-05  -3.4569053e-05  -7.0398302e-05  -1.4809372e-04   1.6267359e-04   2.1457940e-04
   3.5055800e-06  -3.8274298e-05  -3.7615122e-05  -6.4189779e-05  -9.8203363e-06  -7.0640992e-05  -5.6556481e-05  -8.5470521e-05  -2.4993243e-04  -1.3259877e-04  -5.6072251e-05  -9.1336515e-05  -1.0820210e-04  -8.2028098e-05  -2.2874652e-04  -8.7063505e-05   4.6659148e-05   8.1806238e-06  -1.1294926e-04   1.0516465e-04  -1.2134547e-04   2.8438370e-05  -4.7843248e-05  -1.2954205e-04  -1.3693368e-04   3.3478285e-05  -1.8610853e-04  -7.9276659e-05  -2.3964085e-04   5.5077915e-05  -4.0661599e-04  -1.7454773e-04  -1.9900674e-04   6.0638256e-04  -3.2821720e-04  -6.0849354e-05  -3.2636803e-04  -1.8919151e-05  -8.3344133e-04  -3.7976119e-04  -4.8727055e-05  -2.6184719e-04  -1.4966562e-04  -4.6201225e-04   3.6898615e-05   1.0378311e-05  -1.0785131e-04  -1.2291777e-04   7.6398428e-05   1.9821922e-04
  -1.2414474e-05  -4.1252250e-05  -4.9988412e-05  -7.8843637e-05  -1.7269518e-05  -1.0606526e-04  -7.3136842e-05  -1.0880982e-04  -2.7561557e-04  -1.2997696e-04  -7.2569950e-05  -7.4103111e-05  -1.1513106e-04  -1.0918279e-04  -2.3684751e-04  -1.0128468e-04   3.7310489e-05  -5.0073953e-07  -1.3898252e-04   9.9814897e-05  -1.2486719e-04   1.4066856e-05  -4.4827990e-05  -1.4524683e-04  -1.6683523e-04   1.1106097e-05  -2.0028102e-04  -9.8526682e-05  -2.6133042e-04   4.6606485e-05  -4.1945430e-04  -1.7529046e-04  -1.9596508e-04   5.7740451e-04  -3.6071625e-04  -5.2003532e-05  -3.4225287e-04  -1.5744206e-05  -9.0622535e-04  -3.8518239e-04  -5.7095938e-05  -2.5374029e-04  -1.5032661e-04  -4.8557465e-04  -7.8743969e-06   1.9852856e-05  -1.3505800e-04  -2.1520171e-04   6.3210364e-06   2.1145034e-04
  -1.5069091e-05  -7.7654135e-05  -5.3569667e-05  -8.4504893e-05  -1.9074900e-05  -1.0986982e-04  -8.3202343e-05  -9.0527050e-05  -2.8148113e-04  -1.4495947e-04  -9.0347567e-05  -7.8825811e-05  -1.1599799e-04  -1.0802715e-04  -2.4457398e-04  -8.8368753e-05   3.2477194e-05  -1.6469436e-06  -1.4881459e-04   9.5562857e-05  -1.0748016e-04   1.6356193e-05  -5.6742585e-05  -1.5786734e-04  -1.6019504e-04   4.0482109e-06  -1.7869080e-04  -8.6726635e-05  -2.3612562e-04   5.5864686e-05  -4.1405097e-04  -1.8249385e-04  -2.1027145e-04   5.8628060e-04  -3.2818588e-04  -3.1388878e-05  -3.1148110e-04  -2.9098655e-05  -7.7976909e-04  -3.7207303e-04  -8.8251356e-05  -2.5169461e-04  -1.4487254e-04  -5.6341552e-04  -2.3473244e-06   4.2426498e-05  -1.3845915e-04  -1.4244720e-04   1.4031437e-04   1.8170779e-04
  -2.9797260e-05  -5.0385876e-05  -5.2963711e-05  -8.1643404e-05  -2.0460124e-05  -1.0460937e-04  -7.7611032e-05  -9.5577103e-05  -2.8482126e-04  -1.3798878e-04  -8.7313274e-05  -6.7275083e-05  -1.1635001e-04  -1.0448441e-04  -2.3994486e-04  -8.5938394e-05   2.8007733e-05   2.3368580e-06  -1.5165255e-04   1.0630065e-04  -1.1898031e-04   3.1298270e-05  -4.3962882e-05  -1.2886843e-04  -1.4557409e-04   2.5232944e-06  -1.7949512e-04  -8.4847503e-05  -2.1945723e-04   3.6838661e-05  -4.1112973e-04  -1.8036833e-04  -2.0011634e-04   6.0625502e-04  -3.2068379e-04  -8.7135515e-05  -3.3197616e-04  -2.6408930e-05  -8.2066131e-04  -3.7687231e-04  -7.5525750e-05  -2.5593746e-04  -1.5111113e-04  -4.5890594e-04  -3.5951278e-05  -1.6451413e-05  -1.6459973e-04  -1.6432469e-04   4.4493150e-05   1.8823244e-04
  -1.8292936e-05  -7.5081218e-05  -5.5414137e-05  -8.2899474e-05  -2.9678677e-05  -1.3021978e-04  -9.5239484e-05  -1.4683475e-04  -3.0185428e-04  -1.3188954e-04  -8.6212771e-05  -5.8733556e-05  -1.2753173e-04  -1.1863326e-04  -2.4271768e-04  -8.8989582e-05   2.7789481e-05   7.1126365e-06  -1.6301735e-04   1.0683544e-04  -8.3052400e-05   3.4968973e-05  -6.0743216e-05  -1.4789256e-04  -1.6180321e-04   2.0236150e-05  -2.0763240e-04  -1.0085961e-04  -2.6458592e-04   2.7685674e-05  -4.1925116e-04  -1.8761378e-04  -2.1751333e-04   5.9529371e-04  -3.6237726e-04  -8.4893800e-05  -3.6588631e-04  -3.4159355e-05  -8.8608137e-04  -4.0324783e-04  -7.1577560e-05  -2.9412450e-04  -1.6532309e-04  -4.9083529e-04  -4.0819396e-05   3.7247733e-05  -2.0237477e-04  -2.1578080e-04   2.0643759e-04   2.1054351e-04
  -3.8154230e-05  -8.8432003e-05  -5.7911395e-05  -8.7244705e-05  -2.6905213e-05  -1.1725457e-04  -1.0116015e-04  -1.4751403e-04  -3.1256376e-04  -1.3258540e-04  -1.0147470e-04  -5.0071565e-05  -1.3044594e-04  -1.1780535e-04  -2.6914384e-04  -9.5849238e-05   1.5532547e-05   1.6723357e-06  -1.6453791e-04   1.0539861e-04  -8.7249078e-05   3.3569995e-05  -6.3862644e-05  -1.4554696e-04  -1.3110472e-04   2.0153462e-05  -1.9799755e-04  -9.8099357e-05  -2.6770632e-04   2.9354624e-05  -4.2193805e-04  -1.7038175e-04  -1.7695564e-04   6.0939562e-04  -3.3450962e-04  -7.0529459e-05  -3.2259990e-04  -3.2610093e-05  -7.4344641e-04  -3.7284265e-04  -8.5472951e-05  -2.5167241e-04  -1.8072859e-04  -5.2649889e-04  -5.2545009e-05  -1.4737057e-06  -9.2567738e-05  -1.6091886e-04   1.9614033e-04   2.4767453e-04
  -4.7646430e-05  -7.6171695e-05  -5.2488413e-05  -8.0910067e-05  -2.3568169e-05  -1.1080017e-04  -1.0420571e-04  -1.2885331e-04  -3.2195041e-04  -1.3276390e-04  -8.8524779e-05  -4.3891087e-05  -1.2942220e-04  -1.1765865e-04  -2.4573164e-04  -7.9969563e-05   1.2436997e-05   7.6965489e-07  -1.4879051e-04   1.1056897e-04  -8.4640371e-05   4.9235103e-05  -5.4376778e-05  -1.2234616e-04  -1.4229790e-04   2.3311224e-05  -1.8584754e-04  -9.1553433e-05  -2.0915858e-04   4.6023524e-05  -4.1772175e-04  -1.7024591e-04  -2.1110840e-04   5.9638056e-04  -2.8676502e-04  -6.3817461e-05  -2.7284111e-04  -2.9318988e-05  -6.7259476e-04  -3.6529018e-04  -7.4341020e-05  -2.6203410e-04  -1.7499650e-04  -4.7522006e-04   3.5465881e-05   1.5548923e-05  -1.7984422e-04  -1.7469210e-04   7.7417055e-05   2.0476484e-04
  -4.1697444e-05  -6.8090754e-05  -4.6520083e-05  -8.1342871e-05  -3.5847544e-05  -1.2523250e-04  -9.7451353e-05  -1.5164452e-04  -2.9518842e-04  -1.1539507e-04  -5.8317321e-05  -1.7006956e-05  -1.1578284e-04  -1.3259184e-04  -2.7334789e-04  -8.5667903e-05   1.9343439e-05   4.7204712e-06  -1.2929131e-04   1.1154224e-04  -5.1677962e-05   5.1727988e-05  -4.7294525e-05  -1.2350206e-04  -1.2258325e-04   3.7225509e-05  -2.1664372e-04  -1.2332405e-04  -2.8468916e-04   1.3302168e-05  -4.1920631e-04  -1.6854804e-04  -1.5795164e-04   5.9851073e-04  -3.3148521e-04  -8.2291379e-05  -3.5953772e-04  -4.0206756e-05  -8.0274523e-04  -3.6954245e-04  -9.2975090e-05  -2.5257902e-04  -1.9085556e-04  -4.7912131e-04  -3.5521625e-05   4.3542117e-05  -1.3154624e-04  -1.3119999e-04   1.5469846e-04   1.6981158e-04
  -4.2166444e-05  -6.7658155e-05  -5.1040071e-05  -7.9214893e-05  -3.6885471e-05  -1.2686776e-04  -1.0234459e-04  -1.5401574e-04  -2.8448302e-04  -1.1576715e-04  -6.9707647e-05  -1.2606083e-05  -1.2907234e-04  -1.2775553e-04  -2.5469504e-04  -8.3953761e-05   1.7173323e-05   3.4071609e-06  -1.2589847e-04   1.0518722e-04  -5.9623289e-05   6.0184590e-05  -6.4982611e-05  -1.2991934e-04  -1.3714445e-04   2.2224669e-05  -2.1149994e-04  -1.1965071e-04  -2.7758876e-04   9.9395602e-06  -4.2717103e-04  -1.7281456e-04  -1.6468469e-04   6.1699754e-04  -3.0991764e-04  -3.0390309e-05  -3.2208455e-04  -4.1049450e-05  -7.0039532e-04  -3.7781330e-04  -7.7935707e-05  -2.5839356e-04  -1.7877386e-04  -5.1574578e-04  -2.4803536e-05   1.0757301e-05  -1.6828763e-04  -1.5693648e-04  -5.5877358e-06   1.6795870e-04
  -2.8264039e-05  -9.7964708e-05  -4.2037194e-05  -7.5363430e-05  -2.9680363e-05  -1.1587505e-04  -9.0536094e-05  -1.4509118e-04  -2.7108271e-04  -1.1317760e-04  -6.3092739e-05  -6.3426601e-06  -1.1523636e-04  -1.2739316e-04  -2.4238526e-04  -7.9779333e-05   1.4002603e-05   6.3642210e-07  -1.1220507e-04   1.1096242e-04  -3.8060134e-05   6.4042135e-05  -5.1496667e-05  -1.0789487e-04  -1.1281014e-04   3.7294147e-05  -1.8806505e-04  -9.6120551e-05  -2.1727261e-04   2.7583130e-05  -4.2615019e-04  -1.6212235e-04  -1.4310675e-04   6.3602009e-04  -2.6555429e-04  -4.3889671e-05  -2.7334562e-04  -3.1482468e-05  -5.0959724e-04  -3.8089268e-04  -6.4615597e-05  -2.3885566e-04  -1.7551710e-04  -4.4619472e-04   3.7009740e-05   2.3181001e-05  -2.3635765e-04  -1.8203683e-04   1.8819842e-04   2.2612730e-04
  -2.7036562e-05  -7.4082644e-05  -3.4937191e-05  -6.2623534e-05  -3.2952132e-05  -1.1848552e-04  -8.0633625e-05  -1.4325284e-04  -2.0232324e-04  -9.3839342e-05  -2.8286417e-05   1.8813891e-05  -1.0489266e-04  -1.2979236e-04  -2.3147764e-04  -7.1945055e-05   2.5263123e-05   2.1561988e-05  -7.3535033e-05   1.2169056e-04  -3.8440521e-05   8.9034736e-05  -4.4241933e-05  -8.5545551e-05  -1.0018400e-04   5.1350191e-05  -1.9910726e-04  -1.1124868e-04  -2.2365405e-04   1.4711033e-05  -4.2504322e-04  -1.5375158e-04  -1.3405454e-04   6.6725531e-04  -2.7256174e-04  -1.7980547e-05  -3.0782513e-04  -1.9483166e-05  -6.2711694e-04  -3.4384307e-04  -4.9505234e-05  -2.0786787e-04  -1.8300551e-04  -5.5058964e-04  -1.6052418e-05   5.1465377e-05  -1.2480684e-04  -1.3426263e-04   2.1708093e-04   2.1653803e-04
  -2.7310576e-05  -3.5817149e-05  -3.3672994e-05  -6.3875996e-05  -3.7873851e-05  -1.2468349e-04  -9.6908472e-05  -1.5277695e-04  -1.9699940e-04  -8.7439184e-05  -2.7128182e-05   2.3949908e-05  -1.0296347e-04  -1.4257582e-04  -2.2769411e-04  -7.8009412e-05   3.0404462e-05   1.5379768e-05  -5.7257745e-05   1.1494981e-04  -2.0414780e-05   8.6371736e-05  -3.6678895e-05  -7.3979834e-05  -1.1062223e-04   5.4446598e-05  -1.9297285e-04  -1.0811171e-04  -2.1412132e-04   1.1699683e-05  -4.3024050e-04  -1.5737728e-04  -1.1016279e-04   6.7921227e-04  -2.7151016e-04  -2.1817339e-05  -3.0957459e-04  -4.0685376e-05  -5.8755791e-04  -3.2927707e-04  -6.3553285e-05  -2.2285020e-04  -1.6273564e-04  -4.0376716e-04   6.1621256e-05   7.9747342e-06  -1.3259705e-04  -1.0988416e-04   1.9433952e-05   2.2146810e-04
  -1.8433228e-05  -6.8488873e-05  -3.3954184e-05  -5.7750625e-05  -2.9298702e-05  -1.1333651e-04  -7.4761920e-05  -1.3969353e-04  -1.8256986e-04  -8.5120373e-05  -1.5096977e-05   2.5235773e-05  -9.4901705e-05  -1.2435671e-04  -2.1755497e-04  -6.5486791e-05   2.8914634e-05   2.3761400e-05  -5.8478334e-05   1.1896697e-04  -2.3565533e-05   9.2680370e-05  -2.7564312e-05  -5.6357876e-05  -7.6396282e-05   6.2381929e-05  -1.8278573e-04  -1.0020334e-04  -1.7148576e-04   3.6184658e-05  -4.2703593e-04  -1.3628855e-04  -7.7941681e-05   7.0606393e-04  -2.3320274e-04   3.0277197e-05  -2.4759115e-04   1.4697815e-06  -4.1236400e-04  -3.1013685e-04  -3.2330139e-05  -1.7871096e-04  -1.6334061e-04  -3.1505630e-04   7.5317163e-05   5.6503253e-05  -7.9678241e-05  -1.0991409e-04   1.0824817e-04   2.0682330e-04
  -1.7628443e-05  -6.1438303e-05  -2.0940348e-05  -4.8321468e-05  -2.3055789e-05  -8.9072462e-05  -5.5007069e-05  -1.2447129e-04  -1.2120936e-04  -7.6148965e-05   4.0759932e-07   2.3705770e-05  -7.8134137e-05  -1.0718084e-04  -2.0501277e-04  -4.8904600e-05   3.2069333e-05   2.3576444e-05  -1.2369411e-05   1.2539589e-04  -1.8763420e-05   1.0473250e-04  -1.4160313e-05  -3.6750007e-05  -6.1132865e-05   4.8684116e-05  -1.8100784e-04  -8.8188623e-05  -1.3745832e-04   4.7399841e-05  -4.1667244e-04  -1.2196924e-04  -3.5859448e-05   7.1213499e-04  -1.9743478e-04   2.6736585e-05  -1.9647018e-04  -1.0247722e-05  -2.7748308e-04  -2.8172706e-04   1.3808974e-05  -1.6566455e-04  -1.3309307e-04  -4.1085746e-04   9.7486343e-05   1.1524156e-04  -1.3763586e-04  -8.7149245e-05   2.7195616e-05   2.0326406e-04
   1.9715746e-06  -4.5194873e-05  -1.4750783e-05  -3.8926177e-05  -3.0758158e-05  -9.8331548e-05  -5.2454652e-05  -1.2137173e-04  -7.0864815e-05  -4.9591315e-05   3.5554531e-05   4.4212768e-05  -5.8853293e-05  -1.2066679e-04  -1.8633726e-04  -4.9812243e-05   4.9439914e-05   3.4726600e-05   1.6883574e-05   1.3926841e-04  -6.8992044e-06   1.1382833e-04  -2.4957383e-06  -2.5305610e-05  -3.7467184e-05   7.7186276e-05  -1.9612719e-04  -1.0637751e-04  -1.7996330e-04   2.3867602e-05  -4.1551702e-04  -1.1301904e-04  -3.2507603e-05   7.2744320e-04  -2.0679289e-04   4.1941290e-05  -2.4815771e-04  -5.0491440e-06  -4.1270858e-04  -2.7024769e-04  -9.5902396e-06  -1.4546077e-04  -1.2458970e-04  -3.4000599e-04   9.4413270e-05   1.5317046e-04  -4.9566013e-05  -1.2162467e-04   2.8749899e-04   2.3683622e-04
  -1.9012912e-05  -6.5294764e-05  -1.8573215e-06  -4.5776560e-05  -2.9370030e-05  -8.7642715e-05  -4.1831681e-05  -1.0988342e-04  -7.5424774e-05  -4.4914133e-05   3.8493483e-05   4.5976019e-05  -4.4378361e-05  -1.1850046e-04  -1.9505942e-04  -4.0460553e-05   4.9325383e-05   2.8513146e-05   4.6144647e-05   1.3745845e-04   3.0039322e-05   1.2609783e-04   2.7218060e-05  -8.6945574e-06  -3.1934524e-05   9.6624281e-05  -1.5764637e-04  -1.0240843e-04  -1.2220359e-04  -5.9665537e-05  -4.1720786e-04  -8.9735309e-05   2.5459801e-06   7.4144552e-04  -1.8134179e-04   4.9705308e-05  -2.1712134e-04   1.6327971e-05  -3.0962439e-04  -2.6670683e-04   8.1062217e-06  -1.3110584e-04  -1.4248602e-04  -3.2261966e-04   2.1980959e-04   1.1309505e-04  -9.4369847e-05  -4.4277887e-05   1.0960844e-04   2.2840433e-04
   4.7210006e-06  -5.4596534e-05   1.6075555e-05  -3.6870399e-05  -1.7459015e-05  -6.5434164e-05  -2.0185953e-05  -8.3844257e-05  -2.3490356e-05  -3.6163219e-05   5.1772542e-05   4.6866000e-05  -2.8607734e-05  -1.2250656e-04  -1.9757295e-04  -1.9684039e-05   4.5535126e-05   3.2095486e-05   8.0285616e-05   1.4612683e-04   2.3729108e-05   1.3815325e-04   5.6435350e-05  -1.2666685e-06   1.1584775e-05   1.0251586e-04  -1.3379050e-04  -9.7578690e-05  -1.3013682e-04  -5.2143430e-05  -4.1831503e-04  -7.4848940e-05   5.9747650e-05   7.4726355e-04  -1.5614387e-04   8.8933899e-05  -1.5650624e-04   2.8605045e-05  -1.1577579e-04  -2.7772872e-04   1.9541019e-05  -1.0140592e-04  -1.5337317e-04  -1.8321341e-04   2.1994617e-04   2.2783346e-04   9.2273501e-07  -5.8159978e-05   2.1856377e-04   2.8546294e-04
   2.8495117e-06  -2.5259642e-05   3.5326888e-05  -2.7322443e-05  -1.8127281e-05  -5.8480862e-05  -3.7877969e-06  -5.4781380e-05  -2.5346096e-06  -1.3362521e-05   7.7163029e-05   5.9511207e-05  -1.8425677e-05  -1.3702185e-04  -2.2529406e-04   1.0077372e-06   4.4033750e-05   2.1211992e-05   1.2462428e-04   1.6171049e-04   3.8890230e-05   1.6289346e-04   7.7921592e-05   1.9809060e-05   3.2570424e-05   1.4126854e-04  -1.6915587e-04  -1.1585964e-04  -1.2208590e-04  -7.3986630e-05  -4.1209429e-04  -7.1256974e-05   8.3956213e-05   7.7232026e-04  -1.5764295e-04   1.1074160e-04  -1.8490736e-04   2.6388516e-05  -2.3151537e-04  -2.4576805e-04   5.1550483e-05  -1.0001302e-04  -1.6319404e-04  -2.5949228e-04   2.0424635e-04   2.0483708e-04   3.4295954e-05  -6.4449210e-05   2.9553549e-04   2.5444155e-04
   3.1122883e-05   3.0853906e-05   2.6256568e-05  -9.0639633e-06  -1.8451494e-05  -4.4850647e-05  -4.9327755e-06  -6.9325397e-05   5.1226296e-05  -1.4196920e-05   8.3627070e-05   6.0235776e-05  -7.5932126e-06  -1.6326178e-04  -1.7935020e-04  -6.2140098e-06   6.8707064e-05   4.3388933e-05   1.5499372e-04   1.6218846e-04   3.2631393e-05   1.5823952e-04   8.3083418e-05   4.0678449e-05   5.6835390e-05   1.2401277e-04  -1.5530369e-04  -1.0734559e-04  -1.0782531e-04  -7.5893528e-05  -3.9899943e-04  -7.2633986e-05   9.9563076e-05   8.1040268e-04  -1.3988568e-04   1.3483215e-04  -1.7335235e-04   4.7771857e-05  -2.3716126e-04  -2.3626657e-04   5.0388368e-05  -7.4469855e-05  -1.6760896e-04  -2.1827348e-04   2.6391144e-04   1.8947767e-04  -4.1271371e-05   4.2099778e-06   2.2378945e-04   1.8652472e-04
   5.4743039e-05   2.4154733e-05   2.2079412e-05   1.9328552e-05  -8.8907873e-06  -2.7733999e-05   1.0356126e-05  -5.8036720e-05   8.5159510e-05  -2.1555707e-05   1.0007084e-04   6.5068460e-05   8.0735344e-06  -1.5492082e-04  -1.6287954e-04   1.3640838e-05   8.2843806e-05   4.4934703e-05   1.5801381e-04   1.6758101e-04   4.4454897e-05   1.3140819e-04   9.9019024e-05   5.4588123e-05   5.5864188e-05   1.0110294e-04  -1.1037033e-04  -1.0953195e-04  -9.3609560e-05  -9.6981283e-05  -3.8080863e-04  -5.5535605e-05   6.6411303e-05   8.1671670e-04  -1.1828253e-04   1.3678822e-04  -1.3277624e-04   5.4553610e-05  -1.4649505e-04  -2.1761018e-04   4.2883759e-05  -5.0504972e-05  -1.1645040e-04  -1.0769662e-04   3.1187379e-04   1.5248384e-04  -4.1849948e-05   3.8183833e-05   1.8870349e-04   1.7060073e-04
   8.0225895e-05   2.9567404e-05   2.1104486e-05   3.4413886e-05   6.5357898e-07  -8.9844098e-06   2.0659034e-05  -4.5989109e-05   1.3890098e-04  -1.5958811e-05   1.1919872e-04   7.0083799e-05   3.1739706e-05  -1.2536798e-04  -1.2743169e-04   2.3663186e-05   1.0364233e-04   5.5648889e-05   1.7562060e-04   1.8231849e-04   1.2256911e-05   1.0501069e-04   1.0477427e-04   8.5456420e-05   7.5898126e-05   1.0753203e-04  -8.8317982e-05  -9.2052971e-05  -4.0106330e-05  -6.6038192e-05  -3.6209196e-04  -4.1792915e-05   8.9977904e-05   8.4098103e-04  -9.3964300e-05   1.4862872e-04  -1.0444011e-04   6.3851046e-05  -1.0347279e-04  -1.9037879e-04   5.1070674e-05  -7.1502829e-05  -1.0336484e-04  -9.2820119e-05   2.8228184e-04   1.7864574e-04  -1.8870533e-05   4.2697402e-06   4.8122896e-05   5.3613971e-05
   9.0172740e-05   3.9404946e-05   2.9291921e-05   4.2394186e-05  -5.9190643e-06   3.8856460e-06   4.9813596e-05  -1.8816849e-05   1.7652201e-04   1.0622695e-05   1.5252271e-04   7.3887415e-05   4.8845366e-05  -1.0655476e-04  -8.0417572e-05   3.4308021e-05   1.2334422e-04   4.9243252e-05   1.8744866e-04   1.8629870e-04  -2.4415574e-08   1.6392511e-05   1.0614107e-04   7.7865261e-05   4.3696491e-05   8.1858154e-05  -2.3440512e-05  -8.5898959e-05  -7.3114061e-05  -1.5007136e-04  -3.4888677e-04  -5.2893523e-05   8.7876266e-05   8.3683769e-04  -8.3303050e-05   1.2544513e-04  -1.1992204e-04   7.7794284e-05  -1.1456213e-04  -2.1006883e-04   5.1894025e-05  -3.7385384e-05  -6.4027125e-05  -7.3742762e-05   2.9620674e-04   1.7491951e-04   2.7327049e-05  -1.4878610e-05   1.5986779e-04   9.1382084e-05
   8.7596884e-05   4.5914861e-05   6.1506631e-05   5.4081582e-05  -2.1774586e-06   1.1912961e-05   7.4100513e-05  -1.0817269e-05   1.7029587e-04   2.0754271e-05   1.4591764e-04   4.6054836e-05   4.7673107e-05  -1.2691760e-04  -1.2219218e-04   6.0190312e-05   8.5255306e-05   9.7337706e-06   2.1581544e-04   1.8800823e-04   4.2508065e-05   1.1432190e-04   1.2275888e-04   5.2694577e-05   8.4331325e-05   1.0013129e-04   1.6022702e-06  -9.2168440e-05   1.2964628e-05  -1.8636456e-04  -3.7216238e-04  -5.5330944e-05   9.9288140e-05   8.5677829e-04  -8.5754451e-05   1.6146073e-04  -7.4194490e-05   5.9935264e-05   9.6166317e-05  -2.1921685e-04   4.8014557e-05  -3.3214219e-05  -1.2262989e-04  -4.8046701e-07   3.4395381e-04   3.0211877e-04   1.3304358e-05  -2.3436814e-05   7.8584395e-05   1.1434832e-04
   1.2434242e-04   3.5375222e-05   8.1334503e-05   8.4109437e-05   8.5466118e-06   3.3603934e-05   1.0466133e-04   5.9368172e-06   2.1705074e-04   1.6126385e-05   1.5365226e-04   2.8497321e-05   5.1506529e-05  -1.1810997e-04  -1.2448705e-04   6.4107757e-05   9.0409048e-05   1.3420152e-05   2.0875905e-04   1.8334785e-04   3.9360020e-05   1.0103125e-04   1.2777532e-04   6.8728099e-05   6.5549008e-05   8.6094034e-05  -5.3745016e-06  -8.1625250e-05  -8.0361442e-06  -1.6850074e-04  -3.5798331e-04  -6.2385581e-05   1.1033205e-04   8.5304375e-04  -5.6745404e-05   1.4123293e-04  -5.7905028e-05   6.2163082e-05   1.1063602e-04  -2.0810537e-04   6.0306178e-05  -2.6139191e-05  -8.9322974e-05  -1.0420619e-04   3.3251528e-04   2.6692834e-04   4.6908681e-05  -6.5507720e-06   1.9751072e-04   6.9760186e-05
   1.1916016e-04   5.0288323e-05   7.5387186e-05   8.4356638e-05  -8.6648407e-07   4.0052480e-05   1.0072780e-04   7.7949971e-06   2.3256116e-04   2.2650882e-05   1.7786022e-04   4.4050459e-05   5.6910972e-05  -9.7319768e-05  -9.6495874e-05   6.6180401e-05   1.0761451e-04   1.3983928e-05   2.1804232e-04   1.8610551e-04   3.9830797e-05   9.2418260e-05   1.1440219e-04   7.1843395e-05   6.6744637e-05   8.8961307e-05   1.6285317e-06  -9.1136884e-05  -5.0197800e-06  -1.6541951e-04  -3.5387892e-04  -5.5486948e-05   1.1547175e-04   8.3531230e-04  -7.0502661e-05   1.4809391e-04  -6.3116822e-05   5.2911768e-05   6.0322847e-05  -1.8184789e-04   5.8789909e-05  -5.8575464e-05  -8.9493915e-05  -7.7191013e-05   3.0990399e-04   2.5063628e-04   4.5794939e-05   5.9711447e-06   1.3480205e-04   9.3979877e-05
   1.3570554e-04   5.5973938e-05   7.7237979e-05   9.1225877e-05   7.8010662e-06   4.3743123e-05   1.2031846e-04   2.1115266e-05   2.3949821e-04   1.2110438e-05   1.6468522e-04   2.5124400e-05   5.3983265e-05  -1.0199376e-04  -8.6409978e-05   6.5583910e-05   1.0226644e-04   9.6035610e-06   2.0306988e-04   1.6722211e-04   4.1833227e-05   7.9501406e-05   1.1024554e-04   6.3621657e-05   4.7968912e-05   6.8599104e-05  -5.7103748e-06  -8.7748427e-05  -1.4292420e-05  -1.4483319e-04  -3.5603513e-04  -6.3998392e-05   1.1070599e-04   8.0690713e-04  -6.2328152e-05   1.2593702e-04  -4.7624682e-05   5.0720810e-05   7.3172283e-05  -1.6456479e-04   5.4185355e-05  -6.1740837e-05  -5.7719069e-05  -3.6106914e-05   3.0270798e-04   2.6647688e-04   3.0711140e-05   1.8169476e-06  -3.0311598e-05   6.2493978e-05
   1.4284154e-04   5.0214559e-05   7.6381133e-05   1.0176627e-04   1.2669975e-05   7.7157703e-05   1.4205121e-04   4.7941059e-05   2.3846410e-04  -2.3492962e-06   1.4868454e-04   7.9810998e-06   5.6501380e-05  -7.0959068e-05  -7.3834432e-05   7.8478806e-05   9.6925403e-05   4.5820780e-06   2.2400606e-04   1.5576973e-04   1.5293746e-05   7.9719764e-05   1.0557352e-04   6.3886408e-05   5.7462006e-05   6.3279011e-05   2.2586761e-05  -5.0522991e-05   5.4958025e-05  -1.1500129e-04  -3.4726341e-04  -7.1508868e-05   1.0452502e-04   7.9041719e-04  -3.2887292e-05   1.4758417e-04  -1.7945317e-06   4.9109447e-05   2.5860767e-04  -1.3733566e-04   7.0947441e-05  -1.9972373e-05  -4.8816331e-05   1.1743249e-04   3.0353380e-04   1.7776655e-04   1.0077109e-04  -2.7336152e-06   1.1720019e-04  -1.5236858e-06
   1.7415875e-04   6.7476329e-05   9.0190166e-05   1.0679135e-04   9.3342724e-06   8.3754916e-05   1.6095021e-04   4.9526425e-05   2.6605945e-04   1.3738241e-05   1.6446649e-04   2.2814327e-05   6.1485385e-05  -7.2901879e-05  -6.3118387e-05   7.4302807e-05   1.0109054e-04  -4.0869119e-07   2.2212425e-04   1.5761422e-04   5.4177715e-05   1.0171677e-04   1.1437012e-04   7.0413626e-05   7.2690615e-05   9.1157366e-05   1.4997284e-05  -6.6258166e-05   1.0863166e-05  -1.3892392e-04  -3.5724411e-04  -8.6396765e-05   9.6606818e-05   7.8462693e-04  -4.9823862e-05   1.4646076e-04  -5.5201443e-05   4.8972430e-05   9.2708964e-05  -1.5645493e-04   7.1172661e-05  -2.7305901e-05  -3.8304130e-05  -3.1043081e-05   2.6117367e-04   2.3114137e-04   6.4283071e-05   1.5816109e-05   1.1117184e-04  -6.2081649e-06
   1.8206358e-04   4.2089872e-05   8.9748100e-05   1.0166600e-04   1.4476756e-05   8.6373533e-05   1.7071152e-04   5.6330191e-05   2.5607910e-04   5.5960800e-06   1.3626726e-04   1.2783256e-07   4.9399183e-05  -6.6312779e-05  -6.4422304e-05   6.9380461e-05   9.0755435e-05   4.5995759e-07   1.9367614e-04   1.4642916e-04   3.5022204e-05   9.6979282e-05   1.0386390e-04   6.0821603e-05   8.6358850e-05   7.1259317e-05   2.1235843e-05  -5.7834142e-05   2.7394210e-05  -1.1344482e-04  -3.5827249e-04  -9.0865331e-05   6.8462883e-05   7.7684032e-04  -4.5254128e-05   1.2574732e-04  -1.8181438e-05   5.3788139e-05   1.3630548e-04  -1.3439709e-04   7.0509646e-05  -4.4333472e-05  -4.2701242e-05   2.6072528e-05   1.9356787e-04   2.1775078e-04   5.0355287e-05   2.4255756e-05   5.8673922e-05   4.1273070e-06
   1.8991301e-04   1.0621704e-04   8.9711779e-05   1.0720544e-04   2.2876524e-05   1.0425046e-04   1.7833895e-04   5.3464832e-05   2.3094642e-04  -6.7914721e-06   1.1791942e-04  -1.2305945e-05   6.0300255e-05  -5.7217807e-05  -4.1542258e-05   7.4056043e-05   8.7253662e-05  -9.6168505e-06   2.0558976e-04   1.3484761e-04   2.5458234e-05   9.5338422e-05   1.0684290e-04   6.7869863e-05   9.0710200e-05   7.0227776e-05   3.1240106e-05  -3.7695150e-05   5.9028633e-05  -1.0254425e-04  -3.5688034e-04  -1.1025879e-04   9.0574205e-05   7.9486007e-04  -2.6570573e-05   1.3282357e-04   1.6295508e-05   4.8544593e-05   2.8613320e-04  -1.4009852e-04   8.6480795e-05  -4.3915670e-06  -3.7188860e-05   2.6050591e-05   2.6702532e-04   2.4465646e-04   1.0059305e-04  -1.1873986e-05   1.6900183e-05   2.7493013e-05
   2.2143532e-04   1.0695398e-04   9.9465200e-05   1.1119633e-04   1.7163917e-05   1.1506661e-04   1.9042514e-04   5.6084558e-05   2.3954213e-04   1.1252910e-05   1.1835155e-04   2.8571810e-06   6.2129984e-05  -4.7337056e-05  -4.7568192e-05   7.3370175e-05   9.0801179e-05  -2.3983198e-06   1.9751271e-04   1.4004939e-04   3.6072859e-05   1.0455300e-04   1.0216804e-04   7.0799317e-05   1.0984687e-04   8.4853040e-05   3.5744873e-05  -5.8685418e-05   4.3724736e-05  -1.0062174e-04  -3.3982858e-04  -9.9293968e-05   9.6712822e-05   8.0566865e-04  -3.5944868e-05   1.4603023e-04   2.5943234e-06   5.3916225e-05   1.3135771e-04  -1.4379248e-04   8.2612511e-05  -2.4459499e-05  -2.9054623e-05  -1.5049163e-05   2.8654796e-04   2.0922670e-04   3.6065590e-05   5.5825665e-05  -2.3819353e-05  -1.9360370e-05
   2.0954492e-04   1.0187747e-04   8.4600229e-05   9.9925805e-05   1.8939814e-05   1.1736851e-04   2.0007648e-04   4.7641148e-05   2.4645866e-04   3.6524032e-06   1.0018829e-04  -7.8437643e-06   6.6630819e-05  -3.7262726e-05  -2.3270202e-05   7.5703982e-05   9.0299385e-05  -9.0887634e-06   1.6772082e-04   1.1484797e-04   4.2023614e-05   9.2782851e-05   9.2746683e-05   7.8770412e-05   8.9412351e-05   7.4788120e-05   4.9218357e-05  -5.5237273e-05   2.2859784e-05  -8.3770312e-05  -3.3272416e-04  -1.1927626e-04   8.5428095e-05   8.0250349e-04  -2.3578543e-05   1.5762773e-04   5.0573485e-06   5.3291293e-05   1.7846301e-04  -1.2808014e-04   8.0147765e-05  -2.3007033e-06  -7.4440759e-06   2.8718592e-05   1.8274471e-04   1.7367731e-04   5.4454562e-05   4.6882178e-05  -2.4185450e-05  -4.5963723e-05
   2.2677223e-04   1.1367840e-04   8.2868290e-05   1.0722694e-04   2.5594938e-05   1.4080633e-04   2.1018999e-04   7.5336036e-05   2.2091575e-04  -9.1758500e-07   8.9333531e-05  -1.5617083e-05   6.6484063e-05  -3.2881002e-05  -3.1481020e-05   7.5740638e-05   8.4865213e-05  -2.1280628e-06   1.8165792e-04   1.0961617e-04   6.6593799e-05   1.2493742e-04   1.0754471e-04   8.6099688e-05   9.3057963e-05   7.1701106e-05   6.3709209e-05  -3.0588690e-05   9.0648551e-05  -8.5103093e-05  -3.3627174e-04  -1.0493208e-04   1.1207067e-04   7.7952759e-04  -1.9362587e-05   1.7041118e-04   4.3754066e-05   3.9617036e-05   3.0800432e-04  -1.3722936e-04   1.1052322e-04  -3.2190901e-06  -5.5067278e-05   4.4354423e-05   2.5375045e-04   2.0715324e-04   1.1629374e-04   4.7090503e-05   2.5018342e-05  -2.3468510e-05
   2.4790384e-04   1.3119276e-04   1.0673031e-04   1.0505830e-04   2.5421426e-05   1.2608308e-04   2.0831198e-04   6.6623237e-05   1.9603470e-04   1.9063042e-05   9.2211420e-05   3.3104272e-06   7.8686608e-05  -5.4795302e-05  -4.4680790e-05   7.7297154e-05   7.8843106e-05  -9.5098103e-06   1.8765345e-04   1.1613996e-04   8.0521771e-05   1.4784219e-04   1.1989349e-04   8.1127764e-05   1.3886113e-04   1.1395083e-04   6.1650870e-05  -4.5171622e-05   7.7254954e-05  -1.2230995e-04  -3.3967532e-04  -1.0234493e-04   1.2446006e-04   7.8809727e-04  -3.5775141e-05   1.6313209e-04  -1.4012704e-05   5.3499371e-05   1.4880023e-04  -1.4196578e-04   9.1565489e-05  -2.8774142e-05  -5.2149902e-05   1.2389195e-05   2.0005730e-04   2.4202367e-04   7.0993075e-05   3.4575212e-05   7.1270755e-05   1.9042322e-05
   2.3887912e-04   9.8945806e-05   9.8221644e-05   1.0289554e-04   3.3608965e-05   1.3429260e-04   2.2616416e-04   7.8708246e-05   1.8968020e-04   1.1033748e-05   8.0995989e-05  -1.2272938e-06   7.1925897e-05  -6.0786020e-05  -5.8350208e-05   8.0293670e-05   7.1839240e-05  -7.6200995e-06   1.5675741e-04   1.0897045e-04   4.0191866e-05   1.4447627e-04   1.1628604e-04   6.9840942e-05   1.3809830e-04   1.0518474e-04   6.4317734e-05  -4.1125630e-05   9.7775766e-05  -1.0422702e-04  -3.3370918e-04  -1.0619500e-04   1.1736638e-04   7.7761326e-04  -3.5548121e-05   1.6103886e-04   4.9366354e-05   6.3083549e-05   2.1061163e-04  -1.5506848e-04   1.0107194e-04  -1.4392664e-05  -7.6735516e-05  -3.0291108e-05   2.1819276e-04   2.0262074e-04   6.3046042e-05   4.4906992e-05   5.5262604e-05   3.0171244e-05
   2.4544861e-04   1.0088484e-04   9.8664859e-05   1.0518136e-04   4.2990807e-05   1.5811888e-04   2.2204260e-04   1.0089730e-04   1.8937349e-04   7.1987342e-06   7.1749986e-05  -8.9544164e-06   8.4587635e-05  -4.0129518e-05  -4.7464531e-05   8.9024878e-05   7.1097798e-05  -2.4019155e-06   1.9149864e-04   1.0159928e-04   6.5707020e-05   1.5816787e-04   1.2710347e-04   7.1495153e-05   1.2931747e-04   9.2137881e-05   8.1725062e-05  -1.6558093e-05   1.1313216e-04  -9.1848902e-05  -3.3310996e-04  -1.0388300e-04   1.0990723e-04   7.8507623e-04  -1.7913273e-05   1.8307673e-04   7.3800278e-05   6.1340004e-05   3.1312060e-04  -1.1555629e-04   8.6474683e-05   4.3567784e-06  -6.8419045e-05  -6.5841967e-05   2.1084782e-04   1.7193561e-04   1.5417424e-04   5.3069129e-05   1.2585977e-05   1.6978614e-05
   2.5567930e-04   8.5129985e-05   1.0398663e-04   1.0484074e-04   3.6470781e-05   1.5635949e-04   2.1419105e-04   8.3240200e-05   1.8541772e-04   2.2968081e-05   9.3497132e-05   7.7485083e-06   8.8425324e-05  -4.4950346e-05  -4.7702637e-05   8.1109545e-05   8.4775202e-05  -3.2304863e-06   1.6667793e-04   1.0884640e-04   6.3042375e-05   1.5365120e-04   1.3049552e-04   7.5598713e-05   1.2751207e-04   1.2204642e-04   8.3945772e-05  -3.1189709e-05   9.7756281e-05  -1.0242710e-04  -3.3305865e-04  -1.0337862e-04   1.0265606e-04   7.8417023e-04  -3.3585784e-05   1.9571336e-04   4.1953914e-05   5.5903827e-05   1.3492376e-04  -1.4523015e-04   5.9820843e-05  -1.9145480e-05  -8.0079139e-05  -8.9737812e-05   1.4123821e-04   1.9427683e-04   7.1073169e-05   6.6934139e-05   4.0148778e-05  -8.4897474e-06
   2.5273662e-04   1.0282492e-04   1.0261051e-04   9.9992736e-05   4.1297641e-05   1.5484579e-04   2.2643662e-04   8.3206716e-05   1.5329641e-04   1.1703594e-05   7.6270640e-05  -1.1200274e-06   7.3677526e-05  -4.7222071e-05  -6.4938642e-05   8.7910295e-05   7.9641934e-05  -6.8158433e-06   1.5268699e-04   9.6939133e-05   4.2916847e-05   1.4514134e-04   1.2520411e-04   6.6392407e-05   1.2919046e-04   1.0726456e-04   8.1061597e-05  -2.0423797e-05   1.1276564e-04  -9.7073054e-05  -3.3678071e-04  -1.0999451e-04   9.8728255e-05   7.6795672e-04  -3.2304371e-05   1.6061730e-04   2.7049178e-05   5.5813343e-05   2.1160064e-04  -1.5160012e-04   7.8958823e-05  -4.0074745e-05  -6.4261134e-05  -1.1774992e-04   1.8527739e-04   2.1843285e-04   6.2403851e-05   6.0980707e-05   7.3049712e-05   1.4750267e-05
   2.6092716e-04   1.1285752e-04   1.0194968e-04   1.0590129e-04   4.8672558e-05   1.7199203e-04   2.3564862e-04   1.0253870e-04   1.6485521e-04  -1.1700795e-06   7.1052222e-05  -9.3086974e-06   8.3418934e-05  -3.7823629e-05  -5.7641486e-05   1.0270242e-04   7.5153672e-05  -7.3958468e-06   1.6121882e-04   9.4814081e-05   2.3490355e-05   1.5950305e-04   1.3345129e-04   7.1075796e-05   1.3352318e-04   1.1094141e-04   9.1443049e-05  -3.3846509e-06   1.2472316e-04  -7.4791598e-05  -3.2694612e-04  -1.0104593e-04   1.2767693e-04   7.7225076e-04  -2.6376556e-05   1.9024120e-04   9.9694043e-05   6.9630616e-05   3.2557701e-04  -1.3812361e-04   8.2136357e-05  -3.3479228e-05  -6.7866138e-05  -6.1023402e-05   2.0305019e-04   2.0832305e-04   1.0637860e-04   4.2911804e-05   1.0278462e-05   5.3764059e-05
   2.5866949e-04   7.8968878e-05   1.0803029e-04   1.0628947e-04   4.3813918e-05   1.6577881e-04   2.2076843e-04   8.3186809e-05   1.4294572e-04   8.2611614e-06   8.5927313e-05   3.2213577e-06   7.7754252e-05  -3.8899001e-05  -7.2304065e-05   9.5860792e-05   7.5061012e-05  -1.4059890e-05   1.3602906e-04   9.5661351e-05   8.2380349e-05   1.6780420e-04   1.3544713e-04   5.0535466e-05   1.3479310e-04   1.1925561e-04   7.1131632e-05  -3.0631829e-05   1.1795574e-04  -9.8508201e-05  -3.4143557e-04  -1.0795707e-04   9.1606147e-05   7.4827869e-04  -4.7761016e-05   1.6593706e-04   4.8113554e-05   5.8671299e-05   1.6126815e-04  -1.5953062e-04   7.4973803e-05  -5.7768979e-05  -7.4085903e-05  -1.2690695e-04   1.9827572e-04   1.5691842e-04   6.7326306e-05   6.9421025e-05  -1.2740769e-05   1.0467606e-05
   2.5831035e-04   9.2685303e-05   1.0662052e-04   1.0302059e-04   4.8545393e-05   1.6208383e-04   2.2482852e-04   9.2578513e-05   1.1934905e-04  -1.8841002e-06   6.9011934e-05  -2.2593210e-06   6.8255125e-05  -3.4893354e-05  -8.8469795e-05   9.0216796e-05   6.3529638e-05  -1.9536401e-05   1.3030159e-04   8.6456072e-05   5.3405667e-05   1.5492183e-04   1.1129231e-04   3.4754903e-05   1.3876078e-04   1.2175694e-04   8.9249043e-05  -2.9002591e-05   1.1737867e-04  -9.0909336e-05  -3.3104379e-04  -1.0534973e-04   1.0362504e-04   7.5363729e-04  -3.8494985e-05   1.7098898e-04   8.6864704e-05   6.2550658e-05   2.2210726e-04  -1.4850513e-04   6.3970183e-05  -6.5973807e-05  -6.1355837e-05  -3.1667034e-05   1.8862876e-04   2.0231862e-04   3.7486745e-05   7.6521836e-05   4.8937451e-05  -2.6219650e-05
   2.6407780e-04   7.0432347e-05   1.0605480e-04   1.0490739e-04   5.8558875e-05   1.7380955e-04   2.2953805e-04   9.1127091e-05   1.3352485e-04  -1.7338331e-05   6.0550396e-05  -1.5873749e-05   6.8389425e-05  -2.6727888e-05  -8.0085454e-05   9.7950193e-05   6.4622996e-05  -1.8293187e-05   1.2620732e-04   8.7105429e-05   4.7908110e-05   1.6513438e-04   1.3606380e-04   5.6152719e-05   1.4968782e-04   1.2468689e-04   1.0190269e-04   5.2575424e-06   1.5772671e-04  -7.5318159e-05  -3.2387805e-04  -1.0739402e-04   7.5482931e-05   7.3295925e-04  -1.9264977e-05   1.6297183e-04   1.2179981e-04   6.2531988e-05   3.4642796e-04  -1.2237603e-04   5.9945287e-05  -8.2530772e-05  -7.1864502e-05  -9.7014243e-05   1.9004525e-04   1.7513744e-04  -1.8647521e-05   4.9916340e-05   6.5555014e-06   5.1316874e-05
   2.6636239e-04   8.2751700e-05   1.1652847e-04   1.0816055e-04   5.0579139e-05   1.5528263e-04   2.2490689e-04   9.8755772e-05   1.3308629e-04  -1.1969209e-05   7.8845362e-05  -8.7341999e-07   6.6104381e-05  -3.0767394e-05  -7.8616460e-05   9.3190174e-05   6.4632019e-05  -2.0516823e-05   1.1462781e-04   8.6868800e-05   3.9427330e-05   1.7052812e-04   1.1230358e-04   3.3479573e-05   1.1993796e-04   1.2695481e-04   7.2718460e-05  -1.4519076e-05   1.1920302e-04  -9.4734663e-05  -3.3191379e-04  -1.0194019e-04   9.2840142e-05   7.3698914e-04  -3.7841579e-05   1.5905421e-04   9.6575372e-05   5.4953496e-05   2.0064233e-04  -1.4442319e-04   5.2431969e-05  -8.3048108e-05  -8.6115710e-05  -1.9849163e-04   1.8844080e-04   1.9187393e-04   4.1189414e-05   7.6318451e-05   2.5901847e-05   5.8360274e-05
   2.6911256e-04   6.6537643e-05   1.1059160e-04   1.0416695e-04   5.1444698e-05   1.4897127e-04   2.1315763e-04   9.9014265e-05   1.1310094e-04  -2.8652130e-05   5.8092770e-05  -1.4744711e-05   5.4115779e-05  -2.7045859e-05  -8.1141960e-05   9.5025483e-05   5.8244204e-05  -1.9782789e-05   1.0982278e-04   7.8173296e-05   5.1810242e-05   1.6074486e-04   9.9642624e-05   1.7412212e-05   1.1215732e-04   1.1805951e-04   9.3863448e-05  -2.5348811e-06   1.3780818e-04  -9.2244853e-05  -3.3610134e-04  -1.0746448e-04   1.0202765e-04   7.2186225e-04  -3.7778533e-05   1.6818914e-04   8.1014776e-05   4.8278336e-05   2.2190939e-04  -1.3105701e-04   5.8489139e-05  -1.2459494e-04  -8.2579449e-05  -1.0849261e-04   1.4160493e-04   1.6748086e-04   1.2796886e-05   4.7017646e-05   2.3121170e-06   8.0612343e-05
   2.7377572e-04   8.1550585e-05   1.1337757e-04   1.1196513e-04   5.7371297e-05   1.5506425e-04   2.1075847e-04   1.0559816e-04   1.1609455e-04  -3.6606831e-05   5.5050255e-05  -1.5793436e-05   5.1783081e-05  -6.5713643e-06  -6.5312059e-05   9.8809403e-05   5.4358054e-05  -1.7939239e-05   9.7209093e-05   7.7776021e-05   2.7460337e-05   1.6603684e-04   1.0682192e-04   1.1352871e-05   1.1437968e-04   1.2003379e-04   1.0851917e-04   5.3703152e-06   1.4429005e-04  -7.8868492e-05  -3.3032903e-04  -1.0136468e-04   1.1170570e-04   7.6319557e-04  -1.1156715e-05   1.5625845e-04   1.2894045e-04   5.2368323e-05   3.2421484e-04  -1.3625011e-04   5.6176421e-05  -9.1730384e-05  -8.0287558e-05  -8.8536457e-05   1.8022239e-04   1.8336896e-04   4.9174152e-05   4.7221725e-05   1.0709804e-04  -2.5787931e-06
   2.9567609e-04   8.8788882e-05   1.1906815e-04   1.1601524e-04   5.6656929e-05   1.5316324e-04   2.0365539e-04   9.7582692e-05   1.3158226e-04  -2.7875742e-05   6.3167288e-05  -3.1615157e-06   4.9608389e-05  -3.3739641e-05  -6.0527174e-05   8.7892775e-05   5.9267233e-05  -2.3832810e-05   8.1850092e-05   8.8054250e-05   2.2971419e-05   1.5760963e-04   9.0575260e-05   1.0416050e-05   1.1194425e-04   1.2585135e-04   9.6020252e-05   1.7034745e-06   1.3702316e-04  -9.3177339e-05  -3.3014812e-04  -1.1034159e-04   1.1467163e-04   7.2838669e-04  -3.3921628e-05   1.3745292e-04   8.7518150e-05   5.1019382e-05   1.8844352e-04  -1.5513346e-04   2.9348610e-05  -1.2208951e-04  -7.3491006e-05  -1.1497014e-04   1.8098552e-04   1.7130670e-04   1.1597858e-05   9.0305875e-05  -3.6959882e-05   5.9916132e-05
   2.7849723e-04   1.0530728e-04   1.1263016e-04   1.1182604e-04   5.5498858e-05   1.4347314e-04   2.0151836e-04   9.6319221e-05   9.8128097e-05  -3.8276841e-05   4.5050518e-05  -9.6578760e-06   4.4828881e-05  -1.6470864e-05  -5.4858825e-05   9.1634960e-05   5.4357693e-05  -2.0364992e-05   8.6451866e-05   8.4362619e-05   3.2820710e-05   1.5374138e-04   8.3172941e-05   4.8174275e-06   1.2628963e-04   1.2199632e-04   8.8220768e-05   8.2983261e-06   1.5394867e-04  -8.4422776e-05  -3.3146920e-04  -1.0059318e-04   9.5787946e-05   7.4837130e-04  -2.6946778e-05   1.3610108e-04   1.0788183e-04   6.2459505e-05   2.4161417e-04  -1.2411991e-04   3.4966200e-05  -8.0896658e-05  -6.7534966e-05  -9.5270458e-05   1.6596106e-04   1.7349733e-04  -7.6344650e-06   3.3645098e-05  -4.4094635e-05   7.2529601e-06
   2.7969884e-04   7.1635033e-05   1.1968759e-04   1.1839368e-04   6.3647407e-05   1.3996342e-04   2.0531951e-04   9.3067181e-05   1.0782078e-04  -4.9408045e-05   4.8631740e-05  -1.1445019e-05   4.8361257e-05  -1.2191607e-05  -5.5094013e-05   9.8477249e-05   5.6502136e-05  -2.2665183e-05   8.4687119e-05   8.7950386e-05   1.8831244e-05   1.5454534e-04   8.9576621e-05   1.8970311e-05   1.4471350e-04   1.0691858e-04   1.0831690e-04   1.6042286e-05   1.4118558e-04  -6.3305670e-05  -3.1957115e-04  -9.6588679e-05   9.6872878e-05   7.2209298e-04  -5.3979961e-06   1.4453370e-04   1.5139315e-04   5.8955513e-05   3.4458700e-04  -1.2506534e-04   6.0389855e-05  -1.0605001e-04  -6.5036082e-05  -1.4394146e-04   1.6919617e-04   2.2254819e-04  -1.4808907e-05  -4.1792173e-06  -1.6741312e-04   5.2065247e-05
   2.8628373e-04   1.1354344e-04   1.2184159e-04   1.1230890e-04   4.8939899e-05   1.4289586e-04   1.9601778e-04   8.8938810e-05   1.2288523e-04  -3.2822569e-05   6.0492963e-05   1.1067756e-05   5.0737715e-05  -8.2175020e-06  -4.9478775e-05   9.0682952e-05   6.5305561e-05  -1.4970375e-05   8.6831496e-05   9.5969262e-05  -6.6333810e-06   1.4410315e-04   7.2517236e-05   1.3140030e-05   1.3026188e-04   1.2620869e-04   7.7467732e-05  -3.2769840e-06   1.1669574e-04  -8.3760089e-05  -3.2821330e-04  -1.0580534e-04   5.5767021e-05   7.4497273e-04  -2.3568249e-05   1.7190666e-04   9.8040298e-05   4.1521773e-05   1.8122987e-04  -1.2835489e-04   3.3285676e-05  -7.9017060e-05  -5.6277844e-05  -1.1007976e-04   1.4145755e-04   1.7320222e-04  -3.1223415e-05   5.0569852e-05  -1.0291064e-05   4.1093001e-05
   2.6758682e-04   1.0423517e-04   1.1295275e-04   1.0613775e-04   5.5321078e-05   1.4647558e-04   1.9546637e-04   8.4977473e-05   1.0312473e-04  -4.3319167e-05   4.3450073e-05   1.6193540e-06   4.2722157e-05  -1.5721738e-05  -3.1283929e-05   8.7061802e-05   5.3141997e-05  -2.0313380e-05   7.4311349e-05   9.6028743e-05  -8.8402030e-06   1.2723071e-04   7.2248753e-05   2.4526894e-06   1.2728015e-04   1.1400918e-04   9.9493067e-05   4.3645905e-06   1.4780329e-04  -7.4540483e-05  -3.2285391e-04  -1.1326760e-04   6.4155633e-05   7.2942115e-04  -1.2060626e-05   1.4070593e-04   9.7919052e-05   4.5742145e-05   2.3851138e-04  -1.5036963e-04   3.0407116e-05  -1.1214334e-04  -5.6912533e-05  -1.1594565e-04   1.1451993e-04   1.7434813e-04  -1.5726302e-05   7.2047122e-05  -3.5264334e-06   2.9609262e-05
   2.7679442e-04   9.1394460e-05   1.0853758e-04   1.0393755e-04   6.2967876e-05   1.4347675e-04   1.9796967e-04   1.1724173e-04   1.2423939e-04  -4.7699668e-05   4.8681792e-05   1.4072036e-06   5.4313932e-05   7.0496121e-06  -2.7620466e-05   9.4449562e-05   5.9104525e-05  -1.8767605e-05   8.5759624e-05   1.0384482e-04  -2.0318766e-05   1.1612930e-04   7.3106836e-05   1.4267913e-05   1.2257925e-04   9.7711287e-05   9.1071764e-05   1.1109448e-05   1.4583286e-04  -5.5086319e-05  -3.0912887e-04  -1.1236080e-04   8.9142988e-05   7.4012415e-04   1.2736722e-05   1.3852619e-04   1.5622553e-04   6.1633356e-05   3.4070399e-04  -1.1420934e-04   4.1104613e-05  -9.5409298e-05  -3.6724490e-05  -8.2419712e-05   1.3320160e-04   1.7875506e-04  -2.0932718e-07   7.6573138e-05   1.1121672e-04   2.1053442e-05
   2.7074633e-04   1.0072950e-04   1.0909118e-04   1.0481932e-04   4.8694787e-05   1.4524200e-04   1.9759467e-04   8.0409307e-05   1.2557251e-04  -3.1675365e-05   6.5914595e-05   2.3293276e-05   5.8360925e-05  -7.8256280e-06  -2.1531816e-05   9.0376234e-05   6.7103625e-05  -1.4916779e-05   1.1050487e-04   1.0744754e-04  -3.4778262e-05   1.1726101e-04   6.7668312e-05   1.7475622e-05   1.2717633e-04   1.2235189e-04   7.4898278e-05   8.1146682e-06   1.1054259e-04  -8.0749713e-05  -3.1509070e-04  -1.2155901e-04   5.5700479e-05   7.3579216e-04  -1.5255353e-05   1.5070738e-04   7.4620009e-05   5.5476099e-05   1.4697165e-04  -1.5650588e-04   4.9756545e-05  -4.7775295e-05  -9.0427648e-06  -1.9815798e-04   6.8900059e-05   1.7231572e-04   1.1812953e-06   4.1533847e-05  -5.6518329e-05   2.3193239e-05
   2.5075010e-04   5.2704629e-05   9.9513447e-05   9.2769631e-05   4.7422815e-05   1.4330406e-04   1.8135128e-04   9.3505383e-05   1.1373703e-04  -4.0222571e-05   4.3311255e-05   1.3853127e-05   5.1438608e-05  -9.4878133e-06  -1.8782333e-05   8.9261346e-05   5.8954181e-05  -1.3463839e-05   7.8372148e-05   1.0556186e-04  -2.5207259e-05   8.7428329e-05   6.6771834e-05   1.4857988e-05   1.0280441e-04   1.0159019e-04   8.9641631e-05   2.0862586e-05   1.0931107e-04  -5.3353793e-05  -3.0683461e-04  -1.1898114e-04   5.8654550e-05   7.4178347e-04  -2.8257700e-06   1.4134760e-04   1.1679758e-04   5.5917695e-05   2.2276626e-04  -1.2908541e-04   6.1193103e-05  -6.3933090e-05  -4.9459895e-06  -1.4713063e-04   8.1346683e-05   1.5277258e-04  -2.2827537e-05   3.3389864e-05  -3.4002889e-05   9.0110018e-07
   2.3828512e-04   8.4347033e-05   9.7562006e-05   9.0495712e-05   5.4471173e-05   1.6732507e-04   1.7937711e-04   9.8827208e-05   1.1251561e-04  -4.4732107e-05   4.2153079e-05   1.7022086e-05   6.6391534e-05   1.0834481e-05   4.5768061e-07   9.7281758e-05   6.3536914e-05  -9.6460171e-06   7.3006195e-05   1.0001226e-04  -7.5221687e-05   8.0462858e-05   6.8203160e-05   1.4653750e-05   9.1480317e-05   8.5218475e-05   9.6534110e-05   2.9634635e-05   1.0239558e-04  -4.3586489e-05  -3.0006710e-04  -1.2495635e-04   6.3752312e-05   7.4102811e-04   2.1878059e-05   1.5629594e-04   1.4778168e-04   5.9898673e-05   3.5665531e-04  -1.2458739e-04   7.6218246e-05  -1.5204947e-05   5.2160194e-06  -1.5882772e-04   5.1541774e-05   1.8896452e-04  -2.0700509e-05   8.3128478e-05  -8.3248902e-05  -2.1987551e-05
   2.3136921e-04   7.5876320e-05   9.9908888e-05   9.2499045e-05   4.3932410e-05   1.6063865e-04   1.9197002e-04   9.8832214e-05   1.0652097e-04  -3.0631880e-05   5.9470050e-05   3.8925562e-05   6.9188383e-05   2.1608555e-05   1.1096488e-06   9.8633456e-05   6.6013090e-05  -8.6438677e-06   9.3755640e-05   1.1007534e-04  -8.2886982e-05   8.9140209e-05   7.2489915e-05   2.0837038e-05   1.0415622e-04   1.0020717e-04   9.4543269e-05   8.8382676e-06   1.2434866e-04  -6.4445143e-05  -3.0424664e-04  -1.2678682e-04   7.4272459e-05   7.3411141e-04  -1.3548865e-07   1.4365716e-04   9.6800926e-05   5.9167178e-05   1.7095878e-04  -1.1546342e-04   4.7431473e-05  -1.6990733e-05   2.0857031e-05  -8.5203872e-05   9.5927920e-05   1.7619754e-04  -8.7447981e-05   4.7815225e-05  -8.3347353e-05   3.0640269e-05
   2.1769029e-04   7.3535746e-05   9.2235925e-05   8.3612846e-05   4.6329274e-05   1.5477320e-04   1.6326115e-04   9.8089455e-05   8.0564736e-05  -3.4678462e-05   3.9269205e-05   2.9045334e-05   6.6913854e-05   1.1581011e-05  -4.0843015e-06   9.3060866e-05   6.1100487e-05  -1.0264750e-05   9.4640440e-05   1.0176187e-04  -4.0328738e-05   7.7296354e-05   6.8444067e-05   1.9648476e-05   1.0917158e-04   8.9950270e-05   7.8803118e-05   1.9824300e-05   1.2373860e-04  -6.2892526e-05  -3.1032567e-04  -1.2441215e-04   8.3897816e-05   7.2667853e-04  -1.7929912e-06   1.2468502e-04   7.4266383e-05   6.0903742e-05   2.2139352e-04  -1.4134542e-04   6.0213213e-05  -4.6563302e-05   2.5737372e-06  -1.3720314e-04   4.3679560e-05   1.6954196e-04   1.0917835e-05   1.1197451e-04  -4.7000587e-05  -1.3765801e-05
   2.0981851e-04   8.1593440e-05   9.1508016e-05   8.7126682e-05   5.3737014e-05   1.6690302e-04   1.8121983e-04   9.6554395e-05   1.0106812e-04  -3.6199664e-05   3.5297886e-05   2.7108057e-05   6.7775996e-05   2.6970223e-05   1.3175796e-05   1.0117635e-04   5.7146171e-05  -1.0189460e-05   9.3273084e-05   9.9999626e-05  -6.6694593e-05   7.9707104e-05   6.9347530e-05   1.0332893e-05   9.5685515e-05   7.0159498e-05   9.6953656e-05   4.0611187e-05   1.2400693e-04  -4.2934837e-05  -2.9947073e-04  -1.1545476e-04   6.7300571e-05   7.5180130e-04   2.1929092e-05   1.2769291e-04   1.5198116e-04   6.5032058e-05   3.6982130e-04  -1.2267155e-04   5.7809313e-05  -4.2393040e-06   2.4251347e-05  -1.3900899e-04   7.2021619e-05   1.7774387e-04  -4.9373110e-05   8.3044324e-05  -1.6569289e-04   2.5553369e-05
   2.0534586e-04   1.0503722e-04   9.4500603e-05   9.0477799e-05   4.6895173e-05   1.6424556e-04   1.7812052e-04   1.0069568e-04   1.0545693e-04  -2.0959131e-05   5.4953864e-05   4.9306353e-05   8.1798455e-05   2.7252212e-05   5.3777658e-06   1.0811150e-04   6.6721230e-05  -1.1876651e-06   1.0763894e-04   1.0795202e-04  -7.0381633e-05   8.5665888e-05   6.5243112e-05   2.6479274e-05   1.1597889e-04   9.3097093e-05   9.0887508e-05   2.8600811e-05   1.0113187e-04  -6.2748783e-05  -3.0264302e-04  -1.1641294e-04   7.6668759e-05   7.6870341e-04   1.7742252e-05   1.5342969e-04   1.0134664e-04   5.7902012e-05   2.2982326e-04  -1.3773153e-04   5.6743102e-05   6.5252216e-06   1.3375957e-05  -1.2210765e-04   4.5286895e-05   1.3043599e-04   1.7693539e-05   1.2192167e-04  -1.1228558e-04   8.8069428e-06
   2.0824812e-04   8.9106732e-05   9.4157942e-05   8.0487102e-05   4.5442477e-05   1.5687414e-04   1.7384627e-04   9.8421013e-05   9.2051654e-05  -2.7195994e-05   4.8186808e-05   4.1504358e-05   8.2399922e-05   1.7939294e-05   5.8789487e-06   1.0934148e-04   5.9994600e-05  -2.6375546e-06   1.0711640e-04   1.0912291e-04  -5.7718873e-05   7.8816098e-05   7.3448224e-05   3.3059572e-05   1.1867192e-04   9.6733733e-05   8.3041305e-05   3.9420782e-05   1.1097887e-04  -5.8901176e-05  -3.1004389e-04  -1.1719274e-04   9.0208487e-05   7.5342302e-04   7.1669792e-06   1.1869903e-04   1.0203953e-04   6.5382941e-05   2.6498156e-04  -1.3610043e-04   7.7424469e-05   1.6119056e-05   9.0448075e-06  -7.3155257e-05   1.0247187e-04   1.5786849e-04  -9.5952983e-06   9.5196825e-05  -6.8777721e-05   8.6018417e-06
   1.9224059e-04   7.4323478e-05   9.2690185e-05   8.4089828e-05   5.5915061e-05   1.6129282e-04   1.6714563e-04   9.7763543e-05   8.4197920e-05  -2.8749191e-05   4.0055729e-05   3.6971072e-05   8.7317800e-05   4.2682572e-05   1.6115384e-05   1.2041980e-04   5.7005327e-05  -4.6990854e-06   1.2255275e-04   1.0314005e-04  -8.0294354e-05   7.9093210e-05   8.3483370e-05   2.6903997e-05   1.3257778e-04   8.4875188e-05   1.2204954e-04   5.2443014e-05   1.6929343e-04  -3.7841652e-05  -3.0817842e-04  -1.0934223e-04   8.7927780e-05   7.6627097e-04   3.4013596e-05   1.4800226e-04   1.5480290e-04   7.6041462e-05   3.9399447e-04  -1.0584453e-04   4.4920434e-05   3.0167972e-05  -5.5296955e-06  -4.7961210e-05   9.6244563e-05   1.9192620e-04   4.0040468e-05   7.1597678e-05  -9.6412741e-06   2.3816863e-05
   2.0546143e-04   7.9212943e-05   1.0074628e-04   9.5309129e-05   5.2156520e-05   1.6850924e-04   1.8164865e-04   1.0016987e-04   1.0851394e-04  -1.2281997e-05   5.9205802e-05   5.2003463e-05   9.6386124e-05   3.2837037e-05   1.3247834e-05   1.2096752e-04   6.2058687e-05   9.6418589e-06   1.3883441e-04   1.0970158e-04  -7.6560558e-05   9.6560354e-05   8.7147877e-05   4.5971006e-05   1.4498021e-04   1.0092251e-04   1.1238475e-04   3.3741297e-05   1.5074079e-04  -4.7432568e-05  -3.0019457e-04  -1.0872397e-04   1.1744898e-04   7.7799481e-04   2.4161613e-05   1.5345872e-04   1.0163417e-04   7.2590017e-05   2.6606259e-04  -1.0872644e-04   6.1060629e-05   3.6945374e-05   1.3942457e-05  -4.0497718e-05   1.0294021e-04   1.8345351e-04  -8.7474618e-06   8.0691476e-05  -1.9769675e-05   1.6803597e-05
   1.9104112e-04   7.4437135e-05   9.9010183e-05   8.8798857e-05   5.0574297e-05   1.5912442e-04   1.7623141e-04   9.6168864e-05   9.9137476e-05  -1.9414576e-05   5.0971448e-05   4.1845673e-05   9.1435111e-05   2.8398064e-05   3.9738129e-06   1.2251840e-04   6.1426668e-05   1.2708699e-05   1.3567372e-04   1.0918103e-04  -5.0633560e-05   8.3450454e-05   7.6732671e-05   3.2405042e-05   1.4023733e-04   1.0014428e-04   8.8283487e-05   3.9725837e-05   1.6910222e-04  -5.1201103e-05  -3.0161126e-04  -1.0289905e-04   8.5549502e-05   7.5981976e-04   2.8561570e-05   1.4732880e-04   1.3444372e-04   6.9721224e-05   2.8730792e-04  -1.1990384e-04   7.5712334e-05   4.0580187e-05   3.1649546e-05  -9.4800389e-06   9.5589996e-05   2.2072002e-04   4.0877574e-05   1.0115413e-04  -6.9058711e-05   2.7091168e-05
   2.0168208e-04   7.5858006e-05   9.1927985e-05   9.3429524e-05   5.8060668e-05   1.7340206e-04   1.6420477e-04   1.1177883e-04   1.1683662e-04  -2.3768322e-05   4.4738794e-05   3.1888489e-05   9.1653819e-05   3.9054987e-05   1.8722338e-05   1.2916482e-04   6.8299290e-05   1.3905770e-05   1.7322446e-04   1.1055799e-04  -8.4838823e-05   6.7165929e-05   8.0655591e-05   2.4371704e-05   1.2386152e-04   8.0676495e-05   1.0826730e-04   5.2564948e-05   1.5261845e-04  -2.9059185e-05  -2.9713256e-04  -1.0172935e-04   1.0533423e-04   7.7868311e-04   5.0588224e-05   1.5506566e-04   1.5212041e-04   8.4601488e-05   4.0474199e-04  -7.2278104e-05   6.6004308e-05   5.3535121e-05   3.4068191e-05  -3.5986845e-06   8.7521847e-05   1.5828022e-04   2.0651283e-05   9.7856268e-05   1.2899756e-05  -1.5562984e-05
   2.0080812e-04   9.1128335e-05   9.5524221e-05   1.0189348e-04   4.9340422e-05   1.7934573e-04   1.7548470e-04   9.7529970e-05   1.3727328e-04  -1.0336769e-05   6.6403249e-05   4.5072695e-05   1.0145875e-04   5.0016719e-05   2.2505576e-05   1.2850775e-04   7.4845404e-05   2.1796615e-05   1.6447017e-04   1.1580245e-04  -1.2495287e-04   7.6324861e-05   7.0524227e-05   3.5391935e-05   1.3063419e-04   1.0981172e-04   1.0239802e-04   4.9460104e-05   1.8626201e-04  -3.7870068e-05  -2.9443135e-04  -9.5473639e-05   9.0287278e-05   7.8406377e-04   4.6362788e-05   1.5392576e-04   1.1067912e-04   9.5105795e-05   2.9830227e-04  -9.7322350e-05   7.6275472e-05   1.4822066e-05   3.2739048e-05  -2.1775591e-05   7.1771778e-05   2.3261992e-04  -5.3504242e-05   1.1671597e-04  -6.9597561e-05   3.2662142e-06
   1.9456663e-04   1.0648130e-04   9.1848466e-05   1.0047644e-04   4.9429906e-05   1.5595381e-04   1.6464238e-04   1.0448905e-04   1.1784575e-04  -1.9193647e-05   5.0221857e-05   3.2723594e-05   9.4044204e-05   3.7239464e-05   2.9362382e-05   1.3256332e-04   7.3599113e-05   1.5577745e-05   1.5270305e-04   1.0629691e-04  -8.0160018e-05   7.5563286e-05   5.7876750e-05   1.7229031e-05   1.3747410e-04   9.6875956e-05   1.0339208e-04   3.9323753e-05   2.0185643e-04  -5.0427574e-05  -3.0600221e-04  -1.0242296e-04   9.4345305e-05   7.7776430e-04   2.9823745e-05   1.4222102e-04   1.2756887e-04   8.8549867e-05   2.8927455e-04  -1.0132153e-04   6.3748048e-05   1.8672703e-05   3.5104669e-05  -5.5506484e-06   1.2930291e-04   1.8605863e-04  -4.3799799e-05   1.2224709e-04  -2.9219760e-05   5.1441792e-05
   1.9060758e-04   7.3656483e-05   9.1137030e-05   1.0232667e-04   5.7242116e-05   1.6790503e-04   1.6459914e-04   1.0977461e-04   1.2789956e-04  -3.1197058e-05   4.4206121e-05   2.0673739e-05   9.1747730e-05   4.4118537e-05   2.7784734e-05   1.3502286e-04   6.8400936e-05   2.1018190e-05   1.6549292e-04   1.0677871e-04  -8.8825764e-05   7.5943026e-05   4.6322279e-05   4.1890653e-06   1.1918674e-04   8.9469482e-05   1.0597580e-04   5.4069067e-05   1.8649087e-04  -2.2240443e-05  -3.0266706e-04  -9.5779717e-05   9.7185330e-05   8.0752111e-04   5.7259571e-05   1.3856505e-04   1.2506093e-04   8.6319735e-05   4.2946087e-04  -7.3934149e-05   6.8094603e-05   1.9856558e-05   3.0697749e-05  -2.8712504e-05   6.0873830e-05   1.9130080e-04  -1.8972447e-05   6.2644329e-05  -2.8351951e-05   2.9393657e-05
   1.8221914e-04   1.1421600e-04   9.9565332e-05   1.1270041e-04   4.8737809e-05   1.6892668e-04   1.8097283e-04   1.0884833e-04   1.5403714e-04  -2.1086829e-05   5.8065118e-05   3.0967727e-05   9.5467680e-05   5.1439743e-05   2.2146538e-05   1.3225774e-04   7.6654840e-05   2.5011268e-05   1.7379277e-04   1.1027621e-04  -8.1936407e-05   7.7038872e-05   4.7413534e-05   8.6714199e-06   1.2379119e-04   1.0695472e-04   1.0494124e-04   4.6548314e-05   1.8978270e-04  -3.6149238e-05  -2.9780681e-04  -8.8660250e-05   8.0264370e-05   8.1681536e-04   5.4626715e-05   1.7002113e-04   1.1843114e-04   9.4099625e-05   3.2265388e-04  -7.2942094e-05   7.1362512e-05   1.0620333e-05   5.4008931e-05   3.0506617e-05   5.7673125e-05   2.0619101e-04  -8.7296190e-05   6.7825335e-05   7.2332354e-05   2.4538207e-05
   1.8482427e-04   1.2381829e-04   9.6944575e-05   1.0825498e-04   4.8359987e-05   1.6230137e-04   1.7564095e-04   1.0938536e-04   1.4808511e-04  -3.0094900e-05   4.2804953e-05   1.8184674e-05   8.3570929e-05   4.0012241e-05   3.1860502e-05   1.2434786e-04   7.0390641e-05   2.3702689e-05   1.3498940e-04   9.8922421e-05  -4.4413038e-05   6.3871405e-05   2.6119505e-05  -2.1888103e-05   1.3039936e-04   8.6268730e-05   9.6033000e-05   5.2116698e-05   1.9068898e-04  -4.0626677e-05  -3.1005600e-04  -9.1443573e-05   6.1292769e-05   7.9322909e-04   4.5640914e-05   1.5222708e-04   1.1603640e-04   8.5733001e-05   2.9391903e-04  -9.5288233e-05   7.9050857e-05  -1.6631242e-05   4.3542950e-05  -4.7761780e-05   2.0648682e-05   1.8404874e-04   2.8471341e-05   5.9819300e-05  -2.1493239e-05  -2.9064664e-05
   1.7399277e-04   9.8399600e-05   8.9931316e-05   1.0921308e-04   5.5755667e-05   1.5991971e-04   1.8868037e-04   1.1869894e-04   1.3958884e-04  -4.7134134e-05   2.6696036e-05   6.3472794e-06   7.7760720e-05   4.0124120e-05   3.2153566e-05   1.2891152e-04   7.3008625e-05   2.3276218e-05   1.4856282e-04   1.0144715e-04  -4.0719155e-05   5.5045624e-05   1.3843594e-05  -2.8494353e-05   1.2253859e-04   7.7621102e-05   1.1001703e-04   5.8811100e-05   1.8345659e-04  -3.1964159e-05  -3.0720109e-04  -9.3196686e-05   6.5574430e-05   7.7962870e-04   6.9146328e-05   1.3185958e-04   1.5463970e-04   8.8405715e-05   4.3612934e-04  -7.0454444e-05   7.4099677e-05   1.7882292e-05   4.8311176e-05  -5.3221782e-05   8.3740189e-05   1.4439654e-04  -1.0175671e-04   7.9867968e-05  -6.1479936e-05  -3.3679330e-06
   1.7482668e-04   8.8512614e-05   9.5481853e-05   1.1398193e-04   5.3445525e-05   1.6654986e-04   1.8690382e-04   1.1724170e-04   1.9087890e-04  -3.7631042e-05   4.7407866e-05   1.4289868e-05   8.4544750e-05   5.6664605e-05   3.1438187e-05   1.2649376e-04   7.8691366e-05   2.6193957e-05   1.4866222e-04   1.0868292e-04  -5.6835364e-05   5.5977973e-05   9.0134799e-06  -3.1441450e-05   1.2400777e-04   9.1897396e-05   1.0877486e-04   4.9726936e-05   1.8520199e-04  -3.1519779e-05  -3.0441480e-04  -1.0078653e-04   6.6792243e-05   8.0842676e-04   5.6906778e-05   1.3860231e-04   1.4376489e-04   8.3177772e-05   3.3867726e-04  -7.9542573e-05   8.2322549e-05  -1.5468393e-05   5.4604981e-05  -2.5013727e-05   1.0471969e-04   1.4061261e-04  -5.1917556e-05   9.8957178e-05  -4.1814990e-05  -1.9043835e-05
   1.7900880e-04   1.0403795e-04   8.8619752e-05   1.0893587e-04   4.9363567e-05   1.4980473e-04   1.7946647e-04   1.2234326e-04   1.5221169e-04  -4.9539340e-05   2.7532940e-05   5.6406026e-07   7.3888019e-05   4.9570641e-05   3.0780258e-05   1.1945201e-04   7.3286974e-05   1.8384661e-05   1.1468928e-04   9.4282521e-05  -6.3829480e-05   5.6093450e-05  -1.3098227e-05  -5.6871133e-05   1.0293761e-04   8.1905760e-05   9.8662553e-05   4.9157246e-05   1.7453538e-04  -3.9918032e-05  -3.1437300e-04  -1.0444391e-04   4.2506563e-05   7.9131714e-04   5.7939895e-05   1.2175528e-04   1.3531218e-04   9.5957810e-05   3.3489248e-04  -8.9295638e-05   6.7645720e-05  -1.9434194e-05   4.0869174e-05  -9.1140384e-05   8.0870574e-05   1.2017972e-04  -3.3898486e-05   6.7526787e-05  -7.9725331e-05  -2.4787475e-06
   1.6969211e-04   6.8538597e-05   9.0641748e-05   1.1247181e-04   5.8938243e-05   1.5342170e-04   1.8478051e-04   1.1916016e-04   1.2264556e-04  -6.3010979e-05   1.4040239e-05  -1.3207426e-05   6.9905902e-05   5.2173407e-05   3.4531466e-05   1.2193795e-04   6.4859501e-05   2.2463446e-05   1.1615954e-04   8.8643414e-05  -1.0179698e-04   5.3317621e-05  -1.2846545e-05  -6.6562461e-05   9.6757947e-05   6.2537940e-05   9.7720018e-05   5.9456386e-05   2.0353369e-04  -2.5712734e-05  -3.2089272e-04  -9.6661039e-05   6.7017208e-05   7.8166305e-04   7.3529285e-05   1.3395371e-04   1.5545184e-04   9.4801719e-05   4.5536901e-04  -6.2316554e-05   4.2709631e-05  -3.0449133e-05   3.1779768e-05  -4.1115429e-05  -2.7584018e-05   2.0325113e-04  -3.5907542e-05   3.6427296e-05  -3.7202884e-05  -1.0136971e-05
   1.7870362e-04   7.2057832e-05   9.8718643e-05   1.1646104e-04   5.5536886e-05   1.6192369e-04   1.8671610e-04   1.2046861e-04   1.3878031e-04  -5.5290911e-05   2.8230175e-05  -5.4012085e-06   7.2555726e-05   5.7725425e-05   4.4029559e-05   1.2254386e-04   7.6205630e-05   2.6843649e-05   1.2590970e-04   9.5335825e-05  -5.3730022e-05   5.4234551e-05  -1.6662125e-05  -5.8792717e-05   1.1380673e-04   7.8549703e-05   9.6474672e-05   6.1191648e-05   1.9322838e-04  -2.3273085e-05  -3.1173939e-04  -9.6244316e-05   5.3025073e-05   7.7774446e-04   6.9898473e-05   1.4611472e-04   1.4755096e-04   9.3552269e-05   3.7734298e-04  -5.7899335e-05   4.7328915e-05  -1.0676801e-05   4.8310692e-05  -7.9388745e-05   8.3234052e-05   1.5311810e-04  -1.4592087e-05   2.9784165e-05  -1.2921379e-04   1.8654644e-05
   1.5907279e-04   8.2486855e-05   9.2124792e-05   1.1067355e-04   5.3277465e-05   1.5096908e-04   1.7956371e-04   1.2601807e-04   1.1938853e-04  -6.4675129e-05   1.4141885e-05  -1.2936022e-05   6.6660148e-05   3.1439500e-05   3.5529170e-05   1.1704525e-04   7.0445909e-05   2.1053529e-05   1.0495935e-04   8.5173080e-05  -6.3488653e-05   5.3149528e-05  -2.8716244e-05  -7.2195493e-05   9.6601427e-05   6.6177214e-05   9.9682860e-05   4.4917393e-05   2.1514072e-04  -2.7115197e-05  -3.1160819e-04  -1.0958123e-04   9.8260816e-06   8.0573466e-04   6.5584216e-05   1.2491818e-04   1.4770284e-04   7.9897334e-05   3.7847235e-04  -6.5322623e-05   4.7329497e-05   7.8513985e-06   3.5565601e-05  -6.8163325e-05   2.3899818e-05   1.1492125e-04  -1.4024061e-05   6.5465341e-05   2.6731686e-05   2.2727965e-05
   1.5616902e-04   6.5156433e-05   9.1287322e-05   1.1180366e-04   6.0277631e-05   1.4551102e-04   1.7393990e-04   1.3780913e-04   1.1228278e-04  -7.5589254e-05   1.8503664e-06  -2.6679621e-05   6.1051069e-05   5.5596480e-05   2.7390877e-05   1.1725073e-04   5.9706155e-05   1.4472535e-05   1.1108720e-04   7.6835204e-05  -9.1744849e-05   4.5311997e-05  -2.8300827e-05  -8.6180087e-05   7.9892910e-05   5.8703608e-05   1.1038201e-04   7.6864300e-05   2.2932401e-04  -1.5502748e-05  -3.1890668e-04  -9.8409480e-05   6.7577479e-05   7.8887749e-04   7.3443953e-05   1.2672460e-04   1.7401719e-04   9.7039541e-05   4.8782700e-04  -7.2528805e-05   4.1535004e-05   1.1730154e-06   3.7606100e-05  -1.6978453e-04   7.6929347e-05   1.5850533e-04  -3.6975096e-05   6.9874026e-05  -3.1124826e-05   1.8619156e-05
   1.6817209e-04   8.5316715e-05   1.0325797e-04   1.2059988e-04   5.6538898e-05   1.5038523e-04   1.9306778e-04   1.3822455e-04   1.1759915e-04  -7.0427966e-05   1.4148478e-05  -1.8365074e-05   6.5409331e-05   6.5111752e-05   3.7331716e-05   1.2220351e-04   6.7280947e-05   2.0339690e-05   1.0778638e-04   8.4139778e-05  -9.1090267e-05   5.6856235e-05  -3.2735992e-05  -7.6567565e-05   8.2998289e-05   7.0406437e-05   1.1483097e-04   6.6045963e-05   2.0918084e-04  -2.4773337e-05  -3.1397559e-04  -1.0332212e-04   5.7971174e-05   8.0569572e-04   6.7998393e-05   1.2156498e-04   1.5580372e-04   1.0390503e-04   4.0833914e-04  -8.9565343e-05   6.1487939e-05   1.5132571e-05   4.6939433e-05  -9.2761780e-05   8.7618420e-05   1.2064617e-04  -6.0492410e-05   5.2139872e-05  -1.9234680e-05  -3.2715873e-06
   1.6034160e-04   9.5568699e-05   1.0027477e-04   1.1348697e-04   5.5751134e-05   1.4731620e-04   1.8550175e-04   1.1977226e-04   1.0693532e-04  -7.4285497e-05   3.4515074e-06  -2.6300746e-05   6.2873129e-05   5.5051514e-05   3.3504195e-05   1.2204285e-04   6.1912557e-05   1.6793289e-05   9.8656259e-05   7.2039133e-05  -1.0675663e-04   4.7158926e-05  -4.1724765e-05  -8.7270113e-05   8.8380286e-05   5.9279781e-05   9.6200325e-05   5.4200413e-05   2.1562848e-04  -2.5759877e-05  -3.0420805e-04  -1.0711093e-04   4.4145479e-05   8.0340059e-04   6.7827823e-05   1.3111156e-04   1.6752759e-04   9.3091803e-05   3.9564111e-04  -8.6032982e-05   7.2361909e-05  -1.1237697e-05   2.9041930e-05  -1.2041718e-04   8.0112222e-05   1.4188980e-04  -1.9839696e-05   8.6074797e-05  -6.1044317e-05   1.6417196e-05
   1.4391520e-04   7.8249643e-05   9.9017467e-05   1.0975686e-04   5.9939746e-05   1.4309004e-04   1.7851006e-04   1.4535684e-04   9.0773785e-05  -8.4233849e-05  -5.2865141e-07  -3.6563702e-05   5.9264770e-05   6.2864710e-05   2.8580947e-05   1.1569045e-04   5.5129422e-05   1.7383169e-05   6.8630434e-05   7.5250922e-05  -6.1473438e-05   3.9236151e-05  -4.4362194e-05  -7.8937053e-05   4.7399139e-05   5.5822449e-05   1.3107414e-04   7.0206064e-05   2.2565747e-04  -8.0347609e-06  -3.0595044e-04  -1.0435901e-04   7.2461866e-05   8.0482202e-04   6.7944959e-05   1.5302488e-04   2.1563095e-04   9.7505748e-05   5.2257068e-04  -6.8443362e-05   4.4637723e-05   5.3024924e-05   4.0648520e-05  -1.1378562e-04   6.2309104e-05   1.7650159e-04  -3.5327092e-05   3.0529249e-05  -5.2204446e-06   4.9490745e-06
