   3.5877025e-04   7.1961078e-04  -3.9414703e-05   3.5452080e-04   7.1539328e-04   1.8761106e-04  -3.4514230e-04   3.0117980e-04   4.3886100e-04   2.9893366e-03   1.2840645e-03   5.5949355e-04   5.0576503e-04   1.9658888e-04  -2.6329915e-04  -1.0638409e-03  -3.4535807e-04   6.7931297e-04   4.7597094e-04   1.3465455e-03   1.4422112e-03   1.6262380e-03   3.8977325e-04  -6.0291582e-04   2.0470857e-04  -6.9173524e-04  -8.7828428e-04  -5.5019278e-04   6.2914754e-05  -2.3394732e-05   2.0662125e-04   2.6569786e-04   5.2802690e-04  -3.6009329e-05  -1.2453697e-03  -8.0279133e-05  -2.2699595e-04   6.1058218e-04  -2.8398377e-04  -4.8844190e-04  -1.2904181e-03  -1.2720276e-03  -1.2336695e-03  -1.2784923e-03  -3.5259387e-04  -5.4777174e-05   1.6545362e-04  -1.0980036e-03  -1.7599038e-04   4.5973502e-04
   1.3551822e-04   4.8847910e-04  -2.0843800e-04   1.5667945e-04   5.3899427e-04   1.7705070e-05  -5.5829994e-04   1.5715789e-04   2.6839669e-04   2.6879772e-03   1.1656958e-03   3.2875707e-04   3.3480077e-04   4.0447150e-05  -3.6426182e-04  -1.1800148e-03  -4.5882663e-04   5.3530571e-04   2.7114057e-04   1.1844751e-03   1.2504888e-03   1.3543753e-03   2.0653178e-04  -8.4641459e-04   2.7793731e-05  -9.0560364e-04  -9.2817453e-04  -6.9255015e-04  -1.0560590e-04  -1.9382854e-04   8.3361898e-05   1.5626021e-04   4.5050960e-04  -1.6456057e-04  -1.3168880e-03  -1.4205801e-04  -2.9449401e-04   6.0110010e-04  -2.6202187e-04  -4.6210276e-04  -1.2671521e-03  -1.2666779e-03  -1.1455115e-03  -1.2737144e-03  -2.9400911e-04   4.3313037e-05   2.1722357e-04  -9.8046428e-04   1.9437038e-04   6.7782274e-04
   3.7028891e-04   7.2254427e-04  -2.9570101e-05   3.7452090e-04   6.8604684e-04   1.9016922e-04  -3.2864549e-04   3.1497030e-04   5.4138922e-04   3.0563415e-03   1.2809614e-03   5.9258606e-04   4.8184302e-04   1.5280643e-04  -2.7762013e-04  -1.0766303e-03  -3.3104714e-04   6.4797048e-04   5.6128792e-04   1.3774105e-03   1.4040101e-03   1.6055556e-03   4.5538411e-04  -5.2017497e-04   2.3899433e-04  -6.4209144e-04  -9.0904563e-04  -5.3905661e-04   5.6270081e-05  -3.5217785e-05   2.2685321e-04   3.0968117e-04   5.6945864e-04  -1.0943752e-05  -1.2354989e-03  -4.7092188e-05  -2.2689866e-04   7.3565688e-04  -1.6705254e-04  -3.7054761e-04  -1.1950750e-03  -1.1858518e-03  -1.1089521e-03  -1.2147293e-03  -2.1386234e-04   1.0265312e-04   3.0132258e-04  -9.4366976e-04   1.8379746e-04   5.5828848e-04
   3.5243022e-04   7.2793156e-04   4.2016536e-06   3.5261895e-04   6.8429892e-04   1.6396517e-04  -3.7537891e-04   2.8799041e-04   6.1155751e-04   2.9664522e-03   1.3141166e-03   5.0357601e-04   4.8515073e-04   1.2477199e-04  -3.2145384e-04  -1.0710749e-03  -3.0717812e-04   6.8128761e-04   4.3759024e-04   1.3239078e-03   1.3224663e-03   1.4992706e-03   3.8741928e-04  -6.5260695e-04   1.6636697e-04  -7.3295733e-04  -9.1787463e-04  -6.0597860e-04   2.8058872e-05  -8.5916989e-05   1.2442727e-04   2.4447392e-04   4.1528069e-04  -8.1229322e-05  -1.2808469e-03  -1.1590218e-04  -2.9903662e-04   6.2889489e-04  -3.3555404e-04  -4.8334553e-04  -1.3110158e-03  -1.2541747e-03  -1.2218524e-03  -1.2672398e-03  -2.6037896e-04   8.9264859e-07   1.9622783e-04  -1.0783403e-03   3.7823062e-04   4.5463938e-04
   1.7115973e-04   5.3706497e-04  -1.1146435e-04   1.7506571e-04   5.3535611e-04   3.9250103e-06  -5.7098921e-04   1.3852910e-04   2.8972764e-04   2.6880489e-03   1.1950871e-03   3.0898678e-04   3.3312046e-04   1.5310854e-05  -4.0830462e-04  -1.1727916e-03  -4.0678662e-04   5.6433643e-04   3.7379927e-04   1.1855696e-03   1.1362933e-03   1.2560938e-03   2.3251724e-04  -8.8161568e-04   1.9679857e-05  -9.3041838e-04  -9.7001105e-04  -7.4728235e-04  -1.2686271e-04  -2.1829830e-04   3.3552367e-06   1.4140899e-04   2.9412378e-04  -2.2790881e-04  -1.3888278e-03  -2.1652982e-04  -3.7099322e-04   6.0809759e-04  -3.7341675e-04  -4.9894594e-04  -1.2459694e-03  -1.2426201e-03  -1.1391930e-03  -1.2341717e-03  -2.5310484e-04   6.9847163e-05   2.9800608e-04  -9.8339235e-04   2.3303354e-04   5.6723994e-04
   3.8965754e-04   7.6101808e-04   5.7788351e-05   3.8161449e-04   7.0677081e-04   1.8124364e-04  -3.3969994e-04   2.9182844e-04   4.4119055e-04   2.9662710e-03   1.3178834e-03   5.3339655e-04   4.8630525e-04   1.2800872e-04  -3.1800484e-04  -1.0227334e-03  -2.5764407e-04   6.8662799e-04   5.5683247e-04   1.3593404e-03   1.2637806e-03   1.4538085e-03   4.4249967e-04  -5.7195459e-04   2.0261266e-04  -6.9810468e-04  -9.0868265e-04  -6.1223650e-04   4.8139973e-05  -8.6060223e-05   1.5640692e-04   2.9078888e-04   4.4022410e-04  -6.0731985e-05  -1.2839262e-03  -1.0184758e-04  -3.0841408e-04   6.9034391e-04  -2.7272812e-04  -4.2023545e-04  -1.1567095e-03  -1.1742848e-03  -1.1331874e-03  -1.1864390e-03  -1.4582394e-04   1.0972473e-04   3.3829655e-04  -9.8418945e-04   3.5954421e-04   6.5351132e-04
   3.8916845e-04   7.6304836e-04   9.5948548e-05   3.3612785e-04   6.8797177e-04   1.5439645e-04  -3.7813530e-04   2.9569829e-04   5.3741032e-04   2.8468289e-03   1.3268731e-03   4.6514184e-04   4.8905268e-04   1.3280823e-04  -3.2466708e-04  -1.0194341e-03  -2.3787189e-04   7.0020219e-04   3.9622371e-04   1.3146318e-03   1.1671433e-03   1.3445022e-03   3.8241580e-04  -6.8665593e-04   1.4995801e-04  -7.7562465e-04  -8.9076423e-04  -6.4571912e-04  -1.7338623e-05  -1.2179854e-04   8.5636639e-05   2.4618980e-04   3.2035328e-04  -1.4876266e-04  -1.3430814e-03  -1.4055634e-04  -3.4793347e-04   5.8447686e-04  -4.1345169e-04  -5.2107219e-04  -1.2580294e-03  -1.1964419e-03  -1.1989968e-03  -1.2322546e-03  -2.7552719e-04   7.4697971e-05   2.5472374e-04  -1.0520103e-03   1.1659320e-04   6.2596553e-04
   1.8052511e-04   5.3273240e-04  -8.2163810e-05   1.4170077e-04   4.9787021e-04  -8.4498261e-06  -5.5467157e-04   1.5481560e-04   3.3029201e-04   2.5029208e-03   1.1665062e-03   2.1285925e-04   3.5889167e-04   5.8175436e-05  -3.5325327e-04  -1.2028589e-03  -3.4336539e-04   5.8449432e-04   2.1570815e-04   1.1419513e-03   9.8543242e-04   1.1529993e-03   2.4785675e-04  -8.3732011e-04   4.2071479e-05  -8.2406524e-04  -8.7807426e-04  -6.5529771e-04  -1.4293437e-04  -1.3400918e-04   9.3917239e-05   2.5096335e-04   2.8501038e-04  -5.7322253e-05  -1.1704944e-03  -4.3103504e-05  -3.1802003e-04   8.4097992e-04  -9.7725853e-05  -2.8571751e-04  -8.6485723e-04  -9.0060721e-04  -1.0497151e-03  -1.3603726e-03  -9.1471949e-05   7.5483974e-04   4.6442338e-04  -6.8828074e-04   6.3864968e-04   1.3892603e-03
   4.7529378e-04   7.0962537e-04   1.9561303e-04   3.3482144e-04   6.2034978e-04   1.9862341e-04  -1.7207331e-04   3.8567325e-04   5.1157636e-04   1.9077207e-03   1.1732519e-03   5.8738631e-04   6.1875745e-04   3.0708793e-04  -1.6523575e-04  -1.0752300e-03  -4.4800592e-05   8.0784730e-04   2.4549922e-04   1.1511687e-03   8.8353251e-04   1.3081593e-03   5.8274722e-04  -6.9177744e-04   3.6913910e-04  -4.5255950e-04  -7.1753701e-04  -5.7899731e-04  -3.3721783e-05   2.7367974e-05   2.0265274e-04   3.5983362e-04   1.1947948e-04   1.8125512e-04  -9.9945383e-04   5.3459826e-05  -1.6339294e-04   1.0904125e-03   4.4441742e-05  -8.9017500e-05  -5.7813455e-04  -6.7410909e-04  -9.3066721e-04  -1.4122495e-03   3.1645868e-05   1.7915571e-03   6.6624372e-04  -6.4395048e-04   1.4848140e-03   2.2780476e-03
   5.0729443e-04   6.2173879e-04   1.9553232e-04   3.8710047e-04   5.5171701e-04   2.3493444e-04   5.3639151e-04   2.7604500e-04   1.6788645e-04   1.9455639e-04   1.9394606e-04   4.8947049e-04   3.7413774e-04  -1.1923342e-04  -5.9998474e-05  -8.2684268e-04  -2.2972721e-04   8.9972815e-04  -2.0279530e-04   6.2763644e-04   7.7123841e-04   2.4592504e-03   3.5884450e-04  -3.3389395e-05   7.7131105e-04   4.8604113e-04  -1.0249873e-03  -1.6567920e-04   5.1739986e-05   5.1368785e-04   1.1702221e-03   6.2015437e-04  -1.2552048e-04  -4.0129732e-04  -2.7906924e-04  -2.4643441e-04  -3.1177432e-04   8.8314008e-04   4.1337992e-04   3.1696551e-04  -4.5910859e-04  -4.1759919e-04  -1.0987477e-03  -5.9926102e-04  -2.2120787e-04  -6.6219067e-04   9.5149066e-04  -7.3577568e-04  -8.4031222e-04  -7.9771364e-04
   8.9309935e-04   3.2404246e-04   3.0543084e-05   1.0582139e-03   3.4416144e-04   1.5326602e-04   1.3616144e-03  -1.0075338e-04   8.2956467e-05  -2.4367505e-04  -5.8146589e-04   1.3076406e-04  -2.3457568e-04  -3.9427634e-04  -2.4918525e-04  -1.0970293e-03  -3.8781815e-04   4.8862444e-04   8.9443740e-05   2.8765583e-04   6.5145851e-04   2.3463920e-03   2.9558525e-04   1.4811974e-06   6.7673199e-04   4.3681808e-04  -1.1271463e-03  -7.0300375e-05   5.8379832e-05   6.5002457e-04   1.0832692e-03   7.4685935e-04   6.1126200e-05  -4.2207455e-04  -3.0463195e-04  -3.2588936e-04  -5.2712200e-04   9.4410806e-04   5.9095275e-04   4.2980703e-04  -5.7166873e-04  -4.8868929e-04  -8.2738511e-04  -5.3346122e-04  -2.3427926e-04  -1.0468429e-03   9.6651365e-04  -7.2420877e-04  -1.2188748e-03  -8.7341963e-04
   1.3390647e-03   7.7343610e-04   4.1571510e-04   1.1617165e-03   6.8995106e-04   3.7944087e-04   1.5719727e-03   2.7885730e-04   2.3872417e-04   3.4241466e-04  -3.2422610e-04   4.8622204e-04  -1.1996234e-04  -3.0869167e-04  -1.9632211e-04  -5.2552141e-04  -1.2664116e-04   6.4518722e-04   2.8001028e-04   2.9036740e-04   9.6890226e-04   2.4187390e-03   3.4858493e-04   2.1330496e-04   7.9423026e-04   5.8573118e-04  -8.9888717e-04  -4.2808748e-05   2.4523298e-04   6.7000237e-04   1.1552080e-03   8.6179218e-04   2.6941850e-04  -3.4846269e-04  -2.6488528e-04  -2.5328470e-04  -5.2433781e-04   9.9160976e-04   6.1800110e-04   5.4708694e-04  -5.3222867e-04  -4.8718686e-04  -8.0003048e-04  -4.4695969e-04  -2.1421185e-04  -1.1126412e-03   8.1482081e-04  -7.4771815e-04  -1.4883445e-03  -1.5567534e-03
   1.4679568e-03   7.4069097e-04   4.7746100e-04   1.2980517e-03   6.1173236e-04   3.9076339e-04   1.7330833e-03   2.7217407e-04   2.6903735e-04   1.6166407e-04  -4.7409983e-04   3.9593782e-04  -1.3781909e-04  -2.5566496e-04  -2.0122013e-04  -6.2098843e-04  -1.7540301e-04   6.6695194e-04   2.8208495e-04   2.2967090e-04   7.1587594e-04   2.4751492e-03   2.9616553e-04   7.6861244e-05   7.6509250e-04   4.8875873e-04  -8.8437827e-04  -3.4119814e-05   2.4103702e-04   6.7083800e-04   9.9445553e-04   7.9269888e-04   1.2435103e-04  -5.7696085e-04  -3.4653977e-04  -3.8492199e-04  -5.9907744e-04   8.1779773e-04   4.3728904e-04   3.9870248e-04  -6.8446680e-04  -5.7918538e-04  -9.4040204e-04  -6.6805870e-04  -4.9287931e-04  -1.3408103e-03   6.3106685e-04  -9.8364393e-04  -1.8769691e-03  -1.8216994e-03
   1.1759227e-03   4.4720710e-04   4.6054547e-04   1.0372108e-03   5.1645772e-04   2.5398677e-04   1.5676885e-03   2.6187731e-04   3.5766992e-04   3.6686953e-04  -4.9839739e-04   3.3924123e-04  -2.6406703e-04  -2.8555797e-04  -2.0786132e-04  -4.2065946e-04  -1.5334370e-04   5.4416532e-04   5.1522226e-04   1.7380271e-04   8.6922169e-04   2.0581798e-03   2.9481627e-04   1.5964839e-04   6.5323460e-04   6.1071489e-04  -6.9626560e-04  -6.6236222e-05   2.9503001e-04   6.4373517e-04   9.0491632e-04   8.6428376e-04   4.5854540e-04  -1.9165402e-04  -1.9523557e-04  -1.5811995e-04  -6.5018365e-04   1.1597249e-03   7.0441165e-04   5.0422078e-04  -2.4938135e-04  -2.8872481e-04  -4.2107908e-04  -6.8653695e-04  -2.2060316e-04  -9.3746913e-04   6.9926266e-04  -6.7466713e-04  -1.4231359e-03  -1.3868529e-03
   1.2220104e-03   7.3396519e-04   3.8505913e-04   7.5088075e-04   5.9167750e-04   2.8272773e-04   1.0766784e-03   4.2855469e-04   2.4803629e-04   6.7279802e-04  -3.5906289e-04   3.2796062e-04  -1.7942033e-04   9.1054681e-06  -1.9944734e-04  -4.7260209e-04  -1.4029419e-04   6.8310124e-04   3.0364445e-04   3.5023407e-04   8.2897028e-04   1.7785941e-03   2.6103240e-04   1.8436080e-04   4.7488979e-04   5.1577581e-04  -4.7812026e-04  -1.1449676e-04   3.3776055e-04   5.1004643e-04   6.7252421e-04   7.8824873e-04   3.3496419e-04   4.0515180e-05  -2.2670695e-04  -4.4237757e-05  -5.3471973e-04   1.1221758e-03   5.3585059e-04   3.3830537e-04  -1.0509057e-04  -1.1215996e-04  -3.7213558e-04  -8.0552173e-04  -1.4064227e-04  -4.8209052e-04   6.0304132e-04  -6.0951593e-04  -1.4782515e-03  -9.2242297e-04
   7.9407141e-04   5.3763599e-04   1.6004503e-04   4.2072637e-04   4.5475407e-04   1.6143757e-04   6.0700218e-04   2.7937393e-04   2.5991409e-04   6.0148793e-04  -1.5433236e-04   2.1587749e-04   4.1158655e-05   9.4517411e-05  -1.3723946e-04  -5.7565171e-04  -2.0438329e-04   6.1440724e-04   1.3128415e-04   3.4689496e-04   6.2358385e-04   1.6093346e-03   2.1567533e-04  -2.4842939e-05   3.9546899e-04   2.7444182e-04  -3.6657235e-04  -2.3063060e-04   2.4718032e-04   3.4165397e-04   3.8545232e-04   5.9025147e-04   1.4781319e-04   9.4470115e-06  -3.3339279e-04  -8.7648128e-05  -4.8428285e-04   9.0251060e-04   2.4991573e-04   1.4827658e-04  -1.4353587e-04  -1.0951584e-04  -3.5018669e-04  -8.1943104e-04  -5.9751819e-05  -1.0379083e-04   6.7510596e-04  -4.2570828e-04  -1.2099957e-03  -4.0805689e-04
   8.2358095e-04   5.6973536e-04   2.5514909e-04   4.7161680e-04   5.3055282e-04   2.7687565e-04   6.5896387e-04   4.4108348e-04   5.5089477e-04   8.1667822e-04   6.8623376e-05   4.3617582e-04   3.1187714e-04   2.6994682e-04   1.0730098e-05  -3.2996904e-04  -3.7531430e-05   7.2865322e-04   4.3923574e-04   5.4730149e-04   9.1703539e-04   1.7449658e-03   4.9148552e-04   2.8817216e-04   5.6984549e-04   4.4354427e-04  -1.6056951e-04  -5.8707636e-05   4.2444185e-04   4.9228163e-04   6.2920625e-04   7.4632227e-04   6.0589728e-04   3.6765175e-04  -2.2148319e-04   1.0973978e-04  -1.7827799e-04   1.1078994e-03   4.3740871e-04   4.6570227e-04   1.7580435e-04   7.9039841e-05  -3.8341834e-05  -5.1215274e-04   2.2846136e-04   3.7857547e-04   6.9183210e-04  -3.1896509e-04  -6.8725058e-04   1.7674838e-04
   7.7529636e-04   6.9744425e-04   2.1900855e-04   4.6251403e-04   6.3362007e-04   3.1185872e-04   4.5804831e-04   4.5961505e-04   5.3049385e-04   1.0178840e-03   3.2537620e-04   4.1466867e-04   5.1411812e-04   4.7173139e-04   1.3599880e-05  -1.2545360e-04  -4.1858246e-05   8.1458146e-04   2.0496629e-04   7.4754917e-04   1.6499442e-03   1.7391262e-03   4.7447349e-04   3.2912730e-04   4.2930132e-04   3.1252360e-04   1.5444749e-04  -4.2380030e-05   4.1562424e-04   3.4129515e-04   4.5762901e-04   6.0218724e-04   6.6552684e-04   3.7534456e-04  -3.6619915e-04   8.0938786e-05  -1.0981164e-04   8.8003848e-04   1.3025993e-04   2.4666285e-04   4.9936166e-06   3.0710926e-05  -7.1883667e-05  -4.9358670e-04   2.0167716e-04   2.6414872e-04   5.4944394e-04  -3.7905277e-04  -6.7942275e-04  -1.2863644e-04
   6.2667462e-04   6.0956599e-04   5.3606011e-05   3.1903927e-04   5.6751439e-04   2.1340321e-04   2.0196888e-04   3.5390403e-04   5.3437048e-04   1.1126115e-03   5.3388608e-04   2.7609288e-04   5.3286419e-04   3.9565880e-04  -4.8373240e-05  -1.6236113e-04  -7.3754425e-05   7.0056983e-04   5.9883176e-05   8.1379781e-04   3.1297621e-03   1.6385231e-03   3.5771783e-04   2.3625975e-05   3.0157834e-04   3.8624647e-05   1.6844949e-04  -2.2250417e-04   2.6730180e-04   1.1436327e-04   3.2005648e-04   4.0483841e-04   6.9819792e-04   2.5182802e-04  -5.6299777e-04  -7.0432710e-05  -1.6977421e-04   5.7742384e-04  -1.4145617e-04   6.4537453e-05  -2.1318665e-04  -1.7991551e-04  -3.3943352e-04  -3.6642817e-04   1.7807337e-04   4.3642044e-04   5.5177376e-04  -3.8818267e-04  -9.6114259e-04  -1.3160257e-04
   8.6568488e-04   7.4443489e-04   2.7921126e-04   4.4615532e-04   6.9556083e-04   3.9097638e-04   4.5160498e-04   5.2678934e-04   4.9243314e-04   1.4067729e-03   5.8362196e-04   4.2075192e-04   7.2777527e-04   5.0225027e-04   7.6286415e-05  -2.3630758e-04   1.3346589e-04   7.3746825e-04   6.9893897e-04   1.0070294e-03   2.9396671e-03   1.9059100e-03   6.6995085e-04   2.8416255e-04   6.5830769e-04   4.5665191e-04   1.4282540e-04   4.8731908e-05   5.1969179e-04   4.1412204e-04   1.0456814e-03   6.8394252e-04   7.9643982e-04   5.1821012e-04  -8.4887630e-05   1.7363096e-04  -1.8241673e-06   1.0842519e-03   6.5979164e-04   7.8963855e-04   4.3730348e-04   1.5096574e-04  -1.5234230e-04   1.4315714e-04   2.0183017e-04   1.6298434e-03   9.3605963e-04   6.1764542e-05  -5.9606717e-04   5.9164705e-04
   1.2101600e-03   6.9636572e-04   7.7438506e-04   9.0273563e-04   5.9859589e-04   7.2110625e-04   1.7626118e-03   5.7710841e-04   3.4800629e-04   3.6998361e-04  -1.2107955e-04   7.2210876e-04   5.7844038e-04   3.7500099e-04   3.0534409e-04  -4.5188799e-04   2.8485834e-04   9.4828382e-04   9.7938499e-04   8.1133429e-04   2.9228913e-04   2.4258872e-03   8.9272897e-04   4.1937473e-04   9.5608772e-04   8.3988113e-04  -2.3760709e-04   3.5867759e-04   5.1806215e-04   7.5145968e-04   1.8469626e-03   9.4851496e-04   6.4521120e-04   1.9267102e-04   1.3448473e-04   1.8883786e-04   2.6586886e-05   1.1473964e-03   9.6257031e-04   1.1258327e-03   3.3429675e-04   1.4427556e-04  -2.9828169e-04   3.8518483e-04   3.5014615e-04   1.0321111e-03   7.9410704e-04  -2.4207606e-04  -1.0850684e-03  -3.9067096e-04
   1.0778288e-03   4.3076277e-04   6.6762452e-04   1.0289658e-03   3.6892964e-04   5.8800075e-04   2.0869873e-03   3.3348854e-04   2.9509846e-04   1.9175878e-04  -5.0183327e-04   4.2660671e-04   3.8253838e-05   2.3085758e-04   1.3527994e-04  -6.2928232e-04   7.8932389e-05   7.4960140e-04   1.0524093e-03   6.9078174e-04  -5.9505168e-05   2.3813555e-03   4.8366498e-04   3.5445989e-04   8.0935250e-04   6.8142638e-04  -5.6519394e-04   4.9102004e-04   5.5349024e-04   8.1289746e-04   1.7015049e-03   9.9088834e-04   9.1201352e-04  -1.5479101e-04   6.6977300e-05  -4.0883766e-05  -2.3552960e-04   9.2358975e-04   7.9638878e-04   9.4646233e-04   1.1914540e-05  -4.6679950e-05  -5.9661642e-04   3.1321333e-04   3.4965476e-04   7.2377690e-05   6.3143659e-04  -4.7664208e-04  -1.9205868e-03  -1.3936685e-03
   1.1282881e-03   4.4152554e-04   6.2256341e-04   1.1414528e-03   3.8881827e-04   6.4936484e-04   2.1827621e-03   3.3846669e-04   4.8723721e-04   5.5384322e-04  -4.8673697e-04   5.6850561e-04   3.3389257e-05   3.8785784e-04   2.2364936e-04  -1.0117175e-03   3.2219414e-05   6.8840827e-04   1.5185693e-03   6.5642013e-04   7.0409165e-05   2.4309619e-03   5.8292638e-04   6.8444421e-04   8.4814715e-04   9.1029110e-04  -8.5604982e-04   7.7590661e-04   6.9373084e-04   1.0943298e-03   2.0595037e-03   1.1830090e-03   1.2779414e-03   3.2087631e-04   3.2460442e-04   2.7668235e-04   1.2701561e-05   1.2828374e-03   1.2549988e-03   1.3232463e-03   4.2522748e-04   2.8958995e-04  -9.0596899e-05   5.3469971e-04   5.6144857e-04   6.1062578e-04   7.4776087e-04  -2.5642599e-04  -1.6494142e-03  -9.5696811e-04
   1.0895930e-03   5.3005776e-04   6.7136722e-04   1.1390797e-03   4.5118260e-04   5.7449104e-04   2.1022991e-03   4.5867980e-04   5.3837389e-04   6.3153892e-04  -2.8374174e-04   5.9579738e-04   5.6094017e-05   3.3676680e-04   3.0392234e-04  -2.8510971e-04   1.2488301e-04   8.8282319e-04   8.2824647e-04   4.5895527e-04   2.8302069e-04   2.2946387e-03   6.0717377e-04   5.6405831e-04   8.9320174e-04   7.6967181e-04  -1.8861612e-05   4.8883166e-04   8.3813327e-04   8.4205566e-04   1.3570777e-03   1.1651593e-03   1.1727130e-03   4.6333074e-04   1.8751877e-04   1.7842490e-04  -2.1247912e-04   1.0246967e-03   7.5542886e-04   7.1488140e-04  -1.4482552e-04  -2.1620655e-04  -2.1615774e-04   5.9060054e-04   3.5197425e-04  -4.9679918e-04   4.0147125e-04  -6.6241284e-04  -2.0758389e-03  -1.7152703e-03
   7.5390906e-04   4.7973264e-04   3.9080254e-04   5.5054884e-04   4.5642172e-04   2.5871498e-04   1.0150496e-03   4.4910982e-04   3.8425281e-04   5.4057880e-04  -1.2056287e-04   3.6478881e-04   1.8255841e-05   1.0163738e-04   5.3475127e-05   3.4939733e-04  -2.7581955e-05   6.3492777e-04   1.8955457e-04   2.6334295e-04   5.4334459e-04   1.6344447e-03   2.2787222e-04   2.7102287e-04   5.0007284e-04   4.7677543e-04   5.3619733e-05   5.9763999e-05   5.7821145e-04   4.9165386e-04   7.0072210e-04   7.4615900e-04   8.8698429e-04   1.8530204e-04  -1.0290471e-04  -1.2656006e-04  -3.4374520e-04   4.6967936e-04   2.0433686e-04   1.0502176e-04  -3.8802362e-04  -3.1915781e-04  -5.2591320e-04   2.5551196e-04  -2.1412809e-05  -1.1807667e-03   3.1722098e-04  -8.1273325e-04  -1.8213752e-03  -1.8690061e-03
   7.2879560e-04   4.7797925e-04   2.7170498e-04   5.4792105e-04   5.4001383e-04   3.6443956e-04   1.0038745e-03   5.0316739e-04   4.5646494e-04   7.5319427e-04  -1.7917904e-04   4.3989977e-04  -5.0344905e-05   3.5643487e-05  -1.5360758e-05   3.5763721e-04  -1.4738590e-04   4.9684424e-04   3.0980242e-04   2.2703331e-04   8.1849360e-04   1.5835882e-03   2.6904847e-04   4.6456666e-04   4.3802665e-04   5.0991459e-04  -1.2187823e-04   6.1862869e-05   4.9445778e-04   4.5926412e-04   7.2284823e-04   7.1278284e-04   1.0252571e-03   3.2253406e-04   2.1544229e-05   4.0315572e-05  -2.4565047e-04   6.1416335e-04   4.1373665e-04   3.3037283e-04  -1.7567714e-04  -2.0668637e-04  -2.2045839e-04   1.9668168e-04   2.4493848e-04  -7.7188859e-04   3.6741165e-04  -5.4704020e-04  -1.4211225e-03  -1.4909318e-03
   7.4505445e-04   5.7925703e-04   2.1572536e-04   4.6622238e-04   5.5169105e-04   4.0124310e-04   8.7424304e-04   4.6852749e-04   3.2397476e-04   7.1355997e-04  -2.0437315e-04   3.8351835e-04   2.4455501e-05   1.1109086e-04   8.6841919e-06   4.4579505e-05  -2.5649165e-04   4.1113823e-04   4.4383859e-04   1.8671549e-04   8.3903136e-04   1.4040801e-03   2.3682191e-04   3.6373653e-04   4.4578229e-04   4.3098597e-04  -1.1634194e-04   5.9711812e-05   4.5143216e-04   4.3039749e-04   5.7221483e-04   6.1157451e-04   9.1831008e-04   2.7791053e-04  -1.3684062e-05   5.4120981e-05  -2.3898103e-04   5.3867366e-04   3.4090129e-04   1.8348766e-04  -1.1657833e-04  -1.8173843e-04  -2.8798444e-04   1.1472758e-04   1.6242421e-04  -6.1157893e-04   3.6489315e-04  -6.0364912e-04  -1.6564686e-03  -1.5058311e-03
   5.4087816e-04   4.3692603e-04   5.7919075e-05   2.9344962e-04   3.9919678e-04   2.7927617e-04   6.3950237e-04   3.4173779e-04   2.6784232e-04   5.0285622e-04  -2.6373894e-04   2.2536922e-04  -4.5741232e-05   3.3351003e-05  -6.4594249e-05  -1.4896055e-04  -4.1339637e-04   2.5951405e-04   1.5000095e-04   4.0976382e-05   7.0456020e-04   1.1499882e-03   9.4037779e-05   1.1052052e-04   1.9958390e-04   2.3911183e-04  -2.2130710e-04  -5.0862105e-05   2.7149665e-04   2.9037771e-04   3.5547675e-04   3.8634299e-04   5.3134799e-04   1.0244525e-04  -1.2599528e-04  -6.1157909e-05  -3.4231404e-04   3.3488160e-04   1.0316380e-04  -3.7625210e-05  -1.3221806e-04  -1.5685117e-04  -4.5735523e-04  -7.6188655e-05  -5.2221880e-05  -6.5191119e-04   2.8060013e-04  -6.0133688e-04  -1.8166600e-03  -1.4842022e-03
   2.7813108e-04   2.2906705e-04  -4.9488117e-05   1.8025746e-04   3.6092626e-04   2.7461469e-04   6.4157828e-04   3.0864379e-04   1.2946680e-04   5.8242225e-04  -3.0151501e-04   2.8880103e-04  -7.2292842e-06   5.4338332e-05  -1.7751168e-05  -2.2220460e-04  -4.0981834e-04   2.1165800e-04   2.6442396e-04   6.3431165e-05   7.2942552e-04   1.2031052e-03   1.8365606e-04   2.9050242e-04   3.3521940e-04   3.4620831e-04  -2.0112186e-04   4.5818877e-05   4.3209473e-04   3.4011519e-04   4.8370502e-04   4.8855389e-04   7.4610405e-04   2.9335739e-04   6.4305732e-06   9.6365686e-05  -1.9572265e-04   5.5166177e-04   3.5807566e-04   2.0521632e-04  -2.4155606e-05  -6.0649811e-05  -2.3200196e-04   7.5553922e-05   1.6063958e-04  -2.4745252e-04   4.5116866e-04  -2.8342108e-04  -1.2909394e-03  -9.1600564e-04
   4.6043113e-04   3.6956451e-04   3.0002509e-05   2.4230941e-04   3.5174706e-04   2.8314313e-04   6.8048324e-04   3.0594578e-04   1.4595431e-04   5.0901942e-04  -3.1167720e-04   2.7317411e-04   2.5792042e-05   4.1619485e-05  -1.9184803e-05  -2.4628709e-04  -4.2478368e-04   2.3304892e-04   2.9103119e-05  -3.0530512e-06   6.4901751e-04   1.1207352e-03   1.6812043e-04   2.0167843e-04   3.0036439e-04   2.7828541e-04  -1.7714276e-04  -1.5178183e-06   3.2077273e-04   3.0029158e-04   4.2858010e-04   3.6624781e-04   5.9491914e-04   1.9353637e-04  -4.6698937e-05   2.5478344e-05  -2.1961000e-04   4.6564217e-04   2.2602154e-04   8.0707869e-05  -1.1676525e-04  -1.4031425e-04  -2.9378099e-04   1.0213689e-05   2.1882393e-04  -1.3889855e-04   3.8257227e-04  -3.7692121e-04  -1.5764488e-03  -7.8802765e-04
   2.4071180e-04   2.0829757e-04  -8.3035709e-05   1.0640944e-04   1.9805075e-04   1.3166617e-04   5.3614459e-04   1.8456050e-04  -6.5538834e-06   2.4029391e-04  -4.4366682e-04   1.0691064e-04  -8.1944694e-05  -6.6234956e-05  -9.2971728e-05  -3.3292643e-04  -5.5089785e-04   1.3118242e-04  -1.8321435e-04  -1.7938256e-04   5.5347069e-04   9.4670535e-04   1.8676681e-05  -6.7990528e-05   1.5942921e-04   1.1506645e-04  -1.9581636e-04  -1.3170099e-04   1.6205746e-04   1.7968325e-04   2.4262533e-04   1.5640649e-04   2.6707715e-04  -1.5990046e-05  -2.0452535e-04  -1.6415039e-04  -3.5890707e-04   1.7810603e-04   3.1231171e-05  -1.7945791e-04  -3.0267745e-04  -2.9871054e-04  -5.4622540e-04  -1.3170675e-04   3.3663320e-05  -2.5436474e-04   2.2222364e-04  -7.1050058e-04  -1.3136386e-03  -8.3717774e-04
   1.4540712e-04   5.6495795e-05  -1.5017294e-04   1.0073757e-04   1.6880521e-04   1.6369426e-04   6.2603806e-04   1.6647730e-04  -4.2888845e-05   2.5528573e-04  -5.9551717e-04   1.5047900e-04  -1.3732756e-04  -1.1565836e-04  -7.4465810e-05  -4.3528771e-04  -5.8784656e-04   6.3307787e-05   5.9275124e-05  -1.8148443e-04   4.8810747e-04   9.6956163e-04   7.4458549e-05   3.3051932e-05   2.3804622e-04   2.5691706e-04  -3.4586617e-04  -8.9394496e-05   2.7883259e-04   2.3988285e-04   4.2053885e-04   2.5256403e-04   4.9130403e-04   1.5225472e-04  -6.7020082e-05  -2.5568273e-05  -2.9751722e-04   4.6859204e-04   3.0008532e-04   1.1081423e-04  -2.5346829e-04  -2.2017768e-04  -2.8747643e-04  -5.0170613e-05   1.3907879e-04  -1.4766381e-05   3.5284291e-04  -5.9317914e-04  -1.2163561e-03  -6.2043138e-04
   2.5819399e-04   2.7700519e-04  -9.9514109e-05   1.4764228e-04   2.5050886e-04   1.4685173e-04   5.7627988e-04   1.6408879e-04   5.0936360e-05   3.6608358e-04  -5.6439324e-04   1.2018641e-04  -2.2674535e-04  -1.6088851e-04  -1.7770864e-04  -3.2933088e-04  -5.7572615e-04   1.0759004e-04   4.8012600e-05  -4.6306366e-05   4.6401247e-04   9.6785690e-04   7.7562188e-05  -1.6622114e-05   2.0583592e-04   1.4182572e-04  -3.0749425e-04  -1.6433781e-04   2.3177209e-04   1.5285882e-04   2.6487286e-04   1.9398879e-04   4.1483855e-04   2.4832178e-05  -1.7522227e-04  -8.2130100e-05  -3.2758646e-04   2.7900425e-04   5.9795562e-05  -1.0927870e-04  -3.9141576e-04  -3.2421740e-04  -3.9841939e-04  -2.4504942e-04  -3.8278922e-06  -2.8272666e-04   4.0262629e-04  -6.6077674e-04  -1.2579211e-03  -9.4282016e-04
   1.9750296e-04   1.9611589e-04  -1.0885647e-04   6.8423156e-05   1.6177056e-04   3.7217131e-05   4.8897689e-04   7.9712838e-05  -5.0315830e-05   3.0596237e-04  -5.4777047e-04   2.0106238e-05  -3.5433163e-04  -2.7602105e-04  -2.7604675e-04  -2.4070838e-04  -6.0001732e-04   9.1000453e-05  -5.4368458e-05  -4.6844576e-05  -8.6813248e-05   8.3278271e-04  -1.8022234e-06  -1.1933906e-04   5.7066900e-05   1.8766201e-05  -3.4370497e-04  -2.6294429e-04   1.3760393e-04   7.9865291e-05   1.7909694e-04   1.3610760e-04   3.5792112e-04  -1.0580414e-04  -2.5092193e-04  -1.6336671e-04  -3.8478462e-04   2.0571426e-04   1.1140291e-04  -7.1273738e-05  -2.2568276e-04  -2.5029414e-04  -3.6808298e-04  -2.2699204e-04  -9.5261004e-07  -3.6712608e-04   6.4456242e-04  -3.6992168e-04  -1.2530038e-03  -9.4595569e-04
   3.3674290e-04   3.0268668e-04   4.5667734e-05   3.6144775e-04   2.8586079e-04   1.8029293e-04   6.9254055e-04   2.0523537e-04   2.0395429e-04   8.0058561e-04  -3.9077157e-04   2.5847781e-04  -2.8632581e-04  -1.0256753e-04  -1.8867361e-04  -1.8178440e-04  -4.8413474e-04   1.6642585e-04   1.8018537e-04   1.5875227e-04   1.2567095e-04   1.0728729e-03  -6.6204261e-06   4.3162549e-04  -6.0283997e-05   1.8572233e-04  -2.7561752e-04  -7.4523276e-05   1.8826307e-04   2.6145403e-04   2.0852470e-04   1.8886829e-04   3.9226463e-04   2.0551204e-05  -2.0209744e-04  -5.2229141e-05  -2.7724999e-04   2.6317930e-04   2.2929111e-04   2.2049710e-05   4.1618480e-04   4.5160702e-04   1.9570657e-04  -1.5596377e-04  -7.8725707e-06  -2.9395454e-04   8.0358831e-04  -2.8086890e-05  -1.6722655e-03  -1.0074591e-03
   1.1221379e-04   1.6786538e-04   6.1603336e-05   2.4454534e-04   1.4843125e-04   7.1860137e-05   5.5285200e-04   1.5805673e-04   1.1396233e-04   5.8507064e-04  -3.6048813e-04   2.2014797e-04  -2.1123339e-04  -9.6047515e-05  -1.8407476e-04  -3.2366595e-05  -4.6762539e-04   1.9071113e-04   4.9752463e-05   7.6790981e-05   4.6417289e-04   9.2284061e-04   7.9344272e-06   1.9401572e-04  -3.6216261e-05   9.8219753e-05  -1.1756558e-04  -1.9548288e-04   1.3982532e-04   1.2552504e-04   1.3293202e-04   1.5136501e-04   3.4936957e-04  -3.9472150e-05  -3.1760309e-04  -1.7961593e-04  -3.2639827e-04   6.1548148e-05  -8.8241613e-05  -1.5745599e-04  -1.0114649e-04   1.1652639e-04  -5.5928849e-05  -1.6876814e-04  -3.1984659e-05  -4.0247256e-04   4.5900964e-04  -4.4569923e-04  -1.2928185e-03  -1.0226239e-03
   1.1651121e-04   2.0604617e-04   8.0875296e-05   2.5575844e-04   2.5066442e-04   1.5793752e-04   5.8142637e-04   2.6058091e-04   3.1612074e-04   7.0314371e-04  -2.8560159e-04   3.2478725e-04  -1.4468812e-04  -9.0469206e-05  -1.6198932e-04   3.4731147e-05  -3.7403477e-04   2.2506947e-04   2.4469235e-04   2.8081887e-04   5.1519822e-04   9.8790473e-04   1.5284983e-04   3.4961975e-04   1.0242133e-04   2.7054647e-04  -4.3258999e-05  -8.6750631e-05   2.8928532e-04   1.7402062e-04   3.9947490e-04   3.5213746e-04   7.1762991e-04   2.3339070e-04  -1.8701272e-04  -6.3053696e-05  -2.2442320e-04   2.9040832e-04   1.3883453e-04   9.7508520e-05  -1.2981256e-04   1.6631659e-04   1.3618043e-04   1.0799811e-04   1.3525320e-04  -4.1861081e-04   6.3148385e-04  -3.6197071e-04  -1.6065342e-03  -7.5297372e-04
   4.5802136e-04   4.8737018e-04   2.8641627e-04   4.3283930e-04   3.7132009e-04   2.3501777e-04   6.8145618e-04   3.4682368e-04   3.5282146e-04   8.1032031e-04  -1.2876923e-04   3.5573065e-04  -1.2431698e-04  -1.1736996e-04  -2.3850915e-04   2.0694327e-04  -2.8421829e-04   2.9957556e-04   3.9568101e-04   3.0882854e-04   5.3763762e-04   9.5335126e-04   1.6824654e-04   3.6728347e-04   6.0935876e-05   2.2223992e-04  -5.0196486e-05  -1.6849456e-04   2.4932841e-04   8.9183544e-05   3.3048043e-04   2.8564458e-04   6.1789859e-04   1.7115787e-04  -2.6573663e-04  -1.4876761e-04  -2.8618207e-04   1.8500605e-04  -1.3282758e-05   1.6404605e-05  -1.4511227e-04   1.6038679e-04   7.0736372e-05   2.3756718e-05   9.8764118e-05  -3.0886981e-04   5.1598321e-04  -3.7848789e-04  -1.0220055e-03  -9.7225700e-04
   2.8806541e-04   3.7857844e-04   1.0142718e-04   3.3170634e-04   2.6818842e-04   1.4216585e-04   4.5084819e-04   2.3369325e-04   2.8962019e-04   6.2561908e-04  -1.8876576e-04   2.1141749e-04  -1.9508225e-04  -1.2835208e-04  -2.7795034e-04  -4.3662312e-05  -4.0039234e-04   2.0601868e-04   8.8332177e-05   1.8318469e-04   5.6024815e-04   8.7172538e-04   7.9648387e-05   2.4754554e-04  -9.8366356e-05   9.4697025e-05  -1.4573158e-04  -1.6614656e-04   1.5150175e-04   7.8950674e-05   3.2519462e-04   2.8217919e-04   6.1561796e-04   2.3933647e-04  -2.1147727e-04  -4.7168636e-05  -2.4121041e-04   2.8744916e-04   1.2549582e-04   1.1276048e-04   1.3198705e-04   3.3967124e-04   3.5935460e-04   1.2025653e-04   2.6819046e-04  -1.1748893e-05   6.6872186e-04  -3.6059890e-05  -1.2083721e-03  -4.6384594e-04
   4.7207030e-04   5.5439374e-04   3.0536708e-04   5.5234099e-04   4.5665802e-04   3.6573183e-04   6.6117378e-04   4.9557339e-04   4.9925910e-04   9.3244179e-04   6.7364053e-05   4.9453950e-04   1.3944693e-04   1.4954533e-04  -8.1151447e-05   5.8918456e-05  -1.8337439e-04   3.6719401e-04   3.0291890e-04   3.4978453e-04   8.1776065e-04   1.1016770e-03   3.4264653e-04   4.5758890e-04   1.7257387e-04   3.3144382e-04  -2.8612914e-05  -4.2554448e-06   3.7087267e-04   2.6550528e-04   4.3705423e-04   4.3794248e-04   6.0561561e-04   4.1992156e-04  -9.5882249e-05   4.9893879e-05  -9.8161581e-05   4.7429322e-04   2.3987237e-04   2.7337589e-04   1.6169247e-04   3.6536760e-04   4.8839627e-04   2.4690136e-04   3.4489032e-04   4.6026433e-04   6.9162517e-04   3.9583279e-05  -9.8033680e-04  -1.9252325e-04
   4.4731682e-04   5.0631433e-04   3.3289529e-04   4.6256589e-04   4.0236322e-04   3.2004240e-04   5.8325601e-04   4.7550688e-04   5.0779141e-04   7.8573189e-04   1.3177494e-04   3.7567795e-04   2.2980938e-04   1.7986566e-04  -3.9914037e-05   1.0149286e-04  -1.4491513e-04   3.8522205e-04   2.3838710e-04   2.8862184e-04   8.0623542e-04   1.0084420e-03   3.5775203e-04   3.5543781e-04   1.9669713e-04   2.6997927e-04   4.1153831e-05  -7.0108697e-05   3.8296630e-04   2.1565342e-04   3.9192403e-04   3.6507126e-04   4.1193710e-04   3.5708095e-04  -1.5760958e-04  -1.2189662e-05  -1.4704072e-04   3.6903369e-04   1.0575738e-04   1.7077030e-04   3.7220350e-05   2.8724378e-04   3.0698942e-04   2.4401324e-04   2.9246166e-04   4.6218387e-04   5.7368819e-04  -1.1764596e-04  -9.9353376e-04  -2.8104807e-04
   2.9730581e-04   3.5302786e-04   2.9089086e-04   4.2364118e-04   4.0139901e-04   3.4067291e-04   6.0519448e-04   5.0353113e-04   4.1832947e-04   8.1533467e-04   1.6122230e-04   4.4754459e-04   3.3894021e-04   2.6366013e-04   4.2266071e-05   1.9630446e-04  -4.0201627e-05   4.2422244e-04   3.5375738e-04   3.6214764e-04   8.6931750e-04   1.1253587e-03   4.5397860e-04   5.6449004e-04   3.2439406e-04   4.0925623e-04   1.0062380e-04   5.3054322e-05   4.5002613e-04   3.2761379e-04   5.9272983e-04   5.3409353e-04   6.9952116e-04   6.1661762e-04  -5.0937424e-06   1.3484214e-04   3.5145506e-05   6.4516591e-04   3.8408008e-04   4.2598465e-04   2.9135938e-04   4.6373607e-04   6.0365611e-04   4.5881944e-04   5.4872240e-04   7.3940970e-04   7.8310730e-04   1.5913091e-04  -1.0369041e-03   2.4440542e-06
   5.4286991e-04   5.6652178e-04   4.3419766e-04   5.3758617e-04   5.0994905e-04   4.1657072e-04   6.6746719e-04   6.0596963e-04   6.3039729e-04   8.4263925e-04   2.5735321e-04   4.7004141e-04   4.7864721e-04   3.8566996e-04   1.0576034e-04   3.0069789e-04   3.1235035e-05   5.1574945e-04   4.3340086e-04   4.0898073e-04   8.1511238e-04   1.1064815e-03   5.2369438e-04   6.0412078e-04   3.4212711e-04   4.4237889e-04   1.8919188e-04   6.9944130e-05   5.8163970e-04   3.2533036e-04   5.7486427e-04   5.1987503e-04   6.3235709e-04   5.7233032e-04  -1.8841125e-05   1.3854164e-04   3.3129458e-05   5.6725310e-04   2.9471188e-04   3.9168901e-04   2.1486952e-04   4.0875719e-04   4.8305080e-04   4.5443024e-04   5.5003713e-04   6.2376092e-04   6.7457999e-04  -4.3180142e-05  -1.2333547e-03  -9.1028749e-05
   4.4932406e-04   4.9472885e-04   3.5100910e-04   4.3635088e-04   4.5905885e-04   3.3082554e-04   5.7225145e-04   5.7149353e-04   5.3691928e-04   6.0078019e-04   2.0591637e-04   3.4322674e-04   4.2666649e-04   3.2535367e-04   7.0543145e-05   2.4378147e-04  -3.7757949e-05   4.5580178e-04   1.4831522e-04   2.9346999e-04   6.6296611e-04   9.2833646e-04   3.2313872e-04   3.8228140e-04   2.5168067e-04   3.8919141e-04   1.6716696e-04  -2.2959910e-05   4.7791970e-04   2.1067924e-04   4.6949513e-04   4.0625295e-04   4.1224412e-04   4.1240960e-04  -8.9846144e-05  -9.1254287e-06  -7.3898103e-05   4.3814201e-04   1.6975946e-04   2.5066931e-04   2.1962729e-05   2.6778918e-04   2.8603969e-04   4.8865011e-04   4.4075126e-04   5.6058797e-04   7.0076273e-04  -7.6853350e-05  -7.9393113e-04  -2.0872793e-04
   8.4947527e-04   7.7054877e-04   5.7115860e-04   7.0610736e-04   7.0454756e-04   5.5966794e-04   9.6066826e-04   7.6539360e-04   6.1292795e-04   7.9742091e-04   2.7063381e-04   5.9270673e-04   4.3385205e-04   3.6082591e-04   1.5247698e-04   6.3791778e-04   2.1067950e-04   6.4927078e-04   7.3362736e-04   5.6901644e-04   7.4370316e-04   1.1618376e-03   5.8573787e-04   8.0138625e-04   5.7236664e-04   7.3422166e-04   3.6232328e-04   1.4414804e-04   6.5652252e-04   3.9329939e-04   7.9101790e-04   6.3934893e-04   9.1789465e-04   6.5375230e-04   8.1576974e-05   1.8047482e-04  -1.5767252e-07   6.1107753e-04   3.1741656e-04   4.4001470e-04   1.2214029e-04   2.7814860e-04   4.1654130e-04   5.4504263e-04   4.0158140e-04   2.1327971e-04   7.3194678e-04  -5.9307291e-05  -8.5545360e-04  -4.0846402e-04
   8.6119998e-04   7.4946601e-04   6.2292063e-04   7.1531924e-04   7.0259284e-04   5.2766968e-04   8.5582037e-04   7.9504924e-04   6.7699642e-04   9.0225588e-04   3.4963564e-04   5.3907384e-04   4.4279598e-04   3.7866432e-04   9.4746189e-05   6.7425391e-04   1.7101309e-04   6.4102095e-04   3.7493298e-04   5.1327905e-04   7.1296055e-04   1.0243736e-03   4.6635876e-04   7.2767242e-04   3.8059949e-04   6.0793466e-04   3.3167706e-04   8.4307707e-05   6.0904113e-04   3.1910537e-04   6.1452558e-04   5.1357812e-04   7.8016694e-04   5.0244376e-04   3.4434819e-05   1.4174878e-04  -1.3304346e-05   5.1471434e-04   2.0756222e-04   3.0437970e-04   2.2592860e-04   3.0230026e-04   3.6752998e-04   3.7910973e-04   3.8970364e-04   1.8335902e-04   6.2934030e-04  -1.9094815e-04  -8.8025903e-04  -3.8063314e-04
   5.6449190e-04   5.3603441e-04   3.3226129e-04   4.8175224e-04   5.2780792e-04   3.9030885e-04   6.0268096e-04   6.2686380e-04   4.9987657e-04   6.4804964e-04   2.9869928e-04   3.4986142e-04   4.0255903e-04   3.7839115e-04   7.9718360e-05   4.9546809e-04   4.7833539e-05   5.7745294e-04   2.0958530e-04   2.0620601e-04   7.3749613e-04   9.3229336e-04   3.7026693e-04   5.2271027e-04   3.4023504e-04   4.4586562e-04   3.0383724e-04   1.8671466e-05   5.2086776e-04   2.4847535e-04   5.1945657e-04   4.3713494e-04   6.0382177e-04   4.0053017e-04  -2.4712877e-05   1.1769406e-04  -7.0243220e-07   5.1966083e-04   2.2085554e-04   4.1356645e-04   4.7934245e-05   2.3078642e-04   4.3132369e-04   5.3445977e-04   4.0604337e-04   1.4034861e-04   6.9102325e-04  -2.6622289e-04  -6.7441171e-04  -3.8498655e-04
   9.4747625e-04   8.6659158e-04   5.8883213e-04   7.3223736e-04   8.0755638e-04   6.2068709e-04   9.1092318e-04   8.1737549e-04   5.9769518e-04   1.0092817e-03   4.0200056e-04   6.1576214e-04   5.1701057e-04   4.6372585e-04   1.3547075e-04   7.0004107e-04   1.7121958e-04   7.0263079e-04   7.1404286e-04   7.8834669e-04   4.6147135e-04   9.2182169e-04   4.7491334e-04   7.4657542e-04   4.6389858e-04   6.4058485e-04   3.4725814e-04   2.0749259e-04   7.2823378e-04   3.6115223e-04   6.9925090e-04   6.4763014e-04   1.1210574e-03   5.4809271e-04   8.7116649e-05   2.4373032e-04   1.1771891e-04   5.8507221e-04   3.0779658e-04   4.5364077e-04   7.6759468e-05   1.8732021e-04   3.5960798e-04   5.0172932e-04   3.3129420e-04  -1.6916354e-04   5.3449615e-04  -3.5295711e-04  -1.1460783e-03  -7.0035359e-04
   1.0335785e-03   9.3585369e-04   5.6961866e-04   7.4656476e-04   8.6216506e-04   6.3072034e-04   7.5557607e-04   7.7446562e-04   7.6560600e-04   9.6080499e-04   5.5533386e-04   5.7943963e-04   4.8703418e-04   4.5381507e-04   1.2076116e-04   7.7046722e-04   1.9237518e-04   7.0440839e-04   4.3573842e-04   7.0527516e-04   4.8775409e-04   8.5990567e-04   5.1051739e-04   7.6654798e-04   4.4410559e-04   5.9528329e-04   4.7692790e-04   1.5220545e-04   7.1841868e-04   3.2902003e-04   5.9037405e-04   5.7037192e-04   1.0160839e-03   4.3982701e-04   1.8369027e-06   1.4705438e-04   6.4572108e-05   3.7950167e-04   7.8594341e-05   2.4798349e-04  -5.1331881e-05   5.8174104e-05   1.2897156e-04   3.0894150e-04   2.0123957e-04  -6.0002593e-04   3.9122583e-04  -5.5798923e-04  -1.0497925e-03  -1.0302145e-03
   8.2969270e-04   7.1345858e-04   3.8043846e-04   5.2492839e-04   6.8789750e-04   4.5967073e-04   5.5341847e-04   5.8827625e-04   5.1163917e-04   7.0504157e-04   3.5088981e-04   3.4304644e-04   2.5479906e-04   2.6142786e-04  -5.4517594e-05   5.2474462e-04  -2.1327854e-05   5.1076454e-04   2.1259086e-04   4.5607783e-04   3.2434193e-04   6.2156096e-04   2.7368785e-04   5.1354349e-04   1.7003047e-04   4.0129450e-04   2.7146848e-04   4.6638717e-05   4.7542271e-04   2.0028377e-04   4.9314206e-04   4.2559285e-04   8.6682296e-04   3.2256328e-04  -1.1301162e-06   1.4854931e-04   2.2644856e-05   4.4494306e-04   2.7090576e-04   2.7763165e-04   2.1978360e-04   2.0115713e-04   3.0549892e-04   2.4505248e-04   2.1333899e-04  -3.0700813e-04   4.7181986e-04  -8.5184460e-05  -1.0607741e-03  -7.4735691e-04
   1.0139022e-03   8.6211046e-04   4.6174569e-04   7.3224586e-04   8.3256676e-04   6.7186827e-04   7.6103379e-04   7.2572043e-04   5.9066084e-04   9.7797054e-04   3.9113124e-04   5.9611263e-04   4.0222838e-04   4.8751206e-04   1.4652517e-04   4.7189722e-04   7.2457529e-05   5.7511491e-04   4.4415449e-04   5.9360196e-04   4.6310300e-04   8.6448772e-04   4.9389602e-04   7.9377496e-04   3.7785890e-04   6.6078873e-04   2.6237132e-04   2.8467429e-04   6.2119099e-04   4.2934433e-04   6.1307946e-04   5.6108949e-04   9.4395591e-04   4.2659490e-04   1.7153837e-04   2.8101922e-04   1.8205836e-04   5.8219145e-04   3.8682786e-04   4.1027588e-04   3.2250033e-04   3.0346427e-04   4.4866017e-04   2.7012298e-04   2.5595829e-04  -1.7285682e-04   5.5404170e-04   4.0615112e-05  -1.0325901e-03  -7.0204947e-04
   9.2159846e-04   7.8876514e-04   3.8848535e-04   6.5113843e-04   7.5797003e-04   5.9579813e-04   7.0127682e-04   6.4898084e-04   5.3596875e-04   8.2427234e-04   3.3520747e-04   5.0505728e-04   3.9265867e-04   4.7886686e-04   1.6417826e-04   3.9446913e-04  -6.2834711e-06   5.5819255e-04   3.0928181e-04   4.7149806e-04   4.1432830e-04   7.4156316e-04   4.1322212e-04   6.6050905e-04   3.4009770e-04   5.9342792e-04   2.7501694e-04   2.5878081e-04   5.6896440e-04   3.9471430e-04   4.8491789e-04   4.5466801e-04   7.2334369e-04   2.8568361e-04   1.0621911e-04   2.4336542e-04   1.0774874e-04   4.5074784e-04   2.6368498e-04   2.6864282e-04   2.4710697e-04   2.1008111e-04   2.6841438e-04   1.0677471e-04   9.2659568e-05  -3.2739161e-04   4.2187737e-04  -2.0919771e-04  -1.4863705e-03  -9.6613419e-04
   6.4195227e-04   5.0237274e-04   1.6037993e-04   4.2516191e-04   5.2951742e-04   3.6303283e-04   4.8877776e-04   4.6195980e-04   4.3158198e-04   4.8918417e-04   1.7116357e-04   2.7149895e-04   2.4414304e-04   3.0353983e-04   7.2475770e-05   2.9685220e-04  -1.5065343e-04   4.0713671e-04   3.9846524e-05   2.3295988e-04   3.0823884e-04   5.6160690e-04   2.6394037e-04   4.6745440e-04   2.0100013e-04   3.9498205e-04   2.7160987e-04   1.8894322e-04   4.7103662e-04   3.0102427e-04   4.6212834e-04   3.5556164e-04   6.6546764e-04   2.5762321e-04   1.0740334e-04   2.3041142e-04   8.8797329e-05   4.9881678e-04   3.0262212e-04   3.0451652e-04   2.6796813e-04   2.1671058e-04   3.3525881e-04   1.1487044e-04   3.8506379e-05  -2.1474822e-04   5.1962526e-04  -5.0930070e-05  -8.6634391e-04  -6.1578653e-04
   8.1403350e-04   6.4967683e-04   2.6928305e-04   6.1568414e-04   6.5574259e-04   5.3327240e-04   6.9741573e-04   5.9860147e-04   4.1201754e-04   6.7338953e-04   1.5327519e-04   4.7975234e-04   3.8870762e-04   4.2854209e-04   2.0132182e-04   2.6738015e-04  -1.0831775e-04   4.5529386e-04   1.2199999e-04   2.6862236e-04   4.4776453e-04   7.1017648e-04   3.1888750e-04   6.2175369e-04   3.1942033e-04   5.4646650e-04   1.8209536e-04   2.6717235e-04   4.7527603e-04   3.8874630e-04   5.0950638e-04   3.4934221e-04   6.3347223e-04   2.7613770e-04   1.5496743e-04   2.4594800e-04   1.0490588e-04   5.3438760e-04   4.0652143e-04   2.8145814e-04   3.3766174e-04   2.5929688e-04   3.3438299e-04   2.8261968e-05   6.3060128e-05  -2.3423834e-05   4.9846247e-04   4.6182344e-05  -1.0110275e-03  -5.5604399e-04
   6.8158103e-04   5.2102737e-04   1.7269458e-04   5.0444057e-04   5.3250208e-04   4.1405816e-04   6.2342908e-04   4.9866614e-04   3.6708586e-04   4.3820083e-04  -2.1446414e-05   3.2713905e-04   2.8324386e-04   3.7407895e-04   1.7513428e-04   9.8642107e-05  -1.9825759e-04   3.9008204e-04   8.9418078e-05   1.6872892e-04   3.8150829e-04   6.2593329e-04   2.5619025e-04   4.4342925e-04   2.4643281e-04   5.1203714e-04   1.5390581e-04   2.2917386e-04   4.3546795e-04   3.4111290e-04   3.7133074e-04   2.5617660e-04   4.6011189e-04   1.5493641e-04   1.0349257e-04   1.7608480e-04   3.2628508e-05   4.1121693e-04   2.6016406e-04   1.8906881e-04   2.4748631e-04   1.8572222e-04   1.9342468e-04  -6.9417045e-05  -1.1356056e-04  -2.4110600e-04   4.6812883e-04  -1.9584822e-04  -1.2806250e-03  -8.9118292e-04
   6.1102695e-04   4.2850655e-04   8.6975655e-05   4.8601491e-04   4.2891284e-04   3.1075047e-04   7.6301780e-04   3.3319762e-04   3.0794992e-05   8.3321444e-05  -3.5769504e-04   2.4885460e-04  -2.8829230e-05   1.0038977e-04   8.0751837e-05   5.3357522e-05  -2.3691446e-04   3.2971334e-04   3.0418581e-04   1.5109782e-04   3.2097194e-04   6.4052735e-04   2.6144623e-04   5.3976796e-04   2.9501057e-04   6.9142861e-04   4.2794974e-05   3.0327888e-04   4.3450340e-04   4.3226918e-04   6.4128306e-04   3.3329753e-04   5.9988152e-04   1.1415190e-04   2.4853964e-04   1.6219972e-04  -8.0974809e-05   5.7822076e-04   5.6951970e-04   3.8631956e-04   3.4916584e-04   2.4012715e-04   2.8189598e-04  -1.9726613e-06  -9.0078938e-06  -4.2131799e-04   6.4000679e-04   1.4250612e-04  -1.4085837e-03  -7.1394962e-04
   9.2340825e-04   5.8765564e-04   3.1825760e-04   7.8799383e-04   4.9796520e-04   4.3878856e-04   1.0718188e-03   4.0963877e-04   4.1869385e-04   2.7887552e-04  -3.2290869e-04   3.3847199e-04  -1.3262701e-04   6.7493333e-05   5.4434655e-05   2.9891911e-05  -2.2477843e-04   3.3315117e-04   2.3615942e-04   1.1972431e-04   2.4766428e-04   6.5211160e-04   1.9282883e-04   4.9752946e-04   2.5293377e-04   6.0691492e-04  -1.2496297e-04   2.3902106e-04   3.4690753e-04   4.4270841e-04   5.3831207e-04   2.8859830e-04   4.9935147e-04   4.2788401e-05   1.9627059e-04   1.7578449e-04  -1.2241786e-04   5.2967679e-04   5.3166610e-04   2.8282552e-04   4.1436407e-04   2.4811609e-04   3.3356901e-04  -2.2134320e-04  -1.3661023e-05  -3.5157125e-04   4.8604709e-04   1.0929320e-04  -1.4155112e-03  -8.1223482e-04
   5.5588165e-04   3.4552868e-04   7.3000716e-05   5.3912291e-04   3.1887664e-04   2.8152947e-04   7.7034428e-04   2.9312991e-04   8.9543399e-05   1.6645105e-04  -4.1491038e-04   1.8097539e-04  -1.8764171e-04   7.8523117e-05   3.0680629e-05  -2.6103901e-04  -3.4993680e-04   2.7223499e-04   1.5425432e-05  -2.5718562e-05   2.1193961e-04   5.4105965e-04   7.4070369e-05   3.1304194e-04   1.2669578e-04   4.3998312e-04  -1.5863382e-04   1.9135661e-04   2.8459029e-04   3.9219722e-04   3.6114437e-04   1.6704963e-04   2.7613799e-04  -6.8121612e-05   1.0331278e-04   9.5839488e-05  -1.8030244e-04   4.2107821e-04   4.2262286e-04   1.3727677e-04   3.8872953e-04   2.5349527e-04   3.0592555e-04  -2.6370064e-04  -5.0496845e-05  -1.5922151e-04   5.7584461e-04   2.6874902e-04  -1.3930072e-03  -6.8213802e-04
   5.9663347e-04   3.7403894e-04   1.3688639e-04   6.3329429e-04   3.6106093e-04   3.5573551e-04   8.8775926e-04   3.3139007e-04   2.2964217e-04   3.4948459e-04  -3.1481707e-04   3.2717991e-04  -5.9423572e-05   1.8925614e-04   1.3651568e-04  -2.0453535e-04  -2.7477153e-04   2.9575764e-04   2.9410681e-04   1.2446972e-04   3.6898867e-04   7.8303437e-04   1.9645595e-04   5.6604383e-04   2.6895243e-04   5.4989540e-04  -9.7134151e-05   3.2075486e-04   4.5072567e-04   5.1936379e-04   5.4358481e-04   3.4575514e-04   6.1880442e-04   2.6431464e-04   2.5529251e-04   2.7003585e-04  -1.4407045e-05   6.9700880e-04   5.9551164e-04   3.7798021e-04   5.3312647e-04   4.1328452e-04   5.3650752e-04  -1.5117587e-04   6.3858031e-05   7.2020201e-05   6.8030471e-04   3.1404843e-04  -1.1159349e-03  -3.2401041e-04
   5.1368208e-04   3.9242307e-04   1.1704585e-04   6.1981939e-04   3.4691751e-04   3.1319290e-04   7.6822541e-04   3.4112894e-04   2.2425421e-04   3.7189451e-04  -2.2587624e-04   3.5993769e-04   2.7083679e-05   2.1791925e-04   1.3075527e-04  -6.9894806e-05  -2.3145670e-04   3.4193107e-04   1.5949443e-04   5.6460900e-05   6.5958232e-04   8.3059858e-04   2.3354984e-04   5.3162075e-04   3.1213521e-04   5.0894590e-04   1.2111790e-04   2.4647877e-04   5.0211512e-04   4.2737363e-04   4.5826877e-04   3.3276548e-04   5.8400771e-04   2.2758012e-04   2.0075044e-04   1.4622380e-04  -5.0426181e-05   4.6147263e-04   3.3397420e-04   2.6564865e-04   1.3715847e-04   2.5106251e-04   2.2070328e-04   1.2583738e-05  -6.5361324e-05  -7.1939774e-04   3.7965606e-04  -3.5274451e-04  -7.8599592e-04  -9.1598462e-04
   5.5961026e-04   4.7898915e-04  -4.4353499e-05   5.9001794e-04   3.3804367e-04   1.9471365e-04   5.9151120e-04   2.7435360e-04   1.8211604e-04   2.1932462e-04  -3.1418898e-04   2.2588814e-04  -2.2168671e-04  -6.2194064e-05  -9.2737610e-05   1.4861097e-04  -2.4839985e-04   3.2216709e-04   1.4609902e-04   6.7168316e-05   6.9442793e-04   8.6081377e-04   9.9072131e-05   5.4106495e-04   1.5041216e-04   4.3786122e-04   1.1985088e-04   2.5964135e-04   4.0729571e-04   3.3156254e-04   3.7047188e-04   4.3979468e-04   8.2875270e-04   2.3830478e-04   1.0517514e-04   7.5369244e-05  -7.7618330e-05   3.8840718e-04   3.0661700e-04   2.6978966e-04   1.8547874e-04   3.0278342e-04   3.7211244e-04  -1.3984631e-05  -1.0559343e-05  -8.2460133e-04   3.1941029e-04  -6.2602274e-05  -1.0030172e-03  -7.6654379e-04
   8.8303129e-04   7.1261387e-04   2.5320580e-04   8.2416338e-04   5.0204789e-04   4.0399312e-04   8.1096211e-04   4.4191640e-04   2.8467213e-04   5.9195718e-04  -3.6369380e-07   4.7812585e-04  -1.0456779e-04  -7.4846625e-06  -5.8302459e-05   3.6887152e-04  -5.9357466e-05   3.8747187e-04   1.2105910e-04   1.5474189e-04   7.5207109e-04   8.6095062e-04   2.2330525e-04   6.2683265e-04   1.5687995e-04   4.3846105e-04   1.3612179e-04   1.4981140e-04   3.6710437e-04   2.7894176e-04   3.6986617e-04   3.7276282e-04   7.6776365e-04   2.1659691e-04   3.4742992e-05  -1.4670259e-05  -1.3559502e-04   3.3757201e-04   2.3282149e-04   1.9558320e-04   2.4789589e-04   3.0062173e-04   4.4397416e-04  -2.3334849e-05   7.3723631e-06  -6.6026446e-04   2.8460796e-04   8.3500381e-05  -1.0938372e-03  -7.4178906e-04
   6.1706005e-04   4.8693383e-04   1.1736896e-04   6.1402022e-04   3.2557643e-04   2.7574602e-04   6.2019553e-04   2.8750164e-04   2.1350615e-04   4.3654480e-04  -7.5260679e-05   3.0709914e-04  -1.8327526e-04  -2.5452102e-05  -1.0812448e-04   8.2678953e-06  -2.0568124e-04   2.4516953e-04   4.2500782e-05   6.8202935e-06   6.0660101e-04   7.1613002e-04   1.4775374e-04   3.8897732e-04  -5.2682783e-05   2.6011115e-04  -5.5541987e-05   5.3320855e-05   2.3073451e-04   1.6403032e-04   1.6281426e-04   2.0482455e-04   4.6262663e-04   8.9976558e-05  -8.3955012e-05  -5.6754448e-05  -1.9819759e-04   2.0526526e-04   1.0487712e-04   2.9809606e-05   3.7473772e-04   3.9915516e-04   5.8205723e-04  -9.6668286e-05   1.0307893e-05  -2.2305918e-04   3.7927143e-04   4.2656707e-04  -9.1440941e-04  -3.8429254e-04
   5.8988295e-04   4.7617624e-04   1.1514698e-04   6.6659314e-04   3.8047563e-04   3.8436631e-04   6.8239967e-04   3.9465737e-04   4.5878781e-04   6.0311524e-04   4.1139683e-05   4.6239444e-04   4.2501379e-06   1.4673673e-04   2.6197456e-05   5.0673418e-05  -1.0245122e-04   3.1625922e-04   2.9695246e-04   1.6590701e-04   7.7469443e-04   9.2322630e-04   3.4321193e-04   6.4195023e-04   1.0522066e-04   4.5895163e-04  -4.7779185e-06   2.1226509e-04   4.3898294e-04   3.6148354e-04   4.2632950e-04   4.3247681e-04   8.2882046e-04   4.2232772e-04   1.1542103e-04   1.5716485e-04   1.7411976e-07   5.7104183e-04   4.0034155e-04   3.9558110e-04   7.1207475e-04   6.6234334e-04   9.6508692e-04   1.3282802e-04   2.3039697e-04   3.7255428e-05   6.0662103e-04   7.4358587e-04  -1.1375761e-03  -2.1242544e-04
   5.9248303e-04   5.3911528e-04   1.8961905e-04   7.1783789e-04   4.0493094e-04   3.9412032e-04   6.6947407e-04   4.7295788e-04   4.3679704e-04   5.9570669e-04   1.2370660e-04   4.7690625e-04   1.3198018e-04   2.4781624e-04   8.1100057e-05   1.3312489e-04  -4.3187116e-05   3.9915802e-04   3.1499771e-04   1.8755716e-04   7.8929251e-04   8.7958312e-04   3.3010347e-04   6.2180450e-04   9.5491916e-05   4.3361969e-04   7.3029812e-05   2.0548045e-04   3.7183714e-04   3.5831565e-04   3.4514541e-04   3.7941136e-04   6.6780782e-04   3.9227246e-04   7.6338998e-05   1.0955208e-04  -1.1983641e-06   4.8527980e-04   3.4403981e-04   3.1172603e-04   6.9700606e-04   6.9194910e-04   9.2088530e-04   1.4722998e-04   1.0654818e-04  -6.1439646e-06   5.7979557e-04   6.9364102e-04  -1.0665960e-03  -3.4179937e-04
   4.3284503e-04   3.6903302e-04   4.8852879e-05   5.4819888e-04   2.7341084e-04   2.5251563e-04   5.0708337e-04   3.5893777e-04   4.1204799e-04   3.7049744e-04   5.6076933e-05   2.7943662e-04   7.6113771e-05   1.8514010e-04   3.3975128e-05   7.9727295e-05  -1.2705787e-04   3.0384326e-04  -7.1594142e-05   4.6021727e-05   6.1825110e-04   6.6904502e-04   1.7323668e-04   3.7802136e-04  -1.0633412e-05   2.7382429e-04   4.9899842e-05   1.1986289e-04   2.6147603e-04   2.4162675e-04   2.1353597e-04   2.6935287e-04   5.0955615e-04   2.7127311e-04   4.9880367e-05   7.2053605e-05  -3.9843297e-05   4.8982585e-04   3.8950579e-04   3.0812362e-04   8.0214604e-04   7.4623234e-04   1.0190923e-03   2.2848182e-04   1.6109954e-04   1.0716572e-04   6.2877615e-04   8.7655458e-04  -7.7784259e-04  -2.3712714e-04
   6.4411585e-04   5.2096450e-04   2.4632228e-04   7.3197024e-04   4.2759019e-04   4.5799400e-04   7.7770709e-04   5.6423648e-04   7.1521965e-04   6.9020165e-04   1.9063998e-04   5.4980355e-04   3.2063361e-04   3.6709418e-04   2.0473031e-04   3.1919478e-04   7.4302916e-05   4.2194079e-04   3.5790284e-04   2.4669911e-04   6.5352657e-04   9.0194587e-04   4.4643378e-04   6.8947667e-04   2.8559580e-04   5.2015221e-04   2.0537137e-04   2.3622773e-04   5.0495280e-04   3.9593902e-04   4.0732903e-04   4.0966881e-04   7.1740709e-04   4.8060471e-04   1.3251870e-04   1.6169965e-04   7.7715842e-05   5.8398349e-04   4.3692114e-04   4.2952094e-04   6.9046003e-04   6.9331127e-04   1.1066495e-03   3.5019784e-04   1.7249443e-04   9.7142758e-05   6.2848587e-04   8.2421053e-04  -9.8955329e-04  -1.9662893e-04
   6.1804411e-04   4.7947344e-04   2.6407192e-04   6.5608823e-04   3.9410862e-04   4.0400008e-04   6.9156039e-04   5.5343751e-04   6.4028043e-04   5.9547037e-04   2.0833459e-04   4.4347535e-04   3.6816820e-04   3.4803950e-04   1.7598891e-04   4.4169734e-04   1.1938396e-04   4.2150976e-04   2.8047562e-04   1.6028914e-04   7.1612647e-04   8.0027059e-04   4.3804821e-04   5.5190618e-04   2.5213210e-04   4.3501338e-04   3.1474800e-04   1.2645649e-04   4.5972681e-04   2.9999105e-04   2.9581887e-04   3.1942705e-04   4.9765414e-04   3.8984348e-04   1.5993506e-05   8.2655140e-05   4.6855777e-07   3.6577357e-04   2.0641970e-04   2.6362724e-04   4.0027397e-04   4.7749208e-04   7.5610355e-04   2.8597726e-04   2.0943558e-05  -3.1003761e-04   4.2357843e-04   3.6203774e-04  -1.1579581e-03  -7.5888319e-04
   3.8291604e-04   2.5247529e-04   1.0391900e-04   4.3670199e-04   2.4159254e-04   1.9203569e-04   4.4450132e-04   3.8505075e-04   4.4798679e-04   3.3230655e-04   8.1638762e-05   1.8861776e-04   2.1944295e-04   1.9189598e-04   3.3070792e-06   4.2990514e-04  -4.2465297e-05   2.9959579e-04  -1.5495787e-05   5.3003623e-05   7.7074912e-04   6.1729836e-04   2.4128286e-04   3.3039876e-04   7.0155147e-05   1.7979881e-04   2.9825451e-04  -3.8707214e-05   2.5504694e-04   1.3237735e-04   1.8513080e-04   2.0727946e-04   5.2543852e-04   3.0691648e-04  -6.2784908e-05   2.9160155e-05  -2.3824066e-05   3.3694186e-04   1.8215440e-04   2.4056646e-04   4.3726101e-04   4.7059866e-04   7.9116365e-04   2.7198813e-04   7.3929266e-05  -2.8650500e-04   4.4283035e-04   5.3515827e-04  -8.4027339e-04  -5.0174008e-04
   5.9562968e-04   4.9072842e-04   2.2034667e-04   6.6768593e-04   4.5916994e-04   4.4458493e-04   6.7200966e-04   6.0538371e-04   6.4884091e-04   5.8281090e-04   1.5575528e-04   4.3749585e-04   4.5052182e-04   4.7343862e-04   1.7987246e-04   3.7284047e-04   5.1383744e-05   4.0580228e-04   4.0035948e-04   2.0002703e-04   7.8883895e-04   8.3277468e-04   4.1453270e-04   5.6199083e-04   1.8243834e-04   4.5956648e-04   2.3125434e-04   2.1515856e-04   4.7110370e-04   3.7579061e-04   2.8427120e-04   3.1264091e-04   5.8871735e-04   4.1933922e-04   1.2730015e-04   1.9961671e-04   1.5083008e-04   4.8502776e-04   4.0067415e-04   3.4639263e-04   7.5213448e-04   6.5101066e-04   9.6964306e-04   3.2611648e-04   2.0474060e-04  -1.9748286e-06   5.2731065e-04   6.5716635e-04  -6.9818267e-04  -4.3188580e-04
   5.2429788e-04   4.1084108e-04   2.0268261e-04   5.6768220e-04   3.9973360e-04   3.8315216e-04   5.4143125e-04   5.6079309e-04   4.1430167e-04   4.4729016e-04   1.9640336e-04   3.2982862e-04   4.9566448e-04   4.7353635e-04   1.8643054e-04   4.7541794e-04   3.9747094e-05   4.1707797e-04   3.1307386e-04   1.9963938e-04   7.7500846e-04   7.1626413e-04   3.0601406e-04   4.4060737e-04   2.2286859e-04   3.3521434e-04   4.5136199e-04   1.3492304e-04   4.3260783e-04   2.3468105e-04   1.3336001e-04   2.4100867e-04   4.9232383e-04   2.9176232e-04  -3.8802023e-05   7.4393771e-05   9.1242619e-05   1.7830917e-04   4.7010097e-05   1.0561033e-04   2.8878622e-04   3.3299573e-04   5.7635881e-04   2.1585613e-04  -5.1323985e-07  -4.4521759e-04   1.9942810e-04   6.4494656e-05  -6.6819513e-04  -6.9767266e-04
   3.0089708e-04   2.5470176e-04  -5.2693467e-05   3.3337309e-04   2.7634841e-04   1.9742080e-04   2.4157049e-04   3.7278802e-04   2.8531707e-04   1.6906040e-04   8.6277680e-05   6.9510934e-05   3.2159776e-04   2.9238610e-04   3.9765666e-05   3.3567369e-04  -1.3868400e-04   2.6185607e-04   1.1535555e-04   1.0607029e-04   6.9980498e-04   5.3877628e-04   2.0738508e-04   2.3440309e-04   3.6377416e-05   1.5115565e-04   3.2801394e-04   4.7252575e-05   3.0659031e-04   1.4105655e-04   9.0273308e-05   1.7438116e-04   5.6673010e-04   2.7001963e-04  -1.2190480e-05   1.0811963e-04   9.1876194e-05   2.6619117e-04   1.6507041e-04   1.6312815e-04   2.2163452e-04   2.6817020e-04   5.9140287e-04   1.4159879e-04   4.2510044e-05  -3.9446840e-04   2.1068836e-04   1.8244883e-04  -7.1845029e-04  -7.1544276e-04
   6.1298948e-04   5.1617424e-04   1.8261214e-04   5.7241588e-04   5.0306402e-04   4.5347886e-04   5.5145170e-04   5.7859387e-04   5.5339083e-04   5.5026228e-04   3.0986409e-04   3.5710196e-04   5.2417017e-04   4.5017383e-04   1.5464809e-04   5.6456367e-04   4.9904389e-05   3.9049709e-04   1.9218292e-04   2.9953753e-04   6.5398961e-04   6.6890905e-04   3.5170035e-04   4.2983308e-04   1.9883701e-04   3.1299487e-04   3.6377599e-04   1.1494500e-04   4.1071532e-04   2.0314063e-04   1.1639082e-04   2.2120128e-04   5.6984142e-04   2.6086139e-04  -8.5554466e-06   1.1101879e-04   1.4993762e-04   2.6989850e-04   1.3145819e-04   1.4693926e-04   2.3386069e-04   1.9708362e-04   4.7709281e-04   1.0330834e-04   3.7397684e-05  -3.0921391e-04   1.5047308e-04   1.0854637e-04  -1.3253816e-03  -6.5722875e-04
   4.9245177e-04   4.1910523e-04   7.2012277e-05   4.3046256e-04   4.2249932e-04   3.5611854e-04   4.1428558e-04   4.7288570e-04   2.9678061e-04   2.9465419e-04   1.2655952e-04   1.9102990e-04   4.3406535e-04   4.1722954e-04   1.1504545e-04   2.8102077e-04  -8.7709872e-05   3.0664654e-04   2.4852055e-04   1.6811382e-04   5.8524997e-04   5.2294339e-04   2.1841089e-04   2.7346404e-04   9.2890288e-05   2.5087735e-04   2.7638220e-04   1.0185978e-04   2.9346652e-04   1.9515143e-04  -3.2359552e-05   1.2180499e-04   3.1108171e-04   1.0327910e-04  -2.6764186e-05   7.6443554e-05   1.0792963e-04   1.6051761e-04   7.9774210e-05  -4.5835613e-06   2.0273949e-04   1.1829792e-04   3.1409381e-04  -7.8170182e-05  -3.2220869e-05  -3.9997726e-04  -1.2773571e-05  -3.3952518e-05  -1.2116520e-03  -7.5667206e-04
   2.1320303e-04   1.7893150e-04  -1.8281427e-04   1.9050608e-04   2.3757710e-04   1.7814313e-04   1.8379149e-04   2.6251268e-04   1.4922587e-04   5.4153865e-05  -8.3481535e-07  -5.3431791e-05   2.8770164e-04   2.9486712e-04   7.0414040e-05   1.0945559e-04  -2.3914310e-04   1.9547519e-04  -2.9958857e-05   9.2747850e-06   5.5083330e-04   3.3999851e-04   6.0216884e-05   4.2283176e-05  -3.1168071e-05   8.0574020e-05   2.2015601e-04   9.4511292e-05   2.2802112e-04   1.4200881e-04  -2.9574732e-05   7.9478668e-05   3.0497013e-04   1.0302800e-04   2.8041566e-05   1.1124372e-04   1.2607919e-04   2.3163424e-04   1.9311869e-04   1.1480515e-04   2.8704421e-04   2.0556124e-04   4.3210018e-04  -6.1537809e-05  -3.9710820e-05  -2.4380851e-04   5.3413358e-05   1.5864336e-04  -9.7068207e-04  -5.3543574e-04
   4.9629452e-04   3.9474756e-04  -1.0163353e-05   4.1162706e-04   4.2326469e-04   3.7787552e-04   4.2765337e-04   4.4340178e-04   3.4673922e-04   3.2584750e-04   8.8963920e-05   2.0713106e-04   4.6732897e-04   4.6638277e-04   2.2555406e-04   1.9641883e-04  -1.2580915e-04   3.0178900e-04   1.5904375e-04   1.4283355e-04   6.9303170e-04   5.5490964e-04   2.3355904e-04   2.8004273e-04   1.5559101e-04   2.8310312e-04   2.4326723e-04   2.2506547e-04   3.8126871e-04   2.8881821e-04   1.8268804e-05   1.4591624e-04   3.2657321e-04   1.6591571e-04   1.1715574e-04   1.8677725e-04   2.2516921e-04   2.6384616e-04   2.5538076e-04   1.2387049e-04   3.2579151e-04   2.4604070e-04   4.6611793e-04  -9.8103097e-05  -5.1437590e-05  -2.8313056e-04   7.7982382e-05   1.6878545e-04  -9.9949236e-04  -6.9233688e-04
   3.5396731e-04   2.5589159e-04  -9.3973722e-05   2.9401283e-04   3.2080975e-04   2.5852834e-04   3.4520283e-04   3.4803589e-04   1.7243857e-04   2.0132237e-04   3.2708205e-05   8.1196282e-05   4.0642222e-04   3.9935281e-04   2.0712137e-04   1.9919719e-04  -1.4594843e-04   2.6420911e-04   1.0733958e-04   3.5549161e-05   5.1070109e-04   4.3234805e-04   1.3943508e-04   1.3367887e-04   8.1484643e-05   1.6480389e-04   2.7003742e-04   1.5076232e-04   2.3311895e-04   1.9858546e-04  -1.3528686e-04   2.6743323e-06   8.8211935e-05   2.5628025e-05  -8.8739262e-06   6.9911686e-05   1.3659656e-04   9.9903446e-05   7.6781602e-05  -7.4879128e-05   1.5735027e-04   8.4037536e-05   2.3969001e-04  -2.5870526e-04  -1.7312095e-04  -4.6992931e-04  -9.4720999e-05  -8.8813416e-05  -1.3683523e-03  -9.0611697e-04
   6.6670851e-05  -7.4613621e-05  -3.4034217e-04   2.3394661e-05   7.0285583e-05   9.4735842e-06   7.7453289e-05   1.3498154e-04   8.4037812e-05  -9.0217240e-05  -1.9489242e-04  -2.1112272e-04   2.1827669e-04   1.9445599e-04   7.5986762e-05   4.1941177e-05  -3.4418865e-04   7.6949131e-05  -2.8994697e-04  -1.5385133e-04   3.6825886e-04   2.3489178e-04  -6.2662461e-05  -1.0156548e-04  -8.0063917e-05  -5.9220438e-05   2.3983736e-04   6.2118212e-05   1.4398312e-04   9.1754322e-05  -1.7856029e-04  -8.4791340e-05   1.1114189e-04  -9.5712476e-06  -2.2902973e-06   5.4902695e-05   8.3362058e-05   1.1903419e-04   1.1821078e-04  -1.8187538e-05   1.5881204e-04   8.3408093e-05   3.2686416e-04  -3.0356433e-04  -1.3477763e-04  -4.7865932e-04  -3.5052810e-05   5.8326623e-05  -8.8107056e-04  -7.9801329e-04
   2.4677807e-04   1.6003719e-04  -2.2702043e-04   2.5815194e-04   2.6214827e-04   1.8747535e-04   2.3882555e-04   2.5416582e-04   1.1281762e-04   1.6661872e-04  -1.3457844e-04   4.3432177e-05   3.3846000e-04   2.9993875e-04   1.4671081e-04   1.3260327e-04  -2.7944797e-04   1.4107297e-04  -1.9369800e-04   3.8809168e-05   5.2744790e-04   4.1395982e-04   1.0103764e-04   9.8734912e-05   2.7631848e-05   7.2656148e-05   2.6242237e-04   1.0243041e-04   1.8355947e-04   1.7424105e-04  -1.5293516e-04  -8.2147337e-05   1.6248797e-04  -9.4262014e-06  -4.8377173e-05   2.7182154e-05   1.0971178e-04   7.9069323e-05   2.9825476e-05  -1.3003474e-04   5.7624053e-05   4.5185199e-05   3.2407863e-04  -3.7510844e-04  -1.7509017e-04  -5.8969116e-04  -7.7900095e-06   7.2903633e-05  -7.7834650e-04  -9.1532263e-04
   1.4321849e-04   2.7680975e-05  -2.3892465e-04   1.4101570e-04   1.5772710e-04   7.3610041e-05   1.7616847e-04   1.6355886e-04   5.5079385e-05  -3.1675692e-05  -2.2357696e-04  -6.9653448e-05   1.9916946e-04   1.7449532e-04   3.4629957e-05   6.7283698e-05  -3.5836009e-04   7.3798765e-05  -1.7519227e-04  -8.5957312e-05   4.2443900e-04   2.8791116e-04  -1.0737777e-04  -7.1025534e-05  -1.0524582e-04   3.9739560e-05   1.3372245e-04   2.5594491e-05   1.2178917e-04   6.6819019e-05  -3.2742749e-04  -2.0068066e-04  -4.9910548e-05  -1.6798897e-04  -1.4718204e-04  -8.9534493e-05   1.4432546e-05  -1.1986086e-04  -2.0764777e-04  -3.2319280e-04  -1.2700567e-04  -8.8729241e-05  -1.1970615e-04  -5.5252167e-04  -3.1947790e-04  -7.2920258e-04  -2.0700649e-04  -3.5711427e-04  -1.1186427e-03  -9.9579152e-04
  -1.0383947e-04  -8.9986788e-05  -4.0869278e-04   6.9039073e-05   1.2155442e-04   3.9097020e-05   1.2366066e-04   1.1339490e-04  -4.7429454e-05   7.3010786e-05  -2.2165984e-04  -3.4798701e-05   1.5537227e-04   1.6927243e-04   1.7843005e-05  -1.2410072e-05  -3.5032097e-04   4.3602024e-05  -2.3766657e-04  -1.5298239e-04   5.7366845e-04   4.7240805e-04   3.4471283e-05   1.3922206e-04  -4.4776898e-05   4.6725021e-05   9.7971213e-05   7.9977988e-05   1.0192449e-04   1.3434893e-04  -1.5232450e-04  -1.1703965e-04   1.2532316e-04  -3.4364490e-05  -4.8610076e-05   6.0451359e-05   8.4088344e-05   1.3891328e-04   1.3401841e-04  -4.1874438e-05   1.4042974e-04   7.7910161e-05   2.9151168e-04  -5.3490238e-04  -2.5211027e-04  -2.4585475e-04   1.8734883e-05   6.3190018e-05  -1.0037896e-03  -5.5784843e-04
   1.0096324e-04   1.1620264e-05  -2.5151286e-04   1.6476614e-04   1.2910194e-04   7.0416674e-05   1.8857281e-04   1.5729538e-04   1.0931029e-04   1.4354015e-04  -1.8398128e-04  -1.2079506e-05   1.9184360e-04   1.7118274e-04   2.5778843e-05   5.7721714e-05  -3.0928352e-04   7.7292505e-05  -1.6368249e-04  -2.4661296e-05   4.4587822e-04   4.1652707e-04   2.1190228e-05   7.5106778e-05  -3.6663147e-05  -6.2214523e-05   1.4354310e-04  -1.8186707e-05   1.2273910e-04   4.9462564e-05  -2.0137562e-04  -1.3001027e-04   1.4785264e-04  -6.2203995e-05  -1.7034648e-04  -5.4419179e-05   4.3266697e-05   1.3454044e-05  -7.1068222e-05  -1.8646331e-04  -2.0903321e-04  -1.2968217e-04   8.7031978e-05  -5.5712590e-04  -2.2981262e-04  -3.3461789e-04  -1.2590444e-04  -2.1317984e-04  -1.2308015e-03  -5.7670608e-04
  -8.6803797e-05  -7.0686823e-05  -3.2943152e-04   5.2693599e-06   2.3210501e-05  -8.3680752e-05  -2.4510031e-05   5.6891581e-06  -2.5064542e-04  -1.0159380e-04  -2.2866114e-04  -1.5080567e-04   7.0212387e-05   2.8601444e-05  -1.0624924e-04  -1.1917364e-04  -4.2236509e-04  -6.6418863e-05  -1.9753016e-04  -7.9463454e-05   2.1200809e-05   2.8835572e-04  -8.6306463e-05  -2.2464379e-04  -1.8350837e-04  -2.4812896e-04   6.6737011e-05  -1.6952727e-04  -3.8186405e-05  -9.2732800e-05  -2.9675514e-04  -2.0073824e-04   1.0431510e-04  -1.4285283e-04  -2.5841320e-04  -1.1799815e-04   1.9025800e-05  -7.5238449e-06  -1.0232303e-04  -2.0005152e-04  -2.6285130e-04  -1.7582526e-04   7.4645737e-05  -5.1404873e-04  -1.2493823e-04  -2.2884787e-04  -4.6125948e-05  -9.5815412e-05  -9.3002390e-04  -2.8832495e-04
   9.1856877e-05   7.6660719e-05  -1.3060099e-04   2.0121718e-04   1.6616228e-04   6.5680091e-05   2.2171304e-04   1.2611414e-04   1.5327887e-05   2.1066031e-04  -4.8574311e-05   7.6341617e-05   1.7276114e-04   6.5921144e-05  -7.2170267e-05   2.8652719e-05  -2.7600795e-04   2.0949899e-05   1.1766950e-04   1.1884078e-04   3.8694747e-04   4.1446078e-04   4.0513605e-05  -3.8146627e-06  -6.6018118e-05  -7.9532037e-05   2.3999697e-05  -1.0159788e-04   4.0438739e-05  -3.0905139e-05  -1.5736115e-04  -1.1533241e-04   2.5718697e-04  -3.2150954e-05  -2.0080642e-04  -8.2683342e-05   4.3906017e-05   3.1202453e-05  -6.2669838e-05  -1.3559610e-04  -1.2888447e-04  -1.1449603e-04   5.0369614e-05  -5.3421227e-04  -6.4422878e-05  -1.4532248e-04  -4.6739231e-05  -1.1766136e-05  -5.4614566e-04  -2.5548038e-04
  -4.1912415e-05  -1.1394596e-05  -2.2695321e-04   1.3093329e-04   5.7227393e-05  -3.2908796e-05   1.0749987e-04   2.8224327e-05  -6.8091438e-05   1.3948732e-06  -1.5893189e-04  -2.5775355e-05   9.1856738e-05   6.9565700e-05  -9.8256613e-05  -1.8526647e-04  -3.5871851e-04  -2.8836197e-05  -1.8802863e-04   2.7381919e-05   3.8289221e-04   3.4112472e-04   1.3714895e-05  -8.1067643e-05  -1.7522274e-04  -1.2731926e-04  -3.8777096e-05  -9.5634328e-05   7.1021818e-06  -3.1810727e-05  -2.2741550e-04  -1.5753866e-04   6.5868589e-05  -7.0871538e-05  -2.1770268e-04  -1.1603170e-04   1.7674440e-05  -2.2031361e-05  -9.4900293e-05  -2.0697214e-04  -9.1258436e-05  -7.9047168e-05   7.1234994e-05  -5.8566779e-04  -1.9391836e-04  -1.6655192e-04  -1.1397601e-04  -4.8636324e-05  -9.1682305e-04  -6.2314270e-04
  -2.6005306e-04  -1.9314539e-04  -3.4916340e-04   4.2570115e-05  -3.8205858e-06  -9.2205104e-05   3.9277133e-05   2.9385050e-05   6.1076142e-05   3.1559044e-05  -1.4226002e-04   2.3998209e-06   1.0455139e-04   7.3320247e-05  -2.6076252e-05  -1.8081022e-04  -3.4156846e-04  -2.6320022e-06   4.1866624e-05   8.4742896e-05   4.8180934e-04   4.3717033e-04   5.6359138e-05   1.1501597e-04  -1.0190303e-04  -2.7798797e-05  -2.7234707e-06   1.5770720e-05   6.2703446e-05   5.1931151e-05  -9.1003902e-05  -2.6140893e-05   2.6607639e-04   1.2010680e-04  -1.1250415e-04   1.5505871e-05   1.2401331e-04   1.7890868e-04   1.2778555e-04  -1.7801533e-05   1.0851924e-04   9.7965152e-05   3.0656499e-04  -4.1495514e-04   6.9843950e-06   1.0492578e-04   1.3903677e-04   2.3289568e-04  -4.1937520e-04  -1.2450237e-04
  -4.9585458e-05   5.9202859e-05  -1.5460674e-04   2.4196728e-04   9.7235330e-05   1.3902251e-05   1.5806947e-04   1.4831986e-04   1.8733768e-04   8.7496606e-05  -1.5088857e-05   8.9392248e-05   1.6046458e-04   1.2278341e-04  -1.4363432e-05  -1.3858914e-04  -2.6263669e-04   5.1631694e-05  -9.9751618e-05   1.1768842e-04   4.7212496e-04   4.3308851e-04   1.1379542e-04   7.7434321e-05  -6.6177534e-05  -2.1566968e-05   2.9847117e-05  -5.4745055e-06   9.5714298e-05   5.4191536e-05  -7.4396929e-05  -2.6840289e-05   1.7512616e-04   8.4224106e-05  -1.1893016e-04  -1.7171093e-05   1.0214017e-04   1.5409484e-04   4.2518939e-05  -2.4647092e-05   6.5487700e-05   8.7444154e-05   2.6795187e-04  -3.8541932e-04  -3.9208124e-05   1.4511622e-04   9.4231546e-05   1.2855246e-04  -9.0263865e-04  -3.0552229e-04
  -1.5013842e-04  -5.5681936e-05  -1.8952074e-04   1.2738568e-04  -1.4064781e-05  -1.0155966e-04   4.2197706e-05   1.6517562e-05  -2.8182016e-05  -5.7490764e-05  -9.7513612e-06  -2.6637721e-05   9.2658614e-05   5.1373416e-05  -5.6346507e-05  -1.2387978e-04  -2.9831231e-04  -2.6153286e-05  -3.3702067e-04  -9.1286738e-06   2.9521727e-04   2.8774692e-04  -1.0713030e-06  -8.4156818e-05  -1.8745432e-04  -1.6497611e-04   2.4718302e-05  -1.0908298e-04  -1.7242890e-05  -3.2569824e-05  -1.4268291e-04  -1.0928825e-04   2.1350206e-05   2.1956816e-05  -1.6668155e-04  -9.9718134e-05   3.1451582e-05   1.2222890e-04   2.1660095e-05  -1.7775307e-06   9.3514100e-05   8.8459470e-05   3.2543173e-04  -2.9203660e-04   8.3606668e-05   2.3647463e-04   1.7847774e-04   2.9763297e-04  -2.6072282e-04  -1.0582728e-05
   4.8874615e-05   8.2274295e-05  -1.3112243e-05   2.8693525e-04   1.0921151e-04   6.6381996e-05   2.4753498e-04   2.1951734e-04   1.1069819e-04   2.0837906e-04   1.2128433e-04   1.9057532e-04   2.4491176e-04   1.7321555e-04   4.5748769e-05   1.0697686e-05  -1.3520557e-04   1.0544823e-04  -8.3709339e-05   7.7209173e-05   3.5799714e-04   4.7861243e-04   1.7225245e-04   1.6771104e-04   1.0598626e-05   4.3668082e-05   4.8947513e-05  -8.3084442e-06   1.3899959e-04   8.6769520e-05   3.3472497e-05  -3.8444227e-06   1.3521333e-04   1.6075314e-04  -1.0639372e-04  -1.5816275e-05   9.3480507e-05   2.2873445e-04   1.3968175e-04   8.8253611e-05   1.9938378e-04   1.9897977e-04   4.1173279e-04  -2.0693090e-04   1.7673642e-04   5.6407659e-04   2.0805806e-04   3.3033104e-04  -3.8026765e-04   3.1605107e-04
  -6.3172280e-05   2.8276932e-05  -1.5920270e-05   1.9557322e-04   4.6331555e-05   1.3670984e-05   1.7696437e-04   1.6377409e-04   2.3378161e-04  -2.6711958e-05  -6.0013161e-07   6.8521455e-05   2.0324661e-04   1.8850979e-04   3.4198998e-05  -1.4260077e-04  -2.1563907e-04   7.6623190e-05  -9.8283090e-05   3.6794099e-05   2.9972268e-04   3.6820315e-04   1.2095888e-04   2.2024697e-05  -8.6014144e-05   5.8725623e-06  -5.5884422e-05  -2.0741396e-05   1.5032398e-04   6.1282306e-05  -3.3454860e-05  -7.0092479e-05   4.2869655e-05   1.4121937e-04  -1.0757017e-04  -6.5695764e-05   8.3987834e-05   1.8008931e-04   7.5995282e-05   3.0979554e-05   1.0379740e-04   1.4750495e-04   3.7939911e-04  -2.6614973e-04   1.3061648e-04   6.0975633e-04   5.7106390e-05   1.4114226e-04  -2.4705229e-04   2.7063375e-04
  -1.8120957e-04  -5.8985846e-05  -3.1094631e-05   1.6123608e-04   5.2515908e-05   4.7821054e-06   1.8025577e-04   2.0813891e-04   2.0767089e-04   1.6455435e-04   1.6029979e-04   1.5342489e-04   2.7052726e-04   1.9883941e-04   4.3405540e-05   1.3610444e-04  -8.5779313e-05   1.1574569e-04  -1.8439309e-04   1.0816264e-04   5.8183726e-04   5.2175496e-04   2.8158861e-04   2.4839884e-04   9.2276219e-05   8.8319604e-05   1.8641594e-04  -2.1966387e-05   1.9219682e-04   8.0801816e-05   1.0449194e-04   7.2379888e-05   3.3343513e-04   3.1423176e-04  -1.0391633e-04   5.4755387e-06   1.4240098e-04   2.7168190e-04   9.6364725e-05   1.5233457e-04   1.6473377e-05   1.3272194e-04   4.0370121e-04  -9.9860248e-05   1.9772215e-04   5.7372771e-04   1.9085134e-04   2.1140813e-04  -1.4958218e-04   4.8253496e-04
   7.7990815e-05   1.6992798e-04   1.4542294e-04   2.7245609e-04   1.6101157e-04   1.1965686e-04   2.2888569e-04   3.0721040e-04   3.0023497e-04   2.0093116e-04   1.7749531e-04   1.6945992e-04   3.6729767e-04   3.0708237e-04   5.1205840e-05   1.1372150e-04  -1.3405695e-05   2.0085505e-04  -8.5577027e-05   1.6064971e-04   3.3630192e-04   4.4762826e-04   2.7844278e-04   2.3522618e-04   8.5787455e-05   1.3582822e-04   1.2168536e-04  -8.9663254e-06   2.1540068e-04   1.0519510e-04   9.7649885e-05   4.9090671e-05   2.3563749e-04   2.9914966e-04  -7.6831857e-05   2.5182690e-05   1.4466853e-04   2.7259847e-04   1.2785372e-04   2.0489041e-04   1.5962940e-04   1.5780577e-04   3.8333327e-04  -8.8104680e-05   2.7171778e-04   8.2508271e-04   1.3317700e-04   1.8595836e-04  -4.0955445e-05   6.2330905e-04
  -6.4999709e-05   6.3856576e-05   2.3544266e-05   1.0691882e-04   7.3101764e-05   1.8341277e-06   4.3878252e-05   1.9793682e-04   1.2116272e-04  -2.4189359e-05   1.1411632e-04  -8.4535128e-07   3.0708397e-04   2.5563402e-04   1.9020996e-05   4.5490691e-05  -1.3684171e-04   1.2243798e-04  -2.3485532e-04   1.1619121e-04   1.0466104e-04   4.0006719e-04   2.0053946e-04   7.7533266e-05   3.0407766e-05   5.6269673e-06   2.3432962e-04  -7.8355888e-06   1.8745576e-04   5.0943672e-05   8.2030048e-05   9.2338196e-05   3.8823416e-04   3.4482908e-04  -8.7184511e-05   4.0648756e-05   1.8867380e-04   2.6252944e-04   1.3843416e-04   1.9431423e-04   3.4614641e-05   8.7966931e-05   4.3263400e-04   4.6886456e-05   2.9379415e-04   6.2474306e-04   1.1047516e-04   1.4332251e-04   1.8247741e-04   5.0090399e-04
   2.5281010e-04   3.9560796e-04   2.4800751e-04   3.6897746e-04   3.3985052e-04   2.7203455e-04   2.8544565e-04   4.5011856e-04   3.0018089e-04   2.0902202e-04   3.3578294e-04   2.7355205e-04   5.1165925e-04   4.5662536e-04   1.4808483e-04   1.2621729e-04   8.5192005e-05   2.6978436e-04   1.7578334e-04   2.1254663e-04   2.1336945e-04   4.9369049e-04   4.0578691e-04   2.8732297e-04   1.9384500e-04   3.7531997e-04   1.2412691e-04   8.2366678e-05   3.1891343e-04   2.2345019e-04   3.1776342e-04   1.6636225e-04   3.0296427e-04   4.0057267e-04   8.4983607e-05   1.4947892e-04   2.5534548e-04   4.9414020e-04   3.5449592e-04   3.8123922e-04   2.9582344e-04   2.1266093e-04   5.5416947e-04   1.6648107e-04   3.8716960e-04   1.3154527e-03   3.4294609e-04   1.9571187e-04   2.8754119e-04   1.1480075e-03
   3.0035051e-04   2.9550333e-04   3.2223095e-04   2.4366376e-04   2.4132682e-04   2.2925614e-04   3.3095741e-04   4.2451630e-04   3.2835451e-04   9.9520374e-05   2.9676786e-04   1.8183525e-04   4.4324980e-04   4.0062144e-04   1.5758029e-04   3.1486404e-04   8.2440100e-05   2.5958757e-04  -1.0504689e-04   2.2923035e-04   1.8098457e-04   3.2304661e-04   3.0407979e-04   2.3873408e-04   1.3797361e-04   2.9617443e-04   2.3470375e-04   8.5229494e-06   2.7310709e-04   1.4517798e-04   1.2045488e-04   2.7347685e-06   1.9325624e-04   2.7326247e-04  -2.1979344e-05   2.7234450e-05   1.4780798e-04   2.3171806e-04   9.9223405e-05   1.3939380e-04   2.3825050e-04   1.1150878e-04   2.6522434e-04   7.5381213e-05   1.5571891e-04   8.3244807e-04   2.6293637e-04   5.8876376e-05   2.5185788e-04   7.7033148e-04
   2.8932290e-04   3.3291208e-04   1.6876047e-04   3.2514843e-04   3.1343626e-04   3.0129324e-04   3.2167265e-04   4.4305107e-04   4.1187950e-04   2.7665921e-04   3.3631877e-04   3.0831122e-04   5.0136959e-04   5.2015408e-04   2.1526522e-04   2.7479095e-04   6.8466128e-05   2.9494590e-04   4.7403471e-05   3.1513357e-04   3.9598843e-04   5.0046894e-04   3.7503996e-04   5.2445853e-04   2.2160867e-04   4.6213061e-04   2.7386015e-04   2.1934630e-04   3.7647851e-04   2.8957872e-04   3.0657288e-04   1.8663143e-04   4.3508611e-04   4.8906694e-04   1.8855113e-04   2.8346066e-04   3.6075572e-04   5.0153583e-04   3.5577192e-04   3.7131106e-04   5.6448573e-04   3.7562769e-04   5.5636495e-04   2.0984809e-04   3.2140009e-04   9.2155597e-04   4.2331655e-04   2.8854335e-04   1.5129952e-04   9.1360300e-04
   3.6996580e-04   4.3429696e-04   2.3960289e-04   3.4843615e-04   3.6880706e-04   3.4190979e-04   3.3143786e-04   5.2486395e-04   4.5823798e-04   2.6882070e-04   4.3593344e-04   3.4628148e-04   6.1494199e-04   6.1247940e-04   3.1531267e-04   2.6355687e-04   1.1463496e-04   3.4373379e-04  -6.9535141e-05   2.7309934e-04   3.0884269e-04   4.3617978e-04   3.8277567e-04   4.7189728e-04   2.4622618e-04   4.4963989e-04   3.1260436e-04   2.3635002e-04   4.0333357e-04   3.0242151e-04   2.1130964e-04   1.3862668e-04   2.6372299e-04   4.2155478e-04   2.0055583e-04   2.6539806e-04   3.4224949e-04   4.0659774e-04   2.7391728e-04   3.1261487e-04   4.3721273e-04   3.1453048e-04   3.7960394e-04   1.6556394e-04   3.4508429e-04   8.7137916e-04   3.2156307e-04   7.5008211e-05  -9.3752264e-05   5.8581389e-04
   2.0295050e-04   2.8178236e-04   8.3154140e-05   1.8906231e-04   2.4602996e-04   2.1448109e-04   2.0211539e-04   3.7710520e-04   3.8593268e-04   7.6072996e-05   3.6400094e-04   1.5843353e-04   5.2783551e-04   5.2121887e-04   2.6798568e-04   1.7086307e-04  -7.1748428e-07   2.4458827e-04  -2.3871046e-04   1.4127765e-04   1.9556588e-04   2.5832208e-04   2.2003750e-04   2.7319539e-04   1.1811734e-04   2.8312599e-04   3.2551950e-04   1.5685345e-04   2.9890460e-04   1.9937028e-04   1.7729822e-04   7.3130672e-05   2.2636120e-04   3.4326539e-04   1.5123172e-04   2.5382600e-04   2.9609376e-04   4.0615254e-04   2.9300884e-04   3.0681476e-04   4.5851915e-04   3.2576470e-04   4.6333755e-04   1.3901645e-04   2.8247127e-04   7.7219761e-04   3.9224539e-04   2.2513483e-04   5.1213719e-05   6.3786970e-04
   4.5256616e-04   4.6446209e-04   2.3657025e-04   3.8428410e-04   4.2039721e-04   4.0608458e-04   3.8703028e-04   5.1717646e-04   5.8199133e-04   3.8667160e-04   5.0529046e-04   3.8752815e-04   7.2461419e-04   6.8653666e-04   3.8923830e-04   2.9249169e-04   1.5565763e-04   3.3803337e-04   7.0438650e-06   2.9836615e-04   3.3793671e-04   4.5622169e-04   4.2991946e-04   5.0537614e-04   3.1216189e-04   4.6649581e-04   3.5283648e-04   3.0581249e-04   4.2629652e-04   3.5260562e-04   2.9212172e-04   1.5462861e-04   3.0912741e-04   4.5244547e-04   2.7392572e-04   3.5543981e-04   4.0047776e-04   4.5714801e-04   3.6873951e-04   3.7509031e-04   5.2612985e-04   3.9608637e-04   5.0425390e-04   1.7644253e-04   2.9882207e-04   8.9046976e-04   3.9258177e-04   2.9695267e-04   3.5070413e-04   7.4419891e-04
   3.6000757e-04   3.5446550e-04   1.5984310e-04   2.7803512e-04   3.3310373e-04   3.2258619e-04   3.0655827e-04   4.4361988e-04   4.6460325e-04   2.2015456e-04   3.9679647e-04   2.5744431e-04   6.8644161e-04   6.8063772e-04   4.1808267e-04   2.1481092e-04   9.6568619e-05   2.8320536e-04  -8.7685667e-06   1.9945748e-04   2.5085275e-04   3.3273449e-04   3.4517897e-04   3.8591295e-04   2.6840589e-04   4.0855561e-04   3.3934231e-04   2.7320208e-04   3.4304732e-04   3.0267439e-04   1.7970710e-04   7.5215532e-05   1.0011232e-04   3.5094176e-04   2.2265769e-04   2.9544684e-04   3.5081609e-04   3.3875604e-04   2.6734249e-04   2.4275504e-04   4.0727051e-04   2.6628902e-04   3.4578377e-04   3.0426567e-05   1.2349678e-04   7.2085607e-04   2.7650510e-04   5.4722805e-05  -1.6500948e-04   5.2257685e-04
   1.0069161e-04   9.5175470e-05  -6.2022053e-05   4.9728664e-05   1.5212233e-04   1.2830280e-04   1.1642835e-04   2.8842155e-04   3.0560588e-04   4.0060968e-05   2.4448163e-04   3.7338486e-05   5.4136617e-04   5.1976170e-04   3.1669359e-04   1.4790904e-04   3.5744638e-06   1.8961699e-04  -8.8492401e-05   1.2610432e-04   1.9105154e-04   2.8521958e-04   2.5280684e-04   3.7789141e-04   2.4249463e-04   3.5106929e-04   3.7239940e-04   2.8326019e-04   3.5802761e-04   2.9987571e-04   2.2071454e-04   4.4831555e-05   1.6949815e-04   3.9552926e-04   2.8005891e-04   3.3936530e-04   3.8411960e-04   4.1591149e-04   3.9851808e-04   3.4567731e-04   5.5103848e-04   3.5994482e-04   4.8266249e-04   1.3428675e-04   2.9589739e-04   8.7867578e-04   4.0983790e-04   3.4881296e-04   2.1209959e-04   7.6284783e-04
   4.1192386e-04   3.1542740e-04   1.1602146e-04   2.8954880e-04   3.2094083e-04   3.4189914e-04   3.8128564e-04   4.6344718e-04   5.4740731e-04   2.9890842e-04   3.2145469e-04   2.9343966e-04   6.8862352e-04   6.6374475e-04   4.5945588e-04   1.9470236e-04   1.0537037e-04   2.5476297e-04   1.2405122e-05   1.6610471e-04   1.4092990e-04   3.4333588e-04   3.5386253e-04   4.2661629e-04   3.5516557e-04   4.2864578e-04   3.7974297e-04   3.1904096e-04   3.1881680e-04   3.5048340e-04   2.5842275e-04   6.2592779e-05   1.3365853e-04   4.3034030e-04   3.3620474e-04   3.9425035e-04   4.1249188e-04   4.2980508e-04   4.0929255e-04   3.2796050e-04   5.2785425e-04   3.6229324e-04   5.2829908e-04   7.1626404e-05   2.1578095e-04   8.2465919e-04   3.1731697e-04   2.5356121e-04  -2.1836157e-04   4.7204286e-04
   2.3683684e-04   1.0608155e-04   6.7269124e-05   1.2949688e-04   1.9678487e-04   1.7513486e-04   2.0758156e-04   3.2098536e-04   3.9927705e-04   3.2308852e-04   3.1784610e-04   1.8602140e-04   6.7988265e-04   5.4241298e-04   3.7592716e-04   3.7943546e-04   6.5146269e-05   2.0744280e-04  -2.0949921e-04   1.6130306e-04   4.2914113e-04   2.3518715e-04   2.7499942e-04   2.4207251e-04   2.7550274e-04   1.7873335e-04   5.0284527e-04   1.3852402e-04   2.2905991e-04   1.5179638e-04   6.5274027e-05  -1.2128055e-04   6.2867839e-05   2.4572297e-04   8.1587292e-05   1.7291990e-04   2.5661284e-04   1.2262861e-04   4.0559429e-05   5.0043920e-05   2.1962551e-04   1.2846170e-04   1.4682233e-04   8.2088518e-06   4.5734785e-05   2.7724847e-04   2.0342093e-04   1.7798000e-05  -4.7476657e-04   1.5730705e-04
  -5.4439119e-05  -1.2923472e-04  -2.0535251e-04  -5.9222173e-05   2.7623690e-05   9.1153224e-06   9.1576676e-06   1.8542120e-04   3.0085308e-04   2.1114030e-04   3.5943529e-05   4.3912201e-05   4.8993248e-04   5.2263361e-04   3.3237861e-04   1.6765499e-07  -1.0208236e-04   8.6679458e-05  -4.7021989e-05   2.0957913e-04   1.5752400e-04   1.6019501e-04   1.6025420e-04   2.7479682e-04   1.3120091e-04   2.7643240e-04   2.2412662e-04   2.5054713e-04   1.6078739e-04   2.6581410e-04   1.4746080e-04  -5.7275953e-05   1.1818300e-04   3.7968348e-04   2.5875052e-04   2.9987367e-04   3.7694495e-04   3.5042531e-04   3.9946128e-04   2.5504988e-04   4.9535424e-04   4.0098379e-04   6.1041769e-04   9.1918155e-05   1.0195895e-04   1.0837882e-03   2.9029546e-04   4.9801735e-04   3.1214391e-04   1.0042987e-03
   2.0073637e-04   1.3875985e-04   2.5438456e-04   7.9457430e-05   1.7967305e-04   1.9497557e-04   2.5629430e-04   3.0865529e-04   4.3957721e-04   2.9997929e-04   3.5824426e-04   1.7028271e-04   6.4046955e-04   4.9319887e-04   3.0444571e-04   3.8946394e-04   1.0099075e-04   1.9861327e-04   2.6570071e-04   3.5249395e-04   2.8638035e-04   2.1986627e-04   2.7816970e-04   2.0041096e-04   2.7612897e-04   8.8513683e-05   4.6749794e-04   1.5368995e-04   2.5240547e-04   7.9712459e-05   8.9848043e-05   3.1771873e-05   2.6855199e-04   3.2964116e-04   5.8981790e-05   2.4001212e-04   3.8804443e-04   4.9688231e-05   7.3594965e-05   1.2628382e-04   9.6841177e-05   4.2725624e-05   2.1091881e-04   7.8043915e-05   3.1232401e-05   2.5896859e-04   1.4271963e-04   1.6305996e-04   4.9475562e-05   3.1425396e-04
  -1.2935609e-05   5.8471534e-05  -4.3801025e-05   1.5189147e-05   1.1071537e-04   5.9686856e-05  -2.3099698e-05   1.7554412e-04   3.0524240e-04   1.7709502e-04   3.4228040e-04   5.6125864e-05   4.7791062e-04   3.6213466e-04   1.7032753e-04   1.6855889e-04  -9.5902855e-05   6.3497544e-05  -1.6602772e-04   2.0615995e-04   1.6872855e-04   7.9651116e-05   1.3592110e-04  -2.0603440e-05   5.0020418e-07  -7.8115452e-05   2.8377702e-04   5.5429075e-05   3.5329940e-06  -2.2914066e-05  -1.0322076e-04  -1.8549834e-04  -5.7752986e-05   1.0675658e-04  -5.8206275e-05   1.1715529e-04   3.0166379e-04  -1.1704291e-04  -3.4549328e-05  -7.2361436e-05   2.2270861e-04   1.0012217e-04   1.1432109e-04  -1.2706866e-04  -1.3263618e-04   1.9217051e-04   8.5805179e-05   1.7945131e-04   1.5627209e-04   3.7358279e-04
  -2.0994945e-05   6.0605016e-06  -3.7630165e-05   5.4026634e-05   1.1661038e-04   1.1551289e-04   9.9124351e-05   2.1380090e-04   3.7292371e-04   2.8971946e-04   3.1537513e-04   1.8049695e-04   4.6285149e-04   3.6612857e-04   2.0434227e-04   6.5822605e-05  -1.1926291e-04   3.1878059e-05   1.4945336e-04   2.4735049e-04   2.2971767e-04   1.9027948e-04   1.7874171e-04   1.7206809e-04   4.9459013e-05   8.9588626e-05   2.1168536e-04   1.6668413e-04   6.7395740e-05   1.1423983e-04   8.8574663e-05  -6.9948859e-05   1.6453741e-04   3.0714605e-04   1.4140100e-04   2.6190578e-04   4.4083322e-04   2.1135472e-04   2.8599604e-04   1.6467365e-04   4.4645899e-04   3.2558184e-04   4.5586645e-04  -9.7091412e-05   4.0589883e-05   6.4320583e-04   2.1153981e-04   5.8920280e-04   2.8604156e-04   7.9602073e-04
  -2.4440069e-05   5.8656566e-05  -2.7305477e-05   1.0321589e-04   1.1774163e-04   1.2157342e-04   1.0750230e-04   2.2568350e-04   3.0640929e-04   2.5594869e-04   2.9757019e-04   1.8976988e-04   4.7511238e-04   4.2523854e-04   2.5002769e-04  -4.9518916e-05  -1.3888930e-04   5.1421739e-05  -4.5014283e-05   2.2542117e-04   2.8546993e-04   1.9076762e-04   2.0137407e-04   9.8602024e-05   4.1764870e-05   1.1542600e-04   1.6852964e-04   1.9117080e-04   7.7039898e-05   1.6923909e-04   5.4993146e-05  -9.4608433e-05  -4.6416417e-06   2.6137431e-04   1.4705466e-04   2.6934163e-04   4.5207061e-04   1.7899033e-04   2.5791462e-04   9.6741744e-05   4.9298134e-04   3.7966081e-04   4.3199628e-04  -1.7251373e-04   2.1319827e-05   5.7014677e-04   2.0107400e-04   5.4674229e-04   2.2470257e-04   5.3523661e-04
  -2.1574540e-04  -1.2819577e-04  -1.8428266e-04  -3.4941804e-05  -3.8719507e-05  -3.5717105e-05  -5.4164011e-05   7.0043927e-05   2.3710862e-04   3.2496213e-05   2.0679577e-04   1.0807325e-05   3.4132204e-04   3.2415669e-04   1.9754154e-04  -1.5781733e-04  -2.4600368e-04  -5.0471237e-05  -1.5084638e-04   1.0066343e-04   2.2420926e-04   1.3807916e-05   3.8229726e-05  -7.7491750e-05  -9.9605284e-05  -4.7987054e-05   1.5705399e-04   7.5983466e-05  -4.2595431e-05   2.5197569e-05  -1.6714109e-04  -2.6341475e-04  -2.6266716e-04   4.1449493e-05   2.9697007e-05   1.1853244e-04   3.2608162e-04  -2.0962193e-07   7.4851785e-05  -9.7770971e-05   4.0761050e-04   3.0824891e-04   3.3186757e-04  -2.7604616e-04  -5.9220471e-05   4.7850877e-04   2.3253649e-04   6.2377669e-04   9.6405827e-05   4.4328711e-04
  -1.1032158e-04  -2.6287493e-05  -1.1071459e-04   7.3092247e-05   5.0192262e-05   7.7469878e-05   9.2127302e-05   1.2317866e-04   2.3711286e-04   1.8692533e-04   2.6083709e-04   1.9475623e-04   3.9884925e-04   3.8361707e-04   2.7768646e-04  -1.0242886e-04  -1.7153006e-04  -5.3294633e-07   1.6505641e-04   2.8088695e-04   3.9015029e-04   2.1797180e-04   2.0218258e-04   2.1944509e-04   6.1384482e-05   1.4551246e-04   2.1295533e-04   2.2730879e-04   9.2511145e-05   1.9697374e-04   1.1266292e-04  -5.4098531e-05   2.4962828e-05   2.8807938e-04   2.1052916e-04   3.0931624e-04   4.8472430e-04   2.3475019e-04   3.0995710e-04   1.1295154e-04   5.6637620e-04   4.4456840e-04   5.2011409e-04  -1.7729522e-04  -5.2487652e-05   5.3868070e-04   3.5151007e-04   6.9509249e-04  -2.3529820e-04   5.9800385e-04
  -1.6228223e-04  -4.7405847e-05  -8.3937630e-05   8.6008593e-05   1.2571907e-05   2.7038184e-05   6.5908367e-05   1.4135326e-04   1.7256403e-04   1.5744613e-04   2.8170057e-04   1.6957626e-04   3.7643962e-04   3.7393777e-04   2.6317689e-04  -1.2596704e-04  -1.9064704e-04  -6.2627527e-07  -8.3211889e-05   2.4673124e-04   3.4294525e-04   1.4455448e-04   1.7075152e-04   1.1668087e-04   6.2064532e-07   1.0829300e-04   1.7297946e-04   1.7063135e-04   7.2112642e-05   1.6295176e-04  -8.0735754e-06  -1.4312954e-04  -9.6562246e-05   1.9280624e-04   1.3164726e-04   2.3493548e-04   4.3857718e-04   1.5866329e-04   2.5804530e-04   3.1351872e-05   5.6749809e-04   4.5700601e-04   4.3030392e-04  -2.4098842e-04  -7.9392630e-05   5.5990741e-04   2.4448286e-04   5.4250989e-04   7.6840879e-05   6.2549347e-04
  -4.1109425e-04  -2.8207840e-04  -2.4106103e-04  -1.2105300e-04  -1.7546344e-04  -1.5288242e-04  -1.2317063e-04  -3.8888073e-05   4.5387733e-05  -8.6811640e-05   1.7446102e-04  -5.3158579e-05   2.2722388e-04   2.3933379e-04   1.7814335e-04  -1.8945357e-04  -2.8838951e-04  -1.1104084e-04  -3.1799296e-04   4.7183996e-05   1.4211898e-04  -9.1853697e-05  -1.6557769e-05  -1.2521553e-04  -1.3252736e-04  -1.0947484e-04   1.6810745e-04   1.7907124e-06  -9.5357500e-05  -4.5130400e-06  -1.8453084e-04  -3.1747585e-04  -4.2401406e-04   1.0193865e-05  -1.3885608e-05   6.6022607e-05   2.6937033e-04   1.4402965e-05   1.1882852e-04  -9.3551018e-05   3.9570953e-04   3.2571997e-04   3.5964072e-04  -2.3300269e-04  -5.6563866e-05   6.2103086e-04   2.2121074e-04   5.7618116e-04   2.9959439e-04   8.1072433e-04
  -2.5376849e-04  -1.4192288e-04  -1.1147364e-04   6.9008161e-06  -5.8293077e-05  -1.9973322e-05   4.0483970e-05   1.2149241e-04   7.6933153e-05   1.4009817e-04   2.0005983e-04   1.2923835e-04   3.1378187e-04   3.0314742e-04   2.3870541e-04  -4.9354028e-05  -1.6015842e-04  -1.5583717e-05  -1.2350942e-04   2.5546542e-04   3.0316581e-04   1.0721570e-04   1.8736022e-04   1.8366137e-04   5.8341600e-05   1.3053886e-04   2.6076700e-04   1.2955835e-04   1.3507281e-04   1.1536820e-04   1.3733995e-05  -1.2099724e-04  -7.9416961e-05   2.4259547e-04   8.0019199e-05   1.1497006e-04   3.2581287e-04   9.1372414e-05   1.2575358e-04   2.6282123e-05   2.2724828e-04   2.2292262e-04   3.0450901e-04  -9.1906179e-05  -9.1277070e-05   2.8322157e-04   2.5384556e-04   2.5486713e-04  -2.5062583e-04   5.4001441e-04
  -1.9829924e-04  -7.9553516e-05  -3.3368033e-05   1.5417249e-05  -4.5660589e-05  -6.7745619e-05   4.1032094e-05   1.1519267e-04  -1.3573488e-05  -5.9135698e-05   1.6955897e-04   7.0405396e-05   1.9833431e-04   1.4323361e-04   1.0037582e-04   1.1388480e-04  -1.6082624e-04  -3.3161250e-05  -2.5131862e-04   1.3511430e-04   5.8121583e-04   9.2362839e-05   1.0875990e-04  -8.2753859e-06  -1.8946450e-05   5.6028406e-05   2.2616508e-04  -7.8274505e-05  -8.5107297e-07  -6.3019172e-05  -7.4408490e-05  -2.4277339e-04  -2.5994756e-04   1.0665863e-04  -5.3568550e-05  -1.1898661e-05   1.6816243e-04  -3.5726323e-05  -2.1302936e-05  -1.4546337e-04   4.6938349e-05   7.1840783e-05   1.0953942e-04  -2.2484659e-04  -1.9223642e-04   1.5226465e-04   5.2342009e-05   1.2705829e-04  -7.4248972e-05   2.5243583e-04
  -4.4236332e-04  -3.3220841e-04  -2.2561039e-04  -2.2123280e-04  -2.4379502e-04  -2.5386727e-04  -1.6395250e-04  -4.8100163e-05  -1.6417859e-04  -3.0133428e-04  -9.1017639e-05  -1.9127352e-04  -1.4254068e-05   7.5336152e-06  -1.5241578e-05  -1.1647588e-04  -3.0250012e-04  -1.4754137e-04  -3.1147426e-04   8.7899520e-05   1.8427803e-04  -1.2948526e-04  -3.3416118e-06  -6.6882370e-05  -1.5829057e-04   6.7370447e-06   7.2545939e-05  -6.3533036e-05  -1.3218239e-04  -6.3398606e-05  -1.3546844e-05  -2.7668607e-04  -2.1605233e-04   1.7445104e-04   3.3564505e-05   6.9942631e-05   2.0651956e-04   1.3551407e-04   2.3487798e-04   2.8402990e-05   3.8552136e-04   2.7876755e-04   4.5661244e-04  -1.9724482e-04  -2.3122378e-05   9.3009270e-04   1.4650960e-04   6.0799066e-04   4.0023366e-04   1.2144252e-03
  -1.7580458e-04  -1.2260154e-04   1.3598498e-04  -2.5873323e-05  -9.2095652e-05   1.9148511e-05   1.7224601e-04   2.1002213e-04   1.7468072e-04  -2.2001463e-05   2.3089455e-04   5.2718253e-05   1.9170078e-04   2.2476709e-04   1.6238503e-04   1.4851717e-04  -8.1801627e-05   5.5092542e-06   1.1631589e-05   3.0335604e-04   2.2712265e-04   7.7564095e-05   1.6810281e-04   3.3952369e-05  -1.4005634e-05  -7.5515454e-06   2.3582100e-04  -1.7581435e-05   4.2613647e-05   5.6878318e-05  -1.6916792e-05  -1.2900140e-04   2.3061955e-05   2.7856033e-04  -1.1339032e-05   1.2621129e-04   3.0732382e-04   9.7140255e-05   1.8727098e-04   5.1714302e-05   5.0954212e-04   3.7556310e-04   5.5998587e-04   1.1231634e-04  -6.1374914e-05   6.8634568e-04   1.4150515e-04   7.0385530e-04  -1.2588706e-04   5.9694279e-04
  -4.1273329e-04  -2.6427972e-04   5.6907767e-05  -2.1771545e-04  -2.0744266e-04  -1.4917206e-04  -1.2974869e-04   8.1176193e-05   3.8628834e-05  -1.2491528e-04   2.1032189e-04  -9.0393667e-05   1.4544615e-04   1.8041625e-04   4.3265885e-05   1.2406608e-05  -2.0682116e-04  -6.8174202e-05  -1.3500916e-04   2.4309587e-04   4.1299492e-05  -1.3066146e-04   2.1000971e-05  -2.0576092e-04  -1.7915739e-04  -1.4292610e-04   1.6999859e-04  -1.2729800e-04  -4.8690821e-05  -7.0227907e-05  -1.6062724e-04  -2.6135339e-04  -2.7969477e-04   1.1546632e-04  -1.3056879e-04   1.6007392e-05   2.5541938e-04  -8.4514322e-05  -6.6886154e-05  -1.1616415e-04   5.0460298e-05   5.3625699e-05   1.4805447e-04  -1.2201035e-04  -9.9256504e-05   6.1751995e-04  -1.0581536e-04   1.1142511e-04   2.6987196e-04   4.4421165e-04
  -5.5571605e-04  -3.6350006e-04  -7.7943587e-05  -2.8200456e-04  -1.9596766e-04  -1.3269499e-04  -1.3390523e-04   1.2254762e-04   4.5875895e-05  -9.9511111e-05   2.2263151e-04  -4.0695133e-05   2.0785458e-04   1.8110281e-04   1.0453190e-04   1.8373308e-04  -7.9655460e-05  -2.6833721e-05   4.0435487e-05   3.2727467e-04   1.6663992e-04  -5.5886107e-05   1.5087746e-04   5.8771140e-05  -1.3929054e-05   5.7997786e-06   2.5182738e-04  -8.4730367e-05   2.2403192e-05  -2.9674204e-05   4.4838238e-05  -1.3863326e-04  -2.2501756e-05   3.0650821e-04  -4.6153356e-05   5.6694600e-05   2.7504697e-04   8.7053042e-05   1.1617053e-04   7.1782473e-05   1.1801747e-04   1.0838278e-04   3.5709763e-04   4.1616655e-05   1.4737870e-04   1.0013223e-03   4.0437742e-05   4.3821600e-04   1.4929693e-04   8.5726712e-04
  -2.4332346e-04  -8.7556320e-05   1.2002852e-04  -1.3342613e-04  -9.1521768e-05  -2.2065591e-05  -4.2495609e-05   1.9064269e-04   4.0355957e-05  -7.8480538e-05   1.9728945e-04  -2.4977462e-05   2.5983420e-04   2.8683053e-04   1.4522510e-04   7.0816466e-05  -6.3301210e-05   4.5024917e-05  -8.1043727e-05   2.9358931e-04   1.9138519e-04  -4.0369461e-05   1.6326773e-04   9.1150139e-07  -3.9940558e-05   4.0120507e-05   1.8347305e-04  -1.7607430e-05   8.2319377e-05   3.1360094e-05   2.8297678e-05  -1.1234906e-04  -1.5571910e-04   2.6911084e-04   8.1472626e-06   9.9748606e-05   3.2348456e-04   1.4315310e-04   1.7196574e-04   8.2358652e-05   3.3909094e-04   2.3828779e-04   3.4917146e-04   1.4744573e-05   1.6889836e-04   9.6097280e-04   1.5454743e-05   4.2917137e-04   5.1429472e-04   7.7184627e-04
  -3.7967315e-04  -1.9237709e-04  -2.4936979e-05  -2.3764571e-04  -1.7607810e-04  -1.1367461e-04  -1.5952064e-04   1.2183102e-04   4.6556313e-05  -2.2086456e-04   1.4495754e-04  -1.7234197e-04   2.4847550e-04   3.0452496e-04   1.7012388e-04   2.3830114e-06  -1.2504528e-04   9.0959820e-06  -1.8533944e-04   1.7883192e-04   1.4878147e-04  -1.6514117e-04   2.4964778e-05  -2.2550102e-04  -1.4189696e-04  -8.6578824e-05   2.1582426e-04  -4.6605019e-05  -6.2314299e-05  -2.7250846e-05  -1.4445983e-04  -2.4476001e-04  -4.3115261e-04   1.0655310e-04  -4.3166943e-05   6.3196749e-06   2.6166521e-04  -2.9501509e-05   1.3010475e-05  -9.0660469e-05   2.5317667e-04   1.6562104e-04   1.8286421e-04  -8.1121369e-05   6.8306930e-05   8.8603608e-04   3.7449779e-06   4.4680681e-04   4.4999298e-04   8.4424933e-04
  -2.8606804e-04  -9.9310404e-05   4.2799707e-05  -1.5479825e-04  -7.0417998e-05   2.5508209e-05  -6.3960499e-05   2.0447791e-04   4.9901526e-05  -8.9982823e-05   1.9785945e-04   6.0224643e-06   3.7622728e-04   4.2402570e-04   2.9406787e-04   9.1425987e-05  -2.1954178e-05   8.7172302e-05   2.3857110e-05   3.1307756e-04   2.9289626e-04   3.1292602e-05   1.7388572e-04   1.0625680e-04   5.7373334e-05   1.0543135e-04   3.2983226e-04   1.2700660e-04   1.1998090e-04   1.5068399e-04   8.1935606e-05  -5.1761024e-05  -1.2112271e-04   3.1825699e-04   1.2300996e-04   2.0950315e-04   4.0648933e-04   2.2762587e-04   2.2686162e-04   1.3256616e-04   4.4191102e-04   3.5164939e-04   4.3224619e-04   2.6179196e-05   2.0318179e-04   9.9014572e-04   1.0683814e-04   4.9217849e-04   4.3169354e-04   9.8031911e-04
  -2.7917707e-04  -9.1324087e-05   7.5520242e-05  -1.7036045e-04  -8.1692502e-05   2.6456607e-06  -8.7404696e-05   2.2342458e-04   3.1134841e-05  -1.3847501e-04   2.6736676e-04  -4.8247497e-05   4.5375602e-04   4.6283595e-04   3.2700947e-04   1.6407014e-04   2.0172469e-05   1.0100645e-04  -1.0931963e-04   2.5609552e-04   2.0899886e-04  -5.2831456e-05   1.2899753e-04   5.1394345e-06   3.2510041e-05   3.7497492e-05   3.6745440e-04   7.8175610e-05   6.6166169e-05   9.0022142e-05  -2.4717208e-06  -1.5697925e-04  -3.1473124e-04   1.8793931e-04   6.0266815e-05   1.3285203e-04   3.2854770e-04   1.1444691e-04   1.1215864e-04   3.4180084e-05   3.2955015e-04   2.4889634e-04   2.4397556e-04   2.0861567e-06   6.4600405e-05   9.1240532e-04  -1.0163903e-05   2.4651625e-04   2.7086699e-04   7.2758581e-04
  -4.8761285e-04  -2.9179169e-04  -1.2633020e-04  -3.7698730e-04  -2.3440490e-04  -1.8315214e-04  -3.1262275e-04   3.5161054e-05  -1.6393067e-04  -4.0819612e-04   9.3521201e-05  -2.9562597e-04   3.3021788e-04   3.3241967e-04   2.3501269e-04   9.4094703e-06  -1.4457172e-04  -1.6303415e-05  -4.7061348e-04   9.3593793e-05   4.8015605e-05  -2.4938723e-04  -8.1438338e-05  -2.9918124e-04  -1.3406547e-04  -2.2034610e-04   2.7757254e-04  -5.9814927e-05  -4.8593261e-05  -7.9987571e-05  -1.4760214e-04  -2.8370810e-04  -4.1416942e-04   3.1515250e-05  -3.0025356e-05   1.7005985e-05   2.6086351e-04   4.5130393e-05   8.9675996e-05  -1.6857170e-05   1.7997254e-04   1.8929849e-04   1.9946857e-04  -7.5604759e-05   5.2397219e-05   7.8239955e-04  -4.5438013e-05   2.5198286e-04   3.3886655e-04   7.2044710e-04
  -2.5908841e-04  -7.0358423e-05   1.8375584e-05  -1.8746121e-04  -3.7715177e-05   1.2819970e-05  -1.5356358e-04   2.2663132e-04   8.5545689e-05  -7.9983824e-05   2.6634731e-04  -4.3394131e-05   5.0561182e-04   4.4586381e-04   3.2910905e-04   2.4807683e-04   2.0082243e-05   9.3520954e-05  -1.4171259e-04   3.3274191e-04   3.6336423e-04  -2.9934599e-05   1.4802955e-04   1.8495881e-05   1.0538541e-04  -7.1314716e-05   4.6783750e-04   4.5836437e-05   9.2140326e-05   2.1429203e-05  -5.4585718e-05  -1.8601214e-04  -1.6793156e-04   1.4888949e-04  -2.7972521e-05   1.0258158e-04   3.2685406e-04   1.5639409e-05   3.1049469e-05  -8.1305669e-05   2.5371432e-05   7.7785058e-05   1.9383413e-04  -6.1782637e-05   4.7488895e-05   4.8538984e-04  -8.8923458e-05   1.1932554e-04   8.6066691e-05   4.4408624e-04
  -3.0122866e-04  -1.3258211e-04  -3.4730394e-05  -2.7932995e-04  -8.9475026e-05  -8.8718203e-05  -2.8053959e-04   1.1448785e-04  -6.7361566e-06  -2.3948262e-04   1.8421799e-04  -2.3574232e-04   4.3452246e-04   3.6646466e-04   2.3855637e-04   1.7386298e-04  -8.4952095e-05   2.5911382e-05  -3.6047946e-04   2.7520693e-04   2.9491491e-04  -1.4471351e-04   2.4059440e-05  -2.0357798e-04  -2.0344305e-05  -2.0135370e-04   3.7070212e-04  -2.8851517e-05  -4.3212938e-05  -9.7690616e-05  -2.1203354e-04  -2.9954631e-04  -3.1429599e-04  -5.3629705e-05  -7.9872829e-05   1.8403378e-05   2.5801416e-04  -1.5867323e-04  -1.6834642e-04  -2.6266972e-04  -1.0260295e-04  -5.9655395e-05  -6.8230656e-05  -1.6340222e-04  -1.2026342e-04   2.6708539e-04  -2.4802177e-04  -9.2344206e-05   6.1710140e-05   1.8439401e-04
  -5.7585264e-04  -3.5547162e-04  -2.4932146e-04  -4.6218548e-04  -2.0155551e-04  -1.8681744e-04  -4.3520352e-04   1.3966159e-05  -1.7223523e-04  -3.0166924e-04   1.0882672e-04  -3.1401799e-04   3.8908666e-04   3.6500490e-04   2.5247844e-04   4.8439157e-05  -1.2898966e-04  -2.2390393e-05  -8.7305241e-05   2.5092269e-04   2.3714469e-04  -9.6819182e-05   5.1821349e-05  -1.1974764e-04   2.2968619e-05  -1.0185705e-04   3.2994716e-04   9.0790418e-05   2.0301750e-05   1.6531336e-05  -7.5464683e-05  -2.1168969e-04  -1.4253821e-04   9.3678122e-05   7.3663556e-05   1.6311658e-04   3.7412430e-04   5.1509352e-05   1.0725077e-04  -3.3173521e-05   2.0371874e-04   1.3455706e-04   2.0793990e-04  -1.0622798e-04   8.1892140e-05   6.4266811e-04  -3.7488746e-05   3.0425924e-04   6.1230280e-04   5.3981581e-04
  -2.3792582e-04  -6.7638779e-05   9.6040765e-07  -2.9521581e-04  -6.7953537e-05  -3.1917178e-05  -2.0408627e-04   1.4897897e-04  -1.8655625e-04  -2.4228783e-04   2.0285889e-04  -1.5779953e-04   4.9680250e-04   3.9116250e-04   2.9564131e-04   1.1451795e-04   5.5373812e-07   2.2361244e-05  -1.5256189e-04   2.2914688e-04   4.0212060e-05  -1.1150430e-04   1.4057361e-04  -1.8796408e-04   1.5093051e-04  -6.5635824e-05   4.1786092e-04   4.2053358e-05   8.0685182e-05  -1.8992492e-05  -3.3937591e-05  -2.2630005e-04  -2.7986031e-04  -1.3014526e-05   2.2574553e-05   1.2031457e-04   3.4575359e-04   5.6195518e-08  -7.8010446e-05  -6.3334475e-05  -2.4329068e-04  -2.6252863e-04  -1.7010520e-04  -4.5858345e-05   7.4170181e-05   6.0489780e-04  -1.3976301e-04  -2.1285257e-04   5.2103557e-04   9.1473764e-04
  -3.9452032e-04  -2.2109444e-04  -1.4056158e-04  -4.4668029e-04  -1.6800385e-04  -1.6784739e-04  -4.0032555e-04   1.9030282e-05  -2.1851363e-04  -3.9603951e-04   2.6256139e-05  -3.6679787e-04   3.5543981e-04   2.8830735e-04   1.6735824e-04  -3.4799428e-05  -2.4075829e-04  -9.2011251e-05  -5.9940852e-04   1.1466748e-04   5.8654350e-05  -2.7820727e-04  -1.0530380e-04  -3.7737243e-04  -1.6068295e-04  -2.7998252e-04   2.7199261e-04  -5.9700214e-05  -1.1639720e-04  -1.4503227e-04  -3.0310280e-04  -4.3996450e-04  -4.9483235e-04  -2.0234848e-04  -9.1358335e-05  -2.0231942e-06   2.1979192e-04  -1.6661941e-04  -1.8017089e-04  -2.6806339e-04  -1.0444255e-04  -1.1019346e-04  -8.0138176e-05  -2.5421657e-04  -1.2230453e-04   4.2369176e-04  -7.7011500e-05   4.8507696e-05   2.9534707e-04   6.4681651e-04
  -2.5467484e-04  -6.8289395e-05  -1.0104060e-04  -2.8526669e-04  -1.4090340e-05  -3.9034243e-05  -2.7910247e-04   1.3267962e-04  -4.8022444e-05  -1.2706786e-04   2.2622061e-04  -1.5088324e-04   4.6224147e-04   3.7874121e-04   2.6231221e-04   1.9120629e-04  -9.8646837e-05  -1.0049757e-05  -1.5464265e-04   3.4282825e-04   3.6891573e-04  -3.0135627e-05   1.0900210e-04   4.9719615e-06   8.8633366e-05  -1.1465514e-04   4.2004191e-04   8.0795369e-05   8.2251890e-06  -3.3421540e-05  -1.3354098e-04  -2.7743285e-04  -1.4592026e-04  -1.6709639e-05   9.7535594e-06   1.4358581e-04   3.1951806e-04  -1.1626880e-04  -9.9577868e-05  -2.3870450e-04  -5.0165156e-05  -9.8894052e-05  -4.4595905e-05  -2.9141625e-04  -1.0907932e-04   6.4418346e-05  -6.8630776e-05   7.6466276e-05   9.8255325e-05   2.7268595e-04
  -3.5203219e-04  -1.5027997e-04  -1.8740278e-04  -3.4716923e-04  -7.6713892e-05  -1.1709566e-04  -3.9244394e-04   2.1622915e-05  -2.0166500e-04  -2.4568813e-04   1.3160659e-04  -2.6067128e-04   3.7067826e-04   3.3948172e-04   1.9924722e-04  -9.4681172e-06  -2.1650744e-04  -1.1140247e-04  -4.5848655e-04   2.0141971e-04   2.6380908e-04  -1.6085593e-04  -4.8953138e-05  -1.8331065e-04  -9.5981268e-05  -2.0450314e-04   3.0778989e-04   4.3248234e-05  -1.1844428e-04  -7.0934919e-05  -2.6560589e-04  -3.8670498e-04  -4.1732605e-04  -1.5070138e-04  -3.0418667e-05   9.6483593e-05   2.7916863e-04  -1.7638107e-04  -1.5368096e-04  -3.4561311e-04   9.2636517e-05   1.4812983e-05  -8.0227990e-05  -4.4268381e-04  -2.3726096e-04   7.3173011e-05  -1.4970842e-04   5.3886240e-05   9.6324198e-05   3.1004136e-05
  -6.3202734e-04  -4.0211240e-04  -4.0846650e-04  -5.1779684e-04  -2.7155332e-04  -3.2203321e-04  -5.7900674e-04  -1.7185853e-04  -3.9638733e-04  -5.0413964e-04  -2.0682430e-05  -4.6418008e-04   2.2262412e-04   2.0539775e-04   1.4758136e-04  -1.3346538e-04  -3.5851056e-04  -1.9762576e-04  -3.9889183e-04   1.3778033e-04   2.7976572e-04  -2.2001963e-04  -7.4417090e-05  -2.0197064e-04  -1.1640401e-04  -2.0236825e-04   3.3449606e-04   9.2006747e-05  -1.0916250e-04  -7.0087284e-05  -2.3369913e-04  -3.9388650e-04  -3.3197855e-04  -1.2270523e-04   7.1268609e-05   1.7661809e-04   3.3181487e-04  -1.0581096e-04  -1.6138045e-05  -2.6842052e-04   1.3797973e-04   7.1383060e-05   7.5915304e-05  -4.1937068e-04  -2.2496311e-04   2.4118906e-04  -1.3029441e-05   3.0298397e-04   6.3926222e-05   4.3837115e-04
  -3.2961671e-04  -1.3926646e-04  -2.0129576e-04  -3.1011720e-04  -7.2208299e-05  -1.0197298e-04  -3.0161603e-04  -1.0257050e-05  -1.3145819e-04  -2.7171263e-04   7.6566517e-05  -1.7926266e-04   3.3539344e-04   3.2347967e-04   2.6914114e-04  -9.7454962e-05  -2.5651869e-04  -1.2099946e-04  -4.0005861e-04   2.0055419e-04   2.9357418e-04  -1.4822022e-04  -3.5037629e-05  -1.5483832e-04  -2.5475141e-05  -1.2655846e-04   2.8679834e-04   1.0452832e-04  -1.2342892e-04  -1.6757769e-05  -2.2892708e-04  -3.7135865e-04  -3.8896102e-04  -1.5235072e-04   9.1341950e-05   1.6548987e-04   3.4193540e-04  -1.3510877e-04  -3.8088874e-05  -2.7920789e-04   2.1008729e-05   1.4145181e-05  -6.0919112e-05  -4.6750455e-04  -2.8732576e-04   1.8325642e-04  -6.4988235e-05   8.0849546e-05   7.8102661e-05   3.0223341e-04
  -5.2638078e-04  -3.0785392e-04  -3.0414885e-04  -4.3398194e-04  -1.9464614e-04  -2.5808756e-04  -4.3441169e-04  -9.2260721e-05  -2.4237952e-04  -4.0789516e-04   5.8624278e-06  -3.1245576e-04   2.2700870e-04   2.0397856e-04   1.7690855e-04  -1.3660132e-04  -3.3683874e-04  -1.9239887e-04  -5.4512057e-04   9.1332622e-05   1.7605234e-04  -2.8656426e-04  -1.3945035e-04  -3.3775921e-04  -1.1943105e-04  -2.9973121e-04   2.7359577e-04  -5.3070773e-05  -2.3298227e-04  -1.7289510e-04  -3.8629174e-04  -4.9895968e-04  -6.1842630e-04  -3.1686499e-04  -8.3647486e-05  -1.2063175e-05   1.9400226e-04  -3.3910686e-04  -2.9259163e-04  -5.3874572e-04  -2.3297188e-04  -1.9883267e-04  -3.5900189e-04  -6.3608098e-04  -4.3572008e-04   5.1622093e-05  -2.6203325e-04  -2.8645020e-04  -3.1448793e-04   7.5652082e-05
  -7.1759248e-04  -5.2429258e-04  -4.0581916e-04  -4.9627491e-04  -2.2606668e-04  -2.7323855e-04  -4.7433007e-04  -1.3152671e-04  -2.1488777e-04  -2.8127423e-04   3.6318153e-05  -2.5241787e-04   2.2724411e-04   1.5057504e-04   1.7246266e-04  -8.3606617e-05  -2.8191434e-04  -2.1112885e-04  -3.7740718e-04   1.6559471e-04   2.0760141e-04  -1.8660686e-04  -8.1416234e-05  -1.9854748e-04   3.1354306e-05  -2.8005999e-04   3.0988373e-04  -2.4352175e-05  -1.2466332e-04  -1.3821475e-04  -2.2907533e-04  -4.1026846e-04  -3.8173186e-04  -1.4806095e-04  -1.1506274e-05   9.5412783e-05   2.5736997e-04  -1.9782702e-04  -1.5179253e-04  -3.4344464e-04  -2.4174989e-04  -1.8764120e-04  -2.1168623e-04  -5.3816504e-04  -1.9899126e-04   1.9774532e-04  -1.1279460e-04  -2.8057353e-05   2.4063964e-04   4.0308113e-04
  -5.0224573e-04  -3.3912461e-04  -2.0908302e-04  -4.2700904e-04  -1.9003116e-04  -2.5481041e-04  -4.0743803e-04  -1.3086403e-04  -2.6522428e-04  -2.4738579e-04   9.9055578e-05  -2.3527240e-04   2.0063040e-04   9.7909840e-05   8.8156237e-05  -3.0305857e-05  -2.6093231e-04  -2.3241239e-04  -3.6422696e-04   1.9787635e-04  -7.3133556e-06  -2.4492631e-04  -9.3015551e-05  -2.9680526e-04  -5.1968269e-05  -3.3086480e-04   2.5858151e-04  -1.5518548e-04  -2.4024084e-04  -2.4138992e-04  -3.1828790e-04  -4.8886408e-04  -4.5147151e-04  -2.3798303e-04  -1.5930482e-04  -3.8465758e-05   1.6578977e-04  -3.0187957e-04  -3.2744987e-04  -4.5292889e-04  -3.8995763e-04  -3.1777922e-04  -3.4868793e-04  -5.9473142e-04  -2.7969881e-04   2.5544918e-04  -2.5814277e-04  -1.6547169e-04  -1.7844116e-04   5.9783051e-04
  -6.7824044e-04  -5.6402717e-04  -2.6103188e-04  -6.0184114e-04  -3.7135760e-04  -4.3281156e-04  -5.2485114e-04  -2.0467895e-04  -4.3405112e-04  -4.2540990e-04  -1.4023273e-05  -4.1089681e-04   4.8024707e-05  -6.6246743e-05  -4.1530646e-05  -8.7124914e-05  -3.5803727e-04  -3.4137236e-04  -6.0878531e-04   5.5039927e-05  -2.9753917e-04  -4.3991895e-04  -2.4225334e-04  -6.2531349e-04  -2.3980573e-04  -5.5510801e-04   1.5519219e-04  -3.4283780e-04  -4.5746958e-04  -3.9835012e-04  -4.9887819e-04  -6.8934244e-04  -7.1535329e-04  -4.1555136e-04  -3.3887773e-04  -2.1567955e-04   1.1025883e-05  -5.3627836e-04  -4.6032332e-04  -5.9194374e-04  -5.6878460e-04  -4.2925225e-04  -3.7994294e-04  -6.0171849e-04  -3.6227750e-04   1.4552312e-04  -2.2830810e-04  -1.1160877e-04   3.2540993e-04   2.2465424e-04
  -5.8772380e-04  -4.0034298e-04  -1.8599287e-04  -4.6273545e-04  -2.4168690e-04  -3.1305407e-04  -4.4190278e-04  -1.4501791e-04  -3.2840366e-04  -2.7902235e-04   1.0038378e-05  -2.4702281e-04   8.9518020e-05  -3.6149177e-05  -4.5426263e-05  -1.0369047e-04  -3.3311141e-04  -3.2992216e-04  -3.9633687e-04   1.9100773e-04   6.6135013e-05  -2.4477852e-04  -1.1749963e-04  -3.9065685e-04  -9.2934373e-05  -3.8167933e-04   4.9009388e-05  -2.1673371e-04  -3.7034793e-04  -2.8228192e-04  -2.8742966e-04  -5.2602624e-04  -4.5607478e-04  -2.0126405e-04  -1.5730434e-04  -3.0748299e-05   1.4986162e-04  -3.1669589e-04  -2.4212881e-04  -4.2528572e-04  -4.0871566e-04  -3.3590276e-04  -3.2252391e-04  -6.0168648e-04  -2.3700947e-04   4.9196777e-04  -1.6920919e-04  -6.2173953e-05   5.8647076e-04   7.0119766e-04
  -6.7203265e-04  -4.4082649e-04  -1.9790677e-04  -5.0504366e-04  -2.9216136e-04  -3.6165401e-04  -4.7010853e-04  -1.4828745e-04  -2.7513129e-04  -4.0831417e-04   2.3240602e-05  -2.7990577e-04   6.7467001e-05  -3.4587105e-05  -7.1534159e-05  -1.2545502e-04  -2.9269696e-04  -3.1440711e-04  -3.2861548e-04   1.1230438e-04  -1.3993600e-04  -2.9357415e-04  -1.7378063e-04  -4.9828464e-04  -1.5218525e-04  -4.6612284e-04   1.3021547e-04  -2.9067980e-04  -2.9797721e-04  -3.5550082e-04  -3.4530216e-04  -5.3869846e-04  -4.9786229e-04  -2.9617542e-04  -2.9609830e-04  -1.1472565e-04   1.0251909e-04  -4.3924261e-04  -4.3403255e-04  -5.2263582e-04  -6.4170209e-04  -4.8489319e-04  -4.9834076e-04  -5.5387075e-04  -2.9539134e-04   6.0801696e-05  -2.8539865e-04  -3.8509464e-04  -1.6658311e-04   3.3235669e-05
  -8.7093079e-04  -6.0238049e-04  -3.1971620e-04  -6.4800045e-04  -4.2578182e-04  -5.7012180e-04  -7.4320665e-04  -3.3254756e-04  -4.9109646e-04  -4.5778704e-04   1.4779280e-04  -5.1589700e-04  -6.1194456e-05  -2.1957811e-04  -2.7826743e-04  -1.0011498e-06  -3.8546033e-04  -3.7733233e-04  -5.0168164e-04   1.9576623e-04  -2.1196769e-05  -3.7101313e-04  -2.7054281e-04  -6.2558544e-04  -3.3553687e-04  -6.8918010e-04   4.3955599e-05  -3.4409171e-04  -4.4374401e-04  -4.9225963e-04  -3.2765226e-04  -5.0973165e-04  -3.3743150e-04  -2.5473358e-04  -3.5249707e-04  -1.0258573e-04   1.2513081e-04  -4.7085667e-04  -3.5261357e-04  -4.8282527e-04  -5.0631294e-04  -3.9413324e-04  -3.5882226e-04  -5.2376604e-04  -2.2434472e-04   1.5821225e-04  -2.2769041e-04   3.3741304e-05   6.1789254e-04   3.9570039e-04
  -6.1261788e-04  -3.2839223e-04  -1.2578658e-04  -4.0792837e-04  -2.3058087e-04  -3.0823948e-04  -4.9065449e-04  -1.3793114e-04  -3.8900721e-04  -3.8563728e-04   2.2636590e-04  -2.4939066e-04   6.4888678e-05  -6.2505700e-05  -1.1540369e-04  -9.0309542e-05  -2.6392477e-04  -2.8232939e-04  -2.8526381e-04   2.1963594e-04   8.2027706e-05  -2.8400138e-04  -1.2558918e-04  -4.3908897e-04  -2.0329691e-04  -4.6145657e-04   6.0867027e-05  -2.6333821e-04  -3.5814595e-04  -3.4000893e-04  -2.4555935e-04  -4.5887104e-04  -3.8073040e-04  -1.7732610e-04  -2.9459238e-04  -1.2266509e-04   1.6449990e-04  -3.8275783e-04  -3.1193625e-04  -4.1382515e-04  -4.3838672e-04  -3.9969650e-04  -3.2133464e-04  -4.2920647e-04  -2.0584365e-04   3.1330140e-04  -1.8262400e-04  -1.6073491e-05  -3.7589365e-05   6.6134840e-04
  -7.1154267e-04  -4.6403994e-04  -2.1484998e-04  -5.1963929e-04  -3.4519224e-04  -4.4780551e-04  -5.6940567e-04  -1.9544025e-04  -5.1774876e-04  -5.2727491e-04   1.0858323e-04  -4.1520473e-04  -8.3908220e-05  -1.6892175e-04  -2.2615348e-04  -1.4760166e-04  -3.4474241e-04  -3.3526693e-04  -5.8013760e-04   1.2238251e-04  -5.8451424e-05  -4.2323634e-04  -3.2584215e-04  -6.0047908e-04  -4.0592783e-04  -5.6008116e-04  -9.5525967e-05  -3.7453213e-04  -4.5544541e-04  -4.2167548e-04  -4.1338551e-04  -6.2439247e-04  -6.4552581e-04  -3.2495579e-04  -4.0445226e-04  -2.3855027e-04   5.5574477e-05  -5.3571607e-04  -4.9785117e-04  -6.1241683e-04  -4.3910457e-04  -4.0447179e-04  -4.5123047e-04  -6.0292974e-04  -3.2483682e-04   3.1250608e-04  -3.2985970e-04  -1.5445682e-04   4.9479255e-05   5.2537426e-04
  -8.3050766e-04  -5.1243836e-04  -2.6904317e-04  -4.8417615e-04  -3.1483706e-04  -3.6616815e-04  -5.4637168e-04  -1.7556864e-04  -5.7714822e-04  -4.5669216e-04   6.1005216e-05  -2.9731586e-04  -3.4756271e-05  -6.4147163e-05  -1.0856146e-04  -2.4888484e-04  -3.3618577e-04  -2.9490172e-04  -4.1562077e-04   1.8783985e-04   4.5805245e-05  -2.9230065e-04  -1.6285921e-04  -3.9070440e-04  -2.7851306e-04  -3.9116206e-04  -4.0239851e-05  -2.0780270e-04  -3.6008577e-04  -2.6555278e-04  -2.1961794e-04  -4.4588227e-04  -3.7704833e-04  -1.0171192e-04  -1.9118768e-04  -5.4969616e-05   2.0302257e-04  -2.8749323e-04  -1.5501911e-04  -3.4498755e-04  -2.1486021e-04  -1.7134272e-04  -1.5434671e-04  -4.6398016e-04  -1.5744234e-04   5.1878777e-04  -1.4436818e-04   2.0028396e-04   4.4380715e-05   6.5830821e-04
  -7.2019099e-04  -4.2778678e-04  -2.1756173e-04  -4.5825879e-04  -3.3582267e-04  -3.9163110e-04  -5.6260062e-04  -1.6433641e-04  -2.5569668e-04  -4.8018646e-04   1.3830631e-04  -3.2965306e-04   8.0287318e-06  -1.6530246e-05  -6.0227059e-05  -1.7509777e-04  -2.8148299e-04  -2.5352946e-04  -5.1816599e-04   1.4596035e-04   6.1010946e-06  -3.4489526e-04  -2.3583924e-04  -4.4654912e-04  -2.7706532e-04  -4.1216984e-04   2.6566069e-05  -2.1226310e-04  -3.2832869e-04  -2.4912375e-04  -2.8847551e-04  -5.1030435e-04  -5.7067967e-04  -2.0174873e-04  -2.4199148e-04  -8.9557143e-05   1.6307975e-04  -3.0803471e-04  -2.3446501e-04  -3.7564937e-04  -1.6632312e-04  -1.7372705e-04  -2.1069976e-04  -4.9366476e-04  -1.3973369e-04   5.8457634e-04  -1.9558311e-04   1.3150093e-04   2.6777951e-05   6.3757948e-04
  -9.4337028e-04  -6.6607195e-04  -3.2828798e-04  -6.5451424e-04  -5.3405418e-04  -5.6423643e-04  -6.7594118e-04  -2.4425387e-04  -4.8338721e-04  -7.6433748e-04  -3.3433749e-05  -5.6298985e-04  -1.2217960e-04  -1.4617557e-04  -1.1041269e-04  -2.6902970e-04  -3.9566233e-04  -3.3018322e-04  -7.6608546e-04  -8.0777478e-05  -2.3741639e-04  -5.5934337e-04  -3.5683947e-04  -7.3033775e-04  -3.6784942e-04  -5.9112906e-04   3.5122455e-05  -3.1565936e-04  -4.6611618e-04  -3.6341557e-04  -3.3382076e-04  -5.9117476e-04  -6.6668069e-04  -2.2427668e-04  -2.1211173e-04  -1.3308437e-04   1.0063677e-04  -2.8711115e-04  -1.7953069e-04  -3.3833494e-04  -2.1711348e-04  -1.8653981e-04  -1.7051004e-04  -4.2030113e-04  -1.6510364e-04   7.1387930e-04  -1.6808402e-04   1.7021391e-04   1.9731128e-04   9.4345014e-04
  -7.1297522e-04  -4.6243030e-04  -1.7714486e-04  -5.0628086e-04  -3.7192798e-04  -3.8021727e-04  -4.7128985e-04  -1.7178387e-04  -5.2621384e-04  -6.0108618e-04  -3.6676844e-05  -3.6269278e-04   1.1307069e-05  -2.5721210e-05   2.0639354e-05  -2.2744016e-04  -3.0341843e-04  -2.8260451e-04  -6.5574679e-04   4.7138386e-05  -2.0456724e-04  -4.0313782e-04  -2.6110007e-04  -5.2379927e-04  -2.5150232e-04  -4.0662705e-04   3.4666646e-05  -2.0612404e-04  -3.2423899e-04  -2.5803741e-04  -2.8755623e-04  -5.3817406e-04  -6.3309178e-04  -2.0160974e-04  -1.9085185e-04  -1.0460403e-04   1.3396742e-04  -2.8686968e-04  -2.1093046e-04  -3.3361654e-04  -1.4825130e-04  -1.9599224e-04  -2.4935586e-04  -4.7393169e-04  -1.2708896e-04   6.4337032e-04  -2.2013733e-04   1.0031772e-04   6.6355271e-05   8.1784406e-04
  -8.3928404e-04  -5.4177962e-04  -2.9195601e-04  -5.7655928e-04  -4.4125912e-04  -4.8604285e-04  -6.2138465e-04  -2.4285467e-04  -6.0324348e-04  -8.2924205e-04  -2.0457595e-04  -4.9510523e-04  -5.7067977e-05  -5.4101682e-05  -1.9231300e-05  -2.9243526e-04  -3.5867214e-04  -2.8559164e-04  -6.9431722e-04  -9.7733864e-06  -3.4702281e-04  -4.9425184e-04  -3.5878128e-04  -6.2950409e-04  -3.0919249e-04  -4.5477206e-04  -3.3701642e-07  -2.6402841e-04  -4.3676302e-04  -3.3084198e-04  -4.0073734e-04  -6.3626224e-04  -7.6226069e-04  -3.4797302e-04  -2.6889893e-04  -1.7792734e-04   3.9942694e-05  -3.9863033e-04  -3.5071556e-04  -5.1864417e-04  -3.1928159e-04  -2.9902524e-04  -3.8321069e-04  -6.0631410e-04  -3.4252787e-04   4.2111418e-04  -3.2641392e-04  -1.1443986e-04   2.9888749e-04   6.4799585e-04
  -8.6043763e-04  -5.9501664e-04  -2.6143229e-04  -5.3320976e-04  -3.9076529e-04  -4.0735336e-04  -5.5345549e-04  -2.0356440e-04  -5.2972964e-04  -6.4868637e-04  -9.6913383e-05  -3.6109122e-04   1.8336304e-05  -2.5603566e-05   2.6991192e-05  -1.2620329e-04  -2.4959157e-04  -2.6841951e-04  -5.4872554e-04   1.0693208e-04  -2.7921010e-04  -3.9935959e-04  -2.0558576e-04  -4.4104437e-04  -2.0349656e-04  -3.4199632e-04   6.7448906e-05  -1.8934847e-04  -2.5406844e-04  -2.4497291e-04  -2.5212680e-04  -5.4634491e-04  -4.6533946e-04  -1.6581469e-04  -1.4771309e-04  -6.5051201e-05   1.3037283e-04  -2.6353452e-04  -1.9197474e-04  -3.9890697e-04  -2.3671860e-04  -2.4848431e-04  -1.9426801e-04  -4.7032905e-04  -1.0501348e-04   4.4554003e-04  -3.0229066e-04  -1.5364583e-05   2.3936546e-04   6.3647289e-04
  -7.4804429e-04  -4.9309258e-04  -2.3698603e-04  -5.5258884e-04  -3.8167872e-04  -4.4156887e-04  -5.6853844e-04  -2.3599569e-04  -5.8598915e-04  -8.1797322e-04  -2.1049801e-04  -4.4815819e-04  -1.2884928e-05  -6.0112281e-05  -9.9193348e-06  -1.1094378e-04  -2.6898205e-04  -2.6273425e-04  -4.9882382e-04   8.8773973e-05  -4.2581113e-04  -5.0450466e-04  -2.7879750e-04  -4.7104264e-04  -2.2471686e-04  -3.2792764e-04   1.5183171e-04  -2.2264023e-04  -2.6007276e-04  -2.8976682e-04  -3.0174197e-04  -5.1786413e-04  -5.0004595e-04  -3.0979674e-04  -1.8064618e-04  -2.2024110e-04   7.4477525e-06  -4.0545838e-04  -3.3796768e-04  -4.2869759e-04  -5.0972693e-04  -3.4522946e-04  -5.2556116e-04  -2.9166057e-04  -2.5161775e-04  -3.7031688e-04  -1.7147567e-04  -3.2254274e-04  -3.1615398e-04  -8.4844814e-04
  -2.7718637e-04  -3.2812406e-04   6.2462168e-05  -1.8555229e-04  -2.9870833e-04  -3.3119821e-04   3.1754962e-04  -3.4512643e-04  -7.8120333e-04  -1.3135874e-03  -7.1894674e-04  -5.1083387e-04  -5.6186406e-04  -6.0489390e-04  -2.0205570e-04   3.2554704e-05  -2.1459968e-04  -1.8935578e-04  -4.2288794e-04  -1.7663263e-04  -8.9450640e-04  -3.5151982e-04  -2.9490510e-04  -2.7296966e-04  -1.0744092e-05  -1.4729590e-05  -2.2973739e-04  -5.5371936e-05  -2.7152983e-04  -8.4818112e-06   6.6502434e-06  -1.8263498e-04  -3.7067750e-04  -5.6339137e-04   3.0267202e-05  -2.8046404e-04  -2.0904795e-04  -3.2523589e-04   1.3957027e-05  -1.5874766e-04  -6.1522634e-04  -5.4775464e-04  -5.0420669e-04  -2.7723514e-04  -2.8364270e-04  -9.7875472e-04  -3.0521612e-04  -3.7993849e-04  -2.0176781e-04  -6.8939500e-04
