   3.3135442e-05   1.3930548e-05   1.4551626e-04  -5.4151293e-05   4.1756168e-05   2.6716880e-05  -3.9618993e-05  -1.6606149e-05  -8.4771464e-06   8.2520955e-06   2.7672856e-04   8.3716528e-05  -2.2459528e-05  -1.4289269e-04  -4.0328514e-04  -4.2377735e-05  -5.2601587e-05  -1.8627144e-04  -1.3170802e-04  -2.0423075e-04  -8.2350668e-04  -1.1470311e-03   3.6362577e-05   4.0909366e-05  -1.9521962e-04  -3.6976675e-05  -3.3309692e-04  -9.4155701e-05  -1.2118418e-04  -1.7257393e-04  -1.2827860e-04  -2.0883115e-05  -3.6066680e-04  -7.8279671e-05  -2.1731306e-04  -7.1658462e-05   3.7122969e-05  -3.5455210e-05  -1.0335831e-05  -1.0619463e-04  -3.2071586e-04  -3.0801122e-04  -5.5362179e-05   4.7334008e-05   4.4957680e-05   3.0830462e-04   5.0735753e-04   1.8001148e-05  -7.5706962e-04  -1.7143370e-04
   5.5694356e-05   1.6796925e-05   1.2317536e-04  -4.4334109e-05   4.3587752e-05   2.1496922e-05  -4.2024854e-05  -3.8316317e-05   1.2288238e-04   2.8588076e-05   2.7242117e-04   1.0701494e-04  -3.1594456e-05  -1.4754693e-04  -3.9938319e-04  -4.3630538e-05  -4.2761385e-05  -1.9446552e-04  -1.1393802e-04  -2.0383141e-04  -8.0783543e-04  -1.1315314e-03   5.5841156e-06   2.9422354e-05  -1.9253546e-04  -4.5262379e-05  -3.1631274e-04  -9.9759542e-05  -1.0701947e-04  -1.6218971e-04  -1.1464977e-04  -2.9393459e-05  -3.3934414e-04  -6.2168030e-05  -2.2461395e-04  -6.9083559e-05   3.3992070e-05  -4.4120592e-05   1.7915962e-05  -1.1138677e-04  -3.6696083e-04  -2.9047887e-04  -2.9753199e-05   5.5923407e-05   1.1611487e-05   3.3549502e-04   5.1015831e-04   1.3360115e-05  -5.5817107e-04  -1.6110799e-04
   6.6622757e-05   1.6822676e-05   1.5715721e-04  -4.7468773e-05   4.2733922e-05   1.1927480e-05  -1.6621763e-05  -3.6126825e-05   4.8120466e-05   4.1186988e-05   2.7221665e-04   1.1024166e-04  -3.2086049e-05  -1.3288116e-04  -3.9363341e-04  -3.7497561e-05  -4.9364557e-05  -1.9983947e-04  -1.4060744e-04  -1.9577025e-04  -7.9772761e-04  -1.1269902e-03   7.7530531e-06   3.9726092e-05  -1.7723540e-04  -4.6033809e-05  -3.0213199e-04  -1.0029299e-04  -9.2636983e-05  -1.6289898e-04  -1.2538618e-04  -5.8960900e-06  -3.6993815e-04  -8.4344385e-05  -2.0742186e-04  -6.6761844e-05   3.4816436e-05  -3.2584489e-05   3.5628511e-06  -1.1324782e-04  -3.4065568e-04  -2.8831846e-04  -4.7118512e-05   5.6952995e-05   2.8584860e-05   3.1834087e-04   5.0183444e-04   4.7089121e-05  -3.2531942e-04  -2.0258862e-04
   6.0812115e-05   9.1945731e-06   1.2887236e-04  -4.5986842e-05   4.5366356e-05   1.2822725e-05  -4.1462550e-05  -3.0593212e-05   1.1547378e-04   3.5587949e-05   2.6780038e-04   9.4386691e-05  -2.8701093e-05  -1.3407650e-04  -3.7084846e-04  -2.8454142e-05  -4.5678953e-05  -1.7779032e-04  -9.5569892e-05  -2.0197476e-04  -7.9015468e-04  -1.1237330e-03   1.3487765e-05   6.6008382e-05  -1.5777860e-04  -4.2634460e-05  -2.8854082e-04  -9.2201342e-05  -7.6466640e-05  -1.5276183e-04  -1.1440873e-04  -1.7064723e-06  -3.4340541e-04  -5.0767423e-05  -1.8283004e-04  -4.6460493e-05   3.3503049e-05  -3.0717190e-05   1.1474634e-06  -1.0800557e-04  -3.1875438e-04  -3.0820590e-04  -4.6524852e-05   3.2915799e-05   5.7816451e-05   2.4458629e-04   5.0138996e-04   7.4544201e-05  -1.6249453e-04  -4.0461138e-04
   5.8873695e-05   1.2394924e-05   1.2851685e-04  -3.0516523e-05   4.1195886e-05   2.7656915e-05  -3.3630498e-05  -3.1181891e-05   3.8261329e-05   5.0075250e-05   2.7593516e-04   1.1621700e-04  -2.3963859e-05  -1.2302294e-04  -3.4241180e-04  -2.4771964e-05  -3.5684367e-05  -1.7758460e-04  -1.1851804e-04  -1.8866085e-04  -7.7823940e-04  -1.1233460e-03   5.9547274e-05   6.4022621e-05  -1.5499785e-04  -4.4358345e-05  -2.5805458e-04  -8.2457926e-05  -8.5928317e-05  -1.6200638e-04  -9.4215102e-05  -9.4683655e-06  -3.5466548e-04  -5.7147401e-05  -2.0196350e-04  -6.8264009e-05   5.1346469e-05  -4.3610791e-05  -1.4769867e-05  -1.2239050e-04  -3.4498845e-04  -2.9577414e-04  -4.6204066e-05   5.2863896e-05   9.3622583e-07   2.9068458e-04   4.9838953e-04   1.6757092e-06  -4.7167653e-04  -3.2626686e-04
   6.4130967e-05   1.5103348e-05   1.4810276e-04  -5.1082337e-05   3.6268961e-05   7.5194703e-06  -5.3175358e-05  -1.5695647e-05   1.7402568e-05   5.1070831e-05   2.7381390e-04   9.0877962e-05  -3.7484409e-05  -1.2135507e-04  -3.4819150e-04  -4.0245428e-05  -3.6159017e-05  -1.7921209e-04  -9.3889255e-05  -1.9673952e-04  -7.7372213e-04  -1.1329578e-03   3.0726816e-05   4.5572433e-05  -1.5700521e-04  -4.6060319e-05  -2.4405567e-04  -8.5458138e-05  -7.6072785e-05  -1.5708141e-04  -9.0314810e-05   5.6705703e-06  -3.7776356e-04  -5.5405751e-05  -2.0542674e-04  -5.2435702e-05   2.9548231e-05  -3.0352876e-05  -2.2846914e-05  -9.3310911e-05  -3.2905320e-04  -3.0948978e-04  -8.8308079e-06   6.1281527e-05   1.7218437e-05   2.9624056e-04   5.1767589e-04   4.1930700e-05  -4.5442994e-04   5.8150657e-05
   4.9893861e-05   7.8679905e-06   1.4203576e-04  -4.0839928e-05   4.4515851e-05   2.6494799e-05  -5.2360603e-05  -1.7722319e-05   9.9985977e-05   3.2615750e-05   2.8327931e-04   6.2937033e-05  -3.9563776e-05  -1.1976004e-04  -3.2722208e-04  -2.4084027e-05  -3.6349331e-05  -1.8535290e-04   9.0892529e-05  -1.8541301e-04  -7.6911872e-04  -1.1171446e-03   6.2119439e-06   3.6403751e-05  -1.4762674e-04  -4.8524205e-05  -1.8631534e-04  -7.1291986e-05  -3.8194030e-05  -1.5025612e-04  -1.0839215e-04   9.3989038e-06  -3.7459107e-04  -6.9043410e-05  -1.6625081e-04  -4.3593856e-05   4.1186966e-05  -5.6363227e-05  -1.7095201e-07  -1.3126647e-04  -3.1854218e-04  -3.0087543e-04  -6.5740860e-05   3.2662476e-05   4.5088964e-05   3.0894642e-04   4.9639703e-04   6.8671470e-05  -3.5273144e-04  -2.7294838e-04
   5.2058946e-05   1.0886505e-05   1.4223233e-04  -4.4042663e-05   4.4113534e-05   3.4677010e-05  -5.3576176e-05   1.5031013e-05   9.0140318e-05   4.8060629e-05   2.7493865e-04   6.9937749e-05  -3.7743441e-05  -9.8125449e-05  -2.7147861e-04  -3.2902670e-05  -3.0127465e-05  -1.8546502e-04  -6.5769971e-05  -1.7140024e-04  -7.5647119e-04  -1.1074310e-03   3.4262112e-06   3.5461409e-05  -1.1533978e-04  -4.4583659e-05  -1.6298567e-04  -6.0554597e-05  -5.5515477e-05  -1.4649784e-04  -9.7502962e-05  -2.5956672e-06  -3.3692419e-04  -8.0162295e-05  -1.7253848e-04  -5.2342271e-05   5.3420201e-05  -3.7206835e-05  -4.7424887e-06  -1.0613436e-04  -3.4154308e-04  -2.9633834e-04  -3.5145564e-05   2.3132012e-05   1.2772935e-05   3.1777046e-04   4.8619159e-04   2.6409118e-06   1.2524655e-05   3.7582479e-06
   6.8731206e-05   1.3111797e-05   1.3508028e-04  -6.1246821e-05   3.8959020e-05   2.4021569e-05  -5.3980675e-05  -4.3483837e-05   7.6886558e-05   2.8761047e-05   2.6192717e-04   7.7982455e-05  -4.8154936e-05  -8.8843553e-05  -2.9710750e-04  -2.7111784e-05  -3.4378238e-05  -1.8801258e-04  -4.8149617e-05  -1.7760399e-04  -7.5233943e-04  -1.1263873e-03  -4.0922278e-06   4.0213268e-05  -1.2450703e-04  -5.6181241e-05  -1.8012385e-04  -6.6265711e-05  -7.0179107e-05  -1.5266854e-04  -7.2941439e-05  -5.2341479e-06  -3.7472797e-04  -6.2744308e-05  -1.6807544e-04  -4.9560225e-05   4.4638473e-05  -5.8670441e-05   1.3605460e-05  -1.2669568e-04  -3.4428510e-04  -2.9037081e-04  -5.6521603e-05   9.2910404e-06  -7.0211797e-07   3.1945109e-04   4.9219624e-04   4.0925890e-05  -7.6341043e-05  -3.3229723e-04
   5.6601413e-05  -4.2571779e-07   1.4252165e-04  -6.8201072e-05   4.2641579e-05   1.6425247e-05  -6.2926476e-05  -2.8772823e-05  -5.5432913e-05   2.3812052e-05   2.5926251e-04   6.3231950e-05  -5.5005788e-05  -9.6846306e-05  -2.7125076e-04  -1.6598975e-05  -3.5146488e-05  -1.7324559e-04  -1.3309799e-04  -1.7919105e-04  -7.4509380e-04  -1.1120018e-03  -1.1300599e-05   8.3839277e-06  -1.0227654e-04  -3.8466413e-05  -1.4620549e-04  -5.9524726e-05  -3.8423757e-05  -1.4583477e-04  -9.9576850e-05  -3.0558374e-06  -3.9163313e-04  -8.5062165e-05  -1.6247963e-04  -4.4659129e-05   5.4379005e-05  -5.0692870e-05  -1.2911520e-05  -1.1690755e-04  -3.4295506e-04  -2.9688378e-04  -4.7922458e-05   1.5113940e-05   4.9869381e-05   3.0096222e-04   4.8965903e-04   3.7140395e-05   3.6226029e-05  -3.0746465e-04
   6.4177206e-05  -6.5598478e-08   1.4329090e-04  -6.8257905e-05   4.4607747e-05   3.5861463e-05  -6.1174876e-05  -1.7261842e-05   3.9624661e-05   3.1161810e-05   2.6540272e-04   8.4534178e-05  -4.3449316e-05  -7.3716656e-05  -2.3708942e-04  -2.2005052e-05  -3.7132486e-05  -1.7429132e-04  -8.3213294e-05  -1.6553597e-04  -7.4169593e-04  -1.1135057e-03   3.5973821e-06   1.7504606e-05  -9.5225114e-05  -3.9704646e-05  -8.9499990e-05  -3.4473229e-05   1.5444273e-05  -1.4687196e-04  -5.5980450e-05   8.1926346e-06  -3.7028978e-04  -7.9615267e-05  -1.2973456e-04  -3.6879395e-05   4.2394760e-05  -6.3970489e-05  -7.4856562e-06  -1.0903135e-04  -3.2812732e-04  -3.0126027e-04  -3.6469566e-05   4.7504542e-05   3.7354199e-05   3.3449210e-04   4.8374882e-04  -8.4535932e-06  -6.2741374e-04  -2.4537131e-04
   7.8056270e-05   1.6138672e-06   1.3635612e-04  -7.8197976e-05   4.3880093e-05   2.9445135e-05  -6.1370447e-05  -2.5389441e-05   1.6670233e-04   6.0141574e-05   2.5915337e-04   7.9418831e-05  -5.3866115e-05  -7.6744895e-05  -2.3421776e-04  -1.5937243e-05  -3.3495238e-05  -1.7730838e-04  -4.6395111e-05  -1.6102905e-04  -7.3035003e-04  -1.1006076e-03   1.1031199e-05   5.1645166e-05  -8.3830899e-05  -4.8420388e-05  -1.0691320e-04  -5.2867894e-05  -2.9351002e-05  -1.3392539e-04  -6.4087159e-05   7.3122433e-06  -3.8986575e-04  -9.9862467e-05  -1.5437101e-04  -3.7831651e-05   4.8847967e-05  -7.9639685e-05   9.0916410e-06  -1.2336187e-04  -3.3906370e-04  -3.0216246e-04  -8.9534624e-05   4.5583332e-05  -4.3566859e-05   3.5730354e-04   4.8527273e-04  -7.4597619e-07  -2.0165142e-04  -2.5427886e-04
   5.5618821e-05  -3.1337324e-06   1.3039031e-04  -8.5641965e-05   3.7837079e-05   2.0564326e-05  -7.4681484e-05  -7.1137096e-05   7.1444985e-05   3.4495060e-05   2.5540189e-04   6.9622423e-05  -5.2461575e-05  -7.5013908e-05  -2.3832089e-04  -3.4116936e-05  -3.3056633e-05  -1.6014863e-04  -1.8461428e-04  -1.6892805e-04  -7.1005424e-04  -1.0754437e-03  -2.3045446e-05   2.3467865e-05  -1.1243532e-04  -5.6344896e-05  -1.0077235e-04  -4.4207100e-05  -3.4738790e-05  -1.5327144e-04  -7.4943644e-05   4.4642625e-06  -3.7879776e-04  -8.7155109e-05  -1.5270954e-04  -4.4393677e-05   4.2145777e-05  -5.8177200e-05   1.4766649e-05  -9.8422686e-05  -3.2753876e-04  -2.7006224e-04  -7.4888318e-05   6.0174247e-05   7.2303003e-05   2.9132463e-04   4.9967016e-04   6.0623370e-05  -1.4741670e-05  -3.8569956e-04
   5.1549534e-05   1.0798286e-05   1.0817133e-04  -7.2261471e-05   4.2268610e-05   1.6479737e-05  -7.2121918e-05  -1.1842280e-05   5.2159805e-05   1.2988762e-05   2.1422069e-04   2.6413467e-05  -4.7197213e-05  -5.9256367e-05  -2.0726719e-04  -4.0210231e-05  -1.5032794e-05  -1.5653954e-04  -6.1693943e-05  -1.7237120e-04  -6.9610344e-04  -1.0295399e-03  -3.0494632e-05   1.1042522e-05  -7.1366412e-05  -6.3502070e-05  -6.5734384e-05  -3.1837164e-05  -1.3699728e-05  -1.2886223e-04  -6.6328073e-05   2.3710722e-05  -3.4583281e-04  -6.7274312e-05  -1.2054354e-04  -2.1680396e-05   4.6062349e-05  -8.4161707e-05   2.2145108e-05  -1.0060683e-04  -2.6554221e-04  -2.2448658e-04  -4.7875223e-05   7.3759504e-05   2.1110473e-05   2.0871773e-04   4.6767216e-04   5.6558092e-05  -3.7670661e-06   2.7242438e-06
   5.8436075e-05   1.2113843e-05   1.0160961e-04  -6.3828767e-05   3.8714159e-05   2.5587653e-05  -5.6650300e-05  -2.4666746e-05   6.2911669e-05   5.0341136e-05   1.9805042e-04   3.9273433e-05  -4.5434608e-05  -2.3078148e-05  -1.5808325e-04  -1.8280334e-05   8.2500316e-07  -1.2620215e-04   2.3800996e-05  -1.6128285e-04  -7.0535351e-04  -1.0349854e-03   4.7745070e-06   5.2888216e-05  -6.3349835e-05  -4.4970406e-05  -5.5373188e-05  -2.5252975e-05  -8.3323221e-06  -6.5684020e-05  -2.9713219e-05   3.0232935e-05  -3.5104959e-04  -3.2703261e-05  -8.6611704e-05  -4.1990017e-05   4.3182990e-05  -6.7576111e-05  -1.0428425e-05  -5.4465072e-05  -1.7445200e-04  -1.5790972e-04  -2.4020939e-05   7.1865448e-05   3.1125983e-05   2.7852424e-04   2.9585417e-04   1.3016005e-05  -2.3789107e-05  -4.1780865e-04
   5.0404062e-05  -2.4812947e-05   9.0733833e-05  -2.6064808e-05   2.0013460e-05   1.9485060e-05  -3.0235598e-05  -3.3888486e-05   1.1693386e-04   1.4701659e-04   1.3897268e-04   1.6191746e-04  -4.0062641e-05  -8.5846705e-06  -1.0254566e-04  -1.7715154e-05  -5.2448950e-06  -9.2468617e-05   9.6226167e-06  -1.7027294e-04  -7.6567725e-04  -1.0862646e-03   2.5189602e-05   2.6174574e-05  -4.3366661e-05  -2.0178433e-05  -2.4256373e-05  -1.7529554e-06   1.1014202e-05   4.3419408e-05   4.3671348e-06   1.1785800e-06  -4.0409964e-04  -2.3575647e-05  -2.3593926e-05  -3.3018718e-05   8.1550043e-06  -7.6819502e-05  -5.6142112e-06  -2.1161773e-05  -6.3440428e-05  -8.8611327e-05   5.2500553e-05   5.6098575e-05   7.1659624e-06   3.0070866e-04   1.7371704e-04   8.1669648e-05  -7.6765922e-04  -6.2074728e-04
   4.8857917e-05  -4.5644767e-05   1.0525842e-04   3.5142020e-06   7.3703027e-06   1.7756902e-05  -9.6938184e-06  -3.5617082e-05  -2.1278585e-05   1.7321273e-04   6.9994268e-05   1.8217653e-04  -2.1629268e-05   2.4340685e-05  -1.1570865e-05   2.6839747e-05  -1.9832936e-05  -5.1065530e-05  -8.8214365e-05  -1.8530250e-04  -8.1064162e-04  -1.1044755e-03   3.1469601e-05   5.8752168e-05  -6.9693838e-06   2.2368693e-05   3.8706658e-05   3.2386150e-05   7.4834625e-06   1.1658770e-04   1.7703400e-05  -3.9531133e-06  -3.9185106e-04  -1.0322038e-06   5.3383528e-06  -2.1878910e-05  -2.6613322e-06  -8.1353515e-05   1.8614364e-05  -2.6905276e-05  -4.0148621e-05  -1.9168270e-05   5.4560449e-05   6.3083542e-05   9.5202658e-06   2.8316586e-04   7.4228308e-05   1.0437479e-04  -9.0842391e-04  -7.8357762e-04
   5.4061737e-05  -4.2172989e-05   8.5426080e-05   2.2539640e-05  -2.4299807e-06   2.0522441e-05   1.0378080e-05  -2.3586990e-05   1.0187351e-04   1.6638068e-04   7.3396172e-05   1.9598764e-04  -2.9995206e-05   1.2076210e-05   3.3323478e-05   2.2552253e-05  -9.1190714e-06  -3.8614864e-05  -5.9438618e-05  -1.8201198e-04  -7.6080492e-04  -1.0453528e-03   2.7890856e-05   6.7594141e-05   2.6780921e-05   2.0946964e-05   3.2632943e-05   3.0761537e-05   1.8060435e-05   9.7788194e-05   4.6151508e-05   6.4300639e-06  -3.6294232e-04   2.1135174e-06   1.3203805e-05  -2.7375892e-05  -5.7890011e-06  -4.4157165e-05   4.4169119e-06   6.1315059e-06  -6.0371647e-05  -1.1474168e-05   5.5313467e-05   5.3511852e-05   2.6235030e-05   2.1820921e-04   9.3926064e-05   3.5030022e-05  -7.2267879e-04  -7.0822722e-04
   3.1801388e-05  -3.3103905e-05   7.2945404e-05   3.0296145e-05  -7.1409072e-06   1.5882195e-05   1.0234593e-06  -4.7843780e-05   7.2226430e-05   1.8720227e-04   7.0980801e-05   1.9902128e-04  -2.4055471e-05   1.8660665e-05   2.0746851e-05   3.3294422e-05  -1.5882399e-05  -2.5435977e-05  -3.4267945e-05  -1.7321561e-04  -7.1952172e-04  -9.8560425e-04   3.1098472e-05   8.4355925e-05   2.3148588e-05   2.7953256e-05   1.5289790e-05   2.1068496e-05  -2.0982748e-06   8.7497305e-05   5.2220938e-05   9.9655408e-06  -3.5994223e-04   1.6188207e-05   1.5766102e-05  -2.9330902e-05   1.5196415e-05  -3.2700878e-05   4.0581846e-05  -1.5031389e-05  -8.1074286e-05   6.5542736e-06   5.0705603e-05   4.8139002e-05   2.9484523e-05   1.7729097e-04   6.8833528e-05   4.4441902e-05  -3.6528581e-04  -3.6235261e-04
   3.1680509e-05  -2.9102597e-05   7.3346848e-05   3.1546584e-05  -1.2645514e-05   1.4610961e-05   2.3927594e-05  -4.5336390e-05   1.5926428e-04   1.8811211e-04   7.1561815e-05   1.9077746e-04  -3.4931239e-05   1.4693155e-05   1.9769657e-05   1.6469026e-05  -5.7913489e-06  -1.3228738e-05  -6.9369620e-05  -1.6543495e-04  -6.9260708e-04  -9.4958209e-04   3.2496911e-05   5.8048496e-05  -3.3070180e-06   3.1316038e-05   6.0275623e-05   2.4710447e-05   3.3451492e-05   6.8517824e-05   6.9205045e-05   3.3710712e-05  -3.4183456e-04  -1.8664816e-06   3.7101541e-05  -1.3924058e-07   2.8786773e-05  -3.6598656e-05   2.6493024e-05   2.3028528e-05  -4.3653050e-05   1.8551207e-05   5.0509138e-05   5.7962450e-05   1.6728297e-04   2.1529019e-04   7.7693316e-05   1.0257735e-04  -2.0612949e-04  -1.1836141e-04
   1.9214885e-05  -1.7953807e-05   7.1451905e-05   4.4000622e-05  -7.5144185e-06   2.9141704e-05   2.1794411e-05  -2.8772487e-05   8.9739806e-05   1.7891008e-04   8.4413550e-05   1.7788535e-04  -1.1104918e-05   1.8880004e-05   4.9829101e-05   1.3889552e-05   1.1707732e-05  -2.1192522e-05   3.6509327e-06  -1.4214437e-04  -6.6544261e-04  -9.2595821e-04   2.4113029e-05   8.7068795e-05   7.5446755e-05   4.2085903e-05   9.8922283e-05   4.2259420e-05   1.9946323e-05   6.4186810e-05   8.1683625e-05   4.3858392e-05  -3.1191594e-04   5.2201878e-05   5.8806294e-05  -1.1045920e-06   2.7107393e-05  -1.3841654e-05   1.5463454e-05   4.4295888e-05  -6.9799054e-05   1.7527905e-06   5.1058501e-05   6.7795954e-05   2.8697252e-05   2.5303525e-04   9.1516245e-05   6.2253828e-05   2.4749417e-04  -2.2895653e-04
   3.0364910e-05  -1.4369223e-05   6.0654569e-05   4.4432683e-05  -9.1396132e-06   2.5055448e-05   2.7879914e-05   8.0998534e-06   7.2563671e-05   1.8617848e-04   9.0893816e-05   1.8906778e-04  -1.4423951e-05   2.8125542e-05   3.4629400e-05   1.7490122e-05   1.4751768e-05   3.6900667e-07  -1.4987132e-06  -1.4500445e-04  -6.5896334e-04  -9.1588282e-04   4.4314045e-05   6.9537920e-05   3.6224628e-05   3.8024289e-05   8.0227677e-05   2.3083754e-05   7.7548757e-05   4.8019981e-05   7.9676698e-05   6.4016262e-05  -3.2518420e-04   2.7127990e-05   2.9770883e-05   1.4096929e-06   7.9351976e-06  -1.8844039e-05   3.3580964e-05   2.4680992e-05  -3.8906743e-05   1.3222867e-05   5.4167158e-05   5.4095155e-05   1.5389067e-05   2.0429355e-04   1.2401897e-04   6.9771573e-05   6.4010128e-05  -7.3225863e-05
   2.1408427e-05  -1.3100660e-05   6.3950276e-05   4.7866888e-05  -5.9452068e-06   2.6357900e-05   3.2779884e-05  -2.1229260e-05   7.6602082e-05   1.5758473e-04   8.8823326e-05   1.7502785e-04  -4.0108657e-06   3.5912584e-05   3.3671560e-05   8.1457729e-06   1.6065129e-05  -1.8120270e-05  -6.1864528e-05  -1.3542990e-04  -6.3829630e-04  -8.8937493e-04   3.8946255e-05   8.2870945e-05   3.1684565e-05   4.4548648e-05   4.4739540e-05   1.9687513e-05   5.3708252e-05   4.8731668e-05   9.7217875e-05   7.4065909e-05  -3.3890724e-04   4.0913463e-05   2.1260888e-05  -3.7771804e-06   1.5316235e-05  -1.3152768e-05   3.4674755e-05   2.9619707e-06  -5.7985402e-05   1.3333484e-05   4.3376058e-05   7.3659030e-05   8.1162580e-05   2.7158982e-04   9.6433760e-05   7.3020485e-05  -5.3123793e-05  -4.2315933e-05
   3.3410404e-05  -1.1960185e-05   8.2697021e-05   4.8349913e-05   5.9952658e-06   2.3785953e-05   1.3394168e-05  -2.7830307e-05   1.9015013e-05   1.5711648e-04   8.9139197e-05   1.5940974e-04  -1.0306417e-05   3.4296052e-05   4.2446482e-05   1.4070928e-05   1.4602212e-05  -4.3683326e-06   8.9950387e-05  -1.3128728e-04  -6.3002319e-04  -8.7349821e-04   2.1474976e-05   6.7140565e-05   4.9637983e-05   3.7457834e-05   7.6001939e-05   3.9581872e-05   9.3318144e-05   5.3452113e-05   8.1875274e-05   7.8288562e-05  -3.0571720e-04   4.9641516e-05   5.7985384e-05   7.0500350e-06   1.4148632e-05  -3.8165264e-05   2.4519346e-05  -2.3349580e-06  -5.0523860e-05   1.2782548e-05   4.5359266e-05   6.4418833e-05   3.7114558e-05   2.3162086e-04   1.1199495e-04   5.1296945e-05  -3.1853630e-04   6.1349951e-05
   4.8861675e-05   1.9303752e-06   7.8021330e-05   5.4352873e-05   4.2221050e-06   3.8843726e-05   3.5093555e-05  -9.1166903e-06   1.8828598e-05   1.7375962e-04   9.6940865e-05   1.7370684e-04  -1.2086830e-05   4.1126445e-05   6.8010973e-05   1.2925612e-05   2.3346929e-05   2.6126538e-05   6.0412101e-05  -1.2846911e-04  -6.1495922e-04  -8.6632511e-04   1.8533970e-05   8.5608888e-05   6.9987254e-05   4.5462904e-05   9.4904273e-05   4.0876508e-05   9.1968148e-05   4.5456862e-05   9.5633688e-05   7.6710392e-05  -2.8899786e-04   5.5040891e-05   3.3185628e-05  -7.9897763e-06   1.2710952e-05  -1.4953964e-05   1.1840512e-05   1.0936251e-05  -3.9353145e-05   2.1737980e-05   5.9859754e-05   6.4422697e-05  -4.6423879e-06   2.0892090e-04   1.0202977e-04   8.0921876e-05  -9.5397474e-05  -1.3021920e-04
   4.0267158e-05   6.6628540e-06   6.9452297e-05   4.5220331e-05   2.2035265e-07   3.1681608e-05   3.1010808e-05   1.5475169e-05   5.0577215e-05   1.3441096e-04   9.6843432e-05   1.4255280e-04  -5.2327337e-06   3.6343787e-05   4.5554712e-05   1.1255157e-05   2.0983145e-05   3.5635039e-05  -4.6239053e-05  -1.1811694e-04  -6.1417278e-04  -8.5012981e-04   2.4302546e-05   9.0563568e-05   4.9067061e-05   3.2772496e-05   8.3466257e-05   2.4227907e-05   8.6823929e-05   4.2803880e-05   9.2136506e-05   8.1358507e-05  -3.0784993e-04   3.5204463e-05   1.8810724e-05  -8.5763750e-06   1.7953598e-05  -3.8679551e-05   2.4046046e-06   3.9396607e-05  -1.1931055e-05   2.1417321e-05   3.4655997e-05   6.3461783e-05   4.8289905e-05   1.7965853e-04   8.8964953e-05   9.7953118e-05  -4.0362027e-04  -1.5472946e-05
   3.8088307e-05   4.2980300e-08   6.9429268e-05   5.4489603e-05   6.6480952e-06   3.6228765e-05   2.9624152e-05  -7.4918953e-06   3.6163197e-05   1.3509189e-04   7.9651465e-05   1.3761598e-04   2.9481914e-06   3.8967581e-05   5.3602351e-05   1.3304941e-05   3.3317719e-05   2.0704074e-05   3.7605398e-05  -1.2998832e-04  -6.1368453e-04  -8.5769559e-04   2.3110668e-05   7.6837612e-05   3.1827105e-05   2.6524960e-05   1.0077094e-04   3.6123511e-05   7.0685870e-05   5.6182758e-05   1.0634666e-04   8.0425285e-05  -2.9511307e-04   4.6484303e-05   4.6487170e-05   1.0488428e-05   2.0899894e-05  -2.3849769e-05   4.6822468e-05   5.1957336e-06  -2.5657020e-05   1.4556314e-05   4.1775089e-05   4.6020352e-05   4.4524062e-05   1.8430856e-04   1.0858388e-04   1.1814127e-04  -4.9332320e-04  -7.4886811e-05
   3.8484824e-05   1.6911562e-06   8.6694141e-05   5.7336460e-05   1.0946494e-05   4.9418741e-05   4.9695511e-05  -2.2721943e-06   5.2882864e-05   1.4301794e-04   8.1120306e-05   1.2884047e-04   1.8533035e-06   5.6504468e-05   7.5019998e-05   2.2796616e-05   3.1874890e-05   5.2090752e-05   1.8437438e-04  -1.0904440e-04  -6.0491002e-04  -8.2951842e-04   6.4919172e-05   6.1337363e-05   9.3767449e-05   3.2916916e-05   1.2055434e-04   5.4843425e-05   8.9339839e-05   5.1136507e-05   1.2542367e-04   7.7536526e-05  -2.6998826e-04   3.9876784e-05   5.4288983e-05   6.0116918e-06   2.5040890e-05   4.4133308e-06   2.9300732e-05   3.1690070e-05  -3.7640064e-05   1.6080228e-05   3.6712507e-05   3.4913446e-05  -5.2128962e-06   1.6567377e-04   1.2911792e-04   7.1187183e-05   1.4654452e-04  -9.0682923e-05
   3.1714408e-05   1.4851859e-05   8.2079685e-05   4.9228223e-05  -1.8561683e-07   4.0312985e-05   3.6341215e-05   6.1450905e-06   5.6778630e-05   1.2595645e-04   8.2495186e-05   1.2682812e-04  -4.6382020e-06   3.6583086e-05   3.3515455e-05   3.1890686e-06   2.8116361e-05   4.7318623e-05   5.8257443e-05  -1.0584785e-04  -5.8831519e-04  -8.2507188e-04   1.6216072e-05   8.5342355e-05   6.6798842e-05   2.4182054e-05   8.6126194e-05   2.3078414e-05   9.1079986e-05   2.8932174e-05   1.1620485e-04   8.2731582e-05  -2.6904856e-04   2.0646949e-05   2.9241519e-05   6.4349924e-06   3.3252112e-05  -1.7460663e-06   2.8710392e-05   3.3583021e-06  -3.6746958e-05   3.0135807e-05   2.0820973e-05   3.2698998e-05   1.6529842e-05   1.7493726e-04   9.4288756e-05   7.8296842e-05  -1.0496831e-04  -3.4273231e-05
   5.1300303e-05   1.9478981e-05   8.0501290e-05   3.7580288e-05   1.2035614e-05   2.7819395e-05   7.8880103e-06   8.6214668e-06   2.1302501e-05   9.9473989e-05   6.4962769e-05   8.9177316e-05  -1.0280953e-05   3.1166026e-05   1.1918539e-05   1.6968893e-07   3.0910680e-05   4.3160675e-05   3.5716683e-05  -1.1158294e-04  -5.8276835e-04  -8.1180077e-04   2.1510512e-05   7.0734648e-05   4.2224001e-05   1.9601792e-05   6.5743407e-05   2.3832246e-05   1.3257730e-04   3.0901992e-05   1.2267244e-04   7.8829711e-05  -2.7063908e-04   2.4819945e-05   2.9657751e-05   1.2940400e-05   1.8645052e-05  -3.0751802e-05   3.9122449e-05  -2.4138109e-05  -3.0552939e-05   3.0501744e-05   3.3495267e-05   4.1945703e-05   5.5757730e-05   2.4373867e-04   8.1235565e-05   1.0108526e-04   5.2225351e-04  -1.1771426e-04
   5.2787505e-05   2.0509111e-05   8.8976463e-05   4.4156561e-05   7.6544029e-06   3.0305351e-05   2.5184849e-05   4.4687872e-06   4.9698767e-05   1.1753231e-04   7.2518786e-05   8.6331958e-05   1.2017168e-06   3.9819697e-05   2.3457529e-05   2.6830758e-06   3.3226392e-05   3.6761947e-05  -1.3400901e-04  -1.0761176e-04  -5.7692622e-04  -8.1439252e-04   3.0558840e-05   5.0882820e-05   6.5244101e-05   1.3855549e-05   6.9983151e-05   3.4420726e-05   9.7625263e-05   2.8445127e-05   8.9121531e-05   7.5756208e-05  -2.5354433e-04   3.2513261e-05   2.8509232e-05   2.1850639e-05   2.5706191e-05   9.7478016e-07   3.3535245e-05   1.3627239e-05  -6.3150492e-06   2.4476903e-05   2.6265612e-05   3.8388895e-05  -3.2500804e-05   1.4682517e-04   6.4694388e-05   6.5486965e-05  -1.7037932e-04  -5.3633172e-05
   5.1307979e-05   2.9844772e-05   8.2533457e-05   4.1635201e-05   9.7721559e-06   3.2053988e-05   3.7055845e-05   4.2501097e-06   5.6855890e-05   9.6421347e-05   7.0377107e-05   8.8644236e-05  -1.2016822e-05   4.5788544e-05  -6.6495199e-06   1.0723829e-05   3.6172070e-05   2.8547978e-05  -6.2488900e-05  -1.0682186e-04  -5.8456650e-04  -7.9443661e-04   3.9596369e-05   5.6662837e-05   4.4877572e-05   1.0265047e-05   6.8858164e-05   2.5815067e-05   1.2353474e-04   2.2910737e-05   8.9828070e-05   8.6332082e-05  -2.9300054e-04   3.3602981e-05   1.1688212e-05   9.1363281e-06   2.5053028e-05   1.1047057e-05   3.6099289e-05  -7.1864756e-06  -4.5289153e-06   1.3519696e-05   1.3964250e-05   1.6407570e-05   2.1017830e-05   1.1879003e-04   7.5250733e-05   8.4559295e-05  -5.7552429e-04  -1.7253951e-05
   5.4708700e-05   2.3581366e-05   8.5745756e-05   3.0072866e-05   1.9235826e-05   2.5089736e-05   1.9598157e-05   1.4131454e-06   4.1788098e-05   7.7581790e-05   6.9795416e-05   9.2058144e-05  -9.8640576e-06   3.1788073e-05  -1.7376868e-05   1.4040465e-05   2.6311400e-05   3.2219490e-05  -4.7969777e-05  -1.0740243e-04  -5.7573378e-04  -7.8392745e-04   3.3264390e-05   2.2275532e-05   2.5130068e-05   9.5596288e-06   3.9424085e-05   1.3623965e-05   7.9226527e-05   2.4527393e-05   6.8839174e-05   8.0765210e-05  -3.0087019e-04   2.6570398e-05   2.8011755e-05   2.1863774e-05   2.6810638e-05  -3.3377123e-06   7.6208540e-05   1.8092933e-05  -2.9520274e-05   3.7826012e-05   3.2556589e-05   3.2649885e-05   9.1570037e-05   1.9229832e-04   7.5554111e-05   1.0297704e-04   8.9548295e-05  -9.6760894e-05
   5.1270228e-05   2.7281874e-05   9.2790775e-05   3.3080261e-05   2.2071272e-05   2.9832448e-05   3.7801186e-05  -1.6372682e-05   1.6590884e-04   1.0560094e-04   5.9740119e-05   8.6688684e-05   4.5380884e-06   4.5601319e-05   1.1057678e-05   1.9817703e-06   2.8472319e-05   4.3841421e-05   6.0032355e-05  -1.0091277e-04  -5.6975259e-04  -7.9105160e-04   4.7166512e-05   2.1187459e-05   3.7286496e-05   1.0116149e-05   8.2651546e-05   3.4863850e-05   1.1055921e-04   1.2615475e-05   8.2702558e-05   6.9792994e-05  -2.5480954e-04   2.7399450e-05   2.4571422e-05   1.0485993e-05   1.5536069e-05   2.3384502e-05   3.3764769e-05  -1.7600074e-05  -6.4146034e-06   1.7512253e-05  -2.0813168e-06   1.0686773e-06   3.0459994e-05   1.2041475e-04   5.5842738e-05   7.7224002e-05  -2.2486513e-05   6.3978623e-05
   5.1186194e-05   3.9180413e-05   8.0217222e-05   2.9715811e-05   1.5666948e-05   2.2670352e-05   2.0785368e-05   9.1278307e-06   6.4194537e-05   8.0602433e-05   8.2693216e-05   8.8294320e-05  -9.6509993e-06   2.4888874e-05  -4.4947319e-05   4.4147855e-06   3.7919443e-05   1.4280487e-05  -1.9691553e-05  -1.0504835e-04  -5.5051805e-04  -7.7392417e-04   3.6696470e-05   4.7312573e-05   1.5239027e-05   7.0015790e-06   3.0524141e-05   1.2511041e-05   9.4047777e-05  -3.1349357e-06   5.5257195e-05   5.4834625e-05  -2.9436278e-04   1.1554406e-05  -2.0974901e-05   4.6412347e-06   3.4494176e-05  -2.8813114e-05   3.4445096e-05  -1.7229102e-05  -5.6950797e-05   1.0698609e-05   1.5245825e-05  -7.8072180e-06   5.5374472e-05   8.2784558e-05   6.4810723e-05   9.3549308e-05   7.1909140e-05  -2.5775770e-04
   5.6949080e-05   4.0376479e-05   7.1380302e-05   2.3980212e-05   1.3030649e-05   3.4545210e-05   2.7187248e-06  -1.1755076e-06   5.1154235e-05   6.0652714e-05   7.6679782e-05   8.3078899e-05  -2.9039523e-07   2.5712790e-05  -5.3430125e-05   1.6752123e-05   3.4443980e-05   4.6812998e-05  -2.7618908e-05  -1.0870368e-04  -5.5905565e-04  -7.6134264e-04   2.3542310e-05   4.1660987e-05   9.6066678e-06  -3.4491229e-06   5.2558546e-05   1.9679990e-05   9.4845054e-05   8.9935966e-06   6.0285649e-05   6.2629362e-05  -2.7942142e-04   1.7232702e-05  -9.8803275e-06  -6.2049717e-06   2.3683819e-05  -2.5945635e-06   4.2038700e-05  -9.4575371e-06  -3.9803577e-05  -8.0883447e-06   5.8199089e-06   2.3687748e-05   2.4123125e-05   1.2624948e-04   7.1855058e-05   8.6161941e-05  -6.4691179e-05  -1.5149672e-04
   5.6819394e-05   3.8686299e-05   7.8212965e-05   2.5994066e-05   1.9407986e-05   2.9481153e-05   5.7342822e-06  -6.5168706e-07   2.6464542e-05   5.9228649e-05   7.5050135e-05   6.3232066e-05  -6.2312411e-06   3.6575751e-05  -2.1067184e-05   1.8888477e-05   2.9402348e-05   3.9117145e-05  -1.4944196e-05  -1.0891910e-04  -5.5932230e-04  -7.5839646e-04   4.9187944e-05   3.9546703e-05   2.5817171e-05  -4.1297012e-06   6.3607309e-05   3.0761876e-05   1.1563812e-04   3.3972137e-07   4.5864792e-05   5.4340551e-05  -3.0132852e-04   3.3474892e-06   3.0583804e-05   1.2823005e-05   1.6551901e-05  -1.4053106e-05   6.8837275e-05  -1.5146244e-05  -2.5735819e-06   1.6268277e-05  -1.1488750e-05   3.7479367e-05  -1.5225301e-05   1.8429580e-04   7.6212011e-05   1.0557727e-04  -8.0208971e-05   2.1666315e-04
   7.1668052e-05   3.9027145e-05   7.4848438e-05   3.5487286e-05   1.4352095e-05   3.1747561e-05   5.5078090e-06   9.0354724e-06  -4.6615878e-06   5.3131022e-05   7.4123818e-05   7.7094519e-05  -1.0592064e-05   1.5972966e-05  -5.7261404e-05   4.0004670e-06   2.7576558e-05   4.3065815e-05  -1.8892157e-05  -1.1157633e-04  -5.7125563e-04  -7.6032814e-04   3.7093090e-05   5.0524210e-05   7.3158185e-06   6.4133192e-06   2.3535501e-06   5.8481755e-06   5.5582175e-05  -6.1571232e-06   1.7817412e-05   5.6909823e-05  -3.2562870e-04   2.1724777e-06  -6.1720830e-06  -1.4747280e-07   1.8884581e-05  -9.9423241e-06   1.0968162e-05   6.9181721e-07   5.5304931e-06   2.1645938e-05  -4.8589313e-06   1.9348847e-05   1.0871757e-05   1.7596787e-04   6.7225563e-05   6.1117840e-05   1.5604108e-05  -4.6239209e-05
   6.0545572e-05   3.8302471e-05   7.0588663e-05   1.9076570e-05   1.6646367e-05   2.1751943e-05  -5.1564771e-06  -1.9671725e-05   2.1389273e-05   3.2283620e-05   7.1593444e-05   5.2816056e-05  -5.7789985e-06   2.1824942e-06  -6.8942973e-05   5.9677318e-06   3.3964614e-05   3.0834653e-05   4.7738093e-05  -1.1123017e-04  -5.5618951e-04  -7.6501031e-04   2.1719695e-06   4.0543066e-05  -2.2618999e-05   2.3934565e-06   1.7434724e-05   2.2308298e-07   7.3389034e-05  -1.1482869e-05   2.1615082e-05   6.1547384e-05  -3.0562878e-04  -1.4319513e-05  -9.5999476e-06   2.5022830e-06   1.3986414e-05  -1.4015716e-05   4.0439034e-05   2.8011755e-06  -1.4031172e-06   1.8134540e-06   4.5207839e-06   4.7144827e-06   3.7402260e-05   1.4652024e-04   6.1165658e-05   7.0881521e-05   2.2522915e-04  -1.0030939e-04
   5.7079869e-05   3.5967132e-05   6.8554182e-05   1.7808850e-05   2.1064614e-05   3.3592172e-05  -3.2088628e-06  -6.4218093e-06   7.1145259e-05   3.8301649e-05   6.6079432e-05   5.5909517e-05  -1.2370234e-06   2.2538237e-05  -4.2269265e-05   6.6728544e-06   3.1280331e-05   4.0286915e-05  -3.6261830e-05  -1.0272408e-04  -5.5881008e-04  -7.6178630e-04   1.3532357e-05   5.8980218e-05  -1.3970441e-05   2.8268787e-06   3.4003268e-05   1.8701501e-05   6.1203384e-05   3.2207083e-06   1.0558942e-05   5.7030709e-05  -3.1192042e-04  -7.1750560e-07   9.2501568e-06   1.7994756e-05   4.1635696e-05   8.5846887e-07   4.3399716e-05   1.0817774e-05  -2.5021731e-05   1.1916577e-05  -3.0571680e-06   8.1030694e-06   2.1520775e-06   1.0967543e-04   6.5365217e-05   4.6021960e-05  -6.1515858e-04  -7.6389297e-05
   3.8622322e-05   3.7354981e-05   5.8983758e-05   2.5824580e-05   1.9561814e-05   1.9164689e-05  -1.2362059e-05  -7.4055306e-06   9.5466610e-05   1.3203196e-05   7.4842006e-05   6.6252396e-05  -6.7886317e-06   1.0312661e-05  -6.8364548e-05   6.8905761e-06   2.8224827e-05   4.8868653e-05  -3.3721950e-05  -9.6278884e-05  -5.5927300e-04  -7.4829679e-04   1.8634442e-05   4.8188685e-05  -2.3568709e-05  -6.1313301e-07  -2.3291350e-06  -5.5035348e-06   2.2465290e-05  -6.5481040e-06   5.1802099e-06   3.1978368e-05  -3.0318837e-04  -1.0313999e-05  -1.6857333e-05  -1.0135731e-05   2.1549477e-05  -1.1456950e-05   2.1030253e-05  -2.1769121e-05  -3.0988289e-05   1.2027409e-05   9.2601949e-06   1.0566818e-05   4.4921100e-05   1.0252662e-04   5.8956346e-05   1.4001040e-05  -1.6445313e-04  -5.5513658e-05
   6.5225235e-05   3.0001887e-05   5.7534100e-05   1.4721789e-05   1.8149138e-05   1.9794979e-05  -2.1161934e-06  -3.0234311e-05   1.7751354e-06   1.0557927e-05   6.8060312e-05   5.3879376e-05  -8.2837869e-06   1.2384832e-05  -8.6674321e-05   8.7408825e-06   2.9392182e-05   2.6953981e-05   4.1484083e-07  -9.2684219e-05  -5.5670796e-04  -7.4501522e-04   1.1767631e-05   4.1421288e-05  -4.6056339e-05  -6.0943566e-06  -2.3564882e-05  -2.4343885e-06   6.1124090e-05  -2.6553112e-06   1.4398232e-05   3.3275064e-05  -3.1426721e-04  -2.0085816e-05  -1.1783686e-05  -1.2078511e-06   8.0754544e-06  -1.0252054e-05   1.7435550e-05  -4.8165562e-06  -3.2089083e-05   2.1791573e-05   1.8629740e-07   3.8925104e-05   2.8631242e-05   1.5288685e-04   5.8057311e-05   3.5567358e-05  -1.3171321e-04   2.4397977e-04
   5.3483836e-05   2.7948061e-05   5.7421090e-05   1.5336773e-05   2.0937223e-05   2.2614106e-05   3.1342606e-06  -1.1633602e-05   1.2632650e-04   1.7684024e-05   6.3099833e-05   5.2618703e-05  -1.0207247e-05   1.7556138e-05  -6.8394373e-05   1.6845862e-06   2.3333461e-05   1.2747884e-05   1.1995744e-05  -1.0278286e-04  -5.6172168e-04  -7.3830166e-04   3.7877489e-05   4.7824888e-05  -5.8807294e-05   6.9241760e-06  -6.1533983e-06   8.7007429e-06   6.3080624e-05   9.1400607e-06   1.4808188e-05   4.7838770e-05  -3.0590073e-04  -8.1244443e-06  -1.7573977e-05  -6.0244342e-06   1.8690440e-05  -2.8025446e-05   3.7635349e-05   1.0024210e-05  -2.6766704e-05   9.2222490e-06   2.1631849e-05   7.8792669e-05   4.2395044e-05   6.8305031e-05   2.5728472e-05   3.4222965e-05  -1.3503812e-04   1.4157087e-04
   6.5954548e-05   2.3887305e-05   6.3686195e-05   3.3148877e-05   1.5708199e-05   2.8319620e-05   1.7549533e-05  -1.8313332e-05   4.8069363e-05   4.4557357e-05   5.2777305e-05   7.9074205e-05  -7.7235163e-06   1.4367817e-05  -6.0894316e-05   1.1142732e-05   2.9045961e-05   1.1780859e-05  -7.5291762e-05  -1.0017566e-04  -5.6919496e-04  -7.2619144e-04   4.4940312e-05   8.3983898e-05  -4.0982759e-05   1.6010203e-05  -3.2047777e-05  -3.0548752e-06   5.0539915e-05   3.0161975e-05   3.2904289e-05   4.4925629e-05  -3.2128452e-04  -1.0373206e-05  -1.5957101e-05  -2.6611700e-05   2.1987404e-05  -1.4391456e-05   1.7871262e-05   4.5832134e-05   5.3699846e-06   2.1682343e-05   1.9174644e-05   5.1462044e-05   4.3829503e-05   1.6411264e-04   1.0826528e-05   3.1956100e-05  -3.4421263e-04  -1.3457776e-04
   5.2222753e-05   1.2781443e-05   5.7160134e-05   3.1574444e-05   8.2770302e-06   2.5777097e-05   8.6874843e-06  -1.7289509e-05  -4.1016742e-07   5.6295732e-05   3.8624519e-05   8.2186154e-05   3.0528536e-06   1.3440694e-05  -7.4071722e-05   3.3930385e-06   2.6995751e-05   1.8135252e-05  -3.9473827e-05  -9.3904215e-05  -5.6426582e-04  -7.1306148e-04   5.5873941e-05   7.1789480e-05  -4.8538306e-05   1.7179747e-05  -3.7479451e-05  -1.2672120e-06   9.5237287e-05   3.3399698e-05   1.9121175e-05   3.6859466e-05  -2.9778868e-04  -3.0905143e-05  -7.1536574e-06   8.3438135e-06   1.1468642e-05   1.8301784e-05   4.6867695e-05   3.7432979e-05  -1.4414435e-05   2.8559862e-05   3.6158421e-05   7.5574862e-05   4.7916870e-05   1.1724267e-04  -1.3549082e-06   3.9707669e-05  -5.5531319e-04  -6.3810097e-05
   4.3863714e-05  -1.7705177e-07   5.6345369e-05   3.9733593e-05   6.1043438e-06   2.4796256e-05   3.2556996e-05  -2.7923434e-05   5.8753736e-05   6.0643735e-05   1.6349555e-05   1.0081498e-04  -1.6520446e-06   1.9447883e-05  -4.7302918e-05   1.9733570e-05   2.2526723e-05   1.4421776e-05   6.0808037e-05  -9.5949472e-05  -5.8917300e-04  -7.3296175e-04  -2.1816375e-06   7.2098563e-05  -3.3324312e-05   3.4495159e-05   1.2298140e-05   1.4304181e-05   5.2831856e-05   7.5710457e-05   4.2806474e-05   4.5089593e-05  -3.1050906e-04  -4.8289835e-06   2.1743024e-05   6.5915865e-06   1.2201207e-05  -1.0360177e-05   4.4593595e-05   4.2606080e-05   3.6464614e-06   5.0430353e-05   6.9073263e-05   5.5573139e-05  -5.0818609e-05   1.3848190e-04  -2.6503671e-05   1.0002514e-05  -1.4657206e-04  -3.6185647e-05
   7.0080103e-05   1.4426082e-06   4.2219675e-05   5.9354694e-05   3.5421658e-06   3.1869855e-05   4.8570007e-05  -4.2896299e-06   1.0145299e-05   9.9074874e-05   7.6207475e-06   1.4301258e-04  -5.2891681e-07   3.2140029e-05  -2.6256652e-05   1.4978548e-05   2.8566154e-05   1.3343603e-05   7.3736235e-05  -1.0049735e-04  -5.9187500e-04  -7.2975975e-04   4.9872669e-05   1.0345162e-04  -2.9623694e-05   5.7383371e-05  -6.5042345e-06   5.8248213e-07   3.0110661e-05   7.5969656e-05   8.3251405e-05   2.7300366e-05  -3.2403544e-04   3.6302417e-06   1.3906235e-05   2.1700500e-06   9.5476680e-06   5.5963046e-06   5.1808500e-05   3.1110249e-05   1.4277776e-05   4.9774502e-05   5.6927158e-05   6.4046806e-05  -2.8245393e-05   1.7252243e-04  -2.5407444e-05   3.4217446e-05  -7.1204500e-04  -2.6071697e-04
   6.1257597e-05  -2.0265801e-05   4.9837166e-05   6.2187130e-05  -2.4183425e-06   3.6900106e-05   4.6416080e-05  -2.1202944e-05  -9.3677234e-05   1.1314988e-04  -1.7272087e-05   1.6674217e-04  -9.9257641e-06   2.9324867e-05  -2.3187078e-05   1.0051806e-05   2.2118891e-05   2.8868611e-05   7.7180790e-05  -1.0105144e-04  -5.9919199e-04  -7.1309699e-04   2.8284629e-05   9.0922047e-05  -1.3001411e-05   7.6315438e-05  -9.5248060e-06   1.6004000e-05   6.4012514e-05   1.1736707e-04   6.6422203e-05   2.5403770e-05  -3.1405559e-04   2.3840878e-06   2.0784746e-05   2.4767611e-05   2.1810143e-05  -5.4366733e-06   5.2817348e-05   7.1959519e-05   6.5438508e-05   5.1799005e-05   9.1061578e-05   6.5186636e-05  -5.1738857e-06   2.2270075e-04  -4.4904973e-05   5.9454775e-05   1.2911903e-04  -5.2267998e-05
   5.0919585e-05  -3.4049353e-05   5.9959984e-05   8.0777652e-05  -1.7052882e-06   4.0604438e-05   5.1523490e-05  -1.2368533e-05  -9.9743585e-05   1.3151678e-04  -2.7078993e-05   1.7246840e-04  -1.4387979e-06   2.5466152e-05   1.5999198e-05   1.4818950e-05   1.4488902e-05   2.8907703e-05   2.4116673e-05  -1.1022935e-04  -6.1173184e-04  -7.3155802e-04   3.3381319e-05   1.0994641e-04  -3.7627240e-06   9.6144940e-05   3.2829521e-05   3.4448029e-05   4.5829664e-05   1.2881130e-04   5.3868531e-05   3.3025623e-05  -3.2439906e-04   2.2213444e-05   6.0358627e-05   3.9812385e-05   2.3238528e-05   3.4677574e-05   3.1731292e-05   8.0258978e-05   7.8622506e-05   8.0409758e-05   7.6827579e-05   5.2217052e-05   5.8229063e-05   1.4663961e-04  -6.5749060e-05   2.9779110e-05   3.9763169e-04  -2.6573503e-04
   4.3921049e-05  -3.0092753e-05   5.7143607e-05   8.5733001e-05  -4.0022098e-07   3.6939982e-05   7.4343232e-05   6.7334690e-06  -1.7939001e-05   1.4323936e-04  -1.6951968e-05   1.6997247e-04   6.5649829e-07   3.3757478e-05   2.9300538e-05   3.4566760e-06   3.3039203e-05   5.3357639e-05  -8.2346869e-06  -1.0137642e-04  -6.0055230e-04  -7.2392251e-04   4.0218463e-05   1.1764789e-04   3.3312870e-05   9.2385388e-05   3.5355570e-05   3.3270662e-05   5.4606749e-05   1.3917405e-04   5.0904866e-05   2.5297462e-05  -2.8677323e-04   1.7921242e-05   3.5402405e-05   2.4557381e-05   2.0222929e-05  -8.3119721e-06   3.4239776e-05   5.2368032e-05   5.1353636e-05   6.9878770e-05   7.6926830e-05   3.6909576e-05  -8.8377965e-06   8.3778781e-05  -6.0373557e-05   1.9120665e-05  -8.0370953e-08  -1.1254895e-04
   3.4371184e-05  -2.9239416e-05   3.7407077e-05   7.4611227e-05  -8.3307350e-06   3.3080010e-05   5.9442813e-05  -3.6101460e-06   4.5703964e-06   1.2935713e-04  -1.9476058e-05   1.5319261e-04   3.6697436e-06   1.8347293e-05   1.2634443e-05   1.5613137e-05   1.4100817e-05   3.1384334e-05  -2.8516914e-05  -9.8824945e-05  -6.0175522e-04  -7.2452618e-04   3.2288084e-05   1.1616252e-04   1.2531432e-05   8.5220810e-05   2.3011358e-05   2.7228938e-05   4.3446817e-05   1.3034415e-04   5.5221146e-05   1.9149422e-05  -3.1709750e-04   1.1452889e-05   2.9235360e-05   2.9223809e-05   2.6242627e-05  -1.4288798e-05   4.4836299e-05   1.1660839e-04   4.6234261e-05   7.7218581e-05   8.9106026e-05   3.3738314e-05   1.6638025e-05   1.2700871e-04  -4.5630470e-05   2.5974325e-05  -2.9616553e-04  -2.0239598e-04
   5.3462209e-05  -3.1683991e-05   5.3776552e-05   7.6768200e-05  -6.9855691e-06   3.4987923e-05   7.7309021e-05  -4.4793105e-06   2.3972178e-05   1.0394036e-04  -2.0170728e-05   1.2810803e-04  -4.2379884e-06   2.6314032e-05   3.5942096e-05   1.1217669e-05   6.5995850e-06   5.3485190e-05   1.3016483e-04  -9.6114280e-05  -5.8772182e-04  -7.1096787e-04   1.5566857e-05   9.6903321e-05   3.5710549e-05   9.2352544e-05   4.3020820e-05   3.9819330e-05   2.6912321e-05   1.3592561e-04   7.0804068e-05   2.3843024e-05  -2.7048809e-04   3.4291985e-05   6.6851127e-05   3.9054616e-05   2.8749064e-05   2.4327705e-05   4.5460994e-05   7.4996991e-05   5.4894481e-05   8.6545668e-05   6.4760665e-05   2.7088379e-05   9.1825001e-05   2.3189752e-05  -3.9651797e-05   4.5255903e-05  -6.6796970e-04  -4.0267356e-04
   4.7150370e-05  -2.1098622e-05   5.0910148e-05   8.1910912e-05   3.7292009e-06   3.7991937e-05   8.0863050e-05   1.6112219e-05   2.5121938e-06   1.0212050e-04   1.2707170e-06   1.2399348e-04   8.3081050e-06   4.4173928e-05   7.1361974e-05   2.1528336e-05   2.2218253e-05   4.3648648e-05   6.9636888e-05  -9.4476774e-05  -5.8362487e-04  -6.9440278e-04   6.3511747e-05   1.0510700e-04   8.0953840e-05   8.5303604e-05   7.0377304e-05   4.9254544e-05   6.9762995e-05   1.3134477e-04   6.0113602e-05   2.3172297e-05  -2.5283819e-04   3.3427386e-05   5.9391299e-05   3.4867659e-05   1.8476854e-05   1.3189671e-05   6.0902261e-05   8.0720209e-05   4.6232137e-05   8.5439962e-05   8.4128318e-05   1.2502504e-05   1.2931623e-05   8.8936140e-05  -7.1533352e-05   2.9787969e-05  -2.1695814e-04  -2.4688785e-04
   4.9153463e-05  -2.3986269e-05   5.7650977e-05   8.8036875e-05  -1.5125960e-06   2.8441031e-05   7.6517397e-05   1.8776094e-05   4.0294253e-05   1.3461165e-04  -8.1180015e-06   1.4838987e-04  -7.8699113e-06   2.6336738e-05   5.7724334e-05   2.6493297e-05   3.0174118e-05   6.1017181e-05   5.5984012e-05  -8.6935441e-05  -5.7910138e-04  -6.9031509e-04   6.1139865e-05   1.3094768e-04   6.0435505e-05   9.3872994e-05   6.6820547e-05   3.8845974e-05   5.6994748e-05   1.3326648e-04   5.3075222e-05   2.7893286e-05  -2.6777241e-04   4.4031665e-05   6.7212794e-05   3.6107820e-05   2.5676303e-05   3.2660682e-05   6.4129381e-05   5.3521489e-05   3.7480037e-05   7.8813027e-05   8.3709892e-05   1.1701745e-05  -8.1779035e-06   1.6417971e-04  -4.0864172e-05   8.7620947e-06  -2.5815144e-04  -2.5864129e-04
   3.0560233e-05  -1.9405794e-05   3.9227387e-05   8.6263695e-05  -2.2691918e-06   3.1582473e-05   7.0588430e-05  -1.4735737e-05  -5.1231858e-05   9.7788019e-05  -6.6705202e-06   1.2214376e-04  -8.8397983e-06   3.6988917e-05   5.9668182e-05   1.4731359e-05   2.4054785e-05   4.2950378e-05   1.7016121e-04  -7.9943376e-05  -5.5879058e-04  -6.7520933e-04   6.3809035e-05   1.0321106e-04   6.0725877e-05   9.1240516e-05   8.8815381e-05   3.9452196e-05   1.0489843e-04   1.3194242e-04   7.2791285e-05   4.8231796e-05  -2.7146627e-04   5.7830755e-05   7.8680416e-05   4.7453632e-05   2.8179826e-05   2.8136858e-05   6.4948290e-05   5.8980495e-05   5.1376410e-05   8.0475351e-05   9.7174205e-05   2.3631108e-05   3.4173594e-05   1.3787713e-04  -6.8659618e-05   5.0352210e-05  -6.9415837e-04  -1.3898751e-04
   4.1690655e-05  -1.3180730e-05   5.7159566e-05   9.4910232e-05   5.3950557e-06   3.9693256e-05   8.0425634e-05  -2.5353515e-06  -8.8303983e-05   1.3398792e-04  -4.6340074e-06   1.3523243e-04  -5.1252564e-06   4.3229924e-05   1.0033539e-04   1.9484518e-05   2.5823359e-05   5.5922483e-05   1.1687252e-04  -7.3129217e-05  -5.4618524e-04  -6.5390725e-04   5.1476363e-05   9.8335484e-05   1.0318682e-04   8.2617691e-05   1.3401898e-04   6.0347749e-05   9.8499702e-05   1.2431585e-04   7.8952799e-05   4.4787790e-05  -2.3564925e-04   5.5651391e-05   9.0573812e-05   4.0895189e-05   2.7294423e-05   2.1610696e-05   5.2733067e-05   6.3148604e-05   3.1309803e-05   8.6114167e-05   1.0692108e-04   2.6161326e-06   5.7809320e-05   1.0340557e-04  -3.5763976e-05   4.1382293e-05  -2.9000707e-04  -4.6239526e-05
   3.9776980e-05  -5.5643768e-06   5.3039617e-05   8.5304979e-05  -7.0788036e-07   3.1321892e-05   8.5176624e-05   1.0320348e-05  -5.3211148e-05   1.3321961e-04   1.0411863e-05   1.3808746e-04  -6.2487820e-06   3.4949113e-05   8.1961203e-05   2.2797931e-05   3.1700063e-05   5.5111490e-05   1.3377087e-04  -7.6183649e-05  -5.2607979e-04  -6.4989045e-04   4.5074139e-05   1.1677045e-04   6.9193840e-05   8.3388215e-05   1.1302280e-04   3.7266145e-05   7.0613816e-05   1.1567828e-04   9.4521944e-05   5.1656050e-05  -2.1535529e-04   5.6373196e-05   5.9995029e-05   4.8065409e-05   2.4315545e-05   1.5557745e-05   6.8727764e-05   4.1740248e-05   6.9241803e-05   6.5334199e-05   7.7370802e-05   1.3295026e-05   1.9238039e-05   9.0816720e-05  -3.6878962e-05   4.3345288e-05  -9.7899901e-05  -3.8659028e-04
   5.6976649e-05  -4.0985958e-07   4.7755075e-05   8.4216539e-05   3.3664410e-06   3.4470515e-05   6.3772866e-05  -6.9964112e-06  -1.3406166e-04   1.0768944e-04  -2.9256803e-06   1.3849561e-04  -6.9216308e-06   4.0526142e-05   7.6895696e-05   1.7783390e-05   3.1784362e-05   5.7888552e-05   9.8648066e-05  -6.9344518e-05  -5.1352096e-04  -6.2914228e-04   4.6005542e-05   1.3238596e-04   7.4933560e-05   8.8969464e-05   1.2009175e-04   5.0554267e-05   1.0775012e-04   1.2207912e-04   1.0754890e-04   4.9693255e-05  -2.3163264e-04   6.4076827e-05   7.7561330e-05   4.6933779e-05   2.1713589e-05   2.3357969e-05   4.3932920e-05   6.6249770e-05   4.3577049e-05   7.7754223e-05   7.8844445e-05  -2.1480268e-05   7.2156297e-05   4.9884209e-05  -3.6803449e-05   6.8167261e-05  -4.6819132e-05  -3.9778763e-04
   5.9404327e-05   7.8681569e-06   6.5485459e-05   7.6643068e-05   7.2591197e-06   3.6439724e-05   7.1686045e-05   1.1769462e-05  -4.7558260e-05   1.1167437e-04   1.2182013e-05   1.3528056e-04  -7.8999909e-07   4.8766142e-05   1.0009430e-04   1.5833188e-05   3.0802730e-05   6.6810528e-05   7.1955183e-05  -6.4234249e-05  -5.0440012e-04  -6.1767694e-04   5.3608597e-05   1.1192610e-04   1.0487160e-04   9.4734794e-05   1.1237607e-04   6.0375813e-05   1.0480354e-04   1.2131590e-04   1.2316495e-04   6.6629284e-05  -2.0289481e-04   5.7639685e-05   8.6552704e-05   4.7938804e-05   1.2644160e-05   1.1289198e-05   6.5587330e-05   4.2015483e-05   5.6704066e-05   7.4784977e-05   8.4601590e-05  -6.8242598e-06   5.9397455e-05   1.6472883e-04  -3.4468583e-05   5.4386204e-05   6.6969274e-05  -1.0256885e-04
   5.3402309e-05   1.1937298e-05   6.8854984e-05   8.4296567e-05   1.2776572e-05   3.2994263e-05   7.1075992e-05   1.1538917e-05  -5.5403674e-05   1.1591513e-04   2.0411602e-05   1.5848027e-04  -9.5892187e-07   4.0502422e-05   1.0295046e-04   1.9252937e-05   3.9003484e-05   5.1028423e-05   2.0561428e-04  -6.0691862e-05  -5.0302735e-04  -6.1241788e-04   4.2495609e-05   1.2094301e-04   1.2416831e-04   7.3925017e-05   1.1627546e-04   5.8243775e-05   8.9770605e-05   1.3520198e-04   1.1287833e-04   5.1331033e-05  -2.1685983e-04   4.7562095e-05   7.6733289e-05   2.6332704e-05   1.7041852e-05   2.9306275e-05   6.1152648e-05   5.7523579e-05   8.6204513e-05   7.5341879e-05   1.0037007e-04  -2.2953569e-05   4.6704608e-05   1.0983798e-04  -4.0940864e-05   3.0625157e-05  -1.9049495e-04  -5.9316495e-05
   4.8670103e-05   5.9841577e-06   6.8585134e-05   8.6002263e-05   1.2650200e-05   4.4163644e-05   6.3973916e-05   2.0494412e-05   7.7830657e-05   1.2379758e-04   6.6512857e-06   1.6254780e-04   9.9994386e-06   4.7341873e-05   1.0577898e-04   2.6357964e-05   4.0968021e-05   5.5677498e-05  -3.1368323e-05  -5.6056982e-05  -4.8976933e-04  -6.1205879e-04   7.9894009e-05   1.1751104e-04   1.1158363e-04   8.3907929e-05   8.9682027e-05   5.3257423e-05   9.1874565e-05   1.2452896e-04   1.0125692e-04   5.9335605e-05  -2.1791492e-04   4.1014082e-05   9.2892158e-05   3.1066527e-05   2.6607180e-05   6.2025429e-05   6.9860878e-05   2.6743668e-05   3.9247469e-05   8.0146812e-05   1.1194513e-04  -2.3112654e-05   8.1304614e-05   9.3609553e-05  -5.3202770e-05   1.0501718e-04  -1.9657391e-05  -1.0445627e-04
   4.2700005e-05   6.7913807e-06   7.9083096e-05   9.3665083e-05   9.6779013e-06   4.8573922e-05   8.7826105e-05   3.4703466e-05  -1.5634012e-05   1.1616272e-04   1.5615966e-07   1.4666183e-04   5.9465033e-06   6.1888677e-05   1.3040511e-04   3.2383366e-05   3.6457208e-05   8.5831598e-05   1.1566578e-04  -5.6034994e-05  -4.9056788e-04  -6.0320692e-04   6.3157480e-05   1.1360539e-04   1.5104638e-04   8.9972760e-05   1.6020348e-04   6.9580448e-05   1.2326664e-04   1.2415751e-04   1.1101931e-04   7.2271047e-05  -2.1869854e-04   6.8570858e-05   1.1414635e-04   5.2095722e-05   2.4825476e-05   5.0455004e-05   8.2518709e-05   6.6776833e-05   9.3435920e-05   8.8717548e-05   9.3581206e-05  -1.7984794e-05   4.4931432e-05   1.5740516e-04  -3.8940514e-05   6.6267916e-05  -4.8089024e-04  -2.5768322e-04
   8.0903250e-05   1.3039519e-05   6.0566410e-05   8.9624227e-05   1.0022583e-05   4.0539366e-05   7.2606206e-05   3.8067530e-05  -8.8833423e-07   1.1626110e-04   1.8904311e-05   1.5415420e-04   2.4834558e-06   5.7853216e-05   1.5034236e-04   3.9805462e-05   4.7901871e-05   7.2291339e-05   3.5500559e-06  -5.7169982e-05  -4.7842716e-04  -5.9413660e-04   9.0259280e-05   1.4069454e-04   1.5435342e-04   9.8136275e-05   1.7829982e-04   6.1962113e-05   1.3395291e-04   1.3342760e-04   1.2606521e-04   5.9051807e-05  -1.9486521e-04   5.4992710e-05   1.1513801e-04   4.2265063e-05   3.6758134e-05   3.9746326e-05   1.0572067e-04   4.5578130e-05   6.2899548e-05   7.6998796e-05   9.2230955e-05  -1.4251101e-05   2.4837575e-05   9.7186443e-05  -1.9110963e-05   6.7828842e-05  -8.1027369e-04  -1.8034753e-04
   3.5318331e-05   1.1153352e-05   7.0888869e-05   9.3208073e-05   2.1886923e-05   5.2818374e-05   7.6407465e-05   1.3195553e-05   2.1305790e-05   1.1832067e-04   1.4680051e-05   1.6495239e-04   1.4913880e-05   6.8055357e-05   1.4871394e-04   3.7982958e-05   4.8931593e-05   7.0326343e-05  -2.3321950e-06  -5.4806020e-05  -4.8173490e-04  -5.9256598e-04   8.3513383e-05   1.4065366e-04   1.3458679e-04   1.0383803e-04   1.6303986e-04   6.9692025e-05   1.3550110e-04   1.4696103e-04   1.2154548e-04   6.6602806e-05  -2.0702390e-04   5.2466577e-05   1.2933090e-04   5.4915028e-05   4.0893268e-05   6.1834537e-05   7.4520016e-05   8.0814316e-05   9.3318486e-05   8.6183347e-05   9.9745492e-05  -3.3086468e-05   2.7986039e-07   1.2594851e-04  -4.0680465e-05   9.3262599e-05  -3.8374800e-04  -9.1645903e-05
   6.7451227e-05   9.9427616e-06   6.6931585e-05   9.8109085e-05   2.0051019e-05   5.3422002e-05   9.5382748e-05   1.7065571e-05   1.4622677e-04   1.5010772e-04   7.4632339e-06   1.5490197e-04   2.1320750e-05   6.6580862e-05   1.6720720e-04   4.1265976e-05   4.8012887e-05   7.3473464e-05   7.0194852e-05  -5.2278050e-05  -4.7793347e-04  -5.7483837e-04   9.1387337e-05   1.2028762e-04   1.7380490e-04   1.0018243e-04   1.9090666e-04   8.0492326e-05   1.0311735e-04   1.4020421e-04   1.0562222e-04   6.6345972e-05  -1.9058323e-04   6.9817899e-05   1.1819181e-04   7.1360140e-05   2.7965223e-05   4.9554656e-05   9.9531535e-05   4.4463854e-05   8.2595776e-05   9.4917770e-05   1.0078063e-04  -1.6884440e-05   7.9464335e-05   1.2331412e-04  -3.2273034e-05   6.1392057e-05   1.0100234e-04  -1.2517185e-04
   6.1107305e-05   2.0473473e-05   8.5681415e-05   1.0843294e-04   2.4216055e-05   6.5874832e-05   9.0471527e-05   2.8800503e-05   9.8890205e-06   1.4166829e-04   1.6159001e-05   1.7413027e-04   1.4059725e-05   6.9756577e-05   1.9164733e-04   5.2812527e-05   4.4125951e-05   7.4687283e-05   9.0733745e-05  -5.7267593e-05  -4.6158626e-04  -5.6422618e-04   7.8221834e-05   1.4197554e-04   1.8346617e-04   1.0128026e-04   1.8509677e-04   8.1792154e-05   1.0194062e-04   1.4319085e-04   1.2969770e-04   6.8034213e-05  -1.8260897e-04   6.0924503e-05   1.2534870e-04   5.9243554e-05   1.8028672e-05   4.4325505e-05   9.6534735e-05   5.7973844e-05   8.1271341e-05   8.8973866e-05   1.0165828e-04  -2.3632041e-05   1.5510964e-04   9.7835014e-05  -3.8278693e-05   6.3169064e-05  -3.0293423e-04  -3.6188986e-04
   8.1192877e-05   1.1566876e-05   7.0693291e-05   9.9987585e-05   1.4781665e-05   6.0813953e-05   8.1088394e-05   4.9182403e-05   7.3221097e-05   1.2603750e-04   8.3876348e-06   1.5621091e-04   1.3712109e-05   7.4658339e-05   1.7660002e-04   4.1017760e-05   5.0209448e-05   6.1495935e-05  -6.3155494e-05  -4.4726396e-05  -4.6704532e-04  -5.6019350e-04   7.2712188e-05   1.5386046e-04   1.7078403e-04   1.0564243e-04   1.6391286e-04   7.5109601e-05   1.4853982e-04   1.5179916e-04   1.2774661e-04   7.3604220e-05  -1.9411821e-04   7.1544338e-05   1.3323718e-04   6.2198524e-05   2.8411641e-05   6.3139327e-05   8.5039181e-05   6.0534894e-05   1.1095424e-04   7.4812400e-05   1.1207034e-04  -3.8888687e-05   1.0070383e-05   1.4258457e-04  -3.9509789e-05   6.3304215e-05  -7.8632795e-05  -4.2137879e-04
   6.3379535e-05   6.2737463e-06   8.7765817e-05   1.0781694e-04   1.7712322e-05   6.4860309e-05   1.1219329e-04   4.7688613e-05  -2.6630480e-05   1.3646654e-04  -7.4622999e-06   1.7427612e-04   2.6176431e-05   8.5958782e-05   1.9462944e-04   4.9876224e-05   5.7563142e-05   9.1039750e-05   1.4018665e-04  -4.2246749e-05  -4.5848827e-04  -5.5824185e-04   8.7623084e-05   1.4573801e-04   1.9183982e-04   1.0897766e-04   1.9295308e-04   9.2755545e-05   1.7144340e-04   1.6644868e-04   1.5263753e-04   7.7992285e-05  -1.9636085e-04   5.6794201e-05   1.4601908e-04   5.7816254e-05   3.8988597e-05   5.3759082e-05   8.1761566e-05   5.5352437e-05   1.0330969e-04   8.0020283e-05   1.3914489e-04  -2.2085531e-05   6.3762724e-05   2.2547247e-04  -3.6353569e-05   9.6178643e-05  -3.2265953e-04  -1.7502248e-04
   7.4025433e-05   1.2267600e-05   9.3274466e-05   1.0664989e-04   1.9456193e-05   6.8735324e-05   1.1493831e-04   5.5247474e-05   1.2171670e-04   1.5768445e-04   1.2416432e-05   1.7396927e-04   2.5609372e-05   8.6871747e-05   2.4050164e-04   5.5067543e-05   4.7634803e-05   9.4422139e-05   5.8393536e-05  -3.4359851e-05  -4.4468074e-04  -5.5145810e-04   9.6787553e-05   1.4310057e-04   2.4034403e-04   1.0828603e-04   2.0348773e-04   1.0799051e-04   1.7877073e-04   1.6646089e-04   1.2361155e-04   6.3766274e-05  -1.8721103e-04   5.4130953e-05   1.3170540e-04   5.4986122e-05   4.1157204e-05   4.8275429e-05   7.4073338e-05   7.5312499e-05   1.0807977e-04   9.2129252e-05   1.4328942e-04  -2.9310106e-06   3.9336552e-05   1.2190206e-04  -2.0434503e-05   7.2457246e-05  -3.3418203e-04  -1.9805529e-04
   8.1236067e-05   1.1191547e-05   6.7171371e-05   1.1403064e-04   1.5155562e-05   7.4956159e-05   1.0557944e-04   3.2681390e-05   3.1587304e-05   1.3768928e-04   2.6121012e-07   1.7519781e-04   2.2620970e-05   8.3364583e-05   2.1092479e-04   4.9610655e-05   5.0176557e-05   7.9382284e-05  -4.1968382e-05  -3.6562822e-05  -4.4860254e-04  -5.4239674e-04   7.0028604e-05   1.6896920e-04   2.0229997e-04   1.1612441e-04   2.0786410e-04   9.3561510e-05   1.8312394e-04   1.7661323e-04   1.1233480e-04   6.9587368e-05  -1.9443182e-04   3.6486541e-05   1.3592375e-04   6.2132298e-05   4.0354986e-05   7.6060707e-05   8.1428188e-05   8.7589127e-05   1.2704114e-04   9.7680568e-05   1.4057415e-04  -3.4270459e-05   7.2953007e-05   1.7147971e-04  -3.1624317e-05   6.0793907e-05   1.3828045e-04  -9.0970621e-05
   7.1111921e-05   4.0337909e-06   8.0019199e-05   1.0843646e-04   1.0309782e-05   6.9450507e-05   1.0601082e-04   3.7712518e-05   4.6056946e-05   1.3426525e-04  -6.5804661e-06   1.6009474e-04   3.6471196e-05   9.4569696e-05   2.1244022e-04   5.5119712e-05   5.8741072e-05   8.4346721e-05   6.9596739e-05  -3.4693756e-05  -4.4475900e-04  -5.3554255e-04   1.0042322e-04   1.1943131e-04   1.9642347e-04   1.1677320e-04   1.9917008e-04   1.0735512e-04   2.0398131e-04   1.7795013e-04   1.4398922e-04   6.1466664e-05  -1.8964290e-04   6.8444766e-05   1.5361782e-04   6.7189852e-05   3.9521750e-05   7.7336968e-05   7.9789519e-05   8.9842986e-05   1.1867668e-04   9.1354697e-05   1.4321195e-04  -1.1547740e-05   2.5524791e-05   9.8071643e-05  -2.9592053e-05   9.8477925e-05  -8.3962688e-04  -3.7288931e-04
   6.4108383e-05   1.3537075e-05   8.9455229e-05   1.1309512e-04   1.9677418e-05   7.8414101e-05   1.2484050e-04   6.9489652e-05   3.8871767e-05   1.5322656e-04  -1.1013592e-06   1.6992338e-04   4.1069517e-05   8.9008558e-05   2.4871185e-04   7.3932497e-05   6.0843180e-05   9.1298658e-05   6.7710644e-05  -3.4592485e-05  -4.4348871e-04  -5.0434330e-04   1.2133719e-04   1.4427680e-04   2.4907783e-04   1.0899738e-04   2.1628547e-04   1.1661324e-04   1.3479474e-04   1.7558136e-04   1.1653588e-04   7.7583674e-05  -1.5069316e-04   6.8218411e-05   1.8283172e-04   7.5316952e-05   4.6632438e-05   7.3887044e-05   1.2037819e-04   8.6253458e-05   1.1230357e-04   1.0685372e-04   1.3890318e-04  -1.7313647e-05   8.2522638e-05   1.4502031e-04  -5.8424313e-05   6.5052991e-05   1.1084173e-04  -2.6927114e-04
   9.7633434e-05   1.5414973e-05   8.7873079e-05   1.2012763e-04   1.5580023e-05   7.6930621e-05   1.2354793e-04   3.7724258e-05  -1.0604684e-05   1.6466019e-04  -8.2774483e-07   1.7949044e-04   3.4270393e-05   8.2884893e-05   2.1579300e-04   5.3319029e-05   5.9866801e-05   8.6639157e-05   8.7554712e-05  -2.4923318e-05  -4.3315775e-04  -5.1139377e-04   9.6956763e-05   1.7822742e-04   1.9748301e-04   1.3162463e-04   2.1019211e-04   1.0161877e-04   1.5834979e-04   1.6860182e-04   1.1730612e-04   7.9492129e-05  -1.7066952e-04   4.5368452e-05   1.4057859e-04   6.7097957e-05   4.0730360e-05   7.4720796e-05   1.3176634e-04   5.0279992e-05   1.3203328e-04   1.0659832e-04   1.2000973e-04  -1.4756450e-05   5.0688330e-05   5.9799095e-05  -8.6649543e-06   1.0296206e-04  -4.1571015e-04  -4.1255109e-05
   7.6943921e-05   9.8889795e-06   7.7856457e-05   1.1577727e-04   1.2968578e-05   8.4331725e-05   1.2857963e-04   5.7477566e-05  -2.6379483e-05   1.5503071e-04  -1.2008625e-05   1.7443004e-04   3.2415453e-05   8.4472893e-05   2.0566644e-04   5.8973561e-05   5.8504251e-05   9.9671757e-05  -1.9990228e-05  -3.4209581e-05  -4.3221292e-04  -5.0331507e-04   8.6328422e-05   1.4944261e-04   1.8837117e-04   1.3519957e-04   2.0717752e-04   9.8268880e-05   1.5723908e-04   1.8137401e-04   1.1506067e-04   7.7803932e-05  -1.6576397e-04   5.9172715e-05   1.5222625e-04   7.1101545e-05   5.4515556e-05   5.6422810e-05   1.0716954e-04   6.5782035e-05   1.5829100e-04   9.8439989e-05   1.4894045e-04   7.7256045e-06   2.7424085e-05   1.6475082e-04  -4.2347219e-05   1.2026625e-04   1.2380401e-04  -2.7052430e-04
   9.5286276e-05   7.6876186e-06   1.0280598e-04   1.2536105e-04   1.8311301e-05   8.1431324e-05   1.2816221e-04   6.6276465e-05   4.8398986e-05   1.5673603e-04  -2.3216424e-05   1.8150416e-04   3.6917696e-05   9.7440781e-05   2.4275805e-04   5.9103582e-05   5.6787729e-05   8.8874760e-05   2.0662117e-05  -2.7351063e-05  -4.2497198e-04  -4.9211917e-04   1.2124769e-04   1.6469337e-04   2.4555967e-04   1.2424613e-04   2.2440118e-04   1.1816435e-04   1.8750827e-04   1.8422493e-04   1.5107611e-04   9.7473101e-05  -1.5798589e-04   7.3613774e-05   1.5846195e-04   6.8868198e-05   3.6905072e-05   5.5015516e-05   1.1327276e-04   9.7013479e-05   1.4635897e-04   1.0613829e-04   1.7231645e-04  -1.1889398e-05   1.2829535e-06   1.8437709e-04  -4.1403018e-05   8.6819287e-05  -5.4306316e-04  -3.9284883e-04
   9.1194801e-05   1.2894924e-05   9.4845491e-05   1.2369541e-04   1.4696222e-05   8.4551401e-05   1.3938735e-04   5.2634037e-05   7.4643016e-05   1.7180273e-04  -1.8365961e-05   2.0462176e-04   2.8486678e-05   9.7151977e-05   2.0815451e-04   5.9742710e-05   6.2001563e-05   9.7733537e-05   7.6011689e-05  -3.3606015e-05  -4.2974780e-04  -4.8605882e-04   1.0711350e-04   1.6988620e-04   1.9210159e-04   1.3236533e-04   2.1606755e-04   1.0162526e-04   1.6749356e-04   1.9434339e-04   1.4014397e-04   7.2644929e-05  -1.7382203e-04   4.7144415e-05   1.4261107e-04   7.7620592e-05   6.3996835e-05   8.2709870e-05   1.0783651e-04   8.7310822e-05   1.3268231e-04   1.1567511e-04   1.5847891e-04   1.6270477e-06   5.7620844e-05   1.2157195e-04  -3.8076218e-05   9.7383687e-05  -3.7216622e-04  -1.4675410e-04
   7.4692551e-05   4.1463736e-06   8.4924592e-05   1.3212311e-04   2.0493488e-05   8.8456931e-05   1.3856875e-04   7.2153620e-05   3.5166886e-05   1.5825187e-04  -3.0378947e-05   1.8646018e-04   3.5182951e-05   1.1059343e-04   1.9981991e-04   4.9087110e-05   5.7870162e-05   9.1030204e-05   3.7623984e-05  -2.5745421e-05  -4.3323252e-04  -4.9070828e-04   1.3996406e-04   1.5536208e-04   1.9345687e-04   1.3718021e-04   2.0974240e-04   1.0199821e-04   1.5934728e-04   1.9830061e-04   1.5416446e-04   7.0032234e-05  -1.7241524e-04   3.4955461e-05   1.5333893e-04   8.9229405e-05   5.6141787e-05   7.4466159e-05   1.0368736e-04   1.1382683e-04   1.5747172e-04   1.1443931e-04   1.6412267e-04   1.5295051e-05   3.9758823e-05   1.5281751e-04  -2.8477551e-05   1.1425622e-04  -1.8411178e-04  -3.7442619e-04
   8.4018990e-05   6.6466196e-06   9.1622649e-05   1.2693139e-04   2.0082689e-05   9.2707087e-05   1.2454372e-04   7.0536276e-05  -5.7311836e-06   1.8662070e-04  -2.6482665e-05   1.8642166e-04   4.4729659e-05   1.0092068e-04   2.2555653e-04   6.5253829e-05   6.9505993e-05   9.7215277e-05   3.8189010e-05  -2.4012414e-05  -4.2434738e-04  -4.6899394e-04   9.6402269e-05   1.5229393e-04   2.2386797e-04   1.3609085e-04   2.4031421e-04   1.1633844e-04   1.7249279e-04   2.0780692e-04   1.8447079e-04   8.2434584e-05  -1.6927671e-04   4.3780612e-05   1.5764812e-04   7.8006458e-05   6.6753608e-05   7.9032376e-05   1.3006618e-04   8.5800355e-05   1.4888130e-04   9.6160707e-05   1.6280897e-04  -6.3740135e-06   3.1408650e-05   1.9751335e-04  -2.5020336e-05   7.6914563e-05  -9.7870582e-04  -5.0562428e-04
   8.0956292e-05   1.9324694e-05   7.7792924e-05   1.3199370e-04   1.6446696e-05   8.6376829e-05   1.3491513e-04   6.9502421e-05   6.8002919e-05   1.5744151e-04  -5.7175339e-06   1.9150805e-04   2.8866323e-05   9.5796779e-05   2.0367856e-04   6.4325468e-05   5.7103181e-05   8.7718108e-05  -3.9397764e-05  -2.6704543e-05  -4.1279956e-04  -4.6695326e-04   1.0169837e-04   1.4772604e-04   1.8891765e-04   1.4689399e-04   2.2173431e-04   9.2865972e-05   1.3062148e-04   1.8547486e-04   1.3663316e-04   7.7250224e-05  -1.9039933e-04   2.4519633e-05   1.3304944e-04   6.5448643e-05   4.2508807e-05   7.5213211e-05   1.4256925e-04   8.1566897e-05   1.4289131e-04   1.1137634e-04   1.8177475e-04   1.4541356e-05   8.8684965e-06   8.7545384e-05  -3.6555262e-05   9.0306901e-05  -3.2464279e-05  -2.0094507e-04
   7.6678982e-05   2.0511488e-05   8.1059523e-05   1.2790557e-04   1.5782676e-05   7.4845753e-05   1.2829754e-04   5.0001883e-05   1.4665829e-05   1.4746601e-04  -4.2664687e-06   1.6840306e-04   3.5465782e-05   9.2692746e-05   1.8213912e-04   5.8296042e-05   3.9411927e-05   7.1098359e-05   7.6146493e-06  -2.8933406e-05  -4.1309863e-04  -4.6155788e-04   9.0211513e-05   1.5706761e-04   1.7165512e-04   1.2699245e-04   1.7760636e-04   9.3403221e-05   1.5424799e-04   1.8382276e-04   1.2302971e-04   7.2180548e-05  -1.6587586e-04   2.2827651e-05   1.4460433e-04   7.5544740e-05   6.6887085e-05   7.5369811e-05   1.3289458e-04   8.2610401e-05   1.6431476e-04   1.1579122e-04   1.3296641e-04  -1.5176548e-05   2.8261131e-05   7.6584867e-05  -4.0444505e-05   9.7616219e-05   3.1989093e-05  -2.2939907e-04
   7.1000111e-05   2.4153316e-05   8.2645893e-05   1.2625012e-04   2.4071500e-05   7.9079029e-05   1.0882141e-04   5.0929615e-05   8.5669388e-05   1.3684831e-04  -2.2516681e-06   1.5332195e-04   4.5286710e-05   9.7851116e-05   1.8802036e-04   6.3498635e-05   5.4178116e-05   9.6874734e-05   7.0663242e-05  -2.6842998e-05  -3.9486215e-04  -4.4482609e-04   8.6191299e-05   1.2744285e-04   1.8682682e-04   1.0440995e-04   2.1329614e-04   1.0575690e-04   1.3945608e-04   1.6927496e-04   1.5761853e-04   7.0863927e-05  -1.6637573e-04   2.3368733e-05   1.4639471e-04   7.7595767e-05   4.7144233e-05   7.5994765e-05   1.2451150e-04   7.7214878e-05   1.5181185e-04   1.2557862e-04   1.4949837e-04  -2.7534943e-05   7.2104383e-05   8.0972226e-05  -1.9660283e-05   6.6065113e-05  -2.2469432e-04   2.1461963e-05
   8.1886705e-05   2.8164875e-05   8.3282241e-05   1.1586623e-04   1.8413244e-05   7.5454744e-05   1.1718246e-04   5.4032465e-05   7.8995563e-06   1.2993909e-04   1.2208166e-05   1.5579317e-04   4.3100834e-05   8.3964733e-05   1.6373060e-04   5.7600500e-05   5.4123841e-05   7.4059746e-05   3.6658646e-06  -1.7807311e-05  -3.8480276e-04  -4.4887728e-04   9.3883617e-05   1.5068105e-04   1.5277235e-04   1.1991005e-04   1.8446392e-04   7.4554249e-05   1.4997397e-04   1.4706700e-04   1.1143611e-04   7.2519390e-05  -2.0485415e-04   5.3571312e-06   9.7097822e-05   7.3744370e-05   4.5776116e-05   5.4608878e-05   1.0157680e-04   4.4309185e-05   1.2964490e-04   1.1038160e-04   1.3219408e-04  -1.6514765e-05   3.9361126e-05   1.0256853e-04  -1.2861092e-05   2.2844037e-05  -4.7889672e-04  -2.2472301e-04
   8.6646549e-05   3.0386980e-05   8.9916459e-05   1.1674334e-04   1.5567222e-05   7.8107034e-05   1.1218008e-04   4.9097802e-05   6.7695451e-05   1.0545231e-04   6.1009441e-06   1.4509031e-04   4.9951796e-05   7.6378492e-05   1.4050739e-04   4.8921091e-05   6.1280494e-05   8.8103247e-05   8.9225034e-07  -2.6994709e-05  -3.9018720e-04  -4.5279390e-04   7.4155279e-05   1.3662117e-04   1.5180670e-04   1.2051841e-04   1.6860607e-04   7.3477931e-05   1.4512567e-04   1.4328220e-04   1.3243535e-04   6.2133011e-05  -1.8857908e-04  -8.3094847e-06   1.0578724e-04   7.8286765e-05   5.0769257e-05   5.2803465e-05   1.1130741e-04   3.2377742e-05   1.2268241e-04   1.0825662e-04   1.0025626e-04  -2.7100506e-05   5.7255156e-06  -6.1644018e-06  -2.1138585e-05   8.6800675e-05  -1.5121711e-04  -2.1044830e-04
   8.7041990e-05   2.6029173e-05   9.5667558e-05   1.1364786e-04   2.7053728e-05   8.2573286e-05   1.2446054e-04   5.4650707e-05   9.8996818e-05   1.1303812e-04  -8.4023554e-07   1.4994154e-04   5.6229743e-05   8.8851477e-05   1.4087203e-04   5.6001452e-05   5.3998465e-05   8.3363215e-05  -1.6176284e-05  -3.5640209e-05  -3.8298531e-04  -4.3938271e-04   7.2602335e-05   1.2659126e-04   1.4578606e-04   1.2667390e-04   1.8617390e-04   8.4007930e-05   1.3174846e-04   1.5679121e-04   1.2331177e-04   8.0444763e-05  -1.9887842e-04  -1.3259511e-05   9.7268479e-05   7.6148463e-05   3.8328180e-05   5.9885788e-05   1.0334837e-04   5.3665892e-05   1.3609610e-04   1.1554633e-04   1.2684932e-04  -3.3608547e-05  -2.7757276e-05  -2.7343467e-05  -2.9547300e-05   4.8440077e-05  -1.8830695e-04  -3.2121671e-04
   7.2061288e-05   3.3484786e-05   8.2410857e-05   1.0704228e-04   2.1098291e-05   6.7740708e-05   8.9344096e-05   5.2444910e-05   2.2562057e-05   1.1959151e-04   1.0827783e-05   1.6614686e-04   4.4081196e-05   7.6751239e-05   1.3199057e-04   5.4523556e-05   5.7466470e-05   6.5912878e-05   1.3757794e-05  -2.9242232e-05  -3.7305785e-04  -4.3192279e-04   5.4887962e-05   1.5809068e-04   1.2000906e-04   1.1533865e-04   1.5261112e-04   6.8504320e-05   1.7619504e-04   1.4946934e-04   8.2140672e-05   5.9121561e-05  -1.8776367e-04  -2.5448368e-05   8.7369022e-05   6.7935194e-05   4.0843861e-05   6.6705215e-05   1.2340391e-04   5.7763245e-05   1.1741412e-04   1.1510191e-04   1.0873497e-04  -2.8150913e-05   7.5349257e-05   5.5547036e-05  -4.8233404e-05   6.1758808e-05  -1.1623861e-04  -2.8082472e-04
   7.5024611e-05   3.5772642e-05   7.0380789e-05   1.0481778e-04   1.9604284e-05   6.9818489e-05   9.2858718e-05   7.1464186e-05  -8.3511935e-05   1.0609109e-04   2.9314501e-06   1.4456961e-04   5.0720435e-05   7.9146965e-05   8.1226244e-05   5.0006442e-05   5.2805703e-05   7.8893310e-05  -7.9802330e-06  -2.3835184e-05  -3.6808135e-04  -4.3160157e-04   9.2595837e-05   1.2289721e-04   8.6542030e-05   1.0681659e-04   1.0850220e-04   6.0346258e-05   1.7027852e-04   1.5705111e-04   1.2425448e-04   6.2235675e-05  -2.0512096e-04  -2.4906007e-05   6.6102926e-05   5.7753667e-05   1.9520179e-05   7.0814262e-05   8.1256898e-05   5.2427364e-05   1.2858605e-04   1.0926064e-04   1.1460495e-04  -1.5611497e-05   3.9153724e-06   2.0257454e-05  -4.5511413e-05   8.1000057e-05   5.4372569e-05  -2.0204323e-04
   6.8002169e-05   3.0123969e-05   8.7311775e-05   1.0533367e-04   2.3596169e-05   6.6377659e-05   1.0100204e-04   6.4652202e-05   6.5964770e-05   9.2686780e-05  -4.0445125e-06   1.3645126e-04   4.5633969e-05   7.6645127e-05   9.3285023e-05   5.7862249e-05   6.6858855e-05   7.3198942e-05  -5.4072552e-05  -2.8653685e-05  -3.7533054e-04  -4.3032088e-04   5.6136283e-05   1.2738274e-04   9.0723297e-05   1.1641121e-04   1.4532442e-04   6.4849817e-05   1.1530919e-04   1.5222066e-04   1.1514029e-04   6.1489758e-05  -2.0422705e-04  -2.0683701e-05   7.9566329e-05   6.2149404e-05   3.9109207e-05   5.8894126e-05   9.4494804e-05   4.0663603e-05   1.2182869e-04   1.0890164e-04   1.5757198e-04  -6.9257076e-06   3.0834955e-05   1.9590349e-05  -3.8620423e-05   4.2258758e-05  -6.5072063e-06  -2.5387839e-04
   8.8581161e-05   3.5592046e-05   7.4664313e-05   1.1068959e-04   2.4515961e-05   7.3740426e-05   1.1204490e-04   5.8155525e-05   4.1814932e-05   9.8347242e-05   1.0137777e-05   1.4301199e-04   5.5735003e-05   7.2361931e-05   9.2584472e-05   6.1326537e-05   5.1920877e-05   1.0124216e-04  -1.5768821e-05  -1.3422358e-05  -3.6446576e-04  -4.0910117e-04   7.1671333e-05   1.4451414e-04   9.9313547e-05   1.2081575e-04   1.2459874e-04   5.7926267e-05   1.0472777e-04   1.4767502e-04   9.0487869e-05   4.8444988e-05  -1.6407504e-04  -3.1617794e-05   6.9912603e-05   6.0418224e-05   2.9835044e-05   5.1299412e-05   1.1475013e-04   4.0489500e-05   1.3201310e-04   1.0348939e-04   1.2277612e-04  -4.6333851e-05   1.5644225e-06   1.0328426e-05  -4.2683139e-05   5.5421868e-05  -3.8501873e-04  -2.0186811e-04
   7.1962728e-05   3.4181667e-05   8.0044279e-05   9.7040836e-05   2.6918920e-05   6.7221015e-05   1.0665646e-04   3.3005963e-05  -1.1612738e-04   9.1232614e-05   2.2242082e-06   1.5291679e-04   5.5178989e-05   6.7033638e-05   6.5660257e-05   4.6995872e-05   5.0980074e-05   1.0305114e-04   1.6705100e-05  -2.6976686e-05  -3.5789065e-04  -4.1072344e-04   3.8460799e-05   1.2867383e-04   7.8395344e-05   1.1677756e-04   1.1273724e-04   5.7298650e-05   1.0504844e-04   1.4009149e-04   6.1212035e-05   3.6659832e-05  -1.9361272e-04  -3.3860877e-05   6.5852837e-05   4.9003484e-05   3.4062145e-05   6.7879781e-05   7.5411626e-05   4.1616895e-05   9.6697258e-05   1.1636580e-04   8.4002633e-05  -1.1146521e-05   3.4697237e-05   1.3146846e-04  -3.1129344e-05   1.0463819e-04  -2.7096350e-04  -3.3487598e-04
   8.1464954e-05   3.4853096e-05   1.0403598e-04   1.0974071e-04   1.9099140e-05   6.2717620e-05   9.4048301e-05   3.2857195e-05  -3.8053844e-05   9.6521435e-05   3.0255358e-06   1.3701306e-04   5.5105764e-05   6.6068700e-05   6.9976544e-05   5.7560614e-05   5.1404113e-05   7.2740149e-05  -3.8610109e-05  -2.0413718e-05  -3.5799469e-04  -3.9766822e-04   5.8851281e-05   1.4319101e-04   8.9870191e-05   1.0796217e-04   1.4061473e-04   6.8549991e-05   1.3537897e-04   1.4881867e-04   9.2001486e-05   6.1231105e-05  -1.5960843e-04  -2.9726181e-05   7.2818577e-05   4.5558765e-05   3.8729941e-05   5.7480713e-05   9.9578821e-05   3.3961260e-05   1.2114289e-04   1.1333604e-04   1.1497654e-04  -3.1174142e-05  -5.2810274e-06  -1.4281642e-05  -3.9392769e-05   6.4310494e-05   2.3722831e-05  -1.3539725e-04
   8.9619891e-05   3.6458870e-05   9.6815609e-05   1.1197849e-04   2.1802705e-05   7.5903641e-05   1.0128180e-04   6.4161221e-05   3.8036629e-05   1.3029286e-04   1.1228339e-05   1.4332659e-04   5.4593216e-05   7.2417577e-05   9.7172204e-05   5.5927263e-05   6.1901766e-05   8.2149476e-05   7.9701851e-05  -1.1027279e-05  -3.4149818e-04  -3.9897201e-04   9.3448754e-05   1.3930838e-04   8.9560075e-05   1.0923029e-04   1.0648574e-04   4.9945738e-05   1.4910196e-04   1.4403873e-04   1.1842026e-04   4.1156403e-05  -1.6033370e-04  -2.3688770e-05   7.0389040e-05   4.6301073e-05   4.2428568e-05   5.8394664e-05   1.0057351e-04   4.6958936e-05   1.1109731e-04   1.1423432e-04   1.1313464e-04  -3.5128545e-05  -2.6704494e-05  -2.9506735e-05  -5.8614962e-05   4.9988237e-05  -2.0525391e-04  -3.3432251e-04
   8.5366402e-05   3.0502879e-05   7.5074189e-05   1.0174928e-04   2.2477661e-05   6.0393773e-05   1.0834311e-04   3.8474074e-05  -3.4317229e-05   1.1009674e-04   1.9219402e-05   1.4507404e-04   5.9129725e-05   6.0203638e-05   7.5353753e-05   5.9419341e-05   6.0252423e-05   5.5327968e-05  -1.2337504e-04  -2.3399185e-05  -3.4393134e-04  -4.0261925e-04   8.4184838e-05   1.4092236e-04   8.4774714e-05   1.1906981e-04   1.2042894e-04   5.2534873e-05   9.1562346e-05   1.4561634e-04   7.5810669e-05   4.8382164e-05  -1.8354661e-04  -3.7633174e-05   7.2131596e-05   5.9865644e-05   4.5413035e-05   5.8995029e-05   9.4957104e-05   1.4547474e-05   1.1780482e-04   1.1563656e-04   1.2145036e-04  -3.8035119e-05  -2.6248423e-05   2.2783195e-05  -5.7460846e-05   6.4248954e-05  -3.3633222e-04  -1.7216158e-04
   7.4165764e-05   1.9961879e-05   7.5660551e-05   1.0668788e-04   2.5395979e-05   5.6427536e-05   1.2672013e-04   6.6464403e-05   8.1667655e-05   1.1361533e-04   5.9107765e-06   1.4701716e-04   5.3468604e-05   6.2663668e-05   9.2680610e-05   4.3818050e-05   6.5407832e-05   4.5200399e-05   2.6322408e-05  -2.2419263e-05  -3.5477531e-04  -3.8154048e-04   8.9256151e-05   1.4775482e-04   8.5318352e-05   1.2173576e-04   1.2058251e-04   5.9939204e-05   1.0856486e-04   1.5776267e-04   7.0483773e-05   4.8599919e-05  -1.5026781e-04  -2.7733386e-05   9.3895273e-05   5.6170262e-05   3.1739313e-05   6.3107087e-05   8.6521526e-05   5.7467183e-05   1.1353233e-04   1.0607438e-04   1.2118022e-04  -2.7331949e-05   3.0306162e-05   3.1489682e-05  -1.3708012e-05   6.7939211e-05  -3.1288850e-04  -1.0356944e-04
   6.9023270e-05   2.5300820e-05   8.3718915e-05   1.0852578e-04   3.2114385e-05   7.3149538e-05   1.1680386e-04   7.7033656e-05   3.1301453e-05   1.1718718e-04  -2.1793504e-07   1.5115703e-04   4.9903367e-05   6.9764304e-05   1.2155521e-04   5.0493065e-05   5.0507966e-05   8.4631305e-05  -8.4742278e-06  -1.3855685e-05  -3.5370677e-04  -3.8018468e-04   9.9453842e-05   1.5299792e-04   1.2882674e-04   1.2072516e-04   1.3463372e-04   6.4669359e-05   1.1807351e-04   1.6581920e-04   1.0053123e-04   3.9796450e-05  -1.5765204e-04  -2.6371987e-05   8.5523126e-05   4.3150783e-05   4.4460681e-05   6.6624641e-05   9.3417453e-05   6.9720962e-05   1.5392952e-04   1.1704289e-04   1.3801864e-04  -1.0875528e-05   1.6770986e-06   1.4820947e-05  -5.8048696e-05   2.5930720e-05   2.4990251e-04  -7.8692006e-05
   6.5735745e-05   2.5799036e-05   7.9010060e-05   1.1359386e-04   2.5471520e-05   5.6103483e-05   1.0457161e-04   5.2572272e-05   2.4556641e-05   1.3014086e-04   1.7627968e-06   1.5850930e-04   5.8385223e-05   5.4874818e-05   9.6410309e-05   4.7331629e-05   5.0164366e-05   7.2799572e-05   1.1240205e-04  -1.9801757e-05  -3.4912964e-04  -3.7985976e-04   8.4685933e-05   1.5096666e-04   1.1012152e-04   1.2196467e-04   8.9608053e-05   6.0250590e-05   1.1014121e-04   1.5375183e-04   9.5269708e-05   4.6608016e-05  -1.5534624e-04  -1.3287607e-06   7.5446507e-05   4.2825217e-05   4.2686905e-05   7.0350521e-05   1.1851896e-04   8.0107653e-05   1.2689436e-04   1.1824635e-04   1.4149108e-04   4.5035308e-06  -2.1055022e-05   7.2044029e-05  -5.5957182e-05   3.0871946e-05  -4.9683976e-04  -1.2371794e-04
   8.3501967e-05   1.8170094e-05   7.7272540e-05   1.0198724e-04   2.2120292e-05   6.4534303e-05   1.1964713e-04   4.1497675e-05  -3.8408496e-05   1.4098067e-04  -2.0751988e-05   1.7157386e-04   5.5955396e-05   6.1733597e-05   9.0139321e-05   5.0504692e-05   4.4388042e-05   6.5867913e-05  -1.3022081e-05  -2.5913681e-05  -3.4172158e-04  -3.7466345e-04   7.6014781e-05   1.5199545e-04   1.0423058e-04   1.3524886e-04   9.2248578e-05   5.9526701e-05   1.2863861e-04   1.6374099e-04   1.1024413e-04   4.4947064e-05  -1.3357427e-04  -9.5590822e-06   8.5945961e-05   5.7817626e-05   3.6869973e-05   6.8862537e-05   9.9932477e-05   5.4301923e-05   1.0327250e-04   1.1062489e-04   1.7940230e-04   3.4464890e-07   8.2928840e-05   9.8956145e-05  -5.4658874e-05   1.0513229e-04  -4.3084205e-05  -2.9893708e-04
   7.9995130e-05   1.2444582e-05   8.3280436e-05   1.0808722e-04   1.7125920e-05   6.5582819e-05   1.3509252e-04   4.6842775e-05  -1.3757669e-04   1.5154670e-04  -1.6642620e-05   1.5959379e-04   5.1389226e-05   6.0666738e-05   1.2282134e-04   4.2664527e-05   5.0706461e-05   6.6413828e-05  -1.1588336e-05  -1.3302768e-05  -3.4858423e-04  -3.7352764e-04   9.3788040e-05   1.3863717e-04   1.1067137e-04   1.3102553e-04   1.5850613e-04   7.1659175e-05   1.3811821e-04   1.7228465e-04   1.0644636e-04   4.1154977e-05  -1.4662107e-04  -4.9477794e-06   9.9699122e-05   5.6875597e-05   4.6818463e-05   7.1513416e-05   1.0249298e-04   5.6806635e-05   1.2109551e-04   1.2104209e-04   1.2843050e-04  -3.8039827e-05   1.0680874e-04   1.0262200e-04  -2.4437944e-05   7.8726291e-05  -2.8571257e-04  -2.4127577e-04
   8.8218483e-05   3.2579763e-05   7.6533091e-05   1.0450420e-04   1.4080470e-05   6.5217624e-05   1.1620872e-04   5.2449508e-05   1.6267237e-05   1.4282948e-04   1.8658529e-05   1.5929450e-04   5.8430116e-05   5.4409909e-05   9.1604954e-05   4.6489571e-05   4.1821433e-05   6.4894404e-05   2.6331325e-05  -1.7446549e-05  -3.2763329e-04  -3.5099991e-04   9.0324000e-05   1.4525341e-04   1.1288374e-04   1.3168997e-04   9.1680580e-05   6.2286628e-05   8.3470892e-05   1.5043007e-04   1.0678953e-04   4.7071364e-05  -1.3665826e-04  -1.3592403e-05   7.3502080e-05   6.1630737e-05   3.9199072e-05   6.2037398e-05   1.2276410e-04   6.4444830e-05   1.1307201e-04   1.1725605e-04   1.6879683e-04  -1.7910306e-05   5.8947506e-05   7.9418111e-05  -4.1015424e-05   4.5183409e-05   3.6607667e-05  -1.5864059e-04
   5.8550846e-05   3.0929430e-05   6.8984635e-05   1.0859752e-04   2.3989873e-05   5.8269183e-05   9.8705910e-05   3.1454307e-05   1.1776195e-04   1.3425492e-04   5.6393915e-06   1.4468751e-04   4.7192305e-05   4.8823957e-05   6.4444685e-05   4.8130631e-05   4.9386963e-05   6.2053150e-05   2.9870362e-05  -8.5573774e-06  -3.0653540e-04  -3.3823372e-04   6.2051389e-05   1.3233803e-04   9.3192946e-05   1.1245203e-04   7.5960197e-05   4.7118934e-05   1.0484367e-04   1.4489610e-04   8.7708402e-05   5.3979464e-05  -9.9743207e-05  -1.5492041e-06   9.2426948e-05   5.4628821e-05   5.0540257e-05   6.3338375e-05   1.0738029e-04   4.3761316e-05   1.0392904e-04   1.1214067e-04   1.2452084e-04   2.9717771e-06   2.4929268e-05   1.1695523e-05  -1.4384314e-05   8.7130931e-05  -6.0938776e-04   1.6773155e-06
   6.4322128e-05   3.9844450e-05   6.8647780e-05   9.9706922e-05   2.6756152e-05   6.9625487e-05   1.1479150e-04   5.4657488e-05   6.1887673e-05   1.2557275e-04   8.4035582e-06   1.1990393e-04   4.7838857e-05   4.8548129e-05   9.2863847e-05   5.2015297e-05   4.9928429e-05   6.5029380e-05  -5.1636603e-06  -5.9292670e-06  -2.9839587e-04  -3.2583222e-04   8.3304578e-05   1.2784866e-04   9.4595176e-05   1.1126609e-04   1.1182374e-04   7.1719398e-05   1.1783302e-04   1.4784631e-04   1.1949457e-04   5.1278919e-05  -1.0648442e-04   9.4612169e-06   9.3014394e-05   3.5744008e-05   5.1537401e-05   1.4923030e-05   1.3040431e-04   2.5247278e-05   1.4585782e-04   1.0884347e-04   1.2578616e-04  -2.0691489e-06   3.3865363e-06   5.4965021e-05  -2.4635543e-05   7.9574413e-05  -1.1190913e-04  -1.6832091e-04
   6.3370579e-05   3.9864630e-05   6.7781570e-05   1.0955915e-04   1.8033865e-05   7.5458593e-05   1.1955812e-04   4.9315469e-05   1.3733174e-04   1.3237748e-04   1.2165698e-05   1.5225602e-04   4.3694221e-05   5.2916130e-05   8.7558547e-05   4.6169793e-05   5.3211828e-05   7.2675328e-05   1.1294140e-04  -3.1617736e-07  -2.8968506e-04  -3.1726228e-04   1.0979327e-04   1.4996101e-04   1.0794665e-04   1.0859965e-04   9.1129958e-05   4.9293754e-05   1.2543822e-04   1.3819672e-04   1.2227491e-04   5.9150083e-05  -8.2557483e-05   1.5115557e-05   7.4048112e-05   3.5599933e-05   2.5483640e-05   6.8432048e-05   1.2701449e-04   6.9378337e-05   1.0546670e-04   1.0620326e-04   1.2418021e-04   7.6946990e-06   8.4454834e-05   6.2443905e-05  -2.7094104e-05   8.3210572e-05   2.5430054e-04   4.9664377e-05
   5.5435376e-05   3.3894983e-05   6.9176371e-05   1.0498716e-04   2.0904368e-05   6.5202621e-05   1.0594552e-04   6.1260776e-05   2.2403701e-05   1.2844468e-04   7.4766976e-06   1.4168421e-04   6.1147635e-05   4.9615799e-05   9.0394227e-05   5.0567287e-05   5.9506066e-05   8.0391110e-05   5.5553341e-05  -9.5523990e-07  -2.8970971e-04  -3.1750495e-04   1.1607289e-04   1.5223608e-04   9.5513395e-05   1.0893447e-04   1.0362278e-04   5.8260626e-05   1.4190888e-04   1.4962118e-04   1.3362050e-04   6.3385305e-05  -9.3413240e-05   1.4669247e-05   8.7536588e-05   5.0852861e-05   3.7239995e-05   6.5001484e-05   1.3294458e-04   6.2505023e-05   1.1824493e-04   1.0908768e-04   1.3454986e-04  -1.2455983e-05   3.0829004e-05   9.7469907e-05  -1.8756731e-05   9.5459647e-05  -6.0832099e-05  -4.7044145e-04
   6.0775732e-05   2.6215883e-05   7.5475946e-05   1.0605597e-04   2.8505870e-05   6.8901667e-05   1.2974610e-04   8.8841894e-05   8.4262705e-05   1.5103520e-04  -4.3072259e-06   1.4232953e-04   5.4740198e-05   4.9782637e-05   1.1272894e-04   4.9024798e-05   5.1003692e-05   7.3464347e-05   4.2468448e-05   2.4169283e-06  -2.8561114e-04  -3.0694445e-04   1.1153547e-04   1.1892767e-04   1.3409521e-04   1.2101332e-04   1.2680747e-04   7.2924719e-05   1.4140012e-04   1.4688840e-04   1.4381844e-04   7.2525130e-05  -1.0024010e-04   4.0855080e-05   1.0467072e-04   6.2682375e-05   5.9875376e-05   6.1155566e-05   1.1436055e-04   5.3170272e-05   1.4238915e-04   1.2336810e-04   1.3367315e-04  -1.0748539e-05   4.8892380e-05   8.8742214e-05  -3.8218081e-05   1.0341669e-04   2.5272489e-04  -3.8488230e-04
   6.6514032e-05   3.5697223e-05   8.2258099e-05   1.0795270e-04   2.5540170e-05   7.0572372e-05   1.3122731e-04   1.0466098e-04   6.1637540e-05   1.5152826e-04  -2.0591956e-06   1.7127953e-04   5.9799026e-05   6.3876461e-05   1.5133229e-04   5.7440291e-05   5.1205261e-05   6.4838445e-05   3.3585959e-05   2.4470648e-06  -2.7964768e-04  -2.9875568e-04   1.1546459e-04   1.5712112e-04   1.4212578e-04   1.1744232e-04   1.1707934e-04   6.6202600e-05   1.4432969e-04   1.6040946e-04   1.4545977e-04   6.1448402e-05  -7.6521603e-05   1.7012748e-05   1.0496307e-04   4.5968009e-05   4.1587064e-05   6.1451858e-05   1.0117065e-04   7.2314695e-05   9.6550815e-05   1.0873408e-04   1.0741785e-04   2.2340207e-06   7.9109690e-05   5.9438731e-05  -4.1154541e-05   4.6459907e-05  -3.5332152e-05  -2.7295251e-04
   7.5627475e-05   3.4062312e-05   6.6150365e-05   1.0456325e-04   3.0271280e-05   6.9687434e-05   1.3009890e-04   5.6325182e-05   4.7894544e-05   1.6284201e-04  -4.9975561e-06   1.4503251e-04   5.5662771e-05   6.6807006e-05   1.1254945e-04   4.2955147e-05   5.3219122e-05   6.4820131e-05   5.2592997e-05   1.3389226e-06  -2.7064557e-04  -2.8698629e-04   1.4349715e-04   1.3954252e-04   1.4032368e-04   1.2187578e-04   1.2399082e-04   5.5141911e-05   1.3817882e-04   1.5615144e-04   1.3271610e-04   6.4694788e-05  -9.0319743e-05   1.4972119e-05   9.7234843e-05   4.6482797e-05   3.1401934e-05   6.6680768e-05   1.0473926e-04   7.6078657e-05   1.2513295e-04   1.0684042e-04   1.2814421e-04  -2.0732791e-06   4.1048068e-05   9.3164337e-05  -3.2186657e-05   7.4878757e-05  -3.5454112e-05  -2.7140247e-04
   5.5193290e-05   2.9898356e-05   7.4665586e-05   1.0966604e-04   2.7204547e-05   7.1301292e-05   1.0775376e-04   7.5524251e-05   5.7147581e-06   1.5208781e-04   2.7879080e-06   1.3389475e-04   5.7274112e-05   5.6885910e-05   1.2724263e-04   6.3904350e-05   5.5268996e-05   6.0519767e-05  -9.1807466e-05   2.6498772e-06  -2.6460143e-04  -2.8878599e-04   1.1602307e-04   1.5195651e-04   1.3781032e-04   1.1181623e-04   1.2827928e-04   7.2617862e-05   1.1112948e-04   1.5398891e-04   1.4318129e-04   6.4249522e-05  -1.0980758e-04   2.6622678e-05   1.0692675e-04   6.0612005e-05   4.5148219e-05   7.5971679e-05   1.0928710e-04   6.2256280e-05   1.2971814e-04   1.1465433e-04   1.4786622e-04  -3.6985382e-06   5.8427657e-05   1.2097476e-04  -4.2004336e-05   1.2924135e-04   2.0219853e-04  -1.0005318e-04
   8.5760323e-05   3.1488420e-05   7.6998047e-05   1.2065647e-04   3.1229603e-05   8.4265521e-05   1.2881972e-04   8.7058761e-05   6.4744432e-05   1.7574492e-04   3.8910043e-06   1.5091836e-04   6.6178785e-05   7.2953713e-05   1.7892472e-04   6.3795989e-05   6.0822418e-05   5.9596481e-05   1.2623806e-05   8.3338045e-06  -2.5710234e-04  -2.6916491e-04   1.1886032e-04   1.1623841e-04   1.9203870e-04   1.1243617e-04   1.7691583e-04   9.9662400e-05   1.2666213e-04   1.5246061e-04   1.3034296e-04   7.4742493e-05  -1.0118147e-04   4.3072345e-05   1.4226815e-04   6.1485582e-05   4.2041596e-05   9.7578173e-05   1.1815997e-04   8.4581756e-05   1.2274722e-04   1.1642602e-04   1.3938508e-04  -1.0044099e-06   5.9459093e-05   1.2566859e-04  -3.2097269e-05   8.6900611e-05   1.5252412e-04   9.2885661e-05
   6.2444218e-05   3.5928308e-05   7.6665041e-05   1.2130838e-04   2.2953272e-05   7.5746109e-05   1.1265538e-04   9.7953787e-05  -1.4911067e-05   1.7131840e-04   1.7471742e-05   1.5935839e-04   5.6127155e-05   7.7534867e-05   1.8063484e-04   6.0978397e-05   4.1928510e-05   9.5258183e-05  -5.2606392e-06   5.7888519e-06  -2.4243239e-04  -2.6121445e-04   1.2831419e-04   1.5425886e-04   1.7667937e-04   1.2088019e-04   1.7065533e-04   8.4278567e-05   1.2897073e-04   1.5011258e-04   1.4018084e-04   6.7578287e-05  -1.0574443e-04   2.2709304e-05   1.2681815e-04   5.4619115e-05   5.4177344e-05   9.6774362e-05   8.2206796e-05   5.1237166e-05   1.1486690e-04   1.2301767e-04   1.3034724e-04  -1.4571630e-05   4.0330873e-05   1.2468615e-04  -2.6011032e-05   8.4816282e-05   1.8508512e-05  -6.7183125e-04
   8.1993014e-05   2.7030452e-05   8.3338928e-05   1.1177076e-04   2.8880915e-05   7.2513241e-05   1.2076990e-04   9.4315888e-05   4.5560468e-05   1.9844057e-04   1.1155495e-05   1.5476209e-04   7.0644201e-05   7.5521843e-05   1.6741989e-04   5.8180078e-05   5.8924441e-05   7.4017633e-05   6.1572566e-05   7.0024744e-06  -2.4278314e-04  -2.5903562e-04   1.2912747e-04   1.2466878e-04   1.6487547e-04   1.0665069e-04   1.3377896e-04   8.1051308e-05   1.3147420e-04   1.5938863e-04   1.5454671e-04   5.8908194e-05  -8.9953908e-05   4.0250347e-05   1.1811909e-04   5.9881666e-05   3.2781074e-05   8.7409986e-05   1.0623007e-04   6.3801475e-05   1.1216471e-04   1.2915977e-04   1.3238398e-04  -1.4570065e-06   8.5260624e-05   1.5544592e-04  -2.8520044e-05   1.0750296e-04   9.3374038e-05  -8.7153654e-05
   5.3445357e-05   2.6647340e-05   8.5663676e-05   1.1921164e-04   3.6096619e-05   8.3112383e-05   1.2871083e-04   9.8369157e-05   5.9372800e-05   2.1454181e-04   8.1441376e-06   1.5104582e-04   6.6384411e-05   7.2705981e-05   1.8647985e-04   7.0917718e-05   5.4030366e-05   4.6993042e-05   5.6596236e-05   1.2494874e-05  -2.3488833e-04  -2.6461185e-04   1.4864818e-04   1.4885870e-04   1.8748686e-04   1.1219182e-04   1.5908071e-04   1.0004775e-04   8.2439125e-05   1.7555608e-04   1.2873858e-04   6.2451727e-05  -8.3441453e-05   4.0688676e-05   1.5482699e-04   7.6481505e-05   3.4263481e-05   6.6673470e-05   1.0124235e-04   8.8343535e-05   1.1915564e-04   1.3652306e-04   1.4248480e-04  -1.5828753e-06   8.3717408e-05   1.3839100e-05  -2.0557829e-05   1.3544632e-04  -6.7476052e-05  -1.3341820e-04
   7.6482575e-05   3.5040393e-05   9.3674505e-05   1.2275360e-04   3.3862249e-05   8.4988504e-05   1.1814291e-04   6.9357477e-05   1.3907379e-04   2.3653414e-04   2.5873211e-05   1.6154340e-04   7.1967363e-05   8.1433143e-05   2.1150285e-04   7.4208030e-05   5.7824225e-05   8.3405299e-05   9.7149787e-05   1.8486169e-05  -2.2543367e-04  -2.4122835e-04   1.3888290e-04   1.4540706e-04   2.1301147e-04   1.1227029e-04   1.7440270e-04   9.7005635e-05   1.3969843e-04   1.4482393e-04   1.2980099e-04   5.9403144e-05  -6.9497211e-05   4.2388729e-05   1.2896225e-04   6.0204500e-05   3.8476221e-05   5.9103062e-05   1.0552796e-04   1.0424433e-04   1.4459640e-04   1.3679093e-04   1.5743460e-04  -5.3062671e-05   1.0086814e-04   5.3407104e-05  -8.3779312e-09   1.1090185e-04  -1.2898762e-04  -2.5744815e-04
   7.5606273e-05   4.3907432e-05   7.5173462e-05   1.1630583e-04   2.9629429e-05   7.2643590e-05   1.1475106e-04   8.0895552e-05   1.2893738e-04   2.2587246e-04   3.5895275e-05   1.6087554e-04   6.0808157e-05   6.8526773e-05   1.6317025e-04   7.3937277e-05   5.0027018e-05   5.8484293e-05   4.7826808e-05   2.0560441e-05  -2.0923186e-04  -2.3063022e-04   1.0450007e-04   1.4222776e-04   1.6840287e-04   1.1834023e-04   1.7396135e-04   8.0597471e-05   8.2914776e-05   1.4448698e-04   1.2797541e-04   5.0583727e-05  -6.5554879e-05   4.1668343e-05   1.0031588e-04   6.1999308e-05   6.5825618e-05   7.6953365e-05   1.0737460e-04   5.1950112e-05   1.1878034e-04   1.2856472e-04   1.5482923e-04  -2.0955536e-05   6.5027962e-05   1.0613324e-04  -2.4853140e-05   8.4192478e-05   1.0639638e-04  -2.6145397e-04
   7.8909703e-05   3.9266506e-05   8.9565525e-05   1.1577673e-04   3.2449894e-05   7.3127587e-05   1.4074269e-04   8.6062399e-05   1.0131943e-04   2.2637684e-04   3.9549010e-05   1.4705989e-04   7.2975185e-05   6.7628018e-05   1.4892580e-04   5.3680855e-05   6.1456652e-05   8.0673453e-05   1.0707096e-05   1.4488668e-05  -2.0702499e-04  -2.3211478e-04   1.1428908e-04   1.1937939e-04   1.6381830e-04   9.7225988e-05   1.4741867e-04   8.8675668e-05   1.0677356e-04   1.3172289e-04   1.2825963e-04   6.8979665e-05  -5.3076797e-05   5.6310069e-05   1.2594563e-04   6.5559580e-05   5.2044568e-05   7.0264810e-05   1.1830658e-04   7.1458591e-05   1.1327672e-04   1.2768507e-04   1.4340960e-04  -1.6263293e-05   6.2945954e-05   1.2687301e-04  -8.6424080e-07   1.4329492e-04  -2.0581960e-04  -3.0457805e-04
   6.5889217e-05   4.5727855e-05   9.4820556e-05   1.1473807e-04   4.5189630e-05   8.7020424e-05   1.2043698e-04   1.2654431e-04   9.0272425e-07   2.4968197e-04   4.2203654e-05   1.4831081e-04   6.4867017e-05   8.0479564e-05   1.7252492e-04   6.6684239e-05   5.9709339e-05   7.7495293e-05   1.2071228e-04   2.7783401e-05  -1.8873345e-04  -2.0838951e-04   1.2953820e-04   1.0570548e-04   1.9313589e-04   8.3287960e-05   1.5823693e-04   1.0262997e-04   1.6241583e-04   1.2699518e-04   1.1459322e-04   5.8265516e-05  -5.0800460e-05   6.5062777e-05   1.3852441e-04   7.2434006e-05   5.7109421e-05   5.8085010e-05   1.1719541e-04   6.7783607e-05   1.3008472e-04   1.4305209e-04   1.2129169e-04  -4.0777100e-05   6.7011752e-05   7.8237412e-05  -1.9145671e-05   1.0179514e-04   1.6757494e-04  -2.0836698e-04
   7.5187367e-05   5.8145870e-05   9.8043034e-05   1.0982854e-04   3.5141587e-05   8.0937338e-05   1.3533003e-04   9.4836687e-05   2.5677851e-05   2.5627433e-04   4.7141333e-05   1.5053316e-04   6.9689537e-05   7.9064099e-05   1.3715865e-04   7.1698261e-05   5.2158393e-05   4.8462090e-05   1.6190812e-04   2.3539389e-05  -1.8709408e-04  -2.0151824e-04   1.2309330e-04   1.1712092e-04   1.6713176e-04   9.9775913e-05   1.2313192e-04   7.1377319e-05   1.3951032e-04   1.1686596e-04   1.3892638e-04   4.7105223e-05  -9.3890798e-05   5.6374378e-05   1.0752866e-04   6.2265666e-05   5.3242547e-05   8.6439213e-05   1.3026640e-04   8.1796650e-05   1.3837297e-04   1.3067228e-04   1.3344098e-04  -1.6869692e-05   1.0453912e-04   7.2711750e-06  -2.4929921e-05   9.2672068e-05  -7.0160655e-05   3.9893603e-05
   6.5724234e-05   5.6396202e-05   8.3189923e-05   1.1039284e-04   3.2180666e-05   8.5388601e-05   1.2241986e-04   8.8974186e-05   1.4498389e-04   2.3267356e-04   5.3326617e-05   1.4273648e-04   8.0766826e-05   6.7699533e-05   1.1516627e-04   4.7264712e-05   5.7392994e-05   6.2531049e-05   9.6922748e-05   1.9508178e-05  -1.6850191e-04  -1.9859997e-04   1.2055465e-04   1.2174636e-04   1.3303774e-04   8.0477774e-05   1.1455821e-04   6.4568616e-05   1.6622407e-04   1.3119844e-04   1.2522827e-04   4.5979963e-05  -5.2733725e-05   4.5532790e-05   9.7529191e-05   7.1512179e-05   4.3849730e-05   7.7064811e-05   1.2458561e-04   7.3651652e-05   1.1303187e-04   1.2734544e-04   1.3424977e-04  -2.1390855e-05   1.1328218e-04   4.0303592e-05  -1.2246240e-05   1.2281426e-04  -1.0020477e-04   2.1502552e-05
   7.6465316e-05   5.9141697e-05   1.0055200e-04   1.1086724e-04   5.0375671e-05   9.2839502e-05   1.3899653e-04   1.0616519e-04   1.4637774e-04   2.4771370e-04   4.8318358e-05   1.3734774e-04   7.9270998e-05   6.3103304e-05   1.1648730e-04   6.3951782e-05   4.9783441e-05   6.3332736e-05   1.5379838e-04   2.8286628e-05  -1.7385437e-04  -1.9721682e-04   1.3871941e-04   1.2152772e-04   1.2344094e-04   9.6547301e-05   1.2477479e-04   8.4123611e-05   1.2995087e-04   1.2793150e-04   1.0443888e-04   5.9397655e-05  -5.3544260e-05   5.5740937e-05   1.0454621e-04   6.6730921e-05   5.0118433e-05   5.7728656e-05   1.0656723e-04   8.5965512e-05   1.3392593e-04   1.4920437e-04   1.5329476e-04  -1.8965558e-05   1.3560969e-04   3.5846540e-05  -4.6266823e-06   1.0419856e-04  -1.1184725e-04  -5.7165907e-05
   9.3811912e-05   6.6309767e-05   8.9406756e-05   1.1292932e-04   4.4546068e-05   7.1976094e-05   1.2430076e-04   1.0838015e-04   8.8777786e-05   2.4713983e-04   5.9895818e-05   1.6009911e-04   7.1249997e-05   6.2542589e-05   1.1733780e-04   5.9458212e-05   5.7056477e-05   4.1028943e-05   1.9708026e-04   2.9583534e-05  -1.7381842e-04  -1.9677906e-04   1.5232102e-04   1.2451853e-04   1.3301357e-04   9.1694194e-05   1.0151724e-04   5.5544660e-05   1.2015768e-04   1.2703078e-04   1.3689314e-04   4.7299454e-05  -5.2735613e-05   4.8908300e-05   8.7230765e-05   7.1634888e-05   4.5242297e-05   3.2545198e-05   1.0864083e-04   6.2684412e-05   1.1880598e-04   1.3770004e-04   1.1063965e-04  -2.3727434e-05   1.1176491e-04   6.6854271e-05   9.9471745e-06   1.0254423e-04   2.5811666e-04  -1.7602525e-04
   9.0656722e-05   6.3485371e-05   8.8924608e-05   1.0774934e-04   4.2973559e-05   8.7882574e-05   1.1411931e-04   8.2962681e-05   1.6824619e-04   2.3015980e-04   4.2653555e-05   1.5803108e-04   7.6422795e-05   7.4097836e-05   8.9229034e-05   6.7517663e-05   5.7312816e-05   4.5166405e-05   8.1735081e-05   3.0676107e-05  -1.6936680e-04  -1.8975005e-04   1.3790549e-04   1.1271226e-04   1.2038290e-04   8.9454028e-05   1.0482325e-04   5.8670452e-05   1.1586636e-04   1.2314254e-04   9.1678921e-05   4.0271454e-05  -6.0087681e-05   4.4742079e-05   7.8283541e-05   6.7690897e-05   5.0269617e-05   6.4953318e-05   8.9721085e-05   7.5648379e-05   1.0482726e-04   1.4733117e-04   1.3046636e-04  -1.4321713e-05   6.8811401e-05   5.2492411e-05  -4.1546655e-06   1.1235027e-04  -8.9583606e-05  -1.9942109e-04
   6.9603047e-05   5.6727968e-05   1.0066453e-04   1.0475856e-04   4.6047167e-05   8.6840468e-05   1.3647777e-04   7.2832656e-05   8.4413266e-05   2.3022488e-04   5.8334666e-05   1.5277401e-04   7.5929835e-05   6.8759633e-05   1.0545611e-04   5.9103830e-05   6.0622875e-05   4.8962629e-05   1.1275180e-04   2.9235276e-05  -1.7292362e-04  -1.7223672e-04   1.3892204e-04   9.7158583e-05   1.1291357e-04   8.1279948e-05   9.8896009e-05   7.9406273e-05   1.1715312e-04   1.2418254e-04   1.0994114e-04   4.6471952e-05  -7.5054500e-05   6.0135913e-05   1.0307462e-04   6.9981375e-05   5.0100240e-05   6.3281113e-05   1.0541485e-04   7.2727809e-05   1.6411387e-04   1.4273735e-04   1.1944307e-04  -1.3413030e-05   8.7457462e-05   7.3718838e-05   1.0560063e-05   1.1122705e-04   6.1347423e-04  -3.3420976e-04
   9.2573740e-05   6.5964930e-05   9.2279857e-05   1.1483242e-04   4.6828256e-05   9.0939902e-05   1.2964029e-04   1.0246679e-04   1.0897838e-04   2.3670205e-04   7.0974398e-05   1.6874529e-04   7.5501317e-05   7.0929593e-05   1.0026162e-04   6.9325513e-05   6.2922125e-05   5.7533849e-05   1.1907352e-04   2.4326355e-05  -1.6788772e-04  -1.9272497e-04   1.1090386e-04   1.2269859e-04   1.1028705e-04   7.6488963e-05   6.2288666e-05   5.5265478e-05   9.6815515e-05   1.2026403e-04   7.9677928e-05   3.8567552e-05  -7.4042255e-05   2.8896788e-05   7.4885356e-05   5.4808672e-05   3.6896974e-05   6.5292072e-05   8.6596803e-05   7.8274032e-05   1.5181133e-04   1.2952508e-04   1.1841713e-04  -1.7926035e-05   1.1445071e-04   7.1740433e-05  -3.1261184e-06   9.1428781e-05   1.0194500e-04  -2.1865968e-04
   7.7479308e-05   5.8233356e-05   7.9799240e-05   9.9271245e-05   3.3343524e-05   8.1937127e-05   1.0953724e-04   1.0363771e-04   1.0964018e-04   1.8916333e-04   5.7068333e-05   1.3701618e-04   8.2610706e-05   6.8497029e-05   6.6270499e-05   6.3794068e-05   5.9077654e-05   6.3962056e-05   1.0066783e-05   1.4880615e-05  -1.6841259e-04  -1.9597478e-04   1.1533432e-04   1.1715987e-04   9.8093507e-05   8.1467857e-05   6.6250424e-05   4.6064863e-05   1.1323123e-04   1.1129303e-04   8.4056446e-05   3.1614247e-05  -1.0150090e-04   9.7855645e-06   5.8890553e-05   5.4992168e-05   4.7522706e-05   4.9893904e-05   9.6188123e-05   9.1629146e-05   1.7760428e-04   1.3743459e-04   1.0828364e-04  -9.0063105e-07   7.6377604e-05   9.7615384e-06  -5.9459612e-06   7.9285644e-05   5.0573432e-05   8.3430368e-06
   8.9503781e-05   5.4152475e-05   9.3716495e-05   1.1024729e-04   4.1265361e-05   7.7694916e-05   1.0726482e-04   1.0362721e-04   1.9797462e-04   1.7357832e-04   4.4029573e-05   1.1679033e-04   8.5763975e-05   7.6443146e-05   7.4694974e-05   7.1603819e-05   5.9282112e-05   4.3299409e-05   8.8047651e-05   1.5772959e-05  -1.6580131e-04  -1.7871770e-04   1.5003834e-04   9.5120828e-05   8.3041974e-05   1.0101425e-04   7.0589173e-05   6.4566149e-05   6.8830879e-05   1.3917855e-04   6.8024281e-05   3.8831931e-05  -1.0490672e-04   2.4236713e-05   8.7800792e-05   6.3791333e-05   4.7277528e-05   8.1372011e-05   9.7389304e-05   5.0338480e-05   1.5580325e-04   1.3380894e-04   1.3880523e-04   3.6573149e-06   4.9048773e-05   1.1293088e-04  -8.8061061e-06   1.1620268e-04   2.8013904e-04  -2.0619572e-04
   6.9681235e-05   5.3929853e-05   9.1005968e-05   1.0696699e-04   4.3743919e-05   8.4488660e-05   1.2424293e-04   8.1956910e-05   1.7547462e-04   1.8915164e-04   4.5885932e-05   1.2987309e-04   9.2997143e-05   9.6114083e-05   9.0307345e-05   7.3220785e-05   5.6306835e-05   6.6074419e-05   2.5357547e-05   2.0765654e-05  -1.6320287e-04  -1.7237412e-04   1.5803383e-04   1.0290945e-04   9.0577923e-05   9.2289083e-05   7.1312323e-05   6.1489729e-05   1.1184396e-04   1.2745285e-04   9.5692842e-05   2.1009426e-05  -7.6100885e-05   1.1287079e-05   6.7655565e-05   5.6479603e-05   3.9637576e-05   4.7848349e-05   1.3801888e-04   7.5238546e-05   1.3160732e-04   1.3455974e-04   1.2690689e-04  -4.3104792e-05   7.2955307e-05   1.7778904e-05  -1.3032067e-05   6.9816000e-05   7.9770007e-06  -4.6177604e-04
   7.5414944e-05   5.3982869e-05   8.5888190e-05   1.0403129e-04   3.5765584e-05   7.6488912e-05   1.0901489e-04   9.9307195e-05   1.6889127e-04   1.6541354e-04   5.4736283e-05   1.2016066e-04   8.4009167e-05   5.6632529e-05   3.8874496e-05   4.5668090e-05   4.4448658e-05   3.8680271e-05   4.1141257e-06   2.0706759e-05  -1.6295936e-04  -1.7390311e-04   1.3378519e-04   1.1704701e-04   4.6754554e-05   9.7194497e-05   4.0916944e-05   4.3375505e-05   1.0055942e-04   1.2480182e-04   6.1538245e-05   2.3613149e-05  -9.9081764e-05   1.6489392e-05   5.3036518e-05   5.8792015e-05   4.3490945e-05   5.2329291e-05   8.1194456e-05   5.0942039e-05   1.1078564e-04   1.2811889e-04   1.0965204e-04  -2.6413498e-05   3.1684915e-05   1.8070737e-06  -2.3222388e-05   6.7809538e-05  -6.7588917e-05  -1.9071565e-04
   5.6179149e-05   5.4449676e-05   7.9784273e-05   9.6530151e-05   3.2987002e-05   7.6683355e-05   9.7015611e-05   6.3141037e-05   7.6759628e-05   1.5291599e-04   4.5793175e-05   1.1734695e-04   9.4541996e-05   6.6197055e-05   2.2606868e-05   5.9713493e-05   4.4428809e-05   3.2171585e-05   5.0940489e-05   1.8321172e-05  -1.4903178e-04  -1.5740108e-04   1.2307470e-04   8.1659971e-05   5.4708566e-05   8.0997212e-05   3.1604344e-05   4.5710000e-05   8.1783437e-05   1.2260108e-04   5.2014864e-05   2.4620342e-05  -1.1702695e-04   1.0982046e-06   5.4011711e-05   6.4357388e-05   3.9293165e-05   7.4356307e-05   9.7604279e-05   3.7995684e-05   1.1424840e-04   1.2306179e-04   1.3472409e-04  -1.6973470e-05   9.4024464e-05   5.2659816e-05   4.2807048e-07   7.9706057e-05   2.7861620e-06  -6.6201195e-05
   5.2005547e-05   6.0053877e-05   7.9100748e-05   9.3696093e-05   4.6060297e-05   9.1667112e-05   1.1305378e-04   7.3463445e-05   1.1954300e-04   1.3794683e-04   4.9885253e-05   1.0322707e-04   8.7657281e-05   7.7931945e-05   3.8815335e-05   5.7610519e-05   3.9933209e-05   4.1795731e-05  -5.3644271e-05   1.8026536e-05  -1.4300502e-04  -1.5214951e-04   1.3344514e-04   7.9282028e-05   7.1324670e-05   8.2326733e-05   5.0345341e-05   5.9568189e-05   1.0634599e-04   1.0926832e-04   4.1680669e-05   3.5985875e-05  -8.9042805e-05   8.1075132e-06   7.0196736e-05   6.4269945e-05   4.2247302e-05   7.1600669e-05   1.0830699e-04   5.1768471e-05   1.1444758e-04   1.2414376e-04   1.0202025e-04  -2.2494680e-05   4.5873978e-05  -4.7138556e-07   1.2243899e-05   6.3696723e-05  -7.2680473e-06   1.4641903e-05
   5.7224599e-05   6.6093991e-05   6.9913003e-05   8.2800252e-05   3.8526712e-05   6.9852242e-05   8.9387606e-05   7.1178612e-05   1.6740216e-04   1.5060314e-04   5.4594359e-05   1.0495257e-04   8.3494611e-05   6.0516704e-05   9.0090143e-06   6.0345032e-05   5.4803269e-05   3.2567299e-05   3.4195723e-06   2.0287262e-05  -1.3981872e-04  -1.5218538e-04   1.0316886e-04   8.3466504e-05   5.1255101e-05   7.5790362e-05  -8.7631024e-06   4.1430143e-05   8.1742168e-05   9.7056582e-05   3.1474061e-05   9.1068241e-06  -8.2992476e-05  -2.4306826e-05   3.6076264e-05   4.7964280e-05   4.3519001e-05   8.3450504e-05   6.3918138e-05   5.9646078e-05   1.2776359e-04   1.1995213e-04   9.6802527e-05   5.3243116e-06   5.3313022e-05   3.2729662e-05  -1.5597187e-05   7.1909264e-05  -1.6646909e-04  -2.5009002e-05
   4.4773744e-05   6.0227911e-05   7.2556082e-05   8.3817737e-05   3.9848310e-05   6.5408858e-05   7.9630685e-05   7.5473559e-05   1.2041414e-04   1.2583338e-04   4.9430379e-05   1.0448648e-04   8.0363650e-05   4.8942642e-05  -2.0191766e-05   5.3370022e-05   5.1873387e-05   5.6108314e-05  -5.3407359e-05   1.1279028e-05  -1.3287937e-04  -1.3887501e-04   1.2957225e-04   1.0731434e-04   1.8517590e-05   8.2165767e-05  -1.3048527e-05   2.5761958e-05   6.6792862e-05   9.4421295e-05   9.8867740e-06   6.7800120e-06  -7.7431941e-05  -1.5264801e-05   3.3732565e-05   4.5618293e-05   3.0457575e-05   5.2562969e-05   9.3215742e-05   7.0321148e-05   1.1425333e-04   1.0710600e-04   1.2148514e-04  -1.6949743e-05   8.0074657e-05   2.1218317e-05  -3.1261497e-05   8.3944193e-05  -1.2199130e-04  -1.0654155e-04
   5.0701601e-05   6.0593531e-05   7.5718192e-05   8.2155602e-05   4.0047518e-05   7.3313284e-05   9.3508774e-05   7.5185242e-05   2.1204143e-04   1.3891801e-04   5.1159088e-05   9.3849485e-05   8.3765197e-05   4.0636187e-05  -1.4154106e-06   5.5359011e-05   5.0177179e-05   3.0824496e-05   3.6863086e-05   1.6794167e-05  -1.2445856e-04  -1.3132443e-04   9.4245865e-05   9.7566306e-05   4.7855425e-05   7.5079479e-05  -3.0297375e-07   3.0704505e-05   6.3806117e-05   8.5659398e-05   4.4182601e-05   1.5250683e-05  -9.0898524e-05   3.9453671e-06   4.6361183e-05   4.8293929e-05   4.9738053e-05   4.1262781e-05   7.2134673e-05   5.8082329e-05   1.0641303e-04   1.1391110e-04   9.2924725e-05  -2.7175576e-05   4.4811426e-05   1.4438781e-05  -1.9150142e-05   7.2485680e-05  -2.9848827e-05  -2.0180811e-04
   7.6693686e-05   6.6449138e-05   7.4483331e-05   9.0770372e-05   4.0316227e-05   7.0799208e-05   8.7865665e-05   6.2658706e-05   7.5664386e-05   1.4570054e-04   5.6281799e-05   1.2019009e-04   7.9123922e-05   2.9797333e-05  -3.3127602e-05   3.9355597e-05   4.9113449e-05   2.6299784e-05   1.3101807e-04   1.3282250e-05  -1.1648433e-04  -1.1168981e-04   1.2236253e-04   9.4573166e-05   2.0620508e-05   7.9431084e-05  -6.0813672e-05   1.8620327e-05   5.4609027e-05   7.8744495e-05   5.1311818e-05   3.3364647e-06  -4.5172506e-05  -2.8829596e-05   9.2690298e-06   4.0124662e-05   3.0516898e-05   6.4702552e-05   8.1455488e-05   3.1134168e-05   1.1618702e-04   1.1027230e-04   9.6290009e-05  -4.3629017e-05   1.1716216e-04   1.8748033e-05  -1.3346400e-05   6.3230902e-05  -8.8745626e-05  -6.3433770e-05
   5.1651605e-05   6.5467299e-05   6.1790808e-05   7.6022181e-05   3.6261234e-05   5.3839409e-05   9.8486307e-05   5.8287653e-05   9.2081988e-05   1.0990469e-04   4.5182067e-05   1.1321538e-04   7.8060548e-05   1.9767047e-05  -7.0289971e-05   3.5562160e-05   3.5917463e-05   3.0861753e-05  -3.0330693e-05   1.3538318e-05  -1.0837129e-04  -1.0964387e-04   8.0043123e-05   1.0449763e-04   1.3293215e-06   8.5601292e-05  -7.3278265e-05   1.2604894e-05   7.9146048e-05   5.6802794e-05   1.0807666e-05   1.7054765e-05  -6.6945155e-05  -1.7755425e-05   1.6153361e-05   4.4054665e-05   5.1521089e-05   5.5042830e-05   8.7921653e-05   3.1596090e-05   1.0081268e-04   1.1118176e-04   9.0275345e-05  -2.8183144e-05   2.8816514e-05  -1.0673588e-05  -2.8869368e-07   9.1988499e-05   1.1339375e-04   3.4360633e-05
   4.4354398e-05   5.7186095e-05   7.1825350e-05   8.0523831e-05   4.1776377e-05   5.5606175e-05   6.4803316e-05   5.9701160e-05   1.2367508e-04   1.1037810e-04   4.1247520e-05   9.9980687e-05   8.5137843e-05   1.1724769e-05  -6.1051076e-05   3.3096127e-05   2.7217224e-05   2.0528187e-05   3.7467136e-05   9.8470146e-06  -1.0685988e-04  -1.0798383e-04   1.0729841e-04   9.0695394e-05  -1.1724031e-05   7.4965232e-05  -6.9318179e-05   2.4283043e-05   2.9874107e-05   6.7233195e-05   3.6917194e-05   1.6969514e-05  -4.3232729e-05  -2.5556174e-05   2.2497183e-05   5.2796597e-05   3.6600894e-05   4.1256590e-05   8.9776790e-05   1.7115213e-05   1.2486689e-04   1.1814554e-04   8.3212974e-05  -2.8681943e-05   7.9364559e-05  -6.4102715e-05   4.1122157e-06   9.6919088e-05   5.5286405e-04  -9.4928428e-06
   5.2307467e-05   6.7475288e-05   6.2163628e-05   8.2538339e-05   3.5180386e-05   5.3669672e-05   7.7456287e-05   8.0122860e-05   8.5575281e-05   1.0977074e-04   4.6546746e-05   1.1593931e-04   7.4185169e-05   1.6949234e-05  -6.0256643e-05   3.4685283e-05   3.3431126e-05   2.1396616e-05   6.7000256e-05   9.9049776e-06  -9.6601885e-05  -9.2362425e-05   1.1453679e-04   9.0911548e-05   4.4614517e-06   7.2891409e-05  -1.0378355e-04   5.4943962e-06   7.0423390e-05   6.3403095e-05   4.7132005e-05   9.8486280e-06  -3.1828367e-05  -3.1948734e-05   3.7249365e-06   2.8732175e-05   3.4841640e-05   6.0771879e-05   5.9705297e-05   3.3246008e-05   9.8785538e-05   1.0805372e-04   7.8538920e-05  -2.8190929e-05   8.7087144e-05   3.2919932e-05   9.0272060e-06   6.1166924e-05   6.7591085e-04  -9.4613188e-07
   3.9973893e-05   5.9834532e-05   5.4756936e-05   8.3003171e-05   2.9897710e-05   3.8197497e-05   6.1243576e-05   7.4018615e-05  -4.8304482e-06   1.0460558e-04   4.6687863e-05   1.0515675e-04   7.6819357e-05  -8.6267829e-07  -9.1149232e-05   3.0360477e-05   3.4886267e-05   2.1283784e-05  -7.2428695e-05   1.3945687e-05  -8.8132154e-05  -8.7349617e-05   1.0867725e-04   1.0875925e-04   2.6549844e-06   7.9738376e-05  -1.2119956e-04   4.2323095e-06   6.5943292e-05   4.9247716e-05   2.2329734e-05   1.3109434e-06  -2.5993999e-05  -3.8999075e-05  -7.9926021e-06   3.9272145e-05   3.5760288e-05   4.7230140e-05   7.4207412e-05   2.7837650e-05   9.0977010e-05   1.1107665e-04   6.8859088e-05  -6.0387815e-06   8.2132166e-05   2.5446983e-05   2.4706360e-06   8.4588544e-05  -1.5798302e-06  -1.2723741e-04
   3.2484393e-05   6.0236172e-05   4.8345970e-05   7.8002100e-05   3.4720306e-05   4.7898739e-05   6.6383647e-05   3.2353786e-05  -1.0163845e-04   7.7854151e-05   4.3919557e-05   9.8276490e-05   8.6402993e-05   8.7458939e-06  -9.6315853e-05   3.4794204e-05   3.2574975e-05   3.8652033e-05   3.8649146e-06   2.1341759e-05  -8.8622459e-05  -8.3035331e-05   1.0083959e-04   1.1525016e-04   2.9061048e-06   7.9723548e-05  -7.2227311e-05   1.0688166e-05   7.8229001e-05   5.2185856e-05   4.0402145e-05   7.9689289e-06  -1.2995290e-05  -4.3449912e-05   1.2730957e-05   2.8837278e-05   3.4683981e-05   4.9169710e-05   8.5690946e-05  -4.1261919e-06   8.9641369e-05   9.4981362e-05   9.1809576e-05  -9.7325683e-06   6.7441935e-05   7.0840251e-06   4.9705022e-06   7.3672847e-05   4.1603469e-04   2.1487752e-04
   4.5803972e-05   6.3977110e-05   4.8248621e-05   7.7663681e-05   2.9699469e-05   3.9651306e-05   6.9219634e-05   4.9585553e-05   5.3887383e-05   9.1449387e-05   4.4520639e-05   1.0124729e-04   8.1247686e-05   4.1672974e-06  -7.2705872e-05   3.9793096e-05   2.2678894e-05   3.7214177e-05   4.3553453e-05   1.6046899e-05  -8.0331331e-05  -7.9932906e-05   1.3313410e-04   1.2087249e-04   1.5197000e-05   7.8550525e-05  -1.2306152e-04  -2.7491981e-06   5.5404460e-05   6.5184577e-05   5.6003315e-05   1.4732444e-05  -1.3842579e-05  -5.3431777e-05  -6.3790153e-06   4.2688844e-05   3.3744713e-05   5.3457985e-05   8.5588144e-05   3.2405598e-05   9.4293770e-05   9.1014539e-05   7.6912795e-05  -6.0908824e-05   1.5218675e-05  -4.6478126e-05  -3.1088897e-05   5.0149458e-05   3.9898953e-04   1.0743563e-04
   2.4083634e-05   6.3002175e-05   5.0335224e-05   7.7155113e-05   2.7191571e-05   2.7987266e-05   4.9112419e-05   4.4945620e-05  -2.6273899e-05   7.1303119e-05   4.0685420e-05   9.7939315e-05   7.2239454e-05  -6.5873610e-06  -1.0617876e-04   2.5359288e-05   2.0456127e-05   1.7028802e-05  -4.7073925e-05   1.2661485e-05  -7.3385389e-05  -6.5159555e-05   1.1185223e-04   1.1409952e-04  -1.0184533e-05   6.8840818e-05  -1.2322994e-04  -1.2894607e-05   1.2584800e-05   4.2267195e-05   5.0055613e-05  -1.8227154e-06  -3.2431581e-05  -4.2812797e-05  -6.7134833e-06   3.1002706e-05   2.5104560e-05   1.4610883e-05   8.5323198e-05   2.4731511e-05   7.7055382e-05   9.2455921e-05   8.3299470e-05  -3.3782035e-05   6.2856227e-05   4.1019390e-05  -1.0745557e-05   5.3840977e-05  -7.1459326e-05  -5.4664492e-06
   3.6193975e-05   5.5457833e-05   4.0297371e-05   7.4509022e-05   3.1126783e-05   4.1690317e-05   5.8259746e-05   3.8062211e-05   2.8173999e-05   6.0283201e-05   2.6004123e-05   8.3187966e-05   7.9437195e-05  -4.5502279e-06  -9.6670803e-05   2.4634282e-05   1.5163378e-05   4.7504864e-06   3.0113151e-05   2.3169441e-05  -7.0439775e-05  -6.7748035e-05   1.0073285e-04   1.0402752e-04  -1.1219478e-05   6.6964581e-05  -9.1390575e-05  -7.2039529e-07   6.9410133e-05   5.7616257e-05   3.7923037e-05  -2.2760257e-06   3.0793858e-06  -6.0407267e-05   4.8203333e-06   3.1207033e-05   3.1287771e-05   6.6000153e-05   6.9405498e-05   2.9814917e-05   1.0276611e-04   9.0716530e-05   9.6406693e-05  -4.6038786e-05   4.5142708e-05  -2.5544023e-05  -1.4128558e-05   1.0678696e-04   4.2640281e-04  -3.6984522e-05
   2.5435478e-05   5.2834472e-05   6.1986895e-05   7.7070916e-05   3.8583992e-05   4.5859957e-05   5.9873761e-05   6.8409179e-05   1.6151522e-05   6.5469241e-05   2.6070235e-05   8.9663306e-05   8.1092687e-05   3.4368361e-06  -6.3411535e-05   4.6513116e-05   1.8625498e-05   2.1736189e-05  -7.3373353e-06   2.1147969e-05  -6.3231069e-05  -5.6246328e-05   1.2719877e-04   9.9201206e-05  -2.5740044e-07   7.1184615e-05  -5.3574160e-05   8.8440011e-06   2.3764591e-05   5.4418164e-05   3.8205049e-05   3.8156295e-06  -7.2368885e-06  -4.6944104e-05  -2.0813636e-06   3.8064758e-05   2.3475246e-05   6.1092163e-05   6.9932212e-05   4.8755261e-05   5.7900867e-05   7.5447308e-05   4.6782887e-05  -1.2228684e-05   6.3458006e-05   6.8159384e-06  -1.7005068e-05   2.8349472e-05   3.2069118e-04   1.3485497e-04
   2.8282921e-05   5.9360667e-05   4.7536672e-05   7.0212387e-05   2.5265304e-05   3.5603411e-05   7.7632561e-05   3.8875471e-05  -1.2901223e-05   6.0045633e-05   2.8204791e-05   9.2544411e-05   5.9296992e-05  -1.1731564e-05  -9.7484910e-05   2.9652543e-05   2.8421717e-05   1.6425303e-05  -1.3034830e-04   1.3328745e-05  -4.8309434e-05  -6.5937311e-05   9.4647388e-05   1.1835832e-04  -2.3530061e-05   7.0227434e-05  -1.2413666e-04  -8.2287961e-06  -4.7861777e-06   4.1834915e-05   3.0145824e-05  -1.1183934e-05   3.0258236e-06  -6.0868664e-05  -3.5564542e-06   2.3298846e-05   3.1837488e-05   3.8102698e-05   8.7758614e-05   4.2587384e-05   9.6688273e-05   6.5143366e-05   4.4613902e-05  -3.5517696e-05   6.1933759e-05   1.1966387e-06  -2.3828581e-05   1.9753043e-05   6.4043520e-04   2.2463262e-05
   1.7598068e-05   5.4025099e-05   4.1654912e-05   6.8158071e-05   2.0594644e-05   2.9510853e-05   4.7667520e-05   2.8061912e-05  -1.4950294e-06   4.8574020e-05   1.7790284e-05   8.8070599e-05   6.8140558e-05  -3.9502766e-06  -9.0690228e-05   3.9677401e-05   2.3857368e-05   1.0170439e-05   5.8899288e-05   1.7068660e-05  -5.8075988e-05  -4.8181471e-05   1.2855527e-04   8.6120104e-05  -2.6644702e-05   6.8784007e-05  -1.0628127e-04  -1.4275690e-05   5.5257144e-05   5.8193862e-05   3.4413802e-05  -1.2535550e-05  -9.6854619e-06  -4.1188079e-05   1.7768972e-06   3.1727002e-05   3.0568004e-05   5.2621199e-05   7.2819625e-05   3.5856596e-05   5.5774821e-05   8.0867561e-05   5.9292241e-05  -5.1796276e-05   3.7962400e-05   2.0905884e-05  -1.2000139e-05   6.6217603e-05  -2.1674366e-04  -3.1584965e-05
   1.4986247e-05   5.0830437e-05   4.3600492e-05   7.2872586e-05   3.0715128e-05   2.5847839e-05   7.0001006e-05   6.6088520e-05   6.6211651e-06   4.9084501e-05   1.0989209e-05   8.2179809e-05   6.4452921e-05  -3.6713084e-07  -6.7527908e-05   3.2035870e-05   3.0327856e-06   4.5557528e-07  -2.2226926e-05   1.5877133e-05  -3.9422921e-05  -3.9707975e-05   1.0039481e-04   7.6075106e-05   1.3073643e-05   7.4972319e-05  -5.4763135e-05  -2.4062570e-06   5.9999384e-05   4.3428176e-05   5.0203194e-05   9.1891343e-06   1.3072012e-05  -2.8825634e-05   3.8554945e-06   4.8171674e-05   2.7254835e-05   3.8483726e-05   7.7186749e-05   1.6500586e-05   7.3030809e-05   6.7609690e-05   5.0201306e-05  -2.8905508e-05   4.1361953e-05   2.6387432e-05   2.3615489e-06   4.5539800e-05   5.5201202e-05  -1.2888502e-06
   2.3867191e-05   6.0667364e-05   4.7616319e-05   6.7365989e-05   2.4012679e-05   2.8202972e-05   6.3087886e-05   6.0382408e-05   3.7180496e-07   5.2893316e-05   1.5290487e-05   9.1407732e-05   6.1117949e-05  -6.6527509e-06  -8.4835083e-05   2.6074116e-05   1.3445312e-05  -6.3763678e-06  -2.2697097e-05   1.6092879e-05  -3.6031535e-05  -3.6152982e-05   8.3395433e-05   8.7720982e-05  -1.2953337e-05   6.0341470e-05  -1.1715818e-04  -1.8166984e-05  -6.7768710e-06   3.8603615e-05   5.2701082e-05  -7.9092742e-06   5.1515763e-05  -3.0110965e-05  -5.6280810e-06   1.7202246e-05   2.5354238e-05   2.7349206e-05   6.0595288e-05   4.9330451e-05   8.0940990e-05   6.4323212e-05   4.4187829e-05  -2.9143210e-05   3.3563316e-05   8.5968732e-06  -5.9710965e-06   3.3001979e-06   4.4974920e-04  -3.5088156e-05
   2.0934147e-05   5.5547855e-05   4.3546657e-05   5.8053116e-05   2.7359962e-05   2.3391545e-05   4.8810209e-05   5.8431302e-05  -5.7905956e-05   4.7551894e-05   1.6955866e-05   9.2939328e-05   6.4197622e-05  -1.0323741e-05  -9.4899558e-05   1.6446846e-05   7.9888505e-06   5.2258106e-06  -1.0068489e-05   1.3516901e-05  -2.5765939e-05  -2.2771836e-05   9.4493225e-05   8.3910360e-05  -2.1269001e-05   4.5193898e-05  -1.3634766e-04  -1.1599881e-05   2.8084791e-05   4.2259264e-05   4.4926728e-05   3.3497804e-06   9.7153770e-07  -1.4975930e-05  -4.3344380e-06   1.9419118e-05   1.8372342e-05   3.6143036e-05   4.0429255e-05   2.2077611e-05   4.1901327e-05   7.0607995e-05   4.8945560e-05  -2.7851154e-05   1.0881235e-04  -2.6268301e-05  -2.8000408e-05   1.5636617e-05   4.1039835e-04   2.2375243e-04
  -7.0925392e-07   5.3522443e-05   4.3741111e-05   6.6943147e-05   2.8740440e-05   1.9390989e-05   5.9347782e-05   4.8789741e-05   2.3866503e-05   5.1747786e-05   6.3353773e-06   7.3084848e-05   5.8146958e-05  -6.0884663e-06  -8.6269465e-05   1.0466304e-05   1.4404496e-05   1.2888358e-05   5.1563584e-05   2.1215248e-05  -2.2707756e-05  -1.4366810e-05   7.0491733e-05   6.4879387e-05  -2.3536990e-05   5.1724757e-05  -1.0798754e-04  -6.1183878e-06   1.1213488e-05   4.0656822e-05   5.5631939e-05   5.0075487e-06   3.1761880e-05  -6.5431607e-07   4.3129089e-06   2.2564438e-05   1.3038576e-05   5.1129398e-05   9.7630764e-05   4.1119285e-05   8.1985403e-05   6.6186127e-05   4.1965548e-05  -2.7713873e-05   3.8601145e-05  -1.3048184e-05  -2.2640857e-05   3.5670699e-05   2.4696623e-04  -7.5184827e-05
   2.1863325e-05   6.2795771e-05   3.8724578e-05   7.2143215e-05   3.1883541e-05   2.3486835e-05   5.7465644e-05   7.0132817e-05   1.8790441e-05   8.2404462e-05   7.3916758e-06   8.8706227e-05   5.4307751e-05  -1.9985069e-05  -8.5034975e-05   2.4446883e-05   1.8660825e-05  -1.2068949e-06   1.2488359e-05   1.1808991e-05  -6.0810080e-06   3.8938510e-06   7.0904141e-05   8.8520486e-05  -5.4120997e-06   5.2763200e-05  -1.1053849e-04  -1.2357946e-05   1.2174344e-05   3.9969265e-05   4.4842938e-05  -5.1271541e-06   4.3328215e-05  -8.4114636e-06  -8.6096060e-07   2.4428840e-05   1.2608984e-05   2.9157687e-05   7.4803116e-05   3.1356471e-05   8.4577834e-05   6.9710048e-05   3.2619286e-05  -1.3434216e-05   6.6596018e-05   4.7911686e-05  -2.5205358e-05   4.7183425e-05  -1.6056973e-04  -1.8800603e-05
   7.0295227e-06   5.4361088e-05   3.8301667e-05   7.2860676e-05   2.2988328e-05   9.4374736e-06   5.0828163e-05   6.2006548e-05  -4.1719199e-05   4.8046422e-05   1.3736396e-05   8.2605999e-05   5.9957660e-05  -2.5014207e-05  -9.5856871e-05   2.7749496e-05   1.7184884e-05  -1.4228845e-06  -2.4606999e-05   2.9730905e-05   5.9488216e-06   6.6443718e-06   1.1124462e-04   7.5932345e-05  -9.7570717e-07   4.5495151e-05  -1.1887256e-04  -1.1300299e-05   5.1589224e-05   3.7203510e-05   8.7219378e-05  -8.1885537e-06   2.3693272e-05  -1.0464871e-05  -1.1235745e-05   2.7299931e-05  -3.6132963e-06   3.9326689e-05   5.8990903e-05   2.8930090e-06   5.1860530e-05   6.5961038e-05   5.5376851e-05  -3.6005044e-05  -1.9365054e-05   3.6363079e-05  -6.0745779e-06   2.6388270e-05   5.5116694e-04   1.1088081e-04
  -7.8814874e-06   4.8751583e-05   2.8616956e-05   6.3564417e-05   2.3901386e-05   1.7442357e-05   5.0100211e-05   4.6763413e-05  -1.0102597e-04   5.7589077e-05   8.5275515e-06   8.0917802e-05   5.4580731e-05  -9.1162210e-06  -8.7787339e-05   1.3532258e-05   1.9579265e-05   1.6488659e-05   7.3262367e-05   2.4964527e-05   3.5990449e-06   1.2194847e-05   9.0691719e-05   8.9423993e-05  -2.9534327e-05   4.6092155e-05  -8.8870569e-05  -2.8100228e-06   3.2250868e-05   2.2843897e-05   6.2607047e-05  -1.3633648e-05   2.0747169e-05  -6.2527961e-06   8.3845007e-06   2.9120847e-05   2.0899441e-05   5.6869820e-05   6.7947294e-05   7.7866598e-06   5.5148124e-05   7.1103081e-05   1.6173448e-05   1.3892341e-06   3.2578093e-05   3.2465374e-05  -6.1405121e-06   9.6201016e-05   5.7112041e-04   1.7003977e-04
