   7.3367701e-04   7.7723654e-04   2.5270678e-04   6.7859283e-04   9.4848138e-04   1.5879140e-04  -4.4368920e-04   7.0586411e-04   9.2267699e-04   2.1860693e-03   1.9241821e-03   1.2894871e-03   1.4509440e-03   6.2202156e-04  -7.4575032e-04   6.4670813e-04   5.8793591e-04   8.7406830e-04   3.0238440e-04   1.4098315e-03  -5.5041269e-04   9.1906212e-04   6.9952285e-04   6.4013101e-04  -1.9560654e-04  -8.7845995e-04  -5.3317979e-04  -4.3652023e-04   4.2241727e-04  -7.0608294e-05   1.8098230e-05   6.1750179e-04   1.0184514e-03   5.7515845e-04  -1.1172122e-03  -4.8292932e-04   5.0359929e-05   6.8205831e-05  -4.6977121e-04  -1.4844678e-04  -1.8785992e-03  -1.6236389e-03   3.2245647e-04   9.8933400e-05  -1.3700474e-04   1.2504883e-03   5.4660100e-05  -3.6981184e-04  -3.0464521e-03   9.0725586e-04
   5.8239780e-04   6.3082739e-04   1.5891896e-04   5.7160633e-04   8.5859641e-04   6.6188833e-05  -5.6435575e-04   6.2020629e-04   7.8631856e-04   1.9679174e-03   1.7999556e-03   1.1430831e-03   1.3821477e-03   5.8816996e-04  -7.5825892e-04   5.3581520e-04   4.9010967e-04   7.9655845e-04   1.4673897e-04   1.2908521e-03  -6.4546149e-04   7.9880439e-04   5.0671824e-04   4.6534979e-04  -3.1862821e-04  -1.0275263e-03  -5.5264763e-04  -5.2567100e-04   2.6806060e-04  -1.8015252e-04  -1.5661784e-04   4.6148521e-04   7.6235988e-04   3.8776934e-04  -1.2256973e-03  -6.1490957e-04  -5.0643157e-05  -1.0485054e-04  -6.6567265e-04  -3.1057108e-04  -1.9448469e-03  -1.6752942e-03   1.0463811e-04  -6.9401431e-05  -1.9019119e-04   1.3448407e-03   1.0300645e-04  -3.1339627e-04  -2.8915245e-03   9.3544589e-04
   6.8588380e-04   7.3380134e-04   2.1056127e-04   6.9231004e-04   9.2076568e-04   1.9180030e-04  -3.7798830e-04   7.4965134e-04   9.0880267e-04   2.0847477e-03   1.8006364e-03   1.3986399e-03   1.4911526e-03   7.0191489e-04  -6.5016415e-04   5.8386539e-04   5.7622296e-04   8.5100561e-04   3.0029644e-04   1.4245803e-03  -5.2352250e-04   9.8575884e-04   7.2780001e-04   7.8636169e-04  -9.6527911e-05  -7.3491357e-04  -4.9327780e-04  -3.2626168e-04   4.8623374e-04   8.7742519e-05   1.0865350e-04   6.6490058e-04   1.1212790e-03   6.9288595e-04  -9.6023706e-04  -3.6663417e-04   1.2689906e-04   2.6276259e-04  -2.6710692e-04  -3.3217650e-05  -1.4739722e-03  -1.2704760e-03   4.8457785e-04  -1.9965264e-05   5.4500408e-05   1.6618981e-03   1.7005770e-04  -8.0738442e-05  -2.7988639e-03   1.2127408e-03
   5.8706471e-04   6.6072808e-04   2.3657348e-04   6.4829312e-04   8.5772097e-04   1.4199183e-04  -4.2425349e-04   6.7638425e-04   8.2920358e-04   1.9230666e-03   1.7582349e-03   1.2768222e-03   1.4788758e-03   7.3795702e-04  -5.9160823e-04   5.7195028e-04   5.7772780e-04   9.0980122e-04   8.2051956e-05   1.3411453e-03  -6.0406141e-04   9.2426484e-04   6.8827835e-04   6.4230774e-04  -1.3189287e-04  -7.7020033e-04  -4.4715565e-04  -3.4930086e-04   4.4193107e-04   5.7414876e-05   3.1951444e-05   6.0760690e-04   9.4767602e-04   5.7613698e-04  -9.9649758e-04  -4.2856560e-04   8.7311455e-05   1.8038170e-04  -3.7681859e-04  -1.0422040e-04  -1.5783675e-03  -1.3620751e-03   4.5324772e-04  -7.7635785e-05  -7.9536789e-05   1.7233193e-03   8.6972927e-05  -1.4726873e-04  -3.0802181e-03   1.0738715e-03
   3.9879442e-04   4.2453321e-04   6.1046492e-05   4.7854020e-04   6.8743376e-04  -5.4727741e-05  -6.1825430e-04   5.0634675e-04   5.9236953e-04   1.6304895e-03   1.5334544e-03   1.0243994e-03   1.3595483e-03   6.4833660e-04  -6.2544033e-04   5.2372029e-04   5.0956616e-04   7.9425832e-04   1.6175653e-04   1.2606953e-03  -6.4829213e-04   9.0095558e-04   6.8319723e-04   7.1855227e-04  -6.7163441e-05  -6.6097430e-04  -3.7687828e-04  -3.1141727e-04   4.8039883e-04   1.4075727e-04   9.2479779e-05   6.2718085e-04   1.0846391e-03   7.3252723e-04  -8.3932903e-04  -3.2187806e-04   1.3759406e-04   3.5399926e-04  -1.4135664e-04   9.4283379e-05  -1.2946284e-03  -1.1100548e-03   7.5816119e-04   1.5634144e-04   2.1433319e-05   2.0788638e-03   4.0703561e-04   2.2793881e-04  -2.8595768e-03   1.5229527e-03
   8.0976478e-04   6.1963068e-04   5.1244942e-04   7.1691402e-04   8.0445502e-04   2.9762473e-04  -2.0726731e-05   7.9489843e-04   8.4502582e-04   1.5837702e-03   1.3993675e-03   1.2406571e-03   1.4241538e-03   6.4337236e-04  -3.7848522e-04   8.9174905e-04   6.8774907e-04   9.4682002e-04  -3.7756786e-04   8.3516637e-04  -1.8975374e-04   1.6688751e-03   7.8059215e-04   8.1178895e-04   3.8041238e-04  -7.1767856e-05  -2.2360147e-04  -3.4212580e-04   4.8034397e-04   3.3878343e-04   5.1859638e-04   5.1527744e-04   7.0887222e-04   5.1703816e-04  -5.0427677e-04  -3.6385650e-04  -2.2629232e-04   4.7428574e-04   2.3989573e-04   2.6749159e-04  -6.4191868e-04  -4.6721988e-04   5.9764727e-04   1.5643178e-04   8.2562674e-06   1.7340136e-03   3.2413448e-04   3.7139485e-04  -2.7355193e-03   1.1102757e-03
   8.1663544e-04   2.5552270e-04   3.1172577e-04   8.5902924e-04   3.9839346e-04   3.2229518e-04   6.2936061e-04   4.7819564e-04   5.8253761e-04   5.5863126e-04   4.7049401e-04   1.0636915e-03   7.0383021e-04   3.8346805e-04  -1.6551936e-04   3.0890424e-04   3.5012167e-04   8.6376641e-04  -4.4794424e-04   4.8558539e-04  -8.6047663e-04   1.5426980e-03   6.4630498e-04   6.0468342e-04   2.7431018e-04   5.7100191e-05  -3.9803135e-04  -3.3806017e-04   4.8439598e-04   4.3966880e-04   5.0688343e-04   4.9781374e-04   5.7217234e-04   4.3824196e-04  -5.1066489e-04  -4.4289409e-04  -4.4683722e-04   4.0712062e-04   1.8228567e-04   2.1022106e-04  -7.7398733e-04  -3.7802005e-04   4.5961348e-04   1.6009454e-04   4.2358533e-05   1.7691357e-03   2.4022846e-04   2.0527064e-04  -2.7418933e-03   1.1313851e-03
   8.3799241e-04   4.9137452e-04   2.8963111e-04   9.6827734e-04   4.7702956e-04   4.4687820e-04   7.3459867e-04   5.9173338e-04   7.2784896e-04   8.5139932e-04   5.4563751e-04   1.1711261e-03   7.5186178e-04   3.5406646e-04  -1.0844582e-04   4.8901018e-04   4.9918715e-04   9.7186334e-04   7.3376963e-05   7.4609823e-04  -6.5230142e-04   1.6294005e-03   8.8832056e-04   9.6168480e-04   5.5870874e-04   2.2786825e-04  -2.5017263e-04  -1.3596095e-04   7.3205755e-04   5.7856331e-04   8.4590359e-04   7.7460764e-04   1.1322409e-03   8.1248925e-04  -2.8744430e-04  -2.2564978e-04  -2.4129472e-04   6.8842602e-04   4.2820367e-04   4.8364254e-04  -4.5343704e-04  -1.9665490e-04   6.7883072e-04   3.1489081e-04  -7.5754592e-06   1.3135077e-03   3.8570850e-04   3.3881018e-04  -2.5853179e-03   6.6407339e-04
   8.5894577e-04   4.9498683e-04   4.1952642e-04   1.0166133e-03   4.8493763e-04   3.8016445e-04   7.7936065e-04   6.3746865e-04   8.0043462e-04   1.0153799e-03   7.0382911e-04   1.2431981e-03   7.5717375e-04   4.0156266e-04  -5.4534303e-05   7.7942829e-04   5.6303025e-04   1.0085263e-03  -3.3027655e-04   5.9821317e-04  -5.0036248e-04   1.9756490e-03   7.9554302e-04   1.0160896e-03   5.4269901e-04   2.1167297e-04  -1.1728315e-04  -1.1381080e-04   6.3004636e-04   5.8615964e-04   7.1476813e-04   6.5118761e-04   9.2918472e-04   6.9975702e-04  -2.8832015e-04  -2.3014740e-04  -3.1642168e-04   5.5110466e-04   3.6888485e-04   3.5578769e-04  -4.8118716e-04  -1.7493314e-04   6.0741277e-04   3.1744083e-04   2.7136941e-05   1.2592449e-03   1.3098260e-04   1.4452357e-04  -2.8308015e-03   4.2504148e-04
   6.1914307e-04   3.2887046e-04   1.9419713e-04   8.2208577e-04   3.4371944e-04   1.8130353e-04   5.1157369e-04   4.4889131e-04   7.0309424e-04   9.4710366e-04   5.6572142e-04   1.0882628e-03   6.3204468e-04   2.5135253e-04  -1.3724156e-04   6.7396648e-04   5.0132477e-04   9.4633526e-04   6.2957511e-06   7.8295730e-04  -7.2525145e-04   1.5028979e-03   8.4681879e-04   1.0809670e-03   5.3674262e-04   2.3501145e-04  -1.1256769e-04  -4.3000542e-05   6.7465537e-04   6.1925378e-04   7.9619716e-04   7.3775335e-04   1.2246526e-03   8.6936500e-04  -2.2332852e-04  -1.5899296e-04  -1.8028647e-04   7.0168369e-04   4.7281286e-04   5.1368080e-04  -3.2281631e-04  -9.2393842e-05   8.9015247e-04   5.0507311e-04   8.3621526e-05   1.3082091e-03   2.6173229e-04   3.9334025e-04  -2.6099801e-03   4.6058212e-04
   8.2788971e-04   6.3360122e-04   4.8019213e-04   1.0609664e-03   5.3600903e-04   3.9849791e-04   6.8085961e-04   7.0432940e-04   9.8410645e-04   1.3061205e-03   8.7424653e-04   1.2654279e-03   8.4865058e-04   3.7279387e-04  -4.8709986e-05   8.4991381e-04   5.7074270e-04   1.0302396e-03  -1.7234788e-04   7.4241147e-04  -3.7899960e-04   1.9040534e-03   8.5687346e-04   1.0916871e-03   5.7444972e-04   1.8711016e-04   5.6759359e-06  -2.5019155e-05   6.9725455e-04   6.0921180e-04   7.0619246e-04   7.0298184e-04   1.0891922e-03   8.8306097e-04  -2.3370188e-04  -1.2660798e-04  -1.1077316e-04   6.1074446e-04   3.9632534e-04   4.0770837e-04  -3.8565582e-04  -1.5356194e-04   8.1948214e-04   4.1084280e-04   7.3291545e-07   1.1710410e-03   2.0670396e-04   2.9176552e-04  -2.6786679e-03   4.4446709e-04
   5.9407414e-04   3.6580910e-04   3.8250868e-04   8.3024299e-04   4.0822080e-04   2.2731328e-04   4.4861602e-04   5.8376312e-04   8.3927636e-04   1.1205240e-03   7.9439231e-04   1.0114803e-03   8.1248849e-04   3.0734172e-04  -1.2647685e-04   8.2697411e-04   4.6893265e-04   9.0795179e-04  -3.1470624e-04   6.7396968e-04  -7.3331338e-04   1.8016326e-03   7.1071694e-04   8.6418726e-04   3.1624560e-04  -1.3769932e-05  -3.8986243e-05  -1.5903135e-04   5.2425498e-04   4.6762160e-04   3.8652844e-04   4.5394935e-04   9.1631879e-04   6.9292355e-04  -4.2784400e-04  -2.6686757e-04  -2.0083292e-04   3.5291910e-04   1.3557734e-04   1.4760527e-04  -4.9731007e-04  -2.0967824e-04   8.3512155e-04   4.3128050e-04  -6.2638821e-05   8.2197919e-04   2.7341521e-04   3.8149577e-04  -2.6052543e-03   2.7535841e-04
   6.1707041e-04   5.6079344e-04   3.6406517e-04   9.0211682e-04   5.5390049e-04   3.3692393e-04   3.8089624e-04   6.8090024e-04   1.0640811e-03   1.5475733e-03   9.2826464e-04   1.4196960e-03   9.6746965e-04   4.7456188e-04  -9.4607145e-05   8.2908705e-04   5.1290024e-04   1.0055967e-03   4.1791340e-05   9.2426775e-04  -3.8405397e-04   1.8610599e-03   9.2124607e-04   1.2654427e-03   4.9327430e-04   2.0853394e-04   5.4826447e-05   5.3335811e-05   7.1449432e-04   6.2091718e-04   6.0099183e-04   6.7443942e-04   1.1861769e-03   1.0070192e-03  -1.9638370e-04  -5.0035389e-05   5.2706153e-05   5.5375026e-04   3.0343252e-04   2.5477796e-04  -3.2766940e-04  -7.3819152e-05   9.7011554e-04   4.3586260e-04  -2.8383130e-05   9.9023257e-04   2.7940256e-04   3.6974551e-04  -3.0295525e-03   3.1417178e-04
   6.1192969e-04   6.5533508e-04   2.9466549e-04   9.0024277e-04   5.7002530e-04   3.3361017e-04   2.8484815e-04   6.4636889e-04   9.4317109e-04   1.5339369e-03   1.0170977e-03   1.4181226e-03   9.9733449e-04   5.2022154e-04  -5.5223751e-05   7.5666461e-04   4.7968532e-04   1.0135624e-03   2.9534436e-05   8.9630694e-04  -3.9385879e-04   1.6246202e-03   8.8933099e-04   1.1513231e-03   4.0667062e-04   1.6657254e-04   8.0328655e-06   5.8389587e-06   6.3053408e-04   5.7665556e-04   4.5974547e-04   5.9860654e-04   9.9522562e-04   8.5246435e-04  -2.3893949e-04  -1.0222811e-04   1.3650162e-05   4.5935239e-04   2.0310566e-04   1.4876806e-04  -3.2436251e-04  -1.0804871e-04   8.3051418e-04   2.9656495e-04  -8.7188811e-05   9.9413865e-04   2.1810818e-04   2.9583534e-04  -2.5810071e-03   1.5660112e-04
   4.2944250e-04   4.2690162e-04   1.1718510e-04   7.1172119e-04   4.2240752e-04   1.6825671e-04   5.6465076e-05   4.4055190e-04   7.5146393e-04   1.2210814e-03   8.6285378e-04   1.1599290e-03   8.7042269e-04   4.4031133e-04  -1.1602952e-04   6.2401389e-04   3.9534576e-04   9.0520881e-04  -9.6399242e-05   8.4202125e-04  -3.9992167e-04   1.5813289e-03   8.7818340e-04   1.1678251e-03   4.0373049e-04   2.3808274e-04  -9.4831021e-06   3.3556949e-05   6.5240893e-04   6.0242537e-04   5.2252389e-04   6.2921364e-04   1.0819447e-03   9.6702576e-04  -1.3998373e-04   1.8458340e-05   6.0690305e-05   5.8619573e-04   3.7401301e-04   3.2349929e-04  -1.0688038e-04   6.2963823e-05   9.9544250e-04   4.9599766e-04   3.1125455e-05   1.0965678e-03   4.7952528e-04   6.4943894e-04  -2.6039500e-03   3.4099867e-04
   7.3298899e-04   7.0966303e-04   3.3049574e-04   9.8065799e-04   6.3584407e-04   4.2664012e-04   3.7731830e-04   7.1789784e-04   1.0786433e-03   1.6154228e-03   1.0111869e-03   1.4810179e-03   1.0546902e-03   5.9067184e-04   1.7970646e-05   7.0476229e-04   4.9429142e-04   9.7794621e-04  -1.9860563e-05   8.9670764e-04  -2.6242802e-04   1.6293465e-03   9.2797284e-04   1.2649713e-03   5.0175545e-04   3.3876795e-04   5.1233703e-05   1.0063513e-04   6.9697638e-04   6.8068143e-04   5.3713500e-04   6.3718576e-04   1.0076049e-03   9.4422174e-04  -6.5880471e-05   9.5389536e-05   1.4191307e-04   5.8354391e-04   4.0744248e-04   2.6256216e-04  -7.1647337e-05   9.4822382e-05   9.2320918e-04   4.4554900e-04  -1.2126444e-04   1.0243441e-03   4.5152352e-04   5.8436702e-04  -2.7076337e-03   2.7412889e-04
   5.6088675e-04   5.3642597e-04   2.1427024e-04   8.3349977e-04   5.1950576e-04   3.0336861e-04   2.0780654e-04   5.8427831e-04   8.7399501e-04   1.4050202e-03   9.1668341e-04   1.2665448e-03   9.8353147e-04   5.3554442e-04  -2.6345584e-05   5.7833956e-04   3.8539976e-04   9.1755012e-04  -2.4668567e-04   7.6585734e-04  -3.5420072e-04   1.4451524e-03   7.9635571e-04   1.0737160e-03   3.7763602e-04   1.9091877e-04  -7.1241113e-05   1.1446255e-05   5.5849570e-04   5.8191502e-04   3.2848350e-04   4.8164563e-04   7.9860399e-04   7.5140764e-04  -1.6957408e-04   2.9304906e-06   6.1200823e-05   3.7232786e-04   2.2703754e-04   8.1077116e-05  -1.1215337e-04  -1.3790047e-05   6.7912688e-04   3.0283953e-04  -2.2017823e-05   9.5893047e-04   2.9573098e-04   4.6631158e-04  -2.5852246e-03   3.5701491e-04
   4.9637351e-04   4.2199256e-04   1.8381776e-04   8.1991608e-04   5.1911763e-04   3.6981649e-04   2.6586876e-04   6.3734729e-04   9.6405030e-04   1.5457304e-03   9.1942656e-04   1.3022460e-03   1.0441584e-03   5.7029404e-04  -9.2149276e-06   6.0775562e-04   4.0527689e-04   9.1449148e-04   5.7279238e-05   8.0031663e-04  -2.6896148e-04   1.5261223e-03   8.8855054e-04   1.2268476e-03   4.5779735e-04   2.6829119e-04  -1.9543626e-05   9.1762551e-05   7.0558069e-04   6.9024204e-04   4.7569303e-04   5.7230121e-04   9.4739068e-04   9.4023591e-04  -4.0749153e-05   1.3173763e-04   2.2957579e-04   6.5006356e-04   4.7119247e-04   3.2251014e-04  -7.3904695e-05   1.1396416e-04   9.3947159e-04   4.0727152e-04   9.6362610e-06   1.2804178e-03   4.1263446e-04   6.3311105e-04  -2.4764705e-03   4.7215508e-04
   5.7059200e-04   5.1122124e-04   1.8271149e-04   8.3268422e-04   5.2017864e-04   3.5763448e-04   3.3208102e-04   6.2635553e-04   8.2530692e-04   1.2785873e-03   7.6680171e-04   1.2561582e-03   1.0007306e-03   5.0193368e-04   2.3189077e-05   5.3673395e-04   3.5696622e-04   8.7840419e-04  -1.2905970e-04   7.1012607e-04  -2.5548012e-04   1.4290792e-03   8.3279092e-04   1.0241393e-03   4.7167341e-04   3.1939000e-04  -4.6346246e-05   3.0295705e-05   5.7644281e-04   6.2699139e-04   4.4891058e-04   5.0484872e-04   7.5212820e-04   7.0459652e-04  -7.2004812e-05   2.1131338e-05   7.8166187e-05   5.2845327e-04   3.9078391e-04   2.5385423e-04  -1.5255985e-04  -4.9495182e-05   6.9350109e-04   2.0527602e-04  -3.0821524e-05   1.2402649e-03   2.4614140e-04   4.9792416e-04  -2.6103982e-03   2.3818867e-04
   4.6356008e-04   3.6798869e-04   2.2424158e-05   6.8893464e-04   3.7160265e-04   1.8704924e-04   1.6596343e-04   3.8907552e-04   5.8992265e-04   1.0231619e-03   5.3734536e-04   9.6243707e-04   7.1910472e-04   3.2812165e-04  -1.0132953e-04   3.6132275e-04   2.0527485e-04   7.4117479e-04  -2.9314967e-04   5.4463511e-04  -3.2478187e-04   1.2257746e-03   6.2265521e-04   7.4644026e-04   2.5530616e-04   1.1907120e-04  -1.6480463e-04  -9.0355985e-05   4.5318899e-04   4.6757166e-04   3.6138439e-04   4.2010925e-04   7.8466709e-04   6.6136708e-04  -1.1713130e-04  -1.3892312e-05   6.3127707e-05   5.0953147e-04   3.5701325e-04   2.0628017e-04  -2.4651882e-04  -1.0710372e-04   8.0691249e-04   8.7534179e-05  -4.5017558e-05   9.3141122e-04   2.8854530e-04   4.4784250e-04  -2.6123279e-03   3.3062749e-04
   6.4490415e-04   6.0456630e-04   1.7181592e-04   8.4717706e-04   5.3776067e-04   3.9277590e-04   3.3873157e-04   5.9653033e-04   7.7496649e-04   1.4321135e-03   7.4108428e-04   1.2482727e-03   8.5494772e-04   4.3169555e-04  -8.7322893e-05   4.8839848e-04   3.1457740e-04   8.0041209e-04   3.1314885e-05   7.3555706e-04  -9.9201265e-05   1.3202877e-03   7.9853227e-04   1.0617905e-03   3.9882469e-04   2.6098045e-04  -1.4436634e-04   1.3750745e-05   5.3520157e-04   5.7657372e-04   3.7560781e-04   4.6318874e-04   9.8006125e-04   7.2800583e-04  -1.7830314e-05   7.4086536e-05   1.6135807e-04   5.0236023e-04   3.3891661e-04   1.9131275e-04  -2.5675105e-04  -7.9750484e-05   7.7802659e-04   2.0269932e-04  -9.0130408e-05   8.6058391e-04   2.7016920e-04   4.2099247e-04  -2.6621066e-03   1.6210973e-04
   6.8400742e-04   5.8468134e-04   1.8966412e-04   8.9873478e-04   5.1132409e-04   3.9464654e-04   6.0468412e-04   5.2965007e-04   7.2118046e-04   1.1675204e-03   5.1494536e-04   1.1873608e-03   6.7583343e-04   1.8743423e-04  -7.4355172e-05   4.1580421e-04   2.5970078e-04   7.5768080e-04  -1.4815418e-04   6.5292529e-04  -3.3047644e-04   1.2091807e-03   7.3663227e-04   9.3546323e-04   4.4349013e-04   2.7561240e-04  -1.7280612e-04  -2.9083358e-05   4.5968071e-04   5.5985962e-04   5.0940568e-04   4.4377684e-04   7.5022504e-04   4.2812544e-04  -1.2381653e-04  -1.2774150e-04  -7.4186915e-05   2.3333603e-04   2.6471453e-04   1.2399904e-04  -4.6878963e-04  -4.3017813e-04   3.8960646e-04   1.1751195e-04  -3.6107664e-04   4.2342592e-04   1.8348617e-05   1.7740254e-04  -2.5456834e-03  -8.0451027e-05
   7.5431209e-04   5.2672520e-04   1.9924484e-04   9.5171534e-04   4.6210783e-04   4.2524896e-04   6.6829717e-04   4.8974255e-04   7.1822567e-04   1.3587730e-03   4.4477740e-04   1.1957904e-03   4.9595739e-04   1.2152539e-04  -1.5527663e-04   3.1341953e-04   2.0841953e-04   7.1860384e-04   1.0259875e-04   5.9204374e-04  -6.9509559e-05   1.2293023e-03   7.0121582e-04   1.0209236e-03   4.2433993e-04   3.4073420e-04  -2.4370590e-04   3.8797109e-05   5.0622958e-04   6.3351286e-04   5.8627431e-04   5.7650526e-04   9.1971591e-04   5.9559452e-04   2.6280535e-05   6.3990730e-05   8.3813444e-05   5.5910862e-04   4.9371639e-04   2.7369134e-04  -2.2536935e-04  -2.3556700e-04   6.3460338e-04   1.9568586e-05  -1.8635661e-04   7.7796186e-04   9.7414122e-05   2.6329097e-04  -2.6097507e-03  -2.0208114e-05
   6.7848171e-04   5.9510360e-04   9.9259189e-05   8.9161133e-04   4.3086908e-04   3.7226043e-04   5.0685782e-04   4.7896858e-04   6.6973822e-04   1.2342661e-03   4.7660735e-04   1.1632055e-03   5.5614300e-04   1.9743585e-04  -9.1372414e-05   2.5165503e-04   1.9500486e-04   7.2705635e-04  -4.2608735e-05   5.3260982e-04   4.1205618e-05   1.2308606e-03   6.6176656e-04   8.8467030e-04   4.2701571e-04   3.0210757e-04  -2.1155419e-04   2.6970110e-05   4.8243659e-04   5.5097399e-04   4.6999514e-04   5.2490621e-04   7.9489185e-04   4.8948883e-04   5.1592510e-06   1.0423130e-05   4.1807125e-05   4.9342151e-04   3.4990229e-04   2.1964822e-04  -3.9535563e-04  -3.2478679e-04   4.9167714e-04   5.9530917e-05  -7.2299932e-05   5.8913289e-04  -1.2135210e-05   1.3145219e-04  -2.8511402e-03  -1.1649102e-04
   5.3257227e-04   4.4346644e-04  -5.0592607e-05   7.0643751e-04   2.8838046e-04   2.1558069e-04   2.8713432e-04   3.4550243e-04   4.4403656e-04   1.0004052e-03   3.5165416e-04   9.2580373e-04   4.2673716e-04   8.4576008e-05  -1.8032442e-04   1.9696390e-04   1.4169959e-04   6.2034553e-04  -7.8840487e-05   4.9670774e-04   1.0156563e-04   1.2538320e-03   6.5509829e-04   8.6324912e-04   3.7277903e-04   2.4115291e-04  -2.4139404e-04  -8.2646220e-06   4.6018351e-04   5.1435799e-04   5.5007474e-04   5.0833391e-04   8.6626230e-04   5.6527724e-04   1.6338634e-05   5.0236649e-05   7.5146578e-05   5.5701518e-04   4.4254400e-04   2.6656489e-04  -3.0606549e-04  -2.5383601e-04   6.8517897e-04   2.0393087e-04   1.0520735e-06   8.5596310e-04   1.6369825e-04   3.8733854e-04  -2.3799052e-03   8.6710097e-05
   8.0531958e-04   6.5791380e-04   1.8146489e-04   1.0237303e-03   4.3552689e-04   4.4856773e-04   7.5642095e-04   5.5600947e-04   7.1628595e-04   1.2514963e-03   4.4340061e-04   1.0629164e-03   5.5428181e-04   8.0472884e-05  -8.6848304e-05   3.3001689e-04   2.3319888e-04   6.6514034e-04  -2.0581774e-05   4.3607259e-04   1.7528122e-04   1.4224885e-03   7.2870107e-04   8.5864740e-04   4.9675518e-04   2.5095791e-04  -1.8896062e-04  -1.5171640e-05   4.5992548e-04   5.5456470e-04   6.0974946e-04   4.6383543e-04   8.2011061e-04   4.5144462e-04  -4.5046952e-05  -5.4578333e-05   1.0081926e-05   4.6837836e-04   3.8086140e-04   2.6836831e-04  -4.7301539e-04  -4.2176276e-04   5.7443400e-04   1.3576954e-04  -1.5552880e-04   5.9898774e-04  -3.4257300e-05   1.5389630e-04  -2.4514799e-03  -1.1317192e-05
   5.5504282e-04   3.7185484e-04   2.2358869e-05   7.7727350e-04   2.5815776e-04   2.2518518e-04   4.8597972e-04   3.6433520e-04   5.4636458e-04   9.6338528e-04   3.2620455e-04   8.4097305e-04   3.8939100e-04  -5.1741328e-05  -2.3704917e-04   3.0090232e-04   1.3560579e-04   5.7961885e-04  -2.5722495e-04   3.4105463e-04   9.9422869e-05   1.2186177e-03   4.6240760e-04   6.0862867e-04   2.4026667e-04   2.0582338e-05  -2.5154790e-04  -2.1341306e-04   2.7916429e-04   3.2904392e-04   3.8783610e-04   2.5042184e-04   5.8815646e-04   2.0556315e-04  -2.7862651e-04  -2.4871741e-04  -1.5233175e-04   2.3980500e-04   1.1092341e-04   7.1769078e-05  -8.4048510e-04  -6.8162609e-04   3.1240506e-04  -2.5459591e-04  -1.5073319e-04   9.8416221e-04  -1.7413752e-04  -4.1036383e-05  -2.5075274e-03   5.4168724e-04
   6.3919864e-04   5.0259929e-04  -1.7549781e-05   8.3788956e-04   3.0228720e-04   3.4591139e-04   5.9999229e-04   4.7993936e-04   6.0339848e-04   1.0670137e-03   3.7329594e-04   8.5448322e-04   5.1187980e-04  -3.1578831e-05  -2.2550327e-04   3.6668798e-04   2.1925324e-04   6.1166100e-04   1.0951154e-04   4.9107289e-04   2.7170638e-04   1.4400071e-03   5.9930433e-04   7.7839778e-04   3.8624427e-04   6.0253431e-05  -2.0964896e-04  -1.8565048e-04   4.0812709e-04   3.4425914e-04   5.5839441e-04   4.1978731e-04   8.8829576e-04   4.3395703e-04  -2.1136763e-04  -1.2820410e-04  -1.0674591e-05   4.4948660e-04   2.8724235e-04   2.5943926e-04  -8.6398912e-04  -7.1463699e-04   4.0050707e-04  -3.7881441e-04  -4.9370483e-05   9.6330303e-04  -1.1711449e-04  -1.2859156e-04  -2.5301320e-03   5.9592776e-04
   5.3579174e-04   4.8448375e-04   1.2458701e-05   6.9845060e-04   2.7946811e-04   2.4618232e-04   3.9426278e-04   4.4315896e-04   6.5686333e-04   1.0135211e-03   4.2140094e-04   7.3841191e-04   5.6572497e-04  -3.4060631e-05  -2.7311788e-04   3.9394124e-04   2.1858924e-04   5.4152647e-04  -9.9262485e-05   4.5628296e-04   1.7997508e-04   1.3765179e-03   5.0913193e-04   6.0987915e-04   2.2447873e-04  -1.5663209e-04  -2.0257686e-04  -3.2187419e-04   2.1271713e-04   1.8220329e-04   3.7403029e-04   2.7787904e-04   7.4206339e-04   2.9741993e-04  -3.9863968e-04  -2.8573224e-04  -8.1151040e-05   2.5204432e-04   1.3630496e-05   7.9341749e-05  -9.9817570e-04  -8.2906510e-04   1.6752885e-04  -4.6014920e-04  -2.7018724e-04   7.5208984e-04  -1.7072332e-04  -3.3599333e-04  -2.6565082e-03   4.2581107e-04
   3.3219223e-04   2.5427487e-04  -1.4748049e-04   4.8744818e-04   1.3756174e-04   7.5115895e-06   9.1684953e-05   2.5747766e-04   4.6117778e-04   8.9990423e-04   2.7892808e-04   4.4524146e-04   4.8551417e-04  -1.5468344e-04  -4.3437467e-04   3.6837027e-04   1.5421036e-04   4.2281166e-04  -1.5201716e-04   4.1501928e-04   2.5262751e-04   1.3415124e-03   3.4682170e-04   5.4101850e-04   1.2589837e-04  -3.0106623e-04  -2.4435238e-04  -4.3177814e-04   1.2252168e-04   7.1463692e-05   3.8814874e-04   2.1788526e-04   7.7114569e-04   3.7597050e-04  -4.4090234e-04  -3.0046926e-04  -1.1319394e-04   2.6264659e-04   6.7109984e-05   8.7530170e-05  -1.0058549e-03  -7.9216604e-04   3.5328345e-04  -4.5526228e-04  -1.7162983e-04   7.0028473e-04  -5.4443455e-05  -9.2870847e-05  -2.6040915e-03   6.2256469e-04
   5.4881093e-04   5.8521744e-04   3.7111666e-05   6.7180907e-04   3.1919102e-04   2.4436592e-04   2.7681838e-04   4.8434897e-04   6.3780736e-04   1.3993365e-03   4.2148007e-04   6.9792732e-04   7.3387532e-04   2.3423814e-05  -3.5215489e-04   4.6443095e-04   2.5155797e-04   5.3114875e-04  -1.4130610e-04   5.2405463e-04   5.9463683e-04   1.4460285e-03   4.4011589e-04   5.3669728e-04   1.2848420e-04  -3.1744377e-04  -2.6007582e-04  -4.0329437e-04   1.3266569e-04   7.7476507e-05   2.6239085e-04   2.0814467e-04   7.3473889e-04   4.4301763e-04  -4.5128708e-04  -2.7140920e-04  -3.9664395e-05   2.1696642e-04  -1.7767228e-05  -8.4890016e-06  -8.4491586e-04  -6.3295430e-04   4.9166055e-04  -2.8850586e-04  -1.4734930e-04   8.9291472e-04   3.7254660e-05   2.4865476e-05  -2.5870115e-03   4.0704737e-04
   2.6945345e-04   3.5670021e-04  -6.5871296e-05   4.2112175e-04   2.0749454e-04   4.5155168e-05  -6.8714806e-05   2.9838900e-04   4.3936743e-04   1.1122754e-03   3.3174752e-04   6.6322321e-04   7.0115965e-04   6.8180911e-05  -3.7144180e-04   2.6511715e-04   1.1041867e-04   4.3583568e-04  -4.3664075e-04   3.7519445e-04   3.9921541e-04   1.3332826e-03   3.5016143e-04   4.0876627e-04  -7.5364347e-05  -3.3821180e-04  -3.6843732e-04  -4.0211258e-04   4.4313612e-05   5.6570392e-05   3.7553520e-05   1.0245385e-04   4.3631913e-04   3.1901035e-04  -4.9406086e-04  -3.0799370e-04  -8.7795757e-05   7.7661432e-05  -1.7085420e-04  -1.8182780e-04  -7.2119321e-04  -5.3899485e-04   3.6564539e-04  -3.8245154e-04  -3.7889421e-04   7.7915785e-04  -2.1342114e-05   2.3198432e-05  -2.5839582e-03   3.6176227e-04
   2.1469308e-04   2.6397593e-04  -7.5118813e-05   4.6007027e-04   2.2143609e-04   1.1729696e-04   1.2850146e-05   3.5780313e-04   5.3978863e-04   1.1381704e-03   3.4946346e-04   8.5261284e-04   7.7054289e-04   1.7076892e-04  -2.7929267e-04   2.6178500e-04   1.3208998e-04   5.0157704e-04  -1.2644315e-04   4.7786991e-04   5.7650672e-04   1.4446166e-03   4.6936891e-04   6.3389412e-04   6.5824453e-05  -8.7416141e-05  -3.3928730e-04  -2.1691817e-04   1.8483594e-04   2.5709736e-04   2.8304910e-04   2.6796557e-04   6.8501249e-04   5.5374327e-04  -2.8763636e-04  -8.6520464e-05   8.0994294e-05   3.0431451e-04   1.4541703e-04   9.1711139e-05  -4.1080412e-04  -1.8865950e-04   7.2219851e-04  -9.6761556e-05  -1.0491577e-04   8.3009456e-04   2.7484164e-04   3.8352096e-04  -2.3881036e-03   2.7782502e-04
   2.4734193e-04   3.5832325e-04  -3.7745067e-05   4.8320656e-04   2.3266238e-04   8.6097731e-05  -2.6013766e-05   3.4791304e-04   4.9457588e-04   1.0720649e-03   4.1017873e-04   8.5762463e-04   7.9204747e-04   2.3752774e-04  -2.3193067e-04   2.7160413e-04   1.4423815e-04   5.0874497e-04  -3.0182285e-04   4.9916405e-04   6.1338820e-04   1.3540557e-03   4.4717226e-04   6.0877105e-04   7.0321483e-05  -7.4190444e-05  -2.8146102e-04  -1.9357383e-04   1.2978209e-04   2.6742608e-04   1.5551031e-04   2.1127818e-04   4.9362396e-04   4.8349169e-04  -2.8908276e-04  -1.2164583e-04   7.4457486e-05   1.9483427e-04   1.1019689e-05  -1.8563433e-05  -4.5439007e-04  -2.4067113e-04   5.8297778e-04  -1.6202136e-04  -3.1684883e-06   6.9186499e-04   2.1655597e-04   2.6544533e-04  -2.4791942e-03   1.1822036e-04
   6.9380949e-05   1.8582155e-04  -1.6500035e-04   3.5466859e-04   1.0954815e-04  -6.2909538e-05  -2.2182160e-04   2.0578102e-04   2.3564641e-04   7.9252321e-04   3.3870453e-04   6.6812919e-04   6.7135494e-04   1.4551704e-04  -2.8196099e-04   1.6749924e-04   3.5574252e-05   4.2809895e-04  -5.4014416e-04   3.4055702e-04   4.7107038e-04   1.1448974e-03   2.7110035e-04   3.9217362e-04  -1.0738164e-04  -2.4477107e-04  -3.4906762e-04  -2.8862705e-04   5.6856688e-06   1.6480777e-04   2.1523212e-05   9.8185235e-05   4.2560484e-04   3.8733723e-04  -3.4734100e-04  -1.5237591e-04   2.4341589e-05   1.5663904e-04   3.7038539e-05  -5.7241410e-05  -4.1046980e-04  -1.9369360e-04   6.6914625e-04  -2.7662965e-05  -2.4573677e-04   8.0072216e-04   3.2348241e-04   4.2002884e-04  -2.4197199e-03   1.6837899e-04
   2.2317946e-04   3.2435279e-04  -3.9862844e-05   4.9339014e-04   2.2315500e-04   9.2995600e-05  -2.7088521e-05   3.7451446e-04   4.1032716e-04   1.0937002e-03   4.9167650e-04   8.8807853e-04   7.9516653e-04   2.4235884e-04  -2.3141522e-04   3.1091695e-04   1.6918480e-04   5.1064102e-04  -3.1342544e-04   4.8076734e-04   5.9799966e-04   1.3020217e-03   4.6586871e-04   6.3967577e-04   5.0733255e-05  -1.1511525e-04  -2.9397826e-04  -1.7915924e-04   1.3525195e-04   2.8395923e-04   9.4602547e-05   1.4453899e-04   4.4082798e-04   4.3485599e-04  -2.7814289e-04  -8.7483670e-05   1.1117999e-04   1.7330245e-04   1.2126005e-05  -3.6694368e-05  -3.8468311e-04  -1.6902406e-04   5.9195259e-04  -7.8780678e-05  -3.2416816e-04   8.0158625e-04   3.1696868e-04   3.6653187e-04  -2.3673964e-03   1.5180382e-04
   7.9808662e-05   1.8553270e-04  -1.5598933e-04   3.7395331e-04   1.3977969e-04  -1.4354548e-05  -1.6412167e-04   2.4335505e-04   4.1182936e-04   8.6433947e-04   4.1265288e-04   7.1512471e-04   7.2069251e-04   1.8203186e-04  -2.7856004e-04   2.3037860e-04   9.1185677e-05   4.6299712e-04  -5.0179451e-04   3.7286003e-04   4.8571156e-04   1.1570092e-03   3.2263220e-04   4.7655415e-04  -8.4487030e-05  -2.5885104e-04  -3.1868363e-04  -2.6890621e-04  -2.1004807e-06   2.0626436e-04  -7.8418132e-05   2.1497706e-05   2.4546662e-04   3.0058523e-04  -3.9244772e-04  -1.8070127e-04   4.0312869e-05   7.7296836e-06  -1.5976520e-04  -1.9505352e-04  -5.0873013e-04  -3.0553012e-04   3.6177092e-04  -3.0006416e-04  -3.3741418e-04   5.3964439e-04   9.2544651e-05   1.4461028e-04  -2.7906338e-03  -3.1006279e-05
  -1.2334896e-04  -5.2906638e-05  -3.3555078e-04   1.9065363e-04   5.6846198e-05  -1.2391187e-04  -2.9782305e-04   1.2247750e-04   3.1934350e-04   7.6484459e-04   3.3307442e-04   6.5367279e-04   6.9035619e-04   1.4842321e-04  -2.9983776e-04   1.9764740e-04   5.6752615e-05   4.1489094e-04  -4.2746743e-04   3.9138057e-04   5.7002786e-04   1.1983470e-03   3.3923169e-04   5.3749117e-04  -6.0685201e-05  -1.9486397e-04  -3.7852360e-04  -2.1602109e-04   4.8088830e-05   2.6268919e-04  -4.9503169e-06   9.8606986e-05   4.0344070e-04   4.2526293e-04  -3.2853917e-04  -1.0513503e-04   1.4247897e-04   1.6786512e-04   4.0337468e-07  -6.3555504e-05  -3.6666531e-04  -1.9708704e-04   5.3540844e-04  -1.4094413e-04  -1.9622211e-04   7.6732959e-04   2.7909054e-04   3.4602414e-04  -2.6460744e-03   9.2108392e-05
   6.4363157e-05   1.9261819e-04  -2.0662519e-04   3.5551225e-04   1.5971532e-04  -6.5737554e-06  -1.8850072e-04   2.5935998e-04   3.3514158e-04   7.8525546e-04   3.7307525e-04   7.0771622e-04   7.0510531e-04   1.9426848e-04  -3.1627389e-04   2.1902173e-04   6.5356995e-05   4.5778858e-04  -5.5450958e-04   3.7392831e-04   5.8441574e-04   1.1384344e-03   2.9745267e-04   4.6664380e-04  -7.8409474e-05  -2.3501828e-04  -3.7125751e-04  -2.3181114e-04  -3.2082720e-05   2.2119013e-04  -8.0555488e-05   2.1614402e-05   2.8262046e-04   3.1576963e-04  -3.5838108e-04  -1.5654806e-04   9.0799935e-05   4.7998023e-05  -9.7718446e-05  -1.8439612e-04  -4.8897031e-04  -3.2664917e-04   4.3359012e-04  -3.4901890e-04  -2.8837600e-04   4.8415514e-04   1.1229141e-04   1.4086491e-04  -2.6744460e-03  -7.7154982e-06
  -6.2278115e-05   6.7911831e-05  -3.2186823e-04   2.2102903e-04   8.2337690e-05  -1.3005562e-04  -3.6336278e-04   9.8979384e-05   6.2128012e-05   5.6821085e-04   2.7692111e-04   4.9767079e-04   5.8420107e-04   8.4546555e-05  -4.1677084e-04   1.1932798e-04  -4.2898300e-05   3.2470038e-04  -7.3152618e-04   2.5860427e-04   4.8634899e-04   9.8919624e-04   1.4768647e-04   2.7884156e-04  -2.6630794e-04  -4.3098026e-04  -4.3775776e-04  -3.1075216e-04  -7.3465555e-05   1.3950633e-04  -1.5729229e-04  -6.1495798e-06   3.2655688e-04   2.7891144e-04  -4.0829679e-04  -1.7445665e-04   9.5544732e-05   3.2874872e-05  -1.1510673e-04  -1.8363839e-04  -5.0603691e-04  -3.3234278e-04   5.2898686e-04  -3.3069844e-04  -2.3915114e-04   5.0635001e-04   1.5518909e-04   1.8152593e-04  -2.6762015e-03   2.9059944e-05
   1.4592209e-04   2.8978763e-04  -1.6496396e-04   4.0517442e-04   2.5422534e-04   8.8266548e-05  -1.2081252e-04   3.2862416e-04   3.4931800e-04   8.1368577e-04   4.1885083e-04   8.4586244e-04   7.2251412e-04   1.7887208e-04  -3.4301146e-04   3.7263631e-04   1.1459989e-04   4.6035880e-04  -5.6812516e-04   4.3124784e-04   6.4426253e-04   1.0876164e-03   3.5823931e-04   5.3076271e-04  -5.0291578e-06  -9.5603988e-05  -2.5567395e-04  -2.1336008e-04   1.0405394e-06   2.1541503e-04   4.7675512e-05   7.3290983e-05   4.1189356e-04   2.3028467e-04  -2.8945180e-04  -2.1019643e-04   4.5038710e-06   1.1968415e-05  -1.0069062e-04  -1.4515773e-04  -6.0767698e-04  -5.0858152e-04   2.6387544e-04  -2.5819079e-04  -4.1124268e-04  -1.1424530e-04  -4.4207582e-06  -1.3413130e-04  -2.5611967e-03  -3.9951716e-04
   3.7108030e-04   2.5403421e-04  -1.3516155e-04   5.7476055e-04   2.1890197e-04   8.2012230e-05   3.0009882e-04   2.0458952e-04   2.4125153e-04   4.6588870e-04   7.9218189e-05   6.6871947e-04   3.3432822e-04  -2.0642893e-04  -4.1306519e-04   2.7267964e-04   4.4072196e-05   3.7586797e-04  -6.4469117e-04   2.6991632e-04   6.1786344e-04   8.3575357e-04   1.4072728e-04   2.7162852e-04  -7.1018723e-05  -2.3745782e-04  -3.7236165e-04  -3.7714580e-04  -1.2853967e-04   1.3985747e-04  -1.4725389e-05  -4.5151624e-05   1.8691397e-04  -1.4579827e-04  -4.7515915e-04  -4.0556444e-04  -2.1155988e-04  -1.8060033e-04  -2.3333936e-04  -3.3895514e-04  -7.7388954e-04  -7.5662805e-04   9.1466085e-05  -5.0194614e-04  -5.5873755e-04  -2.0124244e-04  -1.7005240e-04  -8.3869345e-06  -2.5732536e-03  -3.6217857e-04
   2.6741158e-04   2.8115817e-04  -1.7346370e-04   4.5704126e-04   2.3867107e-04   1.1038235e-04   5.1522882e-05   2.5008351e-04   1.7590419e-04   7.1005250e-04   2.0754764e-04   7.0663955e-04   4.1982083e-04  -2.8106841e-05  -3.9949731e-04   2.5446567e-04   3.9669387e-05   4.7295660e-04  -4.2043076e-04   3.5365918e-04   8.2649663e-04   1.0128303e-03   2.8239205e-04   4.5683765e-04  -3.0416806e-05  -1.0701088e-04  -3.4833050e-04  -1.7763412e-04   5.2679585e-05   2.9272365e-04   4.2388121e-05   1.5893794e-04   4.2608241e-04   1.6697097e-04  -2.8408453e-04  -1.7392490e-04   1.7625009e-05   3.5320085e-05  -6.8654219e-05  -1.8991623e-04  -5.6932250e-04  -5.2075979e-04   3.5181968e-04  -3.7937929e-04  -4.0167049e-04  -8.6182103e-05  -5.2316442e-05   1.0005247e-05  -2.9019618e-03  -3.7850029e-04
   1.9257203e-04   2.7580190e-04  -2.6544085e-04   3.9610275e-04   2.2565189e-04   4.5005792e-05  -1.0216881e-04   2.1761903e-04   2.5309710e-04   6.5786386e-04   2.6410742e-04   7.0147845e-04   4.3833023e-04   2.8415619e-05  -3.8800089e-04   1.8320605e-04  -4.6555465e-06   4.8829475e-04  -6.3814141e-04   2.8413357e-04   8.0711645e-04   9.7437785e-04   1.8847089e-04   3.6369395e-04  -1.2804815e-04  -1.9131454e-04  -3.7893571e-04  -1.9769571e-04   2.8819161e-06   2.4906590e-04  -1.2698262e-04   8.9051580e-05   2.6606245e-04   6.7972571e-05  -3.3797897e-04  -2.2444980e-04   3.4882096e-06  -3.8165887e-05  -1.6679257e-04  -3.2697723e-04  -6.0192327e-04  -5.9469265e-04   1.8896259e-04  -4.9475691e-04  -6.0557184e-04  -1.0004659e-04  -1.8448498e-04  -1.6133628e-04  -2.7350390e-03  -4.3070471e-04
   4.2069314e-05   1.2637003e-04  -3.0296957e-04   3.5976144e-04   2.1365155e-04   6.6727029e-05  -8.9930560e-05   1.9608025e-04   4.0575652e-04   7.6554395e-04   3.1962513e-04   7.7232387e-04   4.7161174e-04   4.4735814e-05  -3.7336451e-04   2.3078808e-04   1.6096554e-05   4.7803440e-04  -5.2463904e-04   3.4860315e-04   8.9433172e-04   1.0621921e-03   2.8563084e-04   5.0381647e-04  -2.5464091e-05  -9.6279742e-05  -3.8616147e-04  -1.2467073e-04   1.1572342e-04   3.3769020e-04   6.5020445e-06   2.0024057e-04   4.8595085e-04   2.5138608e-04  -2.1331667e-04  -1.0946587e-04   1.1365909e-04   1.3389239e-04   9.6741369e-06  -1.2909574e-04  -5.0489104e-04  -4.7483991e-04   3.9912001e-04  -3.1141230e-04  -3.0697958e-04   1.4157669e-05  -4.7791193e-05   1.3109875e-05  -2.3437508e-03  -3.2704422e-04
   2.3789598e-04   3.5429504e-04  -2.1458881e-04   4.4491401e-04   2.6519335e-04   1.1793821e-04  -1.1077701e-05   2.0819677e-04   2.9904104e-04   7.5491442e-04   3.3232544e-04   7.7829341e-04   4.5570193e-04   8.0435078e-05  -3.3863174e-04   2.2372017e-04   3.9055689e-05   5.0899654e-04  -4.3661037e-04   3.0681471e-04   8.4331050e-04   1.0263154e-03   3.1550834e-04   4.3011908e-04  -4.9880891e-05  -6.1190396e-05  -3.1873677e-04  -9.3853829e-05   1.1042043e-04   3.4577929e-04  -6.9923197e-05   1.8239082e-04   3.6516189e-04   1.3790303e-04  -2.1936318e-04  -1.4517337e-04   7.2596238e-05   6.8753034e-05  -2.8498471e-05  -1.4776406e-04  -2.7462069e-04  -3.6834038e-04   2.3060963e-04  -3.6171518e-04  -3.9599909e-04   1.4298834e-04  -8.9146582e-05   9.8663630e-05  -2.3973379e-03  -3.9474477e-04
   2.2746691e-04   1.2542798e-04  -2.2626278e-04   5.1169633e-04   1.2047445e-04   9.5061514e-05   3.1981067e-04   5.0921291e-05   1.8144731e-04   6.3687778e-04   7.1491690e-05   6.8005372e-04   1.6062378e-04  -5.1664741e-05  -2.4706608e-04   5.0520652e-05  -5.8029043e-05   4.5891380e-04  -3.9530400e-04   2.3113318e-04   4.3177887e-04   1.1843111e-03   3.1670998e-04   6.3896913e-04   3.1489093e-05   6.2537067e-05  -2.7702434e-04   1.1227556e-04   1.5302667e-04   5.7584344e-04   4.2627272e-04   3.7419033e-04   5.6966365e-04   7.8090765e-05  -1.9601021e-04  -1.8047246e-04  -4.7231624e-05   1.9106244e-04   2.5323482e-04   2.3493402e-04  -1.4230137e-04  -1.1607314e-04   3.0557101e-04  -8.7994296e-05  -2.7523929e-05  -5.4075525e-05  -1.7673659e-04   2.2584910e-04  -2.5103358e-03  -3.9155051e-04
   5.9800938e-04   2.1161838e-04   1.0812415e-05   1.0016990e-03   1.0680533e-04   3.8863972e-04   1.1046474e-03   1.4614053e-04   4.3037650e-04   9.5445785e-04   1.3008529e-04   8.8056695e-04   1.2665786e-04  -1.9255483e-05  -1.4071063e-04  -4.6089906e-05  -1.3986062e-05   5.0543039e-04   4.4373983e-06   2.0520526e-04   6.8385137e-04   1.3461806e-03   2.7917084e-04   7.0436491e-04   1.1886068e-04   8.4469808e-05  -3.9821831e-04   2.2821795e-04   2.3377282e-04   6.9827348e-04   6.4931816e-04   5.2012748e-04   6.9079990e-04  -4.5914196e-05  -2.3592464e-04  -1.5461446e-04  -1.3481603e-04   2.6046010e-04   4.3365642e-04   4.0776675e-04   1.1771260e-04   1.5387138e-04   1.9741085e-04   3.2724525e-05   5.3087915e-05  -2.1849878e-04  -3.6150010e-04   2.9090591e-04  -2.2961409e-03  -9.9173933e-04
   5.0986605e-04  -1.5214193e-04   1.3837643e-05   1.0314692e-03  -1.3124863e-04   2.6622688e-04   1.3156278e-03  -1.1469857e-04   3.9484128e-04   6.4419286e-04  -2.7889129e-05   7.0262770e-04  -7.3043957e-05  -5.7866404e-05  -6.6278342e-05  -2.7337458e-04  -2.1540582e-04   3.5942372e-04   1.9640950e-04   5.3498406e-05   6.2056253e-04   1.3806631e-03   1.6568493e-04   4.1827298e-04   7.1602975e-05  -1.0856340e-04  -5.0539075e-04   2.0383616e-04   1.7106457e-04   6.3734682e-04   7.2401704e-04   5.8748981e-04   6.7693600e-04  -2.3200056e-04  -3.2513199e-04  -3.5427025e-04  -3.2846749e-04   2.5062909e-04   3.4922431e-04   4.4546157e-04  -4.1302844e-04  -1.4725543e-04   2.0611750e-04  -9.1507318e-06   1.0465819e-05  -3.9659798e-04  -5.4389477e-04   3.4615074e-05  -2.3238626e-03  -8.5539528e-04
   5.4829533e-04   1.3885864e-04   3.5869351e-07   1.1072109e-03  -2.5722096e-05   3.5582922e-04   1.3702214e-03   8.3835555e-05   3.5089368e-04   8.9858577e-04  -4.1035371e-05   8.5025612e-04  -3.2441138e-05  -5.7484085e-05  -4.3626278e-05  -2.5367542e-04  -1.0040081e-04   4.1535759e-04   3.4910030e-04  -1.2987438e-05   1.1307431e-03   1.4215845e-03   3.5129159e-04   5.1761605e-04   2.5015633e-04   1.2189167e-04  -3.5267373e-04   2.3290019e-04   4.1932001e-04   6.8184215e-04   7.5761374e-04   8.0951478e-04   9.2355942e-04  -2.6345642e-06  -8.3097846e-05  -1.7153204e-04  -2.4711221e-04   5.8929023e-04   5.4293312e-04   5.3902302e-04  -4.0589453e-04  -1.6963735e-04   3.2463972e-04  -9.2729089e-05   1.3450335e-04   3.2650722e-05  -4.9463188e-04   1.6738515e-05  -2.3214004e-03  -3.4856613e-04
   4.4681990e-04   1.2458483e-04  -5.0030918e-05   9.7393704e-04  -3.9845934e-05   2.3424781e-04   1.1049259e-03   1.2238843e-04   2.6595345e-04   7.6867279e-04  -3.7266211e-05   7.3192624e-04  -5.4687916e-05  -9.5255557e-05  -2.8365601e-05  -1.1185122e-04  -4.1190513e-05   3.9692386e-04   1.9725930e-04  -1.5355789e-04   1.0285251e-03   1.2489585e-03   2.2794689e-04   3.6811846e-04   2.0512081e-04   5.1829811e-05  -2.5783642e-04   8.5092397e-05   3.3744625e-04   4.7728667e-04   5.6597922e-04   6.8762194e-04   7.6952577e-04  -3.9347178e-06  -1.4314955e-04  -2.3293631e-04  -3.3015787e-04   4.6070135e-04   2.9840961e-04   3.4147030e-04  -5.7711196e-04  -2.8177287e-04   1.9877269e-04  -1.1011118e-04  -1.1645297e-04  -2.9122093e-04  -5.3758750e-04  -2.5630015e-04  -2.4908416e-03  -5.8351125e-04
   2.0750088e-04  -3.2048665e-05  -1.5096989e-04   7.3546841e-04  -3.1323962e-05   1.4262034e-04   8.2913658e-04   1.0669087e-04   3.4607828e-04   8.9127553e-04  -3.5153244e-05   7.9454016e-04  -3.1295844e-05  -1.0340931e-04  -6.6721885e-05  -1.5978144e-04  -8.6102445e-05   3.5150515e-04   1.1132725e-04  -9.6939344e-05   1.1565306e-03   1.2932285e-03   2.5894318e-04   4.8219145e-04   1.5824559e-04   1.3935738e-04  -2.4838190e-04   1.1058166e-04   3.5674311e-04   4.7095673e-04   6.0903886e-04   7.3446974e-04   9.6946111e-04   2.2051176e-04  -3.1403758e-06  -8.5614694e-05  -1.8246911e-04   6.3738221e-04   4.3733179e-04   4.5116703e-04  -4.0247740e-04  -9.8759294e-05   4.7904949e-04   7.2715043e-06  -9.0024041e-05  -1.5637749e-04  -3.1580179e-04  -4.1777941e-05  -2.2570649e-03  -3.9731199e-04
   3.6771112e-04   2.5840200e-04  -4.8490117e-05   7.6226518e-04   4.5773450e-05   2.1005768e-04   7.6620991e-04   1.8643991e-04   3.1245060e-04   7.7077042e-04   6.4176129e-05   7.4064342e-04   4.4981043e-05  -9.7999415e-05  -6.3246931e-05  -4.0395611e-05  -2.7814654e-05   3.2809444e-04   4.8408459e-05  -1.1360869e-04   1.2317882e-03   1.2564166e-03   2.5406462e-04   3.4747706e-04   1.6452956e-04   4.9675622e-05  -1.6047752e-04   1.3767030e-05   3.0795508e-04   2.9434086e-04   4.7281876e-04   6.0835219e-04   7.8193535e-04   1.5786123e-04  -1.0445109e-04  -1.9591750e-04  -2.1664693e-04   4.5898926e-04   1.8882028e-04   2.4604460e-04  -6.7050342e-04  -3.2943836e-04   2.5864874e-04  -1.7882069e-04  -1.3503987e-04  -1.7788447e-04  -4.3845476e-04  -3.4276285e-04  -2.1615359e-03  -2.9132428e-04
   2.1607208e-04   1.4487134e-04  -2.0699599e-04   5.6066556e-04  -4.5173168e-05   5.2268959e-05   4.7808565e-04   3.3383756e-05   2.5668970e-04   4.3364859e-04  -6.2765248e-05   5.4540799e-04  -5.6167883e-05  -2.0763803e-04  -1.5837481e-04  -1.4135137e-04  -1.2439459e-04   2.1090018e-04  -9.2346789e-05  -2.1332692e-04   1.1270751e-03   1.1034010e-03   1.0879295e-04   2.0897271e-04   1.2191677e-07  -9.5761265e-05  -1.8727311e-04  -9.1862712e-05   1.8591048e-04   1.3496094e-04   4.1166355e-04   5.3381611e-04   7.8687735e-04   1.6218761e-04  -1.3663786e-04  -2.2649353e-04  -2.3766946e-04   4.4039963e-04   1.5318792e-04   2.3447556e-04  -6.1110035e-04  -2.5510648e-04   3.6724616e-04  -7.7331824e-05  -5.6024102e-05  -4.2805168e-05  -2.8382652e-04  -2.0186524e-04  -2.0229539e-03  -1.4839147e-04
   3.6462257e-04   3.6350483e-04  -4.1207582e-05   6.8579457e-04   1.1209121e-04   2.4098610e-04   6.5518974e-04   2.1037113e-04   4.2779147e-04   7.3359371e-04   8.4585809e-05   8.0128090e-04   1.1104132e-04  -9.1924281e-05  -1.0146360e-04  -3.9391816e-06  -8.7621884e-06   2.3601452e-04   2.8046243e-05  -5.9119542e-05   1.2906032e-03   1.2138181e-03   2.4410765e-04   3.9913270e-04   1.1838895e-04   3.2663269e-05  -1.7222772e-04  -5.4059663e-05   2.2963043e-04   1.5229930e-04   3.6921658e-04   5.0267664e-04   7.6794747e-04   1.8506257e-04  -1.1045711e-04  -1.9761361e-04  -1.9892200e-04   3.4585645e-04   7.2431620e-05   1.4712442e-04  -6.1304949e-04  -1.8743014e-04   3.6867775e-04  -1.0217615e-04  -8.6578875e-05  -2.8471311e-04  -1.9885619e-04  -1.9203365e-04  -2.2052419e-03  -2.6129690e-04
   2.4302055e-04   2.1451866e-04  -9.9237630e-05   5.0236710e-04   4.2162250e-05   9.2156355e-05   4.0255391e-04   1.1838113e-04   2.9667761e-04   5.1545072e-04   3.8955328e-05   6.2196294e-04   2.7967122e-05  -1.5055435e-04  -1.5052297e-04  -5.3455489e-05  -7.6946191e-05   1.6274353e-04  -2.1907578e-04  -1.6920731e-04   1.0817474e-03   1.0819410e-03   1.2641803e-04   2.7893001e-04  -3.2733293e-05  -5.8402191e-05  -2.3464918e-04  -1.5017646e-04   4.8363996e-05   6.3085732e-05   1.8705043e-04   2.9985319e-04   4.8619031e-04   5.7797781e-05  -2.1699387e-04  -2.6763920e-04  -2.6284301e-04   1.9210306e-04  -6.2379841e-05  -6.1814164e-05  -4.4312826e-04  -1.9109418e-04   1.8156999e-04  -3.1222455e-04  -1.9792336e-04  -1.9580877e-04  -2.7197829e-04  -1.7478350e-04  -2.1800215e-03  -1.7178683e-04
   1.5973284e-04   1.0510238e-04  -1.0328913e-04   4.9453531e-04   3.5053014e-05   1.5941009e-04   4.8552372e-04   1.1734234e-04   3.8475421e-04   5.6807755e-04   2.4178069e-05   6.7315676e-04   8.1052392e-05  -1.0303011e-04  -1.0557347e-04  -8.3452935e-05  -7.6432574e-05   2.0520366e-04  -6.4323885e-06  -1.1434848e-04   1.1189691e-03   1.1857545e-03   2.5391360e-04   4.3703147e-04   8.5576976e-05   8.2374012e-05  -2.4877873e-04  -5.8225385e-05   1.5670198e-04   2.1058628e-04   3.5185940e-04   4.5838181e-04   6.7681004e-04   2.4653037e-04  -4.1098243e-05  -7.6925367e-05  -9.5056777e-05   4.4731039e-04   2.1784347e-04   1.8956389e-04  -1.6157700e-04   1.1223995e-04   4.3366177e-04  -1.9780222e-04   5.0553606e-08   2.2930972e-04  -1.0877536e-04   1.3866012e-04  -1.9264051e-03   9.9413497e-05
   1.5296381e-04   5.4553868e-05  -1.3046141e-04   4.3294134e-04  -3.3537810e-05   6.7901150e-05   4.2178493e-04   1.1176710e-04   2.9605208e-04   3.6561111e-04  -1.6935559e-05   5.0366519e-04   1.1925853e-04  -9.6708653e-05  -8.4625819e-05  -5.3858585e-05  -7.1828850e-05   1.9403863e-04  -1.2850664e-04  -2.0162499e-04   1.0577473e-03   1.0737191e-03   2.0979931e-04   2.7304332e-04   8.9141409e-05   6.2464627e-05  -2.0686889e-04  -9.4975396e-05   1.5622121e-04   1.5604995e-04   2.7717862e-04   3.4016155e-04   4.4259432e-04   9.9025136e-05  -9.4742099e-05  -1.7424153e-04  -1.7881037e-04   3.0513172e-04   1.1022537e-04   1.5212077e-04  -3.6505598e-04  -8.1826089e-05   2.4382253e-04  -5.3758729e-05  -6.0202357e-05   8.9809773e-06  -2.9548947e-04  -1.5164590e-04  -2.1602572e-03  -2.5086064e-04
   1.8625881e-04  -2.2833059e-05  -2.7815360e-04   5.0731481e-04  -1.4632259e-04  -2.7443893e-05   5.5975339e-04  -1.3006125e-04   1.0600908e-04   3.5235669e-05  -3.2367252e-04   3.1582560e-04  -2.2164648e-04  -4.2051106e-04  -2.1541584e-04  -2.8965465e-04  -2.6385408e-04   2.8046177e-05  -2.7401967e-04  -3.6112181e-04   1.1200233e-03   9.1269729e-04   4.6159665e-05   7.5665826e-05  -5.5512651e-06  -1.2977049e-04  -3.2961238e-04  -1.7641597e-04   5.8491492e-05   1.0962933e-04   3.1932790e-04   2.8504527e-04   4.4447469e-04  -3.5592264e-05  -1.5708711e-04  -2.5482549e-04  -2.7369929e-04   2.9323570e-04   1.5975343e-04   1.9076130e-04  -4.1190410e-04  -1.8057512e-04   3.6622179e-04  -1.3099601e-04  -6.1551269e-05   1.0624150e-04  -3.1801910e-04   3.1251409e-05  -2.2503913e-03   4.0553005e-05
   3.0334029e-04   1.1213847e-04  -1.2891708e-04   6.0531846e-04  -4.9716567e-05   1.2279929e-04   6.7860214e-04   1.0160173e-04   3.0726948e-04   3.3548247e-04  -1.5158413e-04   5.4188829e-04  -4.0631250e-05  -2.7552946e-04  -1.6045086e-04  -1.0421425e-04  -9.3078088e-05   1.3114624e-04  -4.9777071e-05  -2.1201311e-04   1.2257155e-03   1.0335988e-03   2.1575885e-04   2.5202430e-04   1.4059476e-04   8.8659353e-06  -2.3011961e-04  -1.3859905e-04   6.5919994e-05   1.5248523e-04   3.8863748e-04   3.0215838e-04   4.5240737e-04  -1.2935975e-05  -1.8023461e-04  -3.0097051e-04  -2.8985718e-04   2.4720776e-04   7.7609489e-05   1.7968239e-04  -5.3666893e-04  -2.8019157e-04   2.9876307e-04  -1.6801928e-04  -2.0822581e-04  -1.0619874e-05  -4.1626138e-04  -1.1555604e-04  -2.1825461e-03  -1.4970012e-04
   1.6914353e-04  -7.2926545e-05  -2.3101851e-04   4.9366179e-04  -1.6513832e-04  -3.1583499e-05   5.4873794e-04  -3.7695423e-05   8.0753176e-05   7.4218944e-05  -2.9735026e-04   2.6441980e-04  -2.2449129e-04  -4.3086120e-04  -2.9866662e-04  -2.8475444e-04  -2.3166850e-04   4.1732768e-05  -2.6774916e-04  -3.7169288e-04   1.1390074e-03   8.7975012e-04   5.9325794e-06  -2.8623894e-05  -8.3939158e-05  -1.6776135e-04  -3.8026914e-04  -2.8947712e-04  -7.9085097e-05   2.6365976e-06   1.6958031e-04   1.5768435e-04   1.9312395e-04  -2.2760831e-04  -3.1589187e-04  -4.0965938e-04  -4.0814857e-04   9.5094030e-05  -4.1821168e-05   7.0122514e-06  -6.0141226e-04  -3.3283257e-04   1.3445303e-04  -3.7284012e-04  -1.3755989e-04   5.5844546e-05  -4.4028880e-04  -7.9630365e-05  -2.0988928e-03  -3.7520243e-05
   2.2805468e-04   6.7599576e-05  -2.3772105e-04   5.6496041e-04  -9.5141724e-05   1.0636391e-04   6.6210958e-04   5.1184568e-05   3.0625029e-04   2.8328938e-04  -2.4138403e-04   5.2096904e-04  -1.0215073e-04  -3.0812915e-04  -1.9828795e-04  -2.8702951e-04  -1.7010054e-04   1.5134193e-04   5.6216893e-05  -2.4730974e-04   1.4120698e-03   1.1146386e-03   1.9808936e-04   2.1146775e-04   9.0984067e-05   4.9227656e-05  -3.6356738e-04  -1.1422495e-04   1.0678775e-04   1.6392516e-04   4.2232577e-04   4.0902011e-04   5.0673372e-04   3.4557692e-05  -1.0740306e-04  -2.2887906e-04  -2.3417744e-04   3.2088609e-04   1.6027721e-04   2.2595021e-04  -4.8557587e-04  -2.3702714e-04   2.6531468e-04  -2.5602151e-04  -1.4190652e-04   2.8156411e-04  -3.6527484e-04  -1.2801109e-04  -1.9611402e-03   7.3257354e-05
   2.3332870e-04   1.0898278e-04  -2.5082758e-04   5.6947413e-04  -9.8690798e-05   8.9220666e-05   6.3130830e-04   2.7751426e-05   4.2687177e-05   1.6281923e-04  -2.6571972e-04   4.6114280e-04  -1.4488793e-04  -3.4729432e-04  -1.8425053e-04  -2.9401309e-04  -1.8218376e-04   1.1549976e-04  -1.7858707e-04  -2.9811607e-04   1.4278888e-03   1.0210377e-03   1.4164134e-04   3.2989185e-05   6.0606832e-05  -3.2407112e-05  -3.5850884e-04  -1.7178648e-04   3.5878282e-05   7.1156122e-05   3.3768153e-04   3.1945319e-04   3.7210033e-04  -1.1855833e-04  -1.8568883e-04  -3.1534804e-04  -3.4721036e-04   2.4275378e-04   6.6300971e-05   1.0471134e-04  -5.4886367e-04  -3.3059606e-04   1.0018704e-04  -3.9562388e-04  -1.1515871e-04  -9.1577764e-05  -4.6894001e-04  -2.2608083e-04  -1.9330679e-03  -1.1396891e-04
   8.4160129e-05  -1.2447845e-04  -3.4010160e-04   4.0777936e-04  -2.0534892e-04  -7.4362106e-05   5.0117017e-04  -1.0187333e-04   9.8832046e-05   1.0464634e-04  -2.8433336e-04   2.7737726e-04  -2.0438111e-04  -3.9542737e-04  -2.0211522e-04  -2.1649733e-04  -1.0976700e-04   1.0590710e-04   1.9396186e-05  -2.3432316e-04   1.4554801e-03   1.0229545e-03   1.7950806e-04   1.2214959e-04   8.5894440e-05  -4.1534870e-05  -3.2115052e-04  -1.8171105e-04   3.4926554e-05   8.7974346e-05   4.0747627e-04   3.5461091e-04   5.6022010e-04   6.4506858e-05  -1.5748468e-04  -2.6807148e-04  -2.9731955e-04   3.3997066e-04   1.7042478e-04   2.1975060e-04  -4.6650070e-04  -2.3516243e-04   3.9996946e-04  -8.1245424e-05  -1.6985388e-04   6.8222231e-05  -2.4445399e-04   7.7332748e-05  -1.7852285e-03   4.6448087e-05
   2.6996044e-04   7.0176386e-05  -1.0499704e-04   5.7067437e-04  -8.7161141e-05   4.3293538e-05   6.6137413e-04   2.5565087e-05   2.1363847e-04   2.1546995e-04  -1.9299552e-04   3.9519410e-04  -1.8437774e-04  -4.0315901e-04  -2.5459490e-04  -6.6196917e-05  -5.1153951e-05   1.3108541e-04  -9.0070334e-06  -1.6916708e-04   1.3151460e-03   9.6925051e-04   1.8631357e-04   3.7874772e-05   2.0121379e-05  -1.1839302e-04  -3.0118873e-04  -2.5613545e-04   2.8934686e-05   1.6564183e-05   3.2794269e-04   2.5143023e-04   4.8469225e-04  -4.9899143e-05  -3.1254417e-04  -4.1961294e-04  -3.9297057e-04   1.4317597e-04  -1.1812584e-05   1.0134698e-04  -6.6465768e-04  -4.4130321e-04   1.8856788e-04  -1.1202533e-04  -2.5284849e-04  -1.3841518e-04  -3.9747808e-04  -2.0735939e-04  -2.1680268e-03  -1.6279479e-04
   1.4991143e-04  -1.2912338e-04  -1.6477151e-04   4.1922656e-04  -2.0078653e-04  -1.3762755e-04   4.5172614e-04  -1.7440124e-04   5.2688214e-05  -3.5234738e-05  -2.8806727e-04   1.1900669e-04  -3.6028231e-04  -5.4744171e-04  -3.9253570e-04  -1.5660968e-04  -1.5316637e-04  -2.8264114e-06  -3.6183608e-04  -3.6917449e-04   1.1401761e-03   7.5268809e-04  -5.4341002e-05  -2.5602806e-04  -2.1631448e-04  -3.5693261e-04  -3.5536545e-04  -4.4266626e-04  -2.3034692e-04  -1.7469531e-04   1.4948771e-04   9.1198315e-05   3.4393647e-04  -2.0775170e-04  -4.5734961e-04  -5.2360800e-04  -5.0569494e-04   7.0559698e-05  -1.2579217e-04  -1.2878386e-05  -7.5429108e-04  -4.7273017e-04   2.7240996e-04  -2.2518610e-04  -2.8133290e-04  -1.0101224e-04  -3.3359585e-04  -1.1100819e-04  -2.0940155e-03  -8.1529986e-05
   2.2560274e-04  -6.6072853e-06   2.1697779e-06   5.2422984e-04  -8.7105116e-05   7.0461574e-06   6.1191956e-04   4.3801145e-05   3.6521989e-04   2.6584230e-04  -1.2119937e-04   3.5944005e-04  -1.9570580e-04  -4.6762428e-04  -3.6572892e-04   4.1773357e-05  -3.8255030e-06   1.2148501e-04  -1.6828401e-04  -2.4105088e-04   1.4436218e-03   1.0144103e-03   1.1908600e-04  -8.7185135e-06  -2.4643896e-05  -1.9362172e-04  -2.8532511e-04  -3.6546381e-04  -1.0838793e-04  -9.3957038e-05   3.0927442e-04   2.0305539e-04   4.3352891e-04  -8.2732631e-06  -3.7918167e-04  -4.3581775e-04  -4.4027617e-04   7.0700829e-05  -1.3590608e-04  -1.9386041e-05  -7.1489660e-04  -4.8764615e-04   2.4774935e-04  -1.3903907e-04  -3.5043227e-04  -4.4655299e-04  -3.2796839e-04  -1.6861518e-04  -1.8897320e-03  -2.3586093e-04
   1.5909712e-04  -1.1540306e-04  -5.4818025e-05   4.0405325e-04  -1.4445452e-04  -9.6008502e-05   4.5019679e-04  -4.2844356e-05   1.0472398e-04   2.4643368e-05  -2.5607293e-04   1.5554058e-04  -3.2161505e-04  -5.3815619e-04  -4.3963833e-04  -8.3973733e-05  -9.9917401e-05   2.2428745e-05  -3.3105412e-04  -3.3185750e-04   1.3255469e-03   7.8962074e-04  -1.6971513e-05  -1.9748874e-04  -1.8343200e-04  -2.7284567e-04  -3.6375324e-04  -4.2586072e-04  -2.0145492e-04  -1.5092947e-04   1.4745574e-04   7.6275253e-05   2.1269570e-04  -1.9484397e-04  -4.8416769e-04  -5.2309490e-04  -5.2139116e-04  -5.5334745e-05  -2.0732064e-04  -1.7444069e-04  -6.3087628e-04  -5.3415005e-04   8.7870416e-05  -2.5371145e-04  -3.2053280e-04  -4.0740526e-04  -5.1264814e-04  -2.6076465e-04  -2.0981380e-03  -4.0693724e-04
  -7.9604819e-05  -3.2601834e-04  -2.5745743e-04   2.1723767e-04  -2.5579074e-04  -2.0504452e-04   2.9720127e-04  -1.9235737e-04  -3.9723589e-05  -1.5891750e-05  -3.4474541e-04   6.9987960e-05  -3.6117694e-04  -5.2466808e-04  -4.1919423e-04  -1.9468584e-04  -1.6436478e-04   3.5150413e-05  -1.7377082e-04  -2.9952711e-04   1.3658971e-03   8.1278605e-04  -1.1597528e-05  -1.2063035e-04  -1.9298421e-04  -2.1643324e-04  -4.0834487e-04  -3.4807605e-04  -1.4347566e-04  -5.7630474e-05   2.1230680e-04   1.9684024e-04   3.6237136e-04  -1.3069350e-05  -3.6591239e-04  -3.7510312e-04  -4.1159798e-04   1.7843116e-04   1.1148531e-06   2.2858252e-05  -4.3078675e-04  -3.3031881e-04   3.5904985e-04  -1.5365517e-04  -7.1736926e-05   1.1526821e-04  -3.0397490e-04   2.9360934e-05  -1.9140078e-03  -1.1038999e-05
   7.3701798e-05  -6.7401270e-05  -9.7978489e-05   3.9237205e-04  -1.4130032e-04  -3.8249425e-05   4.0293613e-04  -4.3019834e-05   4.1667412e-05  -1.9822828e-05  -2.2068834e-04   1.4887938e-04  -2.4330997e-04  -3.8206915e-04  -3.2485538e-04  -1.5599599e-04  -8.9307738e-05   1.2480817e-04  -2.4435119e-04  -3.1240456e-04   1.3544000e-03   7.9787971e-04  -1.6305927e-05  -1.6852147e-04  -1.6555602e-04  -1.9121049e-04  -3.6752369e-04  -2.8903101e-04  -9.6712669e-05  -2.3867833e-05   1.3447815e-04   1.9301311e-04   1.9948381e-04  -2.0833888e-05  -3.3023639e-04  -3.3928698e-04  -4.0092084e-04   1.6176868e-04  -6.8250651e-05  -2.0446963e-05  -4.0620664e-04  -2.8462810e-04   2.8196693e-04  -1.3648630e-04  -1.5411290e-04   1.0877009e-04  -3.5963685e-04  -6.8023546e-05  -2.1265182e-03  -7.6691258e-06
  -6.9476322e-05  -2.3145867e-04  -2.1274110e-04   2.3995717e-04  -2.2715650e-04  -1.7841435e-04   1.8253940e-04  -1.6871834e-04  -1.5082471e-04  -2.9841537e-04  -3.0822933e-04  -3.3502020e-06  -2.9372456e-04  -4.1609176e-04  -3.3690003e-04  -2.2571872e-04  -1.6954930e-04   6.4405700e-05  -5.3574319e-04  -4.2251460e-04   1.1590900e-03   6.6123874e-04  -1.6854997e-04  -3.5209177e-04  -2.9912268e-04  -3.4516692e-04  -3.4394470e-04  -3.9726909e-04  -2.3332314e-04  -1.4655858e-04  -1.8615723e-06   4.9932223e-05   7.0824157e-05  -1.2200978e-04  -4.1696086e-04  -4.2591846e-04  -4.5253962e-04   1.1215296e-04  -1.1666801e-04  -5.6985544e-05  -4.1164961e-04  -2.7446920e-04   2.8067429e-04  -1.2739058e-04  -1.8129175e-04   1.0510375e-04  -2.8772990e-04  -4.1270891e-05  -2.2469165e-03  -9.3568315e-07
   3.4010282e-05  -6.8032838e-05  -1.0792253e-04   3.5607425e-04  -9.8530960e-05  -2.8956332e-05   3.5552846e-04  -1.5351881e-05   2.2574088e-05  -2.9953217e-05  -1.9630283e-04   2.0121595e-04  -1.5677045e-04  -2.9469110e-04  -2.6898942e-04  -9.1363021e-05  -6.3530490e-05   1.6286608e-04  -4.0842110e-04  -2.7896056e-04   1.3212018e-03   8.0865592e-04  -1.3309620e-05  -1.1114606e-04  -1.2737444e-04  -1.7679976e-04  -3.1144428e-04  -2.7269108e-04  -1.3813309e-04  -3.1871848e-05   9.7507997e-05   1.5101119e-04   1.8378733e-04   4.2981770e-05  -3.1698254e-04  -3.0639823e-04  -3.5143507e-04   1.4217934e-04  -9.8479766e-05  -2.9596165e-05  -3.4914663e-04  -2.2874773e-04   2.4905484e-04  -1.6899752e-04  -1.3915605e-04   1.4620835e-04  -2.7258287e-04  -9.6352174e-05  -1.8991274e-03  -3.9802388e-05
  -4.0991235e-05  -1.7842457e-04  -1.6742274e-04   2.3140699e-04  -1.5609569e-04  -1.4457318e-04   1.7502774e-04  -9.1972113e-05  -4.0203940e-05  -2.5479312e-04  -2.7679242e-04   5.7753216e-05  -2.1910407e-04  -3.2939902e-04  -2.8285614e-04  -1.5725140e-04  -1.2071642e-04   9.8665369e-05  -4.9009267e-04  -3.8366907e-04   1.1803668e-03   6.9802103e-04  -1.4539143e-04  -2.8692096e-04  -2.3164231e-04  -2.6963433e-04  -3.2837858e-04  -3.2225830e-04  -2.1721666e-04  -1.0306107e-04  -3.9023387e-05   4.9988768e-05  -7.0094420e-06  -1.2185802e-04  -3.8394460e-04  -3.6606463e-04  -4.1398051e-04   5.9381571e-05  -2.3400756e-04  -1.6397990e-04  -4.1223466e-04  -3.1811395e-04   6.5643260e-05  -2.1801284e-04  -2.4611727e-04  -1.7036521e-06  -4.2966907e-04  -2.6739822e-04  -2.0689275e-03  -1.5472191e-04
  -2.1840310e-04  -3.8159342e-04  -2.6813056e-04   1.4465149e-04  -1.9702569e-04  -1.7267071e-04   1.7896267e-04  -1.1705500e-04  -1.8611606e-04  -1.8948918e-04  -2.9539515e-04   8.7669265e-05  -1.8997972e-04  -2.8893113e-04  -2.3842537e-04  -1.6077518e-04  -1.0316512e-04   1.1402044e-04  -2.9574364e-04  -3.2743800e-04   1.2492271e-03   7.6991844e-04  -7.8788638e-05  -1.1317765e-04  -1.7295303e-04  -1.6379110e-04  -3.3261132e-04  -2.5371177e-04  -1.3947423e-04  -5.3030958e-06   1.2303093e-04   1.6406100e-04   1.5686617e-04   7.8644502e-05  -2.6296888e-04  -2.4506525e-04  -3.0608158e-04   2.2342747e-04   7.3560329e-07   3.2035332e-05  -2.4799272e-04  -1.2580989e-04   3.0838381e-04  -7.4543706e-05  -8.9498200e-05   2.4084978e-04  -2.6135784e-04  -4.3147495e-05  -1.9517231e-03   4.8464924e-05
  -5.0414328e-05  -1.5820295e-04  -1.7311928e-04   2.3221392e-04  -1.3208577e-04  -1.2250546e-04   1.8818030e-04  -7.5170559e-05  -6.4792461e-05  -2.4097283e-04  -2.7290991e-04   6.9223206e-05  -1.6157326e-04  -2.5288007e-04  -2.4923234e-04  -1.2113748e-04  -8.5827436e-05   1.2946645e-04  -4.2744746e-04  -3.6243894e-04   1.1888355e-03   7.0104812e-04  -1.0432910e-04  -1.7560524e-04  -2.1607941e-04  -2.2946372e-04  -3.4074567e-04  -2.8438505e-04  -1.3806910e-04  -4.1757448e-05  -3.4880026e-07   7.5729149e-05   2.6490229e-06   2.5222716e-06  -3.2254259e-04  -2.8469876e-04  -3.3457694e-04   1.3865797e-04  -1.2167656e-04  -4.6490528e-05  -3.4508054e-04  -1.9450736e-04   1.9223685e-04  -1.6075262e-04  -1.5864105e-04   1.9687845e-04  -3.6249374e-04  -2.0479075e-04  -2.1787956e-03   5.0210154e-05
  -2.0289306e-04  -3.2371655e-04  -3.0585530e-04   4.0577357e-05  -2.3788822e-04  -2.6613666e-04  -4.3091190e-05  -2.3802624e-04  -2.9970740e-04  -5.0742878e-04  -3.9195054e-04  -1.4661372e-04  -2.5897508e-04  -3.1144585e-04  -3.1153258e-04  -2.3439233e-04  -2.0727921e-04   1.8660383e-05  -7.2377519e-04  -4.8506472e-04   1.0155260e-03   5.7711825e-04  -2.4843236e-04  -4.0194791e-04  -3.4648989e-04  -3.6697648e-04  -3.6627238e-04  -3.1979691e-04  -2.7584471e-04  -1.0793474e-04  -2.3704213e-05   3.5039342e-05   1.0022822e-05  -1.4168761e-05  -3.3086666e-04  -2.6900796e-04  -3.3394920e-04   1.8331500e-04  -4.3897999e-05  -1.3215666e-05  -2.8525019e-04  -1.1737113e-04   3.0993859e-04  -1.3754294e-04  -1.6905481e-04   3.1782262e-04  -2.7333532e-04  -6.3104657e-05  -2.0646043e-03   1.2727265e-04
  -6.4259562e-05  -9.7848722e-05  -1.8121116e-04   2.1510775e-04  -8.0560247e-05  -7.5629294e-05   1.7986904e-04  -3.6086094e-05  -1.2461700e-04  -1.9081886e-04  -2.7590949e-04   1.0676624e-04  -9.6045267e-05  -1.7168044e-04  -2.5613027e-04  -1.2655584e-04  -7.8932411e-05   1.2950361e-04  -4.8481175e-04  -3.3918506e-04   1.1377205e-03   6.9660909e-04  -1.0333109e-04  -2.0147928e-04  -1.9662203e-04  -2.0277195e-04  -3.6786031e-04  -2.6242842e-04  -1.2766266e-04  -2.7385760e-05   4.3805521e-06   7.8890451e-05   7.4942295e-06   3.5731598e-05  -2.8172496e-04  -2.2613838e-04  -2.7198880e-04   1.8799420e-04  -6.1899191e-05  -3.2274779e-06  -2.9964745e-04  -1.3531397e-04   2.3322347e-04  -6.6134962e-05  -1.2507336e-04   2.3584747e-04  -3.3851067e-04  -2.2424341e-04  -2.1183370e-03   5.1174695e-05
  -1.5898385e-04  -2.0675782e-04  -2.8822274e-04   9.6903474e-05  -1.4759268e-04  -1.6987695e-04   3.3214008e-05  -1.4283338e-04  -2.6123354e-04  -3.9617874e-04  -3.5725435e-04  -5.8398578e-05  -1.3924926e-04  -2.0690015e-04  -2.7982355e-04  -1.9307072e-04  -1.3375581e-04   8.2866580e-05  -6.9948641e-04  -4.2913639e-04   9.8571077e-04   5.8285671e-04  -2.2499925e-04  -3.1352296e-04  -2.9631509e-04  -2.8798767e-04  -4.1512429e-04  -3.3164909e-04  -2.3193737e-04  -1.0522552e-04  -1.7644072e-04  -4.5252829e-05  -2.1703278e-04  -1.4578813e-04  -3.6346761e-04  -3.2745310e-04  -3.3329090e-04   3.6685546e-05  -2.0949780e-04  -1.4341905e-04  -3.9639883e-04  -2.4677013e-04   1.1078707e-04  -1.8245570e-04  -1.4132919e-04   2.6730148e-04  -3.2903641e-04  -1.7225943e-04  -1.9093999e-03   1.6179026e-04
  -5.5392084e-05  -8.4895582e-05  -2.1174176e-04   1.7982766e-04  -5.8781316e-05  -5.1827497e-05   1.4556840e-04  -1.9787030e-05  -7.7393321e-05  -1.6551095e-04  -2.6347351e-04   9.0216687e-05  -3.9864033e-05  -1.4482233e-04  -2.7284140e-04  -4.5952915e-05  -3.6204146e-05   1.5629950e-04  -3.5491330e-04  -2.8623902e-04   1.1379523e-03   7.1192585e-04  -4.5453096e-05  -7.5513533e-05  -1.4521345e-04  -1.6053631e-04  -3.5715775e-04  -2.4714449e-04  -1.5587590e-04  -1.3970899e-05  -4.0852601e-06   6.6218323e-05   3.8528633e-05   6.0708768e-05  -2.9240682e-04  -2.2139004e-04  -2.1917171e-04   1.8860656e-04  -9.7512355e-05   3.2332158e-05  -3.6684316e-04  -1.7145161e-04   2.6271091e-04  -1.1692775e-04  -8.4240281e-05   2.8875491e-04  -3.1465676e-04  -2.2069125e-04  -2.1099758e-03   1.0087150e-04
  -9.8433899e-05  -1.4669978e-04  -1.9818296e-04   1.1819236e-04  -7.2340801e-05  -1.1961655e-04   7.9823214e-05  -2.4788364e-05  -1.1955433e-04  -2.3815228e-04  -2.8858735e-04  -2.6997081e-05  -6.3411477e-05  -1.8292019e-04  -3.2074083e-04   6.0859397e-06  -3.9653405e-05   1.2038882e-04  -5.8972934e-04  -3.4164306e-04   9.6140377e-04   5.6113233e-04  -1.3527565e-04  -1.8889725e-04  -2.1014085e-04  -2.4299759e-04  -3.4716408e-04  -3.3700978e-04  -2.3666846e-04  -1.0824927e-04  -8.2464278e-05  -4.0572395e-05  -9.4035102e-05  -4.6686542e-05  -3.5895230e-04  -3.2335610e-04  -2.9889934e-04   6.7457229e-05  -2.4724306e-04  -1.1829432e-04  -5.0989143e-04  -3.0908556e-04   1.0699884e-04  -1.4815017e-04  -2.5183836e-04  -5.0725166e-06  -4.8925763e-04  -4.4898893e-04  -2.0335745e-03  -1.2766583e-04
  -4.1196130e-05  -1.5176921e-04  -2.0289095e-04   2.2209698e-04  -7.5675530e-07  -2.7824304e-05   2.8331217e-04   1.9831730e-05  -8.4699459e-05  -5.7447407e-05  -3.3492543e-04   2.4032498e-04  -7.1577699e-05  -2.7044685e-04  -3.0112820e-04   8.1146682e-05   3.8272454e-05   1.3923412e-04  -2.6627141e-04  -2.5256132e-04   8.9624024e-04   6.2685116e-04   3.2222062e-05  -2.3234379e-05  -3.9376173e-05  -5.0991046e-05  -2.8418627e-04  -2.6200773e-04  -1.0403593e-04  -3.8785038e-05   1.6750874e-04   1.0172276e-04   1.4568745e-04   4.8394002e-05  -2.6301033e-04  -2.4990726e-04  -2.7679410e-04   1.7963862e-04  -5.0674123e-05   9.6357551e-05  -4.5861298e-04  -3.0273714e-04   2.9134576e-04   2.9588087e-05  -1.6607680e-04  -1.6734081e-04  -3.7425463e-04  -2.8719773e-04  -2.1895745e-03  -9.2851929e-05
   1.0573468e-04  -5.6375935e-05  -9.1745627e-05   2.2564856e-04  -6.7229692e-08  -7.3419906e-05   2.4494246e-04   1.7573995e-05  -5.2938689e-05  -1.0517280e-04  -3.0536010e-04   1.1704377e-05  -1.1953097e-04  -2.8082472e-04  -3.9009660e-04   1.0440269e-04  -1.5069289e-06   1.2627529e-04  -4.5993473e-04  -2.9184570e-04   9.7170065e-04   4.6720315e-04  -7.0102666e-05  -1.1521817e-04  -1.6167537e-04  -1.6303716e-04  -3.6181920e-04  -3.4284848e-04  -1.8477502e-04  -1.2593938e-04  -5.2142245e-06  -3.9311099e-06   8.4663643e-06  -1.0711877e-04  -3.3800490e-04  -3.0176862e-04  -3.1300844e-04   8.5604173e-05  -1.9455960e-04  -1.3241823e-05  -4.4873563e-04  -3.6232558e-04   1.4074623e-04  -2.0281022e-04  -8.9961773e-05  -5.3095555e-05  -5.2474329e-04  -4.2920091e-04  -1.9181137e-03  -6.7984758e-05
  -1.0738958e-04  -2.4412619e-04  -2.8726252e-04   2.8800141e-05  -1.1622465e-04  -1.8696820e-04   3.7099591e-05  -1.2536421e-04  -1.3437928e-04  -2.3104977e-04  -3.2958030e-04  -7.2745781e-05  -8.4281113e-05  -2.9984626e-04  -3.8777769e-04   1.4179596e-04   3.8001461e-05   1.2798399e-04  -3.1441794e-04  -2.3562743e-04   1.1412087e-03   5.7233305e-04  -3.0279680e-05  -3.7008540e-05  -8.3724146e-05  -2.0922876e-04  -2.6948383e-04  -3.2977376e-04  -5.2419036e-05  -1.7320027e-04   7.3516821e-05   1.0915695e-04   3.2212751e-04   9.4608135e-05  -3.2207122e-04  -2.9743099e-04  -2.1198101e-04   1.4522257e-04  -1.4781133e-04   5.8779100e-05  -6.3300127e-04  -4.8213906e-04   3.3378243e-04  -1.7465092e-04  -2.1471184e-04  -3.7434604e-04  -3.3847144e-04  -4.4472463e-04  -1.8655873e-03  -1.6959394e-04
   1.7834149e-04   2.1518873e-04  -9.3255105e-05   2.2723306e-04   1.6034505e-04   2.9790313e-05   1.1186973e-04   9.1047717e-05   1.2926354e-04   2.5131920e-04  -1.0425476e-04   2.8729445e-04   9.1513910e-05  -1.4338420e-04  -3.3618085e-04   2.2604613e-04   6.2286803e-05   2.1722160e-04  -3.5080162e-04  -1.2766068e-04   1.0428092e-03   5.2517426e-04   6.4571192e-05   8.1388134e-05  -8.5723666e-05  -1.3787625e-04  -2.2099941e-04  -2.6489305e-04  -8.4258136e-05  -1.1421356e-04   1.2767196e-05   7.8468751e-05   2.3331505e-04   8.0969759e-05  -3.0635970e-04  -2.5234043e-04  -1.8175032e-04   9.0854417e-05  -1.8824838e-04  -7.9579104e-06  -5.0108315e-04  -4.3777394e-04   2.5932182e-04  -1.9702462e-04  -2.4648546e-04  -4.4133342e-04  -3.7546182e-04  -4.4957493e-04  -1.9926555e-03  -2.8028956e-04
   1.3191852e-04   8.0063735e-05  -1.0555793e-04   1.6409166e-04   9.8581600e-05  -6.9052017e-05   7.4757969e-05   1.8400749e-05  -1.0096855e-05   4.3720567e-05  -1.9137828e-04   1.3368165e-04  -4.1954423e-05  -2.6931689e-04  -3.9197705e-04   1.6320153e-04  -8.0588470e-06   9.3064133e-05  -4.2627304e-04  -2.4184055e-04   9.9114026e-04   3.4197542e-04  -5.4903932e-05  -7.8384328e-05  -2.0346057e-04  -1.9357284e-04  -2.4604533e-04  -3.5150666e-04  -1.5689388e-04  -1.4757851e-04   5.2494994e-05   3.0426507e-05   2.4241781e-04   5.8958394e-05  -2.9757695e-04  -2.4284182e-04  -2.0869407e-04   1.6608184e-04  -8.8968431e-05   1.6242608e-05  -3.3860441e-04  -3.5409848e-04   4.1909784e-04  -1.5798246e-04  -9.9896322e-05  -1.8854121e-04  -2.9375305e-04  -1.4574862e-04  -2.0704477e-03  -2.4627840e-05
   3.1013071e-04   2.7873548e-04   1.6122272e-06   3.5908911e-04   2.4115022e-04   1.6640534e-04   3.0037839e-04   1.9567764e-04   2.3704025e-04   4.2246023e-04  -4.5743731e-05   4.3784708e-04   1.5426798e-04  -4.6587727e-05  -2.3514662e-04   1.3565450e-04   6.3826286e-05   2.4322531e-04  -1.1455244e-04  -1.1697064e-04   1.1336346e-03   5.1301008e-04   1.3866194e-04   1.8267331e-04  -6.4575720e-06   6.9409973e-05  -2.6343315e-04  -1.4545054e-04  -3.0568026e-05   5.4214448e-05   1.4706362e-04   1.8516454e-04   2.3561619e-04   1.3873290e-04  -1.1276866e-04  -6.7995650e-05  -5.7483438e-05   3.0654931e-04   4.0970655e-05   1.1949510e-04  -1.5037550e-04  -1.9908605e-04   4.4923270e-04  -2.1450156e-04  -1.0240683e-04   5.9923601e-05  -2.6804497e-04  -1.2549336e-04  -1.8806596e-03   1.8659002e-05
   2.0411826e-04   1.8346164e-04  -7.5787546e-05   2.5138332e-04   1.7120427e-04   9.0437825e-05   1.3434289e-04   9.7497017e-05   2.2771179e-04   2.4877171e-04  -9.7536158e-06   3.3398450e-04   1.8500550e-04   8.7030958e-06  -1.7069084e-04   4.6141235e-05   1.6388578e-06   2.3767301e-04  -3.0230050e-04  -1.9653417e-04   1.0036409e-03   4.3389303e-04   5.7260633e-05   5.6656685e-05  -3.6614656e-05  -1.9976038e-05  -2.4443920e-04  -1.4801737e-04  -1.2565273e-07   1.1082514e-05   2.9230447e-05   1.1508981e-04   3.7129543e-05   6.3181862e-05  -1.4654621e-04  -1.1278325e-04  -9.2889561e-05   1.6159691e-04  -8.4654908e-05  -2.0972198e-05  -2.5329142e-04  -2.5252084e-04   3.0411451e-04  -2.7969846e-04  -9.3414754e-05   1.9778385e-04  -2.3147445e-04  -1.0867197e-04  -1.9682702e-03   1.5076136e-04
   2.4742508e-04   2.6260514e-04  -3.4840254e-05   3.3404210e-04   2.4753506e-04   1.9827929e-04   2.5887639e-04   2.1986906e-04   4.2118880e-04   4.6128780e-04   1.1911540e-04   5.0739438e-04   3.0916967e-04   1.1464353e-04  -9.0407877e-05   1.1915633e-04   8.2970313e-05   3.0357388e-04  -7.5967189e-05  -4.4004886e-05   1.1238995e-03   6.3062937e-04   2.4164989e-04   3.5584279e-04   1.2122593e-04   1.7411476e-04  -1.8013337e-04  -2.7629294e-06   1.7243967e-04   2.0600358e-04   2.7118102e-04   3.0558751e-04   3.5051585e-04   3.4115976e-04   7.1480979e-05   7.7951736e-05   1.2331459e-04   3.9743149e-04   2.0149372e-04   2.3986823e-04  -8.1053084e-05  -5.2098127e-05   5.4618454e-04  -1.4663304e-04   1.1665870e-04   2.3074397e-04  -6.1295075e-05   1.5099682e-05  -1.8263647e-03   1.2258196e-04
   2.7177384e-04   3.0101245e-04  -1.9936097e-05   3.3537686e-04   2.6174929e-04   2.1752621e-04   2.2548471e-04   2.3015065e-04   3.6054564e-04   4.3188670e-04   2.0019755e-04   5.0178589e-04   3.6279479e-04   1.5726680e-04  -3.9375311e-05   1.0590870e-04   7.8577519e-05   2.9249277e-04  -1.0192313e-04  -7.2483279e-05   1.0389998e-03   5.7428295e-04   2.3548260e-04   2.9780876e-04   1.0981532e-04   1.2928125e-04  -1.6617918e-04  -1.2985254e-05   1.0133085e-04   1.5775456e-04   1.7145457e-04   2.3586070e-04   2.0901552e-04   2.1347617e-04   3.7017173e-05   3.8543239e-05   7.0204493e-05   3.0108346e-04   9.9438716e-05   1.4497746e-04  -5.3785821e-05  -8.2875566e-05   4.3588708e-04  -1.9714248e-04  -8.4564672e-05   2.3996561e-04  -1.3623161e-04  -1.1770391e-04  -1.6736063e-03   8.4333726e-05
   1.1360890e-04   1.1648733e-04  -1.5877391e-04   1.8465813e-04   1.5061571e-04   6.1062165e-05   4.5546400e-05   6.2202947e-05   2.3273367e-04   1.6482917e-04   9.3056296e-05   3.3331121e-04   2.1970793e-04   7.4386313e-05  -8.5615495e-05  -3.7887610e-05  -5.6157485e-05   1.7340346e-04  -3.6033525e-04  -1.9106516e-04   8.9456275e-04   4.5273028e-04   9.4953619e-05   1.5874350e-04  -6.9218154e-06   3.3561755e-05  -1.6421337e-04  -3.9206876e-05   6.7390065e-05   1.2128926e-04   1.7774331e-04   2.1297428e-04   2.4215072e-04   2.8409439e-04   3.7605070e-05   5.5766013e-05   1.0616388e-04   3.8717387e-04   1.7418388e-04   2.5267419e-04   5.7191014e-06  -1.6005097e-05   5.5061030e-04  -5.6805478e-05  -7.3243218e-06   4.7866689e-04   2.9520119e-05   7.6302655e-05  -1.9091206e-03   4.0769027e-04
   3.2251218e-04   3.3504557e-04   1.2805667e-05   4.1860575e-04   3.0576525e-04   2.7882904e-04   3.4846089e-04   2.5906920e-04   5.4339494e-04   5.4178096e-04   2.8433310e-04   6.3871330e-04   4.0132579e-04   2.0955612e-04   3.4126391e-05   1.0843106e-04   1.0912009e-04   2.9303649e-04  -5.3997308e-05  -3.3195560e-05   1.0051583e-03   6.5009267e-04   3.0156024e-04   3.6712515e-04   1.9239757e-04   1.9358788e-04  -1.3053903e-04   4.8612761e-05   2.1739012e-04   2.2464227e-04   2.5035406e-04   2.9276748e-04   2.5780019e-04   3.4698457e-04   1.0497433e-04   1.0418134e-04   1.6125228e-04   4.4375754e-04   2.1994587e-04   3.0670915e-04  -2.8612194e-05   1.9721110e-05   5.4888555e-04   9.2621842e-05   6.1008126e-05   4.5824933e-04   3.1559432e-06   7.8677971e-05  -1.7496418e-03   4.3957026e-04
   2.3106270e-04   2.0474146e-04  -4.9224465e-05   3.2060384e-04   2.1098267e-04   1.7114918e-04   2.3161598e-04   1.7794569e-04   4.5319425e-04   3.4891925e-04   2.1718886e-04   4.5654149e-04   3.2257478e-04   1.3884100e-04  -3.2365922e-05   4.6841284e-05   5.5725588e-05   2.3674031e-04  -3.4182848e-04  -1.2766635e-04   9.2970347e-04   5.4782868e-04   1.8087283e-04   1.7400525e-04   6.3437568e-05   4.5609257e-05  -1.6813517e-04  -6.7708082e-05   6.8952424e-05   8.8488763e-05   1.2662918e-04   1.4003359e-04   8.7861670e-05   1.8790347e-04  -3.3888591e-05  -4.3671942e-05   3.6796526e-05   2.3462527e-04   2.7313876e-05   1.1860820e-04  -2.3256273e-04  -1.6500865e-04   3.3357128e-04  -1.0498780e-04   6.0495400e-05   4.2909477e-04  -2.0906744e-04  -1.2908997e-04  -1.8158443e-03   3.5333302e-04
  -9.9347917e-06  -4.1685998e-05  -2.3653677e-04   1.1809406e-04   6.1718092e-05   6.1758215e-06   2.2614235e-05   2.4511422e-05   3.0835727e-04   1.3936756e-04   7.3863011e-05   2.2203711e-04   2.1368617e-04   3.1972748e-05  -1.1043953e-04  -4.3508535e-05  -9.1907159e-06   1.5578432e-04  -1.7320373e-04  -1.4539452e-04   9.4062038e-04   6.0214731e-04   2.0774369e-04   2.3910582e-04   4.0471507e-05   4.8048449e-05  -2.2901742e-04  -6.2673564e-05   6.1837047e-05   1.0178231e-04   2.2331407e-04   2.0542783e-04   2.2412490e-04   2.9383934e-04  -1.9242983e-05   1.1585418e-05   1.0058498e-04   4.1737923e-04   1.4915722e-04   2.7400811e-04  -7.3750998e-05  -1.0254072e-05   5.6394644e-04   9.3863520e-05   2.8466102e-04   7.5435644e-04   2.7388156e-05   1.0542439e-04  -1.7674782e-03   7.0238340e-04
   2.0971298e-04   2.4409687e-04  -4.6454603e-05   3.5741852e-04   2.2576981e-04   1.9698759e-04   2.2487951e-04   1.8770961e-04   4.5705438e-04   3.6518963e-04   2.4774275e-04   4.7631431e-04   3.0991770e-04   1.2762305e-04  -9.6841082e-05   1.7776218e-05   6.5939646e-05   2.2324483e-04  -1.1706421e-04  -7.8164230e-05   9.8282518e-04   6.4955372e-04   2.5051145e-04   2.5122071e-04   5.1163865e-05   6.6923480e-05  -2.0856943e-04  -6.8148074e-05   6.2723397e-05   1.1812984e-04   1.6433623e-04   2.1497080e-04   2.1055846e-04   3.3668336e-04  -2.3983577e-05  -4.9104274e-06   1.1364522e-04   3.4121898e-04   1.0039864e-04   2.4849176e-04  -1.0945652e-04  -2.7307497e-05   5.2084442e-04   2.2404092e-05   1.5677726e-04   6.9866574e-04  -5.4258282e-07   4.1201220e-05  -1.5782812e-03   7.0447440e-04
   7.9081008e-05   1.2833990e-04  -1.0039035e-04   2.4605694e-04   1.4670180e-04   9.4319272e-05   7.6276796e-05   8.2793573e-05   3.3743898e-04   2.3592336e-04   2.4091231e-04   3.7186267e-04   2.4395366e-04   6.0002316e-05  -1.7039929e-04   8.2009910e-06   4.6899131e-05   1.7682808e-04  -2.7752831e-04  -1.3548572e-04   8.3415880e-04   5.3879677e-04   1.2667691e-04   1.0313900e-04  -7.9981459e-05  -1.0223299e-04  -2.4743733e-04  -1.8577573e-04  -3.7077818e-05  -3.7652993e-05   2.8189694e-05   5.1168365e-05   7.7145080e-05   2.2019980e-04  -2.0706162e-04  -1.5708640e-04  -7.5137536e-06   1.9469886e-04  -8.3940729e-05   1.4030789e-04  -2.4943566e-04  -9.1066497e-05   5.2497222e-04   1.6202962e-04   1.4985664e-04   7.7412557e-04  -4.9228975e-06   1.6255166e-04  -1.6194338e-03   8.7421230e-04
   1.7868674e-04   1.3429666e-04   8.9075518e-05   3.2826097e-04   2.0541091e-04   1.6559252e-04   2.3542802e-04   1.6186929e-04   4.6694104e-04   5.0156307e-04   3.3888381e-04   4.4737893e-04   2.8518494e-04   3.5519191e-05  -2.1969255e-04   1.7839346e-04   1.5413777e-04   2.2607384e-04   3.0540617e-05   3.3444037e-05   9.5419248e-04   6.5977842e-04   2.2273717e-04   2.9443414e-04   2.7713848e-05  -4.4280387e-06  -2.3809761e-04  -1.6241771e-04  -1.8732468e-05   8.5219199e-06   1.8965962e-04   1.8305087e-04   3.3287832e-04   4.7199448e-04  -1.3755352e-04  -8.7974680e-05   6.7394081e-05   3.0833279e-04  -2.7577897e-05   2.2400460e-04  -2.1194034e-04  -4.0644529e-05   6.3802453e-04   3.0911184e-04   2.2292482e-04   8.9793385e-04   4.0092353e-05   1.5704281e-04  -1.3559702e-03   9.8853919e-04
   1.0500825e-04   1.6344021e-04   3.0401567e-05   2.9882640e-04   1.7917767e-04   1.1749302e-04   1.4878569e-04   6.8379428e-05   5.4098049e-04   3.7428457e-04   2.9098362e-04   4.3685234e-04   2.5310591e-04   6.5978376e-05  -2.1808049e-04   2.3816525e-05   1.0488203e-04   2.4476086e-04  -1.0009910e-04  -6.9848014e-05   8.6748559e-04   6.7092263e-04   1.6459744e-04   1.8195828e-04  -7.3682837e-05  -2.4315166e-05  -3.0011885e-04  -2.0670512e-04  -1.6787126e-05  -3.7247501e-05   1.1169621e-04   2.0028063e-04   1.7125576e-04   3.5827598e-04  -1.7433456e-04  -1.2102429e-04   2.0591933e-05   2.7732117e-04  -5.0332150e-05   1.7267068e-04  -1.3910777e-04   2.0910640e-05   4.8912666e-04   1.7674553e-04   2.4473530e-04   1.1043907e-03  -3.7294212e-05   4.2979806e-05  -1.7962096e-03   1.0629703e-03
  -5.0970611e-05   4.3548166e-06  -1.1637049e-04   1.5692583e-04   7.2730552e-05   1.8414201e-05   2.0735699e-05   3.2014712e-05   3.9862469e-04   3.1839139e-04   2.4628578e-04   3.7000343e-04   2.2448222e-04   5.1895928e-05  -1.8512092e-04   1.6162498e-05   1.5869254e-04   2.7022700e-04  -2.6620159e-05  -3.3892968e-05   9.3178387e-04   7.6438359e-04   2.2326068e-04   2.7476612e-04  -3.0139738e-05   3.8353868e-05  -2.8345417e-04  -1.5163075e-04   9.5697942e-05   9.3238777e-06   2.7530573e-04   3.4989760e-04   3.9753036e-04   5.8263284e-04  -9.8466444e-05  -3.6298163e-05   1.0047486e-04   5.1211310e-04   1.0797642e-04   3.8893096e-04  -4.7687136e-05   1.9355431e-04   7.5906859e-04   3.6833831e-04   5.1112397e-04   1.5119580e-03   2.6187042e-04   3.2030320e-04  -1.1948479e-03   1.4014819e-03
   1.7558843e-04   3.1810050e-04   1.3747522e-04   4.1087854e-04   2.4318212e-04   2.0219572e-04   2.0996477e-04   1.8079650e-04   5.2525225e-04   4.6492464e-04   4.3765493e-04   5.5044866e-04   3.3560561e-04   1.3278876e-04  -1.5338793e-04   1.1872597e-04   2.8190980e-04   3.8046358e-04   3.0342095e-05   5.7656485e-05   1.0022444e-03   8.5699989e-04   2.6872309e-04   3.2958272e-04   2.9533989e-05   7.5316988e-05  -2.5836437e-04  -1.3288787e-04   1.2154214e-04  -1.8632226e-06   2.9427177e-04   3.9968037e-04   3.9680861e-04   6.2028767e-04  -1.1487309e-04  -4.3414351e-05   8.7181354e-05   4.4153992e-04   3.0923617e-05   3.7443690e-04  -1.3302143e-04   1.5894996e-04   6.6241663e-04   4.4414270e-04   4.9828936e-04   1.3688317e-03   1.8230685e-04   1.2335817e-04  -1.3915707e-03   1.3810355e-03
   7.1641014e-05   2.1817753e-04   7.4015763e-05   3.0202093e-04   1.8895736e-04   1.0516486e-04   8.5489242e-05   8.9124987e-05   4.8295190e-04   2.6826636e-04   3.9085484e-04   4.4263891e-04   2.7041131e-04   4.6234323e-05  -2.0431229e-04   9.9272685e-05   2.3851240e-04   3.1989237e-04  -3.2704652e-04  -6.5207503e-05   8.7800116e-04   7.1689254e-04   1.5430666e-04   2.1257602e-04  -6.1685350e-05  -4.0825162e-06  -2.3212061e-04  -2.5559484e-04  -7.0922622e-05  -1.6318783e-04   2.3717743e-04   2.7268127e-04   2.5438075e-04   4.1041535e-04  -2.6146226e-04  -2.2013827e-04  -9.7360666e-05   3.3593472e-04  -1.0599075e-04   3.1990785e-04  -2.5046410e-04   2.9044411e-05   5.6157156e-04   5.1504007e-04   4.2641739e-04   1.3020653e-03   1.6875834e-04   1.0277770e-04  -1.2055858e-03   1.3789766e-03
   2.9913784e-04   4.2186058e-04   2.1199243e-04   5.5030466e-04   3.1313719e-04   2.6279650e-04   3.7814074e-04   2.1724810e-04   5.8190414e-04   6.4740266e-04   4.4610436e-04   6.9541135e-04   3.0552785e-04   5.9248516e-05  -1.8800433e-04   2.6700713e-04   4.1523069e-04   4.3133495e-04   1.9876541e-04   1.8332072e-04   9.7569264e-04   9.0248324e-04   3.6665885e-04   5.1684846e-04   9.6139374e-05   1.3038020e-04  -2.0035655e-04  -1.7698978e-04   1.6297752e-04  -5.9948921e-05   4.2997714e-04   4.5957533e-04   5.5488705e-04   6.5087562e-04  -1.9593179e-04  -1.2720277e-04  -2.6593616e-05   4.5734504e-04  -1.5666168e-05   3.7784374e-04  -1.5435529e-04   1.3697756e-04   6.8100588e-04   5.6841795e-04   5.4646720e-04   1.2669706e-03   2.2861556e-04   1.0796848e-04  -1.2377129e-03   1.3582692e-03
   2.5048439e-04   3.9918971e-04   2.5935011e-04   4.8538248e-04   2.9298980e-04   1.9620324e-04   2.5474103e-04   2.2130576e-04   6.8482629e-04   5.7418511e-04   5.2519469e-04   5.8046251e-04   2.9451490e-04   6.0082071e-05  -2.1497981e-04   2.6906456e-04   4.1827274e-04   4.3040968e-04  -2.5687888e-05   1.3492462e-04   8.3254278e-04   8.3556224e-04   2.6892743e-04   4.1240366e-04  -4.2861047e-05  -3.0151257e-05  -1.8036700e-04  -2.4807165e-04   2.4636700e-05  -1.3966735e-04   3.1145680e-04   3.6322360e-04   4.2744906e-04   5.7258934e-04  -2.8577319e-04  -2.2189808e-04  -7.7868259e-05   3.0157322e-04  -1.3723559e-04   2.7745077e-04  -2.2213910e-04   5.6913672e-05   5.9789995e-04   6.0106849e-04   5.3460879e-04   1.2242303e-03   7.6085540e-05  -1.6438837e-05  -1.3667064e-03   1.2335470e-03
   1.0889488e-04   1.2100617e-04   1.2096167e-04   2.7378669e-04   1.6006289e-04   3.8951319e-05   1.5619799e-04   5.8447768e-05   3.2125748e-04   2.6762026e-04   2.9924992e-04   3.0254351e-04   1.4958192e-04  -1.5059997e-04  -2.9645019e-04   2.7971325e-04   3.4640974e-04   3.4458793e-04  -7.2128074e-05  -5.8826072e-06   9.9696976e-04   9.0824626e-04   2.3147187e-04   3.5239506e-04   3.5239380e-05  -9.3287304e-07  -1.1787468e-04  -2.6621122e-04   6.7906803e-05  -1.3545829e-04   5.4281281e-04   4.2040323e-04   5.7197915e-04   4.2821764e-04  -2.9935478e-04  -3.1223276e-04  -1.2181549e-04   3.4407969e-04  -4.0130693e-05   4.1713120e-04  -3.8264022e-04  -1.1273606e-04   6.0324662e-04   6.8201695e-04   4.6110633e-04   1.1060903e-03   1.4625691e-04   2.8034257e-05  -1.3792684e-03   1.1567858e-03
   5.3566211e-04   4.9550942e-04   4.0316093e-04   7.0844189e-04   3.6291321e-04   3.4250075e-04   7.0348097e-04   2.9121013e-04   5.9797568e-04   6.3221017e-04   4.6116085e-04   6.8354222e-04   2.3821954e-04  -6.4597174e-05  -2.1968826e-04   4.8208254e-04   5.3171499e-04   4.4598532e-04   1.6693131e-05   1.1074365e-04   1.4198708e-03   1.0132720e-03   3.1679933e-04   5.6251156e-04   1.5403212e-04   1.4133338e-04  -4.2438725e-05  -2.0921740e-04   6.3854444e-05  -5.6284742e-05   6.7030609e-04   4.4621827e-04   6.0861174e-04   4.4265506e-04  -2.6093997e-04  -2.7452971e-04  -1.9595434e-04   3.1541733e-04  -3.7062298e-05   4.1510334e-04  -1.7354821e-04   2.4392946e-05   5.9591146e-04   7.4540864e-04   3.7665933e-04   6.5215299e-04   6.7839399e-05   2.5461310e-05  -1.5154296e-03   6.5093365e-04
   5.0799170e-04   3.5232029e-04   3.1357066e-04   6.6541310e-04   2.4836042e-04   2.5275431e-04   7.4986333e-04   1.3239952e-04   4.6885310e-04   4.2969352e-04   2.6734162e-04   5.6856102e-04   3.9425991e-05  -2.0213414e-04  -2.5474167e-04   3.1127088e-04   4.1344695e-04   4.2829648e-04  -7.5449925e-06  -1.1711018e-05   9.5483940e-04   7.9411251e-04   2.6670337e-04   3.7048236e-04   7.6711724e-05   9.7400232e-05  -1.6780838e-04  -2.0266733e-04  -4.5947578e-05  -1.6294362e-05   6.6555169e-04   4.0106595e-04   4.1030970e-04   1.3986939e-04  -3.5723622e-04  -3.5359361e-04  -3.3975250e-04   1.3631527e-04  -2.7911763e-05   3.6492213e-04  -1.2871742e-04  -9.3125593e-05   4.1576463e-04   6.2366721e-04   2.0860940e-04   2.2571758e-04  -1.2402127e-04   1.4493264e-05  -2.0489274e-03  -4.7642472e-05
   3.1915735e-04   3.5445846e-05   1.5998256e-04   5.1799114e-04   3.2599659e-05   3.7473401e-05   6.2091113e-04  -7.8436642e-05   3.6112245e-04   3.2937672e-04   7.3535281e-05   3.4585950e-04  -1.9653392e-04  -2.4437654e-04  -2.9948956e-04   1.5915139e-04   2.9530551e-04   3.6093500e-04   1.8681718e-04   8.8828720e-06   8.1633532e-04   6.0652819e-04   1.9336434e-04   4.0513271e-04  -2.0545915e-06   1.4633597e-04  -1.9088744e-04  -1.4939225e-04   1.7137836e-05   7.5058597e-05   6.6515943e-04   4.8363971e-04   5.6826358e-04   3.5190448e-04  -2.2986034e-04  -1.9596597e-04  -2.8270061e-04   4.1783569e-04   1.8590951e-04   4.3421355e-04   1.4978333e-04   1.9849763e-04   8.0222177e-04   7.2198745e-04   4.2162341e-04   4.7357302e-04   1.2938572e-04   3.4657726e-04  -1.3329658e-03   2.5903378e-04
   5.2247645e-04   4.4000600e-04   3.5854898e-04   6.9990574e-04   2.5946007e-04   3.1019771e-04   6.6581659e-04   2.5338793e-04   5.2263384e-04   5.6629791e-04   3.0902124e-04   6.0694915e-04   5.0201059e-05   4.3694245e-06  -9.5269890e-05   2.6720180e-04   3.7912183e-04   5.2083621e-04   1.3526496e-04   5.6371333e-05   8.4719708e-04   6.4320816e-04   2.9940481e-04   4.5408131e-04   1.4903340e-04   2.2853796e-04  -4.9837417e-05  -2.0909485e-05   1.8783634e-04   1.4747557e-04   6.7062833e-04   5.5950438e-04   4.9762876e-04   3.7057081e-04  -5.9718634e-05  -7.2981617e-05  -1.7034539e-04   4.7471205e-04   1.7632778e-04   4.4781007e-04   9.4030976e-05   2.0675035e-04   7.4368372e-04   6.3258561e-04   3.8494458e-04   5.2379695e-04   5.1101015e-05   1.6342298e-04  -1.5668335e-03   2.6303722e-04
   3.5715368e-04   3.2129191e-04   2.4179071e-04   5.1384035e-04   1.8962835e-04   2.1690105e-04   4.7168796e-04   1.3695864e-04   3.7441673e-04   3.1836785e-04   2.6339962e-04   4.3579767e-04   4.0558287e-05   1.2108614e-05  -6.1506762e-05   1.7996310e-04   2.9247877e-04   4.5807584e-04  -9.2294933e-05  -6.1031478e-05   7.4462913e-04   4.8089377e-04   1.6549026e-04   2.2697478e-04   4.8418413e-05   1.1531819e-04  -3.7949903e-05  -8.2802559e-05   3.2239030e-05   5.5742592e-05   4.1968821e-04   4.0676666e-04   2.7136260e-04   2.4732237e-04  -1.4297428e-04  -1.3753353e-04  -2.1254428e-04   3.1759578e-04   7.2553639e-06   2.1028453e-04   1.0877512e-05   7.2341398e-05   5.1677629e-04   3.4632478e-04   2.0093859e-04   3.1241745e-04  -1.0177817e-04  -6.4628206e-05  -1.6619116e-03   9.0412963e-05
   1.0224857e-04   5.8468486e-05   3.8069447e-05   2.3921991e-04   7.1322444e-05   7.3906907e-05   2.3123967e-04   3.8771224e-05   2.4318905e-04   2.3607130e-04   1.8597892e-04   2.8848677e-04   3.7858743e-05   1.2781275e-05  -5.4410175e-05   1.6437250e-04   2.4300018e-04   3.8609398e-04  -9.1353453e-05  -3.2826549e-05   7.7620521e-04   5.2633247e-04   2.2395208e-04   3.2917192e-04   8.5609761e-05   1.5294283e-04  -5.3926378e-06  -1.8706307e-05   9.3157811e-05   1.0069109e-04   4.9732765e-04   4.3610009e-04   4.3284002e-04   3.9482501e-04  -2.7313514e-05  -1.7321030e-05  -8.1320017e-05   4.7090105e-04   1.5035954e-04   3.6305652e-04   7.4741358e-05   2.0820017e-04   7.2562514e-04   5.2219478e-04   2.9424307e-04   5.0961628e-04   1.5838616e-04   1.8054935e-04  -1.5933445e-03   2.8909504e-04
   3.6940732e-04   4.0891278e-04   2.2286300e-04   4.6084425e-04   2.5056509e-04   2.8934953e-04   3.7869730e-04   2.2099529e-04   3.7349478e-04   3.2417648e-04   2.8823520e-04   4.2901040e-04   1.7829514e-04   1.0959586e-04   5.5302839e-06   2.1882146e-04   2.8064652e-04   4.1857295e-04  -9.4913798e-05   2.6151718e-06   8.0373924e-04   5.2619830e-04   2.3711144e-04   2.9739222e-04   1.5848296e-04   1.7843295e-04  -1.1808721e-05  -1.2897787e-05   1.3917354e-04   1.1565892e-04   4.5105084e-04   4.2370037e-04   3.4738291e-04   3.2141677e-04   9.1372240e-06   2.5768003e-07  -4.6980887e-05   4.2043836e-04   1.0988335e-04   2.9413620e-04   1.0588141e-04   1.5588923e-04   6.2345917e-04   4.4938622e-04   2.0704931e-04   3.8762533e-04   4.3659395e-05   6.8192268e-05  -1.5745291e-03   2.1533442e-04
   2.2384316e-04   2.3293101e-04   7.8914672e-05   2.8958760e-04   1.6430247e-04   1.7231163e-04   2.0520911e-04   8.5874657e-05   1.1805885e-04   9.0522291e-05   1.6467033e-04   2.3049135e-04   1.0847883e-04   8.1519764e-05  -8.3938157e-06   8.5798471e-05   1.4471826e-04   3.3421363e-04  -4.3535462e-04  -1.4587041e-04   6.7902228e-04   3.5184756e-04   5.4258395e-05   8.3533188e-05   3.2994893e-05   4.2593107e-05  -6.9005109e-05  -7.3100848e-05  -6.1547630e-06   1.8021077e-05   2.2645864e-04   2.3791246e-04   7.1842143e-05   9.3050061e-05  -7.6792057e-05  -8.9040295e-05  -1.2764349e-04   2.4627044e-04  -5.0874551e-05   9.5080279e-05  -8.4724752e-06   3.6587735e-05   3.5980856e-04   1.8872088e-04   1.7545066e-05   2.3370066e-04  -1.1767946e-04  -1.1860242e-04  -1.8363211e-03  -2.8846709e-05
  -2.4666828e-05  -4.6405963e-05  -8.9470566e-05   1.0573829e-04   6.5141969e-05   7.0956907e-05   1.0046181e-04   1.9084089e-05   7.1581591e-05   1.0743760e-04   9.8200711e-05   1.7025883e-04   9.2366652e-05   5.7831239e-05  -1.7197156e-06   5.3793068e-05   9.8681012e-05   2.8208346e-04  -3.7978208e-04  -1.2004412e-04   7.2997820e-04   4.1634546e-04   9.5354510e-05   1.7936116e-04   4.0751551e-05   8.7107735e-05  -7.7889614e-05  -3.6713379e-06   8.4964493e-05   1.2297726e-04   3.3183140e-04   3.0062624e-04   2.6791764e-04   2.4982984e-04   2.5621044e-05   3.2965778e-05   1.0878556e-05   4.5114185e-04   1.4152286e-04   2.4764228e-04   1.5642487e-04   1.9523042e-04   5.7609967e-04   2.6833705e-04   1.6727325e-04   2.3702219e-04   7.6453412e-05   1.1215879e-04  -1.4708377e-03   1.6360349e-04
   1.7522657e-04   2.3295170e-04   2.4410872e-05   2.5018153e-04   1.7349071e-04   2.0103116e-04   1.8510435e-04   1.1402275e-04   2.0315601e-04   1.3210652e-04   1.4414004e-04   2.1696682e-04   1.6589576e-04   1.2462121e-04   2.1401260e-05   4.7127323e-05   9.3775241e-05   2.8913046e-04  -2.8559961e-04  -1.1821908e-04   6.9040520e-04   3.8400589e-04   8.9105080e-05   1.2236724e-04   6.1561943e-05   7.9525438e-05  -8.5790110e-05   1.2813279e-05   5.3586449e-05   1.0951734e-04   2.3704649e-04   2.5115241e-04   1.5400925e-04   2.0401554e-04   2.4156601e-05   1.6605974e-05   1.8685791e-05   3.5975760e-04   7.0648333e-05   1.5145831e-04   8.8315370e-05   9.6908319e-05   3.9705262e-04   1.7433336e-04   1.6840303e-04   2.2485654e-04  -2.9188906e-05  -2.0138119e-05  -1.5479320e-03   9.6364354e-05
   4.1910229e-05   7.1706098e-05  -1.3559467e-04   1.0428640e-04   7.0681584e-05   8.6619293e-05   2.4888033e-05  -2.5655379e-05   4.7316731e-05  -8.8810142e-05   1.1299338e-05   4.4308727e-05   6.7109497e-05   5.3224048e-05  -6.6084840e-06  -8.0854501e-05  -3.3966568e-05   1.9057983e-04  -5.6863879e-04  -2.7030148e-04   5.3463574e-04   2.3674119e-04  -6.2282437e-05  -9.8902390e-05  -8.3835374e-05  -6.5252032e-05  -1.6277363e-04  -8.4682775e-05  -9.7498720e-05   1.4278889e-05   2.9809942e-05   5.5644261e-05  -1.3465919e-04  -1.7996219e-05  -8.8600427e-05  -9.2577509e-05  -8.9639427e-05   2.0614569e-04  -5.5721670e-05   1.2250985e-05   2.3922498e-06   1.3009247e-05   2.3193768e-04  -3.4299668e-05   1.7706601e-05   2.5213184e-04  -8.8604495e-05  -2.4273036e-06  -1.7611418e-03   2.2174869e-04
   1.2043269e-04   1.4835421e-04  -1.0835072e-04   1.8609826e-04   1.2327894e-04   1.8975389e-04   1.4235474e-04   8.1287733e-05   7.4141280e-05   5.0876526e-05   2.7330540e-05   1.7726219e-04   1.3407375e-04   8.9648718e-05   8.3822270e-06  -1.7094655e-05   2.4114159e-05   2.2231194e-04  -3.0222195e-04  -1.5001575e-04   6.8412372e-04   3.5676852e-04   9.5069438e-05   7.2894385e-05   8.3351581e-05   3.7739705e-05  -1.6274700e-04  -5.2798446e-06   6.2436906e-05   1.1085546e-04   2.0945293e-04   2.1838160e-04   1.3188398e-04   2.3156388e-04   7.6349543e-06   2.0677451e-06   2.9398283e-05   3.4702464e-04   4.6378686e-05   1.8484624e-04  -1.0845408e-04  -3.2664600e-05   3.8351942e-04   5.1041465e-05   1.1711386e-04   3.1047454e-04  -1.6247586e-04  -8.2424216e-05  -1.2999687e-03   2.0030813e-04
   1.4454780e-05   9.8173638e-05  -1.6514187e-04   1.0721017e-04   9.0655769e-05   1.3109457e-04   2.7449581e-05   1.1628784e-06  -4.9191902e-05  -1.3003291e-05  -1.5258887e-05   2.1609831e-05   8.0539219e-05   1.7126062e-05  -7.5336815e-05  -6.2420200e-05  -2.0247140e-05   1.8013947e-04  -4.4454206e-04  -2.1182952e-04   5.7801965e-04   2.7551988e-04   2.8449638e-05  -6.6078625e-05  -3.5867564e-05  -1.0868817e-04  -1.7823877e-04  -1.2494670e-04  -9.4694929e-05  -1.0818934e-05   3.6718789e-05   9.4892603e-05  -2.1684888e-05   1.2522347e-04  -1.1169136e-04  -1.1389480e-04  -1.5982509e-05   2.1017621e-04  -9.4292562e-05   5.8581078e-05  -3.2555169e-04  -1.8654174e-04   2.8500575e-04  -7.9164289e-05  -1.1710884e-04   1.3463006e-04  -2.5698193e-04  -2.6765422e-04  -1.5252235e-03   1.5072196e-04
  -1.8870161e-04  -2.2141221e-04  -2.6062835e-04  -1.3121805e-04  -6.4981381e-05  -1.2344656e-04  -1.8253627e-04  -1.5250147e-04  -8.2920606e-06  -1.9038745e-04  -9.7204131e-05  -2.5297605e-04  -7.7835894e-06  -1.3505365e-04  -2.0804917e-04   5.4160671e-05  -4.1930096e-05   4.5533248e-05  -5.8573100e-04  -2.6286714e-04   6.1490276e-04   2.3489229e-04  -1.8886496e-05  -6.3977233e-05  -8.3020648e-05  -1.3792851e-04  -2.2203197e-04  -2.0840552e-04  -1.4769188e-04  -8.0400256e-05   6.6634631e-05   4.6533671e-05   5.4137396e-05   1.6961536e-04  -1.4995641e-04  -8.4006344e-05  -3.2191325e-05   2.6082119e-04  -5.2034029e-06   1.2227417e-04  -9.2771843e-05  -5.9736973e-05   4.0003311e-04  -9.1539558e-05   9.1880225e-05   3.4801534e-04  -5.4690168e-05   3.8022594e-05  -1.4414249e-03   3.1106893e-04
   4.0422758e-05   7.5645337e-05  -1.1874452e-04   8.6155756e-05   9.2939510e-05   8.2085164e-05   3.2474101e-05   6.8085305e-06   1.0005245e-04   1.1913790e-05  -9.1841881e-05   6.4200205e-05   6.3854735e-05  -1.2591713e-05  -1.4983072e-04  -3.9918548e-05  -6.2442756e-05   1.0839981e-04  -5.8452948e-04  -2.1878924e-04   6.5163255e-04   2.5080927e-04  -8.4292087e-06  -5.0529627e-05  -6.3311876e-05  -4.0884166e-05  -2.6396324e-04  -1.4740140e-04  -9.7324984e-05   8.4965022e-06   3.4844754e-05   8.5124586e-05  -9.8989449e-06   1.8871998e-04  -5.8233363e-05  -1.6454977e-05   2.6691027e-05   2.7879913e-04   9.7180564e-06   8.6376887e-05  -8.1421524e-05  -3.0812902e-05   3.3346456e-04  -1.4676190e-04  -7.9894773e-05   2.9083574e-04  -8.3428051e-05  -1.3285362e-04  -1.1769058e-03   1.2813610e-04
  -1.1302318e-04  -8.6901113e-05  -2.4258182e-04  -4.6897094e-05   4.0070336e-06  -4.4120068e-05  -1.2712456e-04  -9.4610514e-05  -3.3529370e-05  -8.0830563e-05  -1.0969571e-04  -6.2429295e-05   4.4435310e-06  -7.6216522e-05  -1.8370216e-04  -8.2742023e-05  -9.6597032e-05   7.1029623e-05  -5.4835301e-04  -1.0393377e-04   2.5543326e-04   8.6171385e-05  -1.1187671e-04  -2.2047381e-04  -1.3876721e-04  -2.4269338e-04  -1.8493639e-04  -2.5431960e-04  -2.2233282e-04  -1.7406030e-04  -1.4506912e-04  -7.7621953e-05  -2.9960493e-05   6.0451945e-05  -2.5612052e-04  -2.1592034e-04  -9.6752636e-05   5.6698798e-05  -2.1588786e-04  -1.2669568e-05  -3.8212060e-04  -2.4053032e-04   3.0825002e-04  -1.3078788e-04  -1.0593672e-04   1.1379260e-04  -1.6495412e-04  -2.0103031e-04  -1.1783688e-03   2.6702430e-04
  -3.9885792e-05   5.2028608e-05  -1.6287132e-04   7.1610346e-05   1.1262293e-04   7.4588854e-05   1.4668072e-05   2.5273708e-05   6.3775376e-05   1.8761780e-04  -3.4509467e-05   1.6047385e-04   9.4252951e-05  -6.0920265e-05  -1.9645524e-04   6.6021089e-06  -1.2530938e-05   1.1525482e-04  -2.4914776e-04   8.9372843e-06   5.6785828e-04   1.6624373e-04   8.1175007e-05   3.6376496e-05   2.0923394e-06  -5.7464036e-05  -2.1477728e-04  -1.6456828e-04  -7.5381773e-05  -5.9096143e-05   8.2125160e-05   1.2607264e-04   1.9044519e-04   2.6167074e-04  -9.7561235e-05  -6.5797649e-05   5.1586801e-05   2.1963597e-04  -7.3651798e-05   8.1546852e-05  -2.5382510e-04  -1.4893002e-04   4.0183621e-04  -9.9091412e-05  -1.1509749e-04   3.2829485e-04  -6.0458224e-05  -1.1412267e-04  -1.6010471e-03   2.8691150e-04
  -5.3507873e-05  -2.9382489e-05  -1.3526808e-04   3.8855542e-05   7.1938506e-05  -8.4794474e-06  -1.4638687e-05  -1.0853367e-05  -3.5283516e-05   1.4202054e-05  -1.8260713e-05  -2.8414433e-06   4.8809849e-05  -1.1154623e-04  -2.2974559e-04   4.0648360e-05  -1.4178704e-05   7.5932541e-05  -4.0532742e-04  -9.8838500e-05   4.8878131e-04   6.0070277e-05  -2.6713673e-05  -9.9374396e-05  -1.2944052e-04  -1.4283347e-04  -2.5059489e-04  -2.7109295e-04  -2.1546058e-04  -1.6133646e-04  -4.7983478e-05  -6.4625929e-06  -1.4709222e-05   1.3390843e-04  -2.3120154e-04  -1.7519946e-04  -5.4801916e-05   7.6366356e-05  -1.9806411e-04  -6.2545980e-05  -2.2179309e-04  -2.0323147e-04   2.4633759e-04  -2.4758669e-04  -1.2800173e-04   2.4429272e-04  -2.2086840e-04  -1.6145878e-04  -1.4593907e-03   3.0697457e-04
  -2.9168322e-04  -2.7370951e-04  -3.6507752e-04  -1.4796836e-04  -8.3683000e-05  -1.3966452e-04  -1.7580669e-04  -1.4403269e-04  -1.3561540e-04  -1.1702607e-04  -1.7397084e-04  -9.1309739e-05  -3.8186699e-05  -9.7322220e-05  -2.1315305e-04  -1.1659503e-04  -8.0361147e-05   6.0759761e-05  -2.4736664e-04  -1.2741616e-04   6.0970843e-04   1.5541226e-04   7.7237728e-06   3.3329408e-05  -8.0681733e-05   8.8420529e-06  -3.0108917e-04  -1.8817885e-04  -7.9766105e-05  -3.3305147e-05   9.3641866e-05   1.6679414e-04   1.4335343e-04   3.3205136e-04  -5.4955959e-05  -1.2598181e-05   7.3489900e-05   3.5655848e-04   5.9647522e-05   1.5635426e-04   5.1073373e-05   8.9822533e-05   4.7344287e-04  -4.4984619e-05   7.3855146e-05   7.5443415e-04   8.4134066e-05   1.4590443e-04  -8.6217490e-04   6.2271004e-04
  -4.2891887e-05   3.8896633e-05  -1.2833223e-04   1.1467467e-04   8.4856052e-05   5.8052032e-05   6.1300510e-05   6.3070147e-05   8.3101084e-05   6.8853922e-05  -1.1340610e-05   1.3005687e-04   1.0387941e-04   2.1919112e-05  -1.0787274e-04  -4.3640881e-05   1.2499750e-05   1.7168613e-04  -1.9152749e-04   3.0336363e-05   6.8563822e-04   9.1770089e-05   3.7484104e-05   6.4311156e-05   1.9728373e-05   7.5152937e-05  -2.1754509e-04  -1.4244294e-04   9.0871417e-06  -9.5544292e-06   9.2408773e-05   2.0765075e-04   2.4084719e-04   3.6848150e-04  -3.2856294e-06   5.8119217e-06   8.8976652e-05   3.0697856e-04   1.7613131e-05   1.8719154e-04  -3.9727554e-05   6.8348338e-05   3.7698893e-04  -4.1481740e-05   6.6962588e-05   6.4338569e-04   2.0683308e-05  -1.9029714e-05  -1.0363428e-03   5.4727809e-04
  -1.8537953e-04  -1.2173151e-04  -2.0805560e-04  -4.2571578e-06  -1.0429229e-05  -5.5019358e-05  -5.1628438e-05  -5.1495153e-05   5.2307751e-06  -8.6541389e-05  -4.9856797e-05  -3.7800393e-05   3.2636817e-05  -2.2512377e-05  -1.1695161e-04  -8.0362508e-05  -8.0901391e-06   9.7701726e-05  -1.8473722e-04   1.6259242e-04   1.8673696e-04  -2.7101970e-04  -8.0724167e-05  -1.4231469e-04  -1.1265412e-04  -8.4075531e-05  -2.4072404e-04  -2.2707279e-04  -1.7005335e-04  -1.2737165e-04  -5.5187043e-05   3.1478081e-05   2.2253831e-04   1.3832387e-04  -1.6251318e-04  -1.1477812e-04  -3.3457469e-05   1.8299733e-04  -1.0705424e-04   2.1025257e-05  -8.0910366e-05   3.9971320e-07   2.9899855e-04  -8.6519012e-06   2.1697565e-04   6.9296930e-04   4.4134191e-05   4.4858101e-05  -1.2242403e-03   5.7288096e-04
  -9.1977738e-05  -1.7327166e-05  -1.2514906e-04   1.0395731e-04   7.7018842e-05   6.9845926e-05   9.3256815e-05   5.9215316e-05   1.5290365e-04   2.0625551e-04   3.2888984e-05   1.8140521e-04   1.2227274e-04   5.2423104e-05  -4.3614458e-05   5.5869873e-06   9.1834278e-05   1.8613882e-04   1.2639012e-04   3.1227490e-04   3.6838485e-04  -2.6878697e-04   1.1563539e-04   1.6724736e-04   7.8977413e-05   1.2099476e-04  -1.8746147e-04  -9.5124444e-05  -2.3873156e-06   3.7682836e-05   1.6953066e-04   2.4174099e-04   4.8422889e-04   4.3525652e-04   3.0297493e-05   7.2845702e-05   1.1795639e-04   3.4336545e-04   1.0008534e-04   2.0268625e-04   2.5906244e-05   1.6063244e-04   4.6006110e-04   1.4221888e-04   2.0671402e-04   6.7896262e-04   1.0113124e-04   6.4426022e-05  -1.0608569e-03   5.8836653e-04
  -1.2912381e-04  -1.9919384e-05  -1.1310072e-04   7.5170487e-05   6.2557679e-05   4.4606946e-05   2.2211076e-05   2.1203590e-05   7.6965705e-05   1.1871020e-04   4.5779478e-05   1.1359775e-04   1.2819911e-04   6.3966043e-05  -3.8557293e-05  -5.3940030e-06   6.9274240e-05   1.8015677e-04   4.9012178e-05   2.6067661e-04   3.3461754e-04  -3.8108995e-04   3.3639095e-05   5.2602561e-05  -1.4126965e-05   3.1055257e-05  -1.7055262e-04  -1.5221853e-04  -7.0043301e-05  -3.1247982e-05   8.6843793e-05   1.5447033e-04   2.9807311e-04   3.2688482e-04  -3.9503040e-05  -1.4559590e-05   6.3010899e-05   2.6436406e-04  -1.5888165e-05   1.4244484e-04  -4.1495299e-05   1.0095933e-04   3.2123923e-04   3.6678026e-05   2.0805752e-04   6.8117562e-04  -1.6845279e-05  -1.0053687e-04  -1.1884115e-03   5.7633786e-04
  -3.1343984e-04  -2.2311020e-04  -2.6179064e-04  -1.1230670e-04  -8.3506646e-05  -1.2617353e-04  -1.5515205e-04  -1.1515529e-04  -6.4481719e-05  -1.9015117e-04  -1.0214428e-04  -1.1450143e-04  -1.3839011e-05  -4.6690922e-05  -9.4838928e-05  -1.3525196e-04  -4.6755635e-05   8.0723083e-05  -2.7705645e-04   9.1593320e-05   1.6933188e-04  -5.7992013e-04  -1.4118874e-04  -1.7179945e-04  -1.4869025e-04  -1.2334994e-04  -2.0781858e-04  -1.9175457e-04  -1.4163268e-04  -9.2739283e-05   6.6078108e-05   1.2704906e-04   2.8094513e-04   3.2901971e-04  -5.4634645e-05  -6.9746479e-06   4.5712899e-05   3.2208112e-04   5.8519301e-05   2.1659042e-04   7.0534610e-05   1.7995331e-04   4.2109808e-04   1.4142506e-04   3.5215681e-04   1.0595971e-03   9.0965346e-05   1.1728059e-04  -7.7136623e-04   8.4010273e-04
  -1.0366593e-04   2.2074433e-05  -9.4864969e-05   1.2647785e-04   8.4242252e-05   9.6550233e-05   1.1788347e-04   1.3095536e-04   2.0933834e-04   1.1722896e-04   6.3499603e-05   1.7071488e-04   1.6073482e-04   9.6177522e-05   2.0890357e-06   6.0472568e-05   1.3529042e-04   2.0669703e-04  -2.0319445e-05   2.1169789e-04   4.2156644e-05  -3.4620811e-04   6.1022463e-05   6.4077569e-05   6.3866937e-05   8.4179141e-05  -1.5941646e-04  -1.2050539e-04  -1.1802427e-05   1.1724711e-05   1.6884631e-04   1.8892995e-04   2.4877785e-04   3.8666744e-04  -1.1034263e-05   3.9710420e-05   1.0716182e-04   3.4663457e-04   1.0521249e-04   2.4281346e-04   2.4386974e-05   1.7150036e-04   4.5720782e-04   2.3379597e-04   2.6521433e-04   9.2499697e-04   6.2759609e-05   7.1009861e-05  -8.2399958e-04   8.6702529e-04
  -1.9416132e-04  -9.9545970e-05  -1.4109796e-04   4.7488079e-06  -1.0942897e-05  -6.1624064e-06   5.1657980e-06   3.7249476e-05   3.4870054e-06  -1.3179803e-04  -1.7702992e-05  -4.8530987e-05   8.1944927e-05   1.7655948e-05  -6.5174849e-05   3.4660756e-05   8.3996812e-05   1.5606779e-04  -2.2289171e-04  -3.5150821e-05   1.7200147e-04  -3.7590208e-04  -7.1810369e-05  -7.9584381e-05  -6.3324202e-05  -3.7698137e-05  -1.9152263e-04  -2.2089590e-04  -1.3358211e-04  -1.0369431e-04   2.4379926e-05   3.8731010e-05  -2.4711992e-05   2.3104485e-04  -1.2832755e-04  -7.8894496e-05  -1.4563919e-05   1.8708527e-04  -4.4120952e-05   1.2032558e-04   4.9162613e-06   6.1757317e-05   2.1548745e-04   4.3618140e-05   1.5282851e-04   9.2550303e-04  -1.0836378e-04  -7.3522751e-05  -1.2364301e-03   7.6006149e-04
  -3.7916345e-04  -3.9830129e-04  -3.0296878e-04  -2.3224251e-04  -1.9830522e-04  -2.2892673e-04  -2.3970670e-04  -1.4238078e-04  -1.1057025e-04  -4.3090689e-04  -2.2106981e-04  -3.6353237e-04  -1.0786793e-04  -1.0220142e-04  -1.5290246e-04   2.4221383e-05   8.8242086e-06   5.8066173e-05  -4.1021875e-04  -1.5107903e-04   1.9414278e-04  -2.0241716e-04  -8.8161280e-05  -5.8047390e-05  -6.2127830e-05  -4.6203048e-05  -1.8054535e-04  -2.1667049e-04  -1.6512170e-04  -4.4801414e-05   6.3354782e-05   4.4932622e-06   3.7222129e-05   3.2505681e-04  -1.0932137e-04  -4.6371882e-05   1.3975671e-05   2.6212758e-04   4.6154499e-05   2.2514048e-04  -8.8109155e-06   1.0333786e-04   4.0301809e-04   2.5738915e-04   1.4516327e-04   1.0240270e-03   3.4890945e-05   4.0873805e-05  -5.0150632e-04   1.0281396e-03
  -8.1581260e-05  -6.8267203e-05  -4.1375573e-05  -1.1787750e-05  -2.3773813e-05  -1.3621318e-05   5.4243219e-07   7.3137009e-05   1.0280571e-04  -6.9151953e-05  -5.3814059e-05  -1.6360529e-05   3.1622494e-05  -3.4665540e-05  -1.4169866e-04   1.5168110e-04   9.7743963e-05   1.3516952e-04  -2.3583643e-04  -2.8087239e-05   1.2075969e-04  -2.4783620e-04  -1.0506441e-04  -8.3382300e-05  -7.4365395e-05  -5.4731194e-05  -1.8515826e-04  -2.3659247e-04  -1.4508892e-04  -9.5492491e-05   3.3898927e-05  -2.1589349e-05   2.9601897e-05   2.3477366e-04  -1.5374852e-04  -8.5903637e-05  -8.5119964e-06   2.5714739e-04  -4.8827060e-05   1.9680212e-04   7.3742308e-06   7.9602185e-05   3.0620393e-04   1.2534636e-04   9.8529956e-05   9.1770396e-04  -9.2837763e-05  -6.7161309e-05  -9.9856290e-04   1.0449589e-03
  -2.5839583e-04  -1.3674502e-04  -2.6306411e-04  -1.2464542e-04  -1.1642311e-04  -1.0243840e-04  -1.4856955e-04  -4.8984894e-05  -3.5705645e-05  -3.2683241e-04  -2.2569780e-04  -1.2067935e-04  -3.8342405e-05  -3.4703913e-05  -1.4487946e-04  -1.0597857e-04  -3.0450372e-05   4.7731934e-05  -5.1666790e-04  -2.2075497e-04   1.4926241e-04  -3.4410501e-04  -2.0538714e-04  -2.6643323e-04  -1.7804519e-04  -1.1935287e-04  -2.8074277e-04  -2.8419995e-04  -2.1328527e-04  -1.5757556e-04  -1.5111650e-04  -7.2190764e-05  -2.3245870e-04   5.4695767e-05  -1.8668914e-04  -1.2594738e-04  -5.2440457e-05   1.1289926e-04  -1.5108775e-04  -1.1259172e-06  -1.8882660e-04  -4.4464912e-05   1.1542998e-04  -9.6170064e-05   8.8684661e-05   8.0674619e-04  -1.6939861e-04  -1.7822928e-04  -1.1409395e-03   1.0298803e-03
  -1.6246167e-04   2.4218616e-05  -1.8606862e-04  -2.7713166e-05  -1.3578813e-05   2.1715474e-05  -7.8707213e-05   5.3082691e-05   8.9119358e-06  -5.0795203e-05  -9.7014199e-05   4.9665086e-05   7.7512545e-05   9.0424282e-06  -1.2494292e-04   3.2812830e-05   6.7424757e-05   1.2457273e-04  -2.8039914e-04  -3.7327121e-05   3.7662825e-04  -1.3142232e-04  -1.6696398e-05   1.8056509e-05  -2.9434483e-05  -2.2537062e-05  -2.2252295e-04  -1.7601647e-04  -3.5891197e-05  -6.5642525e-05   6.3207575e-05   8.0452832e-05   1.1512604e-04   3.0041864e-04  -6.4960535e-05  -3.0454546e-06   8.9063244e-05   3.2365430e-04  -5.4771817e-06   1.8203123e-04  -1.3464989e-04   4.2137250e-05   3.9203907e-04   1.0644312e-04   2.0255183e-04   8.1668433e-04  -1.2177719e-04  -1.9863207e-04  -6.8200525e-04   9.5164077e-04
  -1.1088127e-04   1.0764805e-04  -1.3021432e-04  -4.5477522e-05   2.4551107e-05   1.4688524e-05  -1.1017828e-04   6.9514674e-05   4.9144182e-07  -7.2063303e-05  -2.3013599e-05  -1.5751664e-05   1.5368720e-04   1.1589304e-05  -1.4407189e-04   1.2629473e-04   1.0418644e-04   1.4078025e-04  -3.7707904e-04  -4.7778183e-05   2.7727382e-04  -1.8226723e-04  -9.2572867e-05  -1.1112016e-04  -9.5606614e-05  -1.2573109e-04  -1.5183652e-04  -2.4385063e-04  -1.1406201e-04  -1.8681279e-04  -5.1615043e-05  -1.1344223e-05  -3.5494875e-06   1.3615398e-04  -1.7661267e-04  -1.4594167e-04   9.2040609e-06   1.4673483e-04  -1.9307814e-04   4.4201465e-06  -3.0458413e-04  -1.2777862e-04   2.6867804e-04  -1.2847529e-05  -1.5670705e-05   4.6415030e-04  -3.1137571e-04  -3.9386045e-04  -1.0488975e-03   7.5507147e-04
  -2.2901595e-04  -5.0576782e-05  -2.5405607e-04  -1.9393684e-04  -8.9300454e-05  -1.4292530e-04  -2.9470684e-04  -1.2372386e-04  -1.7553820e-04  -3.0296753e-04  -1.6240936e-04  -2.2407624e-04  -2.8147863e-06  -1.4441667e-04  -2.6979062e-04   5.9082580e-05   2.2524453e-05   1.9079185e-05  -5.2804261e-04  -1.5316319e-04   2.9606230e-04  -6.6196182e-05  -1.5209643e-04  -1.1176436e-04  -2.0372329e-04  -2.2222022e-04  -1.2029873e-04  -2.9851761e-04  -1.5015119e-04  -2.5399419e-04  -5.3480493e-05  -5.3958262e-05   6.7057161e-05   1.5393122e-04  -2.4135373e-04  -1.6771542e-04  -3.4616551e-05   1.4230050e-04  -1.7436912e-04   6.3178159e-05  -2.5444420e-04  -1.2310066e-04   3.0034056e-04  -4.8279013e-05   9.8635945e-05   2.4062338e-04  -1.4501336e-04  -2.4309379e-04  -5.8585580e-04   6.9417519e-04
   1.4180712e-04   2.9949972e-04  -2.6614196e-05   1.8768327e-04   1.5981573e-04   1.8149758e-04   2.9769060e-04   1.4384992e-04   2.0242503e-04  -6.7866611e-05  -1.4929254e-04   3.0955463e-04   5.0081537e-05  -1.5906994e-04  -1.2160347e-04   6.2082538e-05   8.0668229e-05   1.0739642e-04  -2.0292462e-04  -1.4134515e-04   3.2778771e-04   2.4390145e-04   8.5007079e-05   1.5101473e-04   1.4695806e-04   1.2744429e-04  -1.8168405e-04  -1.0346820e-04  -3.9557242e-05   2.7563252e-05   2.9575106e-04   1.0145959e-04   1.2105406e-04  -7.8957892e-05  -9.9171280e-05  -1.7303503e-04  -1.3575335e-04   1.1791374e-04   1.7950917e-05   2.1608704e-04  -1.8679930e-04  -1.6797917e-04   1.5662673e-04  -1.7933575e-05   4.0389659e-05  -1.9429652e-04  -3.0282183e-04  -3.3238850e-04  -1.1410255e-03   9.5959142e-05
   1.7900745e-04   1.0717624e-04  -1.6570457e-04   2.1043335e-04  -3.1121835e-05   9.9844547e-06   2.4108791e-04  -7.9134283e-05   8.3646897e-05  -2.2289591e-04  -3.1090059e-04  -2.4839388e-05  -2.4036570e-04  -2.4640292e-04  -2.1783543e-04  -1.3605641e-04  -8.7822176e-05   6.8220703e-05  -4.6067848e-04  -3.3387914e-04   1.9452258e-04   8.2375218e-06  -2.2385146e-04  -1.7458540e-04  -1.4161455e-04  -9.1251233e-05  -2.5351820e-04  -2.3101694e-04  -1.8180678e-04  -8.6151842e-05  -5.5759258e-05  -5.4210770e-05  -1.5377757e-04  -1.8806293e-04  -2.0979829e-04  -2.1995568e-04  -2.2584281e-04   9.8167700e-05  -1.3134502e-04  -6.6300905e-05  -1.6339528e-04  -2.0879348e-04   2.1720996e-05  -3.7712377e-04  -1.1908971e-04   8.0188205e-05  -4.5662822e-04  -3.7978205e-04  -1.0750165e-03   3.4679123e-04
  -4.0327432e-05  -2.9311050e-05  -2.0081286e-04   6.0711289e-05  -1.9106832e-05   4.7063615e-05   9.0945068e-05  -2.1508542e-05   6.3835512e-05  -1.1329300e-04  -1.6834048e-04   5.0138093e-05  -2.4541250e-05  -8.1316830e-05  -8.9108638e-05  -5.2596602e-05  -2.1250289e-05   1.1270929e-04  -3.8101725e-04  -2.0833900e-04   3.4464267e-04   1.9683834e-04  -1.3134284e-05   1.4206845e-05   3.0645926e-05   1.4053755e-05  -1.5166821e-04  -1.0801601e-04   1.7379536e-05   3.9689530e-05   1.4582265e-04   1.3273554e-04   1.0633477e-04   1.3328495e-04  -2.3278919e-05  -8.2121751e-06  -1.9155970e-05   3.3153038e-04   1.0316437e-04   1.5636467e-04   2.9796758e-05   3.7089478e-05   3.2148403e-04  -1.5723944e-04   6.0796792e-05   2.6783650e-04  -1.9214954e-04  -8.3350453e-05  -1.0638869e-03   5.1368010e-04
   5.2896154e-05   1.2917920e-04  -1.5306109e-04   4.7827340e-05   2.0351170e-05   6.6211374e-05   1.7319788e-05   2.2809632e-05   2.5798021e-05  -1.7653887e-04  -1.1025646e-04  -1.3968614e-06   7.3334755e-05   2.0020831e-05   1.0605257e-06  -5.0868388e-05  -2.2130922e-05   1.4771454e-04  -5.0259061e-04  -2.1602282e-04   3.5403241e-04   2.0128048e-04  -5.0820763e-05  -7.1808259e-05   8.6058217e-06  -1.2328094e-06  -9.3829083e-05  -9.5820149e-05  -5.6097510e-05   7.9143422e-07   3.4213350e-05   4.7772872e-05  -2.9985778e-05   7.0446818e-05   5.7375922e-07  -7.6162746e-06  -8.9764872e-06   2.5511868e-04   2.2311855e-05   9.2103226e-05   1.0942869e-05   3.6362148e-05   1.9879628e-04  -3.0594520e-04   8.7081207e-06   2.9903976e-04  -2.3040993e-04  -2.0564614e-04  -1.1740453e-03   4.0951613e-04
  -1.1688755e-04  -3.0524388e-05  -2.8631176e-04  -1.2936303e-04  -8.7708439e-05  -7.4864111e-05  -1.9252431e-04  -1.1819444e-04  -1.1707405e-05  -4.4777419e-04  -2.1602045e-04  -1.8526385e-04  -1.4171750e-05  -4.0664316e-05  -3.1180822e-05  -1.5701944e-04  -1.4308846e-04   1.0631991e-05  -7.0448796e-04  -3.6211641e-04   2.3323698e-04   5.9680006e-05  -2.0065566e-04  -3.4112993e-04  -1.2957308e-04  -1.7204290e-04  -1.4777352e-04  -2.1121957e-04  -1.9997831e-04  -1.3110382e-04  -1.6025381e-04  -1.1546487e-04  -1.8277596e-04  -9.0006703e-05  -9.7259377e-05  -1.1557382e-04  -8.9681685e-05   1.9873741e-04  -3.1527798e-05   1.4154850e-05  -4.1970608e-05   1.5620019e-05   2.4619917e-04  -2.6869675e-04  -1.6336706e-05   4.2461493e-04  -1.5564308e-04  -8.5278916e-05  -9.5717964e-04   4.6291464e-04
   1.6444999e-05   1.3010539e-04  -1.8587921e-04   2.2567938e-06   4.0037030e-05   9.4947696e-05  -2.5879301e-05   3.6817088e-05   1.0342798e-04  -1.5784234e-04  -1.1136684e-04   4.1125033e-05   1.3358648e-04   5.7679721e-05   5.0570077e-05  -5.2773554e-05  -2.8814997e-05   8.9593123e-05  -4.6071978e-04  -1.8918172e-04   4.2949087e-04   2.6905249e-04  -1.1506119e-05  -5.6369776e-05   6.6628236e-05   3.1248132e-05  -1.2075937e-04  -7.0782102e-05  -2.5873054e-05   3.8710616e-05  -5.0832364e-06   3.1215604e-05  -1.5410827e-05   1.1676427e-04   6.8126574e-05   4.2577918e-05   8.9921195e-05   2.7810587e-04   6.0913393e-05   1.1086425e-04   4.8843722e-05   1.0075029e-04   2.4006447e-04  -2.4778896e-04  -1.4261199e-04   3.3697818e-04  -1.1848070e-04  -6.8933194e-05  -1.1387268e-03   4.6581455e-04
  -7.0558403e-05   5.2408406e-05  -2.8512030e-04  -9.1701790e-05  -1.2982753e-05   6.6323482e-06  -1.3420270e-04  -4.6888850e-05  -1.1564034e-04  -3.4077893e-04  -1.5781248e-04  -8.3298852e-05   1.0095604e-04   5.4755510e-05   4.6433273e-05  -1.4931912e-04  -1.1361434e-04   6.8778645e-05  -6.6267012e-04  -2.7104243e-04   3.8311465e-04   1.9225749e-04  -1.2085790e-04  -1.5695932e-04  -3.4904635e-05  -7.8729085e-05  -1.4970446e-04  -1.1051874e-04  -1.1195602e-04  -2.8283346e-05  -1.2189812e-04  -7.9386875e-05  -2.0517006e-04  -3.0352128e-05   9.1881475e-06  -5.7483708e-06   2.5672882e-05   1.5004216e-04  -1.8786981e-05  -2.6001670e-05   5.4872566e-05   1.3369420e-05   3.9601353e-05  -4.1721427e-04  -7.0925547e-05   3.1106730e-04  -2.5609543e-04  -2.4203051e-04  -8.5762300e-04   3.2339280e-04
  -2.9837005e-04  -2.0768378e-04  -4.9743732e-04  -3.0068131e-04  -1.8908000e-04  -2.1312811e-04  -4.2460195e-04  -2.6379889e-04  -2.4311607e-04  -6.5060100e-04  -3.2050573e-04  -3.3108969e-04  -7.4485361e-05  -4.2353673e-05  -2.6315294e-05  -3.0708092e-04  -2.5822196e-04  -6.3042804e-05  -9.3146268e-04  -3.8297698e-04   3.3752187e-04   1.1841735e-04  -2.3906765e-04  -2.6200133e-04  -1.3535091e-04  -1.5924992e-04  -1.9449585e-04  -1.0679357e-04  -1.6803971e-04  -3.7296420e-05  -1.4443569e-04  -8.4349995e-05  -1.3661072e-04   6.0496852e-05   2.8340903e-05   3.1493299e-05   5.2936757e-05   2.5567354e-04   1.0037630e-04   5.1347670e-05   1.1724250e-04   1.3508067e-04   1.1448609e-04  -3.7823155e-04  -6.4467284e-05   3.6622107e-04  -1.2771988e-04  -4.2210635e-05  -1.2190683e-03   6.3890556e-04
  -7.6671284e-05   4.3974909e-05  -3.2555743e-04  -9.0125955e-05  -2.5688389e-05  -2.3380340e-05  -1.8254617e-04  -5.3644853e-05   4.2607855e-05  -3.3627480e-04  -1.5384462e-04  -5.5894354e-05   8.2714636e-05   5.5915210e-05   2.0434531e-05  -1.6505436e-04  -1.2857850e-04   1.0723455e-05  -7.0780504e-04  -2.7157980e-04   3.7320665e-04   2.1293621e-04  -1.2185520e-04  -1.4559900e-04  -2.3966220e-05  -6.3238091e-05  -1.7942234e-04  -1.0043223e-04  -1.2617529e-04   5.5174933e-06  -1.4217682e-04  -1.1990850e-04  -1.5619214e-04   2.4548224e-05   2.8678329e-05   1.7112321e-05   6.3002677e-05   1.9598953e-04   4.1387495e-05  -7.7848554e-06   3.3811673e-05   5.5363245e-05   9.5330106e-05  -3.6369482e-04  -1.5948372e-07   3.5297711e-04  -2.1502558e-04  -1.6624821e-04  -8.6929329e-04   5.1821844e-04
  -2.2120892e-04  -1.3954639e-04  -4.3527380e-04  -2.4283194e-04  -1.3016636e-04  -1.5019956e-04  -3.4765695e-04  -1.7334909e-04  -1.5850829e-04  -4.9435819e-04  -2.4381818e-04  -2.6153002e-04  -2.7774031e-05  -3.4765919e-05  -6.2720712e-05  -2.2339945e-04  -2.2160054e-04  -4.9814153e-05  -9.1552734e-04  -3.6900587e-04   2.6521483e-04   6.9683214e-05  -2.5695926e-04  -3.0343156e-04  -1.7042861e-04  -2.0792014e-04  -2.3946767e-04  -1.9500419e-04  -2.4565466e-04  -9.4398092e-05  -3.2444930e-04  -2.6564262e-04  -3.7441470e-04  -1.2529825e-04  -1.0069893e-04  -7.1857372e-05   2.6211658e-06   3.6530026e-05  -1.5241401e-04  -1.8627029e-04  -9.7822813e-05  -6.6255758e-05  -1.1916454e-04  -5.7529769e-04  -1.3545217e-04   2.9709630e-04  -3.2504112e-04  -3.2137267e-04  -7.6990615e-04   4.5913493e-04
  -3.3052298e-04  -2.7164796e-04  -4.4818938e-04  -2.5558806e-04  -1.2571002e-04  -1.2606880e-04  -3.0037560e-04  -1.6417363e-04  -3.0881205e-05  -3.0881132e-04  -1.9347358e-04  -1.5059741e-04   1.8827815e-05  -3.7960679e-05  -5.4872802e-05  -1.1046232e-04  -1.6410113e-04  -5.7220779e-05  -6.8921241e-04  -2.6001324e-04   3.0540017e-04   1.6539182e-04  -1.3229446e-04  -1.2914334e-04  -6.3045016e-05  -1.8357616e-04  -2.0539315e-04  -1.4488380e-04  -2.0026394e-04  -4.5939090e-05  -1.5895221e-04  -1.9965594e-04  -9.7714386e-05   5.0738294e-05  -1.9454326e-05  -2.4876895e-06   7.8755940e-05   1.3633881e-04  -2.1134400e-05   3.4578895e-06  -1.1947782e-04   5.4225252e-06   1.6711166e-04  -4.0334914e-04  -1.6006622e-04   2.6046654e-04  -1.7866248e-04  -1.7297702e-04  -5.5737869e-04   4.3249741e-04
  -2.2882757e-04  -1.8772198e-04  -3.6234772e-04  -2.7517334e-04  -1.1144008e-04  -1.6667141e-04  -3.3799701e-04  -1.5976038e-04  -1.6836470e-04  -3.4086997e-04  -2.3115458e-04  -2.8505566e-04  -2.6746784e-05  -1.0888382e-04  -1.4867238e-04  -2.8457876e-05  -1.6448590e-04  -9.4144605e-05  -8.6143467e-04  -2.5739681e-04   2.9994245e-04   2.0477719e-05  -1.9907329e-04  -2.3834627e-04  -1.5117474e-04  -2.3863243e-04  -1.4783573e-04  -2.4746216e-04  -2.9139177e-04  -1.6953271e-04  -2.7560577e-04  -3.2201494e-04  -2.1690583e-04  -8.5037187e-05  -1.4866455e-04  -1.4809992e-04  -2.3004754e-05  -4.9566479e-05  -2.3427885e-04  -1.8528254e-04  -2.3782853e-04  -1.6859719e-04   4.7519779e-06  -3.6934027e-04  -2.6007244e-04   1.2799398e-04  -2.7291215e-04  -3.0208952e-04  -1.1471962e-03   2.4918572e-04
  -3.9257284e-04  -3.4726155e-04  -5.5420987e-04  -4.3839208e-04  -2.3221031e-04  -3.3019649e-04  -5.1213900e-04  -3.1002672e-04  -4.8788026e-04  -6.1170111e-04  -4.3645367e-04  -4.6854970e-04  -2.0672182e-04  -2.0433823e-04  -2.3868472e-04  -2.5854618e-04  -3.4233675e-04  -2.0389400e-04  -9.6829724e-04  -4.0484197e-04   1.7273989e-04  -9.5478601e-05  -3.4963631e-04  -4.3289343e-04  -3.1690518e-04  -3.0268374e-04  -2.9496101e-04  -2.8890159e-04  -3.4501051e-04  -1.9214988e-04  -3.0678092e-04  -3.2317921e-04  -2.3556002e-04  -1.0607868e-04  -1.2936410e-04  -7.6760276e-05   3.0036736e-06   7.6186094e-05  -8.3182465e-05  -1.4305355e-04  -6.3725776e-05  -4.8522386e-05   6.0526956e-05  -4.1966522e-04  -1.6282810e-04   1.9173817e-04  -1.5109927e-04  -1.6523166e-04  -8.2747958e-04   4.1048974e-04
  -2.1696222e-04  -7.3755415e-05  -3.8651680e-04  -1.8349095e-04  -6.2008759e-05  -7.8622114e-05  -2.2978210e-04  -1.0299861e-04  -1.6678921e-04  -2.0776666e-04  -2.3306014e-04  -1.0347622e-04   8.2238030e-06  -4.0132571e-05  -1.2503196e-04  -9.0644528e-05  -1.5962825e-04  -5.1467348e-05  -7.9752144e-04  -2.3703816e-04   1.7598203e-04   1.3334655e-04  -1.3678409e-04  -1.2998968e-04  -6.4030595e-05  -1.3987158e-04  -2.2194933e-04  -1.9242328e-04  -2.0227875e-04  -1.1041538e-04  -2.1125207e-04  -2.2961864e-04  -1.6773125e-04  -1.4299154e-05  -7.8337296e-05  -5.4319102e-05   4.9958118e-05   6.9378279e-05  -1.2327163e-04  -8.8720037e-05  -2.5501661e-04  -1.2753395e-04   8.2319166e-05  -3.4752290e-04  -2.1892686e-04  -6.8730020e-05  -2.1096297e-04  -4.4114445e-04  -6.7393610e-04   1.8021431e-04
