  -1.5729730e-04  -1.2111866e-04   1.7850411e-04  -3.9597182e-04  -2.2667895e-04  -2.8961297e-04  -3.8002295e-04  -1.4990207e-04   7.4619311e-05   4.7882224e-04   5.7197118e-04  -1.3823523e-04  -5.0143059e-04  -4.1995841e-04  -6.1661156e-04  -2.6925857e-04  -2.0076642e-04  -8.4244146e-04   1.5492324e-04   6.2409131e-04   1.0795527e-03   1.2188089e-03   1.0018533e-04   7.4149383e-04   1.1975867e-04   7.3242246e-04  -1.1381761e-03  -3.2726742e-04  -4.2629548e-04  -3.6355312e-04   3.4522483e-05  -5.1376963e-04   6.5823557e-04  -4.0817495e-06   1.8476568e-04   3.6777274e-04   1.9216799e-04  -6.9813489e-04  -6.3751868e-05  -6.3870783e-04  -1.1768354e-03  -1.2087073e-03  -1.2096012e-03   2.1386430e-04   5.9293199e-04   2.4749686e-03   1.0414944e-03  -1.1745505e-04  -1.3859989e-06  -9.2247377e-05
  -1.9311214e-04  -1.6944302e-04   2.0620057e-04  -3.7505772e-04  -1.8604929e-04  -2.3219653e-04  -3.3381229e-04  -1.0783238e-04  -1.4510600e-05   5.7733431e-04   6.1437930e-04  -6.1943924e-06  -4.5226762e-04  -3.7881121e-04  -5.7002570e-04  -2.2403458e-04  -1.6612894e-04  -8.3452102e-04   3.7406164e-04   7.1118661e-04   1.1755817e-03   1.3121321e-03   2.0623722e-04   9.4214600e-04   2.1868786e-04   8.2700164e-04  -1.1023515e-03  -2.2529620e-04  -2.6214725e-04  -2.8429404e-04   1.5131854e-04  -4.0327368e-04   9.2868775e-04   1.4185612e-04   2.8932237e-04   5.0226803e-04   3.0148085e-04  -4.8415441e-04   1.2492295e-04  -4.3315563e-04  -9.7497768e-04  -1.0344340e-03  -9.5395447e-04   4.5668997e-04   8.4279705e-04   2.6483131e-03   1.2221377e-03  -8.2593133e-06   2.2199315e-04   6.4717453e-05
  -4.7903300e-06   4.1730375e-05   3.0412662e-04  -2.9513479e-04  -8.2417966e-05  -1.8005718e-04  -2.9945452e-04  -2.7055414e-05   2.4064319e-04   5.5440998e-04   6.8070577e-04   3.1430533e-05  -3.6846750e-04  -2.9113772e-04  -5.2361825e-04  -1.7244667e-04  -1.2320557e-04  -7.7280140e-04   3.3001543e-04   7.0413639e-04   1.1721879e-03   1.3174390e-03   1.6374199e-04   8.1669970e-04   1.8401007e-04   7.4794883e-04  -1.0637438e-03  -2.2467479e-04  -2.6257109e-04  -2.8903931e-04   1.3074664e-04  -4.2554381e-04   8.2596776e-04   1.3025641e-04   2.1178849e-04   4.4751359e-04   2.7020540e-04  -5.7140714e-04   4.2339205e-05  -5.0743454e-04  -1.0413739e-03  -1.0665320e-03  -1.0090922e-03   4.1902484e-04   8.3210226e-04   2.3778386e-03   1.1341044e-03  -4.3716485e-05  -4.8336780e-05  -7.3795716e-05
  -8.5656655e-05  -5.0759452e-05   2.4787261e-04  -4.0026524e-04  -1.3996173e-04  -2.4189630e-04  -4.2032136e-04  -1.4028027e-04   1.1635738e-04   3.5309073e-04   5.7193800e-04  -1.1140006e-04  -4.5737624e-04  -3.5760176e-04  -5.8437424e-04  -2.7678435e-04  -2.3605005e-04  -8.4996613e-04   9.2061549e-05   5.6676497e-04   1.0182380e-03   1.1827153e-03  -5.4692725e-07   5.1275117e-04   1.3931466e-05   4.8152992e-04  -1.1099310e-03  -3.4496200e-04  -4.1018371e-04  -4.1319625e-04  -5.2126987e-05  -5.6606601e-04   6.2394422e-04  -9.2240407e-05   6.7389999e-05   3.1433185e-04   1.6720041e-04  -6.5868674e-04  -4.6509755e-05  -6.1426952e-04  -1.0476788e-03  -1.1195369e-03  -1.0100561e-03   3.8925861e-04   7.0689555e-04   2.1798490e-03   1.1555903e-03  -3.2090363e-06  -1.1530117e-05   1.1562487e-04
   5.0235340e-05   5.6928769e-05   3.5403520e-04  -2.5187709e-04  -2.2326134e-05  -1.0465602e-04  -2.6805417e-04   9.1995804e-07   2.4455960e-04   5.9993117e-04   6.5166806e-04   1.1613202e-04  -3.3343039e-04  -2.5591953e-04  -5.1425700e-04  -1.4188451e-04  -1.2550566e-04  -7.5806858e-04   3.8141085e-04   7.1934395e-04   1.1040081e-03   1.3834918e-03   2.0640624e-04   8.1341172e-04   2.2290886e-04   6.8601331e-04  -1.0374709e-03  -1.6706172e-04  -1.9908177e-04  -2.4330823e-04   1.6056083e-04  -3.9310264e-04   8.8492013e-04   1.5350421e-04   2.2044388e-04   4.7440676e-04   3.4227813e-04  -5.1563227e-04   9.3446877e-05  -4.4661466e-04  -1.0181793e-03  -1.0261761e-03  -9.3506696e-04   4.4764511e-04   7.2548736e-04   2.2455370e-03   1.2058932e-03  -1.3269732e-05   2.0898847e-04   2.2569518e-06
   1.4321863e-04   1.4314274e-04   4.2459299e-04  -2.4760634e-04   3.2887452e-05  -8.7817738e-05  -2.8557863e-04   4.6674384e-05   1.6131664e-04   5.3883414e-04   6.5460126e-04   9.8415527e-05  -2.9321769e-04  -2.2676948e-04  -4.9040996e-04  -1.5247906e-04  -1.3758845e-04  -7.4136851e-04   2.8285888e-04   6.8093213e-04   1.0492622e-03   1.3167165e-03   1.3376637e-04   6.3880312e-04   1.4944376e-04   5.3906179e-04  -9.9822297e-04  -1.9977705e-04  -2.5516778e-04  -2.8110039e-04   6.8410991e-05  -4.5350729e-04   7.7511242e-04   6.5957989e-05   1.3774495e-04   3.9602100e-04   2.9334152e-04  -5.8275834e-04   3.0260193e-05  -4.6193594e-04  -9.1741094e-04  -1.0080484e-03  -8.7670074e-04   4.6665905e-04   7.3403615e-04   1.5181052e-03   1.0763456e-03  -6.1197054e-05   1.1779596e-04   1.9455285e-04
  -2.0075340e-05  -4.5007764e-05   2.3382704e-04  -3.9623881e-04  -7.3049807e-05  -1.9519708e-04  -4.4214656e-04  -1.0621503e-04   1.4955055e-05   2.6921218e-04   4.2071412e-04  -1.3890403e-04  -3.9406121e-04  -2.7814487e-04  -4.7909416e-04  -2.8827114e-04  -2.7286023e-04  -8.2149199e-04  -3.5224486e-05   5.2596477e-04   8.7643490e-04   1.2113060e-03  -3.3596461e-05   4.0376608e-04  -2.3777715e-05   3.6267916e-04  -9.6111733e-04  -2.3501554e-04  -2.9483237e-04  -2.5549700e-04   3.0735097e-05  -4.6796829e-04   8.4005133e-04   3.2498989e-05   1.2679333e-04   3.6088290e-04   2.9036312e-04  -4.9239118e-04   1.3025006e-04  -3.9344022e-04  -6.2964903e-04  -7.7965617e-04  -5.5210001e-04   3.6490129e-04   6.0280884e-04   1.4480106e-03   1.0537509e-03   1.2505287e-04   3.1724587e-04   1.9725182e-04
   2.1035981e-04   1.5170479e-04   3.5850616e-04  -1.5557326e-04   1.0294207e-04   3.1406602e-05  -1.7571959e-04   1.2426694e-04   2.4839040e-04   5.9254852e-04   4.5382470e-04   1.7379977e-04  -1.6719938e-04  -2.4005516e-05  -2.4962329e-04  -1.3537460e-04  -1.4870732e-04  -6.9889729e-04   2.8047481e-04   6.7198777e-04   9.4224163e-04   1.4152265e-03   1.7648227e-04   5.6896091e-04   1.5473161e-04   5.7270209e-04  -8.2347490e-04  -9.0262220e-05  -1.5925679e-04  -1.7818737e-05   1.7723192e-04  -3.2780861e-04   8.9179137e-04   6.7509696e-05   2.9636596e-04   4.1090391e-04   3.7719650e-04  -3.6296199e-04   2.2178849e-04  -2.6814808e-04  -2.9747668e-04  -4.5349650e-04  -3.1758338e-04   1.6712715e-04   5.3917279e-04   1.6185651e-03   7.9499697e-04   1.7152700e-04   2.9128013e-04  -5.1605097e-05
   1.8286092e-04   6.7003813e-05   2.4466700e-04  -1.8242524e-04   3.2264383e-05   3.6301604e-05  -2.0501266e-04   5.0057624e-05   2.1444612e-04   4.3722449e-04   2.2560598e-04  -2.2174085e-05  -1.3821383e-04   7.9010257e-05  -1.3998717e-04  -2.0476960e-04  -2.3454273e-04  -5.8988907e-04   9.2128539e-05   5.2079465e-04   6.9727568e-04   1.1932544e-03   2.2658005e-05   4.3382743e-04   6.7048633e-05   5.7607685e-04  -6.7501637e-04  -7.6802578e-05  -2.2680838e-04   5.9458434e-05   8.2683735e-05  -3.7412377e-04   6.3933351e-04  -8.7962624e-05   2.8873130e-04   3.4699804e-04   2.4724746e-04  -4.6734911e-04   1.3768722e-04  -3.1646414e-04  -8.8815184e-05  -2.9805262e-04  -2.8577927e-04  -1.4562214e-04   4.0265819e-04   1.6525254e-03   3.0065459e-04   8.7586581e-05  -3.9432751e-04  -7.3130609e-04
  -1.0414213e-04  -2.5240050e-04   7.0552296e-06  -3.7588281e-04  -1.9704497e-04  -1.2925632e-04  -3.4217053e-04  -1.4067026e-04  -9.9965429e-05   1.3257981e-04  -1.0973671e-04  -3.4728707e-04  -3.0060977e-04   7.2584130e-06  -1.1120916e-04  -3.2939482e-04  -4.3561953e-04  -6.3826371e-04  -2.2039736e-04   2.4051992e-04   4.1572304e-04   8.6385128e-04  -2.0457961e-04   8.3874729e-05  -1.0714911e-04   4.5403768e-04  -6.1308243e-04  -1.5959717e-04  -3.8013750e-04   4.2165062e-05  -1.3093483e-04  -5.2530441e-04   2.9820405e-04  -2.9683427e-04   1.9739040e-04   2.0606940e-04   6.9481452e-05  -6.1133649e-04  -2.6373256e-05  -4.1907007e-04  -1.0331335e-04  -3.0462569e-04  -3.2776676e-04  -4.2516922e-04   7.7662815e-05   1.5811002e-03  -1.1622960e-04  -5.8765752e-05  -6.1624032e-04  -1.5825685e-03
  -3.9421674e-04  -5.5428635e-04  -2.7323660e-04  -5.7962484e-04  -3.9692820e-04  -3.0650647e-04  -5.1738927e-04  -3.5277024e-04  -3.3544350e-04  -1.8764852e-04  -4.2562545e-04  -6.4381293e-04  -5.0684978e-04  -1.4231208e-04  -1.7105177e-04  -4.8507945e-04  -6.1695732e-04  -6.7802297e-04  -6.1055302e-04  -1.4970669e-05   1.9877954e-04   5.6020281e-04  -4.7062043e-04  -2.8727829e-04  -3.0767312e-04   1.9483233e-04  -6.2239222e-04  -2.5096606e-04  -5.9177814e-04  -2.1098054e-05  -2.9988927e-04  -6.6034525e-04   9.9209981e-05  -4.2160650e-04   1.3651921e-04   1.2811340e-04  -7.5036223e-05  -6.1542378e-04  -2.2360346e-05  -3.7388352e-04  -1.0891747e-05  -2.1041985e-04  -1.8682163e-04  -5.5383396e-04   1.2014649e-04   1.6224213e-03  -1.9445785e-04   6.5348657e-05  -9.1960427e-04  -1.6267886e-03
  -2.0221630e-04  -3.5489231e-04  -1.7306699e-04  -3.2694454e-04  -2.6976780e-04  -8.2572558e-05  -2.1532465e-04  -1.9381184e-04  -1.2494969e-04   1.3818959e-04  -4.1643815e-04  -3.0409102e-04  -3.5704594e-04   4.8679358e-05   4.5894798e-05  -3.0249715e-04  -5.1043084e-04  -3.9893991e-04  -2.4395522e-04   1.5336632e-04   3.6327276e-04   8.0981822e-04  -1.7019782e-04   1.2315075e-04   2.6138075e-06   5.6209223e-04  -3.8186414e-04   5.4317599e-05  -3.1826436e-04   2.8670108e-04  -1.0767576e-04  -3.3127956e-04   3.0228024e-04  -2.2058083e-04   3.9404340e-04   3.3813468e-04   6.4442633e-05  -4.1945558e-04   1.7470578e-04  -1.1209125e-04   1.4840598e-04  -6.3636267e-06   2.7280879e-05  -5.4450618e-04   8.5204287e-05   1.8938277e-03  -2.6359427e-04   1.2770755e-04  -6.5824680e-04  -1.4556914e-03
  -2.4146687e-04  -3.1994641e-04  -2.9265753e-04  -3.4035786e-04  -2.8764157e-04  -1.1202898e-04  -2.4103654e-04  -2.2092409e-04  -1.2795815e-04   1.0266928e-04  -4.3792272e-04  -3.3625428e-04  -3.3324573e-04   3.4370838e-05   5.7197569e-05  -3.3642977e-04  -5.2801170e-04  -4.0407327e-04  -3.1788388e-04   1.1613563e-04   4.1687323e-04   7.8191806e-04  -2.3303361e-04  -2.6406453e-05  -6.8734138e-05   4.2497541e-04  -3.2917337e-04   1.8571667e-05  -3.9630319e-04   1.6594090e-04  -2.1904457e-04  -4.1583509e-04   1.9894831e-04  -3.0960320e-04   3.0602582e-04   2.5591796e-04   9.0475798e-05  -4.3045013e-04   9.6553144e-05  -1.9113126e-04   2.4498589e-05  -9.8049735e-05  -1.4519565e-04  -6.8160176e-04   2.4099214e-05   1.1290557e-03  -3.7638558e-04  -5.8770856e-05  -7.9113367e-04  -1.7462745e-03
  -4.5509034e-04  -4.8490977e-04  -4.9263914e-04  -5.0839165e-04  -4.1669531e-04  -2.7117835e-04  -4.3840319e-04  -3.6342492e-04  -3.2371323e-04  -1.3978514e-04  -5.7036983e-04  -5.9307279e-04  -4.8220990e-04  -1.1428478e-04  -6.7462039e-05  -4.5344234e-04  -6.3331705e-04  -5.4257282e-04  -5.2558567e-04  -3.7729533e-05   3.4453376e-04   6.3725503e-04  -4.3960309e-04  -3.7881674e-04  -2.8457720e-04   1.7076626e-04  -4.0500611e-04  -1.1655709e-04  -5.7051145e-04   2.2035620e-05  -4.0631695e-04  -6.1300641e-04  -4.7329562e-05  -5.2997912e-04   1.2470798e-04   9.3503637e-05  -4.1305670e-05  -5.9204601e-04  -8.2564569e-05  -3.7039127e-04  -2.0239627e-04  -2.9258075e-04  -4.0018803e-04  -7.6417765e-04  -4.7950671e-05   9.0742426e-04  -5.6449795e-04  -2.1988638e-04  -1.2131706e-03  -1.8985748e-03
  -6.8692467e-04  -7.0516230e-04  -6.8044022e-04  -6.6485169e-04  -5.6816882e-04  -4.3845110e-04  -6.1378995e-04  -5.6328182e-04  -6.9650915e-04  -4.0815730e-04  -7.8611297e-04  -8.4115029e-04  -6.7928602e-04  -2.7358547e-04  -1.9277538e-04  -5.9941219e-04  -7.8002055e-04  -7.3496572e-04  -7.4700487e-04  -1.6457816e-04   2.9518513e-04   5.4677791e-04  -5.8923720e-04  -5.2811991e-04  -3.8810357e-04  -2.9118748e-06  -3.9613643e-04  -1.5793325e-04  -6.3448231e-04  -3.7400230e-05  -4.1309593e-04  -6.3761912e-04   4.5210221e-05  -5.0050829e-04   1.5988683e-04   1.3461962e-04  -3.6397887e-05  -4.7856153e-04   5.0977910e-06  -2.8543966e-04  -9.3732066e-05  -2.3984685e-04  -2.7123871e-04  -7.9870585e-04  -9.8029668e-05   9.7540941e-04  -4.5724586e-04  -6.5202737e-05  -7.9463096e-04  -1.6634944e-03
  -4.6212182e-04  -4.4311123e-04  -5.4221391e-04  -4.1183163e-04  -4.1035551e-04  -2.1106504e-04  -3.1738513e-04  -3.3560590e-04  -3.3448418e-04  -9.6331050e-06  -6.2424486e-04  -4.6237133e-04  -4.8854429e-04  -1.3983551e-04  -6.4952525e-05  -4.6453596e-04  -6.4903661e-04  -5.8631232e-04  -3.1802498e-04  -3.3688382e-06   4.4359767e-04   7.2404253e-04  -3.8824257e-04  -2.8064440e-04  -2.2870563e-04   1.6774885e-04  -3.9514469e-04  -8.2453364e-05  -5.2635436e-04   3.8763006e-05  -4.0053090e-04  -5.5657758e-04   1.1697922e-04  -4.5927524e-04   1.8467981e-04   1.5096941e-04  -6.3838129e-06  -4.3393669e-04   1.9942412e-05  -2.7818384e-04  -1.2957329e-04  -2.0556769e-04  -2.7431329e-04  -7.6847739e-04  -1.5609703e-04   1.0169738e-03  -4.3423669e-04  -1.0009304e-04  -1.0663763e-03  -1.6253412e-03
  -5.5545755e-04  -4.9049925e-04  -6.0123147e-04  -4.6783232e-04  -4.6076259e-04  -2.8533369e-04  -3.8445622e-04  -3.8112467e-04  -4.7675395e-04  -1.3788801e-04  -6.9639651e-04  -5.8360735e-04  -5.4028636e-04  -1.8027751e-04  -1.0537476e-04  -5.0111552e-04  -6.6873152e-04  -6.3102541e-04  -4.4653710e-04  -6.2193445e-05   4.4536611e-04   7.1193377e-04  -4.5261774e-04  -4.5293875e-04  -3.3928949e-04   1.0727084e-04  -4.7369342e-04  -1.5680627e-04  -6.0083071e-04  -1.3828400e-05  -4.6048465e-04  -6.3085085e-04  -6.5565719e-06  -5.6850573e-04   9.3745119e-05   6.6636472e-05  -7.3213734e-05  -5.5149663e-04  -8.5328706e-05  -3.4374863e-04  -1.9253801e-04  -3.0512924e-04  -3.7222562e-04  -8.3880388e-04  -1.5252610e-04   9.4696885e-04  -5.8014464e-04  -1.9512790e-04  -8.3551003e-04  -1.8220639e-03
  -7.5827114e-04  -7.4402877e-04  -7.8016100e-04  -6.3421746e-04  -6.1495934e-04  -4.6843296e-04  -5.3896767e-04  -5.5187062e-04  -6.4386922e-04  -3.9102320e-04  -8.6426025e-04  -8.5059111e-04  -7.2557502e-04  -3.3962200e-04  -2.1543667e-04  -6.2429934e-04  -7.8666653e-04  -7.0260413e-04  -7.0227514e-04  -2.1331459e-04   3.5389076e-04   5.6749786e-04  -6.2061864e-04  -7.3613127e-04  -4.8177235e-04  -9.0368434e-05  -5.4814707e-04  -2.9884142e-04  -7.5406639e-04  -1.5212878e-04  -6.6045194e-04  -7.7240198e-04  -2.2554438e-04  -7.7167206e-04  -6.2150961e-05  -7.7100391e-05  -1.9234905e-04  -7.3700934e-04  -2.7849857e-04  -5.3087395e-04  -3.6005469e-04  -4.5276977e-04  -6.2151323e-04  -9.7365800e-04  -2.2195402e-04   6.3996966e-04  -7.4129627e-04  -3.4748900e-04  -1.1936974e-03  -1.6535552e-03
  -8.7087002e-04  -8.4554375e-04  -8.0371712e-04  -5.8975932e-04  -6.2171195e-04  -4.2543397e-04  -4.7057788e-04  -5.3410954e-04  -5.5426848e-04  -2.5216502e-04  -8.6767913e-04  -6.8676553e-04  -7.0852146e-04  -3.4361600e-04  -1.8254228e-04  -6.3467468e-04  -7.5497839e-04  -7.2027958e-04  -4.5998924e-04  -9.0488684e-05   5.0951861e-04   7.5543398e-04  -5.4138841e-04  -5.1126949e-04  -3.6228480e-04  -9.0203175e-06  -5.5553258e-04  -2.2534006e-04  -6.4526993e-04  -9.4594892e-05  -4.7323751e-04  -6.3280819e-04   7.2671042e-05  -5.7920453e-04   3.7561527e-05   3.6842270e-05  -7.5167627e-05  -4.8127194e-04  -7.6245262e-05  -3.3551571e-04  -2.8174379e-04  -3.0272358e-04  -3.9771348e-04  -8.0038846e-04  -4.4184497e-05   6.6573243e-04  -4.9417437e-04  -1.7622112e-04  -5.2350445e-04  -1.3951643e-03
  -7.0434820e-04  -5.6916958e-04  -7.6336734e-04  -5.0015480e-04  -5.4733444e-04  -4.1229432e-04  -4.1822917e-04  -5.0114526e-04  -5.9526664e-04  -2.1778795e-04  -7.7271310e-04  -6.2354590e-04  -6.3693698e-04  -3.4432195e-04  -2.2422259e-04  -5.9830927e-04  -6.5980240e-04  -6.6918641e-04  -4.5397924e-04  -5.0007999e-05   5.9829833e-04   8.2230422e-04  -4.9690896e-04  -5.1262783e-04  -3.9500004e-04  -5.3426225e-05  -5.2676297e-04  -2.5036358e-04  -6.7075755e-04  -1.3969842e-04  -4.7135144e-04  -5.8553903e-04   4.9420683e-05  -6.1784172e-04  -9.6606809e-06  -2.4265424e-05  -9.9194302e-05  -4.8593606e-04  -1.3306898e-04  -4.2468420e-04  -3.3788488e-04  -3.6992758e-04  -5.1050220e-04  -8.7786565e-04  -1.3187861e-04   4.7861369e-04  -5.6541653e-04  -2.5941501e-04  -5.5698422e-04  -1.4118175e-03
  -7.9362531e-04  -6.7059323e-04  -8.2373031e-04  -5.6924950e-04  -6.0873042e-04  -4.8691098e-04  -4.7770358e-04  -5.2520313e-04  -7.3088281e-04  -4.0324387e-04  -8.6196663e-04  -8.1498170e-04  -7.4441487e-04  -3.9893572e-04  -2.9350535e-04  -6.6886243e-04  -6.9961150e-04  -7.0336653e-04  -6.4006384e-04  -1.5225903e-04   5.2221620e-04   7.2888035e-04  -6.4401625e-04  -7.3520496e-04  -5.1176501e-04  -1.5960317e-04  -5.9619197e-04  -3.5081696e-04  -7.7203353e-04  -2.0204042e-04  -5.7234237e-04  -6.7538250e-04  -1.8422288e-04  -7.7671040e-04  -1.1657535e-04  -1.4382070e-04  -2.1054244e-04  -6.4870209e-04  -2.8548361e-04  -5.0628185e-04  -4.2377773e-04  -4.7666897e-04  -6.3545880e-04  -9.3751645e-04  -3.3580832e-04   5.0183851e-04  -7.0814684e-04  -3.6049349e-04  -1.0546693e-03  -1.4563793e-03
  -9.9255436e-04  -8.9174061e-04  -9.6288131e-04  -7.0425664e-04  -7.3517655e-04  -6.3884398e-04  -6.5866555e-04  -7.0743321e-04  -8.9544908e-04  -5.1405438e-04  -9.7584864e-04  -9.6887135e-04  -8.4281579e-04  -4.8239119e-04  -3.3212051e-04  -6.9767726e-04  -7.2640856e-04  -7.2259374e-04  -3.6162292e-04  -1.3308589e-04   5.7420076e-04   7.9295225e-04  -5.6864077e-04  -6.2046596e-04  -4.4425676e-04  -9.7715849e-05  -5.8701483e-04  -3.0097284e-04  -7.1556488e-04  -1.7225630e-04  -4.7982109e-04  -5.8312831e-04   6.2678431e-05  -6.1453221e-04  -4.0430743e-05  -6.0610153e-05  -1.5370589e-04  -5.0169032e-04  -1.3838714e-04  -3.5908990e-04  -3.5114135e-04  -3.7201916e-04  -4.6458209e-04  -8.4395526e-04  -1.9157629e-05   7.8247860e-04  -5.0197600e-04  -1.9411067e-04  -6.5844128e-04  -1.2581805e-03
  -7.3190394e-04  -5.6920829e-04  -7.2815636e-04  -4.5766967e-04  -5.6250137e-04  -4.2817948e-04  -3.9675366e-04  -4.7163144e-04  -6.2720140e-04  -2.6054267e-04  -8.0130104e-04  -6.9281308e-04  -6.9064548e-04  -3.8651994e-04  -2.7079665e-04  -5.8102031e-04  -6.0119282e-04  -6.3435844e-04  -4.6078590e-04  -5.6216672e-05   6.4589520e-04   8.5142744e-04  -4.9635937e-04  -5.9353485e-04  -4.2936011e-04  -7.4841104e-05  -5.5781286e-04  -2.9196232e-04  -6.4582535e-04  -1.4343527e-04  -4.1183468e-04  -5.4055435e-04   7.1315444e-05  -5.8336149e-04  -5.2824991e-05  -6.6503184e-05  -1.7737305e-04  -5.0670648e-04  -1.8286578e-04  -3.6107548e-04  -3.5512223e-04  -3.5386131e-04  -4.9994106e-04  -7.8855938e-04  -1.2499522e-04   6.7941530e-04  -5.1424309e-04  -2.4310195e-04  -7.1928935e-04  -1.2721056e-03
  -7.9779915e-04  -6.2791392e-04  -7.6866732e-04  -5.2682403e-04  -5.9754861e-04  -5.0133775e-04  -4.6959822e-04  -5.2194140e-04  -6.6728820e-04  -3.6158602e-04  -7.9772202e-04  -7.7408244e-04  -7.2660914e-04  -4.1552249e-04  -3.0466559e-04  -5.9160066e-04  -6.0749991e-04  -6.5529044e-04  -5.0586159e-04  -1.0688091e-04   6.2978041e-04   7.6830992e-04  -6.2439014e-04  -7.3998357e-04  -5.3343957e-04  -2.0646857e-04  -5.8163004e-04  -3.9081805e-04  -7.1394845e-04  -2.4290654e-04  -5.1673973e-04  -6.2199769e-04  -1.1477078e-04  -6.9643976e-04  -1.7848550e-04  -2.0105054e-04  -2.4758567e-04  -6.4385717e-04  -3.2618415e-04  -4.9124425e-04  -4.8204893e-04  -4.7176785e-04  -6.7812251e-04  -8.7888405e-04  -2.2008740e-04   4.4114716e-04  -6.3396397e-04  -3.7832014e-04  -8.0672122e-04  -1.3646088e-03
  -9.6530811e-04  -8.3915534e-04  -8.6977653e-04  -6.7449227e-04  -7.1123865e-04  -6.3710770e-04  -6.3777197e-04  -6.7608518e-04  -7.2822149e-04  -5.5304554e-04  -9.2688313e-04  -9.7552489e-04  -8.3393976e-04  -5.0577609e-04  -3.7636043e-04  -6.4014917e-04  -6.3831196e-04  -6.7250163e-04  -4.4043534e-04  -9.8090124e-05   6.4410723e-04   7.8855280e-04  -5.4537592e-04  -6.2349817e-04  -4.6526501e-04  -1.5955900e-04  -5.4759142e-04  -3.2603744e-04  -6.9690403e-04  -2.1008887e-04  -4.2262650e-04  -5.4215244e-04   8.6305074e-05  -5.3614203e-04  -8.3974985e-05  -1.1296730e-04  -1.9238611e-04  -4.9107987e-04  -1.9379570e-04  -3.5972788e-04  -3.3383662e-04  -3.6141911e-04  -4.6631583e-04  -7.3099136e-04  -3.0982348e-05   8.2545792e-04  -4.4646705e-04  -1.6519825e-04  -3.8597002e-04  -1.0156288e-03
  -6.8310986e-04  -4.8858329e-04  -6.0768751e-04  -3.9373632e-04  -5.0133205e-04  -3.8497409e-04  -3.3574435e-04  -4.0958004e-04  -5.2997662e-04  -2.3180316e-04  -6.9802452e-04  -6.1424769e-04  -6.2975613e-04  -3.3873622e-04  -2.5653924e-04  -4.8634276e-04  -4.8419912e-04  -5.4621091e-04  -2.5017388e-04   2.2723329e-05   7.2112476e-04   8.5573376e-04  -4.8352164e-04  -5.7649525e-04  -3.9069992e-04  -6.9451169e-05  -5.0362514e-04  -2.8951257e-04  -6.3363765e-04  -1.4858894e-04  -3.2942492e-04  -4.3640070e-04   1.0184387e-04  -4.7864518e-04  -6.1665509e-05  -7.4012620e-05  -1.8133075e-04  -4.7492282e-04  -1.7040243e-04  -3.2865978e-04  -3.0351937e-04  -3.0714387e-04  -4.4908182e-04  -6.4743601e-04  -4.3885873e-05   7.5314072e-04  -4.3867907e-04  -2.0416868e-04  -3.8766561e-04  -1.0302686e-03
  -7.1554194e-04  -5.2784313e-04  -6.1280024e-04  -4.6402108e-04  -5.2958558e-04  -4.3935206e-04  -4.1849614e-04  -4.3099507e-04  -5.4649322e-04  -3.2996168e-04  -6.9912436e-04  -7.1423338e-04  -6.2849262e-04  -3.4933173e-04  -2.7274925e-04  -4.8463594e-04  -4.8507785e-04  -5.5135763e-04  -3.3728682e-04  -3.6902180e-05   6.9525628e-04   7.9509744e-04  -5.3524476e-04  -7.3617080e-04  -4.7146523e-04  -1.7964056e-04  -5.5229274e-04  -3.6565430e-04  -6.5792695e-04  -2.2755520e-04  -4.2865868e-04  -5.3925195e-04  -6.5234737e-05  -5.7082559e-04  -1.6766752e-04  -2.0409722e-04  -2.6709869e-04  -5.8683642e-04  -3.0044859e-04  -4.3726942e-04  -4.4261169e-04  -3.9751822e-04  -6.0409063e-04  -6.9580355e-04  -8.4799387e-05   6.1199081e-04  -5.6492514e-04  -4.0284600e-04  -7.0180424e-04  -1.3652596e-03
  -8.8952814e-04  -7.2394137e-04  -7.4000598e-04  -6.3623110e-04  -6.5085571e-04  -5.9190241e-04  -5.9277640e-04  -6.0933759e-04  -7.7759114e-04  -5.6371145e-04  -8.2870934e-04  -9.6201093e-04  -7.5441669e-04  -4.7136727e-04  -3.6874501e-04  -6.2176911e-04  -6.0513156e-04  -6.4638461e-04  -6.0619815e-04  -1.5342918e-04   6.2801567e-04   6.8487605e-04  -7.0309918e-04  -8.7905320e-04  -6.1125442e-04  -3.5179229e-04  -5.0580368e-04  -4.1920599e-04  -7.4847025e-04  -3.1598657e-04  -4.0703127e-04  -5.3512579e-04   4.6766978e-05  -5.3044863e-04  -1.3889474e-04  -1.7489518e-04  -2.4034342e-04  -4.8997486e-04  -2.3266469e-04  -3.5629119e-04  -3.7493178e-04  -3.4892085e-04  -5.1528023e-04  -6.4169063e-04   5.5803484e-05   5.7776878e-04  -4.2356929e-04  -2.4322652e-04  -5.6533568e-04  -1.0784200e-03
  -6.2479899e-04  -3.9075807e-04  -5.1531155e-04  -3.6986254e-04  -4.4106660e-04  -3.3357515e-04  -2.9791103e-04  -3.9152108e-04  -4.0815925e-04  -1.4596603e-04  -5.9877266e-04  -5.0657947e-04  -5.3148856e-04  -2.9323430e-04  -2.3278595e-04  -4.0742318e-04  -3.9264589e-04  -4.7877635e-04  -1.7479577e-04   8.0338963e-05   8.2548737e-04   9.2132506e-04  -4.2369694e-04  -5.3895701e-04  -3.8447126e-04  -1.0910237e-04  -4.4460752e-04  -2.8846526e-04  -5.4601848e-04  -1.8506956e-04  -2.7411847e-04  -3.9541931e-04   1.7216877e-04  -4.0299579e-04  -7.4221534e-05  -1.1035389e-04  -1.8820728e-04  -4.6497639e-04  -1.9568148e-04  -2.9549896e-04  -3.1958579e-04  -2.7550655e-04  -4.4978043e-04  -5.3765572e-04   1.5835250e-04   6.0164323e-04  -3.4550022e-04  -2.2843409e-04  -2.3702427e-04  -1.0092509e-03
  -5.8424048e-04  -3.7079569e-04  -4.8999750e-04  -3.9714054e-04  -4.3502060e-04  -3.4468932e-04  -3.3687078e-04  -3.7805279e-04  -4.6162037e-04  -2.2896299e-04  -5.8867905e-04  -5.9002673e-04  -5.2213087e-04  -2.6232819e-04  -2.3733648e-04  -4.1104993e-04  -3.8022929e-04  -4.5871880e-04  -2.7627056e-04   4.7358557e-05   8.0080482e-04   8.7019819e-04  -4.8258377e-04  -6.1548676e-04  -4.3538734e-04  -1.4955075e-04  -4.5419176e-04  -3.2747121e-04  -6.0756545e-04  -2.1634097e-04  -3.0735417e-04  -4.2364403e-04   5.1938077e-05  -4.6687367e-04  -1.3280127e-04  -1.5669016e-04  -2.3217987e-04  -5.1442109e-04  -2.6238436e-04  -3.6137135e-04  -3.7693573e-04  -3.4721271e-04  -5.7114143e-04  -5.5526220e-04  -1.6088641e-05   5.3046254e-04  -4.6075249e-04  -3.6377268e-04  -7.3772727e-04  -1.0848865e-03
  -7.5644930e-04  -5.4784759e-04  -6.1825349e-04  -5.6181260e-04  -5.4058386e-04  -4.7531884e-04  -5.3261506e-04  -5.0272438e-04  -5.4434355e-04  -4.6468206e-04  -7.1438297e-04  -8.2055497e-04  -6.3546805e-04  -3.7150164e-04  -3.1877286e-04  -5.3553045e-04  -4.9031310e-04  -5.7459431e-04  -4.8919616e-04  -9.9285135e-05   6.7984138e-04   6.9956121e-04  -6.5300002e-04  -9.0080075e-04  -6.1120384e-04  -3.5762228e-04  -4.8133533e-04  -4.4244449e-04  -7.3347765e-04  -3.4234941e-04  -4.3998638e-04  -5.7206646e-04  -9.7002892e-05  -6.0185866e-04  -2.3568090e-04  -2.8488139e-04  -3.1547356e-04  -5.4802856e-04  -3.1233166e-04  -4.1056768e-04  -3.7983572e-04  -3.5415150e-04  -5.3723762e-04  -5.7702739e-04   4.8890477e-05   5.5904064e-04  -3.7649792e-04  -2.3445257e-04  -2.9904902e-04  -1.0950183e-03
  -5.2582956e-04  -3.3154283e-04  -4.6004035e-04  -3.5850939e-04  -3.9423810e-04  -2.8796631e-04  -2.9434875e-04  -3.4373766e-04  -3.2776585e-04  -1.1673198e-04  -5.5804249e-04  -4.7467934e-04  -4.5269588e-04  -2.4212965e-04  -2.0026807e-04  -3.8142427e-04  -3.3785659e-04  -4.0721335e-04  -8.5433960e-05   1.0751135e-04   8.5595256e-04   9.3122758e-04  -3.5000863e-04  -4.7753923e-04  -3.2160003e-04  -8.2012164e-05  -4.1791316e-04  -2.3060400e-04  -4.8089761e-04  -1.5146501e-04  -2.2525908e-04  -3.4266451e-04   2.0810583e-04  -3.0856111e-04  -4.0743878e-05  -7.8387064e-05  -1.6207200e-04  -3.8769076e-04  -1.9219489e-04  -2.3934095e-04  -2.5681089e-04  -2.4067955e-04  -4.3060080e-04  -4.4486922e-04   9.6209085e-05   6.2934356e-04  -3.1658733e-04  -2.1447196e-04  -6.2707154e-04  -1.0621577e-03
  -4.9151870e-04  -2.7593135e-04  -4.2129177e-04  -3.6208890e-04  -3.5733241e-04  -2.6949015e-04  -3.0528565e-04  -2.9696178e-04  -2.2678790e-04  -1.6269772e-04  -5.3485064e-04  -5.0982472e-04  -4.0963729e-04  -1.8010401e-04  -1.8158366e-04  -3.4148569e-04  -3.1607848e-04  -4.0530629e-04  -2.4330437e-04   8.3069499e-05   8.2016672e-04   8.7650365e-04  -3.8915745e-04  -5.3745147e-04  -3.7454627e-04  -1.1184085e-04  -3.5698208e-04  -2.4929194e-04  -5.1002868e-04  -1.6194150e-04  -2.6222575e-04  -3.6033287e-04   1.2836061e-04  -3.3108285e-04  -8.7399661e-05  -1.1743936e-04  -1.8778558e-04  -4.6855572e-04  -2.1463750e-04  -3.0208071e-04  -2.9594993e-04  -2.7436853e-04  -5.0429674e-04  -4.8437002e-04   1.0289045e-04   4.9582223e-04  -3.8083739e-04  -3.1362259e-04  -4.1033732e-04  -1.2162396e-03
  -6.0716539e-04  -4.2009546e-04  -5.3946773e-04  -5.1407656e-04  -4.5182958e-04  -4.0742254e-04  -4.8083480e-04  -4.6234365e-04  -4.1979228e-04  -3.8348135e-04  -6.2084472e-04  -7.2070968e-04  -5.1014667e-04  -2.9091461e-04  -2.6951410e-04  -4.5082998e-04  -4.3073087e-04  -4.7382948e-04  -5.6782208e-04  -5.3218475e-05   7.1924605e-04   6.8707205e-04  -5.8396388e-04  -8.0417673e-04  -5.1937369e-04  -3.1372937e-04  -4.4117839e-04  -3.7598205e-04  -6.1461097e-04  -3.0219599e-04  -4.6754509e-04  -5.2438758e-04  -9.8805380e-05  -5.3095707e-04  -2.2390251e-04  -2.7543437e-04  -2.9511881e-04  -6.3862093e-04  -3.8454527e-04  -4.5283232e-04  -4.4072556e-04  -4.0328008e-04  -6.9940340e-04  -5.8728893e-04  -4.5441881e-05   1.7311161e-04  -4.7801086e-04  -3.6170086e-04  -5.0498178e-04  -1.1138063e-03
  -5.4686720e-04  -3.7002450e-04  -4.5978132e-04  -3.9220252e-04  -3.7523091e-04  -2.6782122e-04  -3.2631229e-04  -3.3182575e-04  -3.3063124e-04  -1.7391898e-04  -5.8518990e-04  -4.9582444e-04  -4.5393812e-04  -2.3315560e-04  -1.9757861e-04  -3.8402277e-04  -3.6313359e-04  -4.2463141e-04  -1.3176154e-04   5.6322548e-05   7.9941255e-04   8.3202339e-04  -3.7383297e-04  -4.8962625e-04  -3.4851310e-04  -1.0360641e-04  -3.7317685e-04  -2.0713724e-04  -4.9081445e-04  -1.4276500e-04  -2.8790740e-04  -3.3478596e-04   2.0202673e-04  -2.6728850e-04  -2.7295058e-05  -7.4160220e-05  -1.5386241e-04  -3.4239818e-04  -1.0391733e-04  -2.1333517e-04  -1.7719588e-04  -1.9670257e-04  -3.7602222e-04  -4.0213965e-04   2.0546175e-05   4.0284052e-04  -3.0374047e-04  -2.0754080e-04  -4.7157903e-04  -1.0434849e-03
  -4.2745291e-04  -2.4970717e-04  -4.2046912e-04  -3.6801532e-04  -3.2771603e-04  -2.3383256e-04  -2.9679309e-04  -2.7668884e-04  -2.4803195e-04  -1.5797006e-04  -5.3987559e-04  -5.0179532e-04  -3.7972836e-04  -1.5604704e-04  -1.4474112e-04  -3.3760082e-04  -3.2553668e-04  -3.6220820e-04  -1.2277739e-04   5.0942133e-05   7.8437384e-04   7.9367502e-04  -3.4602603e-04  -5.3428172e-04  -3.3223970e-04  -7.5757991e-05  -3.7682266e-04  -1.9095949e-04  -4.6882936e-04  -1.1896942e-04  -3.0017665e-04  -3.2152276e-04   1.4689552e-04  -2.7364376e-04  -2.5050933e-05  -7.9694932e-05  -1.5105047e-04  -3.8262736e-04  -1.2804463e-04  -2.2960000e-04  -2.0177034e-04  -2.0844959e-04  -4.1962531e-04  -4.2814572e-04  -4.0586920e-06   3.8774233e-04  -3.5939153e-04  -2.7058445e-04  -1.1778178e-04  -1.0796537e-03
  -4.9540517e-04  -3.2675304e-04  -4.9582921e-04  -4.7429962e-04  -3.8726241e-04  -3.2154168e-04  -4.0918833e-04  -3.8591822e-04  -4.5517873e-04  -3.3899161e-04  -6.0024159e-04  -6.5965217e-04  -4.4821238e-04  -2.0191661e-04  -2.0576286e-04  -4.1855819e-04  -4.0221107e-04  -4.4348490e-04  -2.9711070e-04  -5.8809128e-05   6.9693447e-04   6.4442493e-04  -5.1406573e-04  -7.0546899e-04  -4.5244661e-04  -2.2057656e-04  -3.7462843e-04  -2.8156897e-04  -5.7086337e-04  -2.0971103e-04  -4.5676192e-04  -4.5713232e-04  -8.0689664e-05  -4.3794917e-04  -1.3860138e-04  -2.0581314e-04  -2.4162626e-04  -5.6573388e-04  -3.1477565e-04  -3.6423918e-04  -3.3838375e-04  -3.4401639e-04  -6.2245975e-04  -5.1042350e-04  -8.2079809e-05   2.6873840e-04  -4.3346317e-04  -3.3672573e-04  -4.4079550e-04  -1.0756988e-03
  -4.4381377e-04  -2.8388601e-04  -4.4539696e-04  -3.6632948e-04  -3.2062261e-04  -1.9072751e-04  -2.7830293e-04  -2.7727598e-04  -2.9249929e-04  -1.2584598e-04  -5.3996331e-04  -4.5601538e-04  -3.6723746e-04  -1.6315833e-04  -1.3807086e-04  -3.4741411e-04  -3.4675861e-04  -4.0008532e-04  -1.0235041e-04   5.9105663e-05   8.0283266e-04   8.0373324e-04  -3.1425763e-04  -4.4684668e-04  -2.7806874e-04  -4.4359185e-05  -3.3463203e-04  -1.3503883e-04  -4.0120163e-04  -7.6560267e-05  -2.6825481e-04  -2.8499195e-04   2.0307724e-04  -1.7252362e-04   3.3179440e-05   2.3808304e-06  -9.1349903e-05  -3.0028194e-04  -8.5658132e-05  -1.1244023e-04  -1.2035218e-04  -1.2612826e-04  -3.3919973e-04  -3.7319853e-04   6.6922868e-05   4.7657953e-04  -2.7847951e-04  -1.8883315e-04  -3.1232875e-04  -1.1184845e-03
  -3.2871478e-04  -1.4931352e-04  -3.9914632e-04  -3.4388679e-04  -2.4923013e-04  -1.6668948e-04  -2.5819775e-04  -2.2830554e-04  -2.1055537e-04  -1.2396551e-04  -4.7725509e-04  -4.3724797e-04  -2.7625798e-04  -8.8711146e-05  -1.0100277e-04  -3.0725304e-04  -2.9841621e-04  -3.4018891e-04  -1.2167168e-04   5.9966940e-05   8.0102787e-04   7.7731587e-04  -3.0642582e-04  -4.5761667e-04  -2.6011950e-04  -4.1259525e-05  -3.0546723e-04  -1.2965577e-04  -3.9838444e-04  -9.6907192e-05  -3.0308060e-04  -2.8888203e-04   1.3188108e-04  -2.0689944e-04   8.0418731e-06  -2.2232949e-05  -1.1001110e-04  -3.3243114e-04  -1.2426839e-04  -1.6058846e-04  -1.5795640e-04  -1.7303650e-04  -3.9999702e-04  -3.4253817e-04   2.3702647e-05   3.5673793e-04  -3.0740382e-04  -2.7382618e-04  -6.2787702e-04  -1.0799854e-03
  -4.0926848e-04  -2.5089292e-04  -4.6977549e-04  -4.6253132e-04  -3.1822387e-04  -2.4123851e-04  -3.9030012e-04  -3.4618331e-04  -4.4967604e-04  -3.0728540e-04  -5.5353210e-04  -6.0629408e-04  -3.6458607e-04  -1.6427810e-04  -1.6260223e-04  -4.0526476e-04  -3.8310964e-04  -4.1906018e-04  -2.5860197e-04  -5.9318605e-05   6.7357905e-04   6.2165014e-04  -4.4130938e-04  -6.6213810e-04  -4.0748916e-04  -1.8746831e-04  -3.5558903e-04  -2.4926019e-04  -4.8472834e-04  -1.9054269e-04  -4.6012065e-04  -4.1951548e-04  -6.5556960e-05  -3.7757214e-04  -1.0930595e-04  -1.6339595e-04  -1.8942537e-04  -5.3222687e-04  -2.9458108e-04  -2.9687231e-04  -2.9455859e-04  -2.9373780e-04  -5.9606676e-04  -4.2988174e-04   4.2394451e-05   1.8716659e-04  -3.7550047e-04  -2.6585115e-04  -6.3474604e-04  -1.1316182e-03
  -3.2677254e-04  -1.8966569e-04  -4.1385766e-04  -3.4101246e-04  -2.4515769e-04  -1.2396400e-04  -2.2037032e-04  -2.1630700e-04  -1.2610883e-04  -8.1117279e-05  -5.0663884e-04  -4.0178763e-04  -2.8176230e-04  -8.1299251e-05  -9.0932299e-05  -3.2510122e-04  -3.2624922e-04  -3.4188718e-04  -2.8351089e-06   9.0034642e-05   7.9844543e-04   8.1157876e-04  -2.3910710e-04  -3.5594922e-04  -1.9752728e-04   4.4080654e-05  -2.9500586e-04  -7.0714683e-05  -3.4296725e-04  -3.0412222e-05  -2.6947274e-04  -2.3386382e-04   2.4040820e-04  -1.1550834e-04   1.0424146e-04   4.1769777e-05  -2.5494890e-05  -2.3495848e-04  -2.0317088e-05  -3.0439598e-05  -4.2859523e-05  -8.7242006e-05  -2.9858088e-04  -3.0732653e-04   1.2523351e-04   3.7876284e-04  -2.2519080e-04  -1.8976352e-04  -4.8213694e-04  -1.1054319e-03
  -2.2711222e-04  -8.6050291e-05  -3.7315206e-04  -3.1723882e-04  -1.8985529e-04  -8.7084241e-05  -2.1656651e-04  -2.1240779e-04  -9.8029908e-05  -4.3294101e-05  -4.0916417e-04  -3.7998430e-04  -2.0983163e-04  -2.6913218e-05  -6.6979577e-05  -2.7590638e-04  -2.7659253e-04  -2.9914474e-04  -2.3117836e-05   9.2387207e-05   7.9923618e-04   7.7759265e-04  -2.5077839e-04  -3.7006746e-04  -2.0405727e-04   2.7224911e-05  -2.3349386e-04  -5.5861983e-05  -3.2136936e-04  -3.5478432e-05  -2.7149884e-04  -2.3277264e-04   1.8031099e-04  -1.6886562e-04   7.7072735e-05   3.1517568e-05  -2.8330573e-05  -2.6709610e-04  -1.0301002e-04  -6.6479624e-05  -7.5081356e-05  -1.3335289e-04  -3.7532093e-04  -3.2086100e-04   1.1141048e-04   2.7630886e-04  -2.7567410e-04  -2.4757118e-04  -2.0808772e-04  -1.1270168e-03
  -3.4906011e-04  -2.1962117e-04  -4.8056108e-04  -4.4568998e-04  -2.7391134e-04  -2.0099574e-04  -3.5664375e-04  -2.8991676e-04  -3.6905790e-04  -2.4603022e-04  -5.1159301e-04  -5.7148025e-04  -3.0333208e-04  -1.3428884e-04  -1.2578559e-04  -4.0213077e-04  -3.8409064e-04  -3.6438246e-04  -2.1558194e-04  -3.3760596e-05   6.9328374e-04   6.1876036e-04  -3.9542853e-04  -5.7512714e-04  -3.6733007e-04  -1.4215075e-04  -3.0732271e-04  -1.8235612e-04  -4.7535062e-04  -1.4871401e-04  -4.5655490e-04  -3.8671592e-04  -5.3914824e-05  -3.5153914e-04  -6.1778977e-05  -1.1063844e-04  -1.3534194e-04  -4.4599877e-04  -2.4430404e-04  -2.3274205e-04  -2.8787271e-04  -2.7766169e-04  -5.8795069e-04  -4.7135400e-04  -1.4862014e-04   1.0995391e-04  -4.4296405e-04  -4.0651165e-04  -6.7488971e-04  -1.1117704e-03
  -4.4497993e-04  -3.3650137e-04  -5.0007389e-04  -4.3257870e-04  -2.7173443e-04  -1.3635836e-04  -2.8500365e-04  -2.7746250e-04  -2.5389166e-04  -9.6632066e-05  -4.9667654e-04  -3.9671251e-04  -2.8383816e-04  -1.1347602e-04  -7.8041216e-05  -3.6811229e-04  -3.6043473e-04  -3.5568993e-04   4.1554336e-05   5.7567253e-05   7.5596554e-04   7.3667074e-04  -2.5180483e-04  -3.3069609e-04  -2.0767293e-04   3.0661522e-05  -2.8544953e-04  -5.8398557e-05  -3.4579198e-04  -3.1114490e-05  -2.4982431e-04  -2.4061561e-04   2.1406029e-04  -1.4683597e-04   1.1526116e-04   7.0058384e-05  -8.9798768e-06  -2.2235130e-04  -1.6696968e-06  -2.2941123e-05  -2.7572596e-05  -8.1382961e-05  -2.8096422e-04  -2.5792373e-04   1.7920724e-04   4.4234199e-04  -1.5457504e-04  -1.4503713e-04  -4.8963830e-05  -8.3787885e-04
  -2.1552904e-04  -8.0636608e-05  -3.9548147e-04  -3.2373847e-04  -1.9093270e-04  -6.2007079e-05  -1.9550917e-04  -2.0560228e-04  -6.8391782e-05  -1.8181775e-06  -3.9863269e-04  -3.4603325e-04  -1.9122346e-04  -4.1978659e-05  -4.8602884e-05  -3.0866943e-04  -3.0202311e-04  -3.1298143e-04   3.2911015e-05   9.4199779e-05   6.9510686e-04   7.5533794e-04  -2.0235544e-04  -2.9660936e-04  -1.5451481e-04   5.1846222e-05  -2.2593034e-04  -3.3558525e-05  -3.0493957e-04  -1.1050814e-05  -2.0899333e-04  -2.2903530e-04   1.5473609e-04  -1.6402510e-04   1.0791045e-04   5.5577246e-05   1.0771580e-05  -2.4456682e-04  -5.3316264e-05  -3.1428197e-05  -7.6871984e-05  -1.2282626e-04  -3.5863920e-04  -3.3766060e-04   8.0745012e-05   9.2778646e-05  -2.2710915e-04  -2.3715009e-04  -2.3091442e-04  -9.7041629e-04
  -2.9208986e-04  -1.6517352e-04  -4.5425229e-04  -4.2403754e-04  -2.4194783e-04  -1.3990262e-04  -2.9364854e-04  -2.9400611e-04  -2.1320512e-04  -1.7814433e-04  -4.6202878e-04  -4.8715345e-04  -2.8180383e-04  -1.0421625e-04  -1.0119145e-04  -4.1246606e-04  -3.7126281e-04  -3.7173706e-04  -1.0107464e-04  -3.0266722e-06   5.4424995e-04   6.0802349e-04  -3.5766463e-04  -4.9696525e-04  -2.9783827e-04  -8.3380372e-05  -2.6144899e-04  -1.3755049e-04  -4.2820035e-04  -1.0864831e-04  -3.7326352e-04  -3.4433877e-04  -3.1461652e-05  -3.7267263e-04  -1.3797590e-05  -6.9647765e-05  -8.2715669e-05  -3.9548561e-04  -1.9759886e-04  -2.0416189e-04  -2.2933043e-04  -2.4643581e-04  -5.4631510e-04  -4.3341829e-04  -5.9897855e-05   7.1751703e-05  -3.7818926e-04  -3.7439371e-04  -5.8773509e-04  -1.1839906e-03
  -5.1956438e-04  -3.9286443e-04  -6.2919152e-04  -5.8663747e-04  -3.8011608e-04  -2.9385331e-04  -4.7051877e-04  -4.7497143e-04  -4.0453760e-04  -3.5211124e-04  -6.2072795e-04  -6.9107179e-04  -4.0920064e-04  -2.2054324e-04  -1.6386564e-04  -4.9485150e-04  -4.4985159e-04  -4.4580994e-04  -1.7486373e-04  -2.6946171e-05   6.4571464e-04   6.4455142e-04  -3.4723518e-04  -4.1983125e-04  -2.6760649e-04  -4.7280064e-05  -2.5278080e-04  -8.0107347e-05  -4.1218547e-04  -7.5602977e-05  -3.0408084e-04  -2.9289900e-04   1.1355394e-04  -2.8428558e-04   8.9384557e-05   2.4777984e-05  -1.8487652e-05  -2.5511926e-04  -5.8425743e-05  -7.4772397e-05  -9.8571618e-05  -1.4540835e-04  -3.7389115e-04  -3.6130185e-04  -2.6742811e-05   1.9991715e-04  -2.0366667e-04  -2.0474558e-04  -5.5129896e-04  -9.0808066e-04
  -2.1454762e-04  -6.9932910e-05  -4.1660501e-04  -2.9836848e-04  -1.8895467e-04  -6.2294726e-05  -1.6068200e-04  -1.9760022e-04  -1.0109865e-04  -2.5716060e-06  -4.2656163e-04  -3.1195275e-04  -2.1039112e-04  -7.7357050e-05  -4.6483990e-05  -3.8613693e-04  -3.4570287e-04  -3.6292101e-04   1.1982981e-05   7.9636622e-05   7.1162893e-04   7.1799080e-04  -2.4589515e-04  -3.1870496e-04  -1.8277382e-04   4.4241133e-05  -2.4462276e-04  -2.4137194e-05  -3.0692358e-04  -2.6801459e-05  -2.7558691e-04  -2.3750809e-04   1.1982249e-04  -2.3331730e-04   1.1304197e-04   6.8865411e-05   2.8130771e-06  -2.2535928e-04  -1.4878367e-05  -6.6656910e-05  -5.5870343e-05  -1.2880460e-04  -3.5374780e-04  -3.2068172e-04   3.7514386e-05   4.7265170e-05  -2.1122809e-04  -2.4081179e-04  -5.0861808e-04  -9.1970299e-04
  -2.7991159e-04  -1.4182241e-04  -4.6498206e-04  -3.6247543e-04  -2.4052440e-04  -1.1561833e-04  -2.4131856e-04  -2.7237379e-04  -2.1534074e-04  -1.3074174e-04  -4.7726367e-04  -4.3370793e-04  -2.5577564e-04  -1.0257399e-04  -6.3122920e-05  -4.3453951e-04  -3.8302515e-04  -3.4990357e-04  -2.2144310e-04  -7.9896863e-06   6.2548544e-04   6.0842116e-04  -3.2138670e-04  -4.8234488e-04  -2.8157866e-04  -3.6532016e-05  -2.9082011e-04  -9.0611276e-05  -3.5513949e-04  -7.7705205e-05  -3.2632300e-04  -3.2967658e-04  -5.9366081e-05  -3.9344982e-04   3.2995325e-05  -3.2645828e-05  -5.5569417e-05  -3.4292223e-04  -1.3449452e-04  -1.6416336e-04  -1.2758710e-04  -2.2153607e-04  -4.8299745e-04  -4.4014910e-04  -4.0286108e-05   3.7918748e-05  -3.6659051e-04  -3.5202297e-04  -3.3476640e-04  -1.0897717e-03
  -4.7898499e-04  -3.5609506e-04  -6.0611370e-04  -5.2394409e-04  -3.7394097e-04  -2.8907243e-04  -4.1556614e-04  -4.3567951e-04  -5.6067045e-04  -3.5975847e-04  -6.3043047e-04  -6.5951410e-04  -4.2476691e-04  -2.3953133e-04  -1.6372856e-04  -5.7168328e-04  -5.2090327e-04  -4.7852640e-04  -4.2593808e-04  -1.7272783e-04   5.0006271e-04   4.4434398e-04  -5.4960663e-04  -6.8532798e-04  -4.4324365e-04  -2.0897509e-04  -3.4816816e-04  -2.0619943e-04  -5.2055874e-04  -1.6569017e-04  -3.9649784e-04  -4.1681883e-04  -7.4202078e-05  -4.6703499e-04   2.7554284e-05  -5.1713076e-05  -1.0381532e-04  -3.1139152e-04  -1.0308252e-04  -1.5915591e-04  -6.1123887e-05  -1.8658326e-04  -3.9140161e-04  -4.2957527e-04  -1.0155630e-04   8.3622530e-05  -2.7963141e-04  -2.4138164e-04  -3.5147881e-04  -9.5691881e-04
  -2.9907760e-04  -1.7346640e-04  -4.6141125e-04  -3.1497143e-04  -2.5564284e-04  -1.0874790e-04  -1.8189571e-04  -2.4515318e-04  -1.6962732e-04  -4.1564981e-05  -5.0461857e-04  -3.3572657e-04  -2.7937518e-04  -1.1941527e-04  -4.1195490e-05  -4.3629852e-04  -3.8476451e-04  -3.5508335e-04  -2.1123739e-04   1.1514553e-05   6.3401653e-04   6.3825108e-04  -2.9075102e-04  -3.6627855e-04  -1.9358790e-04   4.5076085e-05  -2.9574681e-04  -3.3471511e-05  -3.2585434e-04  -3.2479693e-05  -2.9486278e-04  -3.0642192e-04   2.4857563e-05  -3.8573763e-04   1.1598982e-04   5.8900638e-05  -1.0134583e-05  -2.4009131e-04  -1.4050713e-05  -8.1409591e-05  -2.7047037e-05  -1.2319133e-04  -3.4594256e-04  -4.4100801e-04  -7.2112096e-05   1.0692744e-04  -2.6335372e-04  -2.0871650e-04  -1.9470432e-04  -9.0812112e-04
  -3.1627476e-04  -1.8578547e-04  -4.6184409e-04  -3.4149271e-04  -2.8168986e-04  -1.5054634e-04  -2.3790541e-04  -2.9330709e-04  -2.4110230e-04  -1.1816990e-04  -5.2422704e-04  -4.4123558e-04  -3.0383351e-04  -1.3712523e-04  -5.8816073e-05  -4.5175865e-04  -4.0680676e-04  -3.9555514e-04  -2.4010945e-04  -4.5736586e-05   5.8196724e-04   5.6569616e-04  -3.6562150e-04  -4.7679426e-04  -2.5808747e-04  -1.2698299e-05  -2.9026752e-04  -7.4714568e-05  -4.0487270e-04  -6.6791967e-05  -3.6087193e-04  -3.4918278e-04  -1.0784461e-04  -4.7098970e-04   6.5752327e-05  -1.4258151e-05  -6.6721303e-05  -3.2729827e-04  -1.2731759e-04  -1.8142175e-04  -1.1634269e-04  -2.0266157e-04  -4.5621081e-04  -5.0631555e-04  -1.7802356e-04   1.8072248e-04  -3.6727102e-04  -3.1128107e-04  -5.8868760e-04  -1.0086078e-03
  -4.9255101e-04  -3.8665385e-04  -5.8508216e-04  -5.0145073e-04  -4.0546182e-04  -3.0701424e-04  -3.8227439e-04  -4.6377463e-04  -5.5303157e-04  -3.7919884e-04  -6.7480671e-04  -6.8697112e-04  -4.5536843e-04  -2.5943422e-04  -1.4950206e-04  -5.6097051e-04  -5.2380969e-04  -5.0220412e-04  -5.0879287e-04  -2.0483274e-04   4.4609793e-04   3.9199111e-04  -5.2609952e-04  -7.3111424e-04  -4.1536838e-04  -1.8353146e-04  -3.7340543e-04  -2.0017270e-04  -5.3891068e-04  -1.7939189e-04  -4.6639843e-04  -4.8126458e-04  -2.0530373e-04  -5.8391254e-04  -2.0269483e-06  -7.6766933e-05  -1.2113628e-04  -3.4626812e-04  -1.1121303e-04  -1.7581882e-04  -7.6391079e-05  -2.0077705e-04  -3.6248795e-04  -4.8171272e-04  -8.1002108e-05   1.9939124e-04  -3.1224231e-04  -2.0180139e-04  -5.6897884e-04  -1.0199369e-03
  -3.4262441e-04  -2.2754584e-04  -4.5213182e-04  -3.1420804e-04  -2.9797069e-04  -1.4270919e-04  -1.6946888e-04  -2.7118498e-04  -1.9024272e-04  -8.0167716e-05  -5.4893381e-04  -4.0049307e-04  -3.2808579e-04  -1.5072590e-04  -3.6760652e-05  -4.4246452e-04  -3.8015339e-04  -3.9548575e-04  -1.8597410e-04  -1.8867408e-05   5.9052993e-04   6.1182672e-04  -2.7538743e-04  -3.6612520e-04  -1.7722588e-04   9.3496805e-05  -2.9572455e-04  -4.0955558e-05  -3.4825303e-04  -1.8618326e-05  -3.1906244e-04  -3.0778343e-04  -2.5364314e-05  -4.2421059e-04   1.3880653e-04   6.1848819e-05  -2.0149804e-05  -2.3343785e-04  -5.1571762e-05  -1.0291460e-04  -4.4274941e-05  -1.2167653e-04  -3.3018147e-04  -4.4361592e-04   5.1206036e-05   2.1077490e-04  -2.3163037e-04  -2.1218136e-04  -4.0190178e-04  -9.4994577e-04
  -3.5033922e-04  -2.0406455e-04  -4.3214098e-04  -3.3558282e-04  -3.0897663e-04  -1.8306941e-04  -2.4427555e-04  -2.7826146e-04  -1.8172673e-04  -1.4003858e-04  -5.2395585e-04  -4.2521392e-04  -3.2320915e-04  -1.6796171e-04  -6.2725667e-05  -4.5158371e-04  -3.9588433e-04  -3.8508201e-04  -3.6747538e-04  -5.2273917e-05   5.8407005e-04   5.4287165e-04  -3.5787156e-04  -4.5972547e-04  -2.3660967e-04  -2.3223003e-05  -2.9435748e-04  -9.1375558e-05  -3.5671369e-04  -8.1681188e-05  -3.6871588e-04  -3.5488739e-04  -9.6834585e-05  -5.2223232e-04   6.5258471e-05  -5.0598751e-06  -6.0190985e-05  -3.3354509e-04  -1.2801503e-04  -2.0538524e-04  -1.4953146e-04  -2.1648344e-04  -4.5582341e-04  -4.8999774e-04  -1.2192811e-04   3.7871625e-05  -3.8594988e-04  -3.2554005e-04  -5.3751905e-04  -1.0560943e-03
  -5.2063866e-04  -3.9856770e-04  -5.5394584e-04  -4.9456325e-04  -4.2789656e-04  -3.2405896e-04  -3.8800202e-04  -4.4352471e-04  -3.6379101e-04  -4.1064384e-04  -6.7040382e-04  -7.2175858e-04  -4.8173236e-04  -2.7977477e-04  -1.5456982e-04  -5.6195090e-04  -5.0278206e-04  -4.7938354e-04  -6.3556404e-04  -2.0281351e-04   4.5589643e-04   3.8937977e-04  -5.2925618e-04  -7.2970922e-04  -4.1031622e-04  -2.0007713e-04  -3.4792811e-04  -2.3090850e-04  -5.5708503e-04  -2.1104218e-04  -5.0633855e-04  -5.3553371e-04  -3.2609352e-04  -7.4470846e-04  -6.8115289e-05  -1.6229483e-04  -1.8620538e-04  -4.9627729e-04  -2.6684592e-04  -3.3259625e-04  -2.4852876e-04  -2.8707180e-04  -5.2867812e-04  -4.8966886e-04  -1.1225313e-04   6.3321000e-05  -3.6883666e-04  -2.7316273e-04  -3.3256062e-04  -9.4225135e-04
  -3.8918355e-04  -2.5154027e-04  -4.3876920e-04  -3.3291170e-04  -3.3940366e-04  -1.9594372e-04  -2.1653475e-04  -2.9733276e-04  -2.2455442e-04  -1.6019405e-04  -5.8164587e-04  -4.4997220e-04  -3.7223965e-04  -2.2013349e-04  -6.4240448e-05  -4.5746434e-04  -3.9429837e-04  -3.9729767e-04  -3.1125935e-04  -3.2024753e-05   5.9568259e-04   5.8580830e-04  -2.8327576e-04  -4.0452005e-04  -1.8375994e-04   3.3065346e-05  -2.7098152e-04  -6.4403212e-05  -3.4078566e-04  -6.8143272e-05  -2.9709178e-04  -3.1783330e-04   2.2721138e-06  -4.9941562e-04   1.1779458e-04   5.3879889e-05  -3.9222938e-05  -2.3535374e-04  -6.9645219e-05  -1.6008406e-04  -5.6433404e-05  -1.6002754e-04  -3.7054645e-04  -4.9536477e-04   3.3212815e-05   1.2739624e-04  -3.0290560e-04  -2.3680534e-04  -2.2758494e-04  -8.9643698e-04
  -3.5782639e-04  -2.0312463e-04  -3.8679680e-04  -3.3146565e-04  -3.1263899e-04  -1.9323820e-04  -2.3964030e-04  -2.7163082e-04  -4.3666110e-04  -1.7275929e-04  -5.3657941e-04  -4.6693205e-04  -3.3072487e-04  -1.8504598e-04  -5.9136521e-05  -4.1932167e-04  -3.5800255e-04  -3.7467096e-04  -3.1296897e-04  -4.1508865e-05   5.9634115e-04   5.6140515e-04  -3.3228641e-04  -4.7846008e-04  -2.0940012e-04  -7.0137168e-07  -2.7681256e-04  -1.0487346e-04  -3.4558814e-04  -9.4331976e-05  -3.0927101e-04  -3.4586410e-04  -9.5105061e-05  -5.8414473e-04   8.0705009e-05  -1.8762108e-05  -7.1212366e-05  -3.5569631e-04  -1.3784683e-04  -2.0385353e-04  -1.0305065e-04  -1.9307177e-04  -4.4736729e-04  -5.2631815e-04  -6.4250329e-05   1.9664882e-04  -3.8955786e-04  -3.1524739e-04  -2.6486433e-04  -9.4614929e-04
  -5.0875795e-04  -3.7483292e-04  -5.0756242e-04  -4.7517841e-04  -4.2167929e-04  -3.3536251e-04  -3.7461284e-04  -4.1385778e-04  -4.2929660e-04  -4.1805726e-04  -6.6959689e-04  -7.1388198e-04  -4.5558234e-04  -2.9032290e-04  -1.4424999e-04  -5.1632099e-04  -4.5950353e-04  -4.5325630e-04  -6.4531091e-04  -1.8174978e-04   4.7091235e-04   3.9304144e-04  -5.2469881e-04  -7.0560834e-04  -3.8785423e-04  -1.8191343e-04  -3.3750170e-04  -2.2787953e-04  -5.0069700e-04  -2.3424333e-04  -4.9784902e-04  -5.1799475e-04  -2.9660080e-04  -7.7950011e-04  -5.6175650e-05  -1.7068278e-04  -1.9562872e-04  -5.0759077e-04  -2.9286923e-04  -4.2249163e-04  -3.0512319e-04  -3.6633006e-04  -6.5229821e-04  -6.3564297e-04  -2.5392193e-04  -4.5725715e-06  -5.4449058e-04  -4.8240859e-04  -4.4916308e-04  -1.1326376e-03
  -6.6667591e-04  -5.5631000e-04  -5.7953113e-04  -5.3477049e-04  -4.6141326e-04  -3.4391487e-04  -3.8901114e-04  -4.5446114e-04  -3.7768684e-04  -3.3097184e-04  -6.7956821e-04  -6.0320843e-04  -4.5529346e-04  -3.0601045e-04  -1.0571931e-04  -5.2046246e-04  -4.4318868e-04  -4.8326264e-04  -3.9814654e-04  -1.0988117e-04   5.6119054e-04   5.0899124e-04  -3.9426907e-04  -4.7348402e-04  -2.4700689e-04  -8.6784705e-05  -2.7359140e-04  -1.4677872e-04  -4.0121935e-04  -1.5751350e-04  -3.5311477e-04  -3.9279775e-04  -4.9467992e-05  -6.1318732e-04   7.2216186e-05  -2.4872917e-05  -9.4536124e-05  -3.2052651e-04  -1.4515934e-04  -2.5232977e-04  -1.1835589e-04  -1.9354049e-04  -4.1669665e-04  -4.4899242e-04  -7.1339236e-05   2.1416225e-04  -3.0624974e-04  -2.4808687e-04  -1.7273665e-04  -9.0173038e-04
  -3.4296256e-04  -1.8387110e-04  -3.9622633e-04  -3.4465877e-04  -3.3106824e-04  -1.9631017e-04  -2.4945533e-04  -3.1104093e-04  -3.4313835e-04  -2.3332184e-04  -5.6600879e-04  -5.0317106e-04  -3.4844031e-04  -2.2647424e-04  -7.5813929e-05  -4.1475115e-04  -3.5869473e-04  -3.9088365e-04  -3.6749622e-04  -5.8643214e-05   6.0795422e-04   5.5251172e-04  -3.3704779e-04  -4.4600567e-04  -2.1908985e-04  -5.0766284e-05  -2.3984842e-04  -1.3630222e-04  -3.9746586e-04  -1.4816830e-04  -3.2260540e-04  -3.6925988e-04  -7.1672839e-05  -6.0456601e-04   5.5874720e-05  -4.0996816e-05  -1.1797778e-04  -3.3021785e-04  -1.5463057e-04  -2.2523534e-04  -1.6220486e-04  -1.9704729e-04  -4.4903046e-04  -4.8448902e-04  -6.6155728e-05   2.5172639e-04  -3.4076007e-04  -3.3963140e-04  -3.8996435e-04  -8.0206891e-04
  -4.1994182e-04  -2.7310266e-04  -4.4058709e-04  -4.2715529e-04  -3.7298733e-04  -2.7209416e-04  -3.2775983e-04  -3.6495284e-04  -4.5018786e-04  -3.9065510e-04  -6.2656810e-04  -6.1990612e-04  -4.0543239e-04  -2.6738067e-04  -1.1719430e-04  -4.7681283e-04  -4.0968021e-04  -4.3558958e-04  -4.9189036e-04  -1.4974551e-04   5.2443589e-04   4.3635137e-04  -4.7388286e-04  -6.5730303e-04  -3.6595730e-04  -1.8868406e-04  -3.1866261e-04  -2.4040270e-04  -4.4750486e-04  -2.4251363e-04  -4.3458174e-04  -4.7584373e-04  -2.4662545e-04  -7.5388508e-04  -6.4817876e-05  -1.6427322e-04  -1.9447079e-04  -4.8026812e-04  -3.1645808e-04  -4.0586744e-04  -2.6867187e-04  -3.4300776e-04  -6.4588315e-04  -5.4720993e-04  -1.4505029e-04   6.2597312e-05  -5.2056211e-04  -4.4734770e-04  -1.2711344e-04  -8.9688977e-04
  -6.2318612e-04  -5.0569396e-04  -6.0780387e-04  -5.8172690e-04  -5.0984143e-04  -4.2004566e-04  -4.9573265e-04  -5.4865266e-04  -6.3689094e-04  -6.6201808e-04  -8.1271812e-04  -8.9072384e-04  -5.6100212e-04  -4.0237853e-04  -2.0382887e-04  -5.9767748e-04  -5.2900729e-04  -5.1648472e-04  -6.6798780e-04  -2.8527304e-04   4.1725617e-04   3.0469964e-04  -6.0085545e-04  -8.0817938e-04  -4.4178235e-04  -3.3931731e-04  -3.0410234e-04  -2.8198294e-04  -5.5327994e-04  -2.8028051e-04  -4.2642400e-04  -4.9991708e-04  -1.7907114e-04  -7.2527677e-04  -2.6889162e-05  -1.3123918e-04  -1.9652482e-04  -4.2210153e-04  -2.1989251e-04  -3.0453547e-04  -2.0093186e-04  -2.6707558e-04  -4.9480074e-04  -5.0507532e-04  -3.1348270e-06   9.3319766e-05  -3.7874427e-04  -3.0440715e-04  -9.7472519e-05  -6.3553359e-04
  -3.7908761e-04  -2.2738944e-04  -4.1995634e-04  -3.3946140e-04  -3.3783194e-04  -1.9198637e-04  -2.2981338e-04  -2.8788744e-04  -3.0859077e-04  -2.5660530e-04  -6.2421785e-04  -4.7889998e-04  -3.5333470e-04  -2.3921228e-04  -3.7104634e-05  -4.2306067e-04  -3.8098800e-04  -3.9837905e-04  -3.8609034e-04  -8.2842715e-05   5.6417147e-04   5.2025157e-04  -3.6595104e-04  -4.8650103e-04  -2.4437747e-04  -9.6534386e-05  -2.5355149e-04  -1.6744930e-04  -4.2084989e-04  -1.7058745e-04  -3.6575593e-04  -4.0734155e-04  -1.1785982e-04  -6.1144144e-04   2.2930548e-05  -7.6023789e-05  -1.4420020e-04  -3.4515557e-04  -1.5638620e-04  -3.0468099e-04  -1.7025745e-04  -2.0826331e-04  -4.8037778e-04  -4.3930463e-04  -3.6647412e-05   1.4932509e-04  -3.4364112e-04  -3.3363263e-04  -3.0614602e-04  -7.0321566e-04
  -4.1485799e-04  -2.3315300e-04  -4.4313725e-04  -3.9959355e-04  -3.5133044e-04  -2.2631903e-04  -2.8288853e-04  -3.3206565e-04  -3.2603287e-04  -3.6919245e-04  -6.1923650e-04  -5.7001505e-04  -3.6280244e-04  -2.5022216e-04  -7.3540192e-05  -4.2143368e-04  -4.0315301e-04  -3.9622994e-04  -4.8463768e-04  -1.3441258e-04   5.4757431e-04   4.4914996e-04  -4.2133935e-04  -5.8388489e-04  -2.9869124e-04  -1.6159227e-04  -2.6463205e-04  -2.1572108e-04  -4.3665286e-04  -2.2240492e-04  -4.3498495e-04  -4.2957964e-04  -2.3258610e-04  -7.0317712e-04  -5.4679705e-05  -1.4612694e-04  -2.0247382e-04  -4.6793913e-04  -2.7663456e-04  -3.5182844e-04  -2.7097116e-04  -3.0858570e-04  -6.1800011e-04  -5.3265115e-04  -2.0051596e-04   4.6246048e-05  -4.7862428e-04  -4.6606892e-04  -4.7736531e-04  -9.0087805e-04
  -5.7531847e-04  -4.4113534e-04  -5.8829971e-04  -5.6311378e-04  -4.7623788e-04  -3.7857823e-04  -4.6212602e-04  -5.0334301e-04  -5.8325491e-04  -6.1046280e-04  -7.5555639e-04  -8.2876720e-04  -5.0395069e-04  -3.7140638e-04  -1.8433385e-04  -5.5297680e-04  -5.2757410e-04  -4.8576214e-04  -6.6095073e-04  -2.8512644e-04   4.2865929e-04   2.8344989e-04  -6.3106179e-04  -8.5007376e-04  -4.6934237e-04  -3.6882184e-04  -3.5705141e-04  -3.5704390e-04  -6.1633345e-04  -3.6355131e-04  -6.2181259e-04  -5.9807766e-04  -4.5253587e-04  -8.9780579e-04  -1.9042933e-04  -3.0399510e-04  -3.2422892e-04  -5.9725653e-04  -3.9876034e-04  -5.0092465e-04  -3.6550083e-04  -3.8073972e-04  -6.5947766e-04  -5.6688784e-04  -2.2541052e-04   5.8860576e-05  -4.4593686e-04  -3.9152373e-04  -4.6072880e-04  -8.4897812e-04
  -4.3452973e-04  -2.7440453e-04  -4.9447623e-04  -4.1010280e-04  -3.6979036e-04  -2.3024168e-04  -2.6414334e-04  -3.7826458e-04  -4.6728092e-04  -3.6417216e-04  -6.6593196e-04  -5.5634679e-04  -3.9603774e-04  -2.9957964e-04  -9.6885597e-05  -4.4457286e-04  -4.3513151e-04  -4.2354624e-04  -3.4676885e-04  -1.4125468e-04   5.6091411e-04   4.6268568e-04  -3.7766565e-04  -5.0661946e-04  -2.3595517e-04  -1.4813575e-04  -2.6945811e-04  -1.9406206e-04  -4.2575173e-04  -2.1278301e-04  -4.3603400e-04  -3.9140499e-04  -1.4475560e-04  -6.3090387e-04  -2.1408094e-05  -1.2149730e-04  -1.9460099e-04  -3.7304749e-04  -2.2425479e-04  -3.3459536e-04  -2.6002177e-04  -2.6533753e-04  -5.4937170e-04  -5.0189096e-04  -1.7426371e-04   2.6343430e-06  -3.8328441e-04  -3.7457995e-04  -1.8945184e-04  -9.1047387e-04
  -4.1033182e-04  -2.5261982e-04  -4.8505532e-04  -4.2094642e-04  -3.4990354e-04  -2.5289747e-04  -2.8658856e-04  -3.6442489e-04  -4.3887360e-04  -4.0715770e-04  -6.3071400e-04  -5.7131535e-04  -3.6731601e-04  -2.8544603e-04  -1.0902399e-04  -4.4383443e-04  -4.1018327e-04  -3.8633414e-04  -3.6587537e-04  -1.6710418e-04   5.2923069e-04   3.9590430e-04  -4.0888134e-04  -5.9163145e-04  -2.9780669e-04  -2.1072387e-04  -2.8250142e-04  -2.2470033e-04  -4.0379638e-04  -2.3915149e-04  -4.8013244e-04  -4.4138607e-04  -2.3972198e-04  -6.9829036e-04  -7.3237978e-05  -1.6201571e-04  -2.1623840e-04  -4.5964777e-04  -3.0572782e-04  -4.1574397e-04  -2.9889660e-04  -3.0825965e-04  -6.5698149e-04  -5.5559730e-04  -1.6985154e-04  -1.1713906e-04  -4.8986863e-04  -4.4387628e-04  -2.5591766e-04  -9.5320656e-04
  -5.3971290e-04  -4.1235040e-04  -5.8759691e-04  -5.6480558e-04  -4.4797969e-04  -3.6432742e-04  -4.5858690e-04  -4.9730408e-04  -5.5952289e-04  -6.4138963e-04  -7.6008536e-04  -8.0474833e-04  -4.9139833e-04  -3.6018671e-04  -1.8862178e-04  -5.3419353e-04  -5.2272290e-04  -4.6606577e-04  -6.3561328e-04  -3.2454869e-04   3.7552146e-04   2.1976323e-04  -6.0981914e-04  -8.4739504e-04  -4.7074849e-04  -3.8904286e-04  -3.5074333e-04  -3.5107421e-04  -6.1141839e-04  -3.4349822e-04  -6.8878394e-04  -6.0542632e-04  -4.6513311e-04  -8.7593123e-04  -1.9591242e-04  -3.0882881e-04  -3.2850006e-04  -5.8873428e-04  -4.0074371e-04  -5.2523270e-04  -3.6604659e-04  -3.7260840e-04  -7.1254495e-04  -6.0014374e-04  -2.9737770e-04  -4.4481690e-06  -4.8282114e-04  -3.9808298e-04  -4.6645719e-04  -9.3433890e-04
  -4.4315055e-04  -2.9204768e-04  -5.1315816e-04  -4.2912460e-04  -3.5550082e-04  -2.4149529e-04  -2.7263773e-04  -3.7199340e-04  -4.0360299e-04  -3.8337777e-04  -6.7929656e-04  -5.4382544e-04  -3.8319718e-04  -3.0397129e-04  -1.0295214e-04  -4.3016521e-04  -4.3618350e-04  -4.0338549e-04  -2.4325344e-04  -1.7408282e-04   5.0484459e-04   3.8956129e-04  -3.5886635e-04  -5.1134609e-04  -2.6575490e-04  -1.7760829e-04  -2.8737364e-04  -1.7224856e-04  -3.6559222e-04  -1.9202562e-04  -4.5306614e-04  -3.9405993e-04  -1.4282699e-04  -5.9914123e-04  -1.1505624e-05  -1.1812204e-04  -1.9348602e-04  -3.6325186e-04  -1.9728698e-04  -3.2712243e-04  -1.9632780e-04  -2.3358644e-04  -5.1677355e-04  -4.9157819e-04  -2.4537905e-04  -8.0468933e-05  -4.3661965e-04  -3.6780865e-04  -3.1597956e-04  -8.3174155e-04
  -3.8671010e-04  -2.5613426e-04  -4.7794991e-04  -4.4449454e-04  -3.3277133e-04  -2.3630964e-04  -2.8836582e-04  -3.2005843e-04  -4.2582108e-04  -4.2876930e-04  -6.3903438e-04  -5.8259530e-04  -3.5156804e-04  -2.3890015e-04  -9.4279960e-05  -4.0165460e-04  -4.2601029e-04  -3.5969328e-04  -3.7836967e-04  -2.0012814e-04   4.6137584e-04   3.2777523e-04  -4.0617021e-04  -5.8960961e-04  -2.6563532e-04  -2.0018106e-04  -2.5231132e-04  -1.9516192e-04  -4.0155277e-04  -1.9431251e-04  -5.0921604e-04  -4.3303490e-04  -2.4004956e-04  -6.6144986e-04  -5.2535448e-05  -1.6178166e-04  -2.2529997e-04  -4.3974377e-04  -2.7052226e-04  -3.9862329e-04  -2.3625845e-04  -2.6174000e-04  -5.6453038e-04  -5.2682165e-04  -2.2302766e-04  -1.3381478e-04  -5.0085410e-04  -4.5205225e-04  -3.2087005e-04  -8.0969656e-04
  -5.3175545e-04  -4.0136126e-04  -5.9399736e-04  -5.7773467e-04  -4.3032222e-04  -3.6684569e-04  -4.3698246e-04  -4.6540247e-04  -7.1510283e-04  -6.7837810e-04  -7.4528571e-04  -7.9144933e-04  -4.5891744e-04  -3.4029168e-04  -1.6826100e-04  -5.0137972e-04  -5.2526867e-04  -4.4162752e-04  -6.5041549e-04  -3.4612275e-04   3.2865049e-04   1.4542953e-04  -5.8082899e-04  -8.6845586e-04  -4.4634717e-04  -4.0159471e-04  -2.8317733e-04  -3.1505726e-04  -5.6663563e-04  -2.9844276e-04  -6.7784794e-04  -5.6886638e-04  -4.7844532e-04  -8.3855155e-04  -1.9521562e-04  -2.9192222e-04  -3.3673568e-04  -5.8268447e-04  -4.1550587e-04  -5.3163647e-04  -3.5469621e-04  -3.7919451e-04  -7.3488173e-04  -6.4987259e-04  -2.9335814e-04  -2.2371332e-04  -5.3456664e-04  -4.2745381e-04  -8.8128814e-04  -9.8757446e-04
  -4.0632975e-04  -3.0178111e-04  -5.1346485e-04  -4.4010385e-04  -3.4878968e-04  -2.2559379e-04  -2.7042706e-04  -3.2586802e-04  -4.4705236e-04  -4.2587452e-04  -6.6961505e-04  -5.4567173e-04  -3.7809421e-04  -2.5836396e-04  -7.3833413e-05  -3.9066956e-04  -4.4084227e-04  -3.7939710e-04  -4.0244477e-04  -1.8170876e-04   4.3521955e-04   3.1848092e-04  -3.5636913e-04  -5.0096662e-04  -2.3205565e-04  -1.5903583e-04  -2.0669255e-04  -1.3658679e-04  -3.4905848e-04  -1.2681792e-04  -4.3119505e-04  -3.6962845e-04  -1.3231068e-04  -5.6869572e-04   2.4576568e-05  -7.5246200e-05  -1.8498927e-04  -2.8520692e-04  -1.5277391e-04  -2.7576930e-04  -6.3845444e-05  -1.7814556e-04  -3.9494812e-04  -4.6400729e-04  -2.3894389e-04   2.5271274e-05  -4.3055389e-04  -3.0122476e-04  -7.3481706e-04  -8.9185429e-04
  -3.5488236e-04  -2.3373897e-04  -4.6719715e-04  -4.1890834e-04  -3.0720595e-04  -2.1859912e-04  -2.5729643e-04  -2.8710283e-04  -4.0542023e-04  -4.1377053e-04  -6.0856115e-04  -5.2887219e-04  -3.1414031e-04  -1.8435116e-04  -5.9985632e-05  -3.3199057e-04  -3.9268611e-04  -3.1666626e-04  -3.7491252e-04  -1.7467086e-04   4.4688027e-04   3.0308060e-04  -3.3848322e-04  -5.4679275e-04  -2.2015109e-04  -1.6790286e-04  -1.8096989e-04  -1.4897033e-04  -3.3257317e-04  -1.3042336e-04  -4.2864744e-04  -3.6893532e-04  -1.7583041e-04  -6.1522430e-04  -1.6153410e-05  -1.1209618e-04  -1.9255413e-04  -3.6319002e-04  -1.8216249e-04  -3.5275033e-04  -1.3342535e-04  -2.2154902e-04  -4.5143533e-04  -5.1392225e-04  -1.0568083e-04  -7.6664674e-06  -4.9263262e-04  -3.8344113e-04  -4.6930625e-04  -1.0481334e-03
  -4.6054774e-04  -3.5095745e-04  -5.4503436e-04  -5.3357618e-04  -3.8079650e-04  -3.1357916e-04  -3.8978609e-04  -4.0842965e-04  -5.7418592e-04  -6.4318423e-04  -7.0552644e-04  -7.4030919e-04  -4.0777237e-04  -2.6387619e-04  -1.2323294e-04  -4.0769525e-04  -4.8082610e-04  -3.6554973e-04  -4.4051989e-04  -3.0550020e-04   3.1157312e-04   1.5243230e-04  -4.9574306e-04  -7.7955396e-04  -3.8728130e-04  -2.9876130e-04  -2.1643260e-04  -2.5231583e-04  -4.5027517e-04  -2.1698856e-04  -5.6419265e-04  -5.0161121e-04  -4.0852593e-04  -7.7161222e-04  -1.2012480e-04  -2.3501120e-04  -2.8734471e-04  -5.6122767e-04  -3.4937574e-04  -4.8850360e-04  -2.5908573e-04  -3.4183200e-04  -6.2409887e-04  -5.7874899e-04  -3.1359005e-04  -2.5361916e-04  -6.2265730e-04  -4.8170483e-04  -5.0182978e-04  -1.0925606e-03
  -5.3606677e-04  -4.2136756e-04  -5.3779234e-04  -4.8063335e-04  -3.4934533e-04  -2.4000132e-04  -3.0428800e-04  -3.6278524e-04  -4.1980046e-04  -4.2217883e-04  -6.5027626e-04  -5.2490411e-04  -3.5363270e-04  -2.3440627e-04  -5.4015942e-05  -3.5586636e-04  -4.3558673e-04  -3.2322865e-04  -2.2423873e-04  -1.6967623e-04   4.2651902e-04   3.1260567e-04  -3.4899006e-04  -4.9479789e-04  -2.1541180e-04  -1.4960241e-04  -1.7473035e-04  -1.1859537e-04  -2.8293661e-04  -1.0038880e-04  -3.7635188e-04  -3.3234313e-04  -1.2030837e-04  -5.2113656e-04   2.4690344e-05  -3.1791915e-05  -1.5546313e-04  -2.7750601e-04  -9.6098614e-05  -2.2773592e-04  -1.7849292e-05  -1.3806058e-04  -2.9471441e-04  -4.3037281e-04  -9.3891766e-05   1.6647903e-04  -4.1627741e-04  -2.2331417e-04  -4.1101431e-04  -8.1119390e-04
  -3.1864844e-04  -2.1038132e-04  -4.3207122e-04  -3.8078637e-04  -2.8747146e-04  -1.8122373e-04  -2.0097898e-04  -2.1741830e-04  -3.4444971e-04  -3.4267537e-04  -6.0285069e-04  -5.3169340e-04  -2.7281381e-04  -1.1707545e-04  -2.0456138e-05  -2.7165699e-04  -3.6741360e-04  -2.5008695e-04  -3.6421031e-04  -1.5491176e-04   4.0666337e-04   3.3266327e-04  -2.7494461e-04  -5.0225033e-04  -1.8718651e-04  -4.6112746e-05  -1.1890996e-04  -7.7391640e-05  -2.5164863e-04  -3.9732367e-05  -3.3432781e-04  -2.9672909e-04  -1.5418004e-04  -5.2932033e-04   6.3975007e-05  -2.2986125e-05  -1.3160188e-04  -2.6047823e-04  -7.2218871e-05  -2.3892742e-04   5.7444363e-06  -1.2515506e-04  -2.9894133e-04  -4.4343100e-04  -1.0044140e-04   1.3721194e-04  -4.7872018e-04  -2.6503927e-04  -4.0518859e-04  -7.8257796e-04
  -4.0852622e-04  -2.9968351e-04  -5.0061540e-04  -4.6562453e-04  -3.4626914e-04  -2.6353600e-04  -3.0217721e-04  -3.1282223e-04  -3.5691715e-04  -4.9993925e-04  -6.5209955e-04  -6.8625121e-04  -3.5971162e-04  -1.7865570e-04  -6.4540800e-05  -3.4649723e-04  -4.2561060e-04  -2.9727057e-04  -4.7457730e-04  -2.4821464e-04   3.4117189e-04   2.0176094e-04  -3.8756672e-04  -6.9026556e-04  -3.0555736e-04  -1.8672834e-04  -1.8267754e-04  -1.8495480e-04  -3.3785304e-04  -1.6070443e-04  -4.6913081e-04  -4.1888750e-04  -3.5736387e-04  -6.8927469e-04  -5.3066611e-05  -1.5286390e-04  -2.2847048e-04  -4.2745515e-04  -2.3564178e-04  -4.0588298e-04  -1.9647785e-04  -2.6700099e-04  -5.2612938e-04  -5.0706731e-04  -1.6170458e-04  -7.3887953e-05  -6.1118271e-04  -4.3257588e-04  -4.3437790e-04  -1.0157704e-03
  -6.1547529e-04  -5.0643034e-04  -6.3437514e-04  -5.8613508e-04  -4.3645772e-04  -3.5533984e-04  -4.0764178e-04  -4.3038820e-04  -5.5480306e-04  -4.6101335e-04  -6.9266331e-04  -6.8567193e-04  -3.8907118e-04  -2.1708262e-04  -6.4798580e-05  -3.6556402e-04  -4.3973571e-04  -3.1170802e-04  -3.1784072e-04  -1.9963167e-04   3.8663441e-04   2.9294743e-04  -3.4021350e-04  -4.8303115e-04  -1.9920118e-04  -9.2561502e-05  -1.4261926e-04  -1.1562502e-04  -3.0194916e-04  -9.6183547e-05  -3.5212052e-04  -2.9987536e-04  -1.2425859e-04  -5.1486923e-04   5.6672070e-05  -1.4703683e-05  -1.2500827e-04  -2.5536618e-04  -6.2644562e-05  -2.1559461e-04   1.1498466e-05  -1.0072358e-04  -2.5199348e-04  -3.5496021e-04   3.0848503e-05   1.3132527e-04  -3.9378833e-04  -2.0868386e-04  -2.4662577e-04  -6.8519561e-04
  -2.5972657e-04  -1.4762339e-04  -4.0578123e-04  -3.2128580e-04  -2.4651547e-04  -1.4088828e-04  -1.7238154e-04  -1.8717421e-04  -3.4322531e-04  -2.7166883e-04  -5.4813881e-04  -4.6277139e-04  -2.6757710e-04  -1.0561058e-04  -3.0321289e-05  -2.7499793e-04  -3.3030799e-04  -2.0369694e-04  -2.5447833e-04  -1.2991212e-04   4.3474280e-04   3.4603398e-04  -2.6380346e-04  -4.5404455e-04  -1.7894834e-04  -2.3811866e-05  -1.0895386e-04  -7.5718453e-05  -2.0533041e-04  -5.5430035e-05  -2.7462412e-04  -2.4547111e-04  -1.4181403e-04  -4.9499719e-04   6.3462307e-05   5.7665204e-07  -1.1165251e-04  -2.3900364e-04  -4.8362224e-05  -1.8051571e-04   2.6211670e-05  -1.2063923e-04  -2.9689295e-04  -3.7005130e-04  -3.3926764e-05   1.4430632e-04  -4.2206238e-04  -2.3015811e-04  -2.4994934e-04  -8.2220224e-04
  -3.5143504e-04  -2.2046226e-04  -4.3941580e-04  -3.9336813e-04  -2.8917749e-04  -1.9499758e-04  -2.4388240e-04  -2.6630412e-04  -3.5962265e-04  -3.8687483e-04  -5.7715789e-04  -5.8011588e-04  -3.0179342e-04  -1.2751574e-04  -5.1953775e-05  -3.1049631e-04  -3.7410692e-04  -2.1805063e-04  -3.8594531e-04  -2.0992257e-04   3.4298262e-04   2.2929002e-04  -3.6437405e-04  -5.9606100e-04  -2.9190577e-04  -1.1142257e-04  -1.4007791e-04  -1.5199740e-04  -2.9931639e-04  -1.3213871e-04  -4.0375625e-04  -3.5035520e-04  -3.2911397e-04  -6.0276431e-04  -2.9122300e-05  -9.4784067e-05  -1.9488874e-04  -3.7037759e-04  -1.8459247e-04  -3.0812770e-04  -1.1167315e-04  -2.0444070e-04  -4.4453106e-04  -4.6667634e-04  -1.6410572e-04  -1.4115160e-05  -5.5501034e-04  -3.7334196e-04  -3.9229923e-04  -9.9053700e-04
  -5.3358532e-04  -4.4511250e-04  -5.7195348e-04  -5.5334577e-04  -4.3060331e-04  -3.6248620e-04  -4.2326239e-04  -4.6019367e-04  -6.0932559e-04  -6.0598832e-04  -7.1386283e-04  -8.3466852e-04  -4.5037421e-04  -2.5697899e-04  -1.2820221e-04  -4.3246226e-04  -4.6339241e-04  -3.3274092e-04  -3.6069847e-04  -2.6400553e-04   3.1014095e-04   1.9026994e-04  -3.9906922e-04  -5.8027590e-04  -2.9025521e-04  -1.5035305e-04  -1.2816976e-04  -1.4571643e-04  -3.4163427e-04  -1.3182712e-04  -3.3791727e-04  -3.2133152e-04  -1.9925137e-04  -5.1808945e-04   4.8511567e-05  -1.8151863e-05  -1.3642004e-04  -2.3152673e-04  -6.5350767e-05  -1.9754375e-04  -4.2058373e-06  -1.4342321e-04  -2.7479234e-04  -4.2122661e-04  -5.1529994e-05   2.0047362e-04  -4.0323555e-04  -1.8036920e-04  -2.8484108e-04  -7.1363884e-04
  -2.6701560e-04  -1.6196097e-04  -3.5666293e-04  -2.9671803e-04  -2.2899275e-04  -1.2158494e-04  -1.4099648e-04  -1.7925906e-04  -2.5581714e-04  -2.2255666e-04  -5.0768023e-04  -4.5175978e-04  -2.5779472e-04  -9.7557757e-05  -9.2070632e-06  -2.6695171e-04  -3.2612393e-04  -2.0164986e-04  -3.5056382e-04  -1.5385546e-04   3.7418719e-04   2.5534595e-04  -2.6633701e-04  -4.3583236e-04  -1.7216064e-04   1.2572710e-05  -1.2889293e-04  -7.3028190e-05  -2.1814871e-04  -3.7096150e-05  -2.8280087e-04  -2.5550899e-04  -1.8303431e-04  -4.5254533e-04   8.7532157e-05   1.4042103e-05  -1.3032254e-04  -2.2011033e-04  -5.0382620e-05  -1.7335737e-04   8.7062843e-05  -9.6490614e-05  -2.3198384e-04  -3.7165821e-04  -6.7697394e-05   2.1071080e-04  -4.0845599e-04  -1.8091161e-04  -3.3959493e-04  -7.6503446e-04
  -3.2474505e-04  -2.2879044e-04  -3.8947596e-04  -3.7095827e-04  -2.7155681e-04  -1.8485768e-04  -1.9772303e-04  -2.4873481e-04  -3.8942779e-04  -3.2152943e-04  -5.5021571e-04  -5.8094010e-04  -2.9887413e-04  -1.1915781e-04  -2.9115778e-05  -2.9615240e-04  -3.6402236e-04  -2.1067668e-04  -2.9331030e-04  -2.0801951e-04   3.3947016e-04   1.7946759e-04  -3.2325156e-04  -5.4232829e-04  -2.2852694e-04  -7.4606920e-05  -1.0420629e-04  -1.4565821e-04  -3.1483712e-04  -1.3616028e-04  -3.8474659e-04  -3.3650012e-04  -3.4656492e-04  -5.5658777e-04   5.7533998e-07  -6.3442407e-05  -1.6440294e-04  -3.4609850e-04  -1.6304762e-04  -2.5952209e-04  -9.3415234e-05  -2.1837041e-04  -4.2816027e-04  -4.3211394e-04  -8.4816224e-05   8.5252868e-06  -5.3988339e-04  -3.7066714e-04  -3.1064713e-04  -9.4392017e-04
  -5.0387857e-04  -4.1607159e-04  -5.4143131e-04  -5.2541337e-04  -3.9789319e-04  -3.4725698e-04  -3.8343651e-04  -4.2922251e-04  -5.7698897e-04  -5.6786521e-04  -6.6481781e-04  -8.2530157e-04  -4.4823712e-04  -2.6079218e-04  -1.3496763e-04  -4.2595077e-04  -4.6610640e-04  -3.4025608e-04  -4.5788384e-04  -3.1513756e-04   2.5676924e-04   5.9205209e-05  -4.7739319e-04  -6.6766236e-04  -3.6330256e-04  -2.1433439e-04  -1.2442032e-04  -1.9220571e-04  -3.2827695e-04  -1.7691316e-04  -3.7772217e-04  -3.2618837e-04  -2.5097624e-04  -5.1112910e-04   4.6331788e-05  -2.0657601e-05  -1.4217339e-04  -2.6427233e-04  -7.0282164e-05  -1.8083652e-04   6.7681896e-08  -1.5119505e-04  -2.9378332e-04  -3.5752216e-04  -6.5214423e-05   1.3962053e-04  -4.0954171e-04  -2.3204186e-04  -5.1513029e-04  -5.8308250e-04
  -2.4717703e-04  -1.4749398e-04  -3.2941959e-04  -2.8452135e-04  -2.0658456e-04  -1.0936813e-04  -1.1575221e-04  -1.8327449e-04  -2.0790003e-04  -1.3278512e-04  -4.5754094e-04  -4.1179871e-04  -2.4125683e-04  -9.6443240e-05   7.1440451e-07  -2.5861003e-04  -3.0185081e-04  -1.7122318e-04  -2.1395826e-04  -1.3256900e-04   3.9264606e-04   2.3549584e-04  -2.2538399e-04  -3.8315728e-04  -1.3943939e-04   1.2556004e-05  -9.8666482e-05  -8.3094565e-05  -1.8300898e-04  -5.5964796e-05  -2.5410877e-04  -2.3556217e-04  -2.0221257e-04  -4.1372946e-04   9.5026757e-05   3.0742027e-05  -9.0640722e-05  -1.8907079e-04  -5.9466380e-05  -1.4209270e-04   5.6822908e-05  -9.3759045e-05  -2.6827838e-04  -2.7549278e-04  -1.1014029e-04   1.5413875e-04  -3.7549922e-04  -2.2277315e-04  -3.5290208e-04  -6.2192063e-04
  -2.7159642e-04  -1.7621864e-04  -3.3597072e-04  -3.4300654e-04  -2.2016994e-04  -1.6046302e-04  -1.8473469e-04  -1.9864728e-04  -2.8457821e-04  -2.5451148e-04  -4.7331891e-04  -5.2104378e-04  -2.6299860e-04  -1.1792497e-04  -2.7828841e-05  -2.9794197e-04  -3.1308201e-04  -1.9836865e-04  -2.9128676e-04  -1.7265249e-04   3.6340405e-04   1.6369188e-04  -3.1031531e-04  -5.1032472e-04  -2.1653200e-04  -6.1804807e-05  -8.7482600e-05  -1.3606188e-04  -2.7996118e-04  -1.3281780e-04  -3.3660742e-04  -3.0140427e-04  -3.3615605e-04  -4.8761457e-04  -3.2701516e-06  -6.0909380e-05  -1.5725518e-04  -3.3076594e-04  -1.3940630e-04  -2.2934510e-04  -1.0828445e-04  -2.2465317e-04  -4.6429719e-04  -4.0214864e-04  -1.3843935e-04  -1.1041737e-04  -5.1073509e-04  -3.7499206e-04  -4.9335556e-04  -7.9855561e-04
  -4.5641154e-04  -3.5837790e-04  -4.7412846e-04  -4.9871084e-04  -3.5078111e-04  -2.9570149e-04  -3.6211225e-04  -3.8630000e-04  -4.2621902e-04  -5.0169270e-04  -6.0331350e-04  -7.7058130e-04  -4.0272961e-04  -2.5858157e-04  -1.2856808e-04  -4.2690412e-04  -4.2923848e-04  -3.1572717e-04  -4.5858006e-04  -3.2303468e-04   2.2021773e-04  -4.0709970e-06  -4.6085293e-04  -7.4679439e-04  -3.8270568e-04  -2.6572397e-04  -1.4833250e-04  -2.6381089e-04  -4.2903188e-04  -2.3604439e-04  -4.2381565e-04  -3.9947464e-04  -3.5164945e-04  -5.6942913e-04  -3.1106039e-05  -1.0389223e-04  -2.0254908e-04  -2.9038178e-04  -1.1437310e-04  -1.9366559e-04  -6.7806206e-05  -2.0455146e-04  -3.4362046e-04  -3.5999212e-04  -1.4358645e-04  -7.1915056e-06  -4.0792194e-04  -2.6025402e-04  -3.1263407e-04  -7.1714219e-04
  -2.4850664e-04  -1.5180188e-04  -2.9987152e-04  -2.8586097e-04  -1.9231910e-04  -9.2184768e-05  -1.0618228e-04  -1.7592761e-04  -2.4382537e-04  -1.3221496e-04  -4.4298841e-04  -4.1614426e-04  -2.4404001e-04  -1.3344713e-04  -1.0025967e-05  -2.8326080e-04  -2.6692299e-04  -1.7097272e-04  -1.4121464e-04  -9.6851909e-05   4.1017865e-04   2.4831673e-04  -1.8465164e-04  -3.3944487e-04  -1.1065030e-04   1.2154822e-05  -8.7289554e-05  -9.0321577e-05  -1.8802909e-04  -8.1144426e-05  -2.4316096e-04  -2.4602865e-04  -1.5680130e-04  -3.9129562e-04   7.1766612e-05   1.8970053e-05  -9.8137229e-05  -2.1213334e-04  -5.3027212e-05  -1.1945913e-04  -8.0816353e-06  -1.6338773e-04  -3.1605022e-04  -2.4548738e-04  -3.4225377e-05  -6.6835244e-05  -3.7341943e-04  -2.3975017e-04  -2.5462045e-04  -5.6510809e-04
  -2.1944359e-04  -1.3621421e-04  -2.8170212e-04  -3.1261428e-04  -1.9423601e-04  -1.1795265e-04  -1.4040095e-04  -1.7834647e-04  -3.5235903e-04  -2.0719705e-04  -4.4525802e-04  -5.1523885e-04  -2.3698789e-04  -1.2427539e-04  -1.3256578e-05  -2.6909597e-04  -2.6882318e-04  -1.5723807e-04  -1.5757306e-04  -1.5356828e-04   3.3607011e-04   1.6581568e-04  -2.3434572e-04  -4.2436874e-04  -1.7131747e-04  -1.2865708e-05  -1.0839551e-04  -1.3821710e-04  -1.9009979e-04  -1.0772522e-04  -2.8138695e-04  -2.4895821e-04  -2.6890769e-04  -4.3148774e-04   3.9634127e-05  -1.2749366e-05  -1.3711928e-04  -2.7257254e-04  -1.0517296e-04  -1.7383031e-04  -2.5522528e-05  -1.9040809e-04  -4.0707298e-04  -3.5887503e-04  -1.7221821e-04  -1.4515969e-04  -4.8997905e-04  -3.2630170e-04  -5.4744392e-04  -7.3244068e-04
  -3.8224840e-04  -3.3849999e-04  -4.3665542e-04  -4.6106681e-04  -3.1645902e-04  -2.7666995e-04  -3.1529189e-04  -3.4919856e-04  -4.7179181e-04  -4.4425248e-04  -5.8670732e-04  -7.5322669e-04  -3.7290380e-04  -2.2816069e-04  -9.7654265e-05  -3.9441243e-04  -3.9102617e-04  -2.8716301e-04  -3.4626405e-04  -3.0101312e-04   2.2584489e-04   9.5865453e-06  -4.0529002e-04  -6.4840459e-04  -3.3628172e-04  -1.9905648e-04  -1.5313040e-04  -2.5303414e-04  -3.7371423e-04  -2.4172946e-04  -4.5520873e-04  -4.3109630e-04  -4.7471264e-04  -6.1636663e-04  -9.1317706e-05  -1.8104143e-04  -2.2204843e-04  -4.1513608e-04  -2.7241677e-04  -3.4070152e-04  -1.8830207e-04  -2.9843333e-04  -5.1459746e-04  -4.2536910e-04  -2.2979162e-04  -1.0680425e-04  -4.6936620e-04  -2.7948583e-04  -4.1975026e-04  -6.2721170e-04
  -2.5067374e-04  -1.8885561e-04  -3.2055075e-04  -3.1439372e-04  -2.2615641e-04  -1.3306888e-04  -1.4046980e-04  -2.4347888e-04  -3.7090172e-04  -1.6409923e-04  -4.8040377e-04  -4.9212156e-04  -2.7240571e-04  -1.6846703e-04  -1.5063981e-05  -2.8771616e-04  -2.9699589e-04  -2.1478524e-04  -1.1738924e-04  -1.3224843e-04   3.6291513e-04   2.1609070e-04  -1.8573784e-04  -2.8917869e-04  -9.7660697e-05   4.2475436e-05  -9.3768227e-05  -9.3652605e-05  -2.5141391e-04  -7.3069037e-05  -2.3483604e-04  -2.2577390e-04  -1.4191474e-04  -3.3799882e-04   9.6799013e-05   4.5898363e-05  -7.2211333e-05  -1.8971528e-04  -3.4502627e-05  -9.2923314e-05   2.5614991e-05  -1.2907138e-04  -2.8655760e-04  -2.9567775e-04  -8.3357969e-05   3.8555987e-05  -3.9327110e-04  -2.1942453e-04  -1.9602210e-04  -6.5550068e-04
  -2.1339010e-04  -1.3727455e-04  -2.9703413e-04  -3.0415799e-04  -1.9670167e-04  -1.1006239e-04  -1.3414169e-04  -1.8521512e-04  -2.5934336e-04  -1.7242569e-04  -4.4541521e-04  -4.8564340e-04  -2.1920698e-04  -1.0201099e-04   3.1201068e-07  -2.6345206e-04  -2.5303662e-04  -1.6113554e-04  -1.7121575e-04  -1.3657701e-04   3.5328756e-04   2.0042836e-04  -1.9527259e-04  -3.4663526e-04  -1.2037893e-04   2.5418949e-05  -1.0389386e-04  -1.0107524e-04  -1.8020722e-04  -8.8904460e-05  -2.6689973e-04  -2.4060396e-04  -2.4061026e-04  -3.9307948e-04   5.3520918e-05   1.5770340e-05  -1.0604165e-04  -2.4538528e-04  -9.6863820e-05  -1.1569501e-04   7.7893801e-06  -1.5590807e-04  -3.7779426e-04  -3.2698325e-04  -1.0006975e-04  -5.1528936e-05  -4.6459195e-04  -3.1243789e-04  -2.2469532e-04  -6.4161106e-04
  -3.4542615e-04  -2.6266344e-04  -4.0641549e-04  -4.2161896e-04  -2.9108854e-04  -2.1649011e-04  -2.8164763e-04  -3.0413162e-04  -4.3141111e-04  -3.7320566e-04  -5.3854787e-04  -6.8513025e-04  -3.1762160e-04  -2.0806424e-04  -7.8324752e-05  -3.6191379e-04  -3.5669896e-04  -2.5668825e-04  -4.0200198e-04  -2.5529836e-04   2.4823716e-04   5.6992489e-05  -3.4862422e-04  -5.7924038e-04  -2.8888462e-04  -1.4826539e-04  -1.6999063e-04  -2.2107617e-04  -3.6447874e-04  -2.1242775e-04  -4.2111639e-04  -3.9590010e-04  -4.3730441e-04  -5.6610949e-04  -6.1599036e-05  -1.3480484e-04  -2.0358198e-04  -4.0926773e-04  -2.5098905e-04  -2.8016829e-04  -1.9973546e-04  -3.1000737e-04  -5.7279563e-04  -4.7970674e-04  -2.1752904e-04  -1.8945512e-04  -5.9684151e-04  -4.1468668e-04  -1.9727270e-04  -7.0050173e-04
  -3.6183142e-04  -2.7968103e-04  -3.8644418e-04  -3.4807730e-04  -2.4678101e-04  -1.4567762e-04  -1.7949136e-04  -2.4543481e-04  -3.0312131e-04  -1.9633403e-04  -5.0063658e-04  -4.8626409e-04  -2.8245797e-04  -1.8132270e-04  -2.6084943e-05  -3.2159433e-04  -3.1135796e-04  -2.3276119e-04  -1.3559216e-04  -1.5999339e-04   3.4788996e-04   1.8059391e-04  -1.9126698e-04  -3.0486300e-04  -1.3782040e-04   4.1866651e-06  -1.4409097e-04  -1.0975596e-04  -1.9839227e-04  -9.6414609e-05  -2.0637970e-04  -2.3524053e-04  -1.7952276e-04  -3.5154447e-04   8.2964099e-05   3.5081266e-05  -8.0201346e-05  -1.9063536e-04  -3.4938636e-05  -9.5319228e-05   1.8893576e-05  -1.4499796e-04  -3.0316884e-04  -2.8811174e-04  -4.7536461e-05  -5.8395992e-05  -3.9282316e-04  -2.6941829e-04  -3.8334020e-04  -5.8686751e-04
  -2.2316450e-04  -1.3035972e-04  -3.2774391e-04  -3.1203663e-04  -2.0296713e-04  -1.1384603e-04  -1.4763132e-04  -2.0189022e-04  -2.6664152e-04  -1.5771069e-04  -4.5317219e-04  -4.6963443e-04  -2.1463344e-04  -1.2610188e-04  -2.5133084e-05  -2.8682308e-04  -2.8020114e-04  -1.8487264e-04  -9.3317161e-05  -1.4839799e-04   3.4394165e-04   1.6911994e-04  -2.1134423e-04  -3.4208217e-04  -1.5292915e-04  -2.7720776e-06  -1.1728237e-04  -1.2803130e-04  -1.8301012e-04  -1.0356913e-04  -2.6221460e-04  -2.5205282e-04  -2.2897679e-04  -4.1409567e-04   5.4421947e-05   1.6527712e-06  -1.1732511e-04  -2.3330942e-04  -9.1048569e-05  -1.5317257e-04   3.1040618e-06  -1.6898703e-04  -3.8644252e-04  -3.4182673e-04  -2.0612705e-04  -7.6517565e-05  -4.5673663e-04  -3.4764718e-04  -4.4028903e-04  -6.5503502e-04
  -3.2039150e-04  -2.3421386e-04  -4.1915715e-04  -4.1176949e-04  -2.8786907e-04  -2.2074189e-04  -2.6861779e-04  -3.3640562e-04  -3.5923909e-04  -3.6718094e-04  -5.2934111e-04  -6.5258302e-04  -2.9905917e-04  -2.0945938e-04  -9.0062880e-05  -3.7691742e-04  -3.6870487e-04  -2.5863471e-04  -3.7821892e-04  -2.8317235e-04   2.4031801e-04   2.5013016e-05  -3.2997743e-04  -5.6907407e-04  -2.9275409e-04  -1.5967499e-04  -1.7448462e-04  -2.3499747e-04  -3.1790737e-04  -2.0996932e-04  -3.9680651e-04  -3.8636680e-04  -4.5686102e-04  -6.0938974e-04  -7.9819765e-05  -1.2766237e-04  -2.0784959e-04  -4.1534129e-04  -2.4796068e-04  -3.4821586e-04  -2.1169052e-04  -3.2304408e-04  -5.7139952e-04  -4.9088983e-04  -2.8770906e-04  -2.7552698e-04  -6.1983761e-04  -4.8742298e-04  -4.6284503e-04  -8.6091767e-04
  -4.5544226e-04  -3.7113667e-04  -4.5988828e-04  -4.1599941e-04  -2.7787429e-04  -1.8261852e-04  -2.5113771e-04  -2.9908202e-04  -3.2892596e-04  -2.2097364e-04  -5.1331805e-04  -4.8611587e-04  -2.8132106e-04  -2.0554394e-04  -4.0516519e-05  -3.4216820e-04  -3.4445318e-04  -2.3988618e-04  -1.6612270e-04  -1.8947534e-04   3.2403527e-04   1.4287249e-04  -1.9323852e-04  -3.3095319e-04  -1.4186421e-04  -3.3558670e-05  -9.7185155e-05  -1.2901619e-04  -1.9972173e-04  -1.1170291e-04  -2.5262404e-04  -2.6492585e-04  -1.7930327e-04  -3.7798178e-04   6.8747868e-05   3.4545068e-05  -1.0699561e-04  -2.2694217e-04  -3.7256665e-05  -1.3698539e-04  -1.2786833e-06  -1.3429056e-04  -3.1625730e-04  -2.8211891e-04  -8.5611209e-05  -2.1329721e-04  -4.0176543e-04  -2.9782433e-04  -3.4121686e-04  -6.6580949e-04
  -2.2679669e-04  -1.0567610e-04  -3.4820588e-04  -3.0872892e-04  -2.0362192e-04  -1.1409795e-04  -1.6689773e-04  -2.1003035e-04  -2.9727523e-04  -1.5223736e-04  -4.3262268e-04  -4.6066972e-04  -2.0365536e-04  -1.4099483e-04  -3.4807836e-05  -2.8302331e-04  -2.9892314e-04  -1.5341039e-04  -3.0314596e-04  -1.7089114e-04   3.3220640e-04   1.4253819e-04  -1.7091399e-04  -3.4097140e-04  -1.3792299e-04  -1.5948221e-05  -1.2830958e-04  -1.2432206e-04  -1.7564163e-04  -1.0124747e-04  -2.2047039e-04  -2.7366739e-04  -2.6521221e-04  -4.3904741e-04   5.0388870e-05   4.3294212e-06  -1.0654966e-04  -2.5390132e-04  -4.5683249e-05  -1.5901020e-04  -3.0609568e-05  -1.7442669e-04  -3.8380481e-04  -3.2510067e-04  -2.0195307e-04  -1.1654328e-04  -4.6742189e-04  -3.4025585e-04  -3.6693952e-04  -7.9504441e-04
  -3.1497027e-04  -2.2822167e-04  -4.4082195e-04  -4.0980332e-04  -2.7512826e-04  -2.1031511e-04  -2.8672008e-04  -3.0960838e-04  -3.5932602e-04  -3.3548547e-04  -5.2919844e-04  -6.2444172e-04  -2.8398747e-04  -2.0228169e-04  -8.3231578e-05  -3.6078977e-04  -3.8877965e-04  -2.3362157e-04  -4.3628368e-04  -2.9060623e-04   2.3633504e-04  -7.8482290e-06  -3.3423811e-04  -5.6080683e-04  -2.6897629e-04  -1.8026617e-04  -1.3923609e-04  -2.2023184e-04  -2.9198179e-04  -2.1186823e-04  -4.1404585e-04  -4.0247562e-04  -4.6699203e-04  -6.3258148e-04  -7.8988553e-05  -1.3211329e-04  -2.0515692e-04  -4.1234144e-04  -2.2206416e-04  -3.1768100e-04  -2.1899211e-04  -3.3180052e-04  -6.1398483e-04  -5.8617105e-04  -2.3920427e-04  -3.9894527e-04  -6.1809830e-04  -5.0924142e-04  -4.0153184e-04  -8.8087196e-04
  -5.4282689e-04  -4.6562220e-04  -5.9616368e-04  -5.5220001e-04  -3.9210651e-04  -3.2298380e-04  -4.0847852e-04  -4.7032337e-04  -3.8412792e-04  -3.7467014e-04  -6.2666048e-04  -6.9142104e-04  -3.5089848e-04  -2.7678299e-04  -9.5166506e-05  -3.9084116e-04  -4.0255216e-04  -2.7511470e-04  -3.2357758e-04  -2.4802878e-04   2.8412582e-04   6.9876136e-05  -2.6057291e-04  -4.1202374e-04  -1.6053458e-04  -7.9274891e-05  -1.2435045e-04  -1.3628199e-04  -2.8891989e-04  -1.2979361e-04  -2.8726680e-04  -3.1113697e-04  -2.5640769e-04  -4.8005203e-04   2.9446353e-05  -6.6413195e-06  -1.1097678e-04  -2.1296523e-04  -3.9356248e-05  -1.7642557e-04  -3.4270186e-05  -1.7679606e-04  -3.7027418e-04  -3.1920336e-04  -1.1917322e-04  -2.5987226e-04  -4.0772848e-04  -2.8353583e-04   4.4321550e-05  -8.3400711e-04
  -2.1636098e-04  -1.0867763e-04  -3.8684055e-04  -3.0718389e-04  -2.0616087e-04  -1.0400684e-04  -1.7153111e-04  -2.2586454e-04  -2.3558398e-04  -1.8470624e-04  -4.6327617e-04  -4.5307519e-04  -2.2186479e-04  -1.6754415e-04  -3.5370424e-05  -3.0596464e-04  -3.2028419e-04  -2.0063447e-04  -2.9090996e-04  -1.9456395e-04   3.2367621e-04   1.1674339e-04  -2.3448399e-04  -3.7164628e-04  -1.5331138e-04  -4.6026140e-05  -9.0306363e-05  -1.1596372e-04  -1.9710444e-04  -1.0749206e-04  -2.6839651e-04  -2.7767982e-04  -2.6845763e-04  -4.6514749e-04   3.9385603e-05   1.2262952e-05  -1.0989470e-04  -2.4034131e-04  -4.5844907e-05  -1.6837611e-04  -6.3916850e-05  -2.0156203e-04  -4.1584318e-04  -3.6311932e-04  -1.3552576e-04  -1.9336600e-04  -4.5382048e-04  -3.6205800e-04  -1.7249728e-04  -7.1187597e-04
  -2.9187003e-04  -2.0875104e-04  -4.5175283e-04  -4.0906630e-04  -2.6422465e-04  -1.8670307e-04  -2.6661798e-04  -3.2403838e-04  -4.4198966e-04  -3.1258789e-04  -5.1622040e-04  -5.8266788e-04  -2.7912052e-04  -2.1610702e-04  -8.1083548e-05  -3.7200560e-04  -3.7725607e-04  -2.3515192e-04  -3.6780254e-04  -2.8789436e-04   2.4843044e-04   8.6912596e-06  -3.4722692e-04  -5.8185338e-04  -2.6453947e-04  -1.8105813e-04  -1.7544370e-04  -2.2251690e-04  -3.0005455e-04  -2.0846965e-04  -3.9909547e-04  -3.8471562e-04  -4.6495581e-04  -6.3072925e-04  -9.2811482e-05  -1.2024538e-04  -2.0265798e-04  -3.8617366e-04  -2.3041894e-04  -3.3548792e-04  -2.0657219e-04  -3.4129972e-04  -6.2827847e-04  -4.9234013e-04  -4.0278668e-04  -4.4114914e-04  -6.0496293e-04  -5.2196946e-04  -5.2064942e-04  -1.0003148e-03
  -5.1945064e-04  -4.3862234e-04  -6.2660547e-04  -5.5199367e-04  -4.1958774e-04  -3.6054480e-04  -4.5878222e-04  -5.1674026e-04  -5.8449805e-04  -5.9939548e-04  -6.8730715e-04  -8.3288940e-04  -4.4057122e-04  -3.5703831e-04  -1.9507007e-04  -4.9604254e-04  -5.1202648e-04  -3.5944986e-04  -5.0553778e-04  -3.9165196e-04   1.9091656e-04  -7.2293580e-05  -4.6756916e-04  -6.7274435e-04  -3.6819029e-04  -3.0768180e-04  -1.7735625e-04  -2.4024006e-04  -3.4094803e-04  -2.2450089e-04  -3.8401302e-04  -3.8072714e-04  -3.2949707e-04  -5.8908080e-04  -3.2720596e-05  -6.5785003e-05  -1.6786650e-04  -2.8639569e-04  -9.3255963e-05  -2.6861927e-04  -1.0267406e-04  -2.5391733e-04  -4.6727541e-04  -4.6270702e-04  -1.1384585e-04  -3.0839760e-04  -4.6428936e-04  -3.5544584e-04  -3.6602834e-04  -7.0633198e-04
  -2.6184873e-04  -1.6416388e-04  -4.2175254e-04  -3.2287234e-04  -2.3086020e-04  -1.2549815e-04  -1.6846198e-04  -2.3896847e-04  -3.1337587e-04  -1.7885618e-04  -4.9566524e-04  -4.2013673e-04  -2.4300604e-04  -2.0531050e-04  -6.0835049e-05  -3.4046260e-04  -3.4823426e-04  -2.2191739e-04  -3.6910892e-04  -2.2060412e-04   2.9932547e-04   8.7389009e-05  -2.3833835e-04  -4.1569144e-04  -1.9963911e-04  -1.1049373e-04  -1.8260028e-04  -1.6470687e-04  -2.1687424e-04  -1.3574085e-04  -2.9850486e-04  -3.0234459e-04  -2.8064719e-04  -5.3681602e-04  -7.1901377e-06  -2.3975708e-05  -1.2086880e-04  -2.4398803e-04  -8.9268455e-05  -2.4312877e-04  -1.1419837e-04  -2.3009638e-04  -4.5188045e-04  -4.4987645e-04  -1.1263548e-04  -2.9685243e-04  -4.3747236e-04  -3.6943576e-04   4.5867946e-05  -6.9623999e-04
  -2.9366507e-04  -1.9796065e-04  -4.5671128e-04  -3.8024690e-04  -2.5476789e-04  -1.6624357e-04  -2.3054618e-04  -2.9424831e-04  -2.8255163e-04  -2.7813221e-04  -5.2084902e-04  -5.3527759e-04  -2.7930789e-04  -2.1251269e-04  -1.1489334e-04  -3.6041779e-04  -3.6852635e-04  -2.1808727e-04  -4.1503488e-04  -2.5696569e-04   2.7916708e-04   3.5101802e-05  -3.5719990e-04  -5.5161817e-04  -2.7025663e-04  -1.8322429e-04  -2.0328329e-04  -2.0752334e-04  -2.1938788e-04  -1.8869762e-04  -3.8569904e-04  -3.7225199e-04  -4.3213245e-04  -6.5088854e-04  -7.4799995e-05  -1.1468946e-04  -1.7124863e-04  -3.7764426e-04  -2.0743882e-04  -3.3048893e-04  -2.0120814e-04  -3.2774347e-04  -5.9088407e-04  -5.2787503e-04  -2.1092643e-04  -3.9964411e-04  -5.7674007e-04  -4.5054045e-04  -5.7277764e-04  -7.9836533e-04
  -4.6242631e-04  -3.9589201e-04  -5.8964541e-04  -5.1345472e-04  -3.8273586e-04  -3.2073460e-04  -4.0215533e-04  -4.4677447e-04  -5.8558985e-04  -5.3136598e-04  -6.6058693e-04  -7.7802455e-04  -4.2627964e-04  -3.4884881e-04  -2.0467886e-04  -4.8184497e-04  -4.7941046e-04  -3.3475255e-04  -6.1932934e-04  -4.0685289e-04   1.4369533e-04  -1.3112729e-04  -5.0532271e-04  -7.7946641e-04  -4.3918454e-04  -3.6196978e-04  -2.5808584e-04  -3.1992092e-04  -3.7950507e-04  -2.8533471e-04  -4.3995786e-04  -4.2387820e-04  -4.0001713e-04  -6.7879539e-04  -1.0269747e-04  -1.3993242e-04  -2.1289823e-04  -3.1972837e-04  -1.2768156e-04  -2.8930386e-04  -1.4109611e-04  -2.7040136e-04  -4.4895426e-04  -5.1150826e-04  -2.5773037e-04  -1.8347354e-04  -4.7219510e-04  -3.3275090e-04  -2.3929270e-04  -7.9904881e-04
  -2.7004853e-04  -1.9676954e-04  -4.4270884e-04  -3.2883053e-04  -2.3667747e-04  -1.3478928e-04  -1.6664318e-04  -2.6042212e-04  -3.6136710e-04  -1.8464224e-04  -5.2433670e-04  -4.4567502e-04  -2.7361402e-04  -2.0912783e-04  -9.2613431e-05  -3.3513035e-04  -3.2692499e-04  -2.1702032e-04  -2.9982504e-04  -2.1757038e-04   2.8358868e-04   8.2144194e-05  -2.6137533e-04  -4.0501702e-04  -2.1942171e-04  -8.9803711e-05  -2.1566823e-04  -1.8194779e-04  -1.8411312e-04  -1.3051812e-04  -3.2951706e-04  -3.0904516e-04  -2.9218380e-04  -5.5669225e-04  -2.1188886e-05  -3.3218726e-05  -1.4153420e-04  -2.2735597e-04  -9.4101844e-05  -2.4404509e-04  -2.6921769e-05  -2.1692715e-04  -3.9327535e-04  -4.7095932e-04  -2.0785989e-04  -2.3968525e-04  -4.4183686e-04  -2.8796904e-04  -1.5137946e-04  -5.1536539e-04
  -2.9524459e-04  -2.2606403e-04  -4.3563943e-04  -3.5630571e-04  -2.6004156e-04  -1.8199503e-04  -2.0666183e-04  -2.6327398e-04  -2.6927950e-04  -2.7757269e-04  -5.4805737e-04  -5.4783543e-04  -2.8220157e-04  -2.1815528e-04  -1.0369268e-04  -3.4241533e-04  -3.6080292e-04  -2.3388528e-04  -4.0742711e-04  -2.6707695e-04   2.2063273e-04   1.2034867e-05  -3.4727313e-04  -5.3314929e-04  -2.5340854e-04  -1.4398572e-04  -1.9608450e-04  -2.0049013e-04  -2.6345754e-04  -1.4367279e-04  -3.8127942e-04  -3.5818198e-04  -4.0531077e-04  -6.3017500e-04  -7.2843752e-05  -7.6897544e-05  -1.6376884e-04  -3.2846513e-04  -1.5666564e-04  -2.9178674e-04  -1.2203176e-04  -2.8705801e-04  -5.0311215e-04  -5.0159526e-04  -3.3144260e-04  -3.2471668e-04  -5.4587360e-04  -3.8775551e-04  -5.2798062e-04  -6.3660787e-04
  -4.5878830e-04  -4.0217853e-04  -5.7304127e-04  -4.9554690e-04  -3.8444938e-04  -3.0823323e-04  -3.7242324e-04  -4.2030468e-04  -5.5338838e-04  -5.0965417e-04  -6.6855823e-04  -7.7529525e-04  -4.2515673e-04  -3.3130043e-04  -1.8763599e-04  -4.5801306e-04  -4.6290222e-04  -3.2754769e-04  -6.2856934e-04  -4.1822609e-04   1.0378956e-04  -1.4812575e-04  -4.9743504e-04  -7.7045657e-04  -4.1055243e-04  -3.0829242e-04  -2.3144126e-04  -2.9819433e-04  -3.5049161e-04  -2.3073715e-04  -4.2252065e-04  -4.0078475e-04  -3.8896830e-04  -6.4940838e-04  -7.0603572e-05  -8.2351347e-05  -1.9595465e-04  -2.3040969e-04  -5.3282904e-05  -2.2230817e-04  -4.0980252e-05  -2.1709195e-04  -3.4198258e-04  -4.4597397e-04  -1.1495438e-04  -1.5395541e-04  -4.6462961e-04  -2.4015966e-04  -8.9081412e-05  -4.3071259e-04
  -2.4016111e-04  -1.9612533e-04  -3.8333060e-04  -2.7493190e-04  -2.3047744e-04  -1.1607237e-04  -1.1430892e-04  -2.1839529e-04  -2.2386631e-04  -1.4979432e-04  -5.1632611e-04  -4.2637117e-04  -2.5193626e-04  -1.7432186e-04  -5.8310739e-05  -2.9574760e-04  -2.8525697e-04  -1.7743799e-04  -2.0431899e-04  -2.0909907e-04   2.5057449e-04   9.3145907e-05  -2.0677211e-04  -3.5701468e-04  -1.5511438e-04  -1.5371974e-05  -1.4225836e-04  -1.2115743e-04  -1.4294172e-04  -5.4816297e-05  -2.5581391e-04  -2.7534855e-04  -2.8619097e-04  -4.7608139e-04   4.2694955e-05   2.3370354e-05  -1.1863108e-04  -1.9624615e-04  -2.4548362e-05  -1.5552931e-04   6.2641535e-05  -1.4152675e-04  -2.6005562e-04  -3.7520289e-04  -2.2417605e-04  -7.2895527e-05  -4.1002885e-04  -2.0119744e-04  -4.7739022e-04  -6.2114891e-04
  -2.6628535e-04  -2.1153475e-04  -3.9621102e-04  -3.1637764e-04  -2.5275981e-04  -1.4488459e-04  -1.4567796e-04  -2.0780441e-04  -2.3532752e-04  -2.4309906e-04  -5.3662033e-04  -5.3528784e-04  -2.6167071e-04  -1.6091017e-04  -6.7583336e-05  -2.9764342e-04  -3.0342213e-04  -1.6891562e-04  -2.3663629e-04  -2.5663606e-04   1.8415842e-04   1.7253042e-05  -2.6826520e-04  -4.4176279e-04  -2.1959290e-04  -5.1545714e-05  -1.3279293e-04  -1.5798854e-04  -2.1943777e-04  -8.1786558e-05  -3.4694164e-04  -3.1486654e-04  -3.8322993e-04  -5.5061386e-04  -9.9727185e-06  -2.6234877e-05  -1.4801348e-04  -2.8229869e-04  -8.4984567e-05  -2.1953795e-04  -1.3300940e-05  -2.0469201e-04  -3.5795695e-04  -5.1367952e-04  -2.2747663e-04  -1.1602802e-04  -5.3014030e-04  -3.1082809e-04  -3.5406335e-04  -6.8362092e-04
  -4.4206445e-04  -4.1073869e-04  -5.1231630e-04  -4.5751463e-04  -3.7242210e-04  -2.8972921e-04  -3.1575019e-04  -3.8466713e-04  -3.8284372e-04  -4.9016310e-04  -6.4824056e-04  -7.5923459e-04  -3.9566131e-04  -2.8850388e-04  -1.4053802e-04  -4.2427637e-04  -4.1253274e-04  -2.9479325e-04  -5.5305619e-04  -4.1463037e-04   4.7438338e-05  -1.7785488e-04  -4.5106752e-04  -6.7744090e-04  -3.5897124e-04  -2.4402021e-04  -1.8790719e-04  -2.8641475e-04  -3.4735561e-04  -1.9676609e-04  -4.6086634e-04  -4.4758880e-04  -4.9514009e-04  -6.9267623e-04  -9.2927483e-05  -1.3156721e-04  -2.2149297e-04  -3.0022208e-04  -8.6615837e-05  -2.5547011e-04   2.5203324e-05  -1.8613356e-04  -2.7893117e-04  -5.0350110e-04  -1.2727134e-04  -4.6025852e-05  -4.4988858e-04  -1.6081368e-04  -4.6868845e-05  -4.9401814e-04
  -2.5119138e-04  -2.1860457e-04  -3.4780515e-04  -2.5406427e-04  -2.4117500e-04  -1.1473633e-04  -8.8130633e-05  -1.7051937e-04  -2.0518515e-04  -1.3442898e-04  -5.0879846e-04  -4.2548976e-04  -2.3732867e-04  -1.4994622e-04  -1.7884435e-05  -2.6803566e-04  -2.4854025e-04  -1.5894657e-04  -1.6079731e-04  -1.9842898e-04   2.2132123e-04   8.4551706e-05  -1.3801127e-04  -2.4673683e-04  -8.6245207e-05   5.1659150e-05  -8.1443184e-05  -7.4588410e-05  -4.4180379e-05   3.1624563e-06  -2.1777737e-04  -2.1053517e-04  -2.0782325e-04  -3.8284395e-04   8.7570879e-05   6.9488691e-05  -6.3609848e-05  -1.3420280e-04   7.5450364e-05  -7.4554184e-05   8.0294412e-05  -9.4291339e-05  -1.6891498e-04  -3.6771447e-04  -2.0299145e-04   7.7979901e-05  -3.6555354e-04  -1.0558694e-04  -2.2388739e-04  -4.6636621e-04
  -2.1056106e-04  -1.6677837e-04  -3.1480426e-04  -2.5224491e-04  -2.1633861e-04  -1.1740625e-04  -1.2831939e-04  -1.7835319e-04  -2.1524994e-04  -1.8456213e-04  -4.3408162e-04  -4.5717327e-04  -2.0330863e-04  -1.2149118e-04  -1.1646336e-05  -2.4556811e-04  -2.1415525e-04  -1.3108215e-04  -2.8579484e-04  -2.1779264e-04   2.0130385e-04   4.0682738e-05  -1.8786651e-04  -3.2668299e-04  -1.2421540e-04   1.2274853e-05  -6.8054629e-05  -9.7697623e-05  -9.8147895e-05  -3.2173979e-05  -2.3666427e-04  -2.2815318e-04  -2.9381469e-04  -4.5075954e-04   5.1443974e-05   2.6329597e-05  -9.6412812e-05  -1.9449352e-04  -6.6987027e-06  -1.4331893e-04   6.6141547e-05  -1.1008313e-04  -2.6099721e-04  -4.8942445e-04  -2.1604946e-04  -2.9060751e-05  -4.4490583e-04  -2.1219165e-04  -3.0339151e-04  -6.6541479e-04
  -3.4287799e-04  -3.3084967e-04  -4.1084894e-04  -3.9538991e-04  -3.2483070e-04  -2.3980046e-04  -2.5458084e-04  -3.1274580e-04  -3.6992869e-04  -4.0509159e-04  -5.4742210e-04  -6.7166099e-04  -3.0984261e-04  -2.0369379e-04  -6.8636560e-05  -3.4952065e-04  -3.3201408e-04  -2.3563165e-04  -5.3352397e-04  -3.5361538e-04   6.8868714e-05  -1.3985288e-04  -3.5434973e-04  -5.5869832e-04  -2.6002168e-04  -1.4540757e-04  -1.2325539e-04  -2.1660005e-04  -2.5657262e-04  -1.3798004e-04  -3.8429874e-04  -3.8959220e-04  -5.1173876e-04  -6.3496747e-04  -5.3476506e-05  -1.0582827e-04  -2.0103100e-04  -3.6854169e-04  -1.4668847e-04  -3.0830322e-04  -1.1167928e-04  -2.4065166e-04  -3.9095597e-04  -4.9330207e-04  -2.2012023e-04  -5.6290605e-06  -4.5372549e-04  -1.8826859e-04  -3.8562875e-04  -4.8468815e-04
  -2.3340530e-04  -2.0510422e-04  -3.1824314e-04  -2.5074009e-04  -2.2149459e-04  -9.6532749e-05  -1.0110040e-04  -1.7268836e-04  -1.8040009e-04  -1.6455483e-04  -4.5020194e-04  -4.2106642e-04  -1.9174156e-04  -1.3147094e-04   4.7653211e-06  -2.4781053e-04  -2.1744985e-04  -1.4508564e-04  -2.3207089e-04  -1.7873661e-04   1.9443652e-04   6.9968388e-05  -1.1848052e-04  -2.0562048e-04  -5.7162692e-05   7.3907278e-05  -3.8663908e-05  -4.9836915e-05  -7.2385483e-05   3.0149315e-05  -1.0284008e-04  -1.6923567e-04  -1.5141253e-04  -3.1917851e-04   1.4280537e-04   1.1285681e-04  -3.1970980e-05  -8.5529900e-05   1.1617395e-04  -5.0007973e-05   1.5258088e-04  -2.6124111e-05  -1.0755818e-04  -3.8000778e-04  -1.1841029e-04   4.5151159e-05  -3.3213655e-04  -1.3050674e-04  -1.2461995e-04  -4.8426859e-04
  -1.5776236e-04  -1.2198698e-04  -2.4753384e-04  -2.1493956e-04  -1.7353297e-04  -6.0591701e-05  -7.1302486e-05  -9.4621158e-05  -1.0184971e-04  -1.2949739e-04  -3.8791436e-04  -3.9237828e-04  -1.3610969e-04  -5.2910756e-05   4.2358271e-05  -1.9735369e-04  -1.5847727e-04  -8.3313047e-05  -2.4852142e-04  -1.7365809e-04   1.7937245e-04   4.8247286e-05  -9.9599893e-05  -2.1716974e-04  -6.2589177e-05   8.0044963e-05  -8.7213621e-06  -5.4815635e-05  -2.6509990e-05   2.5372212e-05  -1.1616429e-04  -1.7801639e-04  -1.8447563e-04  -3.9061464e-04   1.1101503e-04   8.5611762e-05  -3.4122178e-05  -1.3669285e-04   7.5997719e-05  -1.1323689e-04   9.5420823e-05  -8.2195955e-05  -1.6776159e-04  -4.1843567e-04  -5.0149982e-05  -9.1902897e-05  -4.0008794e-04  -1.5582128e-04  -5.4399867e-04  -4.4977697e-04
  -2.5782947e-04  -2.2605041e-04  -3.3440045e-04  -3.3157406e-04  -2.5449440e-04  -1.6833673e-04  -2.0642714e-04  -2.4363896e-04  -2.0164548e-04  -2.9745555e-04  -4.5071973e-04  -5.6457019e-04  -2.1272262e-04  -1.2011010e-04  -2.1455317e-05  -3.0923396e-04  -2.5881492e-04  -1.5222964e-04  -4.0987082e-04  -2.8900566e-04   7.8986333e-05  -8.7696775e-05  -2.6540735e-04  -4.3357234e-04  -2.0474063e-04  -7.4759395e-05  -7.9633908e-05  -1.6048316e-04  -1.5260049e-04  -9.1438618e-05  -2.5609872e-04  -3.2167693e-04  -3.8866352e-04  -5.2824180e-04  -3.2918872e-06  -4.0070634e-05  -1.4999889e-04  -3.1725399e-04  -7.0457623e-05  -2.4058447e-04  -2.2909153e-05  -2.0096615e-04  -3.7877331e-04  -5.3095154e-04  -3.1573209e-04  -1.7386947e-04  -5.3967116e-04  -2.9023143e-04  -3.3308964e-04  -6.2064297e-04
  -3.7353847e-04  -3.6910520e-04  -3.6185107e-04  -3.2872401e-04  -2.5716054e-04  -1.3195668e-04  -1.3131218e-04  -2.0689792e-04  -7.8994563e-05  -1.7998611e-04  -4.4995273e-04  -4.2483144e-04  -2.0318129e-04  -1.0684674e-04   3.4109722e-05  -2.7086903e-04  -2.2819758e-04  -1.5275044e-04  -2.2947558e-04  -2.1152232e-04   1.3024968e-04   1.9944715e-05  -9.4302748e-05  -1.9893632e-04  -5.1247658e-05   7.3563475e-05  -4.3283628e-05  -4.8253478e-05  -4.8774393e-05   2.3284379e-05  -9.2303708e-05  -1.6278469e-04  -1.2540743e-04  -3.2093603e-04   1.3155620e-04   1.1298284e-04  -2.6825997e-05  -7.2016446e-05   1.3298049e-04  -3.9055769e-05   1.6682618e-04  -1.2284531e-05  -8.5442523e-05  -3.5291648e-04  -6.3123189e-05   4.0352511e-06  -3.0300935e-04  -8.1603313e-05  -6.2407111e-05  -3.5156324e-04
  -1.2087338e-04  -8.0598322e-05  -2.3327301e-04  -2.1146849e-04  -1.6658443e-04  -5.1729086e-05  -6.4273241e-05  -1.0534596e-04  -1.6774332e-04  -9.0180532e-05  -3.2548304e-04  -3.4342663e-04  -1.0770994e-04  -3.9961858e-05   4.0065283e-05  -2.1006925e-04  -1.4468617e-04  -6.7590619e-05  -2.1017720e-04  -1.7248494e-04   1.6506741e-04   3.3765875e-05  -6.3542255e-05  -1.4373308e-04  -8.1918979e-06   7.7694909e-05  -3.0680856e-06  -2.8316288e-05  -8.6679647e-06   2.6897162e-05  -6.2325518e-05  -1.2632180e-04  -1.7167800e-04  -3.3810324e-04   1.0182555e-04   9.1689901e-05  -1.8442213e-05  -1.1826564e-04   9.9061319e-05  -7.8097793e-05   1.0404938e-04  -8.0435188e-05  -1.8438554e-04  -3.6259444e-04  -1.6700930e-04  -6.8385605e-05  -3.4083860e-04  -1.5588172e-04  -5.1387371e-05  -4.8064339e-04
  -1.9085106e-04  -1.4566231e-04  -2.7918327e-04  -3.0277847e-04  -2.0985850e-04  -1.3670854e-04  -1.6809115e-04  -1.7739234e-04  -2.0913839e-04  -2.5081518e-04  -3.5912963e-04  -4.5931910e-04  -1.5124981e-04  -1.0577679e-04  -1.0415280e-05  -2.8092825e-04  -2.2306148e-04  -1.2766950e-04  -4.6586309e-04  -2.6373949e-04   7.9659934e-05  -8.9934852e-05  -1.7136168e-04  -3.2032511e-04  -1.5074851e-04  -8.1691942e-05  -4.5088556e-05  -1.2991428e-04  -1.0875719e-04  -7.3093841e-05  -2.0425778e-04  -2.7240012e-04  -3.2280467e-04  -4.8846367e-04   3.4052647e-08  -3.0570372e-05  -1.0587727e-04  -2.8233306e-04  -3.4457407e-05  -2.4237920e-04  -8.6679400e-05  -2.1941830e-04  -3.9584993e-04  -5.0365331e-04  -2.1074261e-04  -2.6909099e-04  -4.9532187e-04  -3.1183290e-04  -1.5110412e-04  -6.9551141e-04
  -3.6975177e-04  -3.3994202e-04  -3.7090282e-04  -3.7827308e-04  -2.5734663e-04  -1.5286182e-04  -1.7248421e-04  -2.2139987e-04  -1.9439613e-04  -1.8117001e-04  -3.8576178e-04  -3.8621618e-04  -1.6091763e-04  -1.0368624e-04   2.8712031e-05  -2.5240469e-04  -1.8835645e-04  -1.4321285e-04  -2.6266879e-04  -1.7595901e-04   1.4678384e-04   2.3019591e-05  -1.0159930e-04  -1.5072837e-04  -2.9303468e-05   3.6547026e-05  -1.1053589e-05  -3.3316039e-05  -1.6322319e-05   1.4743042e-05  -4.0414430e-05  -1.3514685e-04  -9.6803335e-05  -2.9300951e-04   1.2604182e-04   9.4472467e-05  -2.8204436e-06  -7.0755588e-05   1.5656526e-04  -1.3905938e-05   8.1469159e-05  -6.1711653e-05  -1.4839813e-04  -3.2507139e-04  -1.4049276e-04  -1.0448219e-04  -2.6443158e-04  -1.1286599e-04  -2.7188609e-04  -4.1856646e-04
  -5.6100998e-05  -2.1053986e-06  -2.0135063e-04  -1.7659395e-04  -1.1156970e-04  -2.2822487e-05  -3.3784232e-05  -8.7042274e-05  -1.4551180e-04  -9.2402806e-05  -2.6033045e-04  -2.7007543e-04  -4.3611508e-05  -2.5543335e-05   6.4501946e-05  -1.6466861e-04  -1.1688428e-04  -5.7167588e-05  -3.6915203e-04  -1.5569142e-04   1.7099570e-04   3.1928961e-05  -2.0026921e-05  -1.4517781e-04   2.7559545e-06   7.9507685e-05   3.0439714e-05  -1.0733215e-05   2.1811462e-05   4.9973838e-05  -2.3502736e-05  -1.0323514e-04  -1.2967779e-04  -2.8069783e-04   1.2513340e-04   1.0687020e-04   5.9916183e-06  -7.1074559e-05   1.2604156e-04  -4.7706973e-05   8.7599314e-05  -8.2889783e-05  -2.0894896e-04  -3.7351393e-04  -1.8343580e-04  -1.2666227e-04  -3.1357646e-04  -1.7330215e-04   1.6081238e-05  -4.5062747e-04
  -1.3361410e-04  -9.0570240e-05  -2.5530221e-04  -2.6690794e-04  -1.6665536e-04  -6.5683234e-05  -1.1529102e-04  -1.4885399e-04  -1.7467646e-04  -2.2505963e-04  -3.2517462e-04  -4.0368544e-04  -1.1620951e-04  -7.9551974e-05   2.3678094e-05  -2.4528100e-04  -1.9236497e-04  -1.0868072e-04  -3.9700346e-04  -2.5127322e-04   9.1419068e-05  -8.5405540e-05  -1.4673553e-04  -3.4318180e-04  -1.3942177e-04  -5.7133584e-05   1.4344737e-05  -9.9630699e-05  -5.4665619e-05  -6.0242568e-05  -1.3795860e-04  -2.2944488e-04  -3.2539479e-04  -4.3676535e-04   9.0546007e-07  -2.7156721e-05  -1.0240642e-04  -2.3055846e-04  -5.3484353e-05  -1.7762851e-04  -4.6387115e-05  -1.9701940e-04  -3.9038251e-04  -4.6373025e-04  -2.0921955e-04  -2.5140340e-04  -4.8253467e-04  -3.1834780e-04  -5.7834142e-05  -8.0045534e-04
  -3.2995330e-04  -3.2759830e-04  -4.2374039e-04  -4.3272396e-04  -3.1476383e-04  -2.2589479e-04  -3.0262076e-04  -3.3514443e-04  -3.3944275e-04  -4.3639450e-04  -4.8507284e-04  -6.4205786e-04  -2.5404635e-04  -1.9066063e-04  -6.0282193e-05  -3.3194968e-04  -2.8717419e-04  -1.8714447e-04  -4.1214880e-04  -2.7504249e-04   7.2906223e-05  -5.9719092e-05  -1.1929136e-04  -2.5393922e-04  -6.9435562e-05  -3.0788495e-05   2.2774805e-06  -5.2913238e-05  -3.6914040e-05  -1.7788607e-05  -6.8548448e-05  -1.6990486e-04  -1.3322102e-04  -3.3219252e-04   1.0292629e-04   5.9412461e-05  -4.1739091e-05  -9.5625554e-05   1.1455399e-04  -2.5792544e-05   6.8454698e-05  -9.6731994e-05  -1.8681947e-04  -3.1624871e-04  -1.3994407e-04  -1.9170177e-05  -3.2040957e-04  -1.0853806e-04  -5.4596661e-04  -4.3392324e-04
  -4.5089819e-05  -1.8434941e-05  -1.9394061e-04  -1.4679626e-04  -1.0278710e-04   3.9510291e-05   2.0500845e-05  -5.5195775e-05  -1.4878367e-04  -6.2819643e-05  -2.9140172e-04  -2.5617355e-04  -5.0225462e-05  -5.3690937e-06   9.7181779e-05  -1.7240383e-04  -1.5090365e-04  -5.8152567e-05  -2.2816732e-04  -1.8699118e-04   1.3404500e-04   4.5338006e-06  -1.2853905e-05  -1.6294938e-04   9.1610018e-06   1.0221907e-04   2.7438143e-06   1.4392779e-05   3.2331936e-05   6.2338993e-05  -8.3703326e-06  -8.7308828e-05  -1.1322929e-04  -3.2097253e-04   1.5485441e-04   1.1668698e-04  -7.7034309e-07  -7.7616773e-05   1.7066934e-04  -3.0202067e-05   1.4575380e-04  -5.0837243e-05  -1.3572120e-04  -3.3804952e-04  -1.0790076e-04  -1.0160924e-04  -3.4727823e-04  -1.2115071e-04  -2.2211498e-04  -4.9148715e-04
  -9.6132630e-05  -7.8231104e-05  -2.4932020e-04  -2.3632392e-04  -1.4442236e-04  -2.7020867e-05  -6.8768932e-05  -1.0106334e-04  -2.1012011e-04  -1.9445769e-04  -3.4516625e-04  -3.8280804e-04  -8.6630287e-05  -3.5879035e-05   8.2985374e-05  -2.1423322e-04  -1.9168931e-04  -8.8422188e-05  -3.4920467e-04  -2.5766934e-04   6.8384579e-05  -8.9263427e-05  -1.0039755e-04  -2.9077978e-04  -6.7142508e-05   2.9216089e-05   1.8398063e-05  -4.7958085e-05  -5.1252649e-05  -8.9244850e-06  -1.4378912e-04  -1.9190021e-04  -2.9342461e-04  -4.4015367e-04   7.5826312e-05   2.1692726e-05  -6.9111789e-05  -1.9922576e-04   1.1098628e-05  -1.3624231e-04   4.2652868e-05  -1.6664228e-04  -2.8074859e-04  -4.1174810e-04  -2.4056039e-04  -2.0024451e-04  -4.6827627e-04  -1.9856407e-04  -4.9937272e-04  -6.0932315e-04
  -2.9929471e-04  -3.0553929e-04  -4.1023982e-04  -4.0889726e-04  -2.9551730e-04  -1.8350031e-04  -2.5911632e-04  -2.9238628e-04  -2.9747834e-04  -4.3640379e-04  -4.9544964e-04  -6.3313986e-04  -2.5495607e-04  -1.8347774e-04  -8.1874332e-06  -3.4404313e-04  -3.3454681e-04  -2.2554296e-04  -5.8776431e-04  -4.2806740e-04  -5.3543150e-05  -2.6031397e-04  -3.0120765e-04  -5.4373278e-04  -2.0491752e-04  -1.6794926e-04  -5.1918789e-05  -1.7215291e-04  -2.3086753e-04  -1.3535362e-04  -2.6023871e-04  -3.1105662e-04  -3.6234016e-04  -5.1962829e-04   3.0212645e-05  -3.1376137e-05  -1.1746759e-04  -1.7177884e-04   7.1460468e-05  -1.1645562e-04   7.9090234e-05  -1.4152472e-04  -1.8534368e-04  -3.7694428e-04  -1.9421779e-04  -1.3164199e-04  -3.8226412e-04  -1.1073491e-04  -4.2802683e-04  -3.4121197e-04
  -1.1172426e-04  -1.0775145e-04  -2.7749140e-04  -2.1760901e-04  -1.6016005e-04   8.9008417e-06  -1.6087448e-05  -8.2003920e-05  -9.2358845e-05  -9.4903618e-05  -3.5809536e-04  -2.8988210e-04  -8.3285173e-05  -4.5903951e-05   1.2028081e-04  -2.1137635e-04  -2.0675991e-04  -1.0301334e-04  -2.9213511e-04  -2.2105218e-04   1.2714032e-04  -1.2817220e-06  -5.5140903e-05  -1.3283957e-04   5.1667124e-05   9.3814284e-05   1.8293922e-05   1.5927879e-05   2.9161680e-05   5.8468173e-05  -6.8059329e-05  -1.4035312e-04  -1.6736552e-04  -3.1020376e-04   1.6538001e-04   9.7185788e-05  -1.4515703e-06  -9.1236347e-05   1.3488017e-04  -2.0788053e-05   7.5397285e-05  -7.5693242e-05  -1.3501124e-04  -3.9715553e-04  -1.3568973e-04  -1.3312112e-04  -3.2641867e-04  -1.1633759e-04  -4.1473968e-04  -5.8157439e-04
  -8.9295965e-05  -6.9360285e-05  -2.7959209e-04  -2.3975287e-04  -1.4721772e-04  -1.8410763e-05  -6.7885361e-05  -1.1311834e-04  -6.3641928e-05  -1.6658302e-04  -3.2619218e-04  -3.3331240e-04  -6.8923684e-05  -4.1224372e-05   8.6792628e-05  -2.1009866e-04  -2.1933753e-04  -1.0744785e-04  -4.0819315e-04  -2.6300712e-04   9.7425713e-05  -6.6826025e-05  -1.2238267e-04  -2.6823365e-04  -3.5199278e-05   9.3026365e-06   1.0606338e-05  -3.9640370e-05  -1.6016247e-05   6.6694111e-06  -1.5625959e-04  -1.7746130e-04  -2.4772578e-04  -4.1743793e-04   9.1747803e-05   4.0249583e-05  -5.3087697e-05  -1.6739803e-04   3.9271075e-05  -1.1442670e-04  -1.0078351e-05  -1.5392998e-04  -3.1790251e-04  -4.5754371e-04  -1.4818125e-04  -2.7202300e-04  -4.3127348e-04  -2.0771637e-04  -2.0929478e-04  -7.1794848e-04
  -2.6708192e-04  -2.5191743e-04  -4.1677602e-04  -3.9083447e-04  -2.6424640e-04  -1.6116916e-04  -2.4388517e-04  -2.5398165e-04  -3.4200191e-04  -4.0508545e-04  -4.5894479e-04  -5.5389304e-04  -2.1054168e-04  -1.5227769e-04   6.9746434e-06  -3.4586430e-04  -3.3763624e-04  -2.3628931e-04  -6.5649941e-04  -4.0533405e-04  -1.4720496e-05  -2.1151932e-04  -3.1588553e-04  -5.1942130e-04  -1.7393832e-04  -1.5459704e-04  -5.2284566e-05  -1.5246401e-04  -2.2879569e-04  -1.2832160e-04  -3.4015716e-04  -3.6030405e-04  -5.1429280e-04  -6.1918021e-04  -2.7071233e-05  -1.0322682e-04  -1.6352219e-04  -3.8874126e-04  -1.0738599e-04  -3.0176717e-04  -1.3591611e-04  -2.8537921e-04  -4.6388191e-04  -5.2661478e-04  -2.7856001e-04  -3.1061427e-04  -4.9567904e-04  -1.8397614e-04  -1.0355890e-04  -6.4610911e-04
  -1.8794331e-04  -1.7703421e-04  -3.4910624e-04  -2.6499666e-04  -1.8870948e-04  -4.4404820e-05  -9.8305056e-05  -1.5993757e-04  -1.3892882e-04  -1.9871775e-04  -3.9861014e-04  -3.4079875e-04  -1.4475218e-04  -1.2205436e-04   6.8965390e-05  -2.8454731e-04  -2.6714060e-04  -1.8816550e-04  -3.8711826e-04  -2.7212079e-04   1.1207125e-04  -4.5352928e-05  -1.0812087e-04  -2.1860597e-04  -7.4298246e-06   1.0596993e-05   2.4891227e-05  -2.0702731e-05  -3.4823206e-05   6.5224863e-06  -1.2372115e-04  -1.6725001e-04  -2.0193512e-04  -3.5934022e-04   1.1549884e-04   7.3023730e-05  -1.6730708e-05  -1.1022063e-04   1.0156033e-04  -9.7848933e-05   6.0947364e-06  -1.2153022e-04  -2.2461358e-04  -4.8762621e-04  -1.5927755e-04  -2.2675093e-04  -3.5960716e-04  -1.3048633e-04  -3.1798074e-04  -5.3836685e-04
  -1.4801775e-04  -1.1199845e-04  -3.2330173e-04  -2.5862359e-04  -1.7949948e-04  -4.4682572e-05  -1.1267224e-04  -1.1870277e-04  -1.5945800e-04  -2.1103636e-04  -3.6239772e-04  -3.2801894e-04  -1.0274083e-04  -8.5611544e-05   7.5854536e-05  -2.4654166e-04  -2.4873161e-04  -1.6034397e-04  -2.9618348e-04  -2.8398281e-04   1.1143325e-04  -6.1452825e-05  -1.3130486e-04  -2.7246616e-04  -4.7835398e-05  -2.7595044e-05  -3.2917744e-06  -3.4982790e-05  -5.2219504e-05  -1.7353515e-05  -2.0105676e-04  -2.0471054e-04  -2.8798849e-04  -4.0816699e-04   7.3514704e-05   2.0924321e-05  -5.2290343e-05  -1.7899529e-04   2.5129362e-05  -1.6566907e-04  -7.0156016e-06  -1.6451546e-04  -3.0914196e-04  -4.8627856e-04  -2.4606122e-04  -4.4891753e-04  -4.2037092e-04  -2.0155817e-04  -1.4722471e-04  -6.2336231e-04
  -2.7147814e-04  -2.4651299e-04  -4.2591093e-04  -3.8283429e-04  -2.6968043e-04  -1.4661666e-04  -2.3564321e-04  -2.6294027e-04  -2.9265249e-04  -4.0132247e-04  -4.6939246e-04  -5.3865358e-04  -2.1658931e-04  -1.8435626e-04  -5.7752350e-06  -3.4118447e-04  -3.4931276e-04  -2.5079923e-04  -6.9848861e-04  -4.0893615e-04   4.3596697e-06  -2.1132575e-04  -3.0356878e-04  -5.0575676e-04  -1.9286526e-04  -1.8085291e-04  -5.8134596e-05  -1.5921734e-04  -2.0249464e-04  -1.3398724e-04  -3.8980937e-04  -3.6619420e-04  -5.0885283e-04  -6.0385326e-04  -6.1339051e-05  -1.2143044e-04  -1.6367853e-04  -3.9271903e-04  -1.5169312e-04  -3.5142060e-04  -1.9384733e-04  -3.2151668e-04  -5.1662780e-04  -5.8565108e-04  -3.1307718e-04  -4.3564013e-04  -5.0686765e-04  -2.5605375e-04  -6.0115202e-04  -4.8784303e-04
  -2.3195462e-04  -2.0820112e-04  -3.7565688e-04  -2.8283120e-04  -2.0320241e-04  -5.7681802e-05  -1.1025988e-04  -1.8994414e-04  -2.8213725e-04  -2.3255224e-04  -4.1881885e-04  -3.3192598e-04  -1.5005503e-04  -1.3492782e-04   8.1520615e-05  -2.8481815e-04  -2.8963466e-04  -2.2010221e-04  -3.4181337e-04  -2.8419285e-04   1.2329804e-04  -4.5239845e-05  -1.1301834e-04  -2.2380966e-04  -9.5417163e-06  -2.3120774e-05   3.1945703e-05  -2.3151984e-05  -4.4584071e-05  -5.1118154e-06  -2.0094827e-04  -1.7969646e-04  -2.0674329e-04  -3.7176034e-04   1.2659671e-04   5.8650432e-05  -2.4112924e-05  -1.0704317e-04   9.1027061e-05  -9.6308817e-05  -1.0139531e-06  -1.1248099e-04  -2.0730660e-04  -4.1761622e-04  -2.3471545e-04  -4.1355385e-04  -3.5199811e-04  -1.4472179e-04  -2.1972446e-06  -5.3980720e-04
  -1.5710019e-04  -1.1143678e-04  -3.3367157e-04  -2.5037414e-04  -1.7040579e-04  -5.0263709e-05  -9.9575591e-05  -1.3155158e-04  -1.3082899e-04  -2.4655901e-04  -3.7042610e-04  -3.1756482e-04  -9.9837511e-05  -9.6705022e-05   7.7366007e-05  -2.3716186e-04  -2.4869890e-04  -1.5207654e-04  -3.7931756e-04  -2.9160181e-04   1.3307401e-04  -5.1997496e-05  -1.3641530e-04  -2.4513277e-04  -2.0897216e-05  -4.1122163e-05   2.9402556e-05  -4.5605790e-05  -1.7322371e-05  -2.2308766e-05  -2.1648087e-04  -1.9514415e-04  -2.9097009e-04  -4.2477873e-04   8.0311103e-05   6.7938518e-06  -5.0507508e-05  -1.5845441e-04   1.5371801e-05  -1.6673972e-04  -2.9490095e-05  -1.7646306e-04  -3.2322924e-04  -4.2385975e-04  -2.2218391e-04  -3.9881645e-04  -4.0545993e-04  -1.9931846e-04  -5.1593798e-04  -6.8766944e-04
  -2.6947435e-04  -2.3713319e-04  -4.0438102e-04  -3.7094505e-04  -2.5149740e-04  -1.6003051e-04  -2.2507389e-04  -2.5616179e-04  -4.2534620e-04  -4.4870574e-04  -4.6674142e-04  -5.2722445e-04  -2.0170613e-04  -1.8990671e-04   1.6179146e-06  -3.3691511e-04  -3.4592941e-04  -2.4005001e-04  -5.6772068e-04  -4.1767961e-04   4.0118957e-05  -1.9371101e-04  -2.6936975e-04  -5.0003483e-04  -1.6886448e-04  -2.0819072e-04  -5.1610805e-05  -1.7224897e-04  -1.9923046e-04  -1.5027715e-04  -4.0030593e-04  -3.5091638e-04  -5.2375515e-04  -6.0566515e-04  -6.4518586e-05  -1.4357423e-04  -1.7238867e-04  -3.6154795e-04  -1.6157504e-04  -3.3286758e-04  -2.4034416e-04  -3.2976753e-04  -5.3292484e-04  -6.2274543e-04  -3.4682592e-04  -5.7620747e-04  -5.7522889e-04  -3.4568249e-04  -5.3440849e-04  -7.5121195e-04
  -4.5011257e-04  -4.4160360e-04  -5.0044322e-04  -4.3582291e-04  -3.0558734e-04  -1.8810596e-04  -2.4185708e-04  -3.1841727e-04  -3.5503932e-04  -3.5887794e-04  -4.9815961e-04  -4.4968582e-04  -2.1879708e-04  -2.1175072e-04   4.4731383e-05  -3.2780704e-04  -3.4962787e-04  -2.6192042e-04  -3.4219655e-04  -3.4050760e-04   1.2196528e-04  -7.8737583e-05  -1.8469810e-04  -2.8205529e-04  -4.0585503e-05  -1.0372138e-04   2.9744819e-05  -6.3937907e-05  -1.2256688e-04  -5.8948739e-05  -2.3147675e-04  -2.2897085e-04  -2.5143617e-04  -4.3237116e-04   6.2125720e-05   8.6087857e-06  -6.6509383e-05  -1.5239643e-04   5.4725992e-05  -1.3983287e-04  -9.7750250e-05  -1.5979612e-04  -2.3992624e-04  -5.3694512e-04  -1.2771584e-04  -3.9363571e-04  -3.2195065e-04  -1.3019706e-04  -2.1094033e-04  -5.1672844e-04
  -1.5669597e-04  -8.6253407e-05  -2.9972818e-04  -2.4201565e-04  -1.7841888e-04  -5.8384852e-05  -7.1601367e-05  -1.3237035e-04  -2.4733396e-04  -2.6313259e-04  -3.8863902e-04  -3.4462943e-04  -1.1297173e-04  -1.2961026e-04   6.9057860e-05  -2.5830654e-04  -2.6027247e-04  -1.5774234e-04  -3.0710798e-04  -2.7255560e-04   1.5687860e-04  -3.2870299e-05  -1.3453528e-04  -2.6171768e-04  -3.2509881e-06  -7.6125514e-05   1.9152492e-05  -5.1148607e-05  -4.7536138e-05  -4.4948938e-05  -2.3470249e-04  -1.8796646e-04  -2.7620216e-04  -4.8687879e-04   5.6528002e-05   4.5200359e-06  -5.9181748e-05  -1.9785229e-04   2.8377754e-06  -1.9437996e-04  -1.0665708e-04  -1.9105303e-04  -3.0952459e-04  -5.0929043e-04  -1.7987483e-04  -3.7270351e-04  -3.7025346e-04  -1.8536834e-04  -2.4548161e-04  -5.3350005e-04
  -2.0866169e-04  -1.8808631e-04  -3.5700560e-04  -3.2759996e-04  -2.2971052e-04  -1.3508025e-04  -1.9238444e-04  -2.4127979e-04  -3.2891374e-04  -4.3638740e-04  -4.3577471e-04  -4.7193898e-04  -1.8339258e-04  -1.8800658e-04   1.9334582e-05  -3.3116189e-04  -3.3145092e-04  -2.0783213e-04  -4.8170195e-04  -3.7773466e-04   8.0543694e-05  -1.5490266e-04  -2.9348931e-04  -4.4427186e-04  -1.4562144e-04  -2.1185270e-04  -2.5617232e-05  -1.4998029e-04  -1.9199650e-04  -1.4338798e-04  -3.6321901e-04  -3.2432255e-04  -4.7872987e-04  -6.0666702e-04  -6.2627252e-05  -1.3717741e-04  -1.6120539e-04  -3.4044919e-04  -1.4812317e-04  -3.4939783e-04  -2.9211113e-04  -3.2213287e-04  -5.2338833e-04  -6.2246376e-04  -2.3702608e-04  -5.1615521e-04  -5.3354941e-04  -3.2698878e-04  -3.8413188e-04  -7.6446007e-04
  -4.6090511e-04  -4.1539953e-04  -5.0489459e-04  -4.8459158e-04  -3.6782789e-04  -2.9697487e-04  -3.6115616e-04  -3.9965517e-04  -4.9804460e-04  -6.1153225e-04  -5.7614857e-04  -6.7774707e-04  -3.0956513e-04  -3.1125423e-04  -5.0966857e-05  -3.9037492e-04  -3.7263072e-04  -2.8054911e-04  -4.1738746e-04  -3.7252449e-04   1.2665665e-04  -9.4886433e-05  -2.2199724e-04  -3.0081751e-04  -6.6487897e-05  -1.7952731e-04  -4.0720479e-06  -9.1049289e-05  -1.5824994e-04  -1.0348095e-04  -2.8706339e-04  -2.5988152e-04  -3.0570512e-04  -4.6343010e-04   7.0967212e-06  -3.2660002e-05  -1.0071228e-04  -1.8467518e-04  -1.2518360e-05  -2.0253628e-04  -1.5409752e-04  -2.2624753e-04  -3.2836356e-04  -4.9786310e-04  -1.4885691e-04  -5.7794631e-04  -3.0320266e-04  -1.6179781e-04  -3.9850411e-04  -5.1929604e-04
  -1.3950953e-04  -7.2114271e-05  -2.4131758e-04  -2.0721297e-04  -1.5542633e-04  -4.2346441e-05  -4.6729292e-05  -1.4448463e-04  -2.3286387e-04  -2.8633224e-04  -3.7261634e-04  -2.9315270e-04  -1.3066390e-04  -1.6064098e-04   5.6927820e-05  -2.6049869e-04  -2.5903559e-04  -1.5439944e-04  -3.6143081e-04  -2.8461526e-04   1.8185354e-04  -3.9720137e-05  -1.3603749e-04  -2.7677231e-04  -2.8474573e-05  -1.1186553e-04   2.7921303e-06  -4.8469803e-05  -2.9044601e-05  -6.2491687e-05  -2.4619035e-04  -1.9279895e-04  -2.9007989e-04  -4.3804178e-04   3.7547212e-05  -2.3465846e-05  -7.0146954e-05  -1.8059790e-04   5.8597686e-07  -1.9257440e-04  -1.0578252e-04  -1.8553219e-04  -3.3401849e-04  -4.9267174e-04  -1.7686885e-04  -4.6848450e-04  -3.2692755e-04  -1.6402231e-04  -4.4368385e-04  -5.3335342e-04
  -2.1387977e-04  -1.5310787e-04  -2.8284136e-04  -2.8069894e-04  -1.9905659e-04  -1.0446798e-04  -1.4603017e-04  -2.0827157e-04  -3.8027816e-04  -4.0117250e-04  -4.2496505e-04  -4.2552032e-04  -1.6980742e-04  -1.8747908e-04   2.1312177e-05  -3.0390598e-04  -2.9849031e-04  -1.6510181e-04  -4.5757098e-04  -3.5575789e-04   1.3827055e-04  -1.1822658e-04  -2.3044426e-04  -4.4704956e-04  -1.0806546e-04  -2.0516201e-04  -5.0307728e-05  -1.1656183e-04  -1.7375835e-04  -1.3054819e-04  -3.5715758e-04  -2.7904252e-04  -4.5678462e-04  -5.6791998e-04  -4.9898495e-05  -1.2330025e-04  -1.4258112e-04  -3.0267827e-04  -1.1286607e-04  -3.0231720e-04  -2.8399174e-04  -3.1161230e-04  -4.8530879e-04  -4.9165235e-04  -2.7942978e-04  -6.9214276e-04  -4.5720636e-04  -2.6948823e-04  -3.5346168e-04  -6.7277672e-04
  -4.1823438e-04  -3.6642293e-04  -4.2665948e-04  -4.3843582e-04  -3.3369826e-04  -2.6807384e-04  -3.4461770e-04  -3.9226853e-04  -5.5271358e-04  -6.7096273e-04  -5.5616850e-04  -6.7380100e-04  -3.2646890e-04  -3.2633360e-04  -9.0324305e-05  -4.1723947e-04  -3.8996761e-04  -2.6621047e-04  -4.1419867e-04  -4.0326783e-04   1.2826023e-04  -1.4173260e-04  -2.9494709e-04  -4.2926782e-04  -1.3534162e-04  -2.4865751e-04  -6.4165826e-05  -1.0959416e-04  -1.1879192e-04  -1.4004596e-04  -2.9466269e-04  -2.4899145e-04  -3.2086906e-04  -4.7058502e-04  -4.0135478e-06  -6.1998398e-05  -1.1636286e-04  -1.9696567e-04   2.4215609e-05  -2.1762351e-04  -2.2669868e-04  -2.3246917e-04  -3.2110902e-04  -4.2499256e-04  -1.0262350e-04  -4.2657708e-04  -3.0503524e-04  -1.6015692e-04  -1.4605751e-04  -5.6281092e-04
  -1.3194067e-04  -7.6835058e-05  -2.0779416e-04  -1.9258393e-04  -1.4059035e-04  -4.1153799e-05  -6.0629587e-05  -1.5276471e-04  -2.1794274e-04  -2.7812459e-04  -3.5611648e-04  -2.7238429e-04  -1.3505877e-04  -1.6880292e-04   2.8478416e-05  -2.5982317e-04  -2.4095520e-04  -1.3543894e-04  -2.1656667e-04  -2.7199535e-04   2.2014066e-04  -2.4944160e-05  -1.4368027e-04  -3.1684747e-04   7.6871593e-06  -1.2727641e-04  -4.6064408e-05  -5.9182428e-05  -3.2565364e-05  -7.5691154e-05  -2.0084094e-04  -1.6084965e-04  -2.6445935e-04  -4.0631334e-04   2.7866070e-05  -2.0974891e-05  -7.0786875e-05  -1.7482447e-04   1.5028866e-05  -1.5902832e-04  -1.6290361e-04  -2.0375628e-04  -3.0357123e-04  -4.1986967e-04  -1.8378143e-04  -3.4186128e-04  -3.1588299e-04  -1.5486604e-04  -1.5809992e-04  -4.1271216e-04
  -1.7501017e-04  -1.2553456e-04  -2.0752494e-04  -2.5736316e-04  -1.7516331e-04  -1.0552184e-04  -1.1545140e-04  -2.0338425e-04  -3.0305976e-04  -3.6365716e-04  -3.7144878e-04  -3.8998379e-04  -1.7181410e-04  -1.9636046e-04   7.2765320e-06  -2.8439015e-04  -2.5223539e-04  -1.6682052e-04  -2.8319511e-04  -3.0861754e-04   1.8777896e-04  -8.4755484e-05  -2.0352070e-04  -4.1459073e-04  -1.0958310e-04  -1.9517876e-04  -4.3475695e-05  -1.2604144e-04  -1.2096551e-04  -1.4046811e-04  -2.7708840e-04  -2.4534509e-04  -4.1384785e-04  -5.1280140e-04  -6.0397229e-05  -1.1966078e-04  -1.5064202e-04  -2.8241263e-04  -1.3284912e-04  -2.5119155e-04  -2.4568712e-04  -3.0794778e-04  -4.6883541e-04  -4.9587345e-04  -1.8045647e-04  -5.9114106e-04  -4.3972256e-04  -2.5956309e-04  -4.2556519e-05  -5.1387906e-04
  -3.7929413e-04  -3.2932244e-04  -3.6305375e-04  -4.2378015e-04  -3.0821096e-04  -2.5065310e-04  -3.1045207e-04  -3.6952583e-04  -4.2849485e-04  -6.0897908e-04  -5.2198436e-04  -6.3910824e-04  -3.0392941e-04  -3.1303603e-04  -8.1692880e-05  -3.9628247e-04  -3.4887641e-04  -2.4630310e-04  -3.6762672e-04  -3.7475699e-04   1.5158167e-04  -1.1602719e-04  -2.6892300e-04  -4.2250141e-04  -1.2596833e-04  -2.4706608e-04  -3.9300015e-05  -1.0218738e-04  -1.1909741e-04  -1.4031869e-04  -2.0707538e-04  -2.1986023e-04  -2.6752576e-04  -4.0803137e-04   2.9544142e-05  -4.5384040e-05  -1.0615875e-04  -1.7560765e-04   1.5710861e-05  -1.6862940e-04  -2.0841531e-04  -2.1086849e-04  -3.0366704e-04  -4.3139645e-04  -2.8212204e-05  -2.4228985e-04  -2.7727851e-04  -1.1592944e-04  -1.5579441e-04  -3.9649277e-04
  -9.8323129e-05  -3.3952703e-05  -1.3341579e-04  -1.5857177e-04  -1.0664162e-04  -7.5104790e-06  -1.4904282e-05  -1.2209608e-04  -1.6656255e-04  -1.8861124e-04  -2.8462592e-04  -2.2104723e-04  -1.0288286e-04  -1.4139935e-04   6.4160246e-05  -2.1074123e-04  -1.7581275e-04  -1.0855223e-04  -2.5847350e-04  -2.1674421e-04   2.5065729e-04   6.4348806e-06  -9.5029405e-05  -2.3771866e-04   3.6309382e-05  -9.6633710e-05  -1.7913089e-06  -3.1172469e-05   5.7382626e-06  -7.0495327e-05  -1.4836276e-04  -1.1688659e-04  -2.1746565e-04  -3.3944895e-04   4.4028056e-05  -8.6092505e-06  -5.6368041e-05  -1.2240429e-04   3.7787067e-05  -1.2104120e-04  -1.4245737e-04  -1.5850640e-04  -2.7424924e-04  -3.7317022e-04  -1.0428231e-04  -2.6825009e-04  -2.5392990e-04  -1.3271165e-04  -9.9863901e-05  -3.4811115e-04
