  -3.0496814e-05  -2.6632258e-04   8.9114095e-05  -2.7894479e-04  -5.8588589e-06  -4.4504408e-04  -5.9527712e-04  -4.6367533e-04  -4.9235520e-04  -1.0337781e-03  -4.8941416e-05  -2.3005430e-04  -3.7980461e-04  -5.7994644e-04  -5.8826589e-04  -2.3927480e-04  -4.8670961e-05  -4.3351421e-04  -6.4069044e-04  -1.4233835e-04   1.3600390e-03   9.3918631e-04  -7.0455763e-04  -9.2311972e-04  -6.1156688e-04  -7.4999547e-04  -2.2865698e-04  -4.5737575e-04  -7.0514833e-04  -8.8554888e-04  -3.3605268e-04  -3.6662599e-04  -2.7875896e-04  -4.1077370e-04  -6.4873038e-04  -2.3005389e-04  -1.6777903e-04  -4.9411866e-04  -3.2855451e-04  -2.9784438e-04  -9.0499426e-04  -7.2832877e-04  -3.5097016e-04  -1.0731054e-04   5.5154297e-04   3.0681508e-04   2.9659108e-04   6.7752590e-05   1.4644577e-03   1.4142160e-03
   1.8433662e-04  -4.6292775e-05   2.4590199e-04  -2.8069833e-05   1.4029932e-04  -2.1974754e-04  -3.2653115e-04  -2.5754317e-04  -2.8363796e-04  -6.7676132e-04   1.0112280e-04   1.4409389e-04  -2.1406790e-04  -4.3935719e-04  -4.6983460e-04  -8.1085214e-05   1.2882614e-04  -3.0162011e-04  -2.2123245e-04   9.7298915e-05   1.5268147e-03   1.1693955e-03  -3.9207056e-04  -4.8177078e-04  -3.4051464e-04  -4.2726306e-04  -1.4041858e-04  -2.7095183e-04  -4.2288582e-04  -6.5627741e-04  -9.6847492e-05  -1.2678813e-04  -2.9756808e-05  -1.2711095e-04  -4.7785355e-04  -3.4576940e-05  -9.4430552e-06  -3.2389702e-04  -2.0230500e-04  -1.6385406e-04  -7.7304145e-04  -6.3531293e-04  -2.7649177e-04   8.9293288e-05   5.4038205e-04   5.2236271e-04   3.6038196e-04   5.8416466e-05   1.5232887e-03   1.5435851e-03
   1.8927644e-04  -3.9039907e-05   2.6095982e-04  -4.1650175e-05   1.4329037e-04  -2.4059178e-04  -3.5815377e-04  -2.3336246e-04  -4.0458806e-04  -7.6459284e-04   9.0878770e-05   5.1426850e-05  -2.2185608e-04  -4.1745292e-04  -4.6339197e-04  -7.1936352e-05   1.1809346e-04  -2.7589392e-04  -2.9971692e-04   3.7172489e-05   1.4508956e-03   1.0715212e-03  -4.4700445e-04  -5.8273709e-04  -3.9034637e-04  -4.7785722e-04  -1.3141765e-04  -2.8303495e-04  -4.6357099e-04  -6.9571397e-04  -1.5892865e-04  -1.9331955e-04  -1.1945199e-04  -1.9947399e-04  -5.0717447e-04  -1.1103445e-04  -6.0603554e-05  -3.9717372e-04  -2.7744568e-04  -2.5553533e-04  -7.8586256e-04  -6.8817881e-04  -3.8734704e-04   1.3737674e-05   5.2933465e-04   2.2578322e-04   2.6839040e-04  -4.3862576e-05   1.3499891e-03   1.2106686e-03
  -1.8930006e-05  -2.7399437e-04   1.2639495e-04  -2.3511473e-04  -8.0382988e-06  -4.1183969e-04  -5.3563080e-04  -3.9537248e-04  -5.0284842e-04  -1.0242334e-03  -7.2345400e-05  -2.2821626e-04  -3.5699835e-04  -5.2027364e-04  -5.2969495e-04  -1.9392422e-04  -4.9948649e-05  -4.0934290e-04  -5.6338817e-04  -1.5380981e-04   1.2788487e-03   8.2362781e-04  -6.5713102e-04  -8.6836232e-04  -5.4836832e-04  -6.5501849e-04  -2.0673442e-04  -4.1545797e-04  -6.4402597e-04  -8.1938854e-04  -3.6164207e-04  -3.8081637e-04  -4.0402080e-04  -3.9919585e-04  -6.2242121e-04  -2.7213315e-04  -1.7055286e-04  -6.3266209e-04  -4.5497224e-04  -4.4209333e-04  -9.3796477e-04  -8.2608609e-04  -5.8731617e-04  -1.4423426e-04   2.4715735e-04   3.8975886e-06   9.8641060e-05  -2.0780496e-04   9.4397430e-04   1.2067988e-03
  -6.7955967e-05  -3.3664529e-04   8.7370223e-05  -1.5572883e-04   2.0647463e-05  -3.0082956e-04  -3.9651245e-04  -3.4461121e-04  -4.1954624e-04  -8.6174556e-04  -9.2764560e-05  -1.8706240e-05  -2.9401112e-04  -4.7938072e-04  -4.4311583e-04  -1.4946537e-04   3.7466100e-06  -3.6098211e-04  -2.7578048e-04  -2.4789866e-05   1.3687896e-03   9.7241520e-04  -4.4574219e-04  -5.7256664e-04  -3.6017669e-04  -4.5040145e-04  -1.6391931e-04  -2.6442792e-04  -5.2655174e-04  -6.4499624e-04  -1.5848452e-04  -2.1174515e-04  -7.8048579e-05  -1.5525160e-04  -4.2528947e-04  -5.3478012e-05  -5.0107181e-05  -3.0170448e-04  -1.5366802e-04  -1.5570983e-04  -6.5293437e-04  -5.7667773e-04  -2.4136576e-04  -5.4275301e-06   5.0342869e-04   3.2183286e-04   3.2207597e-04   6.4819433e-05   1.4024575e-03   1.4480902e-03
   9.5295451e-05  -1.2953927e-04   1.4963247e-04  -1.0108573e-04   8.2683415e-05  -2.6974315e-04  -3.6889937e-04  -2.3786194e-04  -3.7600572e-04  -8.7155786e-04  -4.9571736e-05  -4.3651573e-05  -2.4552832e-04  -4.0383628e-04  -4.1503535e-04  -9.6793585e-05   3.3032571e-05  -2.8302797e-04  -4.3598021e-04  -3.8907830e-05   1.3335011e-03   9.2519773e-04  -4.4293504e-04  -5.5889809e-04  -3.6148741e-04  -4.3046943e-04  -1.3954547e-04  -2.5239176e-04  -4.6313016e-04  -6.3307903e-04  -1.9281778e-04  -2.1567043e-04  -1.4820286e-04  -1.7792045e-04  -4.4677369e-04  -8.1058351e-05  -6.6904810e-05  -3.4397730e-04  -2.3365852e-04  -2.2115659e-04  -6.5451744e-04  -5.9654523e-04  -3.0519656e-04  -4.5090328e-05   4.4171693e-04   3.1061369e-04   2.4751137e-04   2.0095251e-06   1.3209997e-03   1.2118600e-03
  -6.3268731e-06  -2.5808922e-04   5.9601371e-05  -2.0303151e-04  -6.7323854e-06  -3.6987534e-04  -4.8092217e-04  -3.6677509e-04  -5.4984534e-04  -1.0916458e-03  -1.4827673e-04  -2.3510231e-04  -3.2323354e-04  -4.4752346e-04  -4.7258771e-04  -1.8158293e-04  -7.9580896e-05  -3.5158757e-04  -5.5517856e-04  -1.8487617e-04   1.2020805e-03   7.2968286e-04  -5.6468515e-04  -7.8123412e-04  -4.9998000e-04  -5.5969163e-04  -2.1033065e-04  -3.6158523e-04  -5.7140383e-04  -7.4496341e-04  -4.0591715e-04  -3.8234104e-04  -4.0150809e-04  -3.6453299e-04  -5.7374767e-04  -2.3605526e-04  -1.6441423e-04  -5.3908012e-04  -4.2940298e-04  -3.9217583e-04  -7.7653973e-04  -7.2275754e-04  -5.0126488e-04  -1.0654967e-04   2.3933903e-04   4.1195126e-05   1.0955498e-04  -1.7530208e-04   1.1456894e-03   1.2742257e-03
  -1.3606377e-04  -3.9828449e-04   3.2592805e-05  -1.7814629e-04  -1.1451634e-07  -3.4109142e-04  -4.0914078e-04  -3.5612992e-04  -4.5557824e-04  -9.3824428e-04  -1.3941471e-04  -8.2056940e-05  -3.0849039e-04  -4.4452268e-04  -4.3342070e-04  -1.2443072e-04  -5.2318221e-05  -3.3273749e-04  -4.4606300e-04  -1.0311967e-04   1.2637996e-03   8.1997761e-04  -4.4187385e-04  -5.0991512e-04  -3.6796517e-04  -4.1338382e-04  -1.9003029e-04  -2.5963178e-04  -5.0052523e-04  -6.2642532e-04  -2.3004200e-04  -2.3751649e-04  -1.1043262e-04  -1.5101070e-04  -4.2281760e-04  -7.3057832e-05  -6.2244690e-05  -3.2210012e-04  -1.7258350e-04  -1.6737361e-04  -5.2212109e-04  -5.1728345e-04  -1.9273680e-04   2.5175079e-05   3.0512066e-04   3.0041946e-04   3.1615575e-04   4.0020270e-05   1.3727945e-03   1.1930207e-03
   7.3744290e-05  -1.6475473e-04   1.1112991e-04  -1.2057107e-04   6.0718728e-05  -2.8790487e-04  -3.8143797e-04  -2.5513605e-04  -4.3459004e-04  -9.5407572e-04  -1.1077306e-04  -1.0799187e-04  -2.4548717e-04  -3.6604624e-04  -4.0635740e-04  -7.3250536e-05  -1.9404804e-05  -2.6488115e-04  -4.2838766e-04  -1.1476216e-04   1.2292346e-03   7.6389645e-04  -4.1281510e-04  -5.4205669e-04  -3.7584428e-04  -3.9373059e-04  -1.5271820e-04  -2.4466848e-04  -4.3319614e-04  -5.9625338e-04  -2.3990552e-04  -2.3772368e-04  -1.9302664e-04  -1.9700304e-04  -4.0662489e-04  -9.6635551e-05  -7.6365723e-05  -3.5301509e-04  -2.2063311e-04  -2.1853361e-04  -5.6850608e-04  -5.4089644e-04  -2.3325127e-04   4.1207881e-05   4.0404650e-04   8.2602965e-05   2.3369124e-04   2.3797742e-05   1.1498680e-03   1.1577359e-03
  -3.8511473e-05  -2.8371610e-04   1.4567843e-05  -2.2625281e-04  -3.1963573e-05  -3.8353651e-04  -5.0607731e-04  -3.7754292e-04  -5.1915814e-04  -1.1274792e-03  -2.0332061e-04  -3.0999767e-04  -3.3092851e-04  -4.1445770e-04  -4.6285937e-04  -1.4864509e-04  -1.2191702e-04  -3.3870072e-04  -6.8796659e-04  -2.4751676e-04   1.0976790e-03   6.0951867e-04  -5.4579839e-04  -7.7421917e-04  -5.2493438e-04  -5.3307699e-04  -1.8968368e-04  -3.5838145e-04  -5.5532868e-04  -7.0493453e-04  -4.2850498e-04  -3.9129052e-04  -4.4216600e-04  -3.7890711e-04  -5.4309040e-04  -2.5353185e-04  -1.8000751e-04  -5.3545466e-04  -4.2544713e-04  -4.1396733e-04  -6.8213267e-04  -6.5922661e-04  -3.7449200e-04  -7.2421062e-05   2.9520597e-04   1.6503377e-04   2.1989319e-04   4.6150846e-05   1.2675261e-03   1.1042862e-03
   3.2508884e-05  -1.9031418e-04   5.8563288e-05  -7.7390723e-05   5.0068418e-05  -2.3248355e-04  -3.3711758e-04  -2.6203782e-04  -4.3257111e-04  -9.0825598e-04  -1.3178746e-04  -8.1940147e-05  -2.3960475e-04  -3.2292190e-04  -3.5468774e-04  -2.9936093e-05  -3.3859975e-05  -2.7527346e-04  -3.3177977e-04  -8.5373715e-05   1.2105574e-03   7.7776850e-04  -3.3860822e-04  -3.7084796e-04  -2.8564481e-04  -3.0136213e-04  -6.6648521e-05  -1.9020055e-04  -3.9084957e-04  -5.2346254e-04  -1.6134330e-04  -1.5251010e-04  -8.6526648e-05  -9.1538088e-05  -3.4236160e-04  -2.8728946e-05  -1.2112318e-05  -2.2278063e-04  -1.0797202e-04  -1.2654040e-04  -4.4081602e-04  -4.4991248e-04  -5.0867326e-05   1.0050929e-04   3.0559543e-04   3.8866216e-04   3.4932687e-04   1.4894870e-04   1.4664116e-03   1.1485011e-03
   1.1301009e-04  -1.0896933e-04   8.9284353e-05  -6.3616411e-05   8.3652536e-05  -2.1733450e-04  -3.2489089e-04  -2.0206872e-04  -5.5127556e-04  -8.8908465e-04  -6.2227744e-05  -9.0791473e-05  -1.7389546e-04  -2.7860270e-04  -3.0697288e-04   1.4093682e-06   9.9484287e-06  -2.1590483e-04  -2.8344471e-04  -8.7112254e-05   1.1780125e-03   7.3412328e-04  -3.5951965e-04  -4.3910640e-04  -3.1806642e-04  -3.2847995e-04  -6.5954162e-05  -2.0889645e-04  -3.8892124e-04  -5.5160996e-04  -1.8024298e-04  -1.5845196e-04  -1.7106220e-04  -1.2845274e-04  -3.8902235e-04  -1.0057376e-04  -5.5408284e-05  -3.3278536e-04  -2.1985378e-04  -1.7443683e-04  -5.2242138e-04  -4.9702864e-04  -1.8151857e-04   1.2928847e-04   3.0250463e-04   3.4415940e-04   2.4961884e-04   3.2932370e-05   8.2832965e-04   1.0607276e-03
   1.1004468e-06  -2.2968480e-04   1.2092999e-05  -1.8578878e-04  -3.7683958e-06  -3.1656117e-04  -4.6272701e-04  -2.9064371e-04  -5.1916618e-04  -1.0581410e-03  -1.4439580e-04  -2.9604617e-04  -2.5825348e-04  -3.3277879e-04  -3.6511428e-04  -1.0021312e-04  -9.7797747e-05  -2.9027698e-04  -5.8776158e-04  -2.2368897e-04   1.0363894e-03   5.5862498e-04  -5.0672435e-04  -6.5988547e-04  -4.7172801e-04  -4.9500144e-04  -7.1855713e-05  -3.2863513e-04  -4.9074262e-04  -6.6669279e-04  -3.6918343e-04  -3.3227770e-04  -4.0024307e-04  -3.2100716e-04  -4.8407866e-04  -2.4450221e-04  -1.6122129e-04  -4.9598259e-04  -3.6942994e-04  -3.3247241e-04  -5.6991057e-04  -5.3900061e-04  -2.2507629e-04   2.0510815e-05   2.3438359e-04   3.5443780e-04   2.8440088e-04   1.7053030e-04   7.2845112e-04   1.2283640e-03
   1.0559801e-04  -1.0015622e-04   9.4951552e-05  -1.1093812e-05   9.0394635e-05  -1.4317973e-04  -2.3906022e-04  -1.7651718e-04  -2.3270932e-04  -7.8825204e-04  -5.5076169e-05  -3.7023659e-05  -1.0925615e-04  -1.9756876e-04  -2.1805984e-04   5.6824003e-05   2.3949584e-05  -1.9294818e-04  -3.0681686e-04  -1.4929953e-05   1.1871102e-03   7.9019548e-04  -2.2208504e-04  -2.1902975e-04  -2.0525001e-04  -1.9757755e-04   1.4155920e-05  -1.2629290e-04  -2.8763979e-04  -4.3364192e-04  -2.5616640e-05  -6.7341833e-05  -8.1023009e-06   3.2421340e-05  -2.4454968e-04  -4.6731307e-06   1.6171736e-05  -1.6337987e-04  -5.2498042e-05  -1.3977503e-05  -2.7934648e-04  -2.8248189e-04   7.0187532e-05   1.8306948e-04   4.7443630e-04   4.4555581e-04   3.6605221e-04   2.1931503e-04   1.1356469e-03   1.3802999e-03
   1.9202127e-04  -2.2088798e-05   1.3614734e-04   8.7704439e-06   1.4104498e-04  -1.1239936e-04  -2.1012295e-04  -1.3316737e-04  -2.5392423e-04  -7.6085987e-04   1.4949414e-05  -1.4741830e-05  -2.9528048e-05  -1.1647280e-04  -1.8888964e-04   9.0703841e-05   7.6709453e-05  -1.3830386e-04  -2.7230592e-04  -2.2867787e-05   1.1563767e-03   7.3347910e-04  -2.4650909e-04  -2.8373417e-04  -2.3088364e-04  -2.0169064e-04   5.4943754e-05  -1.4160795e-04  -2.4450675e-04  -4.3861559e-04  -4.6018216e-05  -6.7032277e-05  -8.0407641e-05  -3.2168595e-05  -2.7354161e-04  -4.3613483e-05  -3.4081490e-06  -2.1805167e-04  -1.3294689e-04  -5.9368947e-05  -3.2178429e-04  -3.2555309e-04  -2.2754428e-05   1.7446339e-04   3.6469457e-04   3.2724725e-04   2.8959871e-04   1.0766364e-04   1.3971371e-03   1.2535281e-03
   4.7241778e-05  -1.5113266e-04   2.5725329e-05  -1.2706271e-04   4.5420766e-05  -2.2695321e-04  -3.5732880e-04  -2.4429974e-04  -3.7721446e-04  -9.4765361e-04  -5.6945428e-05  -2.0175774e-04  -1.1559799e-04  -2.0237057e-04  -2.5003782e-04  -2.5423726e-05  -2.1170294e-05  -2.2064561e-04  -4.3462336e-04  -1.6248506e-04   1.0346924e-03   5.8172998e-04  -4.0744009e-04  -5.0811964e-04  -3.7654745e-04  -3.8280178e-04  -1.3426632e-06  -2.5375135e-04  -3.9617845e-04  -5.6401559e-04  -2.0460681e-04  -2.0968968e-04  -2.9261044e-04  -2.3701742e-04  -3.9702089e-04  -1.9983527e-04  -1.0723305e-04  -4.1092181e-04  -2.9987106e-04  -1.9921533e-04  -5.2400830e-04  -4.5918781e-04  -2.1082406e-04   7.5478172e-05   3.1558017e-04   3.2380017e-04   2.7964043e-04   1.1453527e-04   1.4010337e-03   1.2275762e-03
   1.4803992e-04  -3.3591390e-05   8.6620203e-05   4.1393436e-05   1.3290448e-04  -6.6687877e-05  -1.7440077e-04  -1.0341011e-04  -2.6217441e-04  -6.8317715e-04   5.0248371e-05   8.7713808e-05   7.7753557e-06  -1.0107666e-04  -1.4548071e-04   9.0217276e-05   1.0706781e-04  -9.6916068e-05  -9.8570577e-05   3.8705959e-05   1.1738342e-03   7.8946183e-04  -1.5839553e-04  -1.1439820e-04  -1.3033494e-04  -1.3120387e-04   9.8147524e-05  -6.2767198e-05  -1.2780844e-04  -3.6782271e-04   1.2147558e-04   6.6506582e-05   9.7778320e-05   1.3850459e-04  -1.9264196e-04   4.4239809e-05   6.8699243e-05   6.4645076e-07   5.0931838e-05   8.7690132e-05  -2.4585208e-04  -2.0504583e-04   1.1096372e-04   2.6930546e-04   4.7436933e-04   5.0774432e-04   4.4844797e-04   2.3767108e-04   1.5563277e-03   1.3386485e-03
   2.9430931e-04   1.0156151e-04   1.9871889e-04   9.2075999e-05   2.2417732e-04  -1.8911360e-05  -1.2453225e-04  -1.3490991e-05  -8.0317717e-05  -6.3989859e-04   1.4440624e-04   1.3474439e-04   1.0127918e-04   7.7518207e-06  -9.8993412e-05   1.5288901e-04   1.6567281e-04  -5.4645032e-05  -1.6339986e-04   5.3559521e-05   1.1364440e-03   7.5293315e-04  -1.5461842e-04  -9.0819281e-05  -1.3647568e-04  -1.0934783e-04   1.4638004e-04  -5.0722287e-05  -1.4418298e-04  -3.4034165e-04   8.0470913e-05   6.3314452e-05  -1.4021476e-05   1.1632674e-04  -2.0405800e-04   1.9168525e-05   6.7091562e-05  -6.8049980e-05  -3.4275672e-05   7.5061253e-05  -2.0323150e-04  -2.1367458e-04   6.6071851e-05   2.9724967e-04   4.0018995e-04   5.0452893e-04   3.9161681e-04   1.9638982e-04   1.1424616e-03   1.2775026e-03
   1.8199123e-04  -3.2685646e-05   1.0308676e-04  -2.2986265e-05   1.3467392e-04  -1.1469758e-04  -2.4238735e-04  -1.3094935e-04  -2.2653847e-04  -8.1075873e-04   5.0682062e-05  -7.5057127e-05   2.0293131e-05  -6.4724125e-05  -1.3459683e-04   7.7542296e-05   5.6331402e-05  -1.3175684e-04  -3.7539733e-04  -8.0724290e-05   1.0026749e-03   5.7824899e-04  -3.0402068e-04  -3.3202814e-04  -2.5462461e-04  -2.4546523e-04   8.7748485e-05  -1.5652512e-04  -2.3474166e-04  -4.5719408e-04  -6.8910485e-05  -7.8830148e-05  -2.2364280e-04  -7.7390869e-05  -3.1945534e-04  -1.0993543e-04  -4.7488840e-05  -2.4150749e-04  -2.0708051e-04  -9.4212046e-05  -3.9352156e-04  -3.3997247e-04  -1.3773127e-04   1.8421434e-04   2.3353088e-04   3.7536403e-04   2.4255890e-04   2.0685839e-06   1.0538448e-03   1.2905729e-03
   8.6150350e-05  -1.1701790e-04   8.3661238e-05   2.3292136e-05   1.6263573e-04  -3.5388166e-05  -1.3310913e-04  -4.6812322e-05  -9.5836976e-06  -6.4382213e-04   8.4569663e-05   1.3376675e-04   6.3010382e-05  -1.8576964e-05  -5.8419177e-05   1.2469289e-04   1.3152514e-04  -9.7898279e-05  -7.4142961e-05   4.2343141e-05   1.0866644e-03   7.2265841e-04  -1.2831549e-04  -3.1605370e-05  -7.0313647e-05  -6.3444852e-05   1.6512834e-04  -4.7777789e-06  -1.1060945e-04  -2.9889037e-04   1.4339268e-04   1.1980564e-04   8.6187341e-05   2.0285173e-04  -1.2088470e-04   9.7114120e-05   1.0307557e-04   8.6234490e-05   1.0542713e-04   2.1632449e-04  -5.4386379e-05  -8.3636376e-05   2.5082557e-04   3.9384232e-04   4.5411513e-04   6.8043201e-04   5.0674035e-04   3.3922761e-04   1.4770444e-03   1.3038223e-03
   3.6252043e-04   1.3019454e-04   2.2124355e-04   1.1793346e-04   2.5481044e-04   4.3200336e-05  -5.3934211e-05   3.7350288e-05   1.9334652e-04  -5.8647618e-04   1.5924430e-04   1.5413569e-04   1.6489787e-04   1.2498391e-04  -1.4455518e-05   2.1467821e-04   1.7980037e-04   8.0994432e-06  -9.3696828e-05   6.1703875e-05   1.0606325e-03   6.8426493e-04  -5.5000804e-05  -7.1797031e-06  -3.4180724e-05   1.8277758e-05   2.1896268e-04   3.2830005e-05  -9.4962224e-06  -2.3863850e-04   1.3862862e-04   1.3695877e-04   4.2437339e-05   2.1723883e-04  -1.2105321e-04   1.0440336e-04   1.1670290e-04   7.2939714e-05   8.6617343e-05   1.5469303e-04  -4.5617140e-05  -3.0883391e-05   2.2242880e-04   3.2861641e-04   3.0171778e-04   5.8148854e-04   4.7500289e-04   3.1666967e-04   1.0865402e-03   1.1781096e-03
   2.5889568e-04   2.3932427e-05   1.6800444e-04   1.8893204e-05   1.9334740e-04  -4.6649628e-05  -1.5302081e-04  -1.0273741e-05   6.2158979e-05  -7.4004452e-04   9.4616495e-05  -8.2832403e-06   1.0072235e-04   7.5305223e-05  -5.2791929e-05   1.3923612e-04   7.8350866e-05  -7.4044772e-05  -3.5447057e-04  -8.0078731e-05   9.0273831e-04   5.0196453e-04  -2.0651541e-04  -1.7625393e-04  -1.8248947e-04  -9.1370217e-05   1.5744139e-04  -4.4290209e-05  -1.5518272e-04  -3.2702796e-04  -4.2199423e-05  -2.3448076e-05  -2.0105498e-04   3.0039360e-05  -1.8503763e-04  -2.7400467e-06   1.9343242e-05  -1.2784945e-04  -6.6776265e-05   7.4029158e-06  -9.2180533e-05  -1.4325095e-04   5.4851764e-05   1.8697522e-04   3.1638629e-04   4.2761376e-04   2.7021774e-04   1.1882994e-04   1.0726583e-03   1.0713814e-03
   3.9420695e-05  -2.0065946e-04   5.5594788e-05  -5.2910425e-05   1.2555737e-04  -5.3860334e-05  -1.2484525e-04  -4.3467866e-05  -1.8710762e-06  -6.6087249e-04   4.2683940e-05   4.6545108e-05   1.0721743e-04   9.3122471e-05   1.0140840e-05   1.6562489e-04   8.5271924e-05  -4.2696240e-05  -1.0314009e-04  -1.5605379e-05   9.3511766e-04   5.7366682e-04  -7.6671211e-05   4.2608677e-05  -3.9850129e-05   4.6697580e-05   2.1840936e-04   6.6048451e-05  -6.7841109e-05  -2.0406619e-04   1.3088631e-04   1.2056896e-04   4.8860584e-05   2.7288593e-04  -2.3999730e-05   1.6360093e-04   1.2427270e-04   1.5759640e-04   2.0184366e-04   2.2020587e-04   1.2589751e-04   1.0724419e-04   3.4889221e-04   3.7279612e-04   4.8408081e-04   5.9188082e-04   5.2588503e-04   4.2474523e-04   1.2309148e-03   1.1471637e-03
   3.4057428e-04   1.5759241e-04   2.3361642e-04   1.3088975e-04   2.6097312e-04   8.7500841e-05   8.2254510e-06   7.7236189e-05   1.7236058e-04  -5.6590437e-04   1.7476523e-04   1.5332860e-04   2.1837077e-04   2.0873907e-04   6.7604669e-05   2.4726719e-04   1.4531308e-04   5.1696436e-05  -1.0204715e-04   5.7319266e-06   9.3663204e-04   5.8294681e-04  -2.5850748e-05   9.3138144e-05   2.5059448e-06   9.5943149e-05   2.9947434e-04   1.0694649e-04   6.7020606e-05  -1.6220701e-04   1.1347194e-04   1.3676251e-04  -1.3704293e-06   2.6972286e-04  -1.2141999e-05   1.5593400e-04   1.6150172e-04   1.2233404e-04   1.6497052e-04   2.2701437e-04   1.4449126e-04   8.2618943e-05   3.0981540e-04   3.1599274e-04   4.3726841e-04   5.3281692e-04   4.4891844e-04   3.3047018e-04   1.1082732e-03   1.0014644e-03
   2.6555252e-04   4.9572904e-05   1.6167118e-04   4.0396815e-05   1.8856626e-04   9.6928716e-06  -6.3713349e-05  -3.9407405e-06  -2.5459351e-05  -7.1877323e-04   7.9247235e-05  -4.7313756e-06   1.5670783e-04   1.6455738e-04   3.3178439e-05   1.7305838e-04   4.4632197e-05  -2.7176868e-05  -3.0801736e-04  -1.1891354e-04   8.0305402e-04   4.3544741e-04  -1.3651900e-04  -1.1496939e-04  -1.0249267e-04  -2.6498847e-05   2.2707853e-04   2.0586607e-05  -9.3831703e-05  -2.4062088e-04  -4.0136092e-05  -1.5586385e-05  -2.4590100e-04   6.2393025e-05  -1.0619876e-04   4.8873066e-05   6.2222214e-05  -6.1893050e-05  -9.8916153e-06   5.3248463e-05  -2.2243594e-06  -2.8197217e-05   1.0986914e-04   2.3006511e-04   2.7044991e-04   3.3936929e-04   2.7210198e-04   1.2816522e-04   8.4765349e-04   1.0466803e-03
   1.2238361e-05  -2.1098668e-04  -3.9547740e-05  -1.5178628e-04   2.4678178e-05  -1.4647185e-04  -2.5951405e-04  -1.9379059e-04  -1.9085754e-04  -8.8932645e-04  -8.4186366e-05  -2.4103993e-04   9.8047167e-06   4.8356440e-05  -2.1375461e-05   8.6091903e-05  -4.1490799e-05  -1.2477364e-04  -1.5501847e-04  -1.3491917e-04   7.8125665e-04   4.4866046e-04  -1.2701993e-04  -7.8236935e-06  -5.4650802e-05   1.9753710e-05   2.6221084e-04   8.5243555e-05  -3.0617852e-05  -1.9191288e-04   3.7172416e-05   2.6317617e-05  -5.8279529e-05   2.1289200e-04  -1.7432132e-05   1.4226940e-04   1.4254505e-04   1.2558505e-04   1.8750377e-04   2.3310636e-04   1.4520058e-04   9.7054450e-05   3.5231747e-04   3.3312078e-04   4.0533373e-04   4.8620926e-04   4.7033688e-04   4.0647326e-04   1.1838851e-03   1.2507270e-03
   3.4225138e-04   1.3704915e-04   2.1779773e-04   1.7866914e-04   2.4264728e-04   1.1599745e-04   9.3148032e-05   9.3901501e-05   1.5106976e-04  -5.4924563e-04   1.2366442e-04   1.5417252e-04   2.2313348e-04   2.3965754e-04   1.2562427e-04   2.3771150e-04   8.1890772e-05   4.7103647e-05  -1.0685102e-04  -4.4470209e-05   8.0106367e-04   5.0496723e-04  -3.4057604e-05   6.9324436e-05   3.5724475e-05   1.5119264e-04   3.0626738e-04   1.4185513e-04   6.6261120e-05  -7.9672027e-05   6.1617218e-05   1.1290187e-04  -6.9628768e-05   2.3567163e-04   5.1217434e-05   1.9477807e-04   1.7250668e-04   1.8224269e-04   1.9554056e-04   2.4155709e-04   2.5673956e-04   1.7573970e-04   3.7801356e-04   2.6485289e-04   3.6500816e-04   5.8164040e-04   4.1945290e-04   4.0107811e-04   1.4166058e-03   1.0568355e-03
   2.4710121e-04   4.7082136e-05   1.4802182e-04   9.9204946e-05   1.7868548e-04   5.1250885e-05   2.6822418e-05   1.7943429e-06   3.6763129e-05  -6.9479848e-04   5.0998457e-05   2.0004421e-05   1.7137079e-04   2.0879712e-04   1.2286131e-04   1.6579854e-04   9.1489155e-06   3.0268531e-05  -2.5041433e-04  -1.6903946e-04   6.9644349e-04   4.1440889e-04  -1.1998720e-04  -3.8699727e-05  -4.4144461e-05   6.2535939e-05   2.3915662e-04   8.8530564e-05  -2.2317630e-05  -1.4563330e-04  -9.5902513e-05  -1.0155806e-05  -2.7458734e-04   1.0611515e-04  -2.7603477e-05   9.9851131e-05   9.3482267e-05   2.4499635e-05   5.9291451e-05   1.0083463e-04   1.0692118e-04   5.7212968e-05   1.7529441e-04   2.0907915e-04   3.4924276e-04   2.6604070e-04   2.7402068e-04   1.8155870e-04   1.0178160e-03   9.1869943e-04
   1.2098652e-05  -1.9894623e-04  -2.8216087e-05  -1.0653450e-04   1.4021019e-05  -1.1508447e-04  -1.7456739e-04  -1.9287987e-04  -1.0821365e-04  -9.3352975e-04  -1.0169496e-04  -2.3151326e-04  -1.7464512e-05   3.6041289e-05   9.3386307e-06   1.1757093e-05  -1.4944874e-04  -1.4165067e-04  -5.1902974e-04  -3.4384153e-04   5.7071948e-04   2.6918441e-04  -3.6253739e-04  -3.1180223e-04  -2.2048390e-04  -1.6722208e-04   1.9508501e-04  -6.2873005e-05  -2.2662339e-04  -3.1040894e-04  -2.2803410e-04  -1.4688804e-04  -4.0709873e-04  -7.8056764e-05  -1.3808900e-04  -1.7794098e-05   1.0122270e-05  -1.9840034e-05   4.3413944e-05   7.5217780e-05   3.2751603e-05   4.2724016e-05   1.4045642e-04   7.6406555e-05   2.9753268e-04   4.7278640e-04   3.7999911e-04   2.5479926e-04   1.0540610e-03   9.7741454e-04
   2.0169851e-04   6.3096841e-06   9.7056618e-05   1.0303577e-04   1.4641782e-04   5.1184459e-05   6.7119690e-05  -1.0069210e-05   1.1563222e-04  -6.1740802e-04   2.6062966e-05   1.5690352e-04   1.3141944e-04   1.4398027e-04   8.9410496e-05   1.5335668e-04  -1.0925231e-05  -9.6980248e-06  -9.8258977e-05  -1.5166143e-04   7.0467498e-04   4.8752115e-04  -7.8994170e-05   6.0413597e-05   1.5682141e-05   9.9130113e-05   2.3323513e-04   1.1374441e-04   2.0695048e-05  -1.1565533e-04  -3.9227769e-05   3.8680158e-05  -1.7988315e-04   1.8669669e-04   3.5398425e-06   1.5403675e-04   1.4275630e-04   1.3311261e-04   1.4954270e-04   1.4688079e-04   1.1315358e-04   1.1252416e-04   1.9469720e-04   2.0546860e-04   3.4532143e-04   3.4822474e-04   3.7585222e-04   2.5841891e-04   1.0515568e-03   7.7306246e-04
   1.7441834e-04  -2.1508224e-06   1.1075279e-04   8.7407905e-05   1.4329387e-04   2.8450706e-05   2.7024436e-05  -2.2736182e-05   7.1281764e-05  -6.8475440e-04   2.5315720e-05   8.3956584e-05   1.1230938e-04   1.2103713e-04   4.6082365e-05   1.4091590e-04  -3.3382501e-05  -1.8002474e-05  -1.8319009e-04  -1.9524449e-04   6.6935533e-04   4.6326709e-04  -1.4758680e-04  -8.3872685e-05  -5.9173424e-05   3.6987858e-06   1.9745632e-04   5.1011957e-05  -4.5310917e-05  -1.7932562e-04  -9.2281443e-05  -4.3925174e-06  -2.6687817e-04   7.8481185e-05  -5.7840174e-05   9.2937116e-05   1.0709370e-04   2.7888638e-05   4.1691826e-05   8.4071631e-05   4.3108976e-05   1.4125947e-05   5.6445999e-05   6.3013067e-05   3.0656942e-04   3.1809931e-04   2.6027058e-04   9.9491503e-05   8.7678508e-04   9.1448973e-04
   1.3336902e-05  -1.6824150e-04  -4.7337999e-05  -7.4139025e-05   2.1106578e-05  -1.1680093e-04  -1.5818354e-04  -2.0418958e-04  -2.4208878e-04  -8.8527531e-04  -7.9540303e-05  -1.2856070e-04  -2.0222224e-05  -1.6033189e-05  -7.4932337e-05  -1.4314538e-05  -1.4100269e-04  -1.3413970e-04  -3.6958413e-04  -3.4003949e-04   5.7305285e-04   3.0093605e-04  -3.6144609e-04  -3.2250470e-04  -2.4542102e-04  -2.1143589e-04   9.0777896e-05  -1.1494650e-04  -1.8596082e-04  -3.5086143e-04  -2.7050765e-04  -1.6989613e-04  -5.0257542e-04  -9.0021582e-05  -2.1199275e-04  -7.9464749e-05  -1.7747498e-05  -1.4391699e-04  -1.4415164e-04  -7.6171425e-05  -2.0706712e-04  -1.3390997e-04  -1.0504162e-04   7.2752999e-05   3.5601636e-04   1.7224498e-04   3.1851858e-04   1.4350953e-04   7.7646872e-04   9.8833430e-04
   1.2991058e-04  -8.7398121e-06   7.9127058e-05   9.1962887e-05   1.3502697e-04   1.5505708e-05   2.6424090e-05  -3.4710451e-05   2.0949550e-05  -6.3897914e-04   5.7581732e-05   1.6964404e-04   6.3210115e-05   1.7014658e-05  -2.5380585e-05   1.1565135e-04  -1.2406023e-05  -6.0297538e-05  -3.2674994e-05  -1.3284286e-04   7.6650776e-04   5.3241965e-04  -1.5601149e-04  -1.2999858e-05  -3.7805821e-05  -3.4393001e-05   1.7454046e-04   3.6705129e-05  -1.2860973e-05  -2.0232935e-04  -2.0195221e-05   5.0065246e-05  -1.3111743e-04   2.3057024e-04  -6.0635710e-05   1.2050493e-04   1.3497523e-04   9.4187424e-05   7.2226714e-05   1.5922901e-04  -9.1647547e-05  -5.0042886e-06   3.1302756e-05   1.2116475e-04   3.4493580e-04   3.1901069e-04   3.6368828e-04   1.4228094e-04   9.4384211e-04   9.9297334e-04
   1.9321038e-04   1.3234325e-05   1.1175518e-04   8.9149769e-05   1.5350283e-04   9.1820784e-06   2.2131422e-05  -5.2173596e-05  -6.1659513e-05  -6.7714351e-04   7.3294243e-05   1.4384420e-04   9.0297166e-05   4.4676497e-05  -5.3421158e-05   8.7015113e-05   2.5582005e-05  -2.5464537e-05  -1.8442933e-04  -1.3919731e-04   7.2685396e-04   5.5988313e-04  -1.6639387e-04  -1.3574406e-04  -1.0738020e-04  -7.2257229e-05   1.6297931e-04  -9.0086496e-06  -9.3853778e-05  -2.3726191e-04  -2.1086038e-05   6.2925312e-05  -2.3743103e-04   1.2730052e-04  -8.7620872e-05   7.0131369e-05   9.1137976e-05   6.4923865e-05   2.1389063e-05   1.1449453e-04  -8.3352221e-05  -5.2477386e-05  -8.9384797e-05   9.6593882e-05   3.0184566e-04   1.9443566e-04   2.6647336e-04   4.0268878e-05   9.5288118e-04   8.4858324e-04
   8.6283471e-06  -1.7606137e-04  -1.2744767e-05  -4.1800529e-05   1.5652222e-05  -1.2488296e-04  -1.1379202e-04  -1.6726548e-04  -1.7778935e-04  -8.9115510e-04  -6.2411535e-05  -1.5743439e-04  -5.0785999e-05  -6.5765569e-05  -1.1935591e-04   1.7766717e-05  -7.2056333e-05  -1.3226665e-04  -3.3737754e-04  -2.8929047e-04   5.7860173e-04   4.0985792e-04  -3.2128068e-04  -4.0414048e-04  -2.6878936e-04  -2.3248207e-04   7.7700672e-05  -1.5801832e-04  -2.5125957e-04  -3.6492664e-04  -1.4771792e-04  -1.3309135e-04  -4.8955600e-04  -7.5965552e-05  -1.9927461e-04  -1.0033298e-04  -3.8147773e-05  -1.7908690e-04  -1.6063001e-04  -2.9033117e-05  -1.3479921e-04  -1.4304575e-04  -2.1937354e-04   3.9665694e-05   7.8633580e-05   2.5234852e-04   1.0645494e-04  -4.5006032e-05   6.6291040e-04   9.7001035e-04
  -8.6528808e-06  -2.5324847e-04  -2.0455274e-05   6.9601600e-05   2.8038063e-05  -2.9250201e-05   6.9143942e-05  -7.4017931e-05  -8.0963080e-05  -7.4689655e-04  -1.2181172e-04  -2.6823698e-05  -3.5849054e-05  -1.9753594e-05  -1.8529183e-05   8.7899862e-05  -1.5770704e-05  -1.0267812e-04  -8.7403670e-05  -1.5525417e-04   6.3986285e-04   6.2493479e-04  -1.0518014e-04  -7.7022371e-05  -8.3712439e-05   2.5418997e-06   1.2484471e-04  -1.3610186e-05  -1.1412908e-04  -1.6995153e-04   9.2625000e-05   7.8019824e-05  -1.5572351e-04   2.0179110e-04  -1.1019149e-05   1.1862076e-04   1.0334933e-04   1.5205203e-04   1.3897754e-04   2.4276150e-04   1.6181541e-04   1.8018526e-04   2.1366426e-04   1.0386646e-04   2.6997773e-04   6.3233543e-04   2.5041733e-04   2.3603298e-04   9.8479958e-04   1.0132279e-03
   1.0447747e-04  -1.0388254e-04   3.6730806e-05   1.4605631e-04   7.1392256e-05   3.1533211e-06   1.1411677e-04  -3.5595636e-05  -6.7497560e-05  -7.1027520e-04  -8.1549028e-05  -1.2890409e-05   2.0349931e-05   5.8273716e-05   2.3389388e-05   1.5865584e-04   6.2915489e-05  -1.4413087e-05  -1.4334655e-04  -1.4197784e-04   6.5302523e-04   5.9671153e-04  -9.4373630e-05  -1.0036722e-04  -9.4205287e-05   3.3073255e-05   1.7550508e-04  -1.4542322e-05  -3.2463377e-05  -1.5012955e-04   1.2392011e-04   1.0369366e-04  -2.1892207e-04   1.4537018e-04  -2.4553998e-05   8.2599436e-05   5.9268812e-05   8.8257781e-05   6.9704518e-05   2.1079642e-04   9.8461838e-05   1.6237173e-04   1.3375796e-04   2.4508166e-05   3.5436667e-04   5.8640324e-04   1.9186269e-04   1.4883118e-04   9.5165597e-04   1.1316519e-03
  -8.6149148e-06  -2.1880312e-04  -4.9269776e-05   2.5615214e-05  -2.5081410e-05  -9.8510805e-05  -3.1415333e-05  -1.3507562e-04  -1.5604441e-04  -9.1664318e-04  -1.6738167e-04  -2.1016614e-04  -7.6767516e-05  -2.9504461e-05  -4.1103565e-05   6.3108644e-05  -1.6218515e-05  -6.9211492e-05  -2.8154987e-04  -2.8062947e-04   5.2693678e-04   4.4606798e-04  -2.5726526e-04  -3.2719181e-04  -2.3272367e-04  -1.3416432e-04   1.3066657e-04  -1.3381723e-04  -1.8357518e-04  -2.7372528e-04  -3.6476758e-05  -3.6937512e-05  -4.3014920e-04  -6.6702276e-05  -1.5523446e-04  -7.5627999e-05  -5.5522411e-05  -1.0473513e-04  -9.7759017e-05   8.6468872e-06  -1.7522709e-06   9.1402562e-06  -7.5240765e-05  -4.7991860e-05   1.4058799e-04   5.3404045e-04  -2.5863277e-05  -5.1213661e-05   9.4359805e-04   6.6948374e-04
  -3.0640492e-04  -4.7928252e-04  -2.4173578e-04  -1.4513484e-04  -1.8457042e-04  -2.4989672e-04  -1.6202089e-04  -3.1161139e-04  -2.9643829e-04  -1.0053482e-03  -2.8229228e-04  -3.2435646e-04  -1.6921680e-04  -1.2423245e-04  -6.7030211e-05   4.0325711e-05  -4.5173685e-05  -8.2684739e-05  -3.1386776e-04  -2.3082382e-04   5.6463142e-04   5.2788528e-04  -1.8346791e-04  -1.0460262e-04  -1.2879101e-04  -5.0976716e-05   1.8857035e-04  -5.3732048e-05  -1.5790314e-04  -2.0549995e-04   1.2109045e-04   6.1571947e-05  -1.7880995e-04   8.8374007e-05  -4.7717749e-05   3.8309448e-05   2.4826582e-05   1.1858375e-04   9.9668243e-05   1.7854660e-04   7.7354620e-05   1.8550362e-04   1.4395382e-04   1.1211781e-04   3.0484534e-04   5.2609784e-04   2.6308344e-04   1.8091296e-04   1.1561814e-03   9.9942763e-04
   1.0661031e-04  -6.4732485e-05   6.4188796e-05   1.7796826e-04   6.8725785e-05   9.6215053e-06   1.2421051e-04   2.9972966e-06  -5.1869549e-05  -7.4028072e-04  -6.7474823e-05   1.1687763e-05   6.4960032e-06   2.8035744e-05   2.4891724e-05   1.7077410e-04   1.0115535e-04   4.2146381e-05  -2.6331659e-04  -1.4882209e-04   5.9750740e-04   5.5174611e-04  -9.0840120e-05  -3.1877280e-05  -7.3927833e-05  -8.1632481e-07   2.4913083e-04  -2.6777408e-05  -2.6941141e-05  -1.6675775e-04   1.5503938e-04   1.3098872e-04  -1.5951335e-04   1.0038196e-04  -5.0595201e-05   3.7615733e-05   3.6239522e-05   1.1745404e-04   8.3643143e-05   1.6455447e-04   1.2628289e-04   2.0633894e-04   1.2120441e-04   9.3470255e-05   2.9735433e-04   6.3166826e-04   2.1013929e-04   1.2860948e-04   1.0612373e-03   1.0017182e-03
   2.9923724e-05  -1.4627923e-04   2.3141183e-05   6.7730914e-05   1.9674164e-05  -5.8932430e-05   2.6903215e-05  -6.8840433e-05  -1.4692092e-04  -8.5388235e-04  -9.1739508e-05  -1.0381420e-04  -2.9220515e-05  -1.6313440e-06  -1.5527537e-05   1.3089407e-04   6.3425454e-05   2.6026946e-05  -4.2297758e-04  -2.1818263e-04   5.2459713e-04   4.2087425e-04  -2.0408326e-04  -2.1272068e-04  -1.6786071e-04  -1.2665013e-04   1.8305751e-04  -1.1862128e-04  -1.5278600e-04  -2.5793756e-04   4.8262518e-05   1.2433275e-05  -3.6038103e-04  -5.8882648e-05  -1.6259543e-04  -1.1191611e-04  -6.8649897e-05  -5.9794267e-05  -1.1385504e-04  -2.4066918e-07  -1.4483427e-05   9.3435330e-05  -7.7430668e-05  -8.7179897e-06   1.3986741e-04   3.4331300e-04   7.1340772e-05  -7.2297611e-05   7.9892762e-04   7.1089488e-04
  -1.9304788e-04  -3.7069412e-04  -1.5603956e-04  -1.3309516e-04  -1.2576650e-04  -2.2920211e-04  -2.0288408e-04  -2.6557269e-04  -4.1933611e-04  -1.1430429e-03  -2.5770298e-04  -3.3336756e-04  -1.8857802e-04  -1.5966190e-04  -1.3053580e-04  -1.5670354e-05  -7.7188437e-05  -9.7106458e-05  -6.8913936e-04  -3.8198350e-04   4.1520689e-04   2.2350394e-04  -4.0965874e-04  -4.6420144e-04  -3.4064954e-04  -3.4842888e-04   1.4264186e-04  -2.1609716e-04  -2.8089469e-04  -3.6004337e-04   1.3626744e-05  -3.1177791e-05  -2.8904603e-04  -7.9512341e-05  -1.8805468e-04  -9.5933276e-05  -9.1867798e-05   2.7187805e-05  -9.1239899e-06   5.7930582e-05   2.2040895e-06   1.4506573e-04   7.4173535e-05  -4.9629605e-05   3.7493400e-04   4.8493111e-04   2.0981448e-04   1.2630181e-04   1.1765517e-03   9.2024467e-04
   6.4651736e-05  -8.2787359e-05   4.2855405e-05   1.3165764e-04   7.5424468e-05   1.1321974e-05   9.8371143e-05  -1.3257200e-05  -1.2872773e-04  -7.4495870e-04  -6.9741443e-05   7.7662262e-05   3.1235475e-06  -3.1337231e-06   4.6039336e-06   1.7185221e-04   1.2872175e-04   5.9633690e-05  -2.8010475e-04  -1.3040694e-04   5.9637288e-04   4.6099341e-04  -8.9851143e-05  -5.7229634e-05  -5.0166604e-05  -5.5689994e-05   2.1171907e-04  -6.3143445e-05  -6.5117056e-05  -2.0567155e-04   1.8438752e-04   1.2586926e-04  -1.5985474e-04   6.5195796e-05  -1.1267790e-04  -8.1371883e-07  -2.4897561e-05   1.1015119e-04  -5.1343991e-06   9.2219372e-05   4.7642956e-05   1.7827666e-04   7.2832059e-05  -8.2681167e-05   3.1599891e-04   5.0379004e-04   2.2330538e-04   1.2710874e-04   1.0019667e-03   9.0909650e-04
   9.8998738e-05  -4.4011933e-05   6.7056950e-05   8.3361978e-05   8.2864390e-05  -1.8351158e-05   2.5043661e-05  -2.0976555e-05  -2.3372244e-04  -8.2571385e-04  -4.9652477e-05   2.2098277e-05   3.8181875e-06   1.9781990e-06  -3.5964174e-05   1.6872355e-04   1.3069119e-04   9.0977956e-05  -3.9242097e-04  -1.5592900e-04   5.6622026e-04   4.0663744e-04  -1.4080601e-04  -1.4153030e-04  -1.1829309e-04  -1.1692721e-04   1.9078920e-04  -1.0917232e-04  -1.0084514e-04  -2.4954890e-04   1.3853287e-04   9.8445933e-05  -2.2053393e-04  -5.0707149e-06  -1.7246397e-04  -7.2226008e-05  -4.8922255e-05   2.7707122e-06  -9.6227443e-05   6.9013536e-06  -4.3612268e-05   1.0212912e-04  -3.8262177e-05  -4.1831019e-05   2.6598334e-04   3.6151969e-04   1.0453589e-04  -6.2749838e-05   7.4400735e-04   9.0201502e-04
  -5.7798028e-05  -2.1101863e-04  -6.0903210e-05  -8.2997380e-05  -2.9515670e-05  -1.5050430e-04  -1.5262500e-04  -1.7122098e-04  -2.6320154e-04  -1.0308136e-03  -1.6338057e-04  -2.0594806e-04  -1.1332997e-04  -1.1309644e-04  -1.2382171e-04   4.1491043e-05   6.2263020e-06  -6.5147487e-06  -6.1273412e-04  -3.0813602e-04   4.4276321e-04   2.1686303e-04  -3.2401428e-04  -4.0405226e-04  -2.8899297e-04  -3.0670516e-04   1.4912483e-04  -2.1927583e-04  -2.3505543e-04  -3.8552348e-04   4.1914209e-05  -1.0983439e-05  -3.1615960e-04  -1.3260660e-04  -2.5009757e-04  -1.4111519e-04  -1.1921327e-04   1.4996042e-05  -6.8228175e-05   2.2359600e-05  -2.6926475e-05   1.3508194e-04   2.5975476e-05   1.2145954e-05   3.5539185e-04   4.8782941e-04   2.3331972e-04   1.2236967e-04   1.0611134e-03   1.0022306e-03
   1.5701388e-04   2.2084094e-05   9.2473958e-05   1.4140538e-04   1.4207936e-04   4.2940141e-05   9.4741255e-05   5.8301324e-05  -1.2410477e-04  -6.7794626e-04   4.2430829e-06   1.6592506e-04   6.2987943e-05   3.7282058e-05   1.7073240e-06   2.3334935e-04   1.8018881e-04   1.0285135e-04  -2.3851880e-04  -8.3516490e-05   5.9590925e-04   4.7607473e-04  -2.8319449e-05   4.0597904e-05  -1.5439951e-05  -2.1136944e-05   2.5628446e-04  -3.4324774e-05  -7.5787179e-06  -1.7584667e-04   2.1907596e-04   1.4320172e-04  -8.4702326e-05   1.1004868e-04  -1.0199642e-04   1.4026702e-05   4.7016283e-06   1.1341133e-04   1.7935106e-05   1.0961507e-04   5.8938407e-05   1.9421322e-04   8.5488115e-05   9.6348544e-05   3.4519419e-04   3.7283372e-04   2.8832731e-04   1.3003792e-04   7.6394982e-04   1.0102107e-03
   1.7299868e-04   2.8951408e-05   1.0948553e-04   1.0550172e-04   1.3850667e-04   1.5690464e-05   5.6137244e-05   3.0079040e-05  -6.4078740e-05  -7.3824427e-04   1.3333167e-06   9.1451562e-05   5.9093160e-05   2.5410807e-05  -1.6547419e-05   2.2918449e-04   1.4532244e-04   1.1834464e-04  -3.2128487e-04  -1.5542511e-04   5.3195067e-04   4.2842058e-04  -1.0259433e-04  -6.9904170e-05  -8.8566805e-05  -8.6694970e-05   2.3541789e-04  -8.1954793e-05  -6.3170322e-05  -2.3113358e-04   1.8021233e-04   1.0500349e-04  -2.0520437e-04  -1.5165416e-06  -1.5112406e-04  -3.9089115e-05  -3.4502860e-05   4.1095186e-06  -7.8664045e-05   1.7326682e-05  -2.0620308e-05   1.2360066e-04  -4.1626918e-05   4.4928889e-05   1.9847340e-04   3.5956097e-04   1.6085734e-04  -7.9804158e-06   8.1600843e-04   8.5192616e-04
   2.0822081e-05  -1.7212721e-04  -7.5787648e-06  -7.0730493e-05   5.0349381e-06  -1.2653461e-04  -1.0048415e-04  -1.2501677e-04  -2.3947418e-04  -9.8729029e-04  -1.5622926e-04  -1.7477924e-04  -9.4452618e-05  -9.5562034e-05  -1.0840579e-04   1.0880579e-04   1.1006004e-05  -4.6468153e-06  -7.3570124e-04  -3.3494880e-04   3.6031965e-04   2.3934449e-04  -2.8468986e-04  -3.5276994e-04  -2.4925714e-04  -2.6513913e-04   1.6764228e-04  -2.0948578e-04  -2.1699822e-04  -3.5762833e-04   2.4177240e-05  -4.1694941e-05  -4.0640953e-04  -1.3365896e-04  -2.5786256e-04  -1.7110349e-04  -1.3742111e-04  -4.2604126e-05  -1.0007864e-04   6.9413418e-06   3.3052933e-05   1.4279585e-04   8.8143264e-05  -5.5074706e-05   2.9985621e-04   4.3542555e-04   2.4686463e-04   1.7457508e-04   6.3107448e-04   7.9399778e-04
   2.0610532e-04   2.3931729e-05   1.1981075e-04   1.4737618e-04   1.4480711e-04   6.9698646e-05   1.4163935e-04   6.3742402e-05  -1.1267736e-05  -6.6262967e-04  -4.2225834e-05   1.5026508e-04   7.6164593e-05   6.0185859e-05   2.0083100e-05   2.6272668e-04   1.7573663e-04   1.5147051e-04  -2.7191508e-04  -1.0479269e-04   5.1706249e-04   4.6624025e-04  -2.0641175e-05   6.8648151e-05   6.7235717e-08   6.1887840e-05   2.8269345e-04   1.6818865e-05   7.8118479e-05  -1.0872503e-04   2.8232235e-04   2.1344323e-04  -8.7809211e-05   1.7078333e-04  -5.0744799e-05   7.5150485e-05   3.2958804e-05   1.8698905e-04   8.9607471e-05   1.8726932e-04   2.1407373e-04   2.6605822e-04   2.1337951e-04   1.3030710e-04   3.5146117e-04   5.0383003e-04   2.8096300e-04   2.4692423e-04   7.9473079e-04   9.4364793e-04
   2.3917833e-04   5.1367315e-05   1.4740154e-04   1.4031323e-04   1.6336114e-04   7.3470488e-05   1.2640699e-04   9.1322123e-05   4.2024687e-05  -6.9350254e-04  -1.0585502e-05   1.0493341e-04   1.1714964e-04   1.0595497e-04   5.0953156e-05   2.7868483e-04   1.6898566e-04   1.7177200e-04  -2.4210667e-04  -1.5417613e-04   4.6960203e-04   3.7391280e-04  -2.8597455e-05  -1.7702072e-06  -1.6848826e-05   4.3525124e-05   3.2200234e-04   4.3409145e-06   3.0497282e-05  -1.2799275e-04   2.3782118e-04   1.7502641e-04  -1.7477413e-04   1.4486813e-04  -5.9044782e-05   5.0634138e-05   1.3863653e-05   1.2032659e-04   7.6733744e-07   1.3037291e-04   1.4099543e-04   2.0921807e-04   1.2506188e-04   7.8465346e-05   1.5676883e-04   4.7989941e-04   1.8478610e-04   1.3636809e-04   5.5534142e-04   1.0001541e-03
   4.6935173e-05  -1.1574296e-04  -8.1671678e-06  -2.2070504e-05   3.5733607e-05  -6.3827159e-05  -5.4974800e-05  -7.3549309e-05  -1.7359828e-04  -8.9951215e-04  -1.1215567e-04  -1.2266112e-04  -2.2454837e-05  -1.4834037e-05  -3.8858074e-05   1.5467836e-04   3.1420193e-05   7.3212905e-05  -6.6097459e-04  -3.1032687e-04   3.4526445e-04   2.3141690e-04  -2.0134095e-04  -2.5614878e-04  -1.8016287e-04  -1.4304540e-04   2.3758855e-04  -1.3050360e-04  -8.6230240e-05  -2.7071929e-04   1.1837995e-05   9.1704933e-06  -4.1425379e-04  -7.7155630e-05  -1.9501470e-04  -1.1988758e-04  -1.0149913e-04  -7.6616743e-05  -1.7927939e-04  -8.3470230e-05  -2.6850767e-05   5.6904944e-05  -5.8976082e-05  -2.2851709e-05   2.5809766e-04   3.6549947e-04   1.5392456e-04   1.0963505e-04   9.6300268e-04   1.0811894e-03
   1.4512768e-04  -1.4450970e-05   6.6190631e-05   1.2387603e-04   1.1074413e-04   6.2714040e-05   1.4171311e-04   6.4342334e-05   1.2505792e-05  -6.3564116e-04  -3.0140967e-05   1.4914619e-04   7.6123128e-05   7.0113398e-05   5.7550624e-05   2.4029675e-04   1.2454910e-04   1.4553402e-04  -2.7844743e-04  -1.4211235e-04   4.6277509e-04   4.1883459e-04  -1.4285964e-05   1.1539294e-04   3.0478903e-05   7.5751603e-05   3.2110431e-04   4.3110129e-05   1.0903832e-04  -8.5079926e-05   2.9267734e-04   2.3189324e-04  -5.4407530e-05   2.5678994e-04   6.4894662e-06   1.2025563e-04   6.8232133e-05   2.2362448e-04   1.3124343e-04   2.4368553e-04   1.9787850e-04   2.9015914e-04   2.7811812e-04   1.6904707e-04   2.8304372e-04   5.6465587e-04   2.9864241e-04   2.3987857e-04   1.0630756e-03   1.0894749e-03
   2.4240854e-04   1.0011807e-04   1.3701979e-04   1.6478832e-04   1.7583686e-04   1.0153776e-04   1.6402740e-04   8.8979104e-05   5.9986774e-06  -6.1374193e-04   5.0345563e-05   1.9036816e-04   1.4983273e-04   1.3827982e-04   7.9427176e-05   2.7583007e-04   1.7243069e-04   2.1469106e-04  -2.0387601e-04  -1.3601690e-04   4.5255106e-04   4.0928627e-04   1.0111676e-05   6.2498344e-05   1.8492521e-05   8.2461913e-05   3.3699346e-04   4.2454612e-05   1.0103205e-04  -8.9955065e-05   2.5693528e-04   2.3814931e-04  -1.2070423e-04   2.0849278e-04  -3.1254367e-05   9.3698065e-05   4.5797697e-05   1.9250557e-04   6.3031846e-05   2.0151972e-04   1.6708230e-04   2.6970607e-04   1.8665977e-04   1.0145690e-04   3.8173841e-04   4.7731493e-04   2.4619320e-04   1.8356372e-04   1.2175819e-03   9.6645288e-04
   1.4331404e-04  -8.0875288e-06   6.0612096e-05   5.0747978e-05   9.1290756e-05   1.0698865e-05   4.2085860e-05  -1.2429551e-06  -1.1550462e-04  -7.7231386e-04  -8.2860397e-06   1.7642933e-05   5.4153297e-05   6.3378968e-05   4.5032621e-06   1.7206393e-04   8.1710263e-05   1.5728283e-04  -4.5721253e-04  -2.5985052e-04   3.5327554e-04   2.5583259e-04  -1.4020763e-04  -1.2900990e-04  -1.3365377e-04  -8.4650739e-05   2.7132957e-04  -7.3197458e-05  -1.8166593e-05  -2.0128132e-04   1.0432260e-04   8.1707214e-05  -3.3262974e-04   3.3160941e-05  -1.4048278e-04  -5.7422181e-05  -5.2987907e-05  -1.9530304e-05  -1.2597033e-04   1.2506628e-05   9.6558433e-06   1.1745733e-04  -3.1380507e-05   1.1898989e-05   2.1623739e-04   4.2298180e-04   8.8379333e-05  -2.4504225e-05   8.6020626e-04   8.1457925e-04
  -4.9066189e-06  -1.7972861e-04  -8.0251466e-06   1.8574046e-05   7.7468452e-05   1.8734189e-06   5.9153987e-05  -2.7852653e-05   1.1514500e-05  -6.2604586e-04  -1.3213744e-06   1.4878232e-04   7.5325072e-05   5.9669186e-05   4.8701448e-05   2.1391037e-04   1.0231538e-04   1.4286725e-04  -2.5727905e-04  -1.6590439e-04   4.2514683e-04   3.7715881e-04  -7.7080983e-07   5.4931646e-05   9.2060509e-06   5.1671508e-05   3.0397080e-04   3.9208728e-05   3.9180792e-05  -9.4428411e-05   2.8104387e-04   2.5340304e-04  -6.2302141e-05   2.5872933e-04  -5.3781287e-06   1.1031763e-04   6.0398459e-05   2.3768269e-04   1.2197922e-04   2.5461015e-04   2.4573519e-04   2.9438006e-04   2.8910625e-04   1.7803365e-04   3.4934521e-04   6.5545924e-04   3.5207890e-04   2.8747050e-04   1.1874003e-03   9.9856046e-04
   2.8731162e-04   1.4732080e-04   1.5660225e-04   1.9701304e-04   1.9011901e-04   1.1484762e-04   1.5295067e-04   8.6461732e-05   1.4961163e-04  -5.5909780e-04   1.3833895e-04   2.3830170e-04   1.6282976e-04   1.4021025e-04   4.6279212e-05   2.6945907e-04   1.7931638e-04   2.1477111e-04  -2.6371839e-04  -1.1784385e-04   4.5626090e-04   3.9939917e-04  -1.7509610e-07   1.2918320e-04   1.2834596e-05   8.3704836e-05   3.4279769e-04   5.8819722e-05   1.2414799e-04  -8.1127124e-05   2.7314710e-04   2.8489291e-04  -4.5989960e-05   2.6641652e-04  -8.7770850e-06   1.2124635e-04   6.4428081e-05   2.1941235e-04   5.8763762e-05   2.2093949e-04   1.4818927e-04   2.7700991e-04   2.0454313e-04   1.8497305e-04   2.9828397e-04   4.9497228e-04   2.8249132e-04   1.7773533e-04   9.5915544e-04   1.0522516e-03
   2.2082169e-04   6.8926405e-05   1.2991167e-04   1.1475395e-04   1.4511803e-04   3.7456612e-05   6.2694693e-05   1.1493200e-05  -3.8722610e-05  -6.6243933e-04   1.0520151e-04   1.3318451e-04   1.0852190e-04   8.2645995e-05   2.2772201e-06   1.9343827e-04   1.1877147e-04   1.7066112e-04  -3.6658908e-04  -2.1751653e-04   3.6267805e-04   2.6583220e-04  -1.0785092e-04  -6.8341549e-05  -8.8516266e-05  -5.6191955e-05   3.0810368e-04  -3.6016441e-05  -5.4422394e-06  -1.8316785e-04   1.1974473e-04   1.4797103e-04  -2.6460871e-04   1.0689916e-04  -1.1866085e-04  -2.8048047e-05  -2.9012601e-05   2.6480520e-05  -1.1628800e-04   3.9792194e-05   3.1103526e-05   1.1561359e-04   2.4602017e-05  -2.5319769e-05   1.7438196e-04   1.9420177e-04   1.3186874e-04  -3.7968945e-07   6.3229236e-04   1.0016762e-03
   2.4704666e-05  -1.2733563e-04   3.6644760e-05   5.2652529e-05   1.0615091e-04   3.5191162e-05   6.6396242e-05  -5.0691408e-05   1.5229957e-05  -5.6596939e-04   9.6715856e-05   2.2470113e-04   1.1604944e-04   6.9188791e-05   5.4483706e-05   2.1835694e-04   1.4425597e-04   1.5995343e-04  -1.6906741e-04  -1.2420912e-04   4.4014884e-04   3.8725429e-04   4.5813555e-05   1.4753517e-04   3.9993043e-05   5.8916987e-05   3.1435536e-04   6.1141065e-05   1.4428965e-04  -9.3234361e-05   3.0140189e-04   3.0068288e-04   2.9662247e-05   3.0096192e-04   1.1804600e-05   1.4701663e-04   8.9137073e-05   2.8204412e-04   1.1794450e-04   2.7436786e-04   2.2630369e-04   2.9957484e-04   2.9303713e-04   2.4277260e-04   3.4833496e-04   6.0414831e-04   4.1235232e-04   3.0599770e-04   9.8654954e-04   9.8056614e-04
   3.5969639e-04   2.1456651e-04   2.6628634e-04   2.6844171e-04   2.5191344e-04   1.6242820e-04   1.9972389e-04   1.2259219e-04   2.5603463e-04  -4.6793639e-04   2.3501368e-04   3.2750229e-04   2.2769578e-04   1.7636694e-04   6.9720045e-05   3.0473445e-04   2.2201057e-04   2.9094072e-04  -1.1253799e-04  -5.9967853e-05   4.3943126e-04   3.9940534e-04   1.4408494e-04   1.7836751e-04   7.2589872e-05   1.0576675e-04   3.7614239e-04   8.7932553e-05   1.6661771e-04  -5.6653244e-05   3.1715108e-04   3.1483709e-04  -1.8272023e-05   3.2398291e-04   1.9227331e-05   1.3307009e-04   1.0381702e-04   2.5107039e-04   1.0979288e-04   2.8758339e-04   2.1081371e-04   2.8453552e-04   2.5208949e-04   1.5801530e-04   4.1594577e-04   5.8927422e-04   3.4557458e-04   2.2865956e-04   9.6319983e-04   1.0547282e-03
   2.7441027e-04   1.2456908e-04   1.8759724e-04   1.8201586e-04   2.0213901e-04   8.4274834e-05   1.0702944e-04   4.7387595e-05   6.6717563e-05  -6.1314605e-04   1.8707385e-04   1.8716358e-04   1.5681605e-04   1.0976188e-04   1.7445020e-05   2.2958772e-04   1.6164480e-04   1.9721736e-04  -3.2608319e-04  -1.5641702e-04   3.5885911e-04   2.7679896e-04  -1.2995655e-05   3.7273146e-06  -5.2902255e-05  -2.9062790e-05   3.3376407e-04  -2.5166291e-05   1.9637047e-05  -1.6843990e-04   1.7022734e-04   1.9598073e-04  -2.3024151e-04   1.5782913e-04  -1.0372887e-04  -6.5134564e-06  -1.1257241e-05   6.9665715e-05  -8.7637811e-05   1.1645885e-04   9.1900991e-05   1.3992336e-04   1.5631966e-05   1.2110180e-04   2.2384888e-04   5.1283016e-04   1.7058794e-04   3.2925673e-05   7.9674245e-04   9.5549028e-04
   5.1153598e-05  -1.2195497e-04   1.4236364e-05  -5.8498781e-06   5.3975800e-05  -6.6604276e-05  -6.6681532e-05  -1.4127031e-04  -1.0362939e-04  -7.9690217e-04   4.8654216e-05  -7.0634323e-06   4.9358776e-05  -9.7106567e-06  -4.6343226e-05   1.3768232e-04   1.0378502e-04   1.3183172e-04  -1.6519910e-04  -1.4638380e-04   3.7247350e-04   3.2620158e-04   3.7510395e-05   1.2149556e-04   9.8544228e-07   2.8862436e-05   3.6803368e-04   3.3801902e-05   9.0029207e-05  -1.2659452e-04   2.6355844e-04   2.7108972e-04  -2.9438743e-06   2.6361746e-04  -1.3095825e-05   1.0236823e-04   6.8140092e-05   2.4970341e-04   8.8861285e-05   2.6484494e-04   1.8443666e-04   2.5739567e-04   2.6595345e-04   2.4073359e-04   4.6556321e-04   5.1885343e-04   4.0506502e-04   2.5613807e-04   1.1766194e-03   1.1886626e-03
   4.0974570e-04   2.5047676e-04   3.1247464e-04   3.3646522e-04   3.0364437e-04   2.1755618e-04   2.6868572e-04   1.9791929e-04   1.5326407e-04  -4.5659015e-04   2.8229697e-04   3.8475494e-04   2.5741092e-04   1.6237726e-04   9.4148418e-05   3.1105368e-04   2.4931296e-04   2.7789082e-04  -1.1282874e-04  -1.7977954e-05   4.4137758e-04   3.8878573e-04   1.5061234e-04   2.3387914e-04   1.0938385e-04   1.1089079e-04   3.7652906e-04   8.1667633e-05   1.8041895e-04  -7.2308714e-05   3.5909002e-04   3.6329206e-04  -4.2857801e-06   3.2790154e-04   2.2957740e-05   1.5448600e-04   1.0065685e-04   2.8805999e-04   8.7753891e-05   2.8102694e-04   2.0821150e-04   2.8576085e-04   2.2714717e-04   2.4216193e-04   4.0254690e-04   5.9807609e-04   3.7506531e-04   1.9302826e-04   1.1206961e-03   1.1872642e-03
   3.5182553e-04   1.9163470e-04   2.7451265e-04   2.5861396e-04   2.6111148e-04   1.5370686e-04   1.9027946e-04   1.3591535e-04   1.4874989e-05  -5.8656774e-04   2.3697397e-04   2.4685508e-04   2.1903815e-04   1.3024925e-04   6.2428466e-05   2.5838477e-04   2.2891629e-04   2.6335352e-04  -2.6855312e-04  -9.5919386e-05   3.6902761e-04   2.9949268e-04   7.8744248e-05   7.1969531e-05   1.1426774e-05   2.3001159e-05   3.6423586e-04   1.8401282e-05   6.3630003e-05  -1.4678639e-04   2.1709599e-04   2.3462561e-04  -1.7644877e-04   1.9073689e-04  -6.2046114e-05   4.1781259e-05   2.0949199e-05   1.1732704e-04  -1.5713018e-05   1.5162138e-04   8.3526669e-05   1.6959540e-04   2.8823384e-05   7.1186747e-05   2.0545720e-04   4.4578285e-04   2.3641392e-04   5.6178178e-05   8.5608161e-04   9.1950106e-04
   1.2996986e-04  -5.0607672e-05   1.0767587e-04   5.8005084e-05   1.2036286e-04  -6.9153512e-06  -3.2111933e-05  -8.3630548e-05  -1.7963603e-04  -8.4153726e-04   6.4015607e-05  -1.9185977e-06   5.3668755e-05  -2.9815465e-06  -3.4057801e-05   1.1843555e-04   7.1725350e-05   1.1289745e-04  -5.9937692e-04  -2.6536276e-04   2.4115287e-04   9.2344177e-05  -1.4074780e-04  -1.6110537e-04  -1.3823631e-04  -2.0117342e-04   2.8894818e-04  -9.1354472e-05  -5.4833621e-05  -2.6382125e-04   1.3490052e-04   1.5904837e-04  -2.1140411e-04   1.2963336e-04  -9.8028140e-05   1.4758218e-05  -7.7764998e-06   1.5706345e-04   3.9144066e-05   1.9552743e-04   1.3947194e-04   2.1028647e-04   1.7294861e-04   1.5993221e-04   3.3003133e-04   5.2336365e-04   3.6020859e-04   2.1023527e-04   1.0968799e-03   1.0550519e-03
   3.5888661e-04   1.8662018e-04   2.8918407e-04   3.1201419e-04   2.8394090e-04   1.9472564e-04   2.5680795e-04   1.7831578e-04   1.4103873e-04  -5.0684524e-04   2.2850592e-04   3.6331353e-04   2.3997349e-04   1.3494676e-04   9.0880931e-05   2.9858263e-04   2.4628791e-04   2.7720068e-04  -2.1353463e-04  -2.5251444e-05   4.1360979e-04   3.2732886e-04   1.5242001e-04   2.2738082e-04   1.2218482e-04   1.3922030e-04   3.8654701e-04   8.6573404e-05   1.3587512e-04  -6.9674228e-05   2.9516502e-04   2.9230956e-04  -7.9897800e-05   2.8455493e-04   4.0710888e-06   1.3638726e-04   7.4938653e-05   2.8090010e-04   1.2589924e-04   2.7598382e-04   2.2846002e-04   2.6605136e-04   2.0286147e-04   2.5055450e-04   3.9406528e-04   4.9665500e-04   3.7668116e-04   2.4721134e-04   8.9003891e-04   1.2732310e-03
   3.7974451e-04   1.9720236e-04   2.9912387e-04   2.7477424e-04   2.8296449e-04   1.6933511e-04   2.0635949e-04   1.5617345e-04   4.0186223e-05  -6.1815337e-04   2.1011684e-04   2.8977654e-04   2.2397866e-04   1.5225876e-04   7.8564393e-05   2.7827578e-04   2.3501583e-04   2.5058130e-04  -2.8719261e-04  -6.2754683e-05   3.9752113e-04   2.3702867e-04   9.8844146e-05   1.5372701e-04   6.2167193e-05   8.7929373e-05   3.2944223e-04   3.4977820e-05   1.3404421e-04  -1.0315089e-04   2.5329410e-04   2.5784029e-04  -1.8580294e-04   2.1225291e-04  -3.8672522e-05   8.4278014e-05   2.9786721e-05   1.7836325e-04   3.1370684e-05   1.8889608e-04   1.3497290e-04   2.0418706e-04   8.8975547e-05   1.5591383e-04   3.2845055e-04   4.8214913e-04   2.4438059e-04   9.6017844e-05   1.0290735e-03   9.6213788e-04
   2.0024041e-04   6.5559998e-06   1.4767479e-04   1.1658064e-04   1.4951739e-04   2.8945922e-05   4.1895601e-05  -9.1342708e-06  -2.3730336e-04  -8.3552173e-04   6.4916087e-05   2.3872824e-05   6.7417226e-05   3.2918408e-05  -7.0767642e-06   1.3932622e-04   1.1083462e-04   1.4269605e-04  -5.2930735e-04  -2.0556967e-04   3.4103965e-04   3.6642949e-05  -1.1623916e-04  -1.0538565e-04  -1.0418162e-04  -1.1113681e-04   2.7942410e-04  -9.1664297e-05  -3.7922648e-05  -2.3757132e-04   9.9002347e-05   1.1264697e-04  -3.4653107e-04   4.4694527e-05  -1.5586469e-04  -3.8737719e-05  -5.2906558e-05   1.4896209e-04   2.2831147e-05   1.8289764e-04   1.2533377e-04   2.0893486e-04   1.6085734e-04   1.3347808e-04   3.3612357e-04   5.4501521e-04   3.3074510e-04   2.5124947e-04   9.9194620e-04   1.1665035e-03
   3.7110021e-04   1.9923534e-04   2.8029407e-04   3.1306187e-04   2.7765555e-04   2.0704017e-04   2.6682139e-04   1.7436131e-04  -1.8252573e-05  -5.2953442e-04   1.8908463e-04   3.4163264e-04   2.1200074e-04   1.6159500e-04   9.4214498e-05   2.7455541e-04   2.5568399e-04   2.5822080e-04  -2.5261327e-04   1.6224545e-05   4.7337724e-04   2.8068267e-04   1.7330064e-04   2.7640688e-04   1.4033806e-04   1.7097194e-04   3.5047883e-04   1.0578270e-04   2.4921444e-04  -4.7859219e-05   3.3121119e-04   3.2841339e-04  -6.5718799e-05   3.0261284e-04   2.0461948e-05   1.5840564e-04   8.0765341e-05   2.8959551e-04   1.0946310e-04   3.0718165e-04   2.1908898e-04   2.9393900e-04   2.1661003e-04   1.9523522e-04   5.3753675e-04   6.3155987e-04   3.7135641e-04   2.5207939e-04   8.7786774e-04   1.1133068e-03
   3.9337302e-04   2.3200559e-04   3.0540573e-04   2.8329546e-04   2.9877503e-04   1.9044995e-04   2.3891956e-04   1.7366112e-04   9.9772558e-05  -5.9031154e-04   2.1113442e-04   2.9097972e-04   2.2891135e-04   1.8488512e-04   9.7250457e-05   2.7560696e-04   2.5456675e-04   2.9570688e-04  -2.8214708e-04  -1.2552879e-05   3.9861840e-04   1.9553505e-04   1.2458974e-04   1.7932785e-04   1.0258662e-04   1.3049397e-04   3.6386284e-04   7.3130446e-05   1.6916003e-04  -8.2336555e-05   2.9320648e-04   3.0371163e-04  -1.6790426e-04   2.2645174e-04  -7.3703454e-06   1.2208091e-04   5.9909344e-05   1.9545520e-04   6.1532548e-05   2.1149190e-04   1.9894162e-04   2.3038524e-04   1.2230779e-04   1.3527619e-04   3.0140043e-04   5.9616560e-04   2.7666014e-04   1.4459011e-04   8.4647373e-04   9.3545596e-04
   2.5783508e-04   6.0262817e-05   1.7278985e-04   1.2490520e-04   1.6773285e-04   4.7831920e-05   5.2360425e-05   3.2497341e-05  -1.2703968e-04  -8.1564247e-04   8.2240564e-05   6.8046924e-05   1.0442182e-04   7.9442427e-05   1.5330761e-05   1.2777762e-04   1.1873803e-04   1.8010155e-04  -6.5715908e-04  -1.7471150e-04   2.7679183e-04  -1.0913503e-05  -5.1949908e-05  -8.1162922e-05  -6.4721520e-05  -5.3939762e-05   2.6061750e-04  -3.2167914e-05   4.5327542e-05  -1.9970314e-04   1.3559862e-04   1.4354344e-04  -3.3212465e-04   3.7764286e-05  -1.0927038e-04   1.7947001e-06  -3.5646040e-05   1.5070880e-04   1.4094659e-05   1.6996665e-04   1.9642197e-04   2.3736454e-04   1.9609918e-04   1.7144925e-04   4.1813927e-04   6.8460859e-04   3.3972124e-04   2.4361863e-04   5.8136549e-04   1.0723533e-03
   3.9237842e-04   2.3342365e-04   2.9748667e-04   3.1187711e-04   2.9167871e-04   2.3680601e-04   2.6491823e-04   2.2089751e-04   1.2345549e-04  -5.0835160e-04   2.0528492e-04   3.7627178e-04   2.6688026e-04   2.2672856e-04   1.7792547e-04   3.0302076e-04   2.7848079e-04   3.2435785e-04  -8.8894034e-05   9.3462841e-05   5.1274576e-04   2.0148617e-04   2.2177605e-04   3.3687291e-04   2.2644165e-04   2.5538440e-04   4.6185867e-04   1.7909614e-04   2.6670960e-04   2.4089890e-05   4.3199639e-04   3.9500030e-04   4.8966540e-05   3.4886424e-04   1.0615077e-04   2.3992723e-04   1.3856548e-04   3.8056701e-04   2.3706883e-04   3.5594817e-04   3.7546791e-04   3.5790540e-04   2.9636433e-04   2.1704841e-04   3.7229279e-04   6.6795590e-04   3.8903029e-04   2.8947092e-04   8.7850768e-04   1.1818641e-03
   4.3434408e-04   2.4590793e-04   3.4392058e-04   2.8188160e-04   3.0017161e-04   2.3786246e-04   2.5504644e-04   2.1359508e-04   1.7955525e-04  -4.3025415e-04   2.1493352e-04   3.1463572e-04   2.9078044e-04   2.5908425e-04   2.1046057e-04   2.7950693e-04   3.6793516e-04   3.4667674e-04   5.2001962e-04   4.3570850e-04  -1.5684717e-03  -1.7892149e-04   1.5910999e-04   2.4756859e-04   1.7269143e-04   2.0246972e-04   4.5145070e-04   1.4993841e-04   3.0343124e-04  -2.4053334e-05   4.3487898e-04   4.3447985e-04   1.0487258e-05   2.6840728e-04   8.1461061e-05   2.0110089e-04   9.2167880e-05   3.4287860e-04   1.1831019e-04   2.9819438e-04   2.9757284e-04   2.8615896e-04   2.0510366e-04   1.0529080e-04   3.1877108e-04   6.5990997e-04   2.5484766e-04   1.4009036e-04   6.0866645e-04   9.4496703e-04
   2.7308185e-04   8.4520027e-05   1.9746125e-04   9.8779608e-05   1.6103915e-04   1.0452430e-04   9.1612332e-05   6.0913844e-05  -2.5483485e-05  -5.5103248e-04   7.9534053e-05   6.0607432e-05   1.6191769e-04   1.7779958e-04   1.5228582e-04   1.3214033e-04   3.2634352e-04   2.4942870e-04   2.5952767e-04   1.7410635e-04  -2.0037557e-03  -2.2560736e-04  -2.5944179e-05  -3.5753710e-05   1.7108117e-05   1.8622704e-05   3.9709779e-04   4.8780134e-05   1.3803656e-04  -1.3970773e-04   3.4259650e-04   2.5890651e-04  -2.3805714e-04   7.1843933e-05  -6.0985218e-05   4.1662086e-05  -1.4782481e-05   1.5333868e-04  -2.2970202e-05   1.5273385e-04   1.9863021e-04   2.0383956e-04   1.2086130e-04   1.2004412e-04   3.7255994e-04   5.1741960e-04   2.8791412e-04   2.4609818e-04   8.4035826e-04   9.1628078e-04
   3.7884479e-04   2.0990701e-04   2.5509109e-04   2.7300985e-04   2.5450587e-04   2.4988706e-04   2.6889297e-04   2.2875208e-04   2.3022419e-04  -3.7966637e-04   1.6306508e-04   3.0194095e-04   2.6359569e-04   2.5385476e-04   2.2804568e-04   2.6233942e-04   4.1055959e-04   2.9643957e-04   1.3633828e-04   2.1799504e-04  -9.4280858e-04  -5.2826962e-04   2.0416673e-04   3.5792269e-04   2.3223434e-04   2.8915933e-04   4.7637318e-04   2.0786963e-04   3.3539950e-04   6.1163140e-05   5.9145951e-04   4.5568004e-04   6.9736809e-05   3.9172746e-04   1.6551146e-04   2.9229725e-04   1.5111826e-04   4.1973192e-04   2.6197929e-04   4.0731268e-04   4.3189802e-04   3.9227511e-04   3.9335061e-04   1.9147371e-04   4.6267026e-04   7.7155442e-04   3.4898231e-04   3.2956179e-04   1.0030086e-03   1.0242942e-03
   4.4835385e-04   2.8936713e-04   2.8739721e-04   2.9509410e-04   2.9629658e-04   2.6723742e-04   2.7449691e-04   2.4476071e-04   2.0581213e-04  -3.8809216e-04   2.0927186e-04   2.8782565e-04   3.1336438e-04   3.2768262e-04   2.4428629e-04   2.5934001e-04   3.5146569e-04   3.5673310e-04   3.3511264e-05   1.2623645e-04  -4.7226853e-04  -3.7460774e-04   2.0093500e-04   2.8058788e-04   2.0252865e-04   2.9288471e-04   4.5937984e-04   1.9437277e-04   3.2154733e-04   4.8003847e-05   5.1029172e-04   4.6578440e-04   8.4663970e-06   3.4248826e-04   1.6459476e-04   2.8310969e-04   1.2977487e-04   3.9576221e-04   1.9891355e-04   3.7858236e-04   4.2671285e-04   3.5264195e-04   3.2285109e-04   1.3157241e-04   3.5244128e-04   7.8505528e-04   2.7160882e-04   2.8227255e-04   5.5452774e-04   8.2986208e-04
   3.0494831e-04   1.5597483e-04   1.4192064e-04   1.4051906e-04   1.8624822e-04   1.6828084e-04   9.5076932e-05   1.1177129e-04   2.3841776e-05  -4.7711632e-04   1.1087469e-04   6.5536071e-05   2.3692953e-04   2.6881657e-04   2.7374658e-04   1.6015249e-04   2.6387142e-04   2.8083925e-04  -7.1607712e-05   6.4193395e-05  -7.3892216e-04  -5.2721845e-04   2.0197353e-05   6.8930502e-05   8.9939000e-05   1.1661736e-04   4.9468747e-04   1.0838194e-04   2.0048479e-04  -7.5814416e-05   3.3525162e-04   2.6133875e-04  -2.1573638e-04   1.3708477e-04   3.7440477e-05   9.0868059e-05   2.0950347e-05   1.3246491e-04  -3.3803793e-05   1.4737654e-04   2.0866375e-04   1.8424685e-04   1.0406295e-04   1.3431211e-04   2.5913093e-04   4.4010550e-04   1.8043289e-04   1.7589028e-04   5.3502276e-04   9.8021037e-04
   2.8771663e-04   9.0884641e-05   2.0252130e-04   2.3065625e-04   2.0884897e-04   2.2229763e-04   2.5371290e-04   1.9148851e-04   2.2819104e-04  -2.2702506e-04   1.9618831e-04   2.5464027e-04   2.2841597e-04   2.0840336e-04   2.3292658e-04   3.2811132e-04   3.2855046e-04   2.6178535e-04   2.9815920e-04   2.4664565e-04  -1.0373661e-03  -5.2839442e-04   1.7135644e-04   3.4372028e-04   2.2355543e-04   2.5545299e-04   4.7413111e-04   1.7295689e-04   2.6891674e-04   3.5351324e-05   5.3473248e-04   3.5504712e-04   1.1971192e-04   3.7644448e-04   1.5451550e-04   2.7810290e-04   1.3830887e-04   3.7989745e-04   2.3027408e-04   4.1002841e-04   4.6825153e-04   3.8739725e-04   4.1205165e-04   2.3524315e-04   3.1947566e-04   5.2145985e-04   3.7642484e-04   3.2166956e-04   1.0350636e-03   9.0817531e-04
   3.6227950e-04   1.9248942e-04   2.7780671e-04   2.4140552e-04   2.5256752e-04   2.2374006e-04   2.7196330e-04   2.1626253e-04   3.0047065e-04  -1.2226622e-04   2.2182024e-04   2.3185344e-04   2.4867893e-04   2.4087323e-04   1.6401806e-04   3.2937562e-04   3.6216850e-04   3.0052147e-04   4.2383236e-04   2.1614322e-04  -1.1168343e-03  -6.8979891e-04   1.2059444e-04   3.0148655e-04   1.6775110e-04   2.2782048e-04   4.1772594e-04   1.4601383e-04   3.4749036e-04   2.4193294e-05   5.2610156e-04   3.8366139e-04  -3.5839825e-05   3.2444188e-04   1.1007756e-04   2.2153708e-04   1.3240658e-04   3.2805261e-04   1.8740269e-04   3.2845308e-04   3.5156007e-04   3.3326971e-04   3.0551301e-04   2.1281671e-04   3.7226922e-04   6.2436896e-04   2.9876194e-04   2.3312704e-04   7.9371018e-04   8.4257463e-04
   2.3922685e-04   9.4870244e-05   1.6717195e-04   1.2539148e-04   1.5379152e-04   1.1985838e-04   1.5618179e-04   1.1244514e-04   4.0203111e-05  -2.4465720e-05   1.2832577e-04   6.5949287e-05   1.6732889e-04   1.7062570e-04   1.2782436e-04   1.9567965e-04   2.6755684e-04   2.4888173e-04   1.4409133e-04   8.9482470e-05  -1.2292227e-03  -8.4395410e-04  -2.5724697e-05   5.9302169e-05   1.3223907e-05   7.2224422e-05   3.7153845e-04   3.1165269e-05   1.7423779e-04  -8.9097455e-05   3.8391264e-04   2.6452538e-04  -2.5873305e-04   1.3785454e-04  -1.4039143e-06   9.4080759e-05   3.0498686e-05   1.5357259e-04   1.4655021e-05   2.1128035e-04   2.2544504e-04   2.2749524e-04   1.7153431e-04   1.5964452e-04   3.2082075e-04   5.6200247e-04   3.2503431e-04   2.8290416e-04   7.3171873e-04   8.2663447e-04
   3.6375277e-04   2.1892879e-04   2.2827327e-04   2.7464613e-04   2.3934715e-04   2.5398450e-04   3.1090149e-04   2.2818352e-04   3.0905861e-04   5.3303636e-04   2.5660475e-04   3.2784033e-04   2.8036576e-04   2.5402376e-04   2.1002068e-04   2.7407362e-04   3.9305951e-04   3.1692750e-04   4.7190770e-04   2.6699610e-04  -1.1318240e-03  -6.3426490e-04   2.0038872e-04   3.8457880e-04   1.9808512e-04   2.8966728e-04   4.5055410e-04   1.9876912e-04   3.8844880e-04   8.2069266e-05   6.8399310e-04   5.1315565e-04   1.0245342e-04   4.7716731e-04   1.8082761e-04   3.1581896e-04   1.8981112e-04   4.3633612e-04   2.5120171e-04   4.3019885e-04   4.1522511e-04   3.7970475e-04   3.6317014e-04   2.5748060e-04   4.1317608e-04   6.9002243e-04   3.9140094e-04   3.1852548e-04   9.7519491e-04   9.1398379e-04
   3.7989498e-04   2.7862092e-04   2.8590008e-04   2.8283818e-04   2.7092799e-04   2.5222765e-04   2.9242566e-04   2.4342266e-04   3.1519553e-04   6.8909646e-04   3.4396778e-04   3.6391729e-04   3.1765201e-04   2.7718244e-04   1.9873449e-04   2.8231778e-04   4.0703671e-04   3.5844400e-04   5.1362789e-04   2.7036679e-04  -1.1035096e-03  -6.6555798e-04   1.7187740e-04   3.2566747e-04   1.5035264e-04   2.2803053e-04   4.4049678e-04   1.5955456e-04   3.2492672e-04   4.1231913e-05   6.1873230e-04   4.8012336e-04   2.9822913e-06   4.1091978e-04   1.1764620e-04   2.4198272e-04   1.6873443e-04   3.7218275e-04   1.4016416e-04   3.3860182e-04   3.2432028e-04   3.1418665e-04   2.4938115e-04   2.2433685e-04   3.4915883e-04   5.5356434e-04   3.0631231e-04   1.6428721e-04   9.2267385e-04   8.6582178e-04
   2.5326555e-04   1.1458883e-04   1.6706472e-04   1.4434263e-04   1.6481215e-04   1.2285745e-04   1.2603145e-04   1.1244141e-04   1.1798518e-04   5.2914280e-04   2.3789912e-04   1.6819940e-04   1.9602943e-04   1.8049481e-04   1.2880890e-04   1.5316041e-04   2.9529800e-04   2.6495886e-04   3.2819013e-04   1.7536286e-04  -1.2094133e-03  -7.4482290e-04   1.6427244e-05   1.7916909e-04   4.1910189e-05   8.6143766e-05   4.2571002e-04   1.2928231e-04   3.1260250e-04  -3.0573086e-05   6.3787535e-04   4.6906018e-04   1.0019880e-04   4.2589614e-04   1.3029779e-04   2.6974836e-04   1.5586150e-04   4.3145963e-04   2.0379519e-04   4.1780589e-04   3.7694199e-04   3.7034939e-04   3.6964979e-04   2.7650487e-04   4.5534552e-04   7.3326059e-04   4.3672914e-04   3.5726270e-04   1.0951328e-03   8.9666806e-04
   4.6877182e-04   3.4839826e-04   3.6486686e-04   3.8002073e-04   3.3618018e-04   3.3748132e-04   3.7583418e-04   2.9420218e-04   4.9308344e-04   9.8683813e-04   4.5983275e-04   5.4801971e-04   3.8774725e-04   3.2031396e-04   2.3502491e-04   3.2581904e-04   4.7974600e-04   4.0588775e-04   6.3339050e-04   3.8038843e-04  -1.0314040e-03  -5.4276630e-04   2.4961666e-04   4.4816107e-04   2.3638691e-04   2.8416808e-04   4.7309650e-04   2.2786886e-04   4.4802617e-04   8.9623980e-05   7.5053296e-04   5.7053071e-04   1.8034104e-04   5.0534745e-04   1.7299048e-04   3.0622355e-04   2.0814946e-04   4.3116006e-04   2.5645120e-04   4.5055928e-04   4.2408417e-04   3.9744470e-04   3.2999337e-04   3.6217063e-04   5.9710350e-04   7.4979564e-04   4.5119558e-04   2.8539923e-04   8.4268989e-04   1.0447197e-03
   4.1410004e-04   3.0884502e-04   3.4939934e-04   3.1305407e-04   3.0054164e-04   2.7814478e-04   2.9857334e-04   2.1424195e-04   3.3884379e-04   8.8034983e-04   4.4649173e-04   4.3745656e-04   3.4655633e-04   2.9300494e-04   2.0598411e-04   2.7040968e-04   4.3213952e-04   3.6702902e-04   6.3737296e-04   3.4272918e-04  -1.0405271e-03  -6.1434531e-04   1.7362382e-04   3.3108689e-04   1.3382321e-04   1.9403220e-04   4.4479614e-04   1.6024512e-04   3.4653643e-04   2.9965491e-05   6.5291021e-04   4.6888570e-04   3.8866656e-05   3.9167848e-04   8.9729627e-05   2.1713504e-04   1.3491191e-04   3.0320490e-04   9.7073644e-05   3.5453832e-04   2.8777478e-04   2.8723650e-04   1.5846794e-04   2.8199327e-04   3.1467612e-04   5.3152215e-04   2.9850955e-04   1.2950321e-04   6.6831266e-04   9.2021690e-04
   2.0845581e-04   7.2428709e-05   2.0049651e-04   1.2441954e-04   1.5118123e-04   1.0287156e-04   1.1294075e-04   3.4809964e-05   1.9482138e-04   5.5705290e-04   2.8442105e-04   1.6773924e-04   1.6897723e-04   1.3526023e-04   9.9406840e-05   1.3950413e-04   2.8975116e-04   2.1581932e-04   2.3494463e-04   1.6546833e-04  -1.1328745e-03  -7.9726393e-04  -4.1184656e-05   7.3227180e-05  -2.6468155e-05  -2.1905225e-05   4.1439338e-04   4.1418170e-05   1.8603640e-04  -9.4811934e-05   5.3827534e-04   3.7841866e-04   4.6097641e-05   3.1486462e-04   6.1280080e-05   1.7813554e-04   1.0917980e-04   3.3812766e-04   1.8012387e-04   3.8741031e-04   3.3857254e-04   3.3017615e-04   3.0300967e-04   2.9360660e-04   4.0095160e-04   5.9145573e-04   3.9653564e-04   3.1705017e-04   8.2364649e-04   1.0887942e-03
   4.4292599e-04   2.8691560e-04   3.3635116e-04   3.7664914e-04   2.9913799e-04   3.1201402e-04   3.8838442e-04   2.8626746e-04   5.1047694e-04   9.9202350e-04   4.4283530e-04   5.1960268e-04   3.5613959e-04   2.8010792e-04   2.3884971e-04   3.3643836e-04   4.6723359e-04   3.5728337e-04   7.4918580e-04   3.8430910e-04  -8.8164461e-04  -5.2166695e-04   2.7904168e-04   4.7709470e-04   2.4330198e-04   2.6620258e-04   4.9890281e-04   2.1116858e-04   3.9944952e-04   9.3215211e-05   6.9394562e-04   5.0145411e-04   1.4884965e-04   4.3795590e-04   1.6270622e-04   2.8017821e-04   1.8052077e-04   3.9759689e-04   2.5434015e-04   4.4008379e-04   4.0913455e-04   3.7953176e-04   3.3082115e-04   3.9003906e-04   5.8127544e-04   6.3039467e-04   4.1296086e-04   3.2571328e-04   1.1065565e-03   1.0156865e-03
   4.1453334e-04   2.7114758e-04   3.4720867e-04   3.2726765e-04   2.8865755e-04   2.8017903e-04   3.3116509e-04   2.4757325e-04   2.4701067e-04   7.9165510e-04   3.8059082e-04   4.1539516e-04   3.4606215e-04   2.9253954e-04   2.3019644e-04   2.7049900e-04   4.2329135e-04   3.6233550e-04   4.1994674e-04   3.1414058e-04  -8.0232532e-04  -5.6475715e-04   2.0146476e-04   3.5726654e-04   1.9124312e-04   2.4183316e-04   4.7534305e-04   1.8643709e-04   3.6452923e-04   8.2295934e-05   6.2360865e-04   4.7502632e-04   1.6261507e-05   3.6204242e-04   1.3195936e-04   2.4767854e-04   1.4743730e-04   3.3391878e-04   1.6903572e-04   3.8328068e-04   3.4680939e-04   3.2400520e-04   2.1102578e-04   3.0077528e-04   4.5836746e-04   7.0261600e-04   2.6680218e-04   2.2217906e-04   5.7169568e-04   7.7597506e-04
   2.1001649e-04   5.8816957e-05   1.8862628e-04   1.5525051e-04   1.3423566e-04   1.1642826e-04   1.5621226e-04   8.8821747e-05   1.0133796e-04   3.9175808e-04   2.1887384e-04   1.5235854e-04   1.9643127e-04   1.8091472e-04   1.5864053e-04   1.5375172e-04   3.0273269e-04   2.5585381e-04   2.0749959e-04   1.7386871e-04  -8.4748154e-04  -6.6583871e-04   5.1872366e-06   8.2978593e-05   3.3616463e-05   5.4282940e-05   4.3300653e-04   6.3594627e-05   1.6157795e-04  -5.8324869e-05   4.0839304e-04   2.8093657e-04  -1.6379701e-04   1.4820839e-04   4.4524859e-06   9.8098790e-05   3.0222129e-05   1.4138683e-04   1.7941305e-05   2.1914353e-04   1.5911851e-04   1.6096218e-04  -1.7487735e-05   1.4479828e-04   2.8252770e-04   4.9540610e-04   1.5994521e-04   1.5084149e-04   8.6938904e-04   8.7435090e-04
   2.4249755e-04   5.4050823e-05   2.0959497e-04   2.6303757e-04   1.7943766e-04   2.2357810e-04   2.8671804e-04   1.5885964e-04   2.8466387e-04   5.2341021e-04   2.4994079e-04   3.5976002e-04   2.4909442e-04   1.9937237e-04   2.3125114e-04   1.9118119e-04   3.6910363e-04   2.9875649e-04   4.4100831e-04   3.3391992e-04  -6.8714615e-04  -4.3077377e-04   1.7829976e-04   3.6395428e-04   2.0970748e-04   2.2975131e-04   4.4678358e-04   1.9862512e-04   3.4736373e-04   8.6862507e-05   6.1056420e-04   4.6074850e-04   1.8339351e-04   3.9261530e-04   1.9034681e-04   2.9769432e-04   1.8202054e-04   4.1007978e-04   3.0526577e-04   4.5297510e-04   3.9670870e-04   3.5218900e-04   3.3804256e-04   2.1600212e-04   5.4524688e-04   7.7242695e-04   3.1951981e-04   3.5849353e-04   9.1370207e-04   9.7638939e-04
   3.7145361e-04   2.2236536e-04   2.8815281e-04   3.2569605e-04   2.4423559e-04   2.5893163e-04   3.3479609e-04   2.0992362e-04   2.1076892e-04   5.7410024e-04   2.9422986e-04   3.7235455e-04   3.2681343e-04   2.7309361e-04   2.6264231e-04   2.4479657e-04   4.2260173e-04   3.4607286e-04   4.8369193e-04   3.6009785e-04  -6.3442969e-04  -3.9252194e-04   2.0593406e-04   3.4487652e-04   2.1499826e-04   2.4645464e-04   4.8826257e-04   2.2594012e-04   3.9271306e-04   8.3258747e-05   5.9431535e-04   4.5693503e-04   1.6062049e-04   3.3322861e-04   1.6729721e-04   2.7453381e-04   1.6744614e-04   3.7284868e-04   2.4614614e-04   3.9169431e-04   3.2051586e-04   2.7766870e-04   2.3314838e-04   2.3163049e-04   5.2233908e-04   6.1690493e-04   2.5278886e-04   2.5493850e-04   9.4061979e-04   8.3111727e-04
   2.6420658e-04   1.1591223e-04   1.8300395e-04   2.0653683e-04   1.4861123e-04   1.6918498e-04   2.0038353e-04   9.3349154e-05  -6.7690121e-06   3.2530547e-04   2.0999117e-04   1.6951340e-04   2.2106270e-04   2.0043371e-04   2.0413793e-04   1.5184605e-04   3.2838990e-04   2.6287948e-04   3.1041261e-04   2.4433140e-04  -7.4425229e-04  -5.6306383e-04   7.2449380e-05   1.2164168e-04   7.1982540e-05   7.6926430e-05   4.0592992e-04   8.9277361e-05   2.5808861e-04  -4.0857591e-05   4.2222475e-04   2.9718308e-04  -7.7545192e-05   1.2943566e-04   5.6948582e-05   1.1761243e-04   5.6141016e-05   1.4972487e-04   5.6753146e-05   2.3899996e-04   1.7459052e-04   1.2094726e-04   1.1818122e-05   3.7662401e-05   2.5513681e-04   5.1355618e-04   8.4145155e-05   5.9996579e-05   8.3394320e-04   7.9320825e-04
   4.4230987e-05  -1.3399242e-04  -2.6655491e-07   6.4304786e-06  -1.5235939e-05  -7.0035690e-06   6.4179180e-06  -7.9548954e-05  -1.5430187e-04   4.7750913e-05   8.9521473e-06  -9.2681832e-05   6.5112348e-05   5.6846075e-05   1.2420393e-04   4.3974745e-05   2.2355773e-04   1.5335802e-04   2.7939313e-04   1.9917554e-04  -7.7628833e-04  -5.4932607e-04   5.4088170e-05   1.9400359e-04   1.1258517e-04   9.9721961e-05   4.4848723e-04   1.4210085e-04   1.9494393e-04  -9.9545305e-06   4.9422309e-04   3.3867088e-04   6.6255256e-05   2.2909838e-04   1.3072375e-04   2.1573853e-04   1.1394249e-04   3.1526433e-04   2.1157593e-04   3.3609514e-04   2.8743749e-04   2.3121883e-04   1.7912942e-04   1.3131731e-04   3.1629240e-04   6.0366280e-04   2.6981969e-04   2.5837001e-04   5.3602038e-04   7.5118279e-04
   3.2915070e-04   1.6453450e-04   2.2842744e-04   2.9673552e-04   1.8355418e-04   2.4134912e-04   3.0667888e-04   1.8323566e-04   9.5064875e-05   3.1891293e-04   1.6988014e-04   2.8011471e-04   2.5741704e-04   2.4305934e-04   2.6376446e-04   1.6851346e-04   3.3512164e-04   2.8681546e-04   3.6643917e-04   2.6941893e-04  -7.5419369e-04  -5.2174553e-04   1.2091604e-04   2.5579505e-04   2.0953741e-04   2.0439825e-04   4.4133471e-04   1.9772291e-04   2.7422179e-04   6.7391324e-05   4.8836321e-04   3.4626148e-04   4.7729802e-05   2.6936212e-04   1.5717767e-04   2.7628793e-04   1.2104018e-04   3.3444766e-04   2.3947646e-04   3.6311636e-04   3.5216208e-04   2.8647122e-04   1.7095813e-04   4.0145027e-05   3.3191399e-04   5.8959681e-04   2.8509009e-04   2.4087120e-04   4.7321027e-04   6.6863536e-04
   2.3291181e-04   5.8436151e-05   1.8376223e-04   1.7132609e-04   1.1869548e-04   1.5287309e-04   1.9395580e-04   1.1519720e-04   1.2911654e-04   1.1014420e-04   9.7071439e-05   1.5529210e-04   1.8998738e-04   2.0342993e-04   2.2118211e-04   1.0517946e-04   2.7340080e-04   2.4593703e-04   3.1464576e-04   1.7299998e-04  -8.5734529e-04  -6.5405009e-04   4.4310000e-05   9.2616901e-05   9.8163662e-05   1.0609350e-04   3.8906463e-04   1.4098782e-04   1.9058584e-04   2.2407554e-05   3.6862731e-04   2.6057212e-04  -1.4992105e-04   1.3643125e-04   8.9435234e-05   1.7942491e-04   4.4078181e-05   1.8626658e-04   1.1881458e-04   1.9227742e-04   2.3372067e-04   1.7190167e-04   6.0815375e-07  -1.2616672e-04   2.8641647e-04   3.4390218e-04   1.0476773e-04   7.9523525e-05   5.5817585e-04   4.3595393e-04
  -7.7198374e-06  -2.0830415e-04  -2.5742034e-05  -2.7217560e-05  -4.8460592e-05  -4.1554867e-05  -2.7064667e-05  -7.7807126e-05  -8.5426334e-05  -1.7242327e-04  -9.7438991e-05  -1.3941553e-04   2.7443632e-06   4.0393537e-05   1.0602892e-04  -5.6214303e-05   1.3143470e-04   1.2790844e-04  -1.7075072e-05   2.4701401e-05  -9.6729782e-04  -8.1397122e-04  -1.4563389e-04  -1.7239570e-04  -7.5299213e-05  -1.2385407e-04   3.0373124e-04   1.9238276e-05   7.0420414e-05  -9.6881879e-05   2.7525041e-04   1.9186828e-04  -1.7307099e-04   8.2824707e-05   3.4932094e-05   1.0666619e-04   6.4505120e-06   2.2418129e-04   1.8161017e-04   2.4609856e-04   2.3362087e-04   1.8275696e-04   1.2209000e-04  -7.4495249e-05   2.9075480e-04   5.4583879e-04   2.2109627e-04   2.1539013e-04   3.3012041e-04   5.0219172e-04
   1.9008743e-04   2.7193764e-05   1.3533847e-04   1.9812041e-04   9.9749857e-05   1.4525265e-04   2.4010711e-04   1.1197563e-04   4.6191981e-05   1.8682228e-04   4.4682492e-05   2.0501796e-04   1.4877311e-04   1.5520536e-04   2.0319562e-04   8.3955871e-05   2.9188799e-04   2.3796281e-04   3.5662806e-04   2.3741230e-04  -8.1924128e-04  -5.7373720e-04   5.4301716e-05   1.8514847e-04   1.6884487e-04   1.3102421e-04   3.9500374e-04   1.7810696e-04   2.5834428e-04   7.9618803e-05   3.9358603e-04   3.2074720e-04  -5.2574735e-05   2.4040374e-04   1.3752151e-04   1.9960052e-04   8.2346342e-05   2.8320862e-04   2.3082791e-04   2.7302164e-04   2.5685286e-04   2.2145570e-04   9.8855257e-05  -9.2194670e-05   2.8267625e-04   4.1454216e-04   2.0138381e-04   1.8951505e-04   1.5915850e-04   4.9866614e-04
   1.6602624e-04   2.1812534e-06   1.0932830e-04   1.5383818e-04   8.0133104e-05   1.1214067e-04   1.6527394e-04   8.4779567e-05   9.0898739e-06   1.0472303e-04   2.0907821e-05   1.1115861e-04   1.2400877e-04   1.5333729e-04   1.7527860e-04   7.9088124e-05   2.6730110e-04   2.3055899e-04   1.4069374e-04   1.8520260e-04  -8.7480003e-04  -6.5372209e-04  -1.8604671e-05   4.9052767e-05   9.4065494e-05   6.9481874e-05   3.5782720e-04   1.3451786e-04   2.2325393e-04   4.0422496e-05   3.3926216e-04   2.6610628e-04  -1.5662480e-04   1.5102235e-04   6.3340558e-05   1.6449933e-04   3.4519828e-05   2.1776312e-04   1.5410892e-04   2.1670919e-04   1.7715746e-04   1.4909335e-04  -1.5796137e-06  -8.4019775e-05   1.8110735e-04   3.2487846e-04   1.0453504e-04   5.9917395e-05   1.9452252e-04   4.4815731e-04
  -2.8352199e-05  -1.9470333e-04  -4.3717169e-05  -1.3184012e-05  -5.8827663e-05  -4.3627031e-05  -9.8489436e-06  -7.4950745e-05  -2.0181207e-04  -1.5266069e-04  -1.2708730e-04  -1.2915135e-04  -3.0077803e-05   2.0482239e-05   7.0205213e-05  -5.3895474e-05   1.3824199e-04   1.2281699e-04  -2.7120670e-05   5.4555308e-05  -9.9317811e-04  -7.7919359e-04  -1.5186297e-04  -9.5997260e-05  -5.3272990e-05  -1.1460482e-04   2.9149081e-04   7.0032249e-05   1.5304636e-04  -2.3253699e-05   3.5501790e-04   2.5026829e-04  -7.4505704e-05   1.6232971e-04   8.1757273e-05   1.6961426e-04   4.2678013e-05   2.8363144e-04   2.0279277e-04   2.7943737e-04   2.6688850e-04   2.1547540e-04   1.1242097e-04  -1.3305478e-04   1.6323262e-04   4.9328886e-04   2.2938770e-04   2.2027793e-04   1.7358223e-04   5.0439074e-04
   2.1536791e-04   5.4819295e-05   1.3848099e-04   2.1832476e-04   1.1816099e-04   1.5724987e-04   2.7087328e-04   1.6588782e-04   5.3806012e-05   2.8024198e-04   5.3639826e-05   2.2046521e-04   1.5311166e-04   1.8305540e-04   1.8429571e-04   1.3078496e-04   3.0750103e-04   2.8269304e-04   3.1994295e-04   2.4842896e-04  -8.5299701e-04  -5.9632002e-04   8.8084373e-05   1.9103225e-04   1.7075517e-04   1.3264976e-04   3.8117403e-04   1.8941240e-04   2.7733875e-04   1.0370966e-04   4.4182249e-04   3.5866105e-04  -3.1208710e-05   2.5147322e-04   1.3516001e-04   2.2352517e-04   9.7970369e-05   3.1973940e-04   2.3710931e-04   2.9446930e-04   2.9440669e-04   2.5679122e-04   1.7367209e-04  -8.8673958e-05   2.6840038e-04   4.4156899e-04   2.2843675e-04   2.0712194e-04   7.9857308e-04   4.4927982e-04
   1.8482094e-04   2.4912953e-05   1.2478732e-04   1.5988246e-04   9.5627642e-05   1.1157821e-04   1.9289106e-04   1.2237430e-04  -2.0371872e-06   1.6701176e-04   3.2445860e-05   1.2218308e-04   1.2558697e-04   1.5644907e-04   1.5743542e-04   1.2372373e-04   2.9944259e-04   2.8016116e-04   1.7865541e-04   2.0840089e-04  -9.1668655e-04  -6.8595668e-04   2.0148604e-05   8.3395484e-05   9.5727097e-05   9.1397429e-05   3.7930062e-04   1.4796309e-04   2.6326443e-04   6.4240070e-05   3.8904589e-04   3.1258605e-04  -1.5007105e-04   1.8158898e-04   7.5789132e-05   1.6573509e-04   5.1793515e-05   2.0415771e-04   1.3105728e-04   1.7898617e-04   2.1766253e-04   1.7404044e-04   4.9320166e-05  -1.2405340e-04   1.1545262e-04   2.9355893e-04   8.3112573e-05   1.0123860e-04   2.8479137e-04   3.9616774e-04
  -3.4341858e-06  -1.6721939e-04  -1.3908662e-05   2.6081495e-06  -1.4685895e-05  -3.1492229e-05   4.6773283e-05  -2.9754556e-06  -1.2918952e-04   1.0087372e-04  -3.5426310e-05  -1.8296350e-06   6.6519977e-05   9.8688593e-05   1.2321325e-04   1.2559655e-04   2.7853914e-04   2.5503113e-04   3.9593136e-04   2.5302425e-04  -8.9749385e-04  -6.1972829e-04   1.0943264e-04   2.6915921e-04   1.9608250e-04   1.6394396e-04   4.3090549e-04   2.2183247e-04   3.2792054e-04   1.3635472e-04   5.3147372e-04   4.0216453e-04   8.4132575e-05   3.6389101e-04   1.7458617e-04   2.7434475e-04   1.2239032e-04   3.9146253e-04   3.0670443e-04   3.6911570e-04   3.7950525e-04   3.3629959e-04   3.0274605e-04  -5.4381348e-05   3.2716972e-04   4.5149599e-04   3.4155798e-04   3.5257527e-04   5.0179509e-04   6.9739280e-04
   3.4752511e-04   1.9198755e-04   2.7440675e-04   3.0096684e-04   2.0904883e-04   2.2226866e-04   3.2451359e-04   2.8595768e-04   1.6033220e-04   4.4501980e-04   1.6754503e-04   2.8441846e-04   2.4200763e-04   2.6710692e-04   2.1728815e-04   2.6160231e-04   4.1969621e-04   3.9411371e-04   3.6211321e-04   3.6223425e-04  -8.6982333e-04  -5.6726596e-04   2.1802896e-04   3.2242871e-04   2.4165015e-04   2.4903944e-04   4.7671006e-04   2.7175315e-04   4.6139830e-04   2.0929637e-04   6.1518844e-04   5.1758788e-04   1.2232013e-04   4.2944992e-04   2.0352758e-04   3.0858436e-04   1.7237909e-04   4.3756384e-04   3.2307356e-04   3.9371254e-04   4.1842798e-04   3.7452628e-04   3.4859014e-04   8.9542344e-05   2.9575644e-04   5.1940628e-04   3.0121044e-04   2.9685700e-04   6.5418764e-04   6.0869817e-04
   2.8995815e-04   1.3898936e-04   2.3840617e-04   2.2151084e-04   1.8428790e-04   1.8812892e-04   2.4631631e-04   2.0552806e-04   1.8106890e-04   3.7532634e-04   1.7399946e-04   2.0242855e-04   2.2547795e-04   2.4611905e-04   1.9333270e-04   2.5292486e-04   3.9124690e-04   3.7703593e-04   1.5088147e-04   2.9309138e-04  -9.3941443e-04  -6.5320579e-04   1.2328940e-04   2.2824503e-04   1.5312813e-04   1.7227195e-04   4.4279551e-04   1.9009531e-04   3.8546597e-04   1.3120557e-04   5.0932233e-04   4.2389904e-04  -3.5603174e-05   3.1192732e-04   1.1267228e-04   1.9074966e-04   9.5062198e-05   2.6813775e-04   1.9119450e-04   2.1984889e-04   2.8942258e-04   2.7946691e-04   1.3200672e-04  -3.5674435e-05   2.2310788e-04   3.6658201e-04   1.8845548e-04   1.2936381e-04   4.1829463e-04   4.2013018e-04
   1.2559952e-04  -3.5040612e-05   1.3953692e-04   1.2328420e-04   1.4464067e-04   1.3189141e-04   2.0187805e-04   1.6562945e-04   1.5859006e-04   4.8685886e-04   1.8136152e-04   2.6421688e-04   2.3690473e-04   2.2673150e-04   2.1137790e-04   2.8114830e-04   4.2970167e-04   3.8530692e-04   4.2991436e-04   3.8946874e-04  -8.9118403e-04  -5.3166039e-04   2.3689623e-04   4.2765410e-04   2.8400001e-04   2.9333675e-04   5.1818375e-04   2.9149832e-04   5.5790908e-04   2.3253316e-04   7.0751650e-04   5.8663473e-04   2.6799110e-04   5.3679553e-04   2.4418571e-04   3.5063570e-04   1.9642308e-04   5.3818687e-04   3.9188541e-04   4.1571844e-04   5.1306206e-04   4.7382084e-04   4.5363250e-04   2.4550385e-04   4.4925336e-04   6.1156077e-04   4.4011592e-04   4.0576013e-04   3.3602974e-04   6.7715492e-04
   4.8483015e-04   3.7660412e-04   3.8184677e-04   3.8590570e-04   3.3470898e-04   3.2754877e-04   4.0663366e-04   4.2505760e-04   3.1794058e-04   7.5114850e-04   3.9723472e-04   4.5031548e-04   4.0951418e-04   3.6999895e-04   2.7523265e-04   3.9844782e-04   5.6263292e-04   5.3641893e-04   5.1476387e-04   4.9697520e-04  -8.3713315e-04  -4.6003883e-04   3.5259599e-04   5.1172107e-04   3.4339324e-04   3.6473075e-04   5.7627395e-04   3.4229722e-04   6.4447394e-04   2.7998321e-04   7.8562606e-04   6.6658464e-04   2.7622885e-04   6.0084893e-04   2.5990861e-04   3.6841389e-04   2.2529151e-04   5.4508809e-04   3.8950698e-04   4.7918959e-04   4.8523388e-04   4.7715841e-04   3.9232743e-04   2.8277448e-04   4.5768963e-04   5.9030560e-04   4.3512849e-04   3.3244691e-04  -7.3712159e-05   5.6587631e-04
   4.3461021e-04   3.1559778e-04   3.7935295e-04   3.1551850e-04   3.1911233e-04   2.8514690e-04   3.3018072e-04   3.7291710e-04   4.8240120e-04   6.2192191e-04   3.9814759e-04   3.5931563e-04   3.7103638e-04   3.5502732e-04   2.4730267e-04   3.7185030e-04   5.1389524e-04   4.9781316e-04   4.6830165e-04   4.0680205e-04  -9.2978391e-04  -5.9114146e-04   2.5338595e-04   3.5601770e-04   2.4432075e-04   2.5681697e-04   5.3599774e-04   2.5354957e-04   5.2896497e-04   1.9402690e-04   6.8570551e-04   5.6332437e-04   9.9781129e-05   4.5888664e-04   1.6120933e-04   2.4337122e-04   1.4882874e-04   3.8632946e-04   2.4603156e-04   3.5553155e-04   3.7554494e-04   3.6208463e-04   2.4190203e-04   2.1714169e-04   3.6052466e-04   4.5068347e-04   2.8567883e-04   1.9010522e-04   3.8012167e-04   3.9276158e-04
   2.5358098e-04   1.1185368e-04   2.2867086e-04   1.4356848e-04   1.8884665e-04   1.4861776e-04   1.5154580e-04   1.6525616e-04   2.3150054e-04   3.8163524e-04   2.6149233e-04   1.5701872e-04   2.3459848e-04   2.1772635e-04   1.6474904e-04   2.6192900e-04   4.1312468e-04   3.8183932e-04   3.9012873e-04   3.4637010e-04  -9.7807462e-04  -5.9264182e-04   2.1564818e-04   3.7380346e-04   2.3553237e-04   2.2160030e-04   5.4861617e-04   2.7538787e-04   5.5807858e-04   2.0396306e-04   7.4507861e-04   5.9934577e-04   2.7322234e-04   5.6942081e-04   2.2937827e-04   3.3401148e-04   2.0786787e-04   5.1015924e-04   4.0340819e-04   4.5725095e-04   4.5624952e-04   4.5641712e-04   4.2237944e-04   3.6010833e-04   4.5066240e-04   6.0170784e-04   4.7217173e-04   3.8452900e-04   3.6593384e-04   6.9891429e-04
   5.5915758e-04   4.4185080e-04   4.8044955e-04   4.4890051e-04   4.2264065e-04   4.2199777e-04   4.7107946e-04   4.7039802e-04   5.4128777e-04   9.4786880e-04   5.2116113e-04   5.9761753e-04   4.8654620e-04   4.4669319e-04   3.1670416e-04   4.5686940e-04   6.0351781e-04   5.6070345e-04   6.5325596e-04   5.3061190e-04  -8.9128118e-04  -4.5860343e-04   4.2075195e-04   5.8416993e-04   3.7913834e-04   4.1040019e-04   6.1967847e-04   3.6889408e-04   6.7017012e-04   3.1595785e-04   8.5371197e-04   7.3717267e-04   3.3682841e-04   6.8527734e-04   3.0679529e-04   3.9965790e-04   2.7162011e-04   5.6997110e-04   4.2133927e-04   5.6526635e-04   5.4571423e-04   5.3519744e-04   4.6258318e-04   4.3864618e-04   4.8044987e-04   7.3725841e-04   5.0237775e-04   3.8555774e-04   5.8201654e-04   7.3894387e-04
   5.6208286e-04   4.4123479e-04   4.8292361e-04   4.0135573e-04   4.2348329e-04   3.9326143e-04   4.2426804e-04   4.2973261e-04   5.5490184e-04   8.7371236e-04   5.3172081e-04   5.0226680e-04   4.8688857e-04   4.5053687e-04   3.0850858e-04   4.2293072e-04   5.7212339e-04   5.7031104e-04   5.8152300e-04   4.7281105e-04  -9.4107731e-04  -5.1780359e-04   3.7577917e-04   5.0415104e-04   3.5148699e-04   3.4898645e-04   6.0185546e-04   3.3579057e-04   6.5030623e-04   2.7682877e-04   7.6259312e-04   6.4476934e-04   1.8962671e-04   5.7490857e-04   2.4705598e-04   3.3310434e-04   2.1939642e-04   4.5670374e-04   3.5003689e-04   4.6611595e-04   4.8276081e-04   4.4243436e-04   3.1790047e-04   3.0660472e-04   4.2958648e-04   6.0609204e-04   3.7472657e-04   2.5537130e-04   6.4538838e-04   6.7951687e-04
   3.7469037e-04   2.4538499e-04   3.4870356e-04   2.3284978e-04   3.0070150e-04   2.6328219e-04   2.7354312e-04   2.5364241e-04   4.3049332e-04   6.5717305e-04   4.0584177e-04   2.8321319e-04   3.5605510e-04   3.2772671e-04   2.3892727e-04   3.0223012e-04   4.4911113e-04   4.2575464e-04   3.9738743e-04   3.2241814e-04  -1.0607678e-03  -6.7899859e-04   2.0981110e-04   2.4258232e-04   1.8847932e-04   1.7773654e-04   5.2798155e-04   2.2692367e-04   4.5506930e-04   1.5202224e-04   5.8620743e-04   4.9491279e-04  -1.3183528e-05   3.6920485e-04   1.1489277e-04   1.9596929e-04   1.2119752e-04   3.2287699e-04   2.1271074e-04   3.4264612e-04   3.3416520e-04   3.6607028e-04   2.4935990e-04   2.3983288e-04   4.0827543e-04   6.3421688e-04   4.1758223e-04   3.4674114e-04   5.9383200e-04   5.9569918e-04
   5.2023545e-04   3.8098331e-04   4.3638746e-04   3.9408292e-04   3.9326653e-04   3.9890668e-04   4.5835564e-04   3.9969597e-04   5.5329211e-04   9.4477978e-04   4.8888213e-04   5.1954994e-04   4.5484432e-04   4.2213686e-04   3.0506888e-04   4.2662755e-04   5.4130418e-04   5.2363629e-04   6.1085518e-04   4.7666908e-04  -9.3407760e-04  -4.8897596e-04   4.6425415e-04   6.0578581e-04   4.1860397e-04   4.1491369e-04   6.1147043e-04   4.0888056e-04   6.8952818e-04   3.3506894e-04   8.0214726e-04   6.9347839e-04   3.1343344e-04   6.6641381e-04   3.1392102e-04   4.3108308e-04   2.8803936e-04   6.0959777e-04   4.5232184e-04   5.9307500e-04   5.6150323e-04   5.2230107e-04   4.3495419e-04   3.8137520e-04   4.4190179e-04   6.5051566e-04   4.8485937e-04   3.8766468e-04   5.3159642e-04   7.0004625e-04
   5.9624296e-04   4.6090578e-04   4.9459888e-04   4.2873493e-04   4.3987852e-04   4.2647219e-04   4.7324432e-04   3.9326248e-04   5.9439876e-04   1.0146853e-03   5.5960350e-04   5.3067011e-04   5.0268549e-04   4.7253724e-04   3.3953934e-04   4.4066441e-04   5.4731418e-04   5.4796023e-04   5.9408415e-04   4.6521149e-04  -9.4826228e-04  -5.0008978e-04   4.5079592e-04   5.5464485e-04   3.9933302e-04   4.0249852e-04   6.2020234e-04   3.9767829e-04   6.6319591e-04   3.1833927e-04   7.3986017e-04   6.7553204e-04   2.4926726e-04   6.1517692e-04   2.9879747e-04   3.7679318e-04   2.7272906e-04   5.3431193e-04   3.8893303e-04   5.2501872e-04   4.9177499e-04   4.6788435e-04   3.6774398e-04   3.6583791e-04   3.3292366e-04   6.5292954e-04   3.7654556e-04   2.7613711e-04   2.5059597e-04   4.2270386e-04
   4.7474151e-04   3.5183746e-04   3.7373760e-04   3.0094496e-04   3.4433420e-04   3.4269420e-04   3.3979691e-04   2.9937580e-04   3.8524260e-04   7.9927029e-04   4.6836960e-04   3.5081102e-04   3.9613876e-04   3.6312570e-04   2.7559366e-04   3.1679342e-04   4.5459913e-04   4.8378287e-04   4.4420379e-04   3.5041373e-04  -1.0290969e-03  -6.0830405e-04   2.8688335e-04   3.3530971e-04   2.4792179e-04   2.4741658e-04   5.4412259e-04   2.7197055e-04   5.2627100e-04   1.9340978e-04   5.9785252e-04   5.4390932e-04   4.6715253e-05   3.7254728e-04   1.7321957e-04   2.4702167e-04   1.8629279e-04   3.3362649e-04   2.2370121e-04   3.5135425e-04   3.5152980e-04   3.0678406e-04   1.7257636e-04   2.7723331e-04   2.8042297e-04   4.7443600e-04   2.6945653e-04   2.7273380e-04   4.9729872e-04   6.1543041e-04
   4.9601228e-04   3.8269229e-04   3.9883581e-04   4.1554915e-04   3.8527889e-04   4.3558949e-04   4.8255219e-04   3.8147814e-04   6.0280965e-04   1.0095109e-03   5.0255895e-04   5.2025472e-04   4.7611992e-04   4.2383335e-04   3.4473123e-04   3.7438501e-04   5.1951694e-04   5.0157175e-04   5.8079016e-04   4.8818588e-04  -9.0613437e-04  -4.1735673e-04   4.7953345e-04   5.9708336e-04   4.1644776e-04   4.4391939e-04   6.1159168e-04   4.1134527e-04   6.6796941e-04   3.4261696e-04   8.1471243e-04   6.9440552e-04   3.4572539e-04   6.3593668e-04   3.5367932e-04   4.4190235e-04   3.3649598e-04   5.9631892e-04   4.8499866e-04   6.3802087e-04   5.7152432e-04   5.0551380e-04   4.5624314e-04   4.0861071e-04   6.6778919e-04   7.7241933e-04   4.3869347e-04   3.9043985e-04   4.5756187e-04   7.3173043e-04
   6.0198887e-04   4.9375155e-04   4.5327834e-04   4.5227079e-04   4.2207827e-04   4.6329107e-04   5.0656986e-04   4.4562755e-04   6.8693934e-04   1.0388477e-03   5.7177461e-04   5.3551787e-04   5.3872087e-04   4.8891630e-04   3.8447173e-04   4.1779937e-04   5.4587628e-04   5.6339503e-04   6.5087300e-04   4.7291914e-04  -9.0182503e-04  -4.2915146e-04   4.7906232e-04   6.3244987e-04   4.3266747e-04   4.7204093e-04   6.3843030e-04   4.2667057e-04   6.6373055e-04   3.4027468e-04   7.6493894e-04   6.6618924e-04   2.4899663e-04   5.8982510e-04   3.3059408e-04   4.2259559e-04   3.3096952e-04   5.5400038e-04   4.0698797e-04   6.2958145e-04   5.3251395e-04   4.5194896e-04   3.8179752e-04   3.8397557e-04   4.7801487e-04   6.3988438e-04   3.5774501e-04   3.4022518e-04   7.4388657e-04   6.3382753e-04
   4.9586419e-04   3.7596637e-04   3.4787366e-04   3.1142708e-04   3.2738896e-04   3.6476759e-04   3.6750041e-04   3.1325442e-04   4.9384200e-04   8.4890740e-04   4.6755344e-04   3.4485431e-04   4.3465450e-04   4.0034609e-04   3.1621693e-04   2.9409784e-04   4.3707938e-04   4.3420453e-04   4.6752553e-04   3.2413073e-04  -9.9437614e-04  -5.7274225e-04   3.4574821e-04   3.8203193e-04   2.6859844e-04   3.0269500e-04   5.5623491e-04   2.8290731e-04   5.1951228e-04   1.8712234e-04   5.5682991e-04   4.8786716e-04   3.4095388e-05   3.3829530e-04   2.0247766e-04   2.7081510e-04   2.1304103e-04   3.4407544e-04   2.2564468e-04   3.6875869e-04   3.5334629e-04   2.9812995e-04   1.8369894e-04   2.8658719e-04   1.5725034e-04   4.9962086e-04   2.1283569e-04   1.1553016e-04   1.7372263e-04   3.3543058e-04
   2.8499146e-04   1.7853390e-04   2.3271552e-04   2.1286479e-04   2.5608746e-04   3.1736522e-04   3.1298178e-04   2.2844909e-04   4.7340864e-04   9.4452617e-04   4.5986276e-04   4.1137394e-04   4.1179123e-04   3.5332478e-04   3.2771370e-04   2.9941573e-04   4.2643046e-04   3.7031114e-04   4.6644898e-04   3.8859432e-04  -9.3797402e-04  -4.9931009e-04   4.3086492e-04   6.0653989e-04   3.8658141e-04   3.8573032e-04   5.9819699e-04   3.5645999e-04   5.7160109e-04   2.5067863e-04   6.6037581e-04   5.6104345e-04   2.9980592e-04   5.0652458e-04   3.2565059e-04   3.9516020e-04   2.9868970e-04   5.1773095e-04   4.1706202e-04   5.3969707e-04   4.8089836e-04   4.7861581e-04   4.0888577e-04   3.7056004e-04   4.0770473e-04   5.6960911e-04   4.5284393e-04   3.7896738e-04   6.2810211e-04   6.4022554e-04
   6.1014865e-04   5.0497404e-04   4.2651978e-04   4.2526334e-04   3.8755170e-04   4.4648672e-04   4.5075646e-04   3.7466502e-04   6.7205756e-04   1.0734693e-03   5.8654870e-04   5.3207978e-04   5.1252119e-04   4.2766021e-04   3.4554626e-04   3.7285840e-04   4.7176023e-04   4.5585344e-04   7.0697011e-04   4.1155916e-04  -9.2210923e-04  -4.8139974e-04   4.8769286e-04   6.5849372e-04   4.6356692e-04   4.3143355e-04   6.4275198e-04   3.9255252e-04   5.9417164e-04   2.7133824e-04   6.4663036e-04   5.7256926e-04   2.5885089e-04   5.0502038e-04   3.1821241e-04   4.0884380e-04   3.0708121e-04   4.5360558e-04   3.7720034e-04   4.9817836e-04   5.2757142e-04   4.5570903e-04   3.6474472e-04   2.6190930e-04   3.6496334e-04   6.6793885e-04   4.3085977e-04   3.1527408e-04   3.7335293e-04   5.6262640e-04
   5.1476678e-04   3.8382362e-04   3.6762122e-04   3.1834663e-04   3.2553222e-04   3.5827525e-04   3.6844023e-04   2.9225557e-04   5.2856148e-04   9.0470549e-04   4.9800240e-04   3.9238317e-04   4.3478282e-04   3.6407291e-04   3.0591310e-04   2.9827273e-04   3.7947411e-04   3.8304552e-04   4.0637518e-04   2.7749021e-04  -1.0378390e-03  -6.2781683e-04   3.4484622e-04   4.6100203e-04   3.3394940e-04   3.0815203e-04   5.4116710e-04   2.9714726e-04   4.5809068e-04   1.7823323e-04   4.6915395e-04   4.1478264e-04   1.5024014e-05   3.3515133e-04   2.0968710e-04   2.7459190e-04   1.8408486e-04   2.9583953e-04   1.9373307e-04   3.3074274e-04   3.3146431e-04   3.3283292e-04   1.7161955e-04   1.6504218e-04   1.1001876e-04   2.7806862e-04   2.7708104e-04   1.4049571e-04   4.9382111e-04   3.2390657e-04
   2.7279113e-04   1.3982021e-04   1.8680106e-04   1.1266897e-04   1.6048086e-04   1.9009161e-04   1.4886777e-04   1.0794873e-04   3.1284257e-04   6.3558610e-04   3.2174023e-04   1.4891820e-04   2.4049683e-04   2.0786271e-04   1.9508152e-04   1.3958861e-04   2.2864591e-04   2.2496666e-04   4.0488070e-04   1.5315370e-04  -1.1284349e-03  -7.3797390e-04   2.1408348e-04   3.2398888e-04   2.1523990e-04   1.6285171e-04   5.2537874e-04   2.5373854e-04   4.1973410e-04   1.1685968e-04   4.1425048e-04   3.7878807e-04   1.1943989e-04   3.5417548e-04   2.3261779e-04   3.0812889e-04   1.9597821e-04   3.5941243e-04   3.2717135e-04   4.0176406e-04   3.8225082e-04   3.9441290e-04   3.0352565e-04   2.0579752e-04   1.1069477e-04   3.2074025e-04   4.2822128e-04   3.1089099e-04   2.6119241e-04   5.2278955e-04
   5.0841819e-04   3.7260199e-04   3.8097784e-04   3.8850491e-04   3.1201250e-04   3.9743085e-04   4.5448361e-04   3.5831146e-04   5.7934201e-04   1.0839497e-03   4.7751702e-04   5.4766028e-04   4.3666802e-04   3.5508926e-04   3.4211719e-04   3.1380137e-04   3.7158994e-04   3.7675764e-04   7.1861007e-04   3.2553711e-04  -1.0158251e-03  -5.4887729e-04   4.5795873e-04   6.0332776e-04   4.1021060e-04   3.6790909e-04   5.7196250e-04   3.5966400e-04   5.9035403e-04   2.4633910e-04   5.0653133e-04   4.8574098e-04   1.6171543e-04   4.3480174e-04   2.9504899e-04   3.5386111e-04   2.6018551e-04   4.1776142e-04   3.5236499e-04   4.1568710e-04   4.8589197e-04   4.5687385e-04   3.5980070e-04   1.9021524e-04   2.6277936e-04   4.7830984e-04   4.2778353e-04   3.3602610e-04   1.3791100e-05   5.2805658e-04
   4.6102685e-04   3.3594453e-04   3.6201699e-04   3.3102167e-04   2.8925575e-04   3.3956862e-04   3.9538936e-04   3.0489344e-04   4.5009208e-04   9.7547116e-04   4.4659883e-04   4.3105255e-04   4.0089904e-04   3.2555906e-04   2.9587277e-04   2.7890434e-04   3.3514635e-04   3.6783173e-04   4.8167646e-04   2.6648812e-04  -1.0624888e-03  -6.3311367e-04   3.6688810e-04   4.9452431e-04   3.4506695e-04   3.0303051e-04   5.2769051e-04   3.1530324e-04   5.1767356e-04   1.9716426e-04   4.0720752e-04   4.1133395e-04   4.1028405e-05   3.4303780e-04   2.1966612e-04   2.6783883e-04   1.8068652e-04   3.0118608e-04   2.2666283e-04   2.9724630e-04   3.8191347e-04   3.4258392e-04   1.9640166e-04   7.9786769e-05   1.3363932e-04   1.9102301e-04   2.5778255e-04   2.0785107e-04   1.8021457e-04   2.1119264e-04
   2.6548427e-04   1.1681554e-04   2.0676409e-04   1.5104734e-04   1.4268688e-04   1.7702238e-04   2.3279488e-04   1.3992308e-04   3.1056520e-04   7.3074008e-04   2.7326241e-04   1.6969735e-04   2.2532670e-04   1.8710703e-04   1.9806677e-04   1.3604303e-04   2.1712395e-04   2.3611839e-04   3.5207643e-04   1.1203269e-04  -1.1794742e-03  -7.8508677e-04   1.8131727e-04   2.2270811e-04   1.6375787e-04   1.1645389e-04   4.3982171e-04   1.7511573e-04   3.3151585e-04   6.2176048e-05   2.1489429e-04   2.3447562e-04  -1.7421573e-04   1.2757719e-04   7.6045217e-05   1.2136385e-04   6.6479013e-05   1.3748936e-04   1.2489245e-04   2.1152734e-04   2.7136551e-04   2.6202100e-04   1.6339091e-04  -2.9596007e-05   2.1053538e-04   3.2536132e-04   3.0786180e-04   3.1765172e-04   8.8236084e-05   3.2906365e-04
   3.5464228e-04   2.5196117e-04   2.8093168e-04   3.0939508e-04   2.2408385e-04   3.1299586e-04   3.8868922e-04   2.8422719e-04   4.5546767e-04   1.0398560e-03   3.6351293e-04   4.3241924e-04   3.1214242e-04   2.5057484e-04   2.5502441e-04   2.3113158e-04   3.2476749e-04   3.3403817e-04   5.6483637e-04   2.9499934e-04  -1.0244972e-03  -5.4682925e-04   4.0665231e-04   5.5185496e-04   3.6641484e-04   3.5151164e-04   4.8148775e-04   3.3642570e-04   4.9990875e-04   2.4626334e-04   4.4478700e-04   4.5310656e-04   1.6366267e-04   4.1962793e-04   2.6291711e-04   3.3700129e-04   2.3041836e-04   3.7569640e-04   3.1912734e-04   3.5546644e-04   4.5079287e-04   3.7577492e-04   2.9724286e-04   1.7076441e-04   2.4291121e-04   4.3127322e-04   3.6028371e-04   3.2406856e-04   3.2828559e-04   3.0060753e-04
   3.9691234e-04   2.8389788e-04   3.1599452e-04   3.1390655e-04   2.3293971e-04   3.0505558e-04   3.9335235e-04   2.8563154e-04   3.7743428e-04   1.0178197e-03   4.0086621e-04   4.2347470e-04   3.4078094e-04   2.9946468e-04   2.5767490e-04   2.5850965e-04   3.4563916e-04   3.7480131e-04   7.0590829e-04   2.7545681e-04  -1.0369756e-03  -5.8115029e-04   3.9837396e-04   4.8299076e-04   3.4811025e-04   3.3619086e-04   4.7931680e-04   3.0951615e-04   5.1559164e-04   2.2309601e-04   3.9176756e-04   4.3371756e-04   8.5370106e-05   3.5953231e-04   2.1368491e-04   2.9389164e-04   1.9622303e-04   3.1944338e-04   2.8857755e-04   3.0935745e-04   4.3190425e-04   3.5359667e-04   2.4487829e-04   1.1422336e-05   1.8716442e-04   3.5562355e-04   2.7443533e-04   2.2920736e-04   2.2297737e-04   2.0820535e-04
   2.5574179e-04   1.2652892e-04   1.8842306e-04   1.6558808e-04   1.2435637e-04   1.7251739e-04   2.4766687e-04   1.6501665e-04   3.3607031e-04   8.1180537e-04   2.8722081e-04   2.2126980e-04   2.1778235e-04   2.0050132e-04   1.7002723e-04   1.5744256e-04   2.4206059e-04   2.7340389e-04   3.9356339e-04   1.2191915e-04  -1.1303435e-03  -7.4015971e-04   2.1465147e-04   2.5552258e-04   1.6738204e-04   1.7992049e-04   4.1176970e-04   1.8926982e-04   3.5306840e-04   9.8746510e-05   2.1329288e-04   2.5412714e-04  -1.5175127e-04   1.7421687e-04   7.5490403e-05   1.4062098e-04   8.0673955e-05   1.1025406e-04   1.2319699e-04   1.1127639e-04   2.4976805e-04   2.1642915e-04   6.9085509e-05  -2.2485565e-05   4.6420602e-05   1.9671711e-04   2.3432534e-04   2.3323395e-04   1.6225543e-04   3.8563390e-04
   2.7361672e-04   1.7108904e-04   2.2365380e-04   2.8023732e-04   1.7358290e-04   2.7781414e-04   3.7746213e-04   2.6574577e-04   5.2652141e-04   1.0638121e-03   3.3132551e-04   4.2561608e-04   2.7303613e-04   2.4220847e-04   2.2593135e-04   2.5441899e-04   3.0153323e-04   3.0666281e-04   5.9921411e-04   2.4573933e-04  -1.0337139e-03  -5.9648516e-04   4.1988352e-04   5.4234551e-04   3.3846401e-04   3.4836621e-04   4.6478512e-04   3.0968603e-04   5.5282150e-04   2.3470359e-04   3.8921373e-04   4.1822571e-04   1.6135917e-04   4.3258510e-04   2.5246467e-04   3.4599481e-04   2.0567031e-04   3.5719876e-04   3.6238396e-04   3.5266875e-04   5.0945661e-04   4.6448014e-04   4.0259946e-04   5.8263271e-05   1.8246040e-04   2.9176948e-04   3.7531211e-04   3.7525842e-04   1.8158941e-04   5.1622535e-04
   3.6760012e-04   2.7450323e-04   3.1450865e-04   3.0033864e-04   2.1640812e-04   2.9511741e-04   3.9233716e-04   3.2201258e-04   4.6024198e-04   1.0912599e-03   4.2436554e-04   4.4455624e-04   3.3508978e-04   2.8883660e-04   2.1788487e-04   3.1104428e-04   3.3378525e-04   3.5057429e-04   5.0554343e-04   2.3264643e-04  -1.0323707e-03  -6.0757151e-04   4.1106757e-04   5.2533759e-04   2.9941311e-04   3.3828430e-04   4.2617461e-04   2.6247714e-04   5.1655178e-04   2.1525445e-04   3.5962157e-04   3.9456171e-04   9.3624651e-05   3.9596035e-04   2.0477021e-04   2.9786528e-04   1.8498499e-04   2.8204263e-04   2.7206662e-04   2.7381477e-04   4.4261923e-04   3.8376293e-04   3.2617900e-04   1.3767157e-04   1.8369562e-04   1.8366848e-04   3.2320569e-04   2.6305910e-04   3.4596960e-05   2.4953953e-04
   2.4887623e-04   1.4544949e-04   2.2994418e-04   1.5569119e-04   1.2906900e-04   1.8666036e-04   2.7178528e-04   1.9680592e-04   3.9112690e-04   8.8495703e-04   3.3001439e-04   2.4900469e-04   2.1420178e-04   1.7766726e-04   1.4548880e-04   2.2754927e-04   2.2996885e-04   2.7663144e-04   3.2339251e-04   9.3561241e-05  -1.1295612e-03  -7.5743353e-04   2.4283992e-04   2.3446960e-04   1.3290494e-04   1.5131757e-04   3.2319289e-04   1.1075830e-04   3.2615996e-04   1.0008708e-04   1.8758769e-04   2.2707123e-04  -1.4289466e-04   1.8356949e-04   3.6204336e-05   1.2681531e-04   6.6705790e-05   5.4016051e-05   5.3195105e-05   6.0460676e-05   2.6485921e-04   2.4264929e-04   1.1306560e-04  -1.0254806e-04   3.6893012e-05  -2.7072549e-06   1.5230619e-04   9.7183634e-05  -2.4258290e-07   1.7981972e-04
   6.6153159e-05  -2.2652712e-05   1.4521793e-04   1.1613165e-04   1.1574587e-04   1.7453251e-04   2.4874764e-04   1.8336045e-04   4.8248889e-04   1.0517162e-03   3.3811099e-04   3.8664660e-04   2.1259104e-04   1.6473953e-04   1.5915812e-04   2.3250584e-04   2.4555493e-04   2.4851202e-04   5.8042299e-04   1.8793481e-04  -1.0246275e-03  -6.2318332e-04   3.0202672e-04   4.5337959e-04   2.4567207e-04   2.3105940e-04   3.1535816e-04   1.8091298e-04   3.9404805e-04   1.8466960e-04   3.4371633e-04   3.5090532e-04   1.4547029e-04   3.4829104e-04   1.7096678e-04   2.5745618e-04   1.7542629e-04   2.6677593e-04   2.7817272e-04   2.7257443e-04   3.8185719e-04   3.9160764e-04   3.5687719e-04   8.0955127e-05   2.6857862e-04   1.8113322e-04   4.0575265e-04   3.5174997e-04   1.1061646e-04   4.5051402e-04
   3.8409015e-04   3.3910046e-04   3.4800349e-04   2.8488899e-04   2.3764637e-04   2.9054264e-04   3.7510021e-04   3.3378290e-04   5.8357260e-04   1.1812911e-03   4.6784664e-04   4.5658133e-04   2.9726705e-04   2.4563016e-04   1.6224550e-04   3.3605949e-04   3.3072830e-04   3.4009625e-04   5.2980904e-04   2.4371305e-04  -1.0028294e-03  -5.7288492e-04   3.9045987e-04   4.8596977e-04   2.6924751e-04   2.7236823e-04   2.6738658e-04   1.6155995e-04   4.3829365e-04   2.2605796e-04   3.5081615e-04   3.6214283e-04   7.3253694e-05   3.5152311e-04   1.5565747e-04   2.5845176e-04   1.5717030e-04   2.5099693e-04   2.4221881e-04   1.9298485e-04   4.0066167e-04   3.7850667e-04   3.0684617e-04   7.0908907e-05   1.8364182e-04   4.7814417e-05   3.4148173e-04   2.4122720e-04  -2.9958086e-04   3.6787643e-04
   3.1485240e-04   2.5485759e-04   2.7660333e-04   1.9174373e-04   2.0152486e-04   2.1813503e-04   2.4950758e-04   2.5815621e-04   4.8405424e-04   1.0295305e-03   4.2729222e-04   3.1469591e-04   2.4029752e-04   1.7643051e-04   9.9120291e-05   2.5879554e-04   2.5361092e-04   2.5880660e-04   2.8916178e-04   1.3729429e-04  -1.0729756e-03  -7.0532889e-04   2.1349992e-04   2.7167224e-04   1.1237753e-04   1.0630720e-04   1.9148446e-04   3.6685829e-05   2.8354375e-04   1.1022051e-04   1.6416103e-04   2.2412388e-04  -1.4145844e-04   1.5333017e-04   1.8383489e-05   8.2270242e-05   3.8211285e-05   8.4941465e-05   7.7198922e-05   3.7986050e-05   2.0456268e-04   2.1395067e-04   8.3402672e-05   1.4427716e-05  -2.5397778e-05  -8.7030319e-05   1.6761475e-04   1.0952101e-04   4.6195655e-05   4.8869806e-05
   9.2874696e-05  -8.8243132e-06   1.1826154e-04  -1.1324827e-05   4.3523421e-05   4.4373537e-05   5.6739085e-05   6.6088200e-05   3.2244623e-04   7.5566495e-04   2.3630941e-04   5.8048776e-05   6.9375288e-05   3.9666174e-05   3.5234004e-07   1.5822194e-04   1.3115526e-04   1.4767793e-04   3.8391759e-04   7.7014956e-05  -1.0914825e-03  -7.0109090e-04   1.9133365e-04   3.1354674e-04   1.0049585e-04   9.0164205e-05   1.9595484e-04   6.1856721e-05   2.7857136e-04   1.3145652e-04   2.1333464e-04   2.2682347e-04  -9.9428303e-07   2.8789858e-04   9.1282054e-05   1.9151394e-04   8.6569373e-05   1.8175547e-04   2.2054496e-04   1.6122806e-04   3.4192516e-04   3.3209973e-04   2.8767416e-04   6.2103172e-05   1.5950842e-04   1.1795177e-04   3.4843636e-04   3.2512890e-04  -1.5818329e-04   2.9043842e-04
   3.6678015e-04   3.0375124e-04   3.3854056e-04   2.8240963e-04   2.4277107e-04   3.0962631e-04   3.7630208e-04   3.3919545e-04   5.4850022e-04   1.2143431e-03   4.2541214e-04   4.2954431e-04   2.7486289e-04   2.2424001e-04   1.3178001e-04   3.2251829e-04   2.5913143e-04   2.8020819e-04   5.2530022e-04   1.9165888e-04  -1.0228414e-03  -6.3163904e-04   3.3578966e-04   4.1694788e-04   2.1435242e-04   2.2478589e-04   2.1553940e-04   1.0498162e-04   4.0353092e-04   2.2457112e-04   2.6078973e-04   2.9273450e-04   2.1794807e-05   2.9005497e-04   1.2760716e-04   2.2639547e-04   1.0552635e-04   2.2020412e-04   2.5727850e-04   1.8655090e-04   3.7393218e-04   3.8264995e-04   3.2258249e-04   9.8545701e-05   1.3866258e-04   1.7005503e-04   3.5041623e-04   2.6308291e-04   1.8794612e-04   3.5904991e-04
   3.4141587e-04   2.9426176e-04   3.0517470e-04   2.1526487e-04   2.2777880e-04   2.4318193e-04   2.9356848e-04   2.9368378e-04   5.2805769e-04   1.1219800e-03   4.3127025e-04   3.6441020e-04   2.5632235e-04   1.8982193e-04   9.5696210e-05   2.7128524e-04   2.2530234e-04   2.6012483e-04   4.0783957e-04   1.4870931e-04  -1.0503040e-03  -6.9373089e-04   2.3086602e-04   2.8949120e-04   1.3056480e-04   1.2455641e-04   1.6894778e-04   3.0578183e-05   2.8364343e-04   1.4544684e-04   1.3215825e-04   2.0266858e-04  -1.2540328e-04   1.7182276e-04   1.6720387e-05   1.1920816e-04   4.4468372e-05   6.0919221e-05   7.2012059e-05   4.7894908e-05   1.8737954e-04   2.4202086e-04   9.9085883e-05  -9.1396914e-06  -4.3600096e-05  -1.7599808e-04   2.3653384e-04   9.0756163e-05   2.6843978e-05  -9.3427647e-05
   1.4156014e-04   1.0985524e-04   1.7131779e-04   2.3231836e-05   1.1351822e-04   9.7290824e-05   7.2527168e-05   7.8143734e-05   2.7688051e-04   8.3429064e-04   2.9796452e-04   1.1195544e-04   9.4985080e-05   4.8017831e-05  -4.3985554e-05   1.2361754e-04   1.1727547e-04   1.4952461e-04   2.9167361e-04   1.4946592e-05  -1.1124136e-03  -7.8579137e-04   8.9125315e-05   9.6128548e-05  -3.4320867e-05  -6.7723115e-05   1.0018152e-04  -4.0223487e-05   2.1141209e-04   5.6514014e-05   1.4721944e-04   1.6954445e-04  -5.7477566e-05   1.9868810e-04   1.6915808e-05   1.5005018e-04   3.9514292e-05   1.5171530e-04   1.6992821e-04   1.2754233e-04   2.8034026e-04   2.7732263e-04   2.3397135e-04   8.5448803e-05  -4.7840575e-05  -1.3693295e-04   3.2304128e-04   2.4589885e-04  -3.1449192e-05   6.9550966e-05
   3.6747780e-04   3.4081592e-04   3.5855523e-04   2.6555129e-04   2.5899542e-04   3.1249714e-04   3.3259406e-04   3.4437104e-04   5.5497541e-04   1.2651087e-03   4.4987982e-04   4.4153354e-04   2.7036006e-04   2.0206996e-04   7.7403332e-05   3.2120728e-04   2.5776387e-04   2.9627647e-04   4.9441232e-04   1.9294645e-04  -1.0102993e-03  -6.1737705e-04   3.4247586e-04   3.8929307e-04   1.9213809e-04   1.8691039e-04   1.0771742e-04   8.5253720e-05   3.3866742e-04   2.1110986e-04   1.8736203e-04   2.4069930e-04   1.5846940e-06   2.5005580e-04   9.1916525e-05   1.9610932e-04   8.9892441e-05   1.6765775e-04   2.0238056e-04   1.3317518e-04   3.6176783e-04   3.3646027e-04   2.9905781e-04   1.2066116e-04   8.5162261e-05   2.3595698e-05   3.1409017e-04   2.9511235e-04   5.7769339e-05   7.0962329e-07
   3.4847111e-04   2.9251268e-04   3.2993735e-04   2.0240291e-04   2.4428757e-04   2.7018751e-04   2.7159994e-04   2.9296009e-04   4.8243609e-04   1.1018065e-03   3.9553444e-04   3.2039761e-04   2.4682979e-04   1.8339725e-04   6.9082125e-05   2.7450835e-04   2.1886370e-04   2.3855026e-04   3.4915740e-04   1.2618130e-04  -1.0416684e-03  -6.8275683e-04   2.8900040e-04   2.6097617e-04   1.1475600e-04   1.0650627e-04   9.5076874e-05   3.9447696e-05   2.9897795e-04   1.5009908e-04   1.0904967e-04   1.7981132e-04  -1.2946357e-04   1.4521588e-04   1.6581605e-05   1.1775148e-04   3.9979328e-05   4.7666017e-05   6.5761989e-05   6.0471066e-05   2.3590474e-04   2.3243693e-04   1.2771129e-04   7.0902999e-05   4.3570699e-06  -1.2033457e-04   1.9583665e-04   1.2935323e-04  -7.8978948e-05  -7.8950354e-05
   1.7905013e-04   9.7179720e-05   1.8445544e-04   1.7303502e-05   1.1152643e-04   1.0266389e-04   8.4591942e-05   1.3377878e-04   2.9479866e-04   8.0717099e-04   2.5020796e-04   7.6785065e-05   1.0181239e-04   5.0846716e-05  -3.6607817e-05   1.4411034e-04   7.4952492e-05   1.3689687e-04   1.6371797e-04  -2.2556827e-05  -1.1520835e-03  -8.3832460e-04   8.2594626e-05   3.5223467e-05  -4.2311120e-05  -6.8488363e-05   4.6398705e-05  -3.9447208e-05   2.3554996e-04   7.6119606e-05   8.1772181e-05   1.2807277e-04  -1.1233426e-04   1.5196171e-04   3.0802512e-05   1.2884816e-04   3.1422314e-05   1.3230284e-04   1.5139497e-04   1.0803295e-04   3.0064175e-04   2.8529507e-04   2.4785369e-04   4.3579617e-05  -1.0174743e-05  -6.4259242e-05   3.2617856e-04   2.5277960e-04   4.5508015e-05   1.0379682e-04
   3.8335365e-04   3.4632173e-04   3.5986467e-04   2.6565834e-04   2.8444341e-04   3.2279571e-04   3.4066066e-04   3.3415877e-04   4.9317401e-04   1.2238447e-03   4.4028423e-04   4.5295717e-04   2.9361536e-04   2.0660186e-04   8.9058391e-05   3.1135822e-04   2.4537736e-04   2.9874983e-04   5.9296261e-04   1.9519050e-04  -9.6403074e-04  -5.9052074e-04   3.6255922e-04   4.2119122e-04   2.0385631e-04   1.8735773e-04   1.0036219e-04   9.8561221e-05   3.9295148e-04   2.3751454e-04   1.8175182e-04   2.5475497e-04  -5.1342045e-06   2.4989634e-04   8.8295346e-05   2.0713315e-04   1.1171646e-04   1.8920969e-04   2.0794783e-04   1.6960625e-04   3.1293661e-04   3.2319661e-04   2.6082835e-04   1.1737055e-04  -5.9858507e-05   5.5380908e-05   3.5419656e-04   3.0882141e-04  -1.4529299e-04   1.6816733e-04
   3.7370148e-04   3.2328014e-04   3.6577822e-04   2.1002474e-04   2.6037340e-04   2.8110860e-04   2.6273433e-04   3.0064894e-04   5.0790829e-04   1.0991357e-03   4.0330773e-04   3.4812576e-04   2.8802283e-04   1.9914324e-04   6.7029068e-05   2.8645759e-04   2.1828584e-04   2.7535256e-04   3.5851731e-04   1.3562948e-04  -1.0006949e-03  -6.7171705e-04   2.8596411e-04   3.0544976e-04   1.4130252e-04   1.2526066e-04   9.2964649e-05   6.1685358e-05   3.3762679e-04   1.9224947e-04   6.4947555e-05   1.8656542e-04  -1.2823523e-04   1.3073129e-04   3.6661713e-05   1.3274555e-04   4.3877677e-05   8.9656081e-05   9.6984695e-05   5.7685877e-05   2.4235225e-04   2.4491269e-04   1.0537337e-04   7.3035476e-06  -9.5775722e-05  -2.6986669e-04   2.3191112e-04   1.5369827e-04  -5.5263019e-05  -6.7788504e-05
   1.8101637e-04   1.1617095e-04   2.1739455e-04   2.6346355e-05   1.3259501e-04   1.1822273e-04   5.7782217e-05   1.3199649e-04   2.6457998e-04   8.3457236e-04   2.4588851e-04   1.0336954e-04   1.2541747e-04   7.4847296e-05  -2.3016832e-05   1.6468861e-04   5.9574941e-05   1.4818310e-04   1.1512406e-04  -4.7003687e-05  -1.1265690e-03  -8.5964263e-04   1.3971662e-04   4.1629643e-05  -2.7671726e-05  -7.4939024e-05   2.1914375e-05  -6.0249353e-05   1.0673044e-04   4.7527541e-05  -6.0947110e-05   1.6185531e-05  -2.6639333e-04  -2.6985290e-05  -6.7060020e-05   2.9348348e-05  -3.2979602e-05   4.8003782e-05   1.0806200e-04   3.0121875e-05   2.7287262e-04   2.4175055e-04   2.1534770e-04   8.8129731e-05   4.1185307e-05  -1.3902370e-04   3.3090601e-04   2.8803956e-04  -2.2633356e-05   2.0634684e-04
   3.5015889e-04   2.9039264e-04   3.3662759e-04   2.3346428e-04   2.5063328e-04   2.8323606e-04   3.0306124e-04   3.4265258e-04   4.9453479e-04   1.1804143e-03   3.5362347e-04   4.1382786e-04   2.7848149e-04   2.0728393e-04   8.7279608e-05   2.9520461e-04   2.0015483e-04   2.4332409e-04   5.0853821e-04   1.6472211e-04  -9.5997023e-04  -5.9566979e-04   4.1217264e-04   4.4324104e-04   2.5944292e-04   2.1943996e-04   9.4674535e-05   1.4451580e-04   4.2975409e-04   2.7842194e-04   1.2496831e-04   2.2589456e-04  -3.6384081e-06   2.3105029e-04   1.1497889e-04   2.2254593e-04   1.2650958e-04   2.0261077e-04   2.5539676e-04   1.5526285e-04   3.6969117e-04   3.2807741e-04   3.0266852e-04   8.2617946e-05   9.0480709e-05  -2.0218018e-05   3.4615124e-04   2.9056342e-04  -1.9800477e-04   1.9384695e-04
   3.7655729e-04   3.1107126e-04   3.6034852e-04   2.1086844e-04   2.5959377e-04   2.7594747e-04   2.6953174e-04   3.2176063e-04   4.1520523e-04   1.0953502e-03   3.6281106e-04   3.5399329e-04   2.9828417e-04   2.3159097e-04   8.7046741e-05   3.0862683e-04   2.0939214e-04   2.7532963e-04   4.2516075e-04   1.3926734e-04  -9.7736693e-04  -6.6900143e-04   3.6091657e-04   3.8468951e-04   1.8906237e-04   1.8387237e-04   8.8326691e-05   1.1559002e-04   3.5389102e-04   2.4597035e-04   7.3184732e-05   1.7664833e-04  -1.0505290e-04   1.4876580e-04   8.8450062e-05   1.6879805e-04   7.0018425e-05   1.3070021e-04   1.5872241e-04   8.6402288e-05   3.1025166e-04   2.6061252e-04   1.9433195e-04   2.8548004e-05   6.5501023e-05   6.8108244e-07   2.4017137e-04   1.8776389e-04   1.8420695e-04   2.1172556e-05
   2.2288410e-04   1.4165178e-04   2.3306860e-04   4.1934600e-05   1.4684944e-04   1.2489826e-04   8.9177862e-05   1.8232976e-04   2.8317032e-04   8.5800129e-04   2.4512821e-04   1.2114991e-04   1.7583209e-04   1.0942123e-04   2.2213546e-06   1.7440230e-04   7.9410704e-05   1.6711070e-04   1.8063305e-04  -6.2333243e-06  -1.0815623e-03  -8.1513886e-04   2.1396053e-04   9.5368923e-05   2.1016487e-05  -1.7010454e-05   4.1068339e-05  -2.7679929e-05   2.1984370e-04   1.2040499e-04  -8.3144660e-05   1.2639647e-05  -3.0567485e-04  -4.9839917e-05  -6.7755129e-05   7.1315276e-06  -2.3516155e-05  -2.6783131e-05   4.4256580e-05  -5.4590499e-05   1.9043143e-04   1.6989560e-04   1.1310517e-04   5.9029397e-05   1.2078198e-04  -1.1215940e-04   2.7923068e-04   2.8407527e-04  -1.5557361e-04   5.3581705e-05
   3.3193032e-04   2.8115991e-04   3.0501952e-04   2.1645978e-04   2.3733388e-04   2.7739615e-04   2.8922467e-04   2.8707157e-04   3.6914879e-04   1.1605796e-03   3.3088186e-04   3.8908375e-04   2.8097208e-04   1.9397317e-04   8.9254230e-05   2.8286685e-04   1.9506473e-04   2.2662857e-04   5.2020425e-04   1.8035228e-04  -9.1101101e-04  -5.7228759e-04   4.2133505e-04   4.8433460e-04   2.7291774e-04   2.1712077e-04   1.0313069e-04   1.5862568e-04   4.3407804e-04   2.9479616e-04   2.0407092e-04   2.5487086e-04   8.8745983e-05   2.2762331e-04   1.4306883e-04   2.4277532e-04   1.4647243e-04   2.3237267e-04   2.6542568e-04   1.9536496e-04   3.4146139e-04   3.1531963e-04   2.9863589e-04   1.0313589e-04   8.0384576e-05   4.9583537e-05   3.1534056e-04   3.1072006e-04  -6.6228790e-06   7.4712261e-05
   3.7589559e-04   3.4400230e-04   3.4432762e-04   2.1514755e-04   2.6013283e-04   2.8543908e-04   2.7185469e-04   3.5950189e-04   3.4613805e-04   1.1305801e-03   3.6792390e-04   3.7977513e-04   3.3287628e-04   2.5000979e-04   1.1392667e-04   3.0605320e-04   2.3411958e-04   2.7437723e-04   4.6211327e-04   1.8365160e-04  -9.0891350e-04  -5.8215862e-04   4.1616152e-04   3.8563868e-04   2.5354986e-04   1.9759270e-04   9.7752505e-05   1.2995410e-04   4.2206154e-04   2.7075512e-04   1.7543021e-04   2.4688628e-04  -1.7856246e-05   1.7070309e-04   1.0088558e-04   1.8670682e-04   1.1635739e-04   1.7643288e-04   2.1804692e-04   1.6616400e-04   2.8728964e-04   2.3269044e-04   2.1233047e-04   1.3486593e-04   4.3232940e-05   2.8604851e-05   1.7735132e-04   2.1820479e-04   2.1055566e-05  -1.0795018e-04
   2.2821664e-04   1.8728260e-04   2.1356890e-04   8.2365928e-05   1.5020462e-04   1.7796850e-04   1.3737581e-04   1.7493412e-04   2.5380723e-04   8.2204747e-04   2.4479043e-04   1.2903447e-04   2.1906785e-04   1.5438805e-04   5.3605767e-05   1.8556480e-04   1.3664062e-04   1.7603519e-04   2.6278920e-04   5.9378788e-05  -1.0136443e-03  -7.0444809e-04   3.1592336e-04   1.5468203e-04   7.6946402e-05   3.6281912e-05   3.5195168e-05  -6.5558570e-06   2.6576943e-04   1.3023132e-04   2.4648996e-05   9.5606796e-05  -2.2990181e-04  -2.0702075e-05  -2.3348606e-05   3.7675232e-05   5.1960242e-06  -1.7982906e-05   5.9593207e-05  -8.3912564e-06   1.2756267e-04   8.6372158e-05   2.7420252e-05   7.1794348e-05  -7.9797486e-05  -1.7910040e-04   1.1133902e-04   1.7015016e-04   6.2995176e-05  -2.3389222e-05
   2.8913014e-04   2.2131944e-04   2.3758250e-04   1.8318032e-04   1.8706215e-04   2.6593785e-04   2.3992505e-04   2.7359047e-04   3.3395502e-04   1.0479587e-03   3.1029162e-04   3.5321657e-04   2.9647435e-04   1.8125550e-04   1.1342528e-04   2.4479610e-04   1.9965479e-04   2.1570810e-04   4.3369434e-04   1.8784450e-04  -9.0522342e-04  -5.5403437e-04   4.3644509e-04   4.6139120e-04   2.9886048e-04   2.1486927e-04   6.5060536e-05   1.2844695e-04   4.4590933e-04   2.7291180e-04   2.4042711e-04   2.5979147e-04   1.0323845e-04   2.2990770e-04   1.4856155e-04   2.2342311e-04   1.4251721e-04   2.3190516e-04   2.8656414e-04   2.0272576e-04   3.6289109e-04   2.9056749e-04   3.1302072e-04   1.3177159e-04   1.6600541e-05   1.3163594e-04   3.1298562e-04   2.9451418e-04  -1.1416443e-04  -1.0359410e-05
