   6.3365872e-04   3.2902043e-04   1.2463508e-03   1.4591622e-04   1.7653219e-04   4.6899286e-04   2.8878200e-04   5.4858823e-04   3.3955913e-04   1.6865109e-03   9.4432692e-04   9.8640507e-04   6.8829622e-04   5.0374836e-04   5.5780276e-07   2.8218681e-04  -1.2277366e-04  -7.2491111e-04   1.1505102e-03   6.6505757e-04   1.4499554e-03  -2.2424564e-04   7.0993975e-04   7.1394065e-04   3.9151759e-04   6.8946608e-04   3.7751158e-04   4.9522507e-04   2.3657936e-04   1.1712776e-04   4.1995978e-04   4.4724651e-04   1.0724689e-03  -1.1476194e-03   4.0807662e-04   5.2699522e-04   6.4463768e-04   4.5258351e-04   6.9870928e-04  -6.0442300e-04  -3.2196901e-04  -6.8433548e-04   9.1419567e-04  -3.0837532e-03  -2.0208973e-03  -3.1718207e-03   2.1027366e-03   1.9187757e-04  -4.2502964e-03  -3.3190809e-03
   6.2028249e-04   3.2686032e-04   1.2540880e-03   1.6273216e-04   1.8694463e-04   4.8436326e-04   2.8824879e-04   5.5351813e-04   2.7494662e-04   1.7336364e-03   9.4445521e-04   1.0086009e-03   6.9891987e-04   5.0632475e-04   2.0899713e-05   2.9735896e-04  -1.4021387e-04  -7.2452769e-04   1.1241393e-03   6.6341041e-04   1.4761187e-03  -2.5312204e-04   6.9842819e-04   7.4808684e-04   4.1612869e-04   6.8461138e-04   3.8961545e-04   5.0700631e-04   1.6984002e-04   1.0500607e-04   4.2933298e-04   4.5100405e-04   1.0961413e-03  -1.1231788e-03   3.9138101e-04   5.1956618e-04   6.4327574e-04   4.2524113e-04   7.0945697e-04  -6.3857064e-04  -3.4301390e-04  -6.8016665e-04   9.2842185e-04  -3.0540568e-03  -1.9789415e-03  -3.2595082e-03   2.0911573e-03   9.8514065e-05  -4.5705177e-03  -3.4994150e-03
   6.2535366e-04   3.4712642e-04   1.2447629e-03   1.3990472e-04   1.7537952e-04   4.9352529e-04   2.7105605e-04   5.4089591e-04   3.2215146e-04   1.7575594e-03   9.5940969e-04   1.0236686e-03   6.8996189e-04   4.8187282e-04  -3.0489640e-05   3.1833866e-04  -1.4574887e-04  -7.3688471e-04   1.1170392e-03   6.4738060e-04   1.4757407e-03  -2.7540739e-04   6.9367402e-04   7.4923545e-04   4.0320697e-04   6.7720987e-04   3.6199583e-04   5.1705219e-04   1.8612547e-04   7.2952775e-05   3.9599024e-04   4.3410406e-04   1.0982355e-03  -1.1338912e-03   3.9261766e-04   5.5016490e-04   6.3571136e-04   3.9470271e-04   6.9015089e-04  -6.4523605e-04  -4.0274355e-04  -6.9859676e-04   8.8069908e-04  -3.1290704e-03  -2.0011577e-03  -3.2857354e-03   2.0835034e-03   1.6178739e-04  -4.9140099e-03  -3.5967368e-03
   6.1191170e-04   3.5619290e-04   1.2567370e-03   1.4279026e-04   1.8700339e-04   4.9434428e-04   2.5680708e-04   5.4096885e-04   3.4718131e-04   1.7384052e-03   9.7351219e-04   9.9770178e-04   7.1429589e-04   4.7703463e-04  -1.7243907e-05   3.4261253e-04  -1.6245963e-04  -7.7939546e-04   1.1079053e-03   6.5553986e-04   1.4994626e-03  -2.6602636e-04   6.8671588e-04   7.4442104e-04   3.9715401e-04   6.7250390e-04   4.1440272e-04   5.2636641e-04   2.1681302e-04   7.7975899e-05   4.3248158e-04   4.4787375e-04   1.0792983e-03  -1.1053258e-03   3.9968191e-04   5.3900672e-04   6.4499519e-04   4.5621794e-04   7.0733920e-04  -6.0005288e-04  -2.6709994e-04  -6.8616407e-04   8.6039817e-04  -3.0570186e-03  -2.0554196e-03  -3.3715533e-03   2.1493253e-03   2.2987241e-04  -4.7372454e-03  -3.3061244e-03
   6.3919916e-04   3.0089956e-04   1.3016275e-03   2.3795167e-04   1.7712166e-04   4.9690943e-04   3.9249027e-04   5.2504387e-04   2.2675890e-04   1.6741799e-03   9.3151140e-04   9.2985679e-04   6.9841073e-04   5.3492904e-04   1.2583808e-04   3.0506120e-04  -1.3270105e-04  -7.0731167e-04   1.1308680e-03   6.0962338e-04   1.6211150e-03   4.8752441e-05   7.2041724e-04   6.5656606e-04   4.2068129e-04   7.1010710e-04   5.0251035e-04   4.5654611e-04   1.8825350e-04   1.4899189e-04   4.6458634e-04   4.2966171e-04   1.0087425e-03  -1.0350093e-03   4.2940560e-04   4.8375764e-04   6.1172276e-04   4.9026316e-04   7.1346381e-04  -5.8032619e-04  -2.2190822e-04  -5.6776998e-04   1.0014161e-03  -3.0036005e-03  -1.9861890e-03  -3.1560878e-03   2.0590285e-03   1.4713506e-04  -4.8650312e-03  -3.3712632e-03
   5.9411640e-04   3.1570613e-04   1.2734408e-03   1.3767408e-04   1.6858350e-04   4.6327661e-04   2.7411585e-04   5.4289488e-04   3.3933239e-04   1.7145260e-03   9.3717285e-04   9.8102039e-04   7.0440496e-04   4.8611229e-04  -3.4123168e-05   3.4558194e-04  -1.7596636e-04  -7.8898272e-04   1.1981141e-03   6.7918719e-04   1.4427814e-03  -3.3289127e-04   6.6295097e-04   7.3854800e-04   4.4001092e-04   6.6866202e-04   3.3796972e-04   5.4361578e-04   2.0350442e-04   5.1849369e-05   3.8840552e-04   4.3642914e-04   1.1505018e-03  -1.0952874e-03   3.9726790e-04   5.9278216e-04   7.0304389e-04   3.5938970e-04   7.1333692e-04  -6.8962004e-04  -4.0643304e-04  -7.1866007e-04   8.4677525e-04  -3.1053941e-03  -2.0250867e-03  -3.3908135e-03   2.0557279e-03   2.2127124e-04  -4.7864220e-03  -3.8969268e-03
   6.1785284e-04   4.4091250e-04   1.2613296e-03   1.4035848e-04   2.0333857e-04   4.9822085e-04   2.3747773e-04   6.1298959e-04   2.8440560e-04   1.6790226e-03   9.7151520e-04   9.2556217e-04   7.2099222e-04   4.6745228e-04  -5.0028593e-05   3.0869967e-04  -1.8421245e-04  -8.4650249e-04   1.3009844e-03   7.3716621e-04   1.4573185e-03  -3.6916346e-04   6.3351425e-04   7.3257461e-04   4.0621660e-04   6.1741902e-04   3.9935191e-04   5.2886747e-04   2.4467899e-04   8.0849080e-05   4.1867516e-04   4.2182094e-04   1.1925639e-03  -1.0941741e-03   3.6076212e-04   5.3771026e-04   6.8992289e-04   3.6496640e-04   7.5488613e-04  -6.5504265e-04  -2.9595231e-04  -6.4482144e-04   9.2314271e-04  -3.0704823e-03  -2.0366695e-03  -3.5319349e-03   2.1039643e-03   2.8255681e-04  -4.0990664e-03  -3.2499430e-03
   5.9567578e-04   4.1238734e-04   1.1661608e-03   1.9887032e-04   1.8623270e-04   4.4431596e-04   2.5892770e-04   5.8514776e-04   3.1807393e-04   1.6002154e-03   9.1959455e-04   8.1391912e-04   6.9716660e-04   5.1789591e-04   4.5427128e-05   2.7295572e-04  -1.4189060e-04  -7.9020095e-04   1.1929981e-03   7.5753266e-04   1.5286740e-03  -2.8202118e-04   6.7098089e-04   7.1812054e-04   4.2104608e-04   6.1070902e-04   4.8261843e-04   5.2844104e-04   2.3099256e-04   1.4961710e-04   4.5781455e-04   4.4134297e-04   1.2481122e-03  -1.0745529e-03   3.8484193e-04   5.0574966e-04   6.6505728e-04   4.0793655e-04   7.5874804e-04  -6.4273726e-04  -2.0632404e-04  -5.6736037e-04   9.5505902e-04  -3.0496970e-03  -2.0311738e-03  -3.5176293e-03   2.0565728e-03   2.6493383e-04  -4.2133797e-03  -2.9344517e-03
   6.1432563e-04   4.1520543e-04   1.1419653e-03   2.0571864e-04   1.8089145e-04   4.1769611e-04   2.6939070e-04   5.5566774e-04   4.0010162e-04   1.5010086e-03   9.2105550e-04   7.1860570e-04   7.0128409e-04   5.5712566e-04   8.5850777e-05   2.5599269e-04  -1.1718951e-04  -7.8185089e-04   1.1876252e-03   7.2455261e-04   1.6082530e-03  -2.3136505e-04   6.2922679e-04   6.9304113e-04   4.0750307e-04   6.1647384e-04   4.8829487e-04   5.2073179e-04   2.8877062e-04   1.8349703e-04   4.6021171e-04   4.5588848e-04   1.2733354e-03  -1.0510228e-03   4.1732416e-04   5.0019618e-04   6.6409848e-04   4.1779515e-04   7.5608265e-04  -6.0306833e-04  -1.1865978e-04  -5.0809002e-04   1.0243052e-03  -3.0681938e-03  -1.9502414e-03  -3.6202462e-03   2.0072726e-03   3.2039071e-04  -4.1291318e-03  -2.9392156e-03
   6.3002465e-04   4.1859664e-04   1.1332539e-03   2.2073594e-04   1.7589230e-04   4.0622681e-04   2.8321269e-04   5.7259231e-04   3.9932583e-04   1.4197821e-03   9.2829030e-04   6.5296440e-04   7.1603333e-04   5.9108413e-04   1.3762020e-04   2.4934747e-04  -1.2470236e-04  -7.7293930e-04   1.2401743e-03   7.3206663e-04   1.6398301e-03  -2.2290893e-04   6.7439867e-04   6.7620340e-04   4.4299447e-04   6.2028726e-04   5.4137805e-04   5.3406169e-04   2.5796780e-04   2.0516750e-04   5.0062983e-04   4.6992677e-04   1.2858486e-03  -1.0494898e-03   4.4300038e-04   4.8521877e-04   6.5890385e-04   4.3915582e-04   7.6386891e-04  -6.0906936e-04  -7.5066564e-05  -4.7129949e-04   1.0307007e-03  -3.0428064e-03  -2.0360143e-03  -3.5212145e-03   1.9918862e-03   4.1682264e-04  -4.2229746e-03  -2.8790883e-03
   6.4336183e-04   4.3135928e-04   1.1342765e-03   2.4118004e-04   1.8523594e-04   4.1915581e-04   2.9232589e-04   5.5727403e-04   3.6297963e-04   1.3906602e-03   9.2224387e-04   6.2498130e-04   7.1996462e-04   6.2117196e-04   1.9199942e-04   2.5157048e-04  -1.1205684e-04  -7.8810519e-04   1.3390633e-03   7.7286368e-04   1.6455653e-03  -2.2925035e-04   6.9119857e-04   6.6039327e-04   4.6534464e-04   6.0567685e-04   5.6491897e-04   5.4591004e-04   3.2422889e-04   1.8822069e-04   5.0009775e-04   4.6786634e-04   1.3166741e-03  -1.0422693e-03   4.3822543e-04   4.7963703e-04   6.6352362e-04   4.3739192e-04   7.5545622e-04  -6.0790416e-04  -6.0219572e-05  -4.6301293e-04   1.0323745e-03  -3.0397214e-03  -1.9437775e-03  -3.6010584e-03   1.9886000e-03   3.4838243e-04  -3.3781517e-03  -2.8533093e-03
   6.4756582e-04   4.2783463e-04   1.1406844e-03   2.5901184e-04   1.8149821e-04   4.2119849e-04   3.2351716e-04   5.5421138e-04   3.6786959e-04   1.4054009e-03   9.4210648e-04   6.1014999e-04   7.4490940e-04   6.2915275e-04   2.4075726e-04   3.0703287e-04  -8.3047649e-05  -7.2600332e-04   1.1406752e-03   7.1563345e-04   1.6397089e-03   2.7923248e-04   7.0553197e-04   6.8370643e-04   5.6802668e-04   6.3701381e-04   6.2467076e-04   5.2864535e-04   3.0737525e-04   2.7238106e-04   5.6609191e-04   4.7569725e-04   1.0634084e-03  -1.0510492e-03   5.0883216e-04   4.8349571e-04   6.8445079e-04   4.6719826e-04   7.6949113e-04  -5.7951850e-04  -2.7035347e-05  -4.8207366e-04   1.0510825e-03  -3.0066606e-03  -2.0599202e-03  -3.5324628e-03   2.0276173e-03   3.3611440e-04  -3.8881593e-03  -2.7741299e-03
   6.8906567e-04   3.3812423e-04   1.2322541e-03   2.9694440e-04   1.9158976e-04   4.3544293e-04   4.2175784e-04   5.5547070e-04   4.8626750e-04   1.3474633e-03   8.9485158e-04   5.7023723e-04   7.2523992e-04   6.1586808e-04   2.8441194e-04   2.9364772e-04  -9.1927068e-05  -6.9147372e-04   1.0893097e-03   6.5247522e-04   1.7280176e-03   6.1121467e-04   7.0254045e-04   6.1033486e-04   5.9001416e-04   6.6250563e-04   5.9805519e-04   4.7788699e-04   2.5166909e-04   2.7486862e-04   4.9483828e-04   4.5886732e-04   1.0498596e-03  -1.0576510e-03   5.4455013e-04   4.9070787e-04   6.3468178e-04   4.9030490e-04   7.8981137e-04  -6.0990709e-04  -1.9098448e-05  -4.7245368e-04   1.0577796e-03  -2.9917532e-03  -2.1492410e-03  -3.4512565e-03   2.0319328e-03   4.0170894e-04  -4.4619320e-03  -3.0901209e-03
   7.1155763e-04   3.8793351e-04   1.2203490e-03   4.1718353e-04   2.0217706e-04   4.6213690e-04   7.5584522e-04   4.0414091e-04   4.7873493e-04   9.6415612e-04   5.2560942e-04   6.0386176e-04   6.7245128e-04   5.6424324e-04   5.8214681e-04   1.7565355e-04  -2.3193742e-04  -6.9558073e-04   1.0225999e-03   4.6258737e-04   1.4419877e-03   6.6510559e-04   8.6500269e-04   8.3482912e-04   9.6959312e-04   1.0048558e-03   6.8099162e-04   5.3214660e-04   3.1758272e-04   4.5434438e-04   6.1769702e-04   4.5532381e-04   1.1794604e-03  -1.1850738e-03   8.0064923e-04   5.4994749e-04   7.7608105e-04   5.0669583e-04   9.1783295e-04  -5.0658855e-04   8.9883128e-05  -3.5010703e-04   1.1610548e-03  -3.1824552e-03  -2.0429210e-03  -3.8868752e-03   2.1206995e-03   4.2125545e-04  -3.5669350e-03  -2.6140756e-03
   7.2464923e-04   4.5930344e-04   1.1116519e-03   4.4551434e-04   1.9214123e-04   4.2742761e-04   7.8906061e-04   3.9784462e-04   3.3297125e-04   8.7898661e-04   4.5882905e-04   5.7902501e-04   6.1573804e-04   4.9992604e-04   5.0882983e-04   1.0439810e-04  -2.5774751e-04  -7.3832378e-04   1.0086271e-03   5.0034665e-04   1.5826697e-03   6.5344933e-04   8.1871566e-04   8.2785060e-04   1.0164365e-03   1.0134388e-03   6.5463973e-04   5.0591223e-04   3.0570736e-04   4.1956676e-04   6.8365922e-04   4.2521890e-04   1.2226807e-03  -1.2236936e-03   8.1302819e-04   5.6259939e-04   7.7426282e-04   4.8214215e-04   8.8653452e-04  -5.0968194e-04   3.5881974e-05  -3.8874429e-04   1.1682456e-03  -3.2593622e-03  -2.0822235e-03  -3.9909212e-03   2.0820671e-03   4.7063280e-04  -3.6780057e-03  -2.7447746e-03
   7.4576202e-04   4.8593493e-04   1.0953615e-03   4.8091481e-04   1.9438224e-04   4.2375407e-04   8.0852618e-04   4.2985278e-04   4.1113253e-04   8.5065310e-04   4.2568881e-04   5.4764940e-04   5.9970951e-04   5.2160840e-04   5.3708476e-04   6.6915884e-05  -2.5249831e-04  -7.2586519e-04   1.0180230e-03   4.9658923e-04   1.6032977e-03   6.5323658e-04   8.0868171e-04   8.2423608e-04   1.0178103e-03   9.9466601e-04   6.8248302e-04   4.9566606e-04   3.1620904e-04   4.3288263e-04   7.1288977e-04   4.4326921e-04   1.2104184e-03  -1.2469025e-03   8.0781715e-04   5.5213203e-04   7.4084924e-04   5.0754385e-04   8.7812461e-04  -5.1666819e-04   7.2575363e-05  -4.1064882e-04   1.1343957e-03  -3.2488622e-03  -2.1583198e-03  -4.0387204e-03   2.0322781e-03   4.4842911e-04  -3.9488385e-03  -2.7527374e-03
   7.1885390e-04   4.5872916e-04   1.0668421e-03   4.5740997e-04   1.8874338e-04   4.2884125e-04   7.9089904e-04   4.1491888e-04   3.9359066e-04   8.7903847e-04   4.2829724e-04   4.6509635e-04   5.6178804e-04   4.9839990e-04   4.9507804e-04   5.9413480e-05  -2.3951050e-04  -7.0975878e-04   1.0587267e-03   5.1236723e-04   1.5740746e-03   6.7581359e-04   7.6559500e-04   7.6494028e-04   9.4223680e-04   8.9400978e-04   6.7516044e-04   4.5865134e-04   2.9674816e-04   4.1579659e-04   7.0414942e-04   4.3275050e-04   1.2037675e-03  -1.2144032e-03   7.7591138e-04   5.4338184e-04   7.1240147e-04   5.1583705e-04   8.2776410e-04  -4.8441152e-04   1.6527531e-05  -4.5954771e-04   1.0951073e-03  -3.1505793e-03  -2.1158108e-03  -3.8707745e-03   2.0233158e-03   3.9729124e-04  -3.6183177e-03  -2.5818418e-03
   7.3186477e-04   3.5602611e-04   1.1359493e-03   4.0286759e-04   1.6592479e-04   4.3535128e-04   7.6114741e-04   3.9999254e-04   4.3430162e-04   9.5544878e-04   4.7210071e-04   4.2913100e-04   5.6058273e-04   4.9330341e-04   4.7331210e-04   7.6826655e-05  -2.2879914e-04  -6.7336002e-04   9.5699204e-04   5.0768198e-04   1.5408037e-03   6.3937675e-04   7.6370628e-04   7.3246367e-04   8.9136773e-04   8.5476297e-04   6.8788091e-04   4.5683395e-04   2.8069189e-04   4.0333543e-04   6.6216092e-04   4.2586584e-04   1.1747738e-03  -1.2065612e-03   7.6061906e-04   5.4114196e-04   6.9695630e-04   5.4128282e-04   8.5359573e-04  -5.0030561e-04   3.2339147e-05  -4.4609213e-04   1.0790086e-03  -3.1246147e-03  -2.1094959e-03  -3.8315617e-03   2.0321368e-03   4.0899459e-04  -3.6955201e-03  -2.5776913e-03
   6.7794172e-04   3.3156891e-04   1.1206438e-03   3.8117048e-04   1.5949525e-04   4.1790487e-04   7.0354942e-04   3.9833135e-04   3.4933517e-04   9.5956976e-04   4.9013208e-04   4.1596781e-04   5.7240407e-04   5.0178618e-04   4.5576025e-04   1.1904845e-04  -2.4122201e-04  -6.6447927e-04   9.5331518e-04   5.1042013e-04   1.6052318e-03   6.2966265e-04   7.1798923e-04   7.3521020e-04   8.5901987e-04   8.7144191e-04   7.2171167e-04   5.0080928e-04   2.6656434e-04   4.1717550e-04   6.4062577e-04   4.3913812e-04   1.1579830e-03  -1.2081144e-03   8.0092170e-04   5.5146118e-04   7.2212226e-04   5.0991401e-04   8.4589655e-04  -4.8604907e-04   1.0219184e-04  -3.9847475e-04   1.1225292e-03  -3.1720288e-03  -2.1190986e-03  -3.9505833e-03   2.0642304e-03   4.2275956e-04  -3.6680247e-03  -2.6861932e-03
   7.2864816e-04   3.7238857e-04   1.0943748e-03   4.2801589e-04   1.6979342e-04   4.3529656e-04   8.4068842e-04   3.6321042e-04   5.2009226e-04   7.9996162e-04   3.8006299e-04   4.5902838e-04   5.2938348e-04   4.8634599e-04   5.3219113e-04   5.2017738e-05  -2.5063433e-04  -6.7977112e-04   9.4552757e-04   4.7098048e-04   1.4492839e-03   6.2971079e-04   7.6782290e-04   7.3958415e-04   9.3397842e-04   9.0943452e-04   6.2538037e-04   4.6040828e-04   3.0151341e-04   4.1381284e-04   6.7300518e-04   4.3187925e-04   1.1896181e-03  -1.2377534e-03   7.9637102e-04   5.2038592e-04   6.9147261e-04   5.1694480e-04   7.9530175e-04  -5.0261087e-04   5.5443812e-05  -4.4968977e-04   1.1076381e-03  -3.1922760e-03  -2.1233896e-03  -3.8965074e-03   1.9716504e-03   3.8022577e-04  -3.3258419e-03  -2.4568732e-03
   6.5962569e-04   3.5135742e-04   1.0936182e-03   3.4108147e-04   1.4839800e-04   4.0858635e-04   6.5740827e-04   3.6780717e-04   3.8107048e-04   9.9898723e-04   5.3675810e-04   4.4292840e-04   5.7352730e-04   5.1229150e-04   4.4827856e-04   1.4026919e-04  -2.4263196e-04  -6.7741249e-04   9.6401630e-04   5.4531184e-04   1.5102933e-03   6.6994474e-04   6.9934159e-04   7.7614619e-04   7.7798078e-04   8.4211491e-04   6.6793989e-04   5.0156930e-04   3.2279428e-04   4.2356685e-04   6.2006747e-04   4.3921493e-04   1.1393114e-03  -1.2398862e-03   7.7409786e-04   5.3453213e-04   7.4773229e-04   5.2720075e-04   7.8664458e-04  -5.6025304e-04   5.8402016e-05  -4.3148545e-04   1.0890107e-03  -3.2166322e-03  -2.0544848e-03  -3.9265989e-03   1.9948978e-03   4.2853825e-04  -2.5911375e-03  -2.4494806e-03
   6.0285698e-04   3.6944079e-04   1.1050913e-03   3.3772361e-04   1.5663942e-04   3.8919807e-04   5.8501167e-04   3.8343619e-04   4.6882880e-04   1.0084705e-03   6.0281408e-04   4.4682235e-04   5.8828935e-04   5.3514278e-04   4.0335994e-04   1.3039615e-04  -2.2506421e-04  -7.0528459e-04   9.6358056e-04   5.8096269e-04   1.6476756e-03   6.4581545e-04   6.5672462e-04   7.2516262e-04   7.1732578e-04   7.9116720e-04   7.2313886e-04   5.3021358e-04   2.6472425e-04   4.0742446e-04   5.7692046e-04   4.4499474e-04   1.1790643e-03  -1.2347369e-03   7.6584041e-04   5.1030488e-04   7.5476948e-04   4.9076887e-04   7.7026815e-04  -5.5004860e-04   2.6473466e-05  -4.5183563e-04   1.1044984e-03  -3.2255878e-03  -2.1083928e-03  -3.9140913e-03   1.9739820e-03   4.4976277e-04  -3.4674981e-03  -2.3461909e-03
   6.1276997e-04   3.8450616e-04   1.0632944e-03   3.2203863e-04   1.5701333e-04   3.8541382e-04   5.5058906e-04   3.9954128e-04   3.1563040e-04   1.0392645e-03   6.1063567e-04   5.0600257e-04   5.8671559e-04   5.6515232e-04   4.0927183e-04   9.1759757e-05  -2.0771389e-04  -6.9381075e-04   9.3391852e-04   6.0573849e-04   1.6919282e-03   6.3905632e-04   6.6025864e-04   7.1916898e-04   7.0081482e-04   7.8876584e-04   7.1027392e-04   5.1537971e-04   3.4171192e-04   3.7969602e-04   5.9545418e-04   4.4233975e-04   1.1985800e-03  -1.2249700e-03   7.4080337e-04   5.0218176e-04   7.3098665e-04   4.9758027e-04   7.8647851e-04  -5.8232027e-04  -1.8789247e-05  -4.6392748e-04   1.1095657e-03  -3.1854147e-03  -2.1411972e-03  -3.9174259e-03   1.9676683e-03   4.1309660e-04  -3.4055186e-03  -2.1751926e-03
   5.9075200e-04   3.8534266e-04   1.0543705e-03   3.2921127e-04   1.6334176e-04   3.8028383e-04   5.1891158e-04   4.2061831e-04   4.4810239e-04   1.0412014e-03   6.1809947e-04   5.0222775e-04   6.0348830e-04   5.7866302e-04   4.0324236e-04   9.4811367e-05  -1.9083371e-04  -6.7320443e-04   1.0043408e-03   6.2991370e-04   1.7452345e-03   6.2503177e-04   6.9619220e-04   7.3456630e-04   7.0871576e-04   7.7249343e-04   7.1813085e-04   5.1915232e-04   3.2238889e-04   3.9099675e-04   5.8063032e-04   4.4900924e-04   1.1812857e-03  -1.2276056e-03   7.4289279e-04   5.0347822e-04   7.4164849e-04   5.1459868e-04   7.8615517e-04  -5.5973028e-04  -2.3435459e-06  -4.6587994e-04   1.0918567e-03  -3.1997773e-03  -2.1513831e-03  -3.9722640e-03   1.9726676e-03   4.2354132e-04  -3.5223216e-03  -2.1395271e-03
   5.8000872e-04   3.8009626e-04   1.0509006e-03   3.4577609e-04   1.6669683e-04   3.9438141e-04   5.3393136e-04   4.0466621e-04   4.2994029e-04   1.0552922e-03   6.3474406e-04   5.1622937e-04   6.0630974e-04   5.8530341e-04   4.3475290e-04   1.0049322e-04  -1.7940662e-04  -6.8820466e-04   1.0092854e-03   6.2394451e-04   1.7495531e-03   6.0482963e-04   6.9224386e-04   7.1765215e-04   7.1200408e-04   7.6572521e-04   7.4603228e-04   5.2518788e-04   3.0980306e-04   4.0953641e-04   6.0381496e-04   4.6596135e-04   1.1945118e-03  -1.2151010e-03   7.5320061e-04   5.0447776e-04   7.4967899e-04   5.1567575e-04   7.9530862e-04  -5.6663423e-04   2.3129642e-05  -4.6098241e-04   1.1305127e-03  -3.1567221e-03  -2.0882057e-03  -3.8846466e-03   1.9823741e-03   4.4724834e-04  -3.2742592e-03  -2.3670495e-03
   6.0202053e-04   3.9412329e-04   1.0638364e-03   3.4239225e-04   1.6342937e-04   3.9922015e-04   5.2956759e-04   4.2303608e-04   3.2778297e-04   1.0865817e-03   6.5151544e-04   5.3961592e-04   6.2337122e-04   5.9968018e-04   4.2478976e-04   1.1026543e-04  -1.7453713e-04  -6.7636790e-04   1.0084639e-03   6.4707850e-04   1.7651261e-03   5.8884447e-04   7.0828985e-04   7.1909628e-04   6.9957657e-04   7.8283664e-04   7.3287846e-04   5.3430878e-04   3.0666552e-04   3.9887673e-04   5.8904878e-04   4.5211075e-04   1.1735894e-03  -1.2213555e-03   7.4620108e-04   4.9228891e-04   7.5057946e-04   5.3492485e-04   8.0115831e-04  -5.6482374e-04   1.4712794e-05  -4.5901278e-04   1.0887037e-03  -3.2150047e-03  -2.1746140e-03  -3.8849332e-03   1.9641561e-03   4.3858669e-04  -3.2774424e-03  -2.3495592e-03
   5.9114071e-04   4.0163152e-04   1.0393786e-03   3.4017925e-04   1.6770823e-04   3.9134192e-04   5.3181098e-04   4.4655910e-04   3.8171362e-04   1.0753879e-03   6.6079537e-04   5.4874143e-04   6.2858418e-04   6.0011313e-04   4.1719363e-04   1.3350736e-04  -1.6980470e-04  -6.6121685e-04   9.6809887e-04   6.5873563e-04   1.7814804e-03   5.8419548e-04   7.1900937e-04   7.2835019e-04   6.9907220e-04   7.6759531e-04   7.3519815e-04   5.3485361e-04   3.1736205e-04   3.8075799e-04   5.8955629e-04   4.6227107e-04   1.1507925e-03  -1.2241576e-03   7.2484190e-04   5.2028103e-04   7.5671083e-04   5.1521434e-04   7.6156785e-04  -5.8074977e-04  -3.2392720e-05  -4.5493786e-04   1.1327108e-03  -3.2259710e-03  -2.1158089e-03  -3.8776279e-03   1.9639602e-03   5.0405407e-04  -3.4122705e-03  -2.3781306e-03
   5.8226695e-04   4.1505793e-04   1.0488809e-03   3.7072561e-04   1.7549553e-04   3.9864171e-04   6.0906023e-04   4.7603753e-04   5.4438488e-04   1.1045018e-03   6.9300440e-04   5.2686402e-04   6.5682089e-04   6.3503836e-04   4.8983470e-04   9.2609742e-05  -1.0144689e-04  -6.3564372e-04   1.2436456e-03   7.3929795e-04   1.5209207e-03   4.0814551e-04   7.9424190e-04   6.1763014e-04   7.2457019e-04   6.5644586e-04   7.7590207e-04   4.9834646e-04   3.7013143e-04   3.5796314e-04   5.9876603e-04   4.9345713e-04   1.1786115e-03  -1.2088419e-03   6.2061887e-04   4.6380569e-04   6.6502491e-04   5.0887174e-04   7.2373118e-04  -6.3020899e-04  -5.7770441e-05  -4.8562369e-04   1.0890277e-03  -3.0023470e-03  -2.0331636e-03  -3.6632344e-03   1.8605932e-03   4.7726350e-04  -3.3552975e-03  -2.1063527e-03
   7.3849544e-04   3.9121037e-04   1.1991615e-03   2.5622445e-04   1.7822461e-04   4.6700033e-04   4.2584116e-04   5.5165443e-04   6.7856099e-04   1.3561058e-03   1.0740290e-03   6.8360817e-04   7.3673367e-04   6.8470067e-04   2.7526871e-04   2.1886357e-04  -2.4449362e-05  -6.1546004e-04   1.3188707e-03   8.6339546e-04   1.4541224e-03   7.9113794e-05   7.5307058e-04   5.3984096e-04   5.4306275e-04   5.2466436e-04   6.2335574e-04   5.1427144e-04   3.2596695e-04   3.1900156e-04   6.3523051e-04   5.0987670e-04   1.2566017e-03  -1.1057550e-03   5.9973000e-04   4.7000550e-04   6.5922737e-04   5.1565719e-04   7.2889723e-04  -5.6377903e-04  -2.3184359e-05  -4.9264525e-04   1.0562110e-03  -2.9009357e-03  -2.0399655e-03  -3.6669369e-03   1.8087663e-03   4.4878523e-04  -3.2671366e-03  -1.9898484e-03
   7.2517700e-04   3.8126617e-04   1.1775501e-03   2.3202298e-04   1.7211359e-04   4.4868546e-04   4.1440135e-04   5.4875581e-04   5.8597152e-04   1.3404416e-03   1.0684804e-03   6.7952694e-04   7.3967286e-04   6.9746765e-04   2.7948213e-04   1.7861213e-04   3.3035063e-05  -5.7887880e-04   1.3680279e-03   8.5795997e-04   1.4463420e-03  -9.5295500e-06   7.5194502e-04   5.0376222e-04   5.7147187e-04   5.2679889e-04   6.4393267e-04   4.8369853e-04   3.7910463e-04   3.1416814e-04   6.8939850e-04   5.5234722e-04   1.2342465e-03  -1.0405758e-03   6.1998511e-04   4.6577447e-04   6.3774211e-04   5.8390724e-04   7.3558919e-04  -5.4003455e-04   1.4045951e-05  -4.7989059e-04   1.1220574e-03  -2.7800605e-03  -1.9884054e-03  -3.3754858e-03   1.8078133e-03   4.6687151e-04  -3.5584131e-03  -1.9965768e-03
   7.5188180e-04   3.4050082e-04   1.1895230e-03   2.5347882e-04   1.6236016e-04   4.5656250e-04   4.7517236e-04   5.3491798e-04   7.0172112e-04   1.3379296e-03   1.0367727e-03   7.0811942e-04   7.1538414e-04   7.1718573e-04   2.7098256e-04   1.5198435e-04   5.7469744e-05  -4.8394789e-04   1.2884650e-03   7.5503823e-04   1.4883974e-03   5.9188445e-05   7.7364594e-04   4.6021093e-04   5.5531232e-04   5.5956945e-04   6.0400652e-04   4.7089078e-04   4.5862221e-04   3.4019476e-04   6.7730976e-04   5.4094993e-04   1.1587273e-03  -9.9846371e-04   6.5071171e-04   4.8786719e-04   6.4660888e-04   6.1153510e-04   7.6128362e-04  -5.4581539e-04   2.3329989e-05  -4.4530939e-04   1.1151322e-03  -2.7131124e-03  -2.0280539e-03  -3.2271508e-03   1.7875488e-03   4.7376100e-04  -3.7763880e-03  -1.8602847e-03
   7.2219007e-04   3.4237845e-04   1.1680757e-03   2.4028176e-04   1.4978128e-04   4.3800360e-04   4.6915808e-04   5.6885224e-04   7.2416849e-04   1.3434708e-03   1.0146265e-03   7.1890501e-04   7.1883365e-04   7.1539235e-04   2.6372433e-04   1.9240733e-04   2.7536493e-05  -4.7243905e-04   1.2299337e-03   7.1328104e-04   1.5590449e-03   2.1299938e-04   7.7471836e-04   4.6072071e-04   5.8245176e-04   5.9042696e-04   6.1934628e-04   4.9311668e-04   4.1197095e-04   3.3201528e-04   6.3460768e-04   5.3227309e-04   1.1039084e-03  -1.0220231e-03   6.5700634e-04   4.8752094e-04   6.7414658e-04   6.3115329e-04   7.5716904e-04  -5.3141557e-04   4.1454514e-05  -4.3312609e-04   1.1437949e-03  -2.7823176e-03  -1.9581714e-03  -3.3743097e-03   1.8034256e-03   4.6760397e-04  -3.5218690e-03  -2.0267400e-03
   7.0103660e-04   3.4864582e-04   1.1602851e-03   2.3374631e-04   1.5314358e-04   4.2527317e-04   4.2168456e-04   5.5146881e-04   6.3729048e-04   1.3239232e-03   1.0153841e-03   6.9264258e-04   7.0690678e-04   7.2199444e-04   2.8303923e-04   2.3011316e-04   8.7042981e-06  -5.0003303e-04   1.1629547e-03   7.0305954e-04   1.5897447e-03   2.1559621e-04   7.7697239e-04   4.7281416e-04   5.7367462e-04   5.8477960e-04   6.5427832e-04   4.9777218e-04   4.1411151e-04   3.2576031e-04   5.8990117e-04   5.2002270e-04   1.0642561e-03  -1.0450636e-03   6.4301095e-04   4.9007573e-04   6.7824562e-04   6.1361236e-04   7.5684697e-04  -5.5880361e-04   6.3410596e-05  -4.2412538e-04   1.1299043e-03  -2.7842873e-03  -1.9105626e-03  -3.3804711e-03   1.8127001e-03   4.8918300e-04  -3.6138836e-03  -2.1018775e-03
   6.9241354e-04   3.4163173e-04   1.1397349e-03   2.4691437e-04   1.5503782e-04   4.4756811e-04   4.2851226e-04   5.3628953e-04   6.6789071e-04   1.3129048e-03   1.0201536e-03   6.8150292e-04   7.0243835e-04   7.3620671e-04   3.1397067e-04   2.1682112e-04   6.2869963e-06  -5.0212943e-04   1.1183902e-03   7.1508973e-04   1.5850185e-03   2.6108918e-04   7.7573967e-04   4.6766308e-04   5.7244737e-04   5.9253338e-04   7.0466072e-04   5.1154464e-04   3.8456905e-04   3.4548325e-04   6.0498330e-04   5.2746042e-04   9.9903089e-04  -1.0454679e-03   6.7316013e-04   5.0128461e-04   6.7904091e-04   6.1445084e-04   7.8175619e-04  -5.6673394e-04   4.5095952e-05  -4.1849198e-04   1.1136120e-03  -2.8165767e-03  -1.9170096e-03  -3.3249198e-03   1.8172106e-03   4.3315036e-04  -3.2704121e-03  -1.9308270e-03
   7.0267817e-04   3.5050645e-04   1.1209017e-03   2.2901480e-04   1.5234973e-04   4.3513064e-04   4.1549551e-04   5.2249659e-04   6.4535183e-04   1.2776300e-03   1.0099050e-03   6.9346995e-04   7.1565469e-04   7.4531964e-04   3.0412473e-04   2.3263316e-04   4.6147412e-07  -4.9507490e-04   1.2207218e-03   6.9282920e-04   1.5817629e-03   2.5454050e-04   7.4200123e-04   4.5313977e-04   5.7446491e-04   6.0783752e-04   6.7758223e-04   5.0232874e-04   4.1709881e-04   3.3697078e-04   5.9147534e-04   4.9770292e-04   9.8454126e-04  -1.0540313e-03   6.7310553e-04   5.0348410e-04   6.7749212e-04   5.8144634e-04   7.7332382e-04  -5.7003461e-04   7.5149052e-05  -4.1717058e-04   1.1291194e-03  -2.8686773e-03  -2.0184999e-03  -3.3576968e-03   1.8311162e-03   4.1339287e-04  -3.2782161e-03  -1.8981663e-03
   6.6720595e-04   3.4593683e-04   1.1293844e-03   2.2280235e-04   1.5296273e-04   4.2248424e-04   3.9838921e-04   5.3184072e-04   5.1453355e-04   1.2580806e-03   1.0027741e-03   6.8154273e-04   7.0578913e-04   7.2520092e-04   2.9172710e-04   2.4114543e-04  -1.2430035e-05  -5.1127223e-04   1.1288075e-03   6.8271317e-04   1.6140218e-03   3.2149386e-04   7.5472682e-04   4.7607129e-04   5.4857839e-04   5.9713848e-04   7.0086541e-04   5.2439451e-04   3.7461350e-04   3.2714845e-04   5.5643881e-04   4.8916810e-04   9.5239462e-04  -1.0985237e-03   6.7910488e-04   5.1758479e-04   6.8706251e-04   5.8975362e-04   7.5484457e-04  -6.0176244e-04   3.6507336e-05  -4.1924237e-04   1.1580093e-03  -2.9462466e-03  -1.9946021e-03  -3.4397789e-03   1.8212094e-03   4.9289659e-04  -3.4299041e-03  -1.8202858e-03
   6.6374784e-04   3.5407991e-04   1.1091247e-03   2.2384617e-04   1.5742701e-04   4.1922851e-04   3.7757863e-04   5.1922566e-04   5.5346795e-04   1.2515483e-03   9.9520525e-04   6.4868655e-04   6.8863545e-04   7.1659905e-04   2.9235292e-04   2.5832112e-04  -4.0818952e-05  -5.4050295e-04   1.0638960e-03   6.7303155e-04   1.6398700e-03   2.4557335e-04   7.3568412e-04   4.7481782e-04   5.4162845e-04   5.9764140e-04   7.1571529e-04   5.4777204e-04   3.4962152e-04   3.0775944e-04   4.9358432e-04   4.8321206e-04   9.1266091e-04  -1.1473623e-03   6.7797001e-04   5.0753413e-04   7.1558286e-04   5.3546368e-04   7.6404971e-04  -5.9344579e-04   4.9115813e-05  -4.1981618e-04   1.1250569e-03  -3.0566738e-03  -2.0110696e-03  -3.5451909e-03   1.8265987e-03   4.7851278e-04  -3.0498817e-03  -1.9878442e-03
   6.4640760e-04   3.8077316e-04   1.0717058e-03   2.3742885e-04   1.6156609e-04   4.2209669e-04   3.8092860e-04   5.2686938e-04   4.8511426e-04   1.1969554e-03   9.7470306e-04   6.0979591e-04   6.8434724e-04   7.0183713e-04   3.1701746e-04   2.5912741e-04  -4.5363606e-05  -5.4722949e-04   9.6340152e-04   6.5996044e-04   1.6314891e-03   2.2548652e-04   7.5709337e-04   4.9984636e-04   5.6943129e-04   6.2908430e-04   6.6837633e-04   5.2554032e-04   3.5110652e-04   3.0341875e-04   5.0691754e-04   4.5032191e-04   8.6685939e-04  -1.2110340e-03   6.8339839e-04   5.0968729e-04   6.8394170e-04   5.7528674e-04   7.9336972e-04  -5.9673592e-04   1.1331529e-04  -4.3330670e-04   1.0777500e-03  -3.0058371e-03  -2.0874601e-03  -3.5781050e-03   1.8469766e-03   4.5181563e-04  -3.8631551e-03  -2.1286712e-03
   6.7468022e-04   3.2544765e-04   1.0690519e-03   2.6636480e-04   1.4796502e-04   4.3172689e-04   4.8000901e-04   4.3990198e-04   4.7910033e-04   1.0131819e-03   7.6910236e-04   5.8928441e-04   6.4442045e-04   6.7638949e-04   3.6981830e-04   1.3185560e-04  -5.8059766e-05  -5.1932962e-04   1.0899216e-03   5.8820553e-04   1.4220045e-03   1.8891384e-04   7.7976647e-04   4.5887436e-04   6.5292965e-04   7.0174551e-04   5.9411878e-04   4.4741778e-04   3.5212515e-04   3.4962330e-04   4.8433608e-04   4.5068393e-04   8.0831605e-04  -1.2231783e-03   7.2658213e-04   5.3052692e-04   6.7549600e-04   5.7451287e-04   7.6735468e-04  -6.1252341e-04   5.4791053e-05  -3.9206661e-04   1.1460022e-03  -3.1337792e-03  -2.0621261e-03  -3.5220976e-03   1.8338942e-03   4.8566828e-04  -3.2950894e-03  -2.3350446e-03
   6.4394390e-04   3.3735405e-04   1.0327053e-03   2.6846657e-04   1.4905697e-04   3.8630492e-04   4.4822544e-04   4.7014016e-04   3.8326744e-04   1.0535114e-03   7.4662524e-04   5.4283970e-04   6.1566470e-04   6.9685478e-04   3.2905830e-04   1.5481656e-04  -6.2899584e-05  -5.2664033e-04   1.1038848e-03   6.0238963e-04   1.4715327e-03   1.5713675e-04   7.3547760e-04   4.6608291e-04   6.2469050e-04   6.7293865e-04   6.1064598e-04   4.7294400e-04   3.3983943e-04   3.6468837e-04   4.2974140e-04   4.3876137e-04   7.6195871e-04  -1.2726813e-03   7.2616647e-04   5.2069355e-04   6.8283360e-04   5.7767134e-04   7.5978291e-04  -6.0873316e-04   6.4952837e-05  -4.0094097e-04   1.1169115e-03  -3.2431164e-03  -2.1167556e-03  -3.4880375e-03   1.8462538e-03   4.2398204e-04  -4.0202369e-03  -2.0696945e-03
   6.2794285e-04   3.4900141e-04   1.0355625e-03   2.5035563e-04   1.4748078e-04   3.8292856e-04   4.2306239e-04   4.7115222e-04   5.8580592e-04   1.0988706e-03   7.5739209e-04   5.6449388e-04   6.1244745e-04   6.8944728e-04   2.9812270e-04   1.6436510e-04  -5.3442200e-05  -5.3658785e-04   1.0928703e-03   5.9754832e-04   1.4544211e-03   1.3656194e-04   7.5797387e-04   4.6682326e-04   5.9970253e-04   6.7582948e-04   5.9457496e-04   4.7990758e-04   4.1338676e-04   3.5098894e-04   4.1260730e-04   4.3554159e-04   7.0583844e-04  -1.2925225e-03   7.1298651e-04   5.2136875e-04   6.7022955e-04   5.5020244e-04   7.7041902e-04  -6.1735080e-04   8.3226674e-05  -4.0683371e-04   1.1098742e-03  -3.3280447e-03  -2.0976388e-03  -3.5611494e-03   1.8349000e-03   4.2714094e-04  -3.6620295e-03  -2.0080025e-03
   6.3281646e-04   3.4203345e-04   1.0242885e-03   2.4231059e-04   1.5560977e-04   3.7783699e-04   4.1584056e-04   4.6952648e-04   3.5194185e-04   1.0826822e-03   7.4575905e-04   5.5964204e-04   6.1625103e-04   6.8548491e-04   2.9202094e-04   1.8157515e-04  -5.6461799e-05  -5.3651875e-04   9.6211996e-04   5.9170282e-04   1.4672969e-03   9.8484896e-05   7.3901564e-04   4.4848214e-04   5.9757626e-04   6.6411094e-04   6.2801421e-04   4.9239508e-04   3.4300197e-04   3.7098333e-04   3.8454001e-04   4.3606345e-04   6.9046259e-04  -1.3105544e-03   7.2432082e-04   5.0991261e-04   6.8192784e-04   5.7516841e-04   7.5682503e-04  -6.4987753e-04   1.0229198e-04  -3.8852514e-04   1.1296720e-03  -3.3792078e-03  -2.1367227e-03  -3.5163269e-03   1.8456493e-03   4.8190172e-04  -3.4680401e-03  -2.2662999e-03
   6.3331577e-04   3.4761065e-04   1.0520162e-03   2.6251620e-04   1.5458139e-04   3.7799802e-04   4.0222891e-04   4.6512581e-04   4.9146183e-04   1.1170927e-03   7.6405372e-04   5.5570155e-04   6.1447109e-04   7.1388646e-04   3.1077187e-04   1.9658165e-04  -7.0395879e-05  -5.3465064e-04   9.9930761e-04   6.0247700e-04   1.4645478e-03   8.4309846e-05   7.0982322e-04   4.8669678e-04   5.8828981e-04   6.6511764e-04   6.2233920e-04   4.9901300e-04   3.6138386e-04   3.5239858e-04   3.6808965e-04   4.2168738e-04   6.8119849e-04  -1.3073223e-03   7.0908270e-04   5.2488921e-04   6.9504173e-04   5.5003393e-04   7.4787665e-04  -6.2777888e-04   5.7690890e-05  -4.0417904e-04   1.1179057e-03  -3.4201425e-03  -2.1149730e-03  -3.5658588e-03   1.8246245e-03   4.0516575e-04  -3.5418835e-03  -2.0503337e-03
   6.3474436e-04   3.5508617e-04   1.0304598e-03   2.4067689e-04   1.4880208e-04   3.6947828e-04   3.9288480e-04   4.6654735e-04   4.5826501e-04   1.1299209e-03   7.6391711e-04   5.6592876e-04   5.9800508e-04   6.7791174e-04   2.7199090e-04   2.0858644e-04  -6.0468505e-05  -5.2467483e-04   8.8546402e-04   6.0150959e-04   1.4648611e-03   8.3741048e-05   7.2643196e-04   4.7000946e-04   5.7527883e-04   6.6801487e-04   6.0986483e-04   4.8480343e-04   3.3701383e-04   3.5596892e-04   3.9065356e-04   4.1996280e-04   6.6828355e-04  -1.3085566e-03   7.2911178e-04   5.1477837e-04   6.9381483e-04   5.2997208e-04   7.4751611e-04  -6.3921331e-04   5.6877074e-05  -4.0690150e-04   1.1123626e-03  -3.4306461e-03  -2.1315021e-03  -3.6135439e-03   1.8719091e-03   4.3176810e-04  -3.5823360e-03  -2.1939967e-03
   6.3539296e-04   3.5109482e-04   1.0322127e-03   2.4195387e-04   1.5145601e-04   3.5887075e-04   3.9599702e-04   4.6685713e-04   4.8338427e-04   1.1315754e-03   7.8356697e-04   5.3965807e-04   6.2174845e-04   6.8226137e-04   2.9107663e-04   2.0101581e-04  -6.3321575e-05  -5.5538281e-04   9.9425053e-04   5.8729009e-04   1.4626378e-03   5.1411793e-05   7.2653749e-04   4.9475208e-04   5.6146126e-04   6.5873872e-04   6.1705400e-04   4.9652811e-04   3.0963591e-04   3.6097519e-04   3.7213479e-04   4.1725018e-04   6.6219777e-04  -1.3124589e-03   7.0633582e-04   5.1918271e-04   6.8277068e-04   5.1507354e-04   7.5080688e-04  -6.4894638e-04   9.8944176e-05  -4.0123463e-04   1.1216097e-03  -3.4347710e-03  -2.1273533e-03  -3.6462448e-03   1.8293224e-03   4.3108588e-04  -3.3817710e-03  -2.4700586e-03
   6.3001382e-04   3.6130575e-04   1.0197890e-03   2.4817017e-04   1.4872332e-04   3.6908741e-04   3.8873998e-04   4.5406283e-04   6.2425813e-04   1.1374551e-03   7.9617283e-04   5.6713563e-04   6.0289731e-04   6.6495501e-04   2.6578014e-04   2.2525385e-04  -7.7339733e-05  -5.6353037e-04   1.1849721e-03   6.0014112e-04   1.4915746e-03   4.9285325e-05   7.0329569e-04   4.7538892e-04   5.5675389e-04   6.5420859e-04   5.8965443e-04   4.9066677e-04   2.9310695e-04   3.5325030e-04   3.6535095e-04   3.9775824e-04   6.6264195e-04  -1.3054149e-03   6.9384190e-04   5.1193126e-04   6.9330924e-04   5.2289048e-04   7.0658181e-04  -6.4852356e-04   7.7218516e-05  -3.9838522e-04   1.1222414e-03  -3.4539467e-03  -2.1284465e-03  -3.6969078e-03   1.8610667e-03   3.9703652e-04  -3.7832856e-03  -2.3564005e-03
   6.1455910e-04   3.6336022e-04   1.0064675e-03   2.4818373e-04   1.4704322e-04   3.6023307e-04   3.7142891e-04   4.5772994e-04   4.4430865e-04   1.1281499e-03   8.1668788e-04   5.4901704e-04   6.0521858e-04   6.5593008e-04   2.6214213e-04   2.2621121e-04  -7.2766692e-05  -5.7973061e-04   1.0454651e-03   6.1264954e-04   1.5112332e-03   3.9996408e-05   7.1301579e-04   5.2789808e-04   5.5739586e-04   6.5265887e-04   5.9592497e-04   4.9716397e-04   3.0623632e-04   3.4347101e-04   3.8352970e-04   4.0337991e-04   6.5120903e-04  -1.3116386e-03   7.0075894e-04   5.2044797e-04   7.0008350e-04   4.9906026e-04   7.3424622e-04  -6.5064244e-04   2.8319213e-05  -3.9639289e-04   1.1117043e-03  -3.4735813e-03  -2.1335669e-03  -3.7422804e-03   1.8438252e-03   4.6996298e-04  -3.5171006e-03  -2.3414106e-03
   6.1655522e-04   3.6570255e-04   1.0121507e-03   2.6921023e-04   1.5031215e-04   3.6106515e-04   4.0045285e-04   4.6323033e-04   4.5245443e-04   1.1430026e-03   8.2965079e-04   5.3929957e-04   6.2095956e-04   6.7221781e-04   2.7665717e-04   2.4145933e-04  -6.6707609e-05  -5.5969652e-04   1.1150925e-03   6.3101598e-04   1.5201289e-03   3.9397484e-05   7.1157428e-04   5.5245869e-04   5.5673119e-04   6.5622490e-04   6.1503315e-04   4.9986748e-04   2.8585547e-04   3.4447687e-04   4.0818413e-04   4.2217330e-04   6.5723358e-04  -1.3053966e-03   7.1216852e-04   5.1226339e-04   6.7763909e-04   5.2563671e-04   7.3952618e-04  -6.3890871e-04   6.1493214e-05  -3.9435999e-04   1.0968018e-03  -3.4667081e-03  -2.1489807e-03  -3.7334757e-03   1.8723159e-03   4.3094694e-04  -3.6723686e-03  -2.1890968e-03
   6.2256190e-04   3.5566231e-04   1.0096092e-03   2.7887800e-04   1.5576671e-04   3.6690399e-04   3.9080091e-04   4.8904622e-04   5.4124405e-04   1.1669031e-03   8.3286205e-04   5.4614572e-04   6.1763806e-04   6.3830183e-04   2.6776022e-04   2.4374842e-04  -5.8009726e-05  -5.7555240e-04   9.6677575e-04   6.3168269e-04   1.5325519e-03   4.1587813e-05   7.2810811e-04   5.3740368e-04   5.8840041e-04   6.4221577e-04   5.6982297e-04   4.7715072e-04   2.8525080e-04   3.6057321e-04   4.2418271e-04   4.0200833e-04   6.6900870e-04  -1.3005508e-03   6.9787854e-04   5.0051784e-04   6.7669089e-04   5.0952833e-04   7.4345258e-04  -6.0851977e-04   1.1808980e-04  -4.0392581e-04   1.0824502e-03  -3.4187983e-03  -2.1836031e-03  -3.7174001e-03   1.9024395e-03   4.3941993e-04  -3.6220520e-03  -2.1678829e-03
   6.2070257e-04   3.3666703e-04   1.0249291e-03   2.9927521e-04   1.4117462e-04   3.6569507e-04   4.5881257e-04   4.8470264e-04   5.2933214e-04   1.1539144e-03   7.9871621e-04   5.2819494e-04   6.1330397e-04   6.2724121e-04   2.7896263e-04   2.2772215e-04  -4.6553439e-05  -5.5729586e-04   9.2462625e-04   6.0758839e-04   1.5109279e-03   5.2745032e-05   7.2709523e-04   5.2701362e-04   6.2703161e-04   6.6083722e-04   5.8660429e-04   4.6857062e-04   2.7458617e-04   3.7423772e-04   4.4073828e-04   4.1696042e-04   6.2922842e-04  -1.2938724e-03   7.1506784e-04   5.0962885e-04   6.7616982e-04   5.5721094e-04   7.2128745e-04  -6.1587954e-04   9.7969263e-05  -4.0472078e-04   1.0841026e-03  -3.4146737e-03  -2.1056272e-03  -3.6714450e-03   1.8652625e-03   4.9878826e-04  -3.6418820e-03  -2.3256319e-03
   6.4968120e-04   3.0741884e-04   1.0667712e-03   3.1375029e-04   1.5008308e-04   4.0132285e-04   5.1104778e-04   4.5042005e-04   5.3984206e-04   1.1460390e-03   8.0012146e-04   5.0763576e-04   6.5030879e-04   6.6413428e-04   3.3272212e-04   2.8869029e-04  -5.2526055e-05  -5.5296061e-04   1.0277530e-03   5.6521106e-04   1.6169518e-03   2.1340365e-04   7.9311122e-04   5.4176647e-04   6.6572457e-04   6.8435370e-04   5.9014856e-04   4.7161378e-04   2.8565526e-04   3.8307317e-04   4.1171993e-04   4.0670947e-04   5.8643922e-04  -1.2416720e-03   7.3101750e-04   5.0410541e-04   6.5374887e-04   5.6528428e-04   7.6284888e-04  -5.8003917e-04   1.2885362e-04  -3.6124565e-04   1.1005305e-03  -3.3088755e-03  -2.1722554e-03  -3.5443068e-03   1.9092475e-03   4.2800515e-04  -3.4463576e-03  -2.2228847e-03
   6.8067206e-04   2.9268817e-04   1.1275924e-03   2.8137016e-04   1.4435596e-04   4.1368988e-04   5.3446420e-04   4.5088187e-04   5.9777580e-04   1.0094556e-03   7.4246689e-04   5.0158123e-04   6.1781419e-04   6.1695324e-04   3.6921751e-04   2.7632210e-04  -1.0094351e-04  -5.0987309e-04   8.7967451e-04   4.6511128e-04   1.5496297e-03   2.2295666e-04   8.2762539e-04   6.0845428e-04   8.5331040e-04   9.0982195e-04   6.9116353e-04   4.9548881e-04   3.0145104e-04   4.4572869e-04   4.9953151e-04   3.9472358e-04   6.5131945e-04  -1.3021032e-03   8.7442814e-04   5.2563596e-04   6.8924477e-04   5.7204836e-04   8.1049599e-04  -4.8276022e-04   2.2583255e-04  -2.6740984e-04   1.1764643e-03  -3.4874058e-03  -2.1576697e-03  -3.8714842e-03   1.9680455e-03   4.5200990e-04  -3.7087044e-03  -2.4068041e-03
   6.4970553e-04   3.1671821e-04   9.9161966e-04   4.0987501e-04   1.3296660e-04   4.0398247e-04   8.1953104e-04   3.5094630e-04   4.8082010e-04   7.5321167e-04   3.9721181e-04   5.4786575e-04   5.1171094e-04   5.4854242e-04   5.5524224e-04   1.1916176e-04  -1.9593749e-04  -5.4116297e-04   8.6370273e-04   3.9095542e-04   1.4881628e-03   2.1790575e-04   7.7140646e-04   6.5859867e-04   9.7615761e-04   9.4045320e-04   6.9030735e-04   4.5548606e-04   2.6881674e-04   4.3955669e-04   5.1587645e-04   3.7997536e-04   6.8316452e-04  -1.3348460e-03   8.4033125e-04   5.2087335e-04   6.4678479e-04   5.4497510e-04   7.9230475e-04  -5.2413263e-04   1.6157290e-04  -3.1545333e-04   1.1180575e-03  -3.5208887e-03  -2.1934877e-03  -3.9201374e-03   1.9363652e-03   5.1025144e-04  -3.5809907e-03  -2.4916036e-03
   6.3059299e-04   2.9943339e-04   1.0285645e-03   3.7579707e-04   1.3458740e-04   3.7784129e-04   6.7243580e-04   3.6768353e-04   4.1421360e-04   8.3648227e-04   4.9615535e-04   4.6564057e-04   5.3990795e-04   5.4177205e-04   4.7441962e-04   1.9236606e-04  -1.8391802e-04  -5.8259908e-04   8.7333802e-04   4.4169975e-04   1.5146161e-03   2.0742044e-04   7.4200804e-04   6.9352973e-04   8.3597802e-04   9.1418094e-04   6.5521448e-04   4.7304772e-04   2.3629167e-04   4.1178899e-04   4.8992806e-04   3.8753718e-04   6.8152562e-04  -1.3240195e-03   8.5348677e-04   5.1757862e-04   6.7481189e-04   5.4104329e-04   7.8860420e-04  -5.3252158e-04   1.3554962e-04  -3.4408874e-04   1.1103192e-03  -3.5251649e-03  -2.2045560e-03  -3.9060980e-03   1.9358287e-03   4.9256394e-04  -3.6728042e-03  -2.3725880e-03
   6.1619509e-04   3.2828914e-04   1.0182725e-03   3.3543285e-04   1.3893140e-04   3.5045485e-04   5.7046901e-04   3.8132389e-04   4.3300955e-04   8.8493747e-04   5.2806723e-04   4.5996543e-04   5.4419058e-04   5.3443300e-04   3.9950764e-04   2.2969724e-04  -1.8671787e-04  -5.9730985e-04   8.7306020e-04   4.7731207e-04   1.5117485e-03   1.9669934e-04   7.3164509e-04   6.9792202e-04   8.0253079e-04   8.7656139e-04   6.2546629e-04   4.6584904e-04   2.3998762e-04   3.9570912e-04   4.2385646e-04   3.7212970e-04   6.6682760e-04  -1.3286616e-03   8.1718608e-04   5.2763324e-04   6.6498504e-04   5.1139802e-04   7.9546199e-04  -5.7692919e-04   1.1449440e-04  -3.5060037e-04   1.1079350e-03  -3.5303326e-03  -2.1873536e-03  -3.8907968e-03   1.9414070e-03   5.0942181e-04  -3.4098395e-03  -2.4477278e-03
   5.9664092e-04   3.1518933e-04   1.0122225e-03   3.4258526e-04   1.3712530e-04   3.6686071e-04   6.1052456e-04   3.7564011e-04   4.6251543e-04   8.6062611e-04   5.1428017e-04   4.2996471e-04   5.4887694e-04   5.3855684e-04   4.2834436e-04   1.9576027e-04  -1.8479567e-04  -5.8372028e-04   9.0456835e-04   4.6936233e-04   1.5113585e-03   1.9848623e-04   7.2501804e-04   6.9655455e-04   8.3740329e-04   8.6814119e-04   6.4853416e-04   4.6404550e-04   2.6740431e-04   4.1130013e-04   4.3917409e-04   3.6793351e-04   6.7591277e-04  -1.3399322e-03   8.3461258e-04   5.0526037e-04   6.6427910e-04   5.2700570e-04   7.8251987e-04  -5.6308752e-04   1.3756737e-04  -3.6080930e-04   1.1184919e-03  -3.5121208e-03  -2.1983203e-03  -3.8492598e-03   1.9222019e-03   5.8696937e-04  -3.5041065e-03  -2.3308517e-03
   6.2379055e-04   3.0897203e-04   1.0288985e-03   3.5861135e-04   1.4107212e-04   3.6273093e-04   6.2693661e-04   3.8103035e-04   3.9774308e-04   8.6924731e-04   5.1177130e-04   4.5247609e-04   5.3481886e-04   5.3070253e-04   4.4350204e-04   1.8918746e-04  -1.9113693e-04  -5.9670501e-04   7.9727516e-04   4.7749927e-04   1.5736542e-03   2.0339112e-04   7.1717281e-04   6.7991705e-04   8.2379789e-04   8.7060221e-04   6.3405145e-04   4.5546817e-04   2.7584709e-04   3.9717261e-04   4.7260203e-04   3.6798473e-04   7.0462649e-04  -1.3459360e-03   8.1134320e-04   4.9267488e-04   6.6314655e-04   5.4326531e-04   7.4019452e-04  -5.8673351e-04   9.4115414e-05  -3.6545965e-04   1.1369574e-03  -3.5006898e-03  -2.1728128e-03  -3.8680553e-03   1.9238172e-03   5.3862570e-04  -3.8362991e-03  -2.2559548e-03
   5.7083694e-04   3.3334177e-04   9.7620656e-04   3.5656878e-04   1.3951742e-04   3.4265750e-04   6.0318405e-04   3.5649427e-04   3.0585640e-04   8.4504421e-04   4.9584103e-04   4.7977793e-04   5.3732417e-04   5.3448742e-04   4.2006909e-04   1.4668306e-04  -1.8072718e-04  -5.7285337e-04   9.2912751e-04   5.1779015e-04   1.4986210e-03   9.6777767e-05   7.2650984e-04   6.9162430e-04   7.9926330e-04   8.6525560e-04   6.4939517e-04   4.4985145e-04   2.1918025e-04   3.9139879e-04   4.9845240e-04   3.9559047e-04   7.7759812e-04  -1.3456362e-03   8.1935228e-04   5.0873018e-04   6.8094837e-04   5.3457037e-04   7.8718847e-04  -5.3106132e-04   1.4630119e-04  -3.2389516e-04   1.1609597e-03  -3.4622843e-03  -2.1461023e-03  -3.9483164e-03   2.0246694e-03   6.4680015e-04  -3.2532522e-03  -2.3283963e-03
   7.3140545e-04   3.7847631e-04   1.0866969e-03   6.8444072e-04   1.5645257e-04   4.7921302e-04   1.2989409e-03   2.9850315e-04   5.0644256e-04   7.0013554e-04   2.3553683e-04   6.3061429e-04   5.2050361e-04   5.0302682e-04   8.2683825e-04  -1.5693589e-04  -2.6848420e-04  -5.4618454e-04   1.1365686e-03   3.4154815e-04   1.0394570e-03   6.1214512e-04   9.1618416e-04   9.4009237e-04   1.3563243e-03   1.1107468e-03   8.1517955e-04   6.1050017e-04   4.0990469e-04   7.0693495e-04   9.9577778e-04   4.7957854e-04   8.5715239e-04  -1.4688096e-03   9.9088275e-04   5.2805303e-04   7.7929505e-04   5.4038572e-04   1.0002037e-03  -3.4076607e-04   3.1140700e-04  -7.4775708e-05   1.3251060e-03  -3.5545346e-03  -2.1272835e-03  -4.2613302e-03   2.1005191e-03   7.4239244e-04  -3.4934175e-03  -2.6820891e-03
   8.3402207e-04   3.5506976e-04   1.1149122e-03   8.3746179e-04   1.3016065e-04   5.0176837e-04   1.5043566e-03   2.5510500e-04   5.6048762e-04   6.7472464e-04   1.1324205e-04   5.5983861e-04   4.4314386e-04   4.8120628e-04   8.4284489e-04  -2.3888984e-04  -3.5503245e-04  -5.4469024e-04   1.1613528e-03   2.5367460e-04   8.5897651e-04   6.3704787e-04   9.0106117e-04   9.8334765e-04   1.3573446e-03   1.1199650e-03   7.8114687e-04   6.2089524e-04   3.9646545e-04   7.3168869e-04   9.9427497e-04   4.6164522e-04   8.3760661e-04  -1.4799014e-03   9.7572908e-04   4.8262009e-04   7.4204837e-04   5.5199314e-04   1.0123558e-03  -3.3398738e-04   3.1696862e-04  -7.1405884e-05   1.2608756e-03  -3.6043066e-03  -2.1461104e-03  -4.3265959e-03   2.0373713e-03   6.7593087e-04  -3.6151202e-03  -2.5405642e-03
   8.2855759e-04   3.1425076e-04   1.0558304e-03   7.4105023e-04   1.1632453e-04   4.5728989e-04   1.4696777e-03   1.9584452e-04   4.7292220e-04   5.9091707e-04   2.1678221e-05   5.2322441e-04   3.5878093e-04   4.4692151e-04   7.7066553e-04  -3.9547184e-04  -3.8257753e-04  -5.2211585e-04   1.0482598e-03   2.0471917e-04   7.1422628e-04   5.0673517e-04   8.6373073e-04   8.3808805e-04   1.3151554e-03   1.0964344e-03   6.9344637e-04   5.4119766e-04   4.6308880e-04   6.8903196e-04   9.5239049e-04   4.6232558e-04   8.4336492e-04  -1.4879055e-03   9.4876427e-04   4.4917173e-04   6.6157407e-04   6.1722379e-04   9.7062590e-04  -3.3657707e-04   2.4758879e-04  -1.6096738e-04   1.2475820e-03  -3.6162785e-03  -2.2701507e-03  -4.3077138e-03   1.9440218e-03   6.7756098e-04  -3.3769682e-03  -2.5128790e-03
   7.8125967e-04   3.1092775e-04   9.8292169e-04   6.9197931e-04   1.2610729e-04   4.1999246e-04   1.3594314e-03   1.9121183e-04   4.7848083e-04   5.5675377e-04   8.5845504e-06   4.6385729e-04   3.5364038e-04   4.4114553e-04   7.7174598e-04  -3.6281368e-04  -3.5423707e-04  -5.3684047e-04   1.0716565e-03   2.1865936e-04   7.7847671e-04   4.1431890e-04   8.1936899e-04   8.0475124e-04   1.2843842e-03   1.0838321e-03   7.3054695e-04   5.5477285e-04   4.2992752e-04   6.7536841e-04   8.8055752e-04   4.6928457e-04   8.4085111e-04  -1.4841312e-03   9.5041614e-04   4.5773204e-04   6.5927877e-04   6.1181816e-04   9.6337526e-04  -3.7143094e-04   2.1402922e-04  -2.0154701e-04   1.2259976e-03  -3.6038137e-03  -2.2478919e-03  -4.2693336e-03   1.8952031e-03   7.6027837e-04  -3.1094465e-03  -2.5591094e-03
   7.4934424e-04   3.1062198e-04   9.7334548e-04   6.9209939e-04   1.3324237e-04   4.1140223e-04   1.3191339e-03   2.5640838e-04   5.5260153e-04   5.5007270e-04   3.5727164e-05   4.0354894e-04   3.6491742e-04   4.4788996e-04   7.6933455e-04  -3.3710551e-04  -3.4723640e-04  -5.3935457e-04   1.0366067e-03   2.3067642e-04   8.5056695e-04   3.6514550e-04   8.0853171e-04   7.8290905e-04   1.2464620e-03   1.0545503e-03   7.3701428e-04   5.4955407e-04   4.2565790e-04   6.6130457e-04   8.8303530e-04   4.5530355e-04   8.0653030e-04  -1.4484288e-03   9.3891151e-04   4.6883133e-04   6.5418042e-04   6.1770529e-04   9.6238247e-04  -3.6122906e-04   2.2057979e-04  -2.3124029e-04   1.2118837e-03  -3.6058153e-03  -2.2553396e-03  -4.3352409e-03   1.8580493e-03   6.9208216e-04  -3.4790749e-03  -2.1123965e-03
   7.4603909e-04   3.0138681e-04   9.5337006e-04   6.4590061e-04   1.2027739e-04   3.9336449e-04   1.2733905e-03   2.4554715e-04   4.8140989e-04   5.5195054e-04   4.6125704e-05   4.0882011e-04   3.6267767e-04   4.3554106e-04   7.3604670e-04  -3.0480977e-04  -3.1812294e-04  -5.4086221e-04   1.1975106e-03   2.4879564e-04   9.1541017e-04   3.0978696e-04   8.1443193e-04   7.7793701e-04   1.1970253e-03   1.0472243e-03   7.2224176e-04   5.3179509e-04   4.0542355e-04   6.5191748e-04   8.7127223e-04   4.6233079e-04   8.2077802e-04  -1.4437820e-03   9.3889923e-04   4.8537026e-04   6.6633034e-04   6.1207631e-04   9.6133706e-04  -4.1072824e-04   1.9295637e-04  -2.5073107e-04   1.2057192e-03  -3.6541284e-03  -2.3005847e-03  -4.3000039e-03   1.8448206e-03   7.3736545e-04  -3.7016401e-03  -2.3754151e-03
   7.1134680e-04   3.2403678e-04   9.4666088e-04   6.2639191e-04   1.3373054e-04   3.8686499e-04   1.2046136e-03   2.5449885e-04   4.2814188e-04   5.5571715e-04   9.2493166e-05   4.0336486e-04   3.7895725e-04   4.4421855e-04   7.2513620e-04  -2.8500048e-04  -3.1966099e-04  -5.3431990e-04   9.9762611e-04   2.7528472e-04   9.5843425e-04   2.8830912e-04   7.8226114e-04   7.6131232e-04   1.1795620e-03   1.0186061e-03   7.1575493e-04   5.2641105e-04   4.0250251e-04   6.4303534e-04   8.1384671e-04   4.7674740e-04   7.9453964e-04  -1.4307108e-03   9.4503228e-04   4.8166895e-04   6.6367234e-04   6.2852987e-04   9.5022679e-04  -4.2378780e-04   1.5258793e-04  -2.5394608e-04   1.2092575e-03  -3.6480371e-03  -2.2800532e-03  -4.3307263e-03   1.8547688e-03   7.8233075e-04  -3.4854673e-03  -2.4998602e-03
   7.4069051e-04   3.2875431e-04   9.4934762e-04   6.5375172e-04   1.3575188e-04   3.9515473e-04   1.2141950e-03   2.8963372e-04   5.1452039e-04   5.4831535e-04   7.5640477e-05   3.6376313e-04   3.7271297e-04   4.6544199e-04   7.7933475e-04  -2.4805166e-04  -2.9041190e-04  -4.9500522e-04   1.0357911e-03   2.8059812e-04   9.6854125e-04   3.0771026e-04   8.2928885e-04   7.4770639e-04   1.2419475e-03   1.0114542e-03   7.8123127e-04   5.4691953e-04   4.1644368e-04   6.4220018e-04   8.9687976e-04   4.6506632e-04   7.5512152e-04  -1.4506517e-03   9.5199788e-04   4.7650919e-04   6.3162495e-04   6.5227895e-04   9.3932572e-04  -3.6745542e-04   2.1702949e-04  -2.5537048e-04   1.1914857e-03  -3.5950125e-03  -2.2764583e-03  -4.2158859e-03   1.7894888e-03   7.0622104e-04  -3.2335392e-03  -2.1989685e-03
   7.2961097e-04   2.7898359e-04   9.4348396e-04   5.9968204e-04   1.2047333e-04   3.9952461e-04   1.1703522e-03   2.5163172e-04   5.2145519e-04   5.8952416e-04   9.8143217e-05   3.9669211e-04   3.6545814e-04   4.7073982e-04   7.3511072e-04  -2.4988299e-04  -2.8999909e-04  -4.7998404e-04   1.0511188e-03   2.3850189e-04   1.0101913e-03   2.8753228e-04   8.1488240e-04   7.5164216e-04   1.1667296e-03   1.0045638e-03   6.6543592e-04   5.1351765e-04   4.5865134e-04   6.0564716e-04   8.0280600e-04   4.5941680e-04   7.5895403e-04  -1.4377625e-03   9.4957330e-04   4.8457982e-04   6.1597343e-04   6.5957551e-04   9.4745058e-04  -4.3378919e-04   1.7854228e-04  -2.6436624e-04   1.1931706e-03  -3.6075804e-03  -2.2148746e-03  -4.1512484e-03   1.7718291e-03   7.1197358e-04  -3.6364689e-03  -2.1871915e-03
   7.0647971e-04   2.9628858e-04   9.3415537e-04   5.4897147e-04   1.3126859e-04   3.7005389e-04   1.0182535e-03   2.5081955e-04   4.8004149e-04   6.4200506e-04   1.8850616e-04   3.8995978e-04   4.0023471e-04   4.6902147e-04   6.6726987e-04  -1.7128294e-04  -2.6283506e-04  -5.0412182e-04   9.9723821e-04   3.2384167e-04   1.1407237e-03   1.4031641e-04   7.6168892e-04   7.4765563e-04   1.0699733e-03   9.8158582e-04   7.0042553e-04   5.1755883e-04   3.7799703e-04   5.8070186e-04   6.9380971e-04   4.6103419e-04   7.7148969e-04  -1.3906078e-03   9.6797198e-04   5.1007461e-04   6.7338359e-04   6.3493545e-04   9.2277088e-04  -4.8567815e-04   1.6552847e-04  -2.7517436e-04   1.1794294e-03  -3.6076966e-03  -2.2123586e-03  -4.1753277e-03   1.8245416e-03   7.7271386e-04  -3.1642190e-03  -2.1974542e-03
   6.7414122e-04   3.4856494e-04   9.2760299e-04   5.3158257e-04   1.3992532e-04   3.5826076e-04   9.2044391e-04   2.9045183e-04   4.8726064e-04   6.5150246e-04   2.8793188e-04   4.0825241e-04   4.3230888e-04   5.0529517e-04   6.4914738e-04  -1.1625704e-04  -2.3762941e-04  -5.3284370e-04   9.6553622e-04   3.7627216e-04   1.2082403e-03   1.5399455e-04   7.3204836e-04   7.4155710e-04   1.0119539e-03   9.5051131e-04   7.2734582e-04   5.2381982e-04   3.9047498e-04   5.7613483e-04   6.9515989e-04   4.6071011e-04   7.4831280e-04  -1.3825237e-03   9.5609343e-04   5.1512569e-04   6.8280491e-04   6.3227647e-04   8.9339697e-04  -5.1775901e-04   9.5921372e-05  -2.6694962e-04   1.1847307e-03  -3.6170036e-03  -2.2297935e-03  -4.1859234e-03   1.8328514e-03   6.9074892e-04  -3.4716907e-03  -2.2899609e-03
   6.7127368e-04   3.7055503e-04   9.1213582e-04   5.0531462e-04   1.5225877e-04   3.5291296e-04   8.6052855e-04   2.9186966e-04   4.8875686e-04   6.6284393e-04   3.2104133e-04   4.1020560e-04   4.4259266e-04   5.1795866e-04   6.2497146e-04  -9.4699499e-05  -2.1970565e-04  -5.3699262e-04   1.0202188e-03   4.0412371e-04   1.2774392e-03   1.6684353e-04   7.4931193e-04   7.4498018e-04   9.9848316e-04   9.3732629e-04   7.0084509e-04   5.1900599e-04   3.7487361e-04   5.5210653e-04   6.5891718e-04   4.3339439e-04   7.2469405e-04  -1.3986484e-03   9.2966476e-04   5.1117723e-04   6.9237838e-04   5.8469811e-04   8.5843640e-04  -4.9409457e-04   1.6254895e-04  -2.6572580e-04   1.1657838e-03  -3.6045799e-03  -2.2118215e-03  -4.2161830e-03   1.8484246e-03   7.2062283e-04  -3.1019510e-03  -2.2589604e-03
   6.7521684e-04   3.4469034e-04   9.2573359e-04   5.3132401e-04   1.3890248e-04   3.6719706e-04   8.9379773e-04   3.2810564e-04   5.2988803e-04   6.4426457e-04   3.1047961e-04   3.6100554e-04   4.4926407e-04   5.3050171e-04   6.6941493e-04  -3.1970132e-05  -1.8968448e-04  -5.1301322e-04   1.0216582e-03   4.0523428e-04   1.2902025e-03   1.9752512e-04   7.9575612e-04   7.2869851e-04   1.0706972e-03   9.3147252e-04   7.4069068e-04   5.2412425e-04   3.9329132e-04   5.6754699e-04   6.9711410e-04   4.4606769e-04   6.9189316e-04  -1.4015492e-03   9.3093776e-04   5.1297486e-04   6.3392764e-04   6.2788971e-04   8.7968347e-04  -4.8573152e-04   1.6515247e-04  -2.8190718e-04   1.1615050e-03  -3.5415674e-03  -2.2565671e-03  -4.1006547e-03   1.8134994e-03   7.3397765e-04  -3.4306468e-03  -2.0370183e-03
   7.0454628e-04   3.0785112e-04   9.4920531e-04   5.0844153e-04   1.3072851e-04   3.7457989e-04   9.0847193e-04   3.1982423e-04   5.1406119e-04   6.4955588e-04   3.0728083e-04   3.5997541e-04   4.4841928e-04   5.1232229e-04   6.5766938e-04  -4.1178075e-05  -2.0769407e-04  -5.0930696e-04   9.5230393e-04   3.8311136e-04   1.3279618e-03   2.0698595e-04   7.5204601e-04   6.9923641e-04   1.0053589e-03   9.3907543e-04   6.6852412e-04   4.9061002e-04   3.9226393e-04   5.5423315e-04   6.5724092e-04   4.3177835e-04   6.8030437e-04  -1.3984574e-03   9.2317263e-04   5.1658490e-04   6.5045460e-04   6.0657162e-04   8.5547246e-04  -4.9089873e-04   1.5121220e-04  -2.6060821e-04   1.1713714e-03  -3.5893042e-03  -2.1935655e-03  -4.0722862e-03   1.8410697e-03   6.5589568e-04  -3.3782658e-03  -2.1529985e-03
   6.7762873e-04   3.1397035e-04   9.3484530e-04   5.0786033e-04   1.3848810e-04   3.5727271e-04   8.5681520e-04   3.2856327e-04   5.6329352e-04   6.7436643e-04   3.4289408e-04   3.6317785e-04   4.5855399e-04   5.0046080e-04   6.1334239e-04   3.2880216e-05  -1.9920498e-04  -5.1885488e-04   1.0361522e-03   4.2301934e-04   1.4532293e-03   2.0527260e-04   7.5943168e-04   7.1778608e-04   9.8932988e-04   9.3387353e-04   7.1987137e-04   5.0983985e-04   3.4032686e-04   5.3566066e-04   6.6211785e-04   4.2059491e-04   6.8383309e-04  -1.4110113e-03   9.2305115e-04   5.3265836e-04   6.7950931e-04   5.9983309e-04   8.9762651e-04  -4.9092417e-04   1.7131852e-04  -2.7667056e-04   1.1455097e-03  -3.6431502e-03  -2.2613397e-03  -4.1739442e-03   1.8374167e-03   6.7315041e-04  -3.4829879e-03  -2.1220583e-03
   6.7326013e-04   3.1046435e-04   9.4416662e-04   5.0205999e-04   1.4207987e-04   3.6956818e-04   8.5548090e-04   3.3617072e-04   5.2097917e-04   6.9235917e-04   3.5277355e-04   3.2698922e-04   4.6576821e-04   4.9810641e-04   6.0622161e-04   5.4409014e-05  -2.1137256e-04  -5.3503306e-04   9.7369385e-04   4.3098291e-04   1.4658815e-03   1.9415996e-04   7.3054235e-04   6.9502898e-04   9.8286208e-04   9.1948890e-04   6.8382244e-04   5.0042657e-04   3.1324360e-04   5.1511970e-04   6.7406893e-04   3.9722823e-04   6.5310148e-04  -1.4223479e-03   9.1390795e-04   5.1970611e-04   6.4451213e-04   6.1160314e-04   8.2532410e-04  -5.0444086e-04   1.4645440e-04  -2.9558458e-04   1.1477417e-03  -3.5954951e-03  -2.2823354e-03  -4.1383007e-03   1.8214872e-03   5.6862854e-04  -3.3598302e-03  -2.1473349e-03
   6.8138121e-04   3.0860404e-04   9.2049839e-04   4.6667387e-04   1.3197554e-04   3.3520942e-04   8.1203994e-04   3.3847729e-04   5.5684586e-04   6.6910801e-04   3.4326583e-04   3.1433432e-04   4.4569917e-04   4.9956999e-04   5.7362573e-04   4.5114994e-05  -1.8990610e-04  -5.3573021e-04   9.0956863e-04   4.3826245e-04   1.4997867e-03   1.9963308e-04   6.8495353e-04   6.5914512e-04   9.5591950e-04   9.0071093e-04   6.4013887e-04   4.7328079e-04   3.2595801e-04   4.9759238e-04   6.3782127e-04   3.8615966e-04   6.3137733e-04  -1.4122715e-03   9.0479932e-04   5.0740247e-04   6.3286856e-04   5.7336781e-04   8.5124443e-04  -5.0799554e-04   1.4387177e-04  -2.8331715e-04   1.1412263e-03  -3.5569409e-03  -2.2115798e-03  -4.1447738e-03   1.8139530e-03   5.5180438e-04  -3.1773488e-03  -2.2207953e-03
   6.4963673e-04   2.9609870e-04   9.1163034e-04   4.7918805e-04   1.3545813e-04   3.3778386e-04   7.9572544e-04   3.3495828e-04   5.2042719e-04   6.4009760e-04   3.3997913e-04   3.1126590e-04   4.6848803e-04   5.1545253e-04   5.9169438e-04   5.5193050e-05  -1.6981663e-04  -5.5041665e-04   9.4181654e-04   4.3596077e-04   1.4732348e-03   2.3252780e-04   7.3949667e-04   6.6443242e-04   9.8018115e-04   9.0297090e-04   6.6422729e-04   4.7469666e-04   3.4143048e-04   5.0235022e-04   6.5580889e-04   3.9813810e-04   6.0685800e-04  -1.3973158e-03   8.9604093e-04   5.1421457e-04   6.3340133e-04   5.8035826e-04   8.2050508e-04  -4.8523638e-04   1.5987721e-04  -2.6661166e-04   1.1192188e-03  -3.5406458e-03  -2.2285429e-03  -4.1018999e-03   1.8297242e-03   5.6068623e-04  -3.4530242e-03  -2.0769837e-03
   6.5120263e-04   2.9358195e-04   9.1120618e-04   4.6190195e-04   1.2583306e-04   3.5149304e-04   8.0335664e-04   3.6180828e-04   4.5725083e-04   6.3215493e-04   3.5212826e-04   3.1425263e-04   4.8851961e-04   5.2088563e-04   6.0454709e-04   4.1792613e-05  -1.7594418e-04  -5.2421610e-04   9.4226346e-04   4.1659820e-04   1.4415089e-03   2.2205242e-04   7.4370648e-04   6.7200902e-04   1.0128575e-03   9.5533242e-04   6.9540192e-04   5.1109144e-04   3.6408566e-04   5.2623369e-04   6.8010919e-04   4.0137162e-04   6.5282395e-04  -1.4304492e-03   9.5001829e-04   5.0285546e-04   6.6798716e-04   5.9780467e-04   8.8693615e-04  -4.5490256e-04   2.1337296e-04  -1.9213672e-04   1.1662500e-03  -3.5993780e-03  -2.2261098e-03  -4.2401599e-03   1.8774893e-03   5.1574584e-04  -3.2102941e-03  -2.2529115e-03
   6.9055276e-04   3.1921073e-04   8.9360203e-04   5.2257755e-04   1.3301552e-04   3.5522491e-04   9.6763880e-04   2.7449493e-04   6.8521826e-04   5.9425225e-04   2.2975856e-04   4.0384522e-04   4.6314279e-04   4.9946847e-04   6.9689326e-04  -2.5819812e-05  -2.4205261e-04  -5.2651827e-04   8.9302263e-04   3.5139805e-04   1.3850869e-03   2.2139914e-04   7.3521514e-04   7.4716326e-04   1.0735956e-03   9.9335017e-04   7.3324749e-04   5.0566881e-04   2.9263995e-04   5.3377397e-04   6.9275114e-04   3.7364216e-04   6.4732769e-04  -1.4831356e-03   9.3098404e-04   5.0318142e-04   6.3136034e-04   5.5977755e-04   8.2407042e-04  -4.8848928e-04   1.9636122e-04  -2.5160032e-04   1.1051131e-03  -3.5959787e-03  -2.2272777e-03  -4.2776819e-03   1.8089081e-03   5.5430294e-04  -2.9632451e-03  -2.2197359e-03
   6.8705983e-04   2.8944478e-04   9.1363204e-04   4.8958033e-04   1.2187751e-04   3.6523916e-04   9.1289781e-04   2.7527739e-04   5.4434960e-04   6.3029770e-04   2.7781224e-04   3.6762626e-04   4.7828106e-04   4.9995247e-04   7.1637327e-04  -3.2718279e-05  -2.6402081e-04  -5.3323997e-04   9.5717894e-04   2.7783972e-04   1.2121461e-03   2.9454593e-04   8.5757225e-04   8.2303816e-04   1.2713266e-03   1.0658741e-03   7.9407945e-04   5.9747556e-04   4.0015878e-04   6.5051613e-04   9.1894978e-04   4.0303904e-04   7.1399665e-04  -1.5071111e-03   9.9374878e-04   4.4983847e-04   6.5250619e-04   5.0027459e-04   9.1910741e-04  -3.6612054e-04   3.1613198e-04  -5.7587760e-05   1.2311949e-03  -3.5085082e-03  -2.2257357e-03  -4.3656533e-03   1.9385510e-03   5.1978318e-04  -3.4374567e-03  -2.6570333e-03
   8.2204101e-04   2.8894233e-04   1.0526859e-03   7.3954556e-04   1.0444443e-04   4.5402333e-04   1.4521728e-03   2.1568763e-04   6.6424435e-04   5.4998335e-04   3.0658903e-05   5.0993182e-04   3.7331670e-04   5.2999210e-04   8.7279081e-04  -3.6270267e-04  -3.4035623e-04  -5.1837962e-04   1.0513859e-03   2.2401224e-04   7.1812223e-04   5.2950834e-04   8.3576853e-04   8.4860704e-04   1.3839976e-03   1.1074074e-03   7.2681328e-04   6.0449616e-04   4.4972124e-04   7.2760537e-04   1.0231209e-03   4.2410920e-04   7.6130033e-04  -1.4999422e-03   9.6429384e-04   4.3002347e-04   6.3986389e-04   5.4332800e-04   9.6202537e-04  -3.5918195e-04   3.0590399e-04  -7.3870811e-05   1.1809791e-03  -3.4548456e-03  -2.2382410e-03  -4.3195263e-03   1.9104735e-03   5.2245165e-04  -3.8681249e-03  -2.5185461e-03
   8.3642348e-04   2.8608981e-04   1.0062454e-03   7.2155963e-04   8.0049278e-05   4.2814773e-04   1.4449916e-03   1.5105399e-04   5.5505527e-04   5.2113319e-04  -3.2727468e-05   4.3211729e-04   3.3019495e-04   4.8293520e-04   8.0853386e-04  -4.4191035e-04  -3.7762683e-04  -5.2060076e-04   1.0401469e-03   1.7226125e-04   7.0875784e-04   4.6416387e-04   7.9424190e-04   7.7802414e-04   1.2688588e-03   1.0805837e-03   7.3091668e-04   5.5843469e-04   3.9856488e-04   6.9923332e-04   9.3550078e-04   4.4801991e-04   7.7312283e-04  -1.5189145e-03   9.3934417e-04   4.2840216e-04   6.0120225e-04   5.4909068e-04   9.4946258e-04  -3.6787192e-04   2.3436506e-04  -1.4940523e-04   1.1746876e-03  -3.4840372e-03  -2.2515322e-03  -4.3897242e-03   1.8550842e-03   5.9889903e-04  -3.8629500e-03  -2.6531755e-03
   7.6478091e-04   2.7824315e-04   9.3436334e-04   6.8406336e-04   8.7603810e-05   4.0080011e-04   1.3633025e-03   1.7911424e-04   6.1063957e-04   5.2089273e-04  -6.7176206e-06   4.3854726e-04   3.4740029e-04   4.7928689e-04   8.0920593e-04  -4.2412870e-04  -3.7141808e-04  -5.3655915e-04   1.1525040e-03   1.7767477e-04   8.0428424e-04   3.8275949e-04   7.5082609e-04   7.7797507e-04   1.2727749e-03   1.0855088e-03   7.1803032e-04   5.4665544e-04   4.6093771e-04   6.6342228e-04   9.1120240e-04   4.4344206e-04   8.1755355e-04  -1.4912972e-03   9.3636569e-04   4.3912200e-04   5.9361983e-04   5.8261579e-04   9.3356188e-04  -3.9080283e-04   2.0509874e-04  -2.0400144e-04   1.1977454e-03  -3.4694551e-03  -2.2391272e-03  -4.3946467e-03   1.8277481e-03   5.2367395e-04  -3.4817832e-03  -2.7586403e-03
   7.1531854e-04   2.9110201e-04   8.9847943e-04   6.2726001e-04   8.9308312e-05   3.6746799e-04   1.2934069e-03   1.6049125e-04   5.6757941e-04   5.1214371e-04   7.3743236e-06   3.6905718e-04   3.5767243e-04   4.4722299e-04   7.4773066e-04  -3.9693472e-04  -3.5461504e-04  -5.3034304e-04   9.8033668e-04   2.1044492e-04   9.2078128e-04   3.0117726e-04   7.2499271e-04   7.5320055e-04   1.1754618e-03   1.0347337e-03   6.6900323e-04   4.8985949e-04   3.8328100e-04   6.1878673e-04   8.1579416e-04   4.3208813e-04   8.2054990e-04  -1.5011047e-03   8.9420000e-04   4.4607592e-04   5.8502110e-04   5.8824103e-04   9.2962227e-04  -4.2057608e-04   1.7244217e-04  -2.3898861e-04   1.1410818e-03  -3.4918503e-03  -2.3110493e-03  -4.3586637e-03   1.8025733e-03   5.8720890e-04  -3.6539817e-03  -2.7189860e-03
   7.1327155e-04   2.8839539e-04   8.7929977e-04   6.0081703e-04   8.0072852e-05   3.6048802e-04   1.1989517e-03   1.8148674e-04   5.2613090e-04   5.0376361e-04   5.3991007e-05   3.4177044e-04   3.9026875e-04   4.5688174e-04   7.2709564e-04  -3.2732845e-04  -3.3404498e-04  -5.2346016e-04   1.0122865e-03   2.3903989e-04   1.0152173e-03   2.2133028e-04   7.4879843e-04   7.1551517e-04   1.1345842e-03   1.0115374e-03   6.5862865e-04   4.6895817e-04   2.8930631e-04   5.8073719e-04   7.7821297e-04   4.2192230e-04   7.8271650e-04  -1.4685506e-03   9.0679945e-04   4.4584059e-04   5.9570465e-04   5.9843855e-04   8.8681281e-04  -4.6404841e-04   1.4932007e-04  -2.7314885e-04   1.1264737e-03  -3.5061156e-03  -2.3007926e-03  -4.3574832e-03   1.7623191e-03   6.3898944e-04  -3.8232501e-03  -2.4992616e-03
   6.7050720e-04   3.1621809e-04   8.8036311e-04   5.7995674e-04   9.8924422e-05   3.5271622e-04   1.0622999e-03   2.0041082e-04   4.4389151e-04   5.3142325e-04   1.5767878e-04   3.6783176e-04   4.2598843e-04   4.6121870e-04   6.8256620e-04  -2.3791018e-04  -3.0262931e-04  -5.3672428e-04   1.0349957e-03   2.7390133e-04   1.1564530e-03   1.7696600e-04   7.0829672e-04   7.2685129e-04   1.0911225e-03   9.8128698e-04   6.2932557e-04   4.7093019e-04   3.1774640e-04   5.5988302e-04   7.0532021e-04   4.0750127e-04   7.4866437e-04  -1.4651987e-03   9.0759073e-04   4.4871579e-04   6.1106868e-04   5.6990806e-04   8.5804757e-04  -4.6787833e-04   1.2533918e-04  -2.7628514e-04   1.1127419e-03  -3.5944718e-03  -2.2691970e-03  -4.4013625e-03   1.8384740e-03   5.9029175e-04  -3.8162791e-03  -2.5584665e-03
   7.0771825e-04   2.7714917e-04   8.4950106e-04   5.9723930e-04   7.0119218e-05   3.4785585e-04   1.1447697e-03   2.2894908e-04   6.0139678e-04   4.8332755e-04   2.9621428e-05   3.2715383e-04   3.8438904e-04   4.9422873e-04   7.4398873e-04  -2.9257505e-04  -2.9356478e-04  -4.7103534e-04   1.0399623e-03   2.3170171e-04   1.0987987e-03   1.9003465e-04   7.5154944e-04   6.7535683e-04   1.1662389e-03   9.9787291e-04   6.5883412e-04   4.2352133e-04   3.4417157e-04   5.4426742e-04   7.9632958e-04   4.1002961e-04   6.7115272e-04  -1.4737273e-03   8.8030059e-04   4.2387776e-04   5.1816105e-04   6.0315710e-04   8.5428392e-04  -4.3143850e-04   1.6255181e-04  -2.7505224e-04   1.1227757e-03  -3.5152403e-03  -2.2790646e-03  -4.2184815e-03   1.7339926e-03   6.0133613e-04  -3.6243792e-03  -2.5036193e-03
   6.5636169e-04   2.5230419e-04   8.4791757e-04   5.3971208e-04   7.7486897e-05   3.3602532e-04   1.0198907e-03   1.9998029e-04   5.5869744e-04   4.9136550e-04   1.2537354e-04   3.5626857e-04   3.9855693e-04   4.6072382e-04   6.5470970e-04  -2.4503877e-04  -3.0971580e-04  -5.1893439e-04   9.1349438e-04   2.4581817e-04   1.1636493e-03   1.5654886e-04   7.1247556e-04   6.8379904e-04   1.0502915e-03   9.9385739e-04   6.3276268e-04   4.3728223e-04   3.3296412e-04   5.2604824e-04   6.5835565e-04   3.8789219e-04   6.8753015e-04  -1.4472408e-03   8.9046609e-04   4.4557074e-04   5.8687705e-04   5.9814390e-04   8.6166261e-04  -5.0161069e-04   1.2913812e-04  -2.7982343e-04   1.1126215e-03  -3.5734351e-03  -2.2848931e-03  -4.2934474e-03   1.7654612e-03   6.8621815e-04  -3.7921190e-03  -2.4852054e-03
   6.2215677e-04   3.0848107e-04   8.6775067e-04   4.9983687e-04   9.7228534e-05   3.1965500e-04   9.1583736e-04   2.1792616e-04   5.2400067e-04   5.3664052e-04   2.1586881e-04   3.6587808e-04   4.3409618e-04   4.8503044e-04   6.3679036e-04  -1.3675955e-04  -2.9639696e-04  -5.6094903e-04   9.4477128e-04   3.1160674e-04   1.2417972e-03   1.0163643e-04   7.1708753e-04   7.0951297e-04   9.9189882e-04   9.6558727e-04   6.3915417e-04   4.6426267e-04   2.7222451e-04   5.1389460e-04   5.9194950e-04   3.9702537e-04   7.0476264e-04  -1.4360101e-03   8.9926511e-04   4.6036625e-04   6.1437505e-04   5.7371048e-04   8.2375581e-04  -5.2392785e-04   1.1180207e-04  -2.7832427e-04   1.1280308e-03  -3.5977317e-03  -2.2663812e-03  -4.2871097e-03   1.7919946e-03   5.8041472e-04  -3.0483506e-03  -2.6757994e-03
   6.2035315e-04   3.3925124e-04   8.4956776e-04   4.8482159e-04   9.7585347e-05   3.0842700e-04   8.5709605e-04   2.4325775e-04   5.7841867e-04   5.7854515e-04   2.6062119e-04   4.0139133e-04   4.4698390e-04   4.7655433e-04   5.9713272e-04  -1.2465894e-04  -2.8216655e-04  -5.7032582e-04   8.3463418e-04   3.4236736e-04   1.2700412e-03   5.7407142e-05   6.6456792e-04   7.3996559e-04   9.7048300e-04   9.5022307e-04   6.0425064e-04   4.5179969e-04   2.3645649e-04   4.9127633e-04   5.8251614e-04   3.6974991e-04   7.0569786e-04  -1.4473445e-03   8.7484083e-04   4.4639810e-04   6.0653425e-04   5.4531649e-04   8.3609426e-04  -5.4327201e-04   1.4135723e-04  -2.8156448e-04   1.0833916e-03  -3.6105735e-03  -2.2817836e-03  -4.3656225e-03   1.7732913e-03   6.5685343e-04  -3.4443468e-03  -2.5693998e-03
   6.2920008e-04   3.4054645e-04   8.5092336e-04   4.8813203e-04   1.0198490e-04   2.9892955e-04   8.5886527e-04   2.5654410e-04   4.1554662e-04   5.7569210e-04   2.4553936e-04   3.8825313e-04   4.4100397e-04   4.9059151e-04   6.1535073e-04  -1.4470480e-04  -2.7519363e-04  -5.7573267e-04   9.1685838e-04   3.6560805e-04   1.2952094e-03  -5.5534922e-05   6.9841160e-04   7.0955628e-04   9.9687255e-04   9.3756267e-04   6.3480588e-04   4.3817493e-04   3.1212109e-04   4.8427499e-04   6.0287269e-04   3.8113663e-04   7.1829068e-04  -1.4276779e-03   8.9206937e-04   4.5870806e-04   6.1229657e-04   5.6483649e-04   7.9033180e-04  -5.3802831e-04   1.4238733e-04  -2.8977453e-04   1.1016845e-03  -3.5773092e-03  -2.2818381e-03  -4.3031476e-03   1.7798424e-03   7.1228610e-04  -3.2069318e-03  -2.5660573e-03
   6.3004228e-04   3.4171372e-04   8.5782254e-04   5.0222478e-04   9.6777003e-05   3.0201231e-04   8.5371337e-04   2.3940452e-04   5.0800678e-04   5.8910181e-04   2.6108589e-04   3.9418205e-04   4.3866495e-04   4.9885770e-04   6.3232373e-04  -1.4384638e-04  -2.6600552e-04  -5.7519606e-04   9.9625241e-04   3.7145792e-04   1.3042196e-03  -7.4768242e-05   6.8051246e-04   7.0414832e-04   9.8835502e-04   9.2774228e-04   6.0416322e-04   4.4436124e-04   2.6151468e-04   4.6813264e-04   6.1991537e-04   3.7633828e-04   7.4859825e-04  -1.4317255e-03   8.9468848e-04   4.5145789e-04   5.9531297e-04   5.5229542e-04   8.1230199e-04  -5.4172758e-04   1.1029952e-04  -2.8578774e-04   1.0784069e-03  -3.6003764e-03  -2.2415915e-03  -4.3020421e-03   1.7844074e-03   6.2182487e-04  -3.9241104e-03  -2.5927483e-03
   6.1915402e-04   3.4690567e-04   8.5427338e-04   4.8011530e-04   1.1025936e-04   2.9212446e-04   8.4260618e-04   2.4088718e-04   3.9921392e-04   5.8668852e-04   2.8152458e-04   4.0862552e-04   4.3369463e-04   4.9638748e-04   6.1066513e-04  -1.4163009e-04  -2.7143871e-04  -5.8860390e-04   8.8163750e-04   3.6955677e-04   1.3030976e-03  -4.7675021e-05   6.8291044e-04   6.9325964e-04   9.6296234e-04   9.2346466e-04   6.2808290e-04   4.3327094e-04   2.6703076e-04   4.6721133e-04   5.9107348e-04   3.7618977e-04   6.9698802e-04  -1.4344280e-03   8.7496947e-04   4.3795633e-04   6.0734892e-04   5.4688059e-04   8.0081943e-04  -5.6024687e-04   9.7730313e-05  -3.0093308e-04   1.1127674e-03  -3.6175316e-03  -2.2485924e-03  -4.3188878e-03   1.7826351e-03   6.5978157e-04  -3.4724844e-03  -2.6256398e-03
   6.2569964e-04   3.5625149e-04   8.5679221e-04   4.9181056e-04   1.1061443e-04   2.9852870e-04   8.2296476e-04   2.4415494e-04   4.6875651e-04   5.8372039e-04   2.9895114e-04   3.9993724e-04   4.2634539e-04   4.9392681e-04   6.0757215e-04  -1.2397538e-04  -2.7552753e-04  -5.8139855e-04   1.0333356e-03   3.8346919e-04   1.3151374e-03  -3.5589466e-05   6.9531624e-04   6.9475407e-04   9.7530428e-04   9.1722782e-04   6.5382541e-04   4.4748335e-04   2.6485065e-04   4.6389081e-04   5.9751788e-04   3.9282939e-04   6.9311733e-04  -1.4401695e-03   8.9611177e-04   4.5767610e-04   6.2711298e-04   5.5704225e-04   7.7751733e-04  -5.7176937e-04   8.6778025e-05  -2.9099334e-04   1.0965944e-03  -3.6364258e-03  -2.2417216e-03  -4.2903125e-03   1.8075050e-03   7.2772958e-04  -3.6716587e-03  -2.5947802e-03
   6.6053105e-04   3.6387632e-04   8.2867674e-04   5.2982097e-04   1.0054899e-04   2.9802386e-04   9.3163957e-04   2.7278360e-04   5.0258019e-04   5.3745601e-04   2.1452694e-04   3.7122986e-04   3.8804274e-04   4.9646042e-04   7.1469130e-04  -2.1511728e-04  -2.6388236e-04  -5.3560833e-04   1.1085231e-03   3.3217057e-04   1.1424533e-03   1.1910928e-04   7.6457526e-04   6.7244208e-04   1.1474985e-03   9.3369011e-04   6.9321145e-04   4.4314063e-04   2.7189977e-04   5.0748797e-04   7.4595475e-04   3.7418271e-04   6.7391508e-04  -1.4618119e-03   8.8850805e-04   4.3226872e-04   5.4332474e-04   5.4891582e-04   7.9010351e-04  -4.7550362e-04   1.4225257e-04  -3.0810552e-04   1.0582524e-03  -3.5295801e-03  -2.2731132e-03  -4.1638487e-03   1.7812923e-03   6.3905225e-04  -3.5046816e-03  -2.4281703e-03
   6.8236550e-04   2.5839848e-04   8.6004304e-04   5.0628674e-04   8.5358144e-05   3.1902708e-04   9.5104298e-04   2.1826380e-04   5.5952475e-04   5.0732278e-04   1.9968224e-04   3.7373451e-04   3.6410170e-04   4.8802255e-04   6.6118781e-04  -2.2248173e-04  -2.7712961e-04  -5.5639626e-04   9.6450571e-04   3.1030382e-04   1.1799848e-03   5.4018521e-05   7.0843491e-04   6.5428100e-04   1.0454854e-03   9.3109615e-04   6.1311410e-04   4.1639939e-04   2.5532604e-04   4.8123006e-04   6.5982796e-04   3.8775156e-04   6.4128992e-04  -1.4421600e-03   9.0240873e-04   4.3878477e-04   5.5845751e-04   5.7107664e-04   8.0390007e-04  -5.4183893e-04   1.0766504e-04  -2.9786691e-04   1.0887349e-03  -3.5956369e-03  -2.2311851e-03  -4.3184548e-03   1.8017583e-03   6.6679250e-04  -3.4723638e-03  -2.5677700e-03
   6.1567943e-04   3.0055898e-04   8.4154337e-04   4.7624111e-04   9.0158253e-05   2.9120993e-04   8.3373202e-04   2.4218058e-04   5.1603618e-04   5.2673800e-04   2.6218759e-04   3.6372562e-04   3.8566263e-04   5.0865399e-04   6.3867273e-04  -1.2694087e-04  -2.7418448e-04  -5.7105848e-04   9.8072377e-04   3.6827745e-04   1.2662553e-03   5.6820959e-06   6.9223286e-04   6.6076749e-04   9.7251439e-04   9.1489824e-04   6.6631124e-04   4.5736297e-04   2.5450604e-04   4.7261216e-04   6.2645320e-04   3.7616485e-04   6.7445135e-04  -1.4362362e-03   9.0013607e-04   4.5736149e-04   5.9676927e-04   5.6304969e-04   7.8409282e-04  -5.5262644e-04   1.2288816e-04  -2.8974339e-04   1.0673407e-03  -3.6325247e-03  -2.2417172e-03  -4.3288292e-03   1.7952295e-03   6.8994850e-04  -3.6085360e-03  -2.4526641e-03
   6.4845337e-04   3.1558645e-04   8.2663208e-04   4.8226232e-04   9.2036244e-05   2.9753652e-04   8.1409945e-04   2.5630952e-04   5.2914384e-04   5.4719724e-04   2.5949688e-04   3.6189560e-04   3.7565167e-04   5.0460937e-04   6.5381918e-04  -1.2874005e-04  -2.6340692e-04  -5.6510285e-04   1.0216912e-03   3.7030102e-04   1.2738506e-03   5.7927368e-06   6.8968785e-04   6.6817028e-04   9.9772797e-04   9.0914872e-04   6.5554981e-04   4.4321863e-04   2.2013570e-04   4.7023105e-04   6.2280538e-04   3.7539538e-04   6.5757276e-04  -1.4495772e-03   8.9648296e-04   4.4162088e-04   5.8484182e-04   5.4473028e-04   7.7710085e-04  -5.6511536e-04   1.2832570e-04  -3.0739678e-04   1.0718451e-03  -3.6112948e-03  -2.2433540e-03  -4.2977706e-03   1.7969212e-03   6.2903209e-04  -3.4820125e-03  -2.4852587e-03
   6.3945475e-04   3.1103290e-04   8.2573009e-04   4.6293190e-04   9.4445080e-05   2.9118563e-04   8.0158748e-04   2.4020890e-04   5.0395750e-04   5.4326281e-04   2.6355207e-04   3.6429171e-04   3.7231680e-04   5.0141942e-04   6.5406598e-04  -1.1887399e-04  -2.6924897e-04  -5.8023457e-04   9.4586326e-04   3.7120038e-04   1.2732350e-03   3.3730402e-07   7.0716732e-04   6.6416932e-04   9.9519617e-04   8.9246168e-04   6.5619632e-04   4.5334690e-04   2.5773814e-04   4.5825623e-04   6.0028891e-04   3.5788480e-04   6.4977916e-04  -1.4515645e-03   8.8809471e-04   4.5385453e-04   5.9506320e-04   5.4170995e-04   7.6401688e-04  -5.8779551e-04   1.0273758e-04  -3.0279119e-04   1.0714533e-03  -3.6255769e-03  -2.2641530e-03  -4.3128557e-03   1.7990830e-03   6.5203494e-04  -4.0201996e-03  -2.6063463e-03
   6.3407514e-04   3.1378851e-04   8.3704176e-04   4.6967028e-04   9.6896169e-05   2.9256594e-04   8.0696214e-04   2.5586426e-04   5.1881734e-04   5.4797955e-04   2.9050501e-04   3.6008013e-04   3.7659419e-04   5.2294345e-04   6.6736527e-04  -1.1110075e-04  -2.5447700e-04  -5.9582491e-04   9.8387396e-04   3.8043657e-04   1.2785629e-03   1.0455264e-05   6.9316360e-04   6.4699817e-04   9.8393869e-04   8.9358969e-04   6.7696307e-04   4.6158154e-04   2.3391379e-04   4.5976625e-04   6.5089995e-04   3.6615937e-04   6.4955762e-04  -1.4347257e-03   9.2430488e-04   4.4373854e-04   5.9893529e-04   5.3021626e-04   7.7551726e-04  -5.6167674e-04   9.7294695e-05  -2.9049130e-04   1.0955138e-03  -3.6257969e-03  -2.2012300e-03  -4.3284730e-03   1.8076183e-03   6.9423392e-04  -3.7752793e-03  -2.5347930e-03
   6.2880095e-04   3.2338942e-04   8.4241776e-04   4.7539189e-04   9.7034332e-05   3.0404679e-04   7.9512625e-04   2.9503880e-04   5.1537575e-04   5.6403794e-04   2.9039281e-04   3.6293117e-04   3.7352959e-04   5.2147871e-04   6.7778525e-04  -1.0098971e-04  -2.5366159e-04  -5.9340399e-04   1.0073297e-03   3.8908442e-04   1.2756767e-03   2.7494436e-06   6.8041933e-04   6.5226038e-04   9.9725556e-04   8.7888254e-04   6.6596852e-04   4.7081348e-04   2.3426731e-04   4.6346345e-04   6.3267333e-04   3.4953482e-04   6.6943653e-04  -1.4316407e-03   9.0967765e-04   4.4436104e-04   5.9679983e-04   5.3348037e-04   7.7182084e-04  -5.6020287e-04   1.1456649e-04  -3.1755582e-04   1.0818924e-03  -3.6674044e-03  -2.2534174e-03  -4.2776456e-03   1.8098130e-03   6.4279861e-04  -3.6978556e-03  -2.5551668e-03
   6.3942274e-04   3.1125330e-04   8.2601479e-04   4.6334570e-04   9.2438328e-05   2.9031135e-04   7.7586633e-04   2.6387346e-04   5.6035235e-04   5.6084135e-04   2.8697311e-04   3.7583802e-04   3.7294652e-04   5.0949922e-04   6.5682334e-04  -9.8634591e-05  -2.5334992e-04  -5.7244470e-04   9.8325033e-04   3.8998897e-04   1.2871634e-03   4.2882043e-06   6.9513154e-04   6.7179243e-04   9.7791944e-04   8.8217424e-04   6.8853504e-04   4.5727374e-04   2.5283798e-04   4.5956549e-04   6.5936346e-04   3.5285210e-04   6.6584378e-04  -1.4304584e-03   9.0669713e-04   4.4927592e-04   5.9603201e-04   5.1864522e-04   7.5140299e-04  -5.9579371e-04   1.0787472e-04  -3.1412474e-04   1.0842218e-03  -3.6486962e-03  -2.2649174e-03  -4.2878957e-03   1.7973532e-03   6.3113560e-04  -3.5300180e-03  -2.4346896e-03
   6.1200699e-04   3.2037729e-04   8.2485238e-04   4.7647668e-04   9.3482136e-05   3.0048509e-04   7.5651571e-04   2.2599248e-04   4.9916399e-04   5.8455725e-04   3.1499978e-04   3.8677113e-04   3.8005383e-04   5.3037732e-04   6.6486181e-04  -1.0290487e-04  -2.4236750e-04  -5.9977389e-04   9.6065027e-04   4.0415360e-04   1.3048473e-03   3.1075757e-05   6.7482854e-04   6.8258273e-04   9.8256615e-04   9.0496993e-04   7.0836663e-04   4.8111059e-04   2.3613732e-04   4.6288586e-04   6.6989666e-04   3.5928519e-04   6.7499490e-04  -1.4236624e-03   9.4532175e-04   4.4713376e-04   5.9694366e-04   5.4327736e-04   7.7835779e-04  -5.1486387e-04   1.8360234e-04  -2.5144755e-04   1.0485925e-03  -3.5747483e-03  -2.2578505e-03  -4.2911782e-03   1.8619292e-03   7.0646545e-04  -3.6491030e-03  -2.5532066e-03
   6.8292930e-04   2.6127885e-04   8.2966767e-04   5.4866920e-04   8.9446155e-05   3.3426285e-04   9.7199570e-04   2.6059704e-04   5.8042171e-04   5.5829762e-04   2.0933703e-04   3.5431053e-04   3.4877469e-04   5.3246180e-04   7.7331567e-04  -2.1040512e-04  -2.6303329e-04  -5.4398540e-04   1.1116515e-03   3.2609285e-04   1.2338898e-03   6.6877947e-05   7.2692981e-04   6.2188250e-04   1.0998526e-03   9.1275660e-04   6.9746416e-04   4.4906131e-04   2.7363325e-04   4.8387397e-04   7.6397107e-04   3.8987142e-04   6.9256726e-04  -1.4033713e-03   9.2985702e-04   4.5399321e-04   5.5277499e-04   5.5930438e-04   7.6219696e-04  -5.0928857e-04   1.2758249e-04  -2.8134213e-04   1.0485810e-03  -3.5412689e-03  -2.3135145e-03  -4.2487076e-03   1.8182319e-03   6.2401226e-04  -3.6890607e-03  -2.5838732e-03
   6.6714879e-04   2.6014503e-04   8.1976154e-04   5.2986637e-04   7.2902862e-05   3.1205566e-04   9.3720976e-04   2.3331512e-04   5.2748952e-04   5.6155463e-04   2.0323785e-04   3.5830491e-04   3.3013657e-04   5.3246098e-04   7.1686762e-04  -2.0292428e-04  -2.5606182e-04  -5.3506659e-04   1.0347002e-03   3.3586493e-04   1.2346836e-03   6.4933993e-05   7.1732991e-04   6.4058416e-04   1.0979464e-03   9.1570220e-04   6.7419437e-04   4.3901944e-04   2.4351932e-04   4.7384278e-04   7.7691907e-04   3.9426205e-04   7.2809082e-04  -1.3746668e-03   9.2869904e-04   4.4970054e-04   5.4290815e-04   5.6760578e-04   7.5045275e-04  -4.8861181e-04   1.2447832e-04  -2.8818502e-04   1.0567755e-03  -3.5356442e-03  -2.2672976e-03  -4.2714123e-03   1.8118176e-03   6.3455966e-04  -3.7843955e-03  -2.5601478e-03
   6.5088487e-04   2.6310253e-04   8.1720774e-04   5.2867265e-04   7.7492667e-05   3.1302901e-04   9.1973005e-04   2.2534304e-04   5.4998405e-04   5.5101427e-04   2.1333652e-04   3.5369169e-04   3.2949483e-04   5.4688624e-04   7.2610506e-04  -1.8661378e-04  -2.3782150e-04  -5.4484257e-04   1.0390133e-03   3.5405799e-04   1.2393752e-03   5.6984140e-05   7.2137825e-04   6.4386602e-04   1.0719046e-03   9.1785507e-04   7.2716892e-04   4.5844459e-04   3.1126919e-04   4.7714310e-04   7.7978283e-04   4.1313903e-04   7.4100372e-04  -1.3511111e-03   9.2962704e-04   4.5826141e-04   5.7221611e-04   5.6746823e-04   8.0663606e-04  -5.0880964e-04   1.2841073e-04  -2.8570698e-04   1.0659599e-03  -3.5330849e-03  -2.2141170e-03  -4.2316723e-03   1.7965041e-03   7.1315462e-04  -3.8660069e-03  -2.3850540e-03
   6.2272366e-04   2.7275932e-04   8.2533323e-04   5.2361697e-04   8.4404703e-05   3.1064634e-04   8.8666746e-04   2.2749446e-04   6.1384856e-04   5.6940323e-04   2.5501187e-04   3.6646592e-04   3.5181330e-04   5.5230979e-04   7.1882538e-04  -1.4922762e-04  -2.3216607e-04  -5.3878524e-04   9.8296837e-04   3.6422949e-04   1.2389617e-03   4.4323293e-05   7.3513470e-04   6.5249117e-04   1.0411825e-03   9.1539015e-04   7.2469510e-04   4.5150443e-04   2.5401378e-04   4.8386178e-04   7.6014252e-04   3.8485596e-04   7.5071305e-04  -1.3479571e-03   9.3905692e-04   4.6250250e-04   5.6927250e-04   5.6029175e-04   7.7546708e-04  -5.0202745e-04   1.0114581e-04  -3.0434490e-04   1.0631026e-03  -3.5638616e-03  -2.2383868e-03  -4.2340653e-03   1.8033946e-03   6.2035862e-04  -3.4368068e-03  -2.4777642e-03
   6.2817021e-04   2.7662903e-04   8.3374634e-04   5.0524255e-04   7.2744646e-05   3.0657439e-04   8.6644996e-04   2.2675344e-04   5.8133452e-04   5.6746625e-04   2.7047473e-04   3.6921084e-04   3.4771065e-04   5.3959398e-04   7.1395095e-04  -1.3908251e-04  -2.3942723e-04  -5.5992411e-04   1.1227406e-03   3.7781586e-04   1.2430439e-03   5.3481672e-05   7.0013321e-04   6.6767156e-04   1.0428267e-03   9.0917316e-04   7.1934582e-04   4.5331189e-04   2.7203470e-04   4.8189316e-04   7.6704228e-04   4.0634864e-04   7.6674676e-04  -1.3380126e-03   9.2238741e-04   4.5885047e-04   5.7923148e-04   5.5380666e-04   7.4758509e-04  -4.8877322e-04   1.2239783e-04  -2.9413923e-04   1.0705135e-03  -3.5360001e-03  -2.2451614e-03  -4.2107492e-03   1.8065475e-03   6.7312765e-04  -3.6464811e-03  -2.4771730e-03
   6.1986147e-04   2.8272110e-04   8.2703552e-04   5.1893020e-04   7.6242330e-05   3.0534682e-04   8.7531953e-04   2.2374062e-04   6.4326351e-04   5.6518021e-04   2.7870832e-04   3.6677808e-04   3.5995856e-04   5.6101772e-04   7.2588050e-04  -1.4259593e-04  -2.3519386e-04  -5.4067123e-04   1.1048832e-03   3.8988524e-04   1.2552908e-03   6.0265593e-05   7.0353114e-04   6.6171511e-04   1.0652030e-03   9.0827828e-04   7.7240274e-04   4.6754954e-04   2.6320387e-04   4.9253274e-04   7.7488628e-04   4.1593664e-04   7.6618005e-04  -1.3211572e-03   9.4399438e-04   4.5706291e-04   5.7778711e-04   5.9725036e-04   7.7574077e-04  -5.1495060e-04   1.3939328e-04  -2.9923490e-04   1.0576268e-03  -3.5315603e-03  -2.2157601e-03  -4.1643814e-03   1.8155036e-03   6.9454033e-04  -3.5156505e-03  -2.2788211e-03
   6.3799828e-04   2.8937127e-04   8.4577565e-04   5.0816947e-04   9.0952592e-05   3.1524937e-04   8.5912051e-04   2.6755308e-04   6.1235717e-04   5.7703868e-04   3.0448401e-04   3.7211151e-04   3.7187157e-04   5.5320607e-04   7.2336255e-04  -1.1100473e-04  -2.3312458e-04  -5.6454592e-04   1.1107712e-03   3.9641900e-04   1.2765555e-03   4.9374648e-05   6.7635399e-04   6.7668298e-04   1.0325215e-03   9.0337713e-04   7.2132784e-04   4.7614842e-04   2.8873709e-04   4.7400527e-04   7.3252385e-04   4.0558510e-04   7.5127988e-04  -1.3310284e-03   9.4026723e-04   4.5337147e-04   6.0284731e-04   5.5862399e-04   7.6348055e-04  -5.2696042e-04   1.4514242e-04  -3.0076614e-04   1.0533639e-03  -3.5839558e-03  -2.2004575e-03  -4.2723683e-03   1.8037404e-03   6.6097430e-04  -3.3740639e-03  -2.4235505e-03
   6.1323983e-04   2.9868091e-04   8.4237778e-04   5.0459633e-04   9.0792397e-05   3.0975169e-04   8.2425098e-04   2.6056427e-04   4.7902035e-04   5.6429737e-04   3.0538210e-04   3.6676033e-04   3.7478624e-04   5.6145934e-04   7.2201312e-04  -1.0496899e-04  -2.3502043e-04  -5.5122859e-04   1.1648466e-03   4.0281878e-04   1.2927060e-03   5.0834224e-05   6.9545669e-04   6.5912947e-04   1.0372401e-03   8.9625776e-04   7.2691281e-04   4.7218215e-04   2.3305119e-04   4.5325357e-04   7.5166492e-04   4.1410947e-04   7.4135890e-04  -1.3333976e-03   9.3413820e-04   4.5002549e-04   5.9001299e-04   5.6907174e-04   7.5670576e-04  -5.5170129e-04   1.0738389e-04  -3.1250014e-04   1.0477604e-03  -3.5702097e-03  -2.1914877e-03  -4.2736167e-03   1.8109753e-03   6.7849178e-04  -3.7353390e-03  -2.5982219e-03
   6.3621765e-04   2.9249457e-04   8.4347284e-04   5.1500468e-04   8.5153653e-05   3.2019854e-04   8.5591560e-04   2.6918633e-04   6.5993262e-04   5.5057241e-04   2.9484980e-04   3.5913690e-04   3.8606673e-04   5.7735731e-04   7.3495455e-04  -1.0311000e-04  -2.3005466e-04  -5.4739142e-04   1.0781422e-03   4.0585606e-04   1.2825830e-03   6.3207444e-05   6.9124601e-04   6.6687580e-04   1.0531775e-03   8.9666259e-04   7.9016661e-04   4.8085416e-04   2.6321784e-04   4.7447241e-04   7.4504229e-04   4.1221062e-04   7.4021937e-04  -1.3306970e-03   9.5411122e-04   4.5252082e-04   5.8099290e-04   5.3879438e-04   7.4824964e-04  -5.0207687e-04   1.4203606e-04  -3.0836192e-04   1.0594849e-03  -3.5407818e-03  -2.2211962e-03  -4.2708772e-03   1.8389018e-03   6.2504871e-04  -3.0511527e-03  -2.7724025e-03
   6.4917229e-04   2.7956022e-04   8.4557786e-04   5.3789408e-04   8.6337910e-05   3.3293955e-04   8.7300094e-04   3.3901751e-04   6.7190832e-04   5.5472192e-04   2.6772163e-04   3.3021375e-04   3.7573790e-04   5.6992198e-04   7.6305657e-04  -9.0186135e-05  -2.1464839e-04  -5.2030734e-04   1.0976396e-03   4.0911301e-04   1.2399330e-03   1.3503856e-04   7.0695672e-04   6.5047661e-04   1.1242712e-03   9.0880011e-04   7.6106231e-04   4.6409739e-04   2.5111091e-04   4.7905327e-04   7.8377244e-04   4.1262948e-04   6.9062016e-04  -1.3347947e-03   9.5437781e-04   4.5051079e-04   5.7992869e-04   5.6803832e-04   7.7985105e-04  -4.8292041e-04   1.4413759e-04  -3.0978888e-04   1.0177052e-03  -3.4939449e-03  -2.2902277e-03  -4.2071156e-03   1.8115490e-03   6.3813740e-04  -3.3562167e-03  -2.4786207e-03
   6.6803285e-04   2.4330791e-04   8.8213058e-04   5.2814442e-04   8.6050422e-05   3.5024571e-04   9.1077614e-04   3.1772666e-04   5.4557336e-04   5.4051215e-04   2.5009824e-04   2.9599146e-04   3.7075576e-04   5.6471740e-04   7.6379476e-04  -8.4616186e-05  -2.4990068e-04  -5.3771556e-04   1.0285132e-03   3.6245314e-04   1.2938866e-03   2.2804771e-04   6.9791637e-04   6.2981166e-04   1.0927271e-03   9.2242245e-04   7.4418442e-04   4.5616896e-04   2.5182148e-04   4.7647883e-04   7.6833559e-04   4.2055140e-04   6.8208290e-04  -1.3183627e-03   9.3470758e-04   4.6273769e-04   5.7154405e-04   5.8313174e-04   7.8982947e-04  -4.4758461e-04   1.1916465e-04  -3.0062525e-04   1.0454016e-03  -3.5035780e-03  -2.1955709e-03  -4.1623833e-03   1.8180721e-03   6.4614363e-04  -3.6550453e-03  -2.2995463e-03
   6.5078744e-04   2.2686769e-04   8.8216609e-04   5.3093530e-04   9.1290021e-05   3.4467279e-04   9.0696436e-04   2.9152987e-04   5.4736761e-04   5.3685938e-04   2.4558918e-04   2.7909753e-04   3.7492489e-04   5.6307431e-04   7.6962379e-04  -5.5059721e-05  -2.4977993e-04  -5.0733809e-04   1.0423071e-03   3.6204621e-04   1.3086417e-03   2.0661089e-04   7.0503470e-04   6.2967889e-04   1.1126242e-03   9.2976470e-04   7.5906463e-04   4.7993258e-04   2.6894099e-04   4.9286248e-04   7.2656706e-04   4.1976900e-04   6.5789750e-04  -1.3374258e-03   9.5275947e-04   4.6990174e-04   5.7981862e-04   5.7035231e-04   7.7599793e-04  -4.6498288e-04   1.4620267e-04  -2.9479704e-04   1.0581380e-03  -3.5544301e-03  -2.2381090e-03  -4.1079824e-03   1.7964474e-03   6.1570585e-04  -3.4115547e-03  -2.5229822e-03
   6.4218044e-04   2.2846482e-04   8.7706407e-04   4.8917788e-04   8.6847402e-05   3.3022871e-04   8.7046984e-04   3.1096101e-04   4.4156026e-04   5.2354537e-04   2.5070237e-04   2.9854680e-04   3.5829196e-04   5.3951761e-04   7.1699178e-04  -5.9652815e-05  -2.5807289e-04  -5.4953824e-04   1.0119127e-03   3.7926954e-04   1.3274121e-03   1.9428578e-04   6.7949202e-04   6.2438473e-04   1.0841789e-03   9.2165102e-04   7.0505281e-04   4.4398953e-04   2.7935533e-04   4.5349399e-04   7.2052568e-04   4.1175337e-04   6.6697958e-04  -1.3726981e-03   9.2699565e-04   4.7688221e-04   5.8573787e-04   5.5691728e-04   7.4248528e-04  -4.8110366e-04   8.4889849e-05  -3.2053719e-04   1.0689681e-03  -3.5321421e-03  -2.2547275e-03  -4.1172965e-03   1.7813664e-03   6.3496991e-04  -3.2940342e-03  -2.2771107e-03
   6.0651626e-04   2.5302052e-04   8.7572756e-04   5.0309324e-04   8.6926375e-05   3.3979057e-04   8.5395901e-04   2.5971083e-04   4.4662869e-04   5.5172067e-04   3.2745529e-04   3.3745900e-04   3.8597579e-04   5.1460636e-04   6.9603341e-04  -7.3248710e-05  -2.4067530e-04  -5.6153000e-04   1.2087428e-03   4.3929153e-04   1.4145349e-03   2.5631487e-04   6.3801254e-04   5.8916054e-04   1.0268254e-03   9.2087337e-04   7.1455503e-04   4.3291124e-04   2.4453865e-04   4.2987554e-04   7.0181250e-04   4.5375532e-04   7.2688091e-04  -1.3653863e-03   9.3056104e-04   4.7074392e-04   5.9867586e-04   5.8686786e-04   7.5695687e-04  -4.9623760e-04   7.8679215e-05  -3.4524649e-04   1.0767453e-03  -3.4982369e-03  -2.1773155e-03  -4.1615521e-03   1.7868974e-03   7.0012757e-04  -3.3207894e-03  -2.1311454e-03
   5.9823354e-04   2.5953937e-04   8.7723718e-04   5.0534896e-04   9.9513731e-05   3.3969508e-04   8.4021233e-04   2.9044456e-04   5.0406734e-04   5.8162195e-04   3.6286595e-04   3.4524029e-04   4.1084705e-04   4.9866410e-04   6.8455789e-04  -3.1498359e-05  -2.2204034e-04  -5.6998548e-04   1.1027025e-03   4.7467076e-04   1.4101624e-03   2.3213781e-04   6.2655460e-04   6.1900512e-04   1.0419550e-03   8.9443312e-04   7.1672216e-04   4.3557951e-04   2.2055162e-04   4.2218587e-04   7.1405055e-04   4.2463670e-04   7.4787613e-04  -1.3733561e-03   9.0683193e-04   4.8010002e-04   6.1341852e-04   5.2249833e-04   7.4738369e-04  -4.9740938e-04   3.9612598e-05  -3.6395984e-04   1.0515612e-03  -3.4801359e-03  -2.2519440e-03  -4.0986305e-03   1.7724292e-03   6.4864184e-04  -3.7891334e-03  -2.0845998e-03
   5.9223035e-04   2.6080818e-04   8.5940101e-04   4.8815313e-04   8.4005180e-05   3.1539987e-04   8.2772138e-04   2.8603588e-04   2.9008195e-04   5.7003240e-04   3.5011675e-04   3.5691913e-04   3.9014657e-04   4.6351861e-04   6.1188167e-04  -6.4095380e-05  -2.1440133e-04  -5.9509993e-04   1.0248631e-03   4.9054576e-04   1.4350278e-03   2.6354191e-04   6.3228281e-04   6.0119107e-04   9.7728556e-04   8.8804361e-04   6.6018320e-04   3.9867571e-04   2.2456489e-04   3.9711717e-04   7.3380751e-04   4.3683659e-04   7.3148328e-04  -1.3895012e-03   8.9496630e-04   4.7418027e-04   6.2029873e-04   5.5356114e-04   7.4421038e-04  -5.0734461e-04  -3.7476686e-05  -3.7575350e-04   1.0384948e-03  -3.4366385e-03  -2.2460211e-03  -4.0733428e-03   1.7807314e-03   6.6101010e-04  -3.2873645e-03  -1.8813836e-03
   5.9679907e-04   2.5810924e-04   8.4793213e-04   5.1056757e-04   9.4982177e-05   3.1966151e-04   8.2361163e-04   2.9124782e-04   3.5875180e-04   5.6093506e-04   3.6549513e-04   3.5485381e-04   4.0350482e-04   4.4526142e-04   6.1278557e-04  -8.6390493e-05  -2.0796589e-04  -5.9119519e-04   1.1034472e-03   5.3595967e-04   1.5308349e-03   3.3830330e-04   6.5367942e-04   5.5806892e-04   9.8732999e-04   8.8203303e-04   6.7654380e-04   4.0666814e-04   1.5320434e-04   3.8513381e-04   7.3968223e-04   4.4432387e-04   7.7826367e-04  -1.3945829e-03   8.6997432e-04   4.6978099e-04   6.1479874e-04   5.4101349e-04   7.1620138e-04  -4.9939699e-04  -3.4628815e-06  -4.0243135e-04   1.0294266e-03  -3.4550773e-03  -2.2474404e-03  -4.1436679e-03   1.7938867e-03   7.4268150e-04  -3.3714210e-03  -1.7279702e-03
   6.0289435e-04   2.5824748e-04   8.4934535e-04   4.9966504e-04   1.0077736e-04   3.2747840e-04   8.3964318e-04   2.9522341e-04   2.7577695e-04   5.5034453e-04   3.5464103e-04   3.4299429e-04   3.9929454e-04   4.7207312e-04   6.1829464e-04  -9.2606584e-05  -2.0487816e-04  -5.8285345e-04   1.0789925e-03   5.1712547e-04   1.4718055e-03   2.6286690e-04   6.1952567e-04   5.4414489e-04   9.9382759e-04   8.8275585e-04   6.2014267e-04   3.9641192e-04   1.8093857e-04   3.8333258e-04   7.0692442e-04   4.3512075e-04   7.4308406e-04  -1.4044081e-03   8.8012574e-04   4.5423771e-04   6.0498057e-04   5.4279278e-04   7.1979180e-04  -5.3461618e-04  -2.6376096e-05  -4.1363452e-04   1.0127096e-03  -3.4853008e-03  -2.1458247e-03  -4.1092550e-03   1.7697341e-03   6.3887431e-04  -2.9684068e-03  -1.6210510e-03
   5.9957639e-04   2.7435046e-04   8.4933825e-04   4.8088221e-04   1.0668583e-04   3.2277650e-04   7.8156422e-04   2.6440670e-04   3.8769926e-04   5.5502687e-04   3.7894072e-04   3.6217677e-04   4.1850473e-04   4.4942627e-04   6.0770405e-04   1.6101163e-05  -2.0390973e-04  -5.8771536e-04   1.0091398e-03   5.0190353e-04   1.4979580e-03   2.9561264e-04   6.1125692e-04   6.1414472e-04   9.9636230e-04   8.9234771e-04   6.2792643e-04   4.4681909e-04   1.8298613e-04   4.0329038e-04   6.7020964e-04   4.0779315e-04   7.1169948e-04  -1.4106811e-03   8.9586043e-04   4.5857925e-04   6.3982018e-04   5.4111367e-04   7.4231043e-04  -5.1913894e-04   5.1820316e-05  -3.6634787e-04   1.0210061e-03  -3.5912890e-03  -2.2024647e-03  -4.2808703e-03   1.8305611e-03   7.0674950e-04  -3.1946944e-03  -2.1221908e-03
   6.1355461e-04   3.1512947e-04   8.4969349e-04   5.2436109e-04   1.0985255e-04   3.0219383e-04   8.7318663e-04   2.9527079e-04   4.7283308e-04   5.1597133e-04   2.3825592e-04   3.5199520e-04   3.7798419e-04   4.4693134e-04   6.7447248e-04  -4.0150928e-05  -2.5066093e-04  -6.1337015e-04   9.9340186e-04   4.6145360e-04   1.4207563e-03   2.9159326e-04   6.1980105e-04   6.8893889e-04   1.0873358e-03   9.2433841e-04   6.6172675e-04   4.5352403e-04   2.1043880e-04   4.4145706e-04   7.4181653e-04   3.6239659e-04   7.2723639e-04  -1.4430925e-03   9.0472074e-04   4.3353144e-04   5.9636799e-04   5.3829671e-04   7.7685941e-04  -5.4635294e-04   6.0938921e-05  -3.6073572e-04   1.0188713e-03  -3.6727183e-03  -2.2694855e-03  -4.3982831e-03   1.7782736e-03   7.3897629e-04  -3.1367005e-03  -2.3258298e-03
   6.1535090e-04   3.1295506e-04   7.8825303e-04   5.3486548e-04   1.1338509e-04   2.9302397e-04   8.5346878e-04   2.9262152e-04   3.3563699e-04   4.3783078e-04   1.9267632e-04   3.4318765e-04   3.5004033e-04   4.6927322e-04   6.5360591e-04  -1.1329319e-04  -2.2659582e-04  -5.8734044e-04   1.0902860e-03   4.4710259e-04   1.4135356e-03   2.4500946e-04   6.2352931e-04   6.2890426e-04   1.0615921e-03   9.1086852e-04   5.8673392e-04   4.1146422e-04   1.8152050e-04   4.1489812e-04   7.3285447e-04   3.7770160e-04   7.3108135e-04  -1.4403507e-03   8.8474248e-04   4.3363875e-04   5.7544676e-04   5.4398720e-04   7.5192004e-04  -5.0869939e-04   3.4868910e-05  -3.8657320e-04   1.0327263e-03  -3.6308544e-03  -2.2894659e-03  -4.3481658e-03   1.7537348e-03   6.6034350e-04  -2.9164117e-03  -2.2533850e-03
   6.1868358e-04   3.0913684e-04   7.9899671e-04   5.2024605e-04   1.1072346e-04   2.8836794e-04   8.5535913e-04   2.9643055e-04   3.1780766e-04   4.3835523e-04   1.8338251e-04   3.0901679e-04   3.6009963e-04   4.7374514e-04   6.5986672e-04  -1.0479583e-04  -2.2976121e-04  -5.6677905e-04   9.7307493e-04   4.5102907e-04   1.3804425e-03   2.5332475e-04   6.1829528e-04   6.2090979e-04   1.0756979e-03   8.9687080e-04   6.3149526e-04   4.1821381e-04   1.7730158e-04   4.3496522e-04   7.3461811e-04   3.7593642e-04   7.2132406e-04  -1.4527376e-03   8.8561740e-04   4.3729760e-04   5.8875262e-04   5.4365140e-04   7.4404443e-04  -5.1743095e-04   4.4210905e-05  -3.6854643e-04   1.0141984e-03  -3.5902050e-03  -2.2589823e-03  -4.3944181e-03   1.7554990e-03   7.2493782e-04  -2.9545880e-03  -2.1744224e-03
   6.5600331e-04   2.8716482e-04   8.1512058e-04   5.5830157e-04   1.0754500e-04   3.0083829e-04   9.5884217e-04   2.6761170e-04   4.4268317e-04   4.2551424e-04   1.3226570e-04   3.4765550e-04   3.5182518e-04   4.7801872e-04   7.5730210e-04  -1.6125504e-04  -2.6975290e-04  -5.5756030e-04   1.0137736e-03   3.8575399e-04   1.2940177e-03   2.8709738e-04   6.3343026e-04   6.2221312e-04   1.1742008e-03   9.4384269e-04   7.1808248e-04   4.4532784e-04   2.0158922e-04   4.7988514e-04   7.8066642e-04   3.9090891e-04   7.2460267e-04  -1.4621584e-03   9.2267513e-04   4.2989460e-04   5.6697550e-04   5.4484484e-04   7.5404876e-04  -4.9348886e-04   7.8944511e-05  -3.5503219e-04   9.8195032e-04  -3.5918406e-03  -2.2894330e-03  -4.3827449e-03   1.7473678e-03   7.8845210e-04  -3.0594117e-03  -2.1537861e-03
   6.2939094e-04   2.7241715e-04   8.0054568e-04   5.8006815e-04   1.0867757e-04   3.1457207e-04   9.9090976e-04   2.7279189e-04   3.5979861e-04   4.2070451e-04   1.0104931e-04   3.2322906e-04   3.3468421e-04   4.9311575e-04   7.5885275e-04  -1.6558862e-04  -2.8187726e-04  -5.5863051e-04   1.1284532e-03   3.7827552e-04   1.3152382e-03   2.8230797e-04   6.6559343e-04   6.3170708e-04   1.1785066e-03   9.3452871e-04   6.9090235e-04   4.4530342e-04   1.7369921e-04   4.7054057e-04   8.0331013e-04   3.8937831e-04   7.3879212e-04  -1.4544273e-03   9.2083542e-04   4.2742922e-04   5.6960667e-04   5.8506167e-04   7.9177669e-04  -4.6086506e-04   9.3438983e-05  -3.4488403e-04   1.0368795e-03  -3.5601207e-03  -2.2527990e-03  -4.3433197e-03   1.7637478e-03   6.8514014e-04  -2.9303771e-03  -2.2451659e-03
   6.6850754e-04   2.6097125e-04   8.0132298e-04   5.8752095e-04   9.7573800e-05   3.0376561e-04   1.0132006e-03   2.5448800e-04   4.8518999e-04   4.0787886e-04   6.9863367e-05   3.0186519e-04   3.1264912e-04   4.7528776e-04   7.4827333e-04  -1.8871039e-04  -2.7190126e-04  -5.4658117e-04   1.0487860e-03   3.6292104e-04   1.3148586e-03   2.7024129e-04   6.3723326e-04   6.2979793e-04   1.1783449e-03   9.3176035e-04   6.9365132e-04   4.3218560e-04   2.6949227e-04   4.7372724e-04   7.7259616e-04   3.9064328e-04   7.1588822e-04  -1.4528603e-03   9.0989331e-04   4.2370992e-04   5.3933176e-04   5.7964324e-04   7.5264950e-04  -4.5656110e-04   8.0954029e-05  -3.6004360e-04   9.9957408e-04  -3.5342844e-03  -2.2520663e-03  -4.2959456e-03   1.7410492e-03   6.7554961e-04  -3.0152074e-03  -2.0783027e-03
   6.4009539e-04   2.2472187e-04   8.1874075e-04   5.8444898e-04   9.1816029e-05   3.2116330e-04   1.0016136e-03   2.4575143e-04   4.1492711e-04   4.1570811e-04   7.7561890e-05   2.6085586e-04   3.0640725e-04   5.0136808e-04   7.7466777e-04  -1.2131035e-04  -2.6794570e-04  -5.4059876e-04   1.0130171e-03   3.2622588e-04   1.3481615e-03   4.1433945e-04   6.6486053e-04   6.1716739e-04   1.1856197e-03   9.4105769e-04   7.3250453e-04   4.6916606e-04   2.1540791e-04   4.9074733e-04   7.9565519e-04   3.9446246e-04   6.7244639e-04  -1.4385462e-03   9.0882846e-04   4.2974949e-04   5.4072234e-04   5.5765826e-04   7.9612515e-04  -4.6835819e-04   1.1388784e-04  -3.5343433e-04   1.0214046e-03  -3.5043543e-03  -2.2201950e-03  -4.2194794e-03   1.7319672e-03   6.0674705e-04  -3.4198749e-03  -1.9163199e-03
   6.7479012e-04   1.7325897e-04   8.8642380e-04   5.4445828e-04   7.5987147e-05   3.3497726e-04   1.0389998e-03   2.8453721e-04   4.0423922e-04   4.2787995e-04   8.0973216e-05   2.4483580e-04   2.7631113e-04   4.8787723e-04   7.5051869e-04  -1.1990096e-04  -2.9116479e-04  -5.2374700e-04   9.8632055e-04   3.0750249e-04   1.2467209e-03   3.0682038e-04   6.5274496e-04   5.8031775e-04   1.1407487e-03   9.3028334e-04   6.8447302e-04   4.2751562e-04   1.9045819e-04   4.8658240e-04   7.4798428e-04   3.6025085e-04   6.5445213e-04  -1.4406415e-03   8.9748891e-04   4.0521551e-04   5.2088755e-04   5.7857379e-04   7.5666507e-04  -4.8338200e-04   8.4447282e-05  -3.5118280e-04   1.0308895e-03  -3.5759751e-03  -2.2098382e-03  -4.2263940e-03   1.7407981e-03   5.9846736e-04  -3.6291459e-03  -2.0167965e-03
   6.0782291e-04   1.8243640e-04   8.4790005e-04   5.0702464e-04   6.8873895e-05   3.0926580e-04   9.9326158e-04   2.4841350e-04   3.4141977e-04   4.4811642e-04   9.5192569e-05   2.4617621e-04   2.7287399e-04   4.7044360e-04   6.9851254e-04  -9.9150580e-05  -2.8221376e-04  -5.2904256e-04   9.7870920e-04   3.2719085e-04   1.2587337e-03   2.3599286e-04   6.6660292e-04   6.2327867e-04   1.1036516e-03   9.3762536e-04   6.6600688e-04   4.2494663e-04   2.2194706e-04   4.8434403e-04   7.4588123e-04   3.6893383e-04   6.4610195e-04  -1.4472471e-03   8.8298618e-04   4.2089456e-04   5.3360214e-04   5.5536558e-04   7.4321323e-04  -4.6076527e-04   1.2461845e-04  -3.5639521e-04   1.0281909e-03  -3.5254578e-03  -2.3358525e-03  -4.1866936e-03   1.7363993e-03   6.6747214e-04  -3.6639441e-03  -2.1010144e-03
   6.1861321e-04   1.6969873e-04   8.8147883e-04   5.2098831e-04   6.6088360e-05   3.2120131e-04   9.9071045e-04   2.5762140e-04   4.4310666e-04   4.6559289e-04   8.1746068e-05   2.3068998e-04   2.6099652e-04   4.5805977e-04   6.8626693e-04  -1.2927811e-04  -3.0056038e-04  -5.1850016e-04   9.8259200e-04   3.2374330e-04   1.2511640e-03   2.5284712e-04   6.3343364e-04   5.5983255e-04   1.1043465e-03   9.2549203e-04   6.0984970e-04   3.9288314e-04   1.7821438e-04   4.6300088e-04   7.4485253e-04   3.7402433e-04   6.6277623e-04  -1.4366398e-03   8.8086195e-04   4.2330683e-04   4.9050222e-04   5.6356628e-04   7.5291836e-04  -4.7360561e-04   1.0106556e-04  -3.6696941e-04   1.0127627e-03  -3.4844365e-03  -2.3029449e-03  -4.1669183e-03   1.7235287e-03   5.7319383e-04  -3.2784624e-03  -2.2008105e-03
   5.9076987e-04   1.9185843e-04   8.0480118e-04   4.9235293e-04   5.5863744e-05   2.8678891e-04   9.2252449e-04   2.3581175e-04   3.6135039e-04   4.3321220e-04   9.9874749e-05   2.7981892e-04   2.6397969e-04   4.5140163e-04   6.3445908e-04  -1.6854225e-04  -2.8391174e-04  -5.2078976e-04   1.1213422e-03   3.3572974e-04   1.2535600e-03   2.3222106e-04   5.9565960e-04   5.4295815e-04   1.0732480e-03   9.3884877e-04   6.2226725e-04   3.9468738e-04   2.4264769e-04   4.3912412e-04   7.3006091e-04   4.0520704e-04   6.8527029e-04  -1.4326341e-03   8.8169216e-04   4.4414296e-04   5.3296878e-04   5.5767584e-04   7.6241110e-04  -4.6008313e-04   8.4359272e-05  -3.3671822e-04   1.0466581e-03  -3.4856005e-03  -2.2830016e-03  -4.2628944e-03   1.7772251e-03   6.2650396e-04  -3.0321311e-03  -2.1013292e-03
   6.5264036e-04   2.8598402e-04   8.6583698e-04   6.9517992e-04   8.4941807e-05   3.5552398e-04   1.1839259e-03   2.6449532e-04   3.2556453e-04   4.5167556e-04   1.6579777e-05   3.8418593e-04   2.8116396e-04   4.6100671e-04   7.7516999e-04  -2.9994201e-04  -3.4947327e-04  -5.1742676e-04   1.1261917e-03   2.8456023e-04   1.1749121e-03   4.5267231e-04   6.7590532e-04   6.3926337e-04   1.2491990e-03   9.8727411e-04   7.1847846e-04   4.6136274e-04   2.5517709e-04   5.6793360e-04   9.3624898e-04   4.1522537e-04   7.1594934e-04  -1.5143543e-03   9.1928011e-04   4.3744952e-04   5.6314567e-04   5.3042057e-04   7.8031950e-04  -3.9967036e-04   9.3520859e-05  -2.9182417e-04   1.0756296e-03  -3.4645733e-03  -2.2469545e-03  -4.2585647e-03   1.7638416e-03   6.6517142e-04  -3.2231451e-03  -2.2101682e-03
   6.9532322e-04   3.1975209e-04   8.2706264e-04   7.0589478e-04   8.7686232e-05   3.8082642e-04   1.2010273e-03   2.7043762e-04   4.2082334e-04   4.7676184e-04   5.9819835e-05   4.1717297e-04   2.8779736e-04   4.3368561e-04   7.9342583e-04  -2.1915333e-04  -3.3856399e-04  -5.5122859e-04   1.2054946e-03   3.0669075e-04   1.2111116e-03   3.4600060e-04   6.9009408e-04   6.4669590e-04   1.2758184e-03   1.0119183e-03   7.0942368e-04   4.8086880e-04   2.5379797e-04   5.1563670e-04   8.9818565e-04   4.0072601e-04   7.4821396e-04  -1.5227097e-03   9.2319277e-04   4.3046076e-04   5.8429531e-04   5.2261038e-04   8.1624795e-04  -3.7410713e-04   8.8365683e-05  -3.0026154e-04   1.0726938e-03  -3.5602390e-03  -2.2942377e-03  -4.3317988e-03   1.7774993e-03   6.3157012e-04  -3.2899794e-03  -1.9825753e-03
   7.1041903e-04   2.9502431e-04   8.3761255e-04   7.0063892e-04   8.0077691e-05   3.6898511e-04   1.2335833e-03   2.1122115e-04   3.6990948e-04   4.5748157e-04  -9.8122837e-06   4.1929615e-04   2.5225233e-04   4.1561661e-04   7.6457247e-04  -2.8441183e-04  -3.6152170e-04  -5.5981189e-04   1.0103419e-03   2.6003225e-04   1.1772213e-03   3.3624403e-04   6.8287126e-04   6.0364982e-04   1.2493985e-03   9.9873764e-04   6.5090694e-04   4.3462546e-04   2.3900712e-04   4.9861224e-04   8.4610371e-04   4.0155282e-04   7.5032416e-04  -1.5156928e-03   8.9894957e-04   4.0408687e-04   5.3082168e-04   5.3075812e-04   7.7946734e-04  -3.9911480e-04   6.8085610e-05  -3.1591192e-04   1.0306668e-03  -3.5572920e-03  -2.3587979e-03  -4.3688654e-03   1.7426182e-03   6.6285324e-04  -3.1806424e-03  -2.1366754e-03
   6.8513339e-04   2.9397357e-04   7.6960260e-04   6.7746395e-04   8.6359614e-05   3.3537901e-04   1.1452899e-03   2.2869071e-04   2.1884480e-04   4.0038401e-04  -1.4498313e-05   3.7744036e-04   2.5217619e-04   4.3201447e-04   7.5319567e-04  -3.0295449e-04  -3.4003917e-04  -5.5379746e-04   1.1684913e-03   3.0193460e-04   1.1926949e-03   2.7030997e-04   6.5505382e-04   5.5935304e-04   1.2075418e-03   9.6878438e-04   6.5205485e-04   4.1482144e-04   2.3447961e-04   4.6768095e-04   8.3984312e-04   4.1855554e-04   7.5346016e-04  -1.5052505e-03   9.0756372e-04   4.1899667e-04   5.0907087e-04   5.6086684e-04   7.6613860e-04  -4.1945529e-04   5.5252112e-05  -3.7688410e-04   1.0149543e-03  -3.5174461e-03  -2.2695356e-03  -4.3465621e-03   1.7084120e-03   6.3828973e-04  -3.2510669e-03  -2.0886688e-03
   6.4681156e-04   2.9174477e-04   7.6932053e-04   6.3448062e-04   8.8595079e-05   3.2806458e-04   1.0821543e-03   2.4123937e-04   3.0156967e-04   3.8708514e-04   3.9240153e-05   3.3181542e-04   2.7251284e-04   4.0939590e-04   7.0104480e-04  -2.8901757e-04  -3.1799404e-04  -5.7907915e-04   1.1927872e-03   3.3968707e-04   1.2179035e-03   2.4427380e-04   6.1841216e-04   5.2720937e-04   1.1530196e-03   9.4725570e-04   5.9734611e-04   3.9351240e-04   1.7050339e-04   4.2267764e-04   7.9725607e-04   4.1746019e-04   7.4653688e-04  -1.5066349e-03   8.9609873e-04   4.2055637e-04   5.4753607e-04   5.7890906e-04   7.4362312e-04  -4.3247797e-04   2.0907317e-05  -4.0092712e-04   9.8141283e-04  -3.5168519e-03  -2.3571600e-03  -4.3116887e-03   1.7230425e-03   6.0593901e-04  -3.6967292e-03  -2.0585551e-03
   6.4577709e-04   2.8367873e-04   7.7629701e-04   6.1988010e-04   7.8622223e-05   3.2774304e-04   1.0423956e-03   2.4533656e-04   2.8592828e-04   3.7694990e-04   6.9146008e-05   3.1059966e-04   3.0467621e-04   4.2382596e-04   7.0461509e-04  -2.6213800e-04  -3.1043252e-04  -5.7506328e-04   1.2335650e-03   3.5759070e-04   1.2334941e-03   2.3220450e-04   6.4248685e-04   5.0895975e-04   1.1430291e-03   9.3422062e-04   6.2545954e-04   3.9273169e-04   1.9197840e-04   4.2524000e-04   7.8086072e-04   4.0240644e-04   7.2880986e-04  -1.4917766e-03   8.6685282e-04   4.3535704e-04   5.2972668e-04   5.8073300e-04   7.1749208e-04  -4.3837083e-04   2.0160192e-05  -3.8735953e-04   9.8373718e-04  -3.5353457e-03  -2.3008871e-03  -4.2933039e-03   1.7269308e-03   6.5710180e-04  -3.1015947e-03  -2.1176389e-03
   6.2895077e-04   2.6952001e-04   7.6476682e-04   6.2510499e-04   8.5643180e-05   3.2912163e-04   1.0384173e-03   2.4886613e-04   3.6619583e-04   3.8329166e-04   8.4354906e-05   2.8740324e-04   3.0634244e-04   4.3525361e-04   7.2205439e-04  -2.4456900e-04  -2.9913126e-04  -5.7691341e-04   1.1510543e-03   3.7226873e-04   1.2316965e-03   2.2787024e-04   6.3072704e-04   5.1552436e-04   1.1101904e-03   9.2050957e-04   6.0684030e-04   4.0470896e-04   1.9502953e-04   4.2781135e-04   7.8993250e-04   4.1207642e-04   7.0444186e-04  -1.4833740e-03   8.8938279e-04   4.2308908e-04   5.2890508e-04   5.6348916e-04   7.2417536e-04  -4.7383996e-04   3.3216977e-05  -3.8610527e-04   1.0042666e-03  -3.5075350e-03  -2.3250889e-03  -4.3117027e-03   1.7379505e-03   5.8632536e-04  -3.1760375e-03  -2.0418994e-03
   6.1931909e-04   2.6855335e-04   7.7859539e-04   5.9840025e-04   8.0360187e-05   3.2759289e-04   1.0368727e-03   2.8473133e-04   4.2454113e-04   3.7241224e-04   8.9682799e-05   2.9911654e-04   3.0846972e-04   4.2693570e-04   6.9821888e-04  -2.3759557e-04  -3.0113113e-04  -5.8103137e-04   1.1071165e-03   3.7790264e-04   1.2290354e-03   2.2125249e-04   6.2779535e-04   5.3222681e-04   1.1292832e-03   9.1949134e-04   5.8765535e-04   3.9157149e-04   2.0654101e-04   4.2918103e-04   7.6110370e-04   3.8365959e-04   7.1170519e-04  -1.4640456e-03   8.7668526e-04   4.1914792e-04   5.2876922e-04   5.6065567e-04   7.4293581e-04  -4.4305026e-04   1.8621167e-05  -3.8675687e-04   9.8171574e-04  -3.5132891e-03  -2.2731216e-03  -4.2635389e-03   1.7294370e-03   5.8962445e-04  -3.3743689e-03  -2.0591484e-03
   6.1832240e-04   2.5062994e-04   7.7091827e-04   5.9676869e-04   7.2569805e-05   3.2735110e-04   1.0399353e-03   2.5878206e-04   3.5309297e-04   3.5633237e-04   8.2551735e-05   2.6592764e-04   3.1059285e-04   4.3492232e-04   7.0487976e-04  -2.4541988e-04  -2.9153854e-04  -5.6198175e-04   1.2013009e-03   3.5098940e-04   1.2160795e-03   2.1681860e-04   6.3240773e-04   5.0264347e-04   1.1133595e-03   9.1632677e-04   5.9858104e-04   3.9555735e-04   2.1211900e-04   4.3657632e-04   7.5055548e-04   3.9653058e-04   7.0728367e-04  -1.4747501e-03   8.8341994e-04   4.2973427e-04   5.2477221e-04   5.6588923e-04   7.1968511e-04  -4.8078838e-04   4.4992295e-05  -3.7796504e-04   1.0004555e-03  -3.5451527e-03  -2.2769687e-03  -4.2502848e-03   1.7539919e-03   6.6019112e-04  -3.3298046e-03  -2.0643363e-03
   6.2259485e-04   2.4887110e-04   7.7552785e-04   6.0692185e-04   6.9913927e-05   3.3208591e-04   1.0285338e-03   2.8201746e-04   4.6264933e-04   3.8225506e-04   1.0231668e-04   2.7370837e-04   3.1235933e-04   4.4164548e-04   7.1964826e-04  -2.2878806e-04  -3.1092580e-04  -5.8598659e-04   1.1826361e-03   3.6953407e-04   1.2273828e-03   2.1788791e-04   5.9090927e-04   5.0213176e-04   1.1270129e-03   9.2042168e-04   5.9101888e-04   3.9276140e-04   2.2514313e-04   4.2016408e-04   7.6451013e-04   4.1611836e-04   7.3107181e-04  -1.4623884e-03   8.8612415e-04   4.1680696e-04   5.2972569e-04   5.5213069e-04   7.3369022e-04  -4.4799098e-04   2.5134317e-05  -3.6370949e-04   9.7559381e-04  -3.5427632e-03  -2.2943777e-03  -4.2765718e-03   1.7453213e-03   5.5806467e-04  -3.1758246e-03  -2.0560413e-03
   5.9867947e-04   2.6148595e-04   7.7787146e-04   5.7136657e-04   6.5017179e-05   3.2157754e-04   9.9501177e-04   2.4405523e-04   3.2501516e-04   3.8889697e-04   1.1558152e-04   2.8582432e-04   3.2478682e-04   4.3361224e-04   6.7932071e-04  -2.5405124e-04  -3.0120238e-04  -5.6582090e-04   1.0690928e-03   3.6627869e-04   1.2255037e-03   2.2493530e-04   6.2272878e-04   5.1636464e-04   1.1084428e-03   9.2656148e-04   5.7685847e-04   3.9729869e-04   2.1773904e-04   4.3693042e-04   7.2394277e-04   4.0691381e-04   7.2855904e-04  -1.4595916e-03   8.7892893e-04   4.1878707e-04   5.3177064e-04   5.3797214e-04   7.2787364e-04  -4.8208889e-04   1.1472244e-05  -3.5561610e-04   9.9047879e-04  -3.6012048e-03  -2.3304056e-03  -4.3635922e-03   1.7564361e-03   6.2054145e-04  -3.3066166e-03  -2.0848706e-03
   6.1276404e-04   2.6390687e-04   7.9182861e-04   5.6093012e-04   7.0702219e-05   3.1587563e-04   9.7215461e-04   2.6495385e-04   3.5843896e-04   3.8978943e-04   1.4155025e-04   2.8105275e-04   3.3701406e-04   4.6198585e-04   6.8977685e-04  -2.2605255e-04  -2.9442430e-04  -5.7653285e-04   1.0549671e-03   3.7742505e-04   1.2241034e-03   1.9914089e-04   6.0475664e-04   5.1052700e-04   1.0990830e-03   8.9297071e-04   6.1958958e-04   4.0609678e-04   1.7649043e-04   4.2955746e-04   7.0995797e-04   3.8664875e-04   6.8866537e-04  -1.4524662e-03   8.8027195e-04   4.2261672e-04   5.2571821e-04   5.4761529e-04   7.0976117e-04  -5.0476822e-04   5.8693349e-05  -3.5580335e-04   9.8420924e-04  -3.6007571e-03  -2.1972719e-03  -4.3542366e-03   1.7831739e-03   6.7863445e-04  -3.1958984e-03  -2.1456445e-03
   6.1181723e-04   2.7346466e-04   7.8676763e-04   5.5090158e-04   7.5250013e-05   3.1279572e-04   9.5684238e-04   2.9042200e-04   3.5461530e-04   4.0574491e-04   1.3567868e-04   2.8146693e-04   3.2560944e-04   4.7404796e-04   6.9263222e-04  -2.1919367e-04  -2.8859673e-04  -5.8557198e-04   1.0925839e-03   3.7588627e-04   1.2164690e-03   1.8331029e-04   6.4688007e-04   5.1616924e-04   1.0799268e-03   9.0534741e-04   5.8753765e-04   3.9551052e-04   2.1647074e-04   4.2761760e-04   7.0462929e-04   3.6857330e-04   6.7441299e-04  -1.4389183e-03   8.8533334e-04   4.2121223e-04   5.3001067e-04   5.5110140e-04   7.0345867e-04  -4.9509836e-04   7.3829571e-05  -3.6264179e-04   9.7236689e-04  -3.5738791e-03  -2.3044338e-03  -4.2694476e-03   1.7752611e-03   5.9951347e-04  -3.3694911e-03  -2.2629285e-03
   6.1550509e-04   2.6741959e-04   7.9692184e-04   5.2858953e-04   7.1825714e-05   3.0337053e-04   9.0131501e-04   2.4152314e-04   3.5449787e-04   4.3439111e-04   1.7500913e-04   2.8979935e-04   3.3617465e-04   4.6802592e-04   6.5200811e-04  -2.0215190e-04  -3.0020607e-04  -5.7363568e-04   1.0940027e-03   3.8146769e-04   1.2230499e-03   1.6709657e-04   6.0471275e-04   5.2724418e-04   1.0532418e-03   9.0298150e-04   6.0256844e-04   4.1227962e-04   1.4676180e-04   4.2504890e-04   6.3701626e-04   3.7057901e-04   6.8985746e-04  -1.4386870e-03   8.7476708e-04   4.1745897e-04   5.3519994e-04   5.5577222e-04   7.1605790e-04  -5.4431858e-04   3.6805151e-05  -3.4568948e-04   9.7660418e-04  -3.6357157e-03  -2.2844893e-03  -4.3388703e-03   1.7582235e-03   6.2717160e-04  -3.4776458e-03  -2.2276246e-03
   5.6774251e-04   2.8421156e-04   7.8768673e-04   5.1570311e-04   7.9228543e-05   2.8629377e-04   8.5573265e-04   2.5774378e-04   4.1325667e-04   4.4706193e-04   2.1840910e-04   3.0236863e-04   3.4690928e-04   4.9006153e-04   6.5508904e-04  -1.7990472e-04  -3.0037964e-04  -6.1519194e-04   1.0863665e-03   3.9889108e-04   1.2434511e-03   1.7111113e-04   5.9144862e-04   5.4614880e-04   1.0218283e-03   8.8649127e-04   6.3740375e-04   4.3473582e-04   1.9743491e-04   4.2555211e-04   6.4657378e-04   3.6894876e-04   6.8016775e-04  -1.4378007e-03   8.7660080e-04   4.2632365e-04   5.4643018e-04   5.0904491e-04   7.0221140e-04  -5.5468874e-04   5.3026382e-05  -3.5334929e-04   9.9638547e-04  -3.6271757e-03  -2.2798525e-03  -4.3227128e-03   1.7778514e-03   5.9852091e-04  -2.9802099e-03  -2.1591336e-03
   5.9593102e-04   2.8027035e-04   7.8860839e-04   5.0947402e-04   7.1002600e-05   2.9783155e-04   8.7263208e-04   2.5903338e-04   4.2687671e-04   4.4462754e-04   2.0304460e-04   3.0255175e-04   3.5072202e-04   4.6058861e-04   6.3193985e-04  -1.9596964e-04  -2.9309429e-04  -6.0433394e-04   9.6121954e-04   3.8812755e-04   1.2394525e-03   1.9533679e-04   6.0950895e-04   5.4493971e-04   1.0347328e-03   8.8451139e-04   5.7714479e-04   4.0874555e-04   1.6825696e-04   4.1741930e-04   6.4416724e-04   3.5695566e-04   6.3471403e-04  -1.4415187e-03   8.6240639e-04   4.1220541e-04   5.3326134e-04   5.1857461e-04   7.1164523e-04  -5.6602701e-04   3.3276963e-05  -3.5384716e-04   9.8133169e-04  -3.6241822e-03  -2.3448302e-03  -4.3810350e-03   1.7522125e-03   5.7278154e-04  -2.9862251e-03  -2.3169147e-03
   5.8010314e-04   2.8080359e-04   7.8698434e-04   4.9745402e-04   7.3126364e-05   2.9184602e-04   8.4051315e-04   2.6517705e-04   3.8702675e-04   4.5501234e-04   2.2306593e-04   2.9367491e-04   3.6194100e-04   4.7392017e-04   6.3770980e-04  -1.8130270e-04  -2.8280530e-04  -6.0883281e-04   1.0803029e-03   4.0562174e-04   1.2535771e-03   1.9400887e-04   6.2697835e-04   5.2589847e-04   1.0000363e-03   8.6918299e-04   6.0976768e-04   4.2196506e-04   1.8775930e-04   4.0484345e-04   6.3448830e-04   3.7154544e-04   6.4765447e-04  -1.4313561e-03   8.7181822e-04   4.1877845e-04   5.3900055e-04   5.2594009e-04   6.6623412e-04  -5.6113966e-04   3.6773894e-05  -3.5475331e-04   1.0001562e-03  -3.6004528e-03  -2.2635965e-03  -4.3086810e-03   1.7612773e-03   6.5005029e-04  -3.4263185e-03  -2.1619932e-03
