  -7.6435797e-04  -3.9268326e-04  -4.7716725e-04  -4.0293040e-04  -7.9966459e-04  -8.3915296e-04  -4.4521512e-04   9.2418639e-05   6.7994650e-04   5.7603681e-04  -3.9450094e-04   1.5247175e-04  -3.5803131e-04  -1.1567114e-04  -1.2974952e-04   1.0528461e-03   3.7459709e-04   1.3237306e-03  -3.7161662e-05  -4.2364319e-04  -4.2599809e-04  -7.0192583e-04  -6.0363782e-06   6.7978865e-05  -1.7009098e-04  -1.5479674e-04  -4.2409913e-04   2.9105667e-04   1.9284255e-03   7.8032979e-05   2.2774297e-04   1.2631965e-03   2.7241200e-04   7.2950491e-04  -5.3012322e-05  -6.9611525e-04   6.0833996e-04   1.6119939e-03   3.7368390e-04  -5.0937675e-04  -4.9100537e-04  -8.0003846e-04  -9.9109777e-05  -1.3921290e-03  -1.3462775e-03   8.8005734e-04  -3.0667742e-04  -4.4851840e-04  -4.4049832e-04  -2.4535530e-04
  -9.6671871e-04  -6.1643013e-04  -6.5192929e-04  -6.1516481e-04  -9.1660686e-04  -7.8748335e-04  -5.2442262e-04   3.1159499e-05  -3.1423336e-04   4.3726931e-04  -4.9861096e-04   6.2245599e-05  -4.3084385e-04  -6.1779865e-05  -1.7917724e-04   1.1571684e-03   3.9598218e-04   1.4338976e-03  -6.9767976e-04  -5.7736487e-04  -5.9084053e-04  -8.9010334e-04   5.1787265e-05  -1.8918244e-04  -1.8198654e-04  -8.5108681e-05  -5.1844359e-04   2.5569854e-04   1.9724818e-03  -1.4993259e-05   4.9567770e-04   1.6489848e-03   6.2537624e-04   5.9190032e-04  -1.8224206e-04  -3.0275338e-04   3.8986548e-04   1.6597916e-03   1.0008249e-04  -8.1116817e-04  -7.0181780e-04  -2.1065951e-04  -2.2432343e-04  -1.0892519e-03  -1.1316929e-03   9.5168140e-04  -6.0562324e-04  -3.0231805e-04  -2.5993555e-03   3.5242887e-05
  -6.4181845e-04  -2.5940244e-04  -3.6794681e-04  -2.5000446e-04  -7.3136069e-04  -6.2790996e-04  -2.5803005e-04   3.8143739e-04   9.3861576e-04   7.8327558e-04  -1.6340324e-04   3.5790919e-04  -4.8083959e-05   2.2960790e-04   1.9302954e-04   1.5749830e-03   5.8493967e-04   1.5245379e-03  -2.0819236e-04  -1.7248678e-04  -3.6352250e-04  -7.1590923e-04   8.3918043e-05   1.4755709e-04  -1.0367921e-04   2.9356341e-05  -3.4428824e-04   5.1153917e-04   2.0370574e-03   1.5843155e-04   7.6857291e-04   1.8981806e-03   2.7833751e-04   9.3206088e-04   1.5052606e-04  -9.3293237e-04   4.3213082e-04   1.7954796e-03   3.8754055e-04  -2.0481776e-04   6.8803856e-05  -6.7588757e-05   1.7018151e-04  -8.7148621e-04  -9.3695970e-04   3.6076840e-04  -1.9231476e-05   6.0837476e-05  -2.1563496e-03   6.7424575e-05
  -4.7832177e-04  -1.6532755e-04  -1.9508730e-04  -1.1803184e-04  -6.3188112e-04  -5.7552697e-04  -2.7415052e-04   5.8777485e-04  -1.2862913e-03   7.3269929e-04  -1.1834460e-04   3.9002587e-04  -5.0427610e-05   4.6869405e-04   3.8681651e-04   1.8299537e-03   6.5421383e-04   1.4319592e-03  -6.6218735e-04  -1.2551915e-04  -4.5247571e-04  -6.0530886e-04   2.1701907e-04   1.2535061e-04   2.6815457e-04   3.6081168e-05  -1.7595782e-04   6.1487628e-04   1.9579728e-03   2.3525827e-04   7.6649396e-04   1.7681195e-03   7.5477589e-04   7.3010672e-04   1.7454222e-04  -3.1544954e-05   3.3188929e-04   1.5617338e-03   4.3628717e-04  -2.5301610e-04   8.3556399e-05  -1.6280587e-04   8.7090695e-05  -1.3158461e-03  -8.2608091e-04   7.1665685e-04  -6.5466011e-04  -9.1724309e-05  -2.4951776e-03   3.0195466e-04
  -8.3660544e-04  -5.2302342e-04  -5.3869264e-04  -5.0122192e-04  -7.7619823e-04  -6.1590085e-04  -4.2122041e-04   6.6263997e-04   5.4977072e-04   6.9954095e-04  -1.4309488e-04   3.0785816e-04   5.0900850e-05   4.2649626e-04   3.6886422e-04   1.9222019e-03   7.3163112e-04   1.2131615e-03   6.0068333e-04   1.9570690e-04  -2.3704559e-04  -3.3689616e-04   3.1240060e-04   1.2819628e-04   2.4215697e-04   8.8646702e-05   1.0668146e-04   7.5709837e-04   1.9598848e-03   3.5020828e-04   9.2030730e-04   1.3934623e-03   8.6689281e-04   1.2156040e-03   4.1130907e-04   5.8374816e-04   7.5676205e-04   1.5406689e-03   6.5950910e-04   8.5492240e-05   1.6044494e-04  -5.8351983e-05   4.2238343e-04  -4.4068298e-04  -6.6290656e-04   1.9952292e-04  -2.2261780e-05   4.3821151e-04  -1.4989498e-03   5.6858520e-05
   5.2509695e-05   2.4766559e-04   2.1052337e-04   3.1816144e-04  -2.9434179e-04  -1.3382142e-04   1.5216929e-04   1.1869945e-03  -1.6281134e-03   9.2876208e-04   1.9910444e-04   6.2083721e-04   3.8499624e-04   9.3703042e-04   7.5390609e-04   2.4171786e-03   8.9790043e-04   1.6525828e-03   8.7387441e-04   5.2161218e-04  -2.1284573e-04  -1.6777025e-04   6.1913306e-04   2.5788718e-04   6.3214859e-04   3.0253845e-04   2.6193356e-05   1.0287368e-03   1.3012644e-03   6.3633831e-04   8.4443111e-04   1.2654198e-03   8.1774476e-04   9.7502599e-04   5.1268254e-04   1.3659018e-04   7.0907269e-04   8.3571306e-04   6.6180510e-04  -2.5170144e-05   1.0297245e-04  -3.6764715e-05   5.1960722e-04  -8.9717092e-04  -6.5737998e-04   1.0250227e-03   4.4317650e-05   5.9957092e-04  -1.1175633e-03   1.1022047e-03
  -3.1448336e-04  -9.7548764e-05   1.1274185e-06   6.1916078e-05  -4.1700437e-04  -2.1591406e-04   5.4185672e-05   1.1436837e-03  -2.9290220e-04   7.1850809e-04   1.4240034e-04   4.2372066e-04   3.9781586e-04   9.1396383e-04   7.0673693e-04   2.5582835e-03   8.5984357e-04   1.4149139e-03  -1.0719921e-03   3.7764656e-04  -2.4347739e-04  -4.1410868e-04   2.6749950e-04   5.1668900e-05   6.2274252e-04   2.5886859e-04   1.3872149e-04   8.8338618e-04   1.0769623e-03   6.6364004e-04   1.2632825e-03   1.4512709e-03   9.9789072e-04   6.4342236e-04   4.9668166e-04   3.3028703e-04   6.6871324e-04   6.1478670e-04   8.3802186e-04   1.5314798e-04   7.5109542e-04   2.2818170e-04   5.5202568e-04  -4.7813337e-05   2.5096533e-04   1.8427111e-03   3.5474400e-04   9.9878199e-04   8.3276391e-04   1.1808323e-03
   2.4866525e-04   3.4423254e-04   4.1345815e-04   5.4174027e-04  -7.5348689e-05   3.4238095e-05   4.3963664e-04   1.4360403e-03  -1.1240838e-03   1.0366982e-03   4.4618011e-04   7.1833062e-04   6.8384287e-04   1.3149413e-03   1.0693427e-03   2.9076068e-03   1.1185930e-03   1.8267649e-03  -4.0203315e-04   9.5019123e-04   1.9435951e-04   1.0250324e-04   5.9265032e-04   5.0243485e-04   4.6717626e-04   7.4872060e-04   5.7575107e-04   1.1460291e-03   1.1791966e-03   9.5930358e-04   1.3835580e-03   1.2063460e-03   1.2878638e-03   9.6028950e-04   8.9184230e-04   6.9373462e-04   8.4764633e-04   6.3968764e-04   9.3475293e-04   6.6056161e-04   1.0208422e-03   5.6560920e-04   8.4706250e-04   1.2705669e-04  -3.3561885e-04   9.2449627e-04   2.1458596e-04   1.1327781e-03  -8.6943700e-04   5.4122915e-04
   2.8166670e-04   3.1902612e-04   4.6811259e-04   5.6869176e-04   1.7108689e-05   1.5592382e-04   5.3264113e-04   1.6172144e-03  -4.7691408e-04   9.1566343e-04   4.2645429e-04   5.9238798e-04   7.8323128e-04   1.4471057e-03   1.0005663e-03   2.9926870e-03   1.1401770e-03   1.4210261e-03   5.2759098e-04   9.6526969e-04   1.7550294e-04   1.6369029e-04   6.1093597e-04   5.1447866e-04   7.7883073e-04   4.2205877e-04   5.4659264e-04   1.1278488e-03   1.2482337e-03   9.3018729e-04   1.0571801e-03   9.4595185e-04   1.1257086e-03   7.3631934e-04   8.5788575e-04   4.2292559e-05   8.2501530e-04   6.7052071e-04   9.9571887e-04   4.8542870e-04   1.2081770e-03  -1.0929992e-04   6.8383920e-04  -3.5462333e-04  -2.3443719e-04   1.5565134e-03  -3.3718647e-05   9.8829041e-04  -1.1140354e-03   9.6578989e-04
  -1.6885203e-04  -6.3617437e-05   1.3711762e-04   1.3586515e-04  -1.3082073e-04   6.0179995e-05   2.1059990e-04   1.5155120e-03  -5.6428666e-04   8.7981747e-04   3.6696531e-04   5.6937477e-04   7.5523241e-04   1.4024531e-03   9.1451540e-04   2.8716957e-03   1.1208984e-03   1.6627552e-03   6.6957047e-04   1.1539122e-03   3.2826528e-04   3.2656055e-04   8.1526762e-04   5.6607032e-04   8.1301911e-04   2.8021450e-04   6.6713488e-04   1.2483571e-03   1.1867052e-03   9.8734861e-04   1.1581946e-03   7.3606963e-04   1.1699535e-03   1.1190957e-03   1.0454768e-03   4.2097166e-04   9.5775654e-04   6.7973899e-04   1.2072198e-03   2.9203770e-04   1.1934895e-03   4.6170596e-04   9.2015485e-04   9.6007861e-04   5.4366433e-04   1.1186660e-03   5.0398702e-04   1.2639806e-03  -1.1589235e-04   1.4800221e-03
   6.0408877e-04   5.9681915e-04   7.2260579e-04   8.1539853e-04   2.8537874e-04   4.4673466e-04   7.3454407e-04   1.7567243e-03   3.7301204e-04   9.8940067e-04   5.8075343e-04   7.9987530e-04   1.0256495e-03   1.6681232e-03   1.1014228e-03   2.9971518e-03   1.2137799e-03   1.4953434e-03   4.1497644e-04   1.1778880e-03   3.9146736e-04   4.9206964e-04   5.8010250e-04   5.3081731e-04   8.7213592e-04   8.3959859e-04   6.6666212e-04   1.2963577e-03   1.3377537e-03   1.0985757e-03   1.2947266e-03   9.7523449e-04   1.3856633e-03   8.6625008e-04   1.1615702e-03   1.3809496e-03   1.0167238e-03   6.4926210e-04   1.1754074e-03   8.7988301e-04   9.5357076e-04   4.0335595e-04   8.0944679e-04   6.5204687e-04   2.1890404e-04   7.7206921e-04   3.6801104e-04   1.0535079e-03  -7.3352683e-04   1.1766360e-03
   3.3808133e-04   3.4280590e-04   4.8667449e-04   5.1254721e-04   2.2111690e-04   4.4332145e-04   5.0138897e-04   1.6676233e-03   1.4440025e-03   7.0610916e-04   3.7862774e-04   4.9481698e-04   8.5157558e-04   1.4848949e-03   1.0727482e-03   2.6403393e-03   1.0376557e-03   1.4721953e-03  -4.8534988e-04   9.3375728e-04   2.1286651e-04   2.9850053e-04   8.3103945e-04   4.9038668e-04   6.5685064e-04   3.8379457e-04   5.8802863e-04   1.1481706e-03   1.0183398e-03   9.4461790e-04   9.4948709e-04   1.0500544e-03   1.2110039e-03   7.0699927e-04   9.7191747e-04   1.0675346e-03   8.2891627e-04   5.7989004e-04   9.5480453e-04   2.6560374e-04   1.0924400e-03   8.0787565e-04   7.8090443e-04   5.1807775e-04   6.7961722e-04   1.4764983e-03   7.9732819e-04   1.2522435e-03   1.8627367e-04   1.0697735e-03
   8.5352623e-04   7.5463660e-04   9.2601142e-04   1.0066110e-03   5.4237002e-04   7.1027945e-04   9.9037855e-04   1.7413206e-03  -2.0955679e-04   9.8356104e-04   6.2161498e-04   7.9087541e-04   1.0152147e-03   1.7130205e-03   1.1409220e-03   2.8566567e-03   1.1848642e-03   1.5335074e-03   1.4324629e-03   1.2429168e-03   4.3968647e-04   5.2310718e-04   7.8293838e-04   4.4788144e-04   6.8723073e-04   4.6854067e-04   7.4438821e-04   1.2928811e-03   1.2136953e-03   1.1361371e-03   9.1976806e-04   8.7215938e-04   1.6262596e-03   9.2904962e-04   1.2915988e-03   1.4439585e-03   1.1333234e-03   5.1208865e-04   1.2436799e-03   7.4842462e-04   1.1819367e-03   1.0340646e-03   9.5921831e-04   7.5941667e-04   6.1746110e-04   1.7880900e-03   5.3543493e-04   1.2437608e-03   1.3817517e-03   1.3311891e-03
   7.3213089e-04   5.8361562e-04   8.1571809e-04   8.5246161e-04   4.9074664e-04   7.2497118e-04   8.8543596e-04   1.6946562e-03   3.2861909e-04   8.0376369e-04   4.4931591e-04   6.0443039e-04   9.1878622e-04   1.6391056e-03   1.0796644e-03   2.7594084e-03   1.0519816e-03   1.3830116e-03   1.7019490e-03   9.8236161e-04   2.8604508e-04   2.2830802e-04   7.5413939e-04   2.1843145e-04   5.0344825e-04   3.3560436e-04   6.4212497e-04   1.1538859e-03   1.2289593e-03   1.0982938e-03   1.1031617e-03   9.5749018e-04   1.2276910e-03   6.4695720e-04   1.0849905e-03   1.5621394e-03   1.2253420e-03   4.8324320e-04   1.1655195e-03  -5.1776104e-05   1.0724965e-03   2.8237712e-04   8.3310658e-04   7.0872850e-04   1.0077820e-04   1.2115600e-03   1.5955264e-04   8.9205394e-04  -5.8392441e-04   1.1326597e-03
   1.5366929e-04   5.5651479e-05   3.1715908e-04   3.2335042e-04   1.6770019e-04   3.9239190e-04   4.9264682e-04   1.5168438e-03  -6.1020128e-05   6.5590692e-04   2.3648776e-04   3.8901993e-04   8.1073988e-04   1.3903135e-03   1.0718604e-03   2.5520877e-03   9.1460225e-04   1.1036824e-03   2.0626385e-03   1.0650808e-03   3.5870468e-04   3.2888842e-04   8.6970907e-04   4.4519268e-04   8.5141789e-04   4.6517386e-04   6.4975471e-04   1.2843888e-03   1.1466554e-03   1.0559262e-03   5.9375336e-04   6.2507321e-04   7.8555645e-04   9.5633202e-04   1.2830683e-03   1.6505333e-03   1.2651333e-03   4.6564371e-04   1.4907345e-03   1.1113499e-03   8.4607495e-04   8.3067804e-04   1.0884405e-03   6.0765725e-04   6.4217742e-04   2.5950205e-03   8.3919999e-04   1.2521786e-03   7.3592830e-04   9.3749334e-04
   9.3795964e-04   7.0880173e-04   1.0141863e-03   1.0867004e-03   6.3157559e-04   8.1661437e-04   1.0797296e-03   1.7171367e-03  -7.9142272e-05   8.5019198e-04   4.9254729e-04   5.9973472e-04   9.6665579e-04   1.5841977e-03   1.1299336e-03   2.7265546e-03   9.6061663e-04   1.4157685e-03   1.4407478e-03   1.0628115e-03   3.5497971e-04   3.2939526e-04   5.3519791e-04   3.5688683e-04   9.2825567e-04   3.5220408e-04   6.2049978e-04   1.1100161e-03   1.0983073e-03   1.1254433e-03   1.0641866e-03   6.7422882e-04   1.2034933e-03   7.4276049e-04   1.2091267e-03   1.1292087e-03   1.3547842e-03   4.3209075e-04   1.5120920e-03   8.6408138e-04   7.9867325e-04   6.8818388e-04   9.9903857e-04   7.9059374e-04   1.7963492e-04   1.8821470e-03   2.9111814e-04   1.2600081e-03  -1.4982895e-04   1.5256294e-03
   5.1205896e-04   3.1917705e-04   6.6237908e-04   6.9922610e-04   4.2257347e-04   5.4425560e-04   8.3397917e-04   1.6555665e-03  -1.4882254e-04   5.9602706e-04   2.3574238e-04   4.1116524e-04   7.4897386e-04   1.3285407e-03   9.4442867e-04   2.4646707e-03   7.6908112e-04   1.1761574e-03   1.2628509e-03   6.9365237e-04   1.3056776e-04   1.0572500e-04   4.3056306e-04  -4.8788017e-05   6.1125262e-04   3.8634846e-04   5.1613961e-04   1.0270732e-03   1.0290586e-03   9.3672826e-04   3.0759341e-04   7.4351073e-04   5.3406268e-04   6.3391728e-04   9.4597327e-04   1.3841899e-03   1.1849536e-03   4.5219628e-04   1.0730189e-03   2.6374057e-04   3.2370957e-04   3.4914541e-04   7.1055302e-04   4.8166767e-04   2.8944426e-04   1.9277737e-03  -3.2616917e-05   1.0562930e-03   8.7013678e-04   1.1759184e-03
   7.9702993e-04   6.0223538e-04   9.2335249e-04   1.0322296e-03   7.1086799e-04   8.2837406e-04   9.9628500e-04   1.7594859e-03   5.9228588e-04   8.0954307e-04   3.6358851e-04   5.3468975e-04   8.6867879e-04   1.4304719e-03   8.7535230e-04   2.3867460e-03   8.0391526e-04   1.2329664e-03   8.4830805e-05   1.0040057e-03   4.0880911e-04   3.4574521e-04   7.9973001e-04   3.6260393e-04   5.7232979e-04   5.5804936e-04   6.6744408e-04   1.0745956e-03   1.0985658e-03   1.0311606e-03   7.4221380e-04   2.7140038e-04   8.6888397e-04   6.5591908e-04   1.1399855e-03   1.4513156e-03   1.4764769e-03   4.7135871e-04   1.4096842e-03   1.2164088e-03   9.3369291e-04   4.8230297e-04   9.4637967e-04   1.3777099e-03   5.0412159e-04   1.2257472e-03   5.0334615e-04   1.1328683e-03  -4.2853758e-04   1.1206514e-03
   8.2562200e-04   5.6510052e-04   9.3441037e-04   1.0013029e-03   6.9863029e-04   7.0731371e-04   9.6687221e-04   1.5394471e-03   6.8322604e-04   7.1294256e-04   2.4911534e-04   4.5564736e-04   7.6670811e-04   1.3028362e-03   7.7689043e-04   2.1702426e-03   6.6628976e-04   1.0517485e-03  -6.6451053e-04   7.8382791e-04   2.7578883e-04   2.8702980e-04   4.1912400e-04   2.0933434e-04   2.6131718e-04   2.7712338e-04   5.1947782e-04   8.8323181e-04   8.7247969e-04   9.6219213e-04  -3.0252797e-04   5.7821511e-04   5.2782090e-04   5.6631089e-04   9.3198672e-04   1.4340393e-03   1.2096859e-03   3.9314854e-04   1.1945749e-03   4.8072991e-04   7.0672936e-04   5.0951546e-04   6.9097866e-04   6.9774385e-04   6.0588808e-04   9.0323872e-04   2.3099828e-04   7.5315329e-04  -1.5682318e-04   1.2251067e-03
   1.5698186e-04   2.2345110e-05   3.5903242e-04   4.1575014e-04   3.3600884e-04   4.4942650e-04   5.0066045e-04   1.3462544e-03   8.2613871e-04   3.8361977e-04  -6.1148909e-05   1.6898623e-04   4.6003197e-04   8.9797360e-04   7.6181954e-04   1.7059606e-03   4.1567942e-04   7.5296062e-04   4.3688895e-04   3.3664735e-04   1.0922506e-05  -2.1833110e-05   2.2892460e-04  -1.0832331e-04   4.9684173e-04   1.9635825e-04   3.4140286e-04   7.6953921e-04   9.7607280e-04   6.8630517e-04  -9.0190952e-05   5.8153464e-04   6.4903370e-04   5.6494237e-04   7.7159941e-04   1.1885728e-03   9.5223438e-04   4.0719646e-04   1.1369081e-03   2.9898618e-04   8.9870527e-04   4.9101061e-04   7.3372084e-04   6.9357449e-04   4.5057660e-04   2.0223751e-03   3.0690976e-04   8.7469997e-04   1.0021428e-03   9.1637170e-04
   7.9373573e-04   5.4968847e-04   9.2300505e-04   1.0543808e-03   7.4715080e-04   7.4703473e-04   8.6427096e-04   1.3244502e-03   3.3168201e-04   7.2826562e-04   1.5021600e-04   3.9231530e-04   5.4618949e-04   9.9260872e-04   6.4443954e-04   1.8072545e-03   5.1026890e-04   8.3838968e-04   7.3406601e-04   6.1868283e-04   2.7227055e-04   1.0791089e-04   3.3634502e-04   1.2104382e-05   1.7904819e-04   1.8545450e-04   4.0126979e-04   7.5174309e-04   9.0321945e-04   7.9384429e-04   6.4091216e-04   6.4231496e-04   5.2897877e-04   5.1987782e-04   7.5654930e-04   8.1737345e-04   1.1706997e-03   3.8748109e-04   1.1904136e-03   1.1310559e-03   6.6037546e-04   5.1088177e-04   6.9353578e-04   3.3188629e-04   1.4214509e-04   1.2292271e-03   1.6336683e-04   8.1488222e-04   7.3671894e-05   7.7477196e-04
   4.5771035e-04   2.2471300e-04   6.2179653e-04   7.2776567e-04   4.8389303e-04   5.1700673e-04   7.3857093e-04   1.2029983e-03  -1.4377413e-03   5.2910857e-04  -3.1412674e-05   1.9906160e-04   3.6701609e-04   7.3785987e-04   3.6267602e-04   1.5547554e-03   3.2018486e-04   8.4704615e-04   1.1745692e-03   3.2700345e-04   1.1752660e-04  -3.1224230e-05   1.5985697e-04  -3.8978167e-05   3.2660220e-04  -1.5169555e-05   2.6376979e-04   6.5720716e-04   6.1424263e-04   5.9324625e-04   1.7854413e-04   3.9850481e-04   4.2547018e-04   3.9413883e-04   5.3797214e-04   5.3494936e-04   7.3998445e-04   2.9293459e-04   9.1298955e-04   2.2727143e-04   2.0269112e-04   1.1596591e-05   3.8404579e-04   5.8499241e-04   3.5491769e-04   7.3178584e-04  -1.4824195e-04   3.5418643e-04  -3.0508512e-04   7.1581197e-04
  -2.6357270e-04  -3.9171110e-04   2.2332579e-05   9.2126269e-05   1.0531827e-04   2.0350952e-04   2.7631299e-04   8.7581284e-04  -1.1102144e-04   3.9827521e-04  -3.0378540e-04   5.3562203e-06   2.0595554e-04   4.7497705e-04   4.0030963e-04   1.2339678e-03   1.7594465e-04   8.5468200e-04   7.1046205e-04   3.0967881e-04   1.5946824e-04  -4.7768244e-05   3.2549596e-04   7.5780081e-05  -2.4181364e-04  -7.6420889e-05   1.5895185e-04   5.6343281e-04   6.7805266e-04   5.2052783e-04   3.0095316e-04  -2.2865872e-06   5.5010547e-04   5.0478213e-04   5.2885391e-04   3.4697005e-04   1.0445203e-03   2.8059413e-04   1.0366400e-03   1.0484754e-03   6.9271313e-04   3.9037174e-04   5.5620843e-04   9.5458666e-04   2.0571882e-04   1.3696851e-03   3.6805184e-04   5.9260207e-04   1.3163118e-03   1.1230423e-03
   4.5352461e-04   2.5165969e-04   6.1183929e-04   8.0426544e-04   4.9816957e-04   4.8730508e-04   6.7499129e-04   9.9478255e-04   1.4126475e-03   6.0432061e-04  -1.1837603e-04   2.2781677e-04   2.5573873e-04   5.4433668e-04   2.4767886e-04   1.2648675e-03   2.0521735e-04   8.7393401e-04   1.2912165e-03   3.2578141e-04   1.6057841e-04  -5.5273071e-05  -8.2538689e-05  -5.8736343e-05   1.3935621e-04  -1.7325135e-04   1.0886301e-04   5.1639462e-04   6.4311299e-04   4.9631047e-04   5.4432148e-05   3.0717140e-04   2.6592609e-04   3.7266870e-04   4.4630290e-04   9.5269387e-04   9.0448983e-04   2.1879042e-04   8.4225944e-04   4.2590083e-04   6.0836750e-04   5.8851652e-05   3.5373578e-04  -7.1097864e-05  -1.4300546e-05   1.4224577e-03  -3.7928473e-04   3.0038360e-04   2.7118329e-04   4.7937356e-04
  -5.4896183e-05  -2.0218498e-04   1.7796934e-04   3.1061404e-04   1.9238786e-04   2.4373671e-04   2.6630002e-04   6.9457275e-04  -1.5678557e-03   3.4444244e-04  -3.4844803e-04  -3.5550805e-05   2.6194723e-05   2.7620315e-04   1.5668570e-04   9.7636564e-04   7.8397250e-05   9.6236228e-04  -3.0945297e-03  -7.6616452e-05  -9.2805647e-05  -3.8555230e-04  -3.4676140e-04  -4.4447891e-04  -1.1273660e-04  -3.0600379e-04  -5.9183891e-05   2.3197575e-04   6.3273439e-04   2.8177214e-04   6.5026729e-04   6.0367672e-04   3.4461109e-04   2.7706558e-04   1.2489235e-04   4.9445458e-04   5.3061370e-04   1.4691940e-04   5.9579517e-04  -3.0033372e-04  -1.9029849e-04  -1.4067967e-04   3.6439978e-05   2.0851432e-04  -1.0807033e-04   6.8861706e-04  -3.8236941e-04   5.2647825e-05   3.4704265e-06   1.0424834e-03
   6.2450847e-05  -9.9793942e-05   2.7640720e-04   4.6272803e-04   2.8206222e-04   2.2181903e-04   5.0225062e-04   6.9671910e-04  -6.1445980e-04   6.0335925e-04  -2.2724207e-04   1.4144741e-04   4.3563963e-05   1.8661311e-04   7.3393741e-05   9.7771641e-04   4.1347317e-05   3.6619225e-04  -4.6757559e-04   1.1385023e-04   9.1544869e-05  -1.8220920e-04  -2.0845875e-05  -8.4915948e-05  -2.0622028e-04  -3.4203191e-04   9.2831877e-05   2.8904490e-04   5.9317797e-04   2.5523378e-04   4.0248202e-04   6.0533680e-04  -2.0112014e-04   3.2933889e-04   1.8414579e-04   7.7138585e-04   5.4338801e-04   2.6622284e-04   8.8560244e-04   3.3659473e-04   1.2506118e-04   1.9832003e-04   2.8147222e-04   2.0820994e-04  -1.2245451e-04   1.5428583e-03  -4.4844483e-04   2.6406924e-04  -3.9720192e-04   3.5792368e-04
   9.1187874e-05  -7.4266434e-05   2.6507623e-04   4.8306759e-04   2.7076286e-04   1.3768327e-04   4.3571202e-04   5.9169572e-04  -1.5628756e-03   5.2284548e-04  -2.6404549e-04   9.9551762e-05  -5.5343349e-05   1.2798421e-04   5.3543590e-05   8.5956656e-04  -1.1310037e-05   8.1302953e-04  -9.0856903e-04  -5.0733295e-05  -1.2171889e-05  -3.4950016e-04  -3.1258527e-04  -2.8439908e-04  -1.4279637e-04  -2.3563342e-04  -7.9276970e-06   1.0672685e-04   6.2066485e-04   1.1286778e-04   1.5934165e-04   4.3005514e-04  -2.6212976e-05   2.8045880e-04   2.1165966e-05  -3.9114963e-04   3.1634010e-04   2.3989451e-04   6.0126546e-04   4.6146469e-04  -4.0471420e-04   6.3827385e-05  -9.8153960e-06  -1.3763126e-04  -3.5282064e-04   8.8059041e-04  -4.6668932e-04  -1.6349001e-04  -4.7413504e-04   2.4936016e-04
  -5.8106508e-04  -6.4929988e-04  -2.8432425e-04  -1.2966160e-04  -1.5403594e-04  -1.4305135e-04   7.1257118e-06   4.1073668e-04  -4.3795101e-04   2.1057727e-04  -5.5609550e-04  -1.7809402e-04  -2.9230205e-04  -1.3276718e-04  -1.3881619e-04   5.3241692e-04  -2.0751209e-04   2.7034155e-04  -2.2400268e-03  -3.9985601e-04  -2.2808502e-04  -6.2087184e-04  -2.2808168e-04  -4.3709352e-04  -3.7274027e-04  -3.9686967e-04  -1.2619380e-04   5.9949189e-06   6.2475284e-04  -1.7610442e-05  -1.0190098e-05   4.9648789e-04  -3.7429921e-04   2.5475773e-04  -7.0815433e-05   1.3649864e-04   1.3227842e-04   2.1975362e-04   3.7725439e-04   2.6737200e-04  -2.4114994e-04   2.0334122e-04   9.2965252e-05  -3.0583370e-04  -3.2662123e-04   9.8819402e-04  -1.6947600e-04   9.0861984e-05  -1.2008897e-03  -2.5425490e-04
   8.4550513e-05  -5.7223180e-05   2.9731129e-04   4.8541260e-04   1.9688664e-04   1.1605781e-04   3.6179676e-04   4.6835066e-04  -1.0567984e-03   5.7078985e-04  -3.0065095e-04   1.3718616e-04  -1.9402725e-04  -1.4942822e-05   5.3703243e-05   6.9035374e-04  -8.0743361e-05   4.5343838e-04   2.4372451e-04  -1.0514996e-04  -7.6792585e-06  -4.1770475e-04  -1.4561579e-04  -1.1495309e-04  -8.7041219e-05  -4.1853465e-04   4.9346101e-05   1.2072736e-04   6.3805940e-04   1.9434885e-05  -7.0118159e-04   5.5054645e-04   6.8362651e-04   1.9769487e-04  -8.5169195e-05  -5.6470348e-05  -4.3895358e-05   2.1657298e-04   4.4295876e-04   6.3532807e-06  -4.3718537e-04  -3.1420408e-04   4.5127676e-06  -3.8359351e-05  -1.5075831e-04   8.3949289e-04  -7.3039270e-04  -5.2418953e-05   7.6321576e-04   3.6514768e-05
  -3.4234102e-04  -4.3244875e-04  -1.1235783e-04   8.1475184e-05  -6.9171467e-05  -1.7358579e-04   1.1988394e-04   3.7086054e-04  -7.5428380e-04   3.7529852e-04  -4.7269269e-04  -4.0451680e-05  -2.9516933e-04  -1.7906756e-04  -4.2247199e-04   5.5896578e-04  -2.0155571e-04   8.7603217e-04   9.0884796e-04  -3.8156167e-04  -1.7141180e-04  -6.5332389e-04  -3.2901656e-04  -3.1907021e-04  -5.0108775e-04  -2.5497351e-04  -1.0343319e-04  -5.1587464e-05   5.7038583e-04  -1.0741224e-04  -4.9864512e-04   5.0044886e-04   1.8570367e-04  -2.7111524e-05  -2.8630445e-04  -7.6580781e-04  -8.6017521e-05   9.3157185e-05   1.1865827e-04  -4.9918995e-04  -3.9543345e-04  -3.0388645e-04  -2.8492781e-04  -6.4609025e-04  -1.1670905e-03   3.2098588e-04  -1.0684940e-03  -4.7018085e-04  -1.5842196e-03  -2.3532190e-04
  -1.1210460e-03  -1.0834886e-03  -6.4821349e-04  -5.2749849e-04  -4.6125872e-04  -4.8824263e-04  -3.7856621e-04  -2.9171422e-05  -1.1475836e-03   4.3642407e-04  -5.1893078e-04  -2.2159134e-05  -3.6423575e-04  -3.3168218e-04  -3.1650561e-04   5.3400395e-04  -2.0110489e-04   7.9909712e-04  -6.4335961e-04  -1.3659704e-04  -2.7440710e-05  -5.0319225e-04  -2.2169320e-04  -2.5805892e-04  -6.0394930e-04  -4.4477303e-04  -6.9218841e-05   1.6417767e-05   4.7131462e-04  -9.4656374e-05  -2.3892311e-04   5.7881937e-04   3.6497088e-04   2.6287092e-04  -1.9947211e-04  -1.0232537e-04   1.1612212e-04   1.2365839e-04   3.9750934e-04   2.5982060e-04  -2.1929554e-04  -1.0065696e-04  -2.3869710e-05  -7.3955464e-04  -6.6532032e-04   8.1222592e-04  -3.5422621e-04  -2.7599648e-05  -4.0770890e-04   1.0351851e-04
  -2.5940521e-04  -3.6822734e-04  -2.3849512e-05   1.6326385e-04  -1.2150688e-04  -2.0276720e-04   6.0739698e-05   2.2355963e-04   8.5983233e-04   5.1301700e-04  -3.8874135e-04   7.5244599e-05  -2.8499149e-04  -2.5469888e-04  -1.7418856e-04   6.4408826e-04  -1.0696514e-04   7.5939990e-04   2.3192813e-04  -1.7124873e-04  -5.6651410e-05  -4.8063879e-04  -3.8501830e-04  -3.5092348e-04  -4.3624750e-04  -5.1612442e-04  -1.1543703e-04   7.4393247e-05   6.6834199e-04  -1.2879710e-04   5.2598584e-04   3.6319194e-04  -2.1794103e-05   2.6257575e-04  -2.7000590e-04  -5.6930596e-04  -2.6106751e-05   1.2475456e-04   1.0168054e-04  -3.1533744e-04  -3.1923837e-04  -4.2600982e-04  -1.5988742e-04  -7.6910766e-04  -4.9456133e-04   1.6091532e-03  -1.0635013e-03  -3.1748979e-04  -2.3699827e-04   1.2823673e-04
  -8.3306921e-04  -8.1894052e-04  -4.7518173e-04  -3.4920187e-04  -3.5618892e-04  -5.0096563e-04  -2.8350457e-04  -4.9379301e-05  -7.2480133e-04   2.0266919e-04  -5.9600954e-04  -1.6560269e-04  -4.6746517e-04  -3.8294698e-04  -2.6461249e-04   4.0333293e-04  -2.7566025e-04   4.6061241e-04  -2.4208955e-03  -5.1489379e-04  -3.0058928e-04  -7.5957895e-04  -5.5023137e-04  -4.2666442e-04  -3.7697610e-04  -4.1371814e-04  -2.9014156e-04  -9.9654550e-05   6.6049839e-04  -2.5225210e-04  -4.6079324e-04   6.8109372e-04  -2.3933007e-04   1.1207689e-04  -4.7480495e-04  -3.3084158e-04  -3.7736582e-04   3.7009526e-05  -5.7581430e-05  -3.9592013e-04  -4.5735270e-04  -6.6750188e-04  -3.1788211e-04  -6.9645385e-04  -9.0643729e-04   7.1011789e-05  -5.9176766e-04  -2.2854736e-04  -1.0835688e-03  -1.7341877e-04
  -3.3964345e-04  -3.7424377e-04  -8.8293513e-05   1.2665580e-04  -1.2425042e-04  -2.9423536e-04   5.1270701e-05   1.3831520e-04  -7.8324863e-04   5.6829798e-04  -3.4021345e-04   1.3381260e-04  -2.7505614e-04  -2.5459140e-04  -1.9788626e-04   5.5472035e-04  -1.1715583e-04   1.1128268e-03  -1.7634017e-04  -1.2352952e-04   1.7689856e-05  -3.6921477e-04  -1.9448636e-04  -2.5364038e-04  -6.0790335e-04  -1.9920424e-04  -2.0559142e-04  -6.0514187e-05   6.0820783e-04  -1.3088684e-04   3.9921142e-04   3.3455432e-04   1.3021319e-04   2.9313739e-04  -3.2263497e-04  -5.9166032e-05  -1.0861899e-04   6.4194581e-05   8.6223976e-05  -2.2630508e-04  -2.5185334e-04  -4.5878772e-04  -1.5932031e-04  -3.7707965e-04   5.9572187e-05  -5.0668692e-04  -5.8112637e-04  -2.6003589e-04  -2.2422579e-04  -4.2515711e-04
  -4.8354670e-04  -5.0822663e-04  -2.0513547e-04  -2.0042335e-05  -2.7478009e-04  -3.2551840e-04  -1.3787938e-04   1.0658114e-04  -6.3652097e-04   4.1215584e-04  -3.9792297e-04   3.5223402e-06  -3.7850571e-04  -3.0273799e-04  -2.1881951e-04   4.5263310e-04  -1.5564710e-04   5.3309312e-04   1.4233036e-03  -2.5783587e-04  -1.0129300e-04  -3.7468615e-04  -3.9125874e-04  -3.5491664e-04  -6.1895279e-04  -3.6954219e-04  -2.1225587e-04   1.1178053e-05   4.6589429e-04  -2.4665709e-04   2.2042463e-05   9.5304000e-05  -2.9273186e-04   2.4656503e-05  -4.2832046e-04  -2.9746749e-04  -2.7914130e-04  -1.6795634e-06  -1.0686704e-04  -4.1297401e-04  -3.3912284e-04  -4.7250462e-04  -3.6981012e-04  -4.4365690e-04  -6.8771065e-04  -1.3049536e-04  -1.0264171e-03  -5.6685839e-04  -5.5125862e-04  -7.2698586e-04
  -1.1559096e-03  -1.0973969e-03  -7.3612441e-04  -6.4922811e-04  -6.5479241e-04  -6.5875117e-04  -6.0727610e-04  -1.2279495e-04  -8.5250923e-04   2.2683575e-04  -6.0044159e-04  -1.8394776e-04  -4.8796568e-04  -5.0617108e-04  -2.5294902e-04   2.4199793e-04  -2.3623754e-04   5.5235904e-04   3.2027491e-04  -1.6463341e-04  -5.8045989e-06  -3.2380479e-04  -4.0994625e-04  -2.6420550e-04  -9.1077214e-05  -2.7287574e-04  -5.9083108e-05  -9.5090236e-06   6.8020070e-04  -2.6371822e-04  -8.3250969e-05   3.4118275e-04  -8.5580286e-05   6.3347761e-05  -3.0083067e-04  -3.5566263e-05  -2.4571552e-04   3.2077919e-06   8.9093646e-06   1.8922355e-04  -1.3516487e-04  -2.4226113e-04  -2.0020267e-04  -4.2760279e-04  -6.4412813e-04   1.4928143e-04  -7.3928857e-04  -2.6535560e-04   6.0876185e-04  -1.3506094e-04
  -3.5382190e-04  -3.5821597e-04  -1.1524194e-04   6.4699903e-05  -2.2654966e-04  -2.8665777e-04   2.3498016e-05  -1.5194878e-05  -2.7564056e-03   4.6746511e-04  -3.2903141e-04   5.5966771e-05  -2.9845879e-04  -3.0758441e-04  -2.7760930e-04   3.3068587e-04  -1.0418150e-04   5.5550149e-04  -3.1237348e-03  -7.0541144e-05   2.4986957e-05  -2.0534005e-04  -1.9462076e-04  -3.1347637e-04  -1.9575212e-04  -7.5507897e-04  -7.6243930e-05   7.9433463e-05   6.2573858e-04  -2.4254815e-04  -1.1305920e-04   3.3815386e-04   2.1896651e-04   1.4215380e-04  -3.1379249e-04  -5.7222351e-04  -2.1786564e-04  -3.4019991e-05  -3.0753472e-05  -4.7496715e-04  -3.7197839e-04  -1.5335878e-04  -3.4268599e-04  -6.9000025e-04  -6.2470254e-04   1.0793769e-04  -7.5615768e-04  -5.4077810e-04  -2.8846457e-04  -2.1897680e-04
  -7.5896445e-04  -7.0435944e-04  -4.1819006e-04  -3.3160616e-04  -4.6317963e-04  -4.6824018e-04  -3.0200553e-04  -1.3746244e-04  -7.3181617e-04   2.5116379e-04  -4.6403968e-04  -3.2095188e-05  -4.1709928e-04  -4.2656102e-04  -1.7639050e-04   1.4995005e-04  -2.2329258e-04   6.2759040e-04  -1.0191894e-03  -3.9583625e-04  -1.8860072e-04  -4.2003609e-04  -3.9762561e-04  -4.5818920e-04  -3.6495368e-04  -3.1499073e-04  -2.1751101e-04  -1.1635979e-04   3.1580331e-04  -3.4127384e-04   3.0630955e-04   4.1089737e-04  -4.1234723e-04   1.1829232e-04  -4.6458180e-04  -6.9706887e-04  -3.2581887e-04  -1.0512018e-04  -2.6264804e-04  -4.4009311e-04  -7.6475623e-04  -7.8755006e-04  -4.9729267e-04  -8.1336842e-04  -6.2491721e-04   3.8990990e-04  -4.8693418e-04  -3.9054104e-04   7.7963399e-05  -2.6620794e-05
  -3.9457387e-04  -3.1579845e-04  -1.3790466e-04   5.1797913e-05  -2.1664702e-04  -2.9810710e-04  -8.9787118e-06  -8.3820378e-06  -1.7738980e-03   5.2212382e-04  -2.2890902e-04   1.5447401e-04  -2.4311047e-04  -2.6767957e-04  -2.8556501e-04   2.6834555e-04  -7.2861360e-05   3.3355923e-04   5.7599315e-04   7.8291778e-05   8.5554006e-05  -8.3340739e-05  -3.8183312e-04  -2.0559809e-04  -3.4390928e-04  -5.3303980e-04  -1.2444523e-04   1.0525483e-04   4.1887071e-04  -2.1644919e-04  -2.2284126e-05   1.3004224e-04   6.3006982e-04   3.4514169e-04  -2.8105974e-04  -4.3588734e-04  -3.9833560e-04  -1.1164950e-04  -9.5251533e-05  -3.2702732e-04  -4.0011795e-04  -3.4775512e-04  -3.0069449e-04  -5.6158967e-04  -6.7636278e-04  -5.0831423e-04  -4.1396910e-04  -3.0779885e-04  -1.2787909e-04  -3.7746679e-04
  -4.0912768e-04  -4.0879461e-04  -1.5729162e-04  -5.6842313e-05  -3.1466782e-04  -3.9794354e-04  -2.4096128e-04  -1.1668873e-04   4.1329183e-04   4.0367770e-04  -2.5895415e-04   7.4497868e-05  -2.4029329e-04  -2.9980880e-04  -2.6347378e-04   2.6607144e-04  -7.5896569e-05   6.0447940e-04  -2.5228006e-04  -2.5414611e-04  -1.0569289e-04  -3.8866274e-04  -3.1117667e-04  -3.6748161e-04  -2.1720892e-04  -2.7561869e-04  -1.6330245e-04   9.3711213e-05   4.5624209e-04  -2.2604373e-04  -1.5651976e-04   3.4173235e-04   1.4333609e-04   3.6081925e-04  -3.4513668e-04  -5.8995024e-04  -3.8914816e-04  -1.4955661e-04  -2.1989987e-04  -6.3240272e-04  -7.3497737e-04  -6.9381465e-04  -3.8973810e-04  -5.9169024e-04  -7.5169618e-04   2.4589602e-04  -7.9795148e-04  -5.9973600e-04  -5.8709347e-04  -4.3806361e-04
  -9.7341166e-04  -8.9833298e-04  -6.2891329e-04  -5.6811486e-04  -6.2568724e-04  -5.8499817e-04  -5.3113967e-04  -2.2772899e-04  -1.6052971e-03   4.0559631e-04  -3.2180076e-04   4.9702299e-05  -3.2146144e-04  -4.0622405e-04  -1.4202554e-04   2.4904666e-04  -9.7781362e-05   6.1059970e-04  -7.2901306e-04  -1.8903525e-05  -1.3552325e-05  -1.8903732e-04  -9.7852426e-05  -1.1312459e-04  -8.7624685e-05  -3.2433367e-04  -1.5808594e-04   4.2006483e-05   4.2696379e-04  -1.3308496e-04   6.4990879e-04   4.0122791e-04  -6.5547058e-05   3.6194047e-04  -1.6189556e-04   5.5121891e-05  -1.9088651e-04  -7.7524979e-05   1.3353885e-05   2.7243410e-05  -5.0284102e-04  -4.5333200e-04  -1.0937595e-04  -6.9729344e-04  -3.5488835e-04   4.5763620e-04  -2.2913338e-04  -1.1527081e-04  -2.4300003e-04  -4.2403273e-05
  -2.4655071e-04  -2.6377558e-04   1.9421583e-05   1.4034346e-04  -1.8361410e-04  -3.1083680e-04  -8.4556930e-05   1.0774545e-05  -1.0411696e-03   5.4175506e-04  -1.1027265e-04   2.4496578e-04  -1.3552011e-04  -2.0676060e-04   5.4565651e-05   5.7800830e-04   8.2663537e-05   7.0362375e-04   6.3799770e-04  -6.7046021e-05  -5.7639660e-05  -3.4374752e-04  -9.1817230e-05   6.3687148e-05  -2.1969325e-04  -8.9491739e-05  -8.0006277e-05   1.6175411e-04   6.7204569e-04  -9.3801005e-05   8.4461313e-04   6.6738913e-04   3.6307095e-04   5.0935417e-04  -1.4419762e-04  -7.7945588e-04  -3.2605208e-04  -4.6615682e-05  -1.6602962e-05  -3.3492851e-04  -5.2564970e-04  -4.6206487e-04  -2.0352460e-04  -3.0404326e-04  -1.2585074e-03   1.3969624e-05  -3.2668296e-04  -1.5115991e-04  -5.1930861e-04   1.5864981e-04
  -6.0243043e-04  -5.7162641e-04  -2.9299280e-04  -1.9660550e-04  -3.8976211e-04  -4.8765188e-04  -2.9708439e-04  -1.2902830e-05  -2.2466797e-03   2.7068387e-04  -2.6661615e-04   2.3966961e-05  -2.4950368e-04  -2.8465784e-04  -2.2544677e-04   5.0311279e-04  -3.3141318e-05   1.9701754e-04   9.8737387e-04  -2.1926215e-04  -2.2902014e-04  -3.8107982e-04  -2.6651248e-04  -2.4540219e-04  -2.2415780e-04  -4.1700766e-04  -1.2894529e-04   6.1985695e-05   4.7135871e-04  -1.7439539e-04   5.5431458e-04   5.0931581e-04   5.4891984e-04   2.4399273e-04  -1.9776016e-04   5.4673449e-04  -1.9831519e-04  -2.6782353e-05   5.8712478e-05   2.0034402e-04  -1.6098400e-04  -1.2729532e-04  -8.7097294e-05  -7.8170956e-04  -9.1264967e-04  -4.7727479e-04   1.4411776e-04   1.1333646e-04  -1.0726524e-03  -1.8120922e-04
   4.8810227e-05  -5.5879814e-06   2.8626621e-04   4.1729046e-04  -4.4714394e-05  -1.0298685e-04   2.1188424e-04   3.5375534e-04  -4.4523014e-04   6.3341728e-04   1.1428203e-04   4.0200126e-04   7.7420073e-06   5.0864419e-05   1.0991265e-04   8.9092465e-04   2.4085853e-04   1.1312220e-03  -7.2208676e-04   1.5023374e-04   2.3424367e-05  -2.0952197e-04   2.5717452e-05   2.1689617e-05  -1.0597651e-04   1.5560772e-04   1.7389022e-04   3.2208028e-04   5.8499340e-04   4.2547974e-05   1.9089285e-04   8.0758781e-04   6.1007793e-04   5.2561797e-04  -3.7321515e-05   3.0798864e-04  -1.7660839e-04   1.2240297e-04   1.3472454e-04  -4.2556509e-04   2.8011933e-05   2.3732431e-05   9.5892938e-06  -5.7108316e-04  -3.2309251e-04   1.3829838e-04  -5.1973038e-04   1.2137104e-04  -1.8446853e-04  -4.5149620e-05
  -1.4425009e-04  -1.5429695e-04   1.1248502e-04   2.4767901e-04  -1.3082068e-04  -2.6038146e-04   9.1905771e-05   2.8603271e-04  -8.3518331e-04   4.3912872e-04  -8.2730803e-06   2.0435415e-04  -6.9338057e-06   7.6590070e-05   1.5883007e-04   8.8030979e-04   1.7361181e-04   8.5297873e-04   9.8877435e-04   1.0992477e-04  -6.8446920e-05  -1.3090843e-04  -5.0867751e-05  -1.3106127e-04   1.9364934e-04   2.0429945e-04   2.1318825e-04   2.1538761e-04   7.1088446e-04  -5.7373927e-06   2.7446263e-04   4.9679802e-04   4.8606601e-04   4.2755925e-04  -9.8457836e-05   1.8632322e-04  -1.8341384e-04   1.3285290e-04  -5.2288811e-05  -3.3027164e-04  -3.0394891e-04  -3.3646723e-04  -1.2034766e-04  -6.4022647e-04  -6.0073769e-05   2.0082507e-04  -1.8221850e-04  -7.6736025e-05  -5.1224499e-04  -2.8639776e-04
  -2.6029520e-04  -2.4452485e-04   8.6073189e-05   2.4546293e-04  -4.4704240e-05  -1.9002320e-04   2.2319204e-04   2.3922238e-04  -2.0782276e-04   6.0967816e-04   1.3612589e-04   4.2924137e-04   1.8700266e-04   1.9804647e-04   2.5407146e-04   1.0674179e-03   3.0743945e-04   9.3148911e-04   1.3469999e-04   3.9235430e-04   1.5124754e-04  -1.7390956e-05   2.5914196e-04   2.0413712e-04   2.1884644e-04   5.2477826e-05   2.9888024e-04   3.4052780e-04   8.4498985e-04   8.1378537e-05   3.7858958e-05   6.9881597e-04   5.1761593e-04   6.0513261e-04   1.2507082e-04   3.7685846e-04  -5.5063170e-05   2.4760529e-04   1.8907657e-04   2.3275689e-04   1.2521616e-04   1.4280788e-04   2.0572239e-04  -2.1635916e-04  -7.6916323e-05  -5.6163084e-05   1.8724284e-04   3.6485755e-04   6.1101833e-04  -1.4363400e-04
   2.8753513e-04   1.8350079e-04   4.3013328e-04   5.6789414e-04   1.7016300e-04  -2.7452184e-06   4.0816193e-04   4.6427254e-04   6.0513825e-04   5.4306898e-04   1.9889337e-04   3.8047609e-04   2.8421450e-04   3.6105808e-04   2.6815871e-04   1.0819054e-03   3.6449314e-04   4.4556046e-04   4.8951979e-04   4.4521331e-04   1.2530199e-04   1.3583571e-04   1.1817355e-04   2.4644446e-04  -1.7138917e-05  -1.7804855e-04   2.4561008e-04   4.1432315e-04   7.1584177e-04   1.1430487e-04   6.2464748e-04   6.8868703e-04   8.4443454e-04   4.1866253e-04   1.0065165e-04   5.3446776e-05   7.5011280e-06   2.7052377e-04   7.6865217e-05  -2.0800243e-04   8.4415631e-05  -1.3869729e-04   8.2296479e-05  -9.2616981e-05  -3.4481604e-04   7.8186759e-04   2.1444685e-04   1.2311400e-04  -1.1148979e-03  -2.4200542e-04
  -1.3739990e-04  -1.8883214e-04   1.0205163e-04   1.2488864e-04  -8.8080706e-05  -1.7433206e-04  -5.6136043e-05   3.5449339e-04   8.8809157e-04   2.5965276e-04   1.2476658e-05   1.8460304e-04   8.5714732e-05   1.7961762e-04   2.2908332e-04   8.7492430e-04   2.5130986e-04   1.2407312e-03  -6.4103078e-04   2.4210830e-04   4.8415826e-05  -6.4994012e-05   2.3642617e-04   1.0808683e-05   2.3557383e-04  -6.3382584e-05   2.7560940e-04   3.1325201e-04   8.1602595e-04   6.8261666e-05   1.0117474e-04   6.2467920e-04   4.5532672e-04   5.1193300e-04   2.4492439e-04   1.9480311e-04  -1.1681810e-04   2.9152853e-04   2.2308365e-04   2.2157872e-04   6.3854546e-05   1.9883135e-04   2.1361193e-04  -4.1574609e-04  -8.6916545e-05  -4.5148376e-04   4.2189957e-04   3.6844032e-04  -1.0709879e-04   5.5813510e-04
   6.2567490e-04   4.5148825e-04   7.0694665e-04   8.0661615e-04   2.9303759e-04   2.3482539e-04   5.2468257e-04   5.7941221e-04  -2.8926937e-04   5.5422809e-04   2.8674191e-04   4.0764693e-04   3.9731615e-04   5.1356328e-04   3.9429509e-04   1.1341183e-03   4.6422982e-04   8.3989982e-04   1.6036854e-03   6.5494148e-04   2.2464003e-04   2.4659492e-04   4.4926626e-04   2.7620816e-04   1.3676097e-04   3.5842811e-04   3.5831024e-04   5.4637209e-04   6.5950444e-04   2.6518630e-04   8.5953635e-04   3.5912843e-04   1.1154165e-03   5.1504042e-04   3.2529377e-04   6.3189969e-04   1.4804796e-04   2.9952911e-04   3.8269130e-04   1.4047887e-05   2.4522009e-04  -1.5471354e-05   2.6945290e-04  -5.5149532e-05  -2.8011497e-04   5.3770881e-04   3.6968800e-04   4.2545889e-04   4.3413238e-04   1.6814697e-04
   2.7418742e-04   1.6606852e-04   4.8259957e-04   5.1370735e-04   1.4179527e-04   1.8732347e-04   2.6732584e-04   5.9005851e-04  -2.2737856e-04   3.5859711e-04   1.4616160e-04   2.9102265e-04   2.9530574e-04   4.3446518e-04   5.4611079e-04   1.0834979e-03   3.5546237e-04   9.9553866e-04  -6.1242434e-05   2.9199268e-04   1.6310831e-05   2.6581170e-05   2.3827571e-04   1.4986233e-04   4.3313590e-05   1.0470520e-04   2.6080586e-04   4.5068699e-04   7.3056022e-04   1.7459724e-04   2.1760132e-04   6.5686629e-04   6.0483452e-04   3.9480667e-04   1.4799883e-04   4.3914479e-04  -1.2929064e-04   1.9784298e-04   6.5974993e-05  -3.5351070e-04  -1.3423269e-04  -7.5645298e-06   5.5960500e-05  -6.6150259e-04   1.5607846e-04   1.1998756e-03  -3.5781649e-04   1.9478121e-04   2.5396119e-04  -3.3130395e-04
   1.0732473e-04   4.9968170e-05   3.8146248e-04   4.4136582e-04   1.5346002e-04   2.0845143e-04   3.9112411e-04   5.5757450e-04   1.4793188e-03   5.1134877e-04   2.5110252e-04   3.7410896e-04   3.7950525e-04   5.2391435e-04   5.0823693e-04   1.1884146e-03   4.2847684e-04   4.9675454e-04  -1.3195479e-04   6.5540668e-04   2.2945096e-04   2.3609934e-04   4.4287444e-04   1.9989713e-04   4.5027959e-04   3.7829127e-04   3.8962127e-04   6.5605936e-04   6.5490243e-04   3.4582819e-04   8.5700542e-04   4.4154545e-04   4.3786719e-04   6.4170099e-04   4.2874215e-04   9.2564983e-04   1.7143726e-04   2.1401753e-04   4.4236571e-04   2.6283338e-04   4.5279952e-04   3.8560980e-04   3.7706774e-04   2.5421751e-04  -4.8703994e-05   5.4420187e-05   4.7476692e-04   6.0481887e-04   4.8013279e-04   3.4817224e-04
   5.8811886e-04   4.0147477e-04   6.8285095e-04   7.3400204e-04   3.7937204e-04   3.7013143e-04   4.4405099e-04   7.6636003e-04  -1.0548134e-03   4.6010135e-04   2.8347198e-04   4.1860377e-04   4.9022632e-04   6.1826268e-04   5.5148202e-04   1.2633562e-03   4.8666229e-04   6.9838826e-04   9.6651951e-05   5.1124644e-04   1.3450711e-04   1.4098838e-04   4.2693468e-04   3.7054555e-04   3.4607539e-04   5.7219113e-05   4.9932924e-04   5.8986433e-04   8.1645860e-04   3.0844152e-04   4.6141635e-04   2.9113193e-04   7.2914525e-04   3.0421512e-04   3.5886420e-04   6.0171750e-04   1.3060808e-04   1.9924698e-04   2.3752826e-04   1.5155846e-04   4.5164308e-04   5.2538617e-05   1.8853717e-04   3.7994017e-04  -1.9268107e-05   3.9063796e-04  -6.2275518e-05   3.8867164e-04   3.5843172e-04   5.6693476e-04
   1.0959239e-04  -1.5863653e-06   2.7546004e-04   2.9191779e-04   8.5146778e-05   7.4956151e-05   2.1625395e-04   6.3658139e-04   1.2537102e-03   1.8251070e-04   5.4946435e-05   1.7117515e-04   2.5689389e-04   4.3704244e-04   6.0145825e-04   9.9494297e-04   2.7367109e-04   8.3280401e-04  -7.8869605e-04   1.5887539e-04  -7.3948606e-05  -1.4090884e-04   1.7430015e-04   4.4291297e-05   1.8401748e-04  -1.9277946e-05   2.4008173e-04   4.4879198e-04   6.6920696e-04   1.7786058e-04   4.3071853e-04   5.1298959e-04   1.0620521e-03   5.4695399e-04   3.1208049e-04   4.5027249e-05   1.1892762e-04   1.8734604e-04   3.0987899e-04   3.1469279e-04   4.7579245e-04   2.7848873e-04   2.6588258e-04  -8.4620428e-05  -2.1163120e-04   7.9317187e-04   3.4096546e-04   4.7566582e-04   2.1800657e-03   4.9005920e-04
   6.9120131e-04   5.2400603e-04   7.7661488e-04   8.5145276e-04   4.7589358e-04   4.4675395e-04   6.3978950e-04   8.0604100e-04  -2.3709364e-04   4.8057147e-04   2.7326046e-04   3.7480192e-04   4.7063356e-04   6.4556475e-04   4.4986201e-04   1.2009661e-03   4.3754661e-04   7.3426490e-04   1.2264679e-03   6.3849636e-04   2.2364128e-04   2.2083995e-04   4.9541146e-04   4.2133010e-04   3.5006029e-04   1.0898420e-04   2.6720978e-04   7.1664073e-04   5.9433567e-04   3.2399167e-04   2.9501281e-04   2.7261383e-04   9.3632611e-04   4.6183233e-04   5.3547748e-04   6.9916551e-04   1.5869914e-04   1.6524369e-04   3.4836380e-04   2.0229571e-04   4.5336774e-04  -5.9236777e-07   2.9936130e-04   7.5384043e-04   7.8424724e-05  -2.6816339e-05   1.3506667e-04   4.4943392e-04  -9.9045737e-04   6.9593737e-04
   4.8963621e-04   2.9616154e-04   5.7266909e-04   6.2478631e-04   3.3221746e-04   3.2166217e-04   4.5007016e-04   7.8069896e-04   6.3111482e-04   3.2294448e-04   1.6565734e-04   2.6729339e-04   4.5647990e-04   4.9005827e-04   4.8709544e-04   1.0207664e-03   3.6664304e-04   5.6959380e-04  -1.3742185e-03   3.3029026e-04   5.6943802e-05  -3.7660797e-05   3.3895060e-04   1.4419733e-04   1.2778018e-04  -4.3103029e-07   2.9307994e-04   4.0896022e-04   5.9874303e-04   2.6691295e-04   5.0332770e-04   4.2094334e-04   4.3718438e-04   4.3940861e-04   3.3110520e-04   9.7659031e-05   1.8466897e-04   1.9232913e-04   1.8218467e-04   1.2973325e-04   2.7457078e-05   3.4720710e-04   5.4196673e-05   2.1939943e-04   6.9049252e-05   4.3941935e-04   2.2698387e-05   5.8259000e-05   1.2629870e-03   8.5247017e-04
  -1.3443999e-06  -7.4247626e-05   2.4164349e-04   2.2292120e-04   1.5253350e-04   2.4776784e-04   1.5454456e-04   4.5871973e-04   8.2451547e-04   3.6968238e-04   1.3773752e-04   2.7537014e-04   4.3838227e-04   3.6821692e-04   4.6174321e-04   7.5530214e-04   3.3673880e-04   6.8848272e-04   1.0305427e-03   5.8355083e-04   2.5613670e-04   1.8717116e-04   5.4857758e-04   1.2833027e-04   2.3650759e-04   2.3483612e-04   4.9660151e-04   6.2723033e-04   6.4738235e-04   3.7542047e-04   3.8917843e-04   5.2403501e-04   3.9495141e-04   2.4145409e-04   5.9186405e-04   6.6866231e-04   4.5696602e-04   1.4770176e-04   3.6883671e-04   1.5167810e-04   3.5437330e-04   3.6383388e-04   2.3586118e-04   4.5054313e-04   5.7171308e-04   3.1391977e-04   1.8522861e-04   3.0196359e-04  -8.2963461e-04   7.7608402e-04
   7.5122516e-04   5.9484085e-04   8.5006875e-04   9.0591836e-04   5.7960348e-04   4.2070562e-04   4.7508519e-04   4.9706956e-04   4.8241942e-04   4.4493325e-04   2.8493270e-04   3.5818489e-04   5.2572408e-04   3.5216828e-04   4.0484557e-04   5.1763549e-04   4.5425002e-04   8.9717092e-04  -4.1795184e-04   4.8584092e-04   2.2597442e-04   1.1481874e-04   3.0614884e-04   2.0823625e-04   4.6301054e-04   2.0718727e-04   6.2742678e-04   3.8227407e-04   6.1972020e-04   3.6683420e-04  -6.7826208e-05   3.2837025e-04   9.7754737e-04   3.9557720e-04   6.0506153e-04   7.1082741e-04   4.0102503e-04   1.4383480e-04   1.9559098e-04  -6.4642387e-05   2.7241200e-04  -4.2166743e-05  -7.6916906e-05   3.3651601e-04   4.8001556e-04  -2.0627851e-04   6.0336421e-05  -1.8564822e-05  -1.4524806e-05   1.2545363e-04
   5.3469825e-04   3.7768076e-04   6.2865391e-04   6.1141455e-04   4.1707052e-04   9.1805159e-05   9.0728994e-05   9.5526957e-05  -7.3863275e-04   4.1346773e-04   1.1776244e-04   1.1182222e-04   3.6013630e-04  -7.5285490e-05   1.8206042e-04  -1.7401051e-04   2.7811030e-04   8.1747497e-04  -4.2980993e-03   2.8642931e-04   6.7311237e-05  -1.9413090e-04   2.2164801e-05  -2.2633783e-04   1.8553175e-04   3.0282434e-05   4.3763453e-04   7.1878683e-05   3.6786584e-04   2.5634459e-04   5.2210857e-05   3.3484842e-04   9.8400822e-05   2.3484201e-04   3.9883264e-04   6.2556681e-04   1.7916849e-04  -3.7637907e-05  -1.6225403e-04  -2.7900151e-04  -1.1819436e-04  -7.5430244e-06  -1.8172913e-04  -9.5382769e-05  -4.6219509e-05  -3.1245506e-04   7.3496558e-05   9.2309980e-05   1.1422583e-04   1.2968721e-04
   9.3275792e-04   7.1874418e-04   1.0075973e-03   1.0345115e-03   7.3943252e-04   3.4855714e-04   3.2873318e-04   1.9905524e-04   1.2074448e-03   7.0812390e-04   3.4745276e-04   3.8776055e-04   5.3415529e-04  -1.5283975e-05   5.5077366e-05  -1.9073067e-04   3.6073817e-04   3.2686774e-04   1.6755398e-03   5.5493828e-04   3.1842594e-04  -5.7874619e-05   3.3554455e-04  -7.8463643e-05   3.3585826e-04   2.8320827e-04   4.8078995e-04   2.1164415e-04   4.3839880e-04   3.4200374e-04   5.6976569e-04   3.5062915e-04   3.0943134e-04   2.2639082e-04   6.5711088e-04   1.8106923e-04   3.9062015e-04   4.4600674e-05   1.6776357e-04   2.2341333e-04   9.6252341e-05   1.9264953e-04  -8.0069221e-05   6.3246500e-04  -4.5600649e-05   1.7046195e-04  -2.7068937e-04  -7.0985348e-05  -5.8735278e-04   1.7875877e-04
   8.2016934e-04   6.1127159e-04   8.9769007e-04   8.5111504e-04   6.0112285e-04   2.2952155e-04   2.6438004e-04  -4.5533256e-05  -9.8461227e-04   5.4201408e-04   2.4881179e-04   2.8399026e-04   3.6627785e-04  -1.4047057e-04  -1.1345062e-05  -3.5026399e-04   1.9696253e-04   6.4995082e-04  -2.3415829e-03   2.6629909e-04   1.0792146e-04  -1.1952205e-04  -1.5803897e-05  -9.1907619e-05  -2.6216078e-06   4.3928027e-05   4.4147181e-04   3.1480478e-05   3.0125806e-04   2.5987739e-04   5.2452838e-04   3.7851377e-04   1.2819422e-04   1.1672376e-04   4.8660149e-04   6.0087891e-04   2.6001755e-04   5.8813224e-05  -6.6999055e-05   1.0702804e-04   1.2041092e-04  -1.5446852e-04  -2.7582704e-04  -5.7241672e-05  -1.4751006e-04  -2.3451545e-05  -1.8951081e-04  -3.1543899e-04  -3.8427523e-05  -4.7740372e-04
   2.1837825e-04   2.7048140e-05   3.2717513e-04   2.0702241e-04   2.2579044e-04  -5.8783648e-05  -2.9179105e-04  -1.6972654e-04  -9.2779729e-04   2.9058359e-04  -1.8264407e-05   3.5690693e-05   1.6550433e-04  -3.7609646e-04  -1.0549254e-04  -6.0203893e-04   3.1430256e-05   5.1394559e-04  -9.5131918e-04   1.5444391e-04   1.0846910e-04  -2.0814463e-04  -3.3085056e-05  -3.3523943e-04   5.8481219e-05   2.9768943e-04   3.2865879e-04  -3.5962508e-05   3.2243898e-04   1.5554819e-04   9.5028932e-05   2.5126897e-04  -9.1674287e-05   2.0345768e-05   5.0620694e-04   4.1315536e-04   3.2116394e-04   5.7431949e-05   8.1998754e-05   8.7671756e-04  -2.0298437e-04  -8.7514170e-05  -1.0717094e-04   2.8394704e-04   4.6899190e-04  -1.8086722e-04   1.5555901e-04  -1.4736911e-04   8.7093649e-04  -7.7815566e-06
   8.6597330e-04   6.6822069e-04   9.4967912e-04   8.8431191e-04   6.1687030e-04   2.1846838e-04   1.9475065e-04   1.8143839e-05  -7.7256333e-04   5.4971606e-04   1.9994048e-04   3.1565336e-04   3.1980200e-04  -1.8720723e-04  -2.3782148e-05  -5.1451282e-04   1.1464332e-04   5.1400464e-05   6.8031624e-04   2.2825508e-04   1.6594605e-04  -1.5646486e-04  -4.3795688e-05  -1.6017212e-04   3.7392154e-05   7.1510280e-05   3.8657631e-04   2.3788560e-05   3.1697727e-04   2.4058706e-04  -7.2525174e-05  -1.4135592e-04  -1.2362246e-05   1.4362688e-04   4.6442749e-04   5.1713636e-04   4.3168629e-04   2.9086346e-05   7.2938412e-05   1.5202997e-04   9.2355192e-05  -2.6692147e-04  -1.9972157e-04  -5.7674770e-05   5.1351916e-04   8.0042511e-05  -1.2842614e-04  -2.7757772e-04  -1.1682045e-03  -2.9934171e-04
   4.5312208e-04   2.7572137e-04   5.7475566e-04   4.9215113e-04   3.4036380e-04   5.6643054e-05  -9.4428498e-05  -1.5110931e-04  -4.1654333e-04   3.5721759e-04   1.7163346e-05   1.1016032e-04   1.2643311e-04  -3.9702910e-04  -2.4343801e-04  -7.6548447e-04  -2.7012695e-05  -1.5568131e-04  -8.4070070e-04  -1.2766822e-04  -1.8527569e-05  -2.6771074e-04   4.0736002e-05  -2.3106301e-04  -9.6958909e-05   2.4058195e-04   1.8621562e-05  -1.6537086e-04   1.7467656e-04   1.1718904e-04  -5.0227816e-04   3.3276996e-05  -7.1764465e-05  -4.0424977e-05   1.9278935e-04   3.0375901e-04   3.1579073e-04  -7.9545665e-05  -3.0842423e-04  -3.7202684e-04  -1.9287970e-04  -6.3179916e-04  -4.7183753e-04  -9.3359224e-05  -2.5793072e-04  -4.2669286e-04  -3.0349169e-05  -5.2681362e-04   7.8696455e-04  -4.8911199e-04
   2.5979234e-04   1.5016684e-04   4.5035395e-04   3.4902606e-04   3.7217545e-04   9.3287978e-05   2.2333785e-05  -8.5631807e-05   6.2143241e-05   4.8328727e-04   5.5930272e-05   2.2880477e-04   1.5511486e-04  -3.2058038e-04  -1.7915395e-04  -5.9567107e-04  -7.2290168e-05  -4.3922005e-04  -1.2492646e-03   5.2154672e-05   1.6968093e-04  -1.1110181e-04   1.5644610e-04  -8.5519416e-05   1.4799492e-05  -1.4021597e-04  -3.3103559e-05  -7.1402195e-05  -1.1705957e-05   8.9539477e-05  -1.4772997e-04  -4.1967566e-04  -1.6591130e-04  -6.8035559e-05   3.1138308e-04   4.2155889e-04   2.1398471e-04  -7.6858480e-05   1.5548206e-04  -3.2240441e-05  -3.2551220e-04  -1.4244279e-04  -1.3918483e-04   4.2552873e-04  -8.5003863e-05  -1.0334445e-04  -6.4740284e-06  -1.5194381e-04  -3.2647719e-04  -2.4648852e-04
   4.3594846e-04   3.0802915e-04   5.1322911e-04   4.7117900e-04   3.5792880e-04   1.1963138e-04   1.0204776e-04  -1.4883975e-04  -2.5761615e-06   4.3878178e-04  -1.2158197e-05   2.1394863e-04   7.2195478e-05  -2.8006584e-04  -1.1117959e-04  -5.8538187e-04  -1.6579068e-04  -3.7535696e-04   5.6755805e-04  -1.8652318e-04   5.1400915e-05  -2.1465906e-04  -4.2801490e-05  -1.7416752e-04  -1.6375860e-05  -1.6604479e-04   9.5894880e-05  -1.7745614e-04   1.7211394e-05   3.7056820e-05  -4.0764708e-04  -1.7214863e-04  -2.7724239e-04  -1.7532695e-05   1.0289943e-04   2.2800488e-04   1.1840490e-04  -6.1924344e-05  -4.4462795e-05   5.6600944e-05  -1.1792915e-04  -9.1814611e-04  -3.0173716e-04  -3.8148723e-05  -8.3425810e-05  -6.4199127e-04  -6.2597613e-04  -3.8582529e-04  -7.0660486e-04  -2.4972734e-04
  -2.1487956e-04  -2.3123634e-04  -4.3106564e-05  -9.3787661e-05  -4.1481933e-05  -1.8137378e-04  -3.2587390e-04  -4.1526655e-04   9.4843563e-04   1.4979046e-04  -2.6126421e-04  -6.2439212e-05  -1.6964295e-04  -5.7816564e-04  -4.7794473e-04  -7.4741320e-04  -3.5505116e-04   2.0398748e-04  -5.8168307e-04  -4.9973716e-04  -1.2506572e-04  -3.6855054e-04  -3.3331651e-04  -2.2277086e-04  -2.0776171e-04  -3.5057744e-04  -1.7477413e-04  -2.0645121e-04  -1.5521585e-04  -1.2705782e-04  -1.5160582e-03  -2.8130642e-04  -1.9076977e-05  -7.2649978e-05   7.0392976e-05   3.5768823e-04   2.1267681e-04  -1.0902198e-04   2.4814110e-05   8.4061372e-05  -2.8438779e-04  -1.7380026e-04  -1.4544904e-04   1.4992389e-04  -3.3064811e-05  -9.1450993e-04   4.5089098e-05  -1.3110240e-04   8.2666805e-04  -1.4087869e-04
   4.1872152e-04   2.5488692e-04   4.2168057e-04   4.1919982e-04   3.3013237e-04   1.7134113e-05   1.3704273e-04  -1.9705303e-04  -1.2919141e-03   4.7560644e-04  -3.0482412e-05   2.2657588e-04  -5.8532340e-05  -4.0877986e-04  -3.9255875e-04  -5.5941113e-04  -2.1896082e-04  -3.7631375e-04  -5.8402546e-04  -2.4508400e-04   9.0842841e-05  -2.0962933e-04  -6.6668203e-05  -7.5509568e-05  -1.8227825e-04   1.7654907e-05   2.7912787e-05  -2.4786257e-04  -5.2552263e-05  -7.4820353e-05  -7.5744488e-04  -6.9933732e-05  -4.2714190e-04  -2.7352427e-05   7.2882435e-06   9.2676707e-04   5.6589361e-05  -3.1323136e-05   9.4396921e-05  -2.4532976e-05   3.4026372e-05  -2.8692288e-04  -1.9498686e-04  -2.5523489e-04  -1.2189976e-04   4.5195804e-04  -2.7405084e-04  -2.6587950e-04  -3.2359190e-04  -4.6379431e-04
   2.2505383e-05  -6.7212219e-05   4.0893410e-05   7.6294658e-05   3.9453076e-05  -1.5852768e-04  -1.1941878e-04  -2.9788134e-04  -7.4383710e-04   3.0022848e-04  -1.9726777e-04   4.7827551e-05  -2.0977012e-04  -5.1070785e-04  -4.6136513e-04  -6.5623748e-04  -3.2356445e-04   2.0806765e-04  -8.1985439e-05  -3.7619931e-04  -6.7081695e-05  -3.3204263e-04  -3.2580586e-04  -4.1955689e-04  -4.6854944e-04  -2.3816696e-04  -1.6022874e-04  -3.8141405e-04  -1.7211640e-04  -2.0844491e-04  -4.0748424e-04  -3.8397886e-04  -7.7578204e-04  -1.6716415e-04  -2.0475873e-04   8.8952496e-05   9.5524985e-05  -8.1089223e-05  -2.5527750e-04  -5.0451065e-04  -4.1659331e-04  -5.2094512e-04  -4.1902642e-04   1.9944057e-06  -2.7215112e-05   5.7185563e-05  -2.2880125e-04  -4.6160302e-04   1.0185034e-03  -6.0771876e-05
  -9.3237344e-05  -1.2487420e-04   4.7544770e-05   8.6340857e-05   1.2323676e-04  -1.3637803e-04  -1.0067496e-04  -4.3829498e-04  -2.8283580e-04   5.0666032e-04  -8.0916201e-05   2.2604165e-04  -1.6935934e-04  -4.6765720e-04  -6.0582149e-04  -5.4439076e-04  -2.5163664e-04   1.3431099e-04  -8.2220376e-04  -1.8669950e-04   1.5907206e-04  -1.4917953e-04  -8.2746417e-05  -9.6509866e-05  -3.1948605e-04   1.0928167e-04  -1.5617706e-04  -3.8641450e-04   4.8882484e-06  -1.7981853e-04  -8.3624465e-05  -2.2361366e-04  -1.9407987e-04   8.6767111e-05  -1.4820405e-04  -3.7551165e-04  -1.5623031e-04  -2.5277041e-05  -8.7581218e-05   8.4736566e-06  -3.0597186e-04  -5.8003172e-04  -2.0350820e-04  -1.0177437e-04   1.4710819e-05  -7.5020758e-04   4.7815112e-05  -2.0376663e-04   1.0332094e-04  -5.9417106e-04
   1.2911414e-04   2.2153095e-06   1.1037917e-04   1.6602602e-04   1.1559617e-04  -1.3420099e-04  -1.4934242e-05  -4.2922315e-04  -7.3653174e-04   4.1381223e-04  -1.1309847e-04   1.7205614e-04  -2.4337559e-04  -5.2172487e-04  -3.9372841e-04  -6.1578670e-04  -2.7978921e-04  -2.0657371e-04  -1.3234987e-04  -3.0078640e-04   7.7753240e-05  -1.9850697e-04  -3.0446006e-04  -2.7030174e-04  -4.2024732e-04  -5.7423778e-04  -2.9523842e-05  -3.9890912e-04  -7.0988441e-05  -2.1556739e-04  -3.6738397e-04   1.5036603e-04  -6.0132402e-04  -2.3209926e-04  -2.6533415e-04  -6.8617973e-04  -2.2571785e-05  -8.8364504e-05  -2.6948701e-04   1.9977635e-05  -4.6348257e-04  -5.9390487e-04  -3.6189592e-04  -7.1706111e-04  -1.9766852e-04  -5.4842955e-04  -6.4953201e-04  -5.2179943e-04  -1.1933977e-04  -2.4198691e-04
  -5.2196992e-04  -5.2969350e-04  -3.8706229e-04  -4.1759390e-04  -2.8485677e-04  -4.0295772e-04  -4.6642352e-04  -6.2875508e-04  -4.7184018e-04   1.2020051e-04  -3.2863516e-04  -8.8693887e-05  -4.1999805e-04  -7.5825618e-04  -5.9364800e-04  -7.9533109e-04  -4.1240387e-04  -9.5146708e-05   9.3829079e-04  -4.1782932e-04   2.7509570e-05  -2.5172110e-04  -3.2329941e-04  -3.7474651e-04  -6.0661533e-04  -5.3977570e-04  -2.2613320e-04  -4.3365371e-04  -7.4429641e-05  -3.2408073e-04  -3.9074297e-05   8.3514642e-05  -4.8383907e-04  -1.1041684e-04  -2.9565874e-04  -2.9518647e-04  -1.9193358e-04  -8.2384700e-05  -1.1499688e-04  -1.7044570e-04  -1.9959659e-04   7.2241324e-05  -2.1601123e-04  -1.2427040e-04  -2.3881500e-04  -2.8334931e-04   2.9006414e-05  -2.4859258e-04   2.1903275e-04  -6.6252600e-04
   2.0960590e-04   1.0285072e-04   1.5278629e-04   2.3455141e-04   8.6129869e-05  -1.7606882e-04  -9.2037779e-05  -4.0495471e-04  -2.8603780e-04   4.4651516e-04  -5.5744593e-05   2.0171711e-04  -2.8388298e-04  -5.4866937e-04  -6.0862291e-04  -6.4217334e-04  -2.5115479e-04  -2.4493437e-04  -2.8305516e-05  -1.2904208e-04   2.0351079e-04  -4.2896052e-05  -3.6485202e-04  -1.6361701e-04  -5.8783323e-04  -7.9542537e-05  -6.1195060e-05  -3.2130801e-04  -1.6479577e-04  -2.3301852e-04  -3.1998666e-04  -2.5981566e-04   4.5798399e-04   2.1762889e-05  -3.7327519e-04  -2.4316533e-04  -2.3913287e-04  -7.7964993e-05  -1.1610546e-04  -2.4349360e-04  -4.9208687e-04  -2.7050235e-04  -2.7656983e-04  -6.8570662e-04  -1.7220801e-04  -6.9612887e-04  -1.2852452e-04  -2.5956790e-04   1.3552123e-04  -5.7033607e-04
  -2.3729693e-04  -2.6896608e-04  -1.7138376e-04  -1.5815273e-04  -1.8452365e-04  -3.9439657e-04  -3.9740317e-04  -6.1386800e-04  -2.3554523e-04   2.6101741e-04  -1.9530083e-04   8.0189107e-05  -3.5835936e-04  -6.6134526e-04  -4.8576872e-04  -7.2134804e-04  -3.3059414e-04  -1.7478310e-04  -4.9887190e-04  -4.2670820e-04   3.7324414e-06  -3.3419713e-04  -2.6156873e-04  -2.5922593e-04  -5.1802880e-04  -3.3791331e-04  -1.5346622e-04  -5.6906050e-04  -2.4716198e-04  -4.1566571e-04  -4.4835627e-04  -3.4379866e-04  -2.9452678e-04  -1.8441606e-04  -5.2468845e-04  -2.7560510e-04  -3.6679010e-04  -7.8435092e-05  -4.9768999e-04  -8.2224980e-04  -4.8477916e-04  -5.6731759e-04  -5.2701641e-04  -5.6020560e-04  -8.9352299e-04  -1.0271677e-03  -2.9127425e-04  -5.2170077e-04   1.2461523e-03  -5.4696319e-04
  -4.2230222e-06  -3.5954581e-05   3.9430681e-05   5.7487050e-05  -5.7562438e-06  -2.4417797e-04  -1.9549204e-04  -4.6325542e-04   6.5172935e-04   5.1404221e-04  -1.6260388e-05   2.6479253e-04  -2.6290043e-04  -5.9001608e-04  -4.1410816e-04  -6.0103479e-04  -2.0656642e-04  -2.3175002e-04   1.3755422e-04   1.7523822e-05   2.8593984e-04   4.5792967e-05  -1.5481372e-04  -5.3521024e-05  -3.3694028e-04  -3.0217689e-04  -9.3496412e-05  -3.5316753e-04  -2.6281289e-04  -2.9703966e-04  -1.2294648e-04  -1.1391706e-04  -2.1078096e-04  -4.4418197e-05  -3.4969818e-04  -3.3031229e-04  -1.9203260e-04  -9.4813979e-05  -2.4572172e-04  -3.2688517e-04  -2.1762123e-04  -3.1690570e-04  -2.3453786e-04   2.1946874e-04  -1.9008467e-05  -4.5162745e-04  -8.1139529e-05  -2.9918505e-04  -1.1050442e-03  -4.3445296e-04
   2.5824220e-05  -2.2981832e-05   6.3363710e-05   4.9008653e-05  -4.9101065e-05  -2.3281005e-04  -2.3866601e-04  -4.4201850e-04   4.5622593e-05   4.2978727e-04  -3.7410339e-06   1.8907318e-04  -2.3295997e-04  -5.6369783e-04  -6.5011717e-04  -6.1219238e-04  -2.0650377e-04  -1.5375926e-04   3.2030561e-04  -1.0229272e-04   1.5236696e-04  -8.2790975e-05  -3.5712769e-04  -2.3219867e-04  -3.9075126e-04  -2.6063720e-04  -1.9433253e-04  -4.4234953e-04  -9.4686788e-05  -3.4788239e-04  -7.1370782e-04  -2.3291510e-04  -3.5437141e-04  -5.1916948e-05  -4.5753704e-04   1.3310365e-04  -3.0045683e-04  -1.5888075e-04  -3.5767836e-04  -6.4597378e-04  -5.0089357e-04  -4.8148088e-04  -3.9435321e-04  -2.0183301e-04  -6.0866005e-04  -1.0603402e-04  -6.1241089e-04  -4.1843753e-04  -1.3803117e-03  -9.3635620e-04
  -5.2736141e-04  -5.1791279e-04  -4.8726454e-04  -4.9185584e-04  -4.2993249e-04  -5.1251863e-04  -5.7306571e-04  -7.4164331e-04  -1.9269153e-03   1.8294879e-04  -2.1074974e-04  -1.9466715e-05  -4.0235053e-04  -7.2321983e-04  -5.7863566e-04  -7.1766839e-04  -3.0170876e-04  -1.7908019e-04   8.3747145e-04  -1.2335600e-04   1.7005460e-04  -5.4940545e-05  -1.6706857e-04   8.5249179e-05  -1.9924458e-04  -3.1117341e-04  -1.3935489e-04  -3.9475152e-04  -4.9262806e-05  -3.5464298e-04   6.9681130e-04  -4.2188281e-04  -2.9879375e-04  -1.3605969e-05  -3.9341341e-04  -5.3331832e-04  -1.2107477e-04  -1.1665498e-04  -1.7464344e-04  -7.9646925e-05  -4.2271041e-04  -1.1079577e-04  -1.6453792e-04  -2.1420192e-04  -5.2082352e-04  -7.7656104e-04   5.9391517e-05  -1.3703434e-04  -1.3098388e-03  -7.5182691e-04
   2.2269929e-04   1.0356101e-04   1.2351279e-04   1.5498203e-04   2.5721318e-05  -1.8301624e-04  -1.2767101e-04  -3.9361362e-04  -1.5866399e-03   5.1897916e-04   1.4615181e-04   3.3098739e-04  -1.9013209e-04  -5.0607906e-04  -5.4692890e-04  -4.0892320e-04  -9.6236552e-05  -4.6801119e-04  -1.5491656e-03   1.1186595e-04   2.5833887e-04   3.1179799e-05  -1.1688848e-04   3.6468420e-05  -2.3207461e-04  -1.7678144e-04   2.5084959e-05  -2.9548712e-04  -1.2551004e-04  -3.0400080e-04  -3.8932962e-05   2.2662063e-04  -1.5874060e-04  -2.4252886e-05  -3.8976612e-04   4.8661997e-05  -3.7337476e-04  -8.7589346e-05  -1.6988099e-04   3.0419638e-05  -1.3368537e-04  -4.2879654e-04  -2.4905475e-04  -2.0049169e-04  -4.5853798e-04  -7.8076305e-04  -1.5373106e-04  -2.3367863e-04   4.6286499e-04  -3.8064038e-05
  -1.7752293e-04  -1.9428374e-04  -1.9918061e-04  -1.9006697e-04  -2.2318095e-04  -3.4709758e-04  -3.9395673e-04  -5.4706063e-04   3.4147120e-04   3.1964516e-04   2.0536418e-06   2.1658855e-04  -2.6493784e-04  -5.4606283e-04  -4.8027840e-04  -4.5448530e-04  -1.5362073e-04  -2.0183636e-04   3.4438455e-04  -1.4266423e-04   7.3657298e-05  -8.9957815e-05  -1.6633554e-04   2.2254677e-05  -1.6753213e-04  -1.4820967e-04  -3.0474155e-05  -3.5821254e-04  -2.5496789e-05  -3.9352934e-04   3.7925786e-06  -4.5461162e-05  -5.9087196e-04  -4.7995462e-05  -5.3228706e-04   3.2492244e-05  -3.7441327e-04  -6.1231396e-05  -6.0137693e-04  -4.2419904e-04  -6.8459834e-04  -3.6508255e-04  -3.4972472e-04  -1.1673625e-04  -9.3279821e-05  -2.3340397e-04   6.5682994e-05  -1.1861468e-04   1.0723822e-04  -7.1809086e-04
   2.4219927e-04   1.5204708e-04   1.1666906e-04   1.7211674e-04   1.2171726e-05  -2.0718681e-04  -8.1790698e-05  -2.6232071e-04   1.1477675e-03   5.7321601e-04   2.3856723e-04   4.1610896e-04  -9.2851107e-05  -3.3992500e-04  -2.6330975e-04  -2.4879887e-04   1.2417574e-05  -8.6471671e-05  -5.0857372e-04   2.7103399e-04   3.2235184e-04   1.5155325e-04   1.2871283e-04   6.0455892e-05   1.1327570e-04  -6.3919683e-06  -1.7422717e-05  -2.7242303e-04  -3.6055215e-05  -2.3755468e-04   9.7834411e-05  -5.3629206e-05  -3.2256090e-04   1.2838322e-04  -3.6301615e-04  -5.7963247e-04  -4.6396884e-04   1.0695306e-05  -2.9967510e-04   1.4169891e-04  -2.8465260e-04  -2.0721745e-04  -1.3797524e-04  -5.7410920e-04  -3.0129691e-04  -3.8979008e-04  -5.5298180e-05   6.9128197e-05  -7.0138311e-04   1.0263376e-04
   2.1003681e-04   1.4137619e-04   9.1730450e-05   1.2309031e-04  -5.4741962e-05  -2.5178067e-04  -7.6175609e-05  -3.8823529e-04  -5.5712991e-04   4.6810988e-04   2.0201503e-04   3.4491453e-04  -8.3091581e-05  -3.1850056e-04  -2.8871800e-04  -1.6800819e-04   5.4445689e-05  -2.9563310e-04   2.2318602e-05   1.6904842e-04   1.8578775e-04   6.2459389e-05   4.3245480e-05   1.4095218e-04   8.3351815e-06   2.6002986e-04  -1.5135440e-04  -2.5975725e-04  -9.6501419e-05  -3.0462618e-04  -2.2099372e-04   4.2322013e-04   2.6834221e-04   1.9950056e-04  -4.2786781e-04  -4.5734236e-04  -4.7037262e-04   6.5679928e-06  -3.4624824e-04  -3.4328099e-04  -3.3925488e-04  -3.6272695e-04  -2.3084543e-04  -9.2202716e-04  -4.4906425e-05  -2.6836680e-04   7.4744617e-05  -1.9751335e-04  -2.9352237e-04  -1.2322504e-04
  -3.7282336e-04  -3.3578873e-04  -3.3763447e-04  -3.8748360e-04  -3.5421332e-04  -4.6219197e-04  -4.8829010e-04  -4.8357219e-04  -3.6161687e-04   4.1368327e-04   1.0992101e-04   2.3817350e-04  -1.2972485e-04  -4.2843030e-04  -4.6348126e-04  -2.3097020e-04   1.5252308e-05   6.8565605e-05   2.3725429e-03   3.1871416e-04   2.6833286e-04   6.8747053e-05   5.8062407e-05   4.1080100e-05  -1.9702667e-04   7.6004450e-05   1.6447649e-04  -1.4855378e-04   9.4953512e-06  -2.2443643e-04   5.3996639e-04   2.7381565e-04  -5.5383702e-05   1.5080652e-04  -2.8494879e-04   1.5671802e-04  -6.0434878e-04   8.4591964e-05  -1.2668841e-04  -1.0931724e-06   1.5651692e-04  -1.0253674e-04  -1.9213379e-05   6.9043919e-05  -2.1190822e-04   1.4154994e-04   1.3335145e-04   1.3301082e-04  -5.6167148e-05  -1.8051660e-05
   3.2171755e-04   2.8218640e-04   2.7959232e-04   2.5314704e-04   3.9579762e-05  -1.2845699e-04   4.1836134e-05  -2.6940767e-04   8.9550304e-05   5.5500108e-04   3.3146009e-04   4.1185913e-04   3.0251087e-05  -1.7468345e-04  -9.8259334e-05   7.1514485e-05   1.7951122e-04   8.0872164e-04  -6.0661102e-04   3.6737445e-04   2.4669766e-04   8.7666253e-05   2.9470108e-04   1.5492644e-04   1.1258257e-04   2.4288939e-04   2.2362113e-04  -1.1993490e-04   1.7162149e-04  -2.0161946e-04   5.3078157e-04   7.4600648e-06   5.3669035e-04   4.5099872e-04  -3.3255774e-04   2.6499754e-04  -3.3023657e-04   1.0923504e-04  -2.1589463e-04  -3.0043682e-05  -7.1323593e-05  -3.3020979e-04  -6.1440856e-05   1.4236597e-04  -2.9498656e-04  -5.6516237e-06  -3.1302319e-04   4.4368109e-05  -7.5806759e-04   4.9613660e-05
  -8.7827131e-05  -6.8231428e-05  -1.0294119e-04  -1.3514294e-04  -2.0453654e-04  -2.6366347e-04  -2.6304103e-04  -2.6832349e-04   1.5495648e-03   3.1112463e-04   1.7091144e-04   2.4664938e-04  -7.9959180e-05  -3.0303089e-04  -2.2543874e-04   3.6339010e-05   7.7643199e-05   5.7979207e-04  -2.3741511e-04   1.0695696e-04   1.0810416e-05  -1.0954053e-04  -5.1060659e-05   1.5024023e-04  -1.1077732e-04  -1.3845459e-04   3.1030468e-05  -2.0103103e-04   7.5857315e-05  -2.8111163e-04   2.6991506e-04   3.7598665e-04  -6.7805398e-05   7.3867486e-05  -3.9507478e-04  -3.4988750e-04  -4.7439398e-04   1.0815465e-04  -4.5098420e-04  -5.7933427e-04  -1.2329766e-04  -2.2943522e-04  -1.3423800e-04  -2.6392241e-04   1.3164963e-04  -5.0180219e-04   5.1371992e-04   2.0226587e-05   5.8984169e-04  -1.3166675e-04
   3.4884762e-04   3.0854528e-04   2.5686779e-04   2.6472396e-04   3.0260067e-05  -1.0668781e-04   8.1953542e-05  -9.7092729e-05  -2.8756401e-04   5.9310067e-04   3.7405873e-04   4.0253758e-04   1.4331150e-04  -6.7292262e-05  -1.4478460e-04   3.2107832e-04   2.8195578e-04   2.4079978e-04  -1.0351592e-03   6.0535909e-04   2.7352310e-04   1.6519678e-04   2.2409394e-04   1.8789359e-04   1.0592754e-04   2.9873708e-04   5.1447019e-05   3.3678691e-05   1.8676129e-04  -1.0903837e-04  -6.1658502e-04   2.2363727e-04   4.6617244e-04   5.5301416e-04  -1.3428056e-04  -1.8689623e-04  -3.2467316e-04   1.7126695e-04  -1.4831539e-04  -4.1056985e-05   2.4132832e-04  -1.8993163e-05   8.5253865e-05  -2.4085715e-04  -4.5888766e-04  -3.3731293e-04   3.1404584e-04   4.0929427e-04  -7.6879177e-04   1.9828713e-04
   2.6938797e-04   2.4869197e-04   1.8427525e-04   2.1555219e-04  -3.3912445e-05  -1.1194299e-04   5.3410760e-05   4.7222460e-05  -5.4782629e-04   4.5699289e-04   3.9483653e-04   4.0221613e-04   1.4432531e-04  -3.5724337e-05  -3.9600873e-05   3.8623987e-04   3.0661278e-04  -1.0200474e-04  -3.8601464e-04   4.0089333e-04   1.3922539e-04   2.9285524e-05   8.8645953e-05   2.4934899e-04   9.8137250e-05   1.5945733e-04   7.3263429e-05   3.8743226e-05   1.7874165e-04  -1.1975507e-04   1.0445303e-03   5.8699289e-04   2.9420501e-04   2.9711681e-04  -2.4677685e-04  -4.0315150e-04  -3.8271549e-04   2.5370735e-04  -3.1268495e-04  -6.6346227e-04  -4.2292086e-04  -3.9689557e-04  -6.6152272e-05  -3.7409674e-04  -1.6323434e-05  -7.4910512e-04   7.6198092e-05   4.4475037e-05   1.9071766e-05  -2.6764694e-04
  -2.9170178e-04  -2.5699715e-04  -2.9721699e-04  -3.6219653e-04  -3.1441409e-04  -3.7970694e-04  -4.1210494e-04  -2.8686589e-04  -3.8694285e-04   3.1074637e-04   1.6231072e-04   2.0009832e-04   2.5437210e-05  -1.5684354e-04  -1.4546476e-04   3.0314233e-04   2.3226714e-04   5.8906095e-04  -3.1946914e-04   5.4535561e-04   2.1090571e-04   1.0155077e-04   1.6452769e-04   2.7132817e-04   1.4573571e-04   9.9607547e-05   4.5990429e-05   9.1389273e-05   9.9616882e-05  -9.7371769e-05   4.6127438e-04   1.8297145e-04   1.8110441e-05   6.3446420e-04  -1.1950152e-04   9.5800235e-05  -2.1172792e-04   2.3780181e-04  -6.6113338e-05  -8.8705390e-05   1.8895460e-04   1.3104752e-04   1.5660533e-04  -2.6566410e-04  -1.4446976e-04  -6.6476507e-04   1.5947377e-04   4.8154377e-04   2.1142038e-03   3.1796336e-04
   4.2744493e-04   3.8266004e-04   3.2862101e-04   3.5661971e-04   5.5669581e-05   2.7920376e-05   1.4104649e-04   1.1373799e-04   2.0111043e-03   5.0368422e-04   4.3284195e-04   3.7582588e-04   2.8560244e-04   1.2243861e-04   6.9574955e-05   5.3060713e-04   3.8696217e-04   3.1313015e-04   1.4512283e-03   6.2863325e-04   2.4707802e-04   2.2581825e-04   2.0756824e-04   1.8458016e-04   1.7764374e-04   2.3441589e-04   2.7091263e-04   1.3624811e-04   2.7936246e-04  -4.4363431e-05   6.2048802e-04   5.9641444e-04   4.4621984e-04   4.5089127e-04  -7.7462304e-05  -1.5673398e-04  -3.7273139e-04   2.8692547e-04  -1.6999798e-04  -3.5505797e-04   4.1007853e-04  -4.4161247e-06   4.5807257e-05   1.3015686e-04  -2.6750294e-04   4.1648772e-04   2.7024769e-04   2.7792031e-04   2.0036951e-04  -6.4586935e-04
  -1.4292650e-05   3.1152656e-05  -3.6672820e-05  -9.2324241e-05  -1.9487159e-04  -2.2322399e-04  -1.9981146e-04  -1.0136410e-04  -1.6770669e-04   2.8193410e-04   2.8520409e-04   2.9686076e-04   1.3732859e-04  -3.5035373e-05   7.4974436e-05   4.8574322e-04   3.1998919e-04   4.9012667e-04  -7.5843878e-04   9.8609897e-05  -1.3061825e-05  -3.1770929e-04   2.5483656e-05   1.3472562e-04  -1.7330854e-04  -1.5220628e-05   1.7212937e-04   2.2403055e-05   2.8607884e-04  -9.5273841e-05   1.2193790e-03   1.8158593e-04   4.6861835e-04   2.5188620e-04  -2.2517185e-04  -3.8378002e-04  -3.8478858e-04   1.8190905e-04  -2.9598703e-04  -9.1497734e-04  -9.6085159e-06  -2.5584712e-04  -1.1976507e-04  -2.4739138e-04  -8.0635100e-06  -1.5064544e-04   6.7922160e-06   3.5603091e-04   8.9732179e-04   3.5042362e-04
   2.7610041e-04   2.8702617e-04   1.9840623e-04   2.1795661e-04   3.1856634e-05  -1.0354324e-04   1.0924391e-04   7.1599956e-05  -2.9132620e-04   5.1785493e-04   4.5701678e-04   4.3899249e-04   3.2703488e-04   9.2953851e-05   5.3033127e-05   7.2217331e-04   4.0895844e-04   1.1124631e-03  -2.7224785e-04   5.6723360e-04   2.0392532e-04  -4.8039774e-06   1.6908528e-04   3.1617601e-04   1.6980576e-04   2.5798299e-05   1.9940054e-04   1.3783730e-04   2.9650712e-04   3.9342551e-05   1.1255245e-03   4.1544385e-04   1.0244548e-03   4.2879157e-04  -4.8225800e-05  -1.7967110e-04  -3.1485860e-04   1.8154313e-04   2.5320303e-05  -2.1164943e-04   3.9084477e-04   7.5559117e-05   1.0944953e-04   1.0417565e-04   2.4479787e-05  -6.7271257e-04   2.6076892e-04   4.0591060e-04  -3.5370787e-04   1.4285788e-04
   2.8631787e-04   2.7718526e-04   2.0037169e-04   1.6060154e-04   3.3342665e-05  -4.5218734e-05   1.3057966e-04   1.6174989e-04   1.1620991e-03   3.5503216e-04   3.9237330e-04   3.5808142e-04   2.5545090e-04   1.0746139e-04   1.7195412e-04   6.9042313e-04   3.8266677e-04   5.6595146e-04  -1.2060589e-03   4.9607869e-04   1.1823687e-04  -4.5208271e-05   2.6916826e-04   1.3234344e-04   2.2598632e-04   1.9549919e-04   1.6576596e-04   1.0395254e-04   2.0293496e-04   1.4548146e-05   9.3122327e-04   3.0694349e-04   3.2238054e-04   5.1563536e-04  -1.2235228e-04   1.5357957e-04  -3.4107489e-04   1.7312533e-04  -2.9478979e-04  -2.8638088e-04  -1.0399127e-04  -2.4695079e-05  -5.8495298e-05  -2.6125644e-04   6.5220789e-05  -1.0838765e-03   2.6134474e-05   2.1592504e-04   1.2718521e-03  -2.8873410e-04
  -2.5908483e-04  -1.7925995e-04  -2.8297494e-04  -3.1689613e-04  -2.5489263e-04  -2.4984908e-04  -3.1381682e-04  -1.1270535e-04   6.2060484e-04   1.6619233e-04   1.7433192e-04   1.6412861e-04   1.5233223e-04  -3.6749596e-05   1.9256589e-04   4.6156964e-04   3.2952227e-04   4.6473675e-04   7.0454617e-04   5.6175247e-04   2.0225834e-04   7.9498677e-05   2.5608164e-04   3.3402364e-04   1.6897940e-04   5.6966807e-04   3.2357176e-04   6.7464527e-05   4.0047165e-04  -5.5899862e-05   3.7054796e-04   1.6912600e-04   6.8080798e-04   5.6338165e-04   1.4194111e-07   6.2765750e-05  -3.7815917e-04   2.5571813e-04  -6.3607986e-05  -6.1800092e-05  -9.1112488e-05   1.7092317e-04   1.4339699e-04  -7.1261427e-04   1.1789214e-04   1.0077748e-04   3.9097233e-04   4.4502394e-04  -9.1275353e-05   2.4986826e-04
   3.9188913e-04   4.4218099e-04   2.5193696e-04   3.0285952e-04   1.5647264e-04   7.8447039e-05   2.5418701e-04   2.0638015e-04  -1.1141578e-04   3.7673829e-04   4.4046476e-04   3.9917196e-04   3.8456536e-04   2.0046505e-04   3.0659046e-04   6.0330052e-04   4.1907211e-04   5.9320929e-04  -2.3138663e-03   6.5673486e-04   2.4560356e-04   2.3346042e-04   3.4959576e-04   1.6792798e-04   2.9308192e-04   2.6054843e-04   3.2439796e-04   2.3104952e-04   9.5489682e-05   3.6325608e-05   5.4583169e-04   7.3639880e-04   9.9445391e-04   2.4788379e-04  -5.8362057e-06   2.2653441e-05  -2.2360965e-04   2.3977754e-04  -1.0642873e-04  -2.7584124e-04  -1.0244882e-04  -2.0731275e-04   2.8841914e-05   8.3262043e-05   1.2886296e-04   5.0623110e-04  -1.4139694e-04   2.8647031e-04   1.3326026e-04   3.2206438e-04
   4.9338891e-05   1.2362827e-04  -2.1437818e-05  -5.1420629e-05  -1.3802075e-05  -9.5180905e-05  -1.6533899e-05  -1.8076233e-05  -2.1859081e-04   1.5414631e-04   2.2929235e-04   2.0542528e-04   2.1545042e-04   6.6185385e-05   9.7085931e-06   4.3921650e-04   2.7674931e-04   3.7463801e-04   1.2601697e-04   3.1980671e-04   1.4623368e-05   3.8261260e-06  -3.6814232e-05   4.5635361e-06   4.9954084e-05   5.6443343e-05   1.4692202e-04   1.2688905e-05   9.6081494e-05  -1.2681000e-04   5.6830008e-04   4.3887505e-04   4.3332638e-04   3.0889205e-04  -1.4194768e-04  -5.7663980e-05  -3.2360241e-04   2.2313699e-04  -3.0509022e-04  -2.3961419e-04  -4.7235473e-05  -5.9360998e-05  -1.4086809e-05  -1.1735270e-04   5.5222630e-05   2.8409332e-04   2.4651029e-04   4.1250518e-04   4.9272983e-04   4.1459862e-04
   4.6784047e-04   5.0676352e-04   3.1148372e-04   3.8739812e-04   2.1837796e-04   1.3182647e-04   2.1453979e-04   1.8987613e-04  -1.6655972e-03   3.9973666e-04   4.7347698e-04   3.9857562e-04   4.2296498e-04   2.1695356e-04   3.1674851e-04   5.6372158e-04   4.3945105e-04   1.4716975e-04  -6.7188113e-04   6.2835746e-04   2.4214580e-04   2.1131034e-04   8.2695427e-05   2.0565122e-04   3.4707654e-04  -1.3094900e-04   2.1996126e-04   1.7792989e-04   2.1321954e-04   5.8725593e-05   5.0236139e-04   2.8558943e-04   6.1931973e-04   4.2789959e-04   8.9832647e-05   3.5684041e-04  -1.7243996e-04   2.5167505e-04  -1.6538955e-04  -4.3533629e-04   3.6857400e-05   3.7236820e-04   7.7771983e-05   4.6498358e-04  -1.8105893e-04  -6.8195420e-04   3.0380199e-04   3.5387583e-04   7.2596961e-04   5.1735702e-04
   3.0170009e-04   3.2737415e-04   1.3708562e-04   1.9336860e-04   9.8905432e-05   9.8644159e-05   1.1735590e-04   1.7943887e-04   5.6812062e-04   2.4223588e-04   3.4065559e-04   2.8100560e-04   3.0762461e-04   1.6625563e-04   2.8580509e-04   4.8632987e-04   3.6699625e-04   6.7697570e-04   4.3632174e-04   3.7516351e-04   7.1992436e-05   7.1910479e-05   1.1918966e-04   1.8117799e-04   4.1647037e-04   1.7485881e-04   3.0284419e-04   1.6218518e-04   1.7499106e-04  -1.9711346e-05   6.3283090e-04   5.5343477e-04   2.9127757e-04   2.7193583e-04  -3.3389701e-05   3.6015038e-04  -2.9865789e-04   2.5199750e-04  -3.1809928e-04   1.9573988e-06   1.3338974e-04  -2.5358514e-04  -9.4284500e-05   4.9980797e-05   8.1036567e-05  -8.8957592e-04   3.8071121e-05   7.3395437e-05   5.4752734e-04  -3.3297649e-04
  -2.9846191e-04  -1.8943404e-04  -3.2661838e-04  -3.3250827e-04  -1.7110381e-04  -1.5046440e-04  -3.1849937e-04  -1.0899152e-04  -4.6086198e-04   2.3421220e-04   2.3595971e-04   1.9246365e-04   2.4819671e-04   6.9254420e-05   1.2206775e-04   3.9559585e-04   3.4733393e-04   4.0325752e-04   9.8051154e-05   4.8673895e-04   2.0012859e-04   1.2900007e-04   2.5178507e-04   4.1797871e-04   2.8692430e-04   1.8002505e-04   1.4669039e-04   8.7945300e-05   1.8622077e-04  -2.4060604e-05   4.7051348e-04   2.9637147e-04   6.4501882e-07   3.0773028e-04   1.3655788e-04  -1.9398953e-04  -9.6314674e-05   3.0481120e-04  -7.7781311e-05   1.8148663e-04   2.8374649e-04   3.0507060e-04   1.7122003e-04  -2.3629944e-04   1.6588467e-04  -1.5696646e-04  -1.2422740e-04   2.7985204e-04   1.2491997e-03   9.2025992e-05
   3.9319712e-04   4.4459812e-04   2.7573033e-04   3.3349305e-04   1.9389614e-04   2.0350734e-04   3.2713151e-04   1.9779601e-04   1.2780332e-03   3.0106484e-04   3.8709951e-04   3.4091269e-04   3.7237658e-04   2.1844893e-04   3.5901778e-04   5.2132626e-04   4.0287265e-04   7.4666270e-05   4.7921328e-04   4.8050063e-04   1.7523950e-04   1.9051625e-04   1.9869678e-04   1.3943494e-04   1.3573194e-04   2.4437183e-04   3.2096080e-04   1.1626833e-04   1.8764252e-04   2.5509711e-05   7.9803175e-04   3.5235370e-04   4.3622844e-04   2.7971840e-04   9.9794765e-05  -5.7105877e-05  -2.0022955e-04   2.2383849e-04  -1.5937252e-04  -1.9032636e-04   9.1916896e-05   3.3307631e-05   2.5180974e-05   2.2749505e-04   6.1030703e-04   5.6621077e-04   2.4619023e-04   3.1420223e-05  -6.1291945e-04   1.0595744e-04
   2.2946695e-06   8.8262866e-05  -7.8684658e-05  -5.4062872e-05  -2.0993135e-05  -1.1006704e-05  -9.0967587e-05   6.5257016e-05  -2.4567495e-04   3.4933411e-05   1.7223947e-04   1.1125033e-04   1.9111605e-04   3.5829669e-06   6.0911996e-05   2.8156489e-04   2.4935184e-04   3.4652080e-04   9.8135194e-04   1.7288679e-04  -3.2198088e-05  -3.5013021e-05   7.3279087e-05   1.4873676e-04   4.4059474e-04  -6.3633357e-05   1.6803239e-04   2.6539767e-05   7.1602779e-05  -8.4841238e-05   3.9526471e-04   1.4874536e-04   6.7361347e-05   2.4766974e-05   6.4277215e-06   9.0548529e-05  -2.8073665e-04   1.6029499e-04  -2.7665592e-04  -2.7846309e-04   4.4306431e-05   2.3839911e-04   1.6168238e-07  -1.1588152e-04  -2.2092661e-04   1.8333796e-04   4.7921171e-04   2.3561086e-04  -7.4953714e-04  -1.1994818e-04
   5.3256907e-04   5.1845063e-04   3.4231169e-04   4.3140608e-04   2.5525410e-04   2.3589682e-04   2.5942299e-04   2.5694346e-04   1.5024549e-03   3.2177218e-04   3.9091654e-04   3.5021981e-04   3.4555528e-04   2.3983573e-04   4.4025612e-04   4.4913703e-04   3.6267331e-04  -1.5073780e-04   3.0432194e-03   5.3115794e-04   2.2510724e-04   1.9286918e-04   1.0454813e-04   2.1226730e-04   2.1541587e-04   1.5215929e-04   2.8797364e-04   9.1815607e-05   2.0863401e-04   3.7350033e-05  -1.3056589e-07   2.5393374e-04   9.2469651e-05   1.7391753e-04   1.9152263e-04   4.8101958e-04  -8.9262547e-05   2.1833654e-04  -6.4916050e-05   3.5402161e-04   1.3101178e-04  -8.7013377e-06   1.0956485e-04   8.4394153e-05   3.5592637e-04  -2.5357099e-04   1.8150838e-04   1.8656306e-04  -3.4536686e-04   3.4211745e-04
   3.1867824e-04   3.3166321e-04   1.3054942e-04   1.9171654e-04   1.9324679e-04   1.4742212e-04   1.2884314e-04   1.2866918e-04  -5.8611308e-04   1.4029499e-04   2.8392416e-04   1.9872653e-04   2.7427432e-04   1.5238894e-04   1.7404126e-04   3.1604199e-04   2.8056934e-04   5.6595175e-04   2.4077891e-04   3.3514632e-04   1.0715530e-04   1.6541849e-04   4.8000875e-05   2.0768354e-04   3.1569300e-04  -2.3602459e-05   8.5248772e-05   8.3490973e-05   5.6663292e-05   2.6986472e-05  -5.3071919e-05   1.8434810e-04   3.3694124e-04   1.7720145e-04   7.2111405e-05  -7.1054616e-05  -2.1152297e-04   8.8880806e-05  -2.9419301e-04  -1.8428334e-04  -1.6161299e-04  -3.2902212e-04  -1.0197586e-04  -5.6299544e-04  -3.9517591e-04  -4.3086198e-04   1.2384545e-05  -1.6052558e-04   1.8055974e-04  -1.9491147e-04
  -1.7473279e-04  -6.9657748e-05  -1.5917867e-04  -1.3428865e-04   6.4849577e-05   1.4752036e-05  -4.8526657e-05  -4.6954148e-05   1.4425704e-03   2.6599850e-04   3.1101226e-04   2.9594835e-04   2.4860119e-04   1.1178898e-04   1.2239731e-04   3.0977765e-04   2.8466049e-04   3.4961962e-05  -5.6900575e-05   4.8837805e-04   2.0661225e-04   1.8704472e-04   2.1641458e-04   3.0783867e-04   5.7163567e-04   2.2574568e-04   7.6069882e-05   1.2723604e-04   8.8021727e-05   5.9609029e-05   8.1558130e-04   1.4506164e-04   9.5566647e-05   3.0268551e-04   2.7807368e-04   2.0029886e-04  -8.0943704e-05   1.7616386e-04   1.4310729e-04   5.7045021e-04   1.3987401e-04   2.9530507e-04   1.3196982e-04   1.8393139e-04   7.7926881e-05   3.3115080e-04   3.0415386e-04   2.5055523e-04   1.0201442e-03   2.9279300e-04
   4.1651141e-04   4.0200620e-04   2.5460773e-04   3.4737732e-04   3.4374068e-04   2.4669591e-04   3.2030727e-04   1.5929698e-04   7.1731122e-04   2.3688118e-04   3.6402163e-04   3.2568708e-04   3.4817704e-04   2.0759870e-04   2.5113998e-04   3.5262541e-04   3.0530561e-04   9.9077624e-06   3.6881499e-03   3.8425814e-04   1.6813155e-04   1.7698396e-04   2.4901598e-04   2.2288901e-04   1.2599048e-04   8.5568732e-05   1.6069313e-04   1.0099848e-04   7.6776363e-05   1.7828510e-05   2.9813519e-04   1.4264615e-04   1.5141224e-04   1.2811557e-04   2.0818002e-04   3.1993117e-05  -2.1915261e-04   2.0176954e-04  -5.2956217e-05   1.0401853e-04   7.8363002e-05  -7.2851544e-05  -2.3019707e-05  -2.6686469e-04  -2.8213943e-05   4.1736104e-04   4.4310589e-05   1.4764235e-04   1.8485474e-03  -2.1239126e-04
   3.3827491e-06   4.4720815e-05  -1.1970243e-04  -7.5834447e-05   3.2263142e-05   1.0249985e-05  -6.9220558e-05   3.1302912e-05   6.9588551e-04  -2.7857788e-05   1.2824318e-04   9.5576564e-05   1.3726461e-04   3.9710529e-05  -6.2861451e-05   9.4746349e-05   1.2217718e-04   9.9811856e-05   6.4879481e-04   1.0072404e-04   1.1101197e-06  -2.2411012e-05  -3.4605342e-05   1.0135467e-05   9.8084434e-05  -1.1518379e-04   4.3161184e-05  -4.1999781e-05   1.0511329e-05  -6.9876507e-05   2.6241675e-04  -3.8162183e-05   4.7491712e-04   1.0754229e-04   1.7832080e-04   1.3336077e-04  -7.7446683e-05   2.1610600e-04  -9.4841213e-05   2.1053900e-04   1.3891021e-04   1.7012343e-04   1.3354070e-04   7.2085718e-04   1.4639433e-04  -3.6708091e-04   5.4141716e-04   3.8541792e-04  -7.3366013e-04   1.8119380e-04
   5.9567788e-04   5.1624223e-04   3.9501887e-04   4.8136077e-04   3.9194580e-04   2.8628064e-04   3.5266025e-04   1.7593181e-04   1.3276502e-03   2.2617473e-04   3.7813955e-04   2.8982430e-04   3.0144482e-04   1.9552247e-04   1.6571324e-04   3.1164745e-04   2.7343002e-04   2.0417008e-04   2.2081763e-03   3.4928758e-04   1.7491083e-04   2.0190349e-04   1.5281314e-04   1.3236245e-04   1.7488436e-04   2.6675605e-04   1.4926631e-04   8.8747125e-05  -2.9571134e-05   6.9615453e-05   3.2024705e-04   1.2003843e-04   3.4409220e-04   1.0160790e-04   3.1572551e-04   9.1846377e-05  -1.7981009e-04   2.3049088e-04   1.4412691e-04   1.6860648e-04   6.7457266e-05  -1.2392532e-04   8.3653991e-05   2.7251572e-04   3.0818713e-04  -9.6818415e-04   2.0984172e-04   1.7095028e-04   9.3522767e-04  -6.0482277e-04
   2.6013269e-04   2.0559320e-04   8.5194137e-05   1.4412873e-04   1.6123538e-04   1.4313406e-04   1.5098401e-04   1.0039065e-04   9.7935589e-04   5.2460869e-05   2.2180974e-04   1.6231945e-04   1.8220930e-04   4.0718834e-05   1.2253252e-04   1.8783554e-04   1.2900974e-04  -1.0359197e-04   1.1941807e-03   1.3593334e-04  -6.6487119e-06  -5.4207262e-06   6.8167370e-05  -9.8576587e-05   1.3929639e-04  -2.1924282e-04   1.8646274e-04  -3.0001087e-05   6.1113977e-05   1.2222557e-05   2.6952385e-04  -7.6326454e-05   1.3002682e-04   6.4415747e-07   1.4109963e-04  -1.4298303e-04  -1.8011138e-04   1.3563248e-04  -2.3112158e-04  -2.1253111e-04  -2.0213204e-04  -1.1915526e-04  -1.2838615e-04  -3.7475256e-04   2.6459442e-04  -4.4215765e-04  -3.4643861e-05  -9.1534552e-05  -4.2968710e-05   1.0246360e-04
   2.0206370e-04   1.7522938e-04   1.2416160e-04   1.8879877e-04   2.2861354e-04   2.3674265e-04   1.4055168e-04   1.2866882e-04   8.9789619e-04   2.3410449e-04   3.3490316e-04   2.6373845e-04   2.1424363e-04   1.2829190e-04   1.9862446e-04   2.5087318e-04   2.0137358e-04  -1.6386226e-04  -4.5712999e-04   3.8798412e-04   2.0372374e-04   2.9895114e-04   1.7445743e-04   1.1892408e-04  -1.6884795e-04   4.2825184e-05   2.1685926e-04   4.7885096e-05  -2.1107830e-05   1.1435847e-04  -3.7544302e-04   1.0102877e-04   4.0856175e-05   9.9013858e-05   3.5116286e-04   3.0232812e-04  -2.9421244e-05   2.0402957e-04   1.1894087e-04   1.2512576e-04   4.4020332e-04  -3.2235468e-05   1.2013543e-04   5.9333510e-05   2.8879428e-04   2.0105850e-04   4.5779420e-04   1.9609631e-04   1.1786050e-03  -1.3013923e-04
   5.1301147e-04   3.6707876e-04   3.0939496e-04   3.3749573e-04   3.0221607e-04   1.4396269e-04   2.6828286e-04   1.5654741e-04   1.1658266e-03   1.4779512e-04   3.4991108e-04   2.3261044e-04   1.6429285e-04   1.1577443e-04   4.9427850e-05   2.1128201e-04   1.8751326e-04   1.4162816e-04  -6.9364214e-05   2.3487820e-04   1.0410953e-04   1.8631891e-04  -2.1281907e-05   8.1290738e-05   1.6404397e-04  -8.5479514e-05   3.9373732e-05  -3.5247983e-06  -5.4507389e-05   8.1067388e-05   1.5333289e-04   1.1712388e-04  -9.0260561e-05   5.2163876e-05   2.8797259e-04  -2.3374948e-04   2.4039154e-04   1.7006582e-04  -8.5672284e-05  -2.8001500e-04  -6.6527733e-05   3.4642111e-05  -2.4328045e-05  -3.0794906e-04  -1.2650243e-05  -7.3556911e-04   2.7015389e-04   1.0102276e-05   3.1567422e-05   4.7354693e-05
  -1.0123949e-04  -9.2400180e-05  -1.4381291e-04  -1.5846059e-04   1.1575013e-05  -3.8312261e-05  -1.0843754e-04  -3.8212289e-05  -1.3011531e-03  -1.3866571e-04   7.8709389e-05  -1.3246899e-05  -2.5283518e-05  -1.3205738e-04  -1.6628516e-04  -4.8273767e-05  -1.4040686e-05   2.7059446e-04   3.1339319e-04   6.5979424e-05   5.9769438e-05   1.1677529e-04   2.0176027e-04   4.2416937e-06   5.9994381e-05   1.2807117e-06   1.0002103e-04  -9.7473188e-05  -3.7689548e-05   2.2164615e-05   5.3445977e-04   1.4965872e-04   2.0305812e-04   3.0812145e-05   2.8295815e-04  -1.4974587e-04  -6.2158115e-06   1.9164126e-04   3.0508985e-05   4.5383209e-04   3.6264482e-04   1.0848371e-04   1.5079445e-04  -3.8490369e-04   3.2295228e-04   8.1027759e-04   3.9535313e-05   1.3783138e-04   4.5945490e-04   4.1123055e-04
   5.9008220e-04   4.8228435e-04   4.1853543e-04   4.7312261e-04   3.6171734e-04   2.6855004e-04   2.9414543e-04   9.4605828e-05   3.8240119e-04   1.7445564e-04   3.8271351e-04   2.9022762e-04   1.6804322e-04   8.7745604e-05   2.2376498e-05   1.0863112e-04   1.4297884e-04  -4.4756371e-06   8.6947496e-04   2.7864333e-04   1.7830153e-04   2.7279591e-04  -2.4898740e-05   3.5131534e-04   4.5094406e-05   4.1373987e-05   1.6114369e-04  -3.6735448e-05  -1.0586098e-04   9.7594864e-05   1.3414212e-04  -3.0411370e-06   4.1775915e-04   7.7812023e-05   3.5390249e-04   3.7536566e-04   1.8444075e-04   1.6503135e-04   2.0064173e-04   9.9637517e-05   6.1773826e-05   1.4002546e-04   7.9629004e-05   2.0201465e-04   3.8979115e-04  -7.7687186e-04   1.7930704e-04   1.3422231e-04  -1.9235864e-04   2.3462115e-04
   2.5228708e-04   1.5791082e-04   7.4237883e-05   9.7719530e-05   1.0230490e-04   8.4175183e-05   1.6029633e-04  -5.4131433e-06   4.6260649e-04  -1.8863637e-05   2.4906688e-04   1.4025459e-04   3.4866622e-05  -5.6307414e-05   7.6375196e-05  -3.0748124e-05   6.9081752e-06  -1.8954152e-05  -9.9089160e-04   3.6469704e-05  -2.5029905e-07   1.1357277e-04  -1.6484309e-04  -6.4734479e-05   2.4816860e-04  -1.0487281e-04  -3.3290878e-05  -1.2366504e-04  -4.1186602e-05   1.4208422e-06  -4.7798132e-04  -1.8349332e-04   2.0224463e-04   1.7436478e-05   2.0294602e-04  -4.2844386e-04   1.2009458e-04   8.4672909e-05  -2.2094484e-04  -4.5543264e-05  -4.8892945e-04  -2.6883374e-04  -1.7903589e-04  -1.8633343e-04  -3.6950521e-05  -5.9076434e-04  -2.0465268e-04  -1.3435395e-04  -2.2571902e-04  -6.2113901e-04
   9.6126110e-05   1.2077078e-04   1.4561924e-04   1.5867724e-04   2.4364736e-04   1.3257792e-04   1.0243784e-04   4.7540707e-05   2.6628815e-04   1.5075383e-04   3.7265403e-04   2.6533936e-04   1.1010768e-04  -1.8155642e-06   2.1150441e-05  -1.3149319e-06   5.7355472e-05   1.2623510e-04  -5.7535479e-04   2.9292030e-04   2.0322329e-04   2.9313742e-04   1.5309702e-04   1.6203853e-04   6.2133426e-05  -1.7886327e-05   2.0212248e-04   2.3232371e-05  -1.2524433e-04   7.8304896e-05   4.9686525e-04  -1.7892449e-04   3.0651741e-04   1.2435052e-04   3.1474695e-04   1.2032478e-03   2.4592711e-04   1.3105843e-04   2.3196280e-04   3.1916724e-04   4.0021387e-04   1.9925332e-04   1.0069220e-04   2.2452601e-05   2.9917512e-04  -5.0228357e-04   1.7135516e-04   3.9604547e-05   7.5702206e-04   1.8651175e-04
   4.8619573e-04   3.3881038e-04   3.1396540e-04   2.9645977e-04   2.7747793e-04   2.1370134e-04   2.6444989e-04  -3.7670052e-05   1.2924625e-03   8.2491868e-05   3.7626707e-04   2.5829693e-04   1.1858361e-04  -2.5600611e-05  -8.1694197e-05  -2.6663582e-05   4.8619993e-05  -3.4295066e-05  -8.5282372e-04   1.6597370e-04   1.2415239e-04   2.4466819e-04  -1.3774875e-04   8.6274391e-05  -1.4209306e-04   9.7893710e-05   1.0426721e-04  -1.0860325e-04  -2.5209403e-05   7.7576922e-05   2.0553336e-04  -9.1720438e-05   6.8330736e-04  -1.0382196e-04   1.7348296e-04  -2.7485372e-04  -1.3722613e-05   9.0174144e-05   1.5218407e-05  -1.3218424e-05  -2.4250883e-04  -1.6008798e-04  -6.8376634e-05   1.0575738e-04   4.1483968e-04  -6.9941903e-05   3.4511668e-04  -6.7026638e-05   2.1530255e-03   1.7157064e-06
  -6.4373096e-05  -7.4729396e-05  -1.0513638e-04  -1.5847440e-04   4.2114848e-06  -5.2851759e-05  -1.1259125e-04  -1.3969102e-04   3.4672674e-04  -1.8498047e-04   1.3191419e-04   1.0309004e-05  -1.0680617e-04  -2.3847916e-04  -7.9465950e-05  -2.9246917e-04  -9.0618007e-05  -2.4649090e-04  -2.9764229e-03  -1.0710143e-04  -2.6742331e-05   2.8237306e-05  -1.4623970e-04  -1.1060302e-04   3.6691617e-05  -2.8058706e-05   4.7446822e-05  -1.4532152e-04  -4.9500140e-05  -3.6670630e-05  -7.8670237e-05  -3.1138849e-04  -2.9032095e-04  -3.3577478e-05   1.8534585e-04   8.4717869e-04   1.5441868e-04   9.7716911e-05   4.3916738e-05   1.5934715e-04  -1.3483435e-04   1.4637287e-04   1.0973105e-04   4.1858573e-04   1.5955529e-05   6.5682514e-04   3.2202108e-04   2.7469502e-04   7.6383492e-04  -8.5915533e-05
   6.0002896e-04   4.3392635e-04   4.0335418e-04   3.8791198e-04   3.6547033e-04   1.9384323e-04   2.7559523e-04   1.9943142e-05   1.1525903e-03   1.1145187e-04   3.8384830e-04   2.8306292e-04   5.4933189e-05  -4.8764377e-05  -4.1427302e-05  -1.0731304e-04   5.8237427e-05  -3.0586758e-04   4.1086652e-04   2.0161006e-04   1.4593620e-04   2.7924500e-04   1.0650448e-04   4.5179480e-05   2.0348378e-04   9.1528455e-05   2.3124108e-04  -1.0817387e-04  -6.9649868e-05   7.3814270e-05  -6.0113922e-05   1.3884385e-04   7.2079201e-05  -2.1850497e-05   1.9372541e-04   8.7379514e-05   5.0957980e-05   1.4112689e-04   1.5837226e-04   1.3379534e-04   1.6841685e-04   5.7729467e-05   4.0797382e-05   3.8314890e-04   4.6516047e-04   1.2337868e-03   4.2422103e-05   6.7824563e-05   1.1538387e-03  -3.4717476e-04
   2.5759029e-04   1.4338670e-04   1.1352755e-04   9.0395064e-05   1.0214150e-04   6.3284679e-05   4.1271302e-05  -1.2751528e-04  -1.3175805e-03  -5.9833488e-05   2.6018824e-04   1.1800893e-04  -3.6642276e-05  -1.9180095e-04  -2.3694402e-05  -1.6606886e-04  -5.0074985e-05   1.0643400e-04  -8.6819047e-05  -4.3950484e-05  -3.1629028e-05   1.0668048e-04   5.7905432e-05   1.5656305e-04  -1.4372754e-04  -2.8466975e-04  -3.0184761e-05  -1.9688753e-04  -1.3079503e-04   3.5795103e-05  -5.0871103e-04  -3.0896749e-04  -2.2093359e-04  -1.4414053e-04   2.3505589e-05  -9.2405309e-05   7.5163794e-06   5.7705452e-05  -3.9956762e-05  -2.0458605e-04  -1.0708861e-04  -1.8959829e-04  -1.7651217e-04   4.9224396e-05  -3.4216013e-05  -6.5803382e-04  -1.0303070e-04  -1.6119334e-04  -8.0447826e-05  -1.7775912e-04
   1.8214987e-05  -3.4376360e-05   1.9467607e-05  -2.9829567e-05   1.7264849e-04  -2.9307407e-06   4.4502780e-05  -1.3024383e-04   5.0474930e-04   8.9957750e-05   3.5248284e-04   2.4723154e-04   3.9945491e-05  -2.1466234e-04  -2.2919376e-04  -9.1137619e-05  -1.0551465e-05  -3.1605220e-04  -2.7745796e-04   1.9176389e-04   1.4107690e-04   2.7360293e-04   1.4971450e-04   6.3533116e-05  -1.2521255e-04   1.6151780e-05  -2.7280232e-05  -2.2981023e-04  -1.0422994e-04   6.0334503e-05   8.2178587e-05  -5.0594623e-04  -3.8534734e-05   1.3409361e-04   1.6244278e-04   6.4938089e-05   3.7284382e-04   1.0014721e-04   2.1101075e-04   5.3787771e-05   3.1958712e-04   2.5998466e-04   8.5193700e-05   1.1748344e-04   5.8369921e-04  -1.0453203e-03   2.8638370e-04   1.1758839e-04  -2.0087184e-04  -5.2253040e-04
   4.6124269e-04   3.2197477e-04   3.1433627e-04   2.9750876e-04   2.9172277e-04   1.6417750e-04   1.9809218e-04  -4.5346045e-05   1.5539930e-03   4.9952396e-05   3.5544674e-04   2.2225332e-04   2.3927249e-05  -1.3136723e-04  -1.7777138e-04  -1.2361089e-04   1.3075602e-05  -3.4798001e-04  -4.8611120e-05   1.0852826e-04   8.2649400e-05   1.9535240e-04   1.7558497e-04   1.1024854e-04  -1.6463756e-04   8.6850392e-05  -7.3143412e-05  -3.3354777e-04  -1.3584261e-04   3.8624461e-05   1.8501576e-04  -1.0534413e-04   2.4852943e-05   1.2896287e-05  -7.1978598e-06   8.4592990e-05   1.3670737e-04   6.3943655e-05  -3.8699691e-05  -6.6241017e-05  -1.3025572e-04  -5.6822123e-06  -7.2959396e-05  -1.1856386e-04   1.1032868e-04  -1.4708824e-04  -1.4150755e-06  -1.4478740e-05   1.4126117e-04  -4.2609076e-04
  -4.5541252e-05  -1.0070054e-04  -1.6692934e-04  -1.9589688e-04  -5.9314145e-05  -1.3602216e-04  -1.3700483e-04  -2.6640491e-04  -4.0400767e-04  -2.4183324e-04   1.1740657e-04  -1.8003318e-05  -1.4952164e-04  -3.2413943e-04  -3.7265435e-04  -3.3249287e-04  -1.5927105e-04  -1.0702522e-04   9.2186331e-04  -1.9767636e-04  -1.4876877e-04  -8.5289194e-06  -1.5096695e-04  -3.8121911e-05  -2.2788226e-04  -2.0513433e-05  -2.9680345e-05  -4.5376891e-04  -1.7439034e-04  -1.3240542e-04   2.6666350e-05  -1.1525908e-04   1.4715195e-04  -1.9761754e-04  -1.4178794e-04  -6.0218695e-04   1.0817499e-04   3.0954692e-05  -1.0592209e-04   3.9504477e-04   1.5029647e-05   3.4953562e-05  -1.9121042e-06   2.6828797e-05   2.3768481e-04  -1.5774262e-04   3.4446152e-06   1.3947317e-04  -9.5374533e-04  -1.3355129e-04
   5.5285217e-04   4.1243827e-04   3.8640716e-04   3.9271230e-04   2.9540810e-04   1.9307301e-04   2.6187816e-04  -8.4602827e-05   3.0884813e-04   7.2041184e-05   3.9921215e-04   2.6067966e-04   1.8127379e-05  -1.0699155e-04  -7.1997660e-05  -1.5429402e-04   2.6830125e-05   1.3690370e-05   2.2052726e-04   1.5954066e-04   1.0051346e-04   2.4241432e-04   9.1865426e-05   1.7227758e-04  -7.9214253e-05  -3.7292929e-04  -1.1075667e-04  -3.2081763e-04  -7.1938703e-05   2.1154350e-05  -4.2457841e-04  -2.5903886e-05   6.3374004e-04   6.0535716e-05  -3.9291608e-05   3.3320332e-05   3.1039152e-05  -1.5576610e-05   1.3517501e-04   3.1155293e-04   1.8415667e-04  -1.8411638e-04  -1.8471643e-06   3.3215253e-04   1.7146573e-04   2.4682941e-04  -3.6000514e-05   9.2709059e-05  -5.3496758e-04  -2.6662461e-04
   2.6588194e-04   1.7333783e-04   1.3468844e-04   9.3624309e-05   1.0976757e-04  -3.1695843e-05   8.8924957e-05  -1.4952877e-04   3.6976213e-04  -1.0750361e-04   2.4781658e-04   8.3052946e-05  -8.5339496e-05  -2.2872176e-04  -2.6559524e-04  -2.9801985e-04  -3.0650794e-05  -6.0645695e-04   2.1769488e-03  -1.5994057e-05  -1.5193107e-05   6.7326670e-05   1.1739357e-05   3.7879174e-05  -3.2122794e-04  -2.6549981e-06  -1.8841340e-05  -3.7820110e-04  -1.6603881e-04  -6.3371459e-05  -1.9103780e-05  -3.0560300e-04  -3.9528773e-04  -1.7939296e-04  -2.3883181e-04  -2.5014713e-04  -5.4403277e-05  -1.6128909e-04  -1.4650056e-04  -4.3973248e-04  -1.2472784e-04  -2.6878915e-04  -1.9751777e-04  -3.2864616e-04   1.7809535e-04   2.0201011e-05  -2.7606884e-04  -3.1077056e-04   3.6676991e-04  -1.8800594e-04
  -3.9079634e-04  -3.8852374e-04  -3.9857978e-04  -4.8085666e-04  -2.0420390e-04  -2.8689398e-04  -3.9007433e-04  -4.2056886e-04  -1.9871548e-03  -1.9335782e-04   3.8906237e-05  -3.8375812e-05  -1.6280673e-04  -4.4315279e-04  -3.5461932e-04  -4.2122055e-04  -1.1245466e-04  -4.8853428e-04   1.6085773e-03   8.8195899e-05   4.9003651e-05   1.3882658e-04  -9.2073853e-05   1.7056717e-04  -1.5009192e-04   8.9347552e-05  -7.6068245e-05  -4.0558781e-04  -1.9707464e-04  -5.7334717e-05  -4.0631312e-05  -4.5196922e-04  -9.5722178e-05  -1.1406070e-04  -9.2216680e-05  -3.8126938e-04  -5.7295631e-05  -1.2165285e-04   1.2513692e-04  -9.5754702e-05  -1.1133241e-04  -6.2555133e-05   2.4162964e-05  -3.9794490e-05   1.6450354e-04   4.4861512e-04   3.4046348e-04   6.2828338e-05  -1.1677647e-03  -3.4222510e-04
   4.0517969e-04   2.7423733e-04   2.2612838e-04   2.3278625e-04   1.7958533e-04   3.0741772e-05   9.9077275e-05  -1.8819144e-04  -7.8432163e-04  -7.2798881e-05   2.3310089e-04   1.2558489e-04  -3.5265775e-06  -2.1782846e-04  -2.2608563e-04  -3.1996399e-04  -4.7459471e-05  -4.5730956e-04  -1.0584845e-03   1.1793255e-04   6.0930084e-05   2.4160290e-04   1.7853035e-04   1.6384896e-04  -1.9255110e-04   6.4923312e-05  -1.5105974e-04  -3.6488476e-04  -1.7497006e-04  -3.8720427e-05   1.3113231e-04  -2.5275449e-04   3.9038120e-04  -1.3878688e-04  -2.2703396e-04  -5.2483403e-04  -2.6062042e-05  -1.7667707e-04  -7.3148934e-05   4.0923383e-05   3.0815274e-05  -2.7699152e-06  -9.0187052e-05   2.3888019e-04   4.2969994e-05  -4.5040622e-04   5.1785541e-05  -3.0446668e-05  -3.0018197e-04  -9.9705736e-05
  -8.1233557e-05  -7.5540433e-05  -1.4313463e-04  -1.7097811e-04  -1.0821112e-04  -1.4199816e-04  -1.4968442e-04  -2.6852338e-04  -7.8883691e-04  -3.1065318e-04   2.9640198e-05  -1.1569715e-04  -2.0871553e-04  -3.7011254e-04  -4.3550288e-04  -5.4252293e-04  -1.8892286e-04  -4.8448791e-04   3.0388399e-03  -1.8679742e-04  -1.5356876e-04   1.1669228e-05  -2.5984779e-04  -1.5637383e-05  -2.5655772e-04  -1.0833756e-05  -2.0560942e-04  -4.7179798e-04  -3.9757846e-04  -1.9528353e-04  -1.1426079e-04  -2.7527154e-04  -3.3137525e-04  -2.6270852e-04  -3.7652906e-04  -4.6125014e-04  -3.8514350e-04  -2.3463009e-04  -4.4909402e-04  -8.2829996e-04  -3.1721289e-04  -4.9069221e-04  -3.7215499e-04  -3.8921044e-04   1.7532181e-04  -5.5875041e-04  -1.5167378e-04  -2.6358306e-04  -4.9880509e-05  -2.3966840e-04
   1.7466836e-04   1.2768303e-04   4.7866157e-05   5.9368504e-05   1.0667605e-04  -9.0725887e-05   7.4813608e-05  -4.2758981e-04   1.8192555e-03  -9.5569980e-05   1.6549345e-04   5.2354495e-05  -8.5625579e-05  -3.0584005e-04  -4.3584840e-04  -4.5395040e-04  -1.0028601e-04  -2.5772830e-04  -3.7611542e-05   2.4920808e-05   3.2957720e-05   1.3904864e-04  -4.9376278e-05   1.3400216e-04  -2.4026709e-04   2.8040793e-04  -1.1592324e-04  -3.2726055e-04  -3.5665435e-04  -1.2873010e-04  -6.0125440e-06  -1.1956118e-04  -4.6316060e-04  -1.6477054e-04  -2.9400137e-04  -8.5873116e-04  -1.1418480e-04  -1.6906890e-04  -1.2237146e-04   1.8914672e-07   1.0588511e-04  -2.2185642e-04  -1.0296539e-04   7.6559321e-05   2.4956313e-04   9.0018270e-04   1.4409079e-05  -1.1076408e-04  -4.0664696e-04  -3.4897257e-05
   2.1514013e-04   1.6715724e-04   6.2421779e-05   7.9089063e-05   1.0991604e-04  -5.1639672e-05   4.5377150e-05  -3.5299271e-04   9.8768668e-04  -2.3672593e-04   8.5350366e-05  -4.7938003e-05  -1.2739029e-04  -2.9382674e-04  -2.6536389e-04  -5.9251662e-04  -1.2614243e-04  -6.1688648e-04  -1.2650290e-03  -1.7220915e-04  -8.3145656e-05   6.8515474e-05  -1.0439151e-04  -8.5079009e-05  -4.1269115e-04   2.7147381e-04  -2.6908249e-04  -4.3759707e-04  -2.3035759e-04  -2.2170515e-04  -6.1797706e-04  -1.0577980e-05  -5.7036168e-04  -1.5427087e-05  -3.8208297e-04  -1.6485289e-04  -1.7782552e-04  -2.1052748e-04  -3.4079433e-04  -6.9981383e-05  -1.4729024e-04  -6.3530351e-05  -2.6671146e-04  -3.7382205e-04   1.8724577e-04  -4.0287289e-04  -4.2574154e-04  -3.4528985e-04   3.4440318e-04  -5.9713924e-04
  -3.8397394e-04  -3.0984811e-04  -3.9635869e-04  -4.4827501e-04  -2.6102515e-04  -2.9225188e-04  -4.9311621e-04  -4.2850227e-04  -6.3988863e-04  -5.1079458e-04  -1.9254506e-04  -3.5066722e-04  -3.1953119e-04  -5.4470089e-04  -4.0929599e-04  -8.0083514e-04  -2.9653852e-04   8.3767272e-06  -6.0613407e-04  -2.8321406e-04  -1.0890017e-04  -2.1899317e-05  -1.3289133e-04  -8.5755564e-05  -2.1966211e-04   8.9119210e-05  -2.3870460e-04  -4.4703265e-04  -2.8189935e-04  -2.4308967e-04  -1.6337811e-04  -3.0094929e-04  -4.3025578e-04  -1.5885600e-04  -3.9910484e-04  -3.6887280e-04  -2.4223921e-04  -2.0734488e-04  -1.4965316e-04   1.3420974e-04  -8.9357003e-05   1.8322046e-04  -1.5332471e-04   2.8176277e-04  -6.6029585e-05  -1.3854465e-03   1.6102484e-04  -1.1817880e-04  -3.3110546e-04  -7.0704968e-04
   2.8633891e-04   2.7396088e-04   1.2935283e-04   1.9560060e-04   1.4632181e-04  -3.2878004e-06   6.1887869e-05  -3.4052526e-04   5.4418459e-04  -2.4370498e-04   1.5901485e-05  -1.3164881e-04  -1.5417246e-04  -3.5525742e-04  -3.6476675e-04  -6.3629053e-04  -1.4246654e-04  -5.7077850e-04   6.9065351e-04  -1.1858345e-04  -2.8060982e-05   6.1845632e-05  -2.1826992e-04   9.6540614e-05  -1.8543542e-04  -2.5969959e-04  -5.7261503e-05  -4.8986723e-04  -1.8277313e-04  -2.4906933e-04   1.3815022e-04  -2.6724089e-04  -1.2965694e-04  -3.2079942e-04  -3.8742166e-04  -1.8311113e-04  -2.8362311e-04  -2.2372304e-04  -2.9976561e-04   8.4757030e-06  -3.3199042e-04  -2.5523960e-04  -2.2550614e-04  -1.0689811e-04   2.4021896e-04  -6.2962726e-04  -1.0539483e-04  -3.6175182e-04   1.0712828e-03   2.2356593e-05
  -1.2357124e-04  -6.7032917e-05  -2.1510060e-04  -1.7689285e-04  -9.4027702e-05  -1.6086621e-04  -1.8515620e-04  -5.2065804e-04  -3.7205117e-04  -4.5904715e-04  -1.1180199e-04  -2.4438731e-04  -2.8936483e-04  -4.9775292e-04  -4.4321266e-04  -7.8949262e-04  -2.7202908e-04  -4.2480923e-04   3.7459307e-04  -4.1928492e-04  -2.2945019e-04  -8.6923348e-05  -4.0740761e-04  -2.0229604e-04  -3.2173406e-04  -2.0831155e-04  -3.3847135e-04  -5.9991353e-04  -2.8692425e-04  -3.6291665e-04  -7.5681135e-04  -6.0090597e-04  -2.9244440e-04  -4.1344331e-04  -5.7126820e-04  -7.3069654e-04  -3.1617359e-04  -2.5741349e-04  -5.8679795e-04  -4.4945951e-04  -4.9084163e-04  -6.6375983e-04  -4.4931000e-04  -8.2957977e-04   1.5585103e-05   1.7001465e-05  -5.1277119e-04  -6.2198221e-04  -1.3798181e-03  -1.6570935e-04
  -1.4584478e-04  -1.9038067e-05  -1.4586830e-04  -1.0515435e-04   5.1639294e-05  -6.4502572e-05  -1.0815863e-04  -5.5392389e-04  -5.0706683e-05  -2.7447179e-04  -2.8811573e-05  -1.6128331e-04  -1.8675602e-04  -3.9510184e-04  -3.2853635e-04  -7.3300960e-04  -1.8814385e-04  -3.4270820e-04  -6.3229323e-05  -1.4251366e-04  -4.4435783e-05   8.4739942e-05  -1.2870859e-04   7.0536982e-05  -5.8568275e-04   1.3252278e-04  -2.1115867e-04  -3.4741528e-04  -2.7363040e-04  -2.9681640e-04  -1.3339540e-05  -5.0672528e-04  -2.2509675e-04  -1.7245379e-04  -4.3737551e-04  -1.0912379e-03  -3.4673116e-04  -1.9344562e-04  -2.5597386e-04   1.0990925e-05  -3.6726892e-04   2.0509865e-04  -2.2396704e-04   1.9605644e-04   4.7670642e-04  -9.2025014e-04   3.5054973e-04  -4.0602518e-04   4.1826617e-04  -1.6827881e-04
   9.1941183e-05   1.4290366e-04  -4.6696263e-05   3.1825650e-05   9.5121562e-05  -2.8810451e-05   2.0430432e-05  -4.3304634e-04  -1.3888610e-05  -3.5719425e-04  -7.7076627e-05  -2.0704907e-04  -2.1471520e-04  -3.9305995e-04  -2.6719700e-04  -7.3638209e-04  -2.1866929e-04  -6.8483985e-04  -2.0720991e-03  -3.1989859e-04  -1.3949025e-04  -2.7485699e-05  -4.7989070e-04  -6.1002796e-05  -2.1691038e-04  -3.4104989e-05  -2.6903753e-04  -4.8775223e-04  -4.2913048e-04  -3.5891714e-04   9.8503930e-05  -3.6975660e-04  -4.7769459e-05  -4.6203294e-04  -5.2535109e-04  -7.4689079e-04  -3.8584461e-04  -2.5743665e-04  -4.6317594e-04  -6.8043888e-04  -3.8985375e-04  -4.7369167e-04  -3.6090563e-04  -7.5522781e-04   1.1471003e-04  -9.8790671e-04  -2.5700839e-04  -5.5926020e-04   2.3619104e-04  -4.1000242e-04
  -4.9398496e-04  -3.1713236e-04  -5.0863845e-04  -4.9578713e-04  -2.5739009e-04  -2.9197225e-04  -3.5942736e-04  -6.2919222e-04  -1.7063557e-03  -6.4143422e-04  -3.2730884e-04  -4.0916906e-04  -3.8683857e-04  -6.0237362e-04  -4.3115809e-04  -1.0394547e-03  -3.8857816e-04  -5.7672017e-04  -3.0328007e-04  -5.7049649e-04  -2.7498681e-04  -1.1909026e-04  -4.7998887e-04  -2.2207413e-04  -2.2581984e-04  -1.8239902e-04  -3.5419199e-04  -4.7386886e-04  -2.5426975e-04  -4.4136820e-04  -8.5389584e-05  -6.1963225e-04  -7.2884583e-04  -3.6446203e-04  -5.0744001e-04  -3.6766517e-04  -5.8733550e-04  -2.1197367e-04  -3.8131032e-04  -2.6844261e-04  -2.3589851e-04  -1.7889884e-04  -2.5814629e-04  -4.5317737e-04  -2.1102256e-04  -7.6054054e-04   1.3589370e-04  -2.4561191e-04  -1.0653897e-04  -2.9568258e-04
   2.1824276e-04   2.6345055e-04   6.3618128e-05   1.3147094e-04   1.4601163e-04  -1.0602103e-05   1.3533514e-04  -4.2064677e-04   3.0672515e-04  -3.4558828e-04  -9.0957830e-05  -2.3786009e-04  -1.9317032e-04  -4.0200964e-04  -2.6716539e-04  -8.5802877e-04  -2.2362889e-04  -8.3441357e-04  -2.3781804e-03  -3.3969845e-04  -9.4699026e-05   1.2975793e-05  -1.1891296e-04  -5.3754327e-05  -4.5666841e-04  -2.1350708e-04  -2.6440696e-04  -4.3293845e-04  -2.4615866e-04  -3.6070225e-04  -2.3072213e-04  -4.1745638e-04  -2.5104149e-04  -2.7907477e-04  -4.7019101e-04  -2.2736005e-04  -4.7916389e-04  -2.4446900e-04  -4.2869555e-04  -5.1263138e-04  -4.0746818e-06   1.3792606e-05  -3.1174580e-04  -4.9979848e-05  -3.7722223e-04  -1.6582552e-03  -2.1422956e-04  -5.4910639e-04  -1.3524102e-03  -3.4040146e-04
  -1.5647148e-04  -7.4490003e-05  -2.9371449e-04  -2.3648329e-04  -1.3997067e-04  -1.5205854e-04  -2.8471588e-04  -6.3539547e-04   4.2722633e-04  -5.2492827e-04  -2.3518613e-04  -3.4591326e-04  -3.6175855e-04  -5.2221894e-04  -3.2230010e-04  -9.4992376e-04  -3.2321890e-04  -1.0986440e-03  -9.9766499e-04  -6.0190738e-04  -3.0091539e-04  -1.8075957e-04  -2.9064433e-04  -2.8386695e-04  -3.0400595e-04  -1.5283519e-04  -3.8221152e-04  -4.8677437e-04  -4.1298044e-04  -4.2081915e-04  -1.1677383e-03  -3.9981070e-04  -8.5701555e-04  -5.4133538e-04  -6.5415236e-04  -7.5808557e-04  -6.0121843e-04  -2.9775579e-04  -6.5823592e-04  -5.0517631e-04  -4.9674994e-04  -6.0063973e-04  -5.4202217e-04  -2.8867350e-04  -6.4367941e-04  -2.6558572e-04  -7.0474739e-04  -7.1155891e-04   1.5298970e-03  -6.0786097e-04
  -3.0567709e-04  -1.5744678e-04  -3.4362701e-04  -2.6315887e-04  -5.2219038e-05  -1.3869588e-04  -9.1149683e-05  -5.4649566e-04  -1.4774869e-03  -3.4587731e-04  -1.3301783e-04  -2.2291292e-04  -3.1568456e-04  -4.9406418e-04  -3.7100431e-04  -8.6058635e-04  -2.9267068e-04  -5.6895387e-04  -5.2880868e-04  -3.5750071e-04  -1.1902035e-04  -3.2347907e-05  -2.1672004e-04   1.4264607e-05  -3.9506843e-04  -3.7780472e-05  -3.1038834e-04  -4.5900774e-04  -3.8320708e-04  -4.3391474e-04   6.1655919e-05  -4.8326878e-04  -6.1864342e-04  -2.9701280e-04  -4.5489508e-04  -8.0762984e-04  -7.4704847e-04  -1.8237924e-04  -4.0537817e-04  -4.3367429e-04  -3.3793447e-04  -4.1497813e-05  -2.7430430e-04  -4.4889838e-04  -7.5609639e-04  -7.6576200e-04  -5.9040754e-05  -4.5291119e-04  -9.7477506e-04  -8.9518633e-04
  -3.0779069e-05   8.0393220e-05  -1.3988938e-04  -8.3537612e-05   2.3474086e-05  -1.0655410e-04  -9.6724259e-05  -5.1205000e-04  -1.0928806e-03  -4.1422085e-04  -1.6394805e-04  -2.6811039e-04  -3.0351206e-04  -4.9004500e-04  -2.4346159e-04  -9.3164115e-04  -2.7621994e-04  -1.1002647e-03   1.9251477e-04  -4.8056926e-04  -2.1385918e-04  -3.8705639e-05  -3.7639958e-04  -1.0989468e-04  -4.7472693e-04  -3.2758171e-04  -2.9879549e-04  -4.2886275e-04  -3.0602093e-04  -4.8635970e-04  -1.1122859e-03  -6.7556713e-04  -5.4740906e-04  -4.1697221e-04  -5.6802662e-04  -4.5093446e-04  -7.8411080e-04  -2.5582561e-04  -5.6454929e-04  -4.1747323e-04  -4.4635503e-04  -3.7509666e-04  -4.8327548e-04   8.7568733e-05  -1.1359747e-04  -6.0347398e-04  -3.4294379e-04  -7.1273313e-04  -2.7002525e-04  -7.9580600e-04
  -5.6331622e-04  -3.6733763e-04  -5.7290518e-04  -5.4386520e-04  -3.2057933e-04  -3.1957185e-04  -5.0691032e-04  -6.3060160e-04  -8.7567535e-04  -6.6612358e-04  -3.6162819e-04  -5.0078379e-04  -4.9730774e-04  -6.7772059e-04  -5.8552058e-04  -1.1077104e-03  -4.3538705e-04  -5.8605714e-04  -1.7269228e-03  -5.3089904e-04  -2.1665255e-04  -8.2308012e-05  -1.2779393e-04  -2.0795809e-04  -3.4903912e-04  -3.0133201e-04  -3.8183000e-04  -5.2021153e-04  -2.9708960e-04  -4.9197202e-04  -5.2205380e-04  -3.1634385e-04  -6.5331213e-04  -2.0653116e-04  -5.1736378e-04  -3.6079285e-04  -7.7350548e-04  -1.9898223e-04  -5.0713209e-04  -5.4714340e-04   7.2865267e-05  -6.9442751e-05  -2.8267340e-04  -1.9396268e-04   4.2048792e-04  -9.0901466e-04   9.7812430e-05  -4.2240421e-04   9.2948339e-04   1.6465987e-04
   1.0737030e-04   1.7833573e-04  -6.0501996e-05   2.4737683e-05   2.4220319e-05  -9.4802868e-05  -1.1150196e-04  -5.4398848e-04  -8.1129756e-04  -3.6918020e-04  -1.3343297e-04  -1.9475017e-04  -2.9823885e-04  -4.6148873e-04  -5.0875306e-04  -9.0542162e-04  -2.9471653e-04  -9.4878796e-04  -2.6161040e-04  -3.8097499e-04  -1.4064732e-04   6.3345165e-06  -2.0975512e-04   6.7131543e-05  -2.9293713e-04   1.9068291e-04  -3.1629120e-04  -3.8453087e-04  -3.5704847e-04  -4.1380964e-04  -5.0674257e-04  -2.4471348e-04  -4.1118311e-04  -4.3948440e-04  -4.9028423e-04  -4.7007386e-04  -8.3116512e-04  -1.8487088e-04  -4.1960060e-04  -3.7333241e-04  -1.5076243e-04   9.4338124e-05  -3.7624469e-04  -9.0676898e-05   4.8232745e-05  -5.1180384e-04  -2.5906839e-04  -4.9039349e-04   7.3454820e-04  -2.6195848e-04
  -2.6638617e-04  -1.1106354e-04  -3.6607310e-04  -3.0209479e-04  -1.7879427e-04  -1.9049106e-04  -3.0156123e-04  -5.8696716e-04  -4.5398338e-04  -5.3751189e-04  -2.4772066e-04  -3.2281622e-04  -3.7260007e-04  -5.7115091e-04  -5.5876962e-04  -1.0273581e-03  -3.5775319e-04  -5.0712732e-04  -1.1790976e-03  -5.6766951e-04  -2.4136565e-04  -1.6718809e-04  -3.9332089e-04  -1.6576376e-04  -2.2158562e-04  -3.0046859e-04  -3.5328322e-04  -5.5943558e-04  -2.3837002e-04  -4.7239586e-04  -6.4816157e-04  -3.8083203e-04  -3.2546453e-05  -5.7927234e-04  -6.2086986e-04  -5.2695617e-04  -8.2443678e-04  -2.0614039e-04  -6.1933883e-04  -3.5676282e-04  -3.8681278e-04  -2.5377056e-04  -4.7221369e-04  -1.3036937e-04   8.1773214e-05  -2.7782429e-04   2.2694545e-05  -5.0941302e-04  -1.1198851e-04  -6.6570920e-04
   1.3032291e-04   2.6738324e-04   1.5800071e-05   7.5391901e-05   6.8458801e-05   2.0160154e-05   6.2074781e-05  -5.2863173e-04  -3.4584349e-04  -2.7234314e-04  -3.5655758e-05  -1.0910411e-04  -2.1442845e-04  -4.3255417e-04  -3.0868885e-04  -8.4762566e-04  -2.2991757e-04  -2.4691503e-04  -1.8404807e-03  -2.8603410e-04  -6.1315171e-05  -2.9769876e-06   1.4084214e-05   4.9494402e-06  -4.1274849e-04  -4.8276703e-05  -1.9816594e-04  -2.7164779e-04  -3.1582598e-04  -3.5275306e-04  -4.3255850e-04  -6.9960859e-04  -1.0630580e-03  -3.1844023e-04  -3.5283482e-04   2.0857385e-04  -7.5697055e-04  -9.9745586e-05  -4.5199582e-04  -4.7857399e-04  -3.2084002e-04  -2.6206195e-04  -2.9670188e-04  -3.9956855e-04  -1.3130793e-04   4.1864652e-04  -8.5266465e-06  -4.2424671e-04   1.1509942e-03  -5.6673493e-04
   1.0531621e-04   1.8495420e-04  -7.3989198e-05  -4.5004414e-05   3.4459565e-05  -1.1387723e-05  -9.8752927e-05  -4.4339432e-04  -6.0185208e-04  -3.6633186e-04  -4.1026735e-05  -1.3184665e-04  -2.4756993e-04  -4.3917759e-04  -9.4716655e-05  -8.7659608e-04  -2.6072271e-04  -7.7733275e-04   8.7670231e-04  -4.1659886e-04  -1.5694265e-04  -6.0162070e-05  -1.4456904e-04  -4.0864190e-05  -2.0742389e-04  -1.4026479e-04  -2.3419637e-04  -3.7679446e-04  -2.9328527e-04  -3.8630105e-04   4.8360977e-05  -1.3482179e-04  -3.4517463e-04  -1.7416509e-04  -4.9347954e-04  -1.1257645e-03  -8.7799138e-04  -1.3475683e-04  -4.7132344e-04  -2.4081166e-04  -3.9347520e-04  -2.8485275e-04  -4.6672911e-04  -3.8275190e-04  -1.7863140e-05   1.0217434e-04  -2.3617780e-04  -6.4586365e-04  -1.2372357e-03  -6.2672893e-04
  -4.3859097e-04  -2.5194488e-04  -4.9167156e-04  -5.0895114e-04  -2.5309779e-04  -2.3574370e-04  -2.7288188e-04  -6.5917295e-04  -3.1570284e-04  -2.8949484e-04  -5.0882922e-05  -1.3427026e-04  -2.3551747e-04  -4.3893504e-04  -1.5243370e-04  -8.4766810e-04  -2.3709539e-04  -7.2905578e-04  -1.8058268e-03  -1.8538244e-04  -1.5469670e-05   6.9901776e-05  -4.2567310e-05   1.9299652e-05  -2.6680430e-04  -1.1402407e-04  -1.6974093e-04  -2.0565605e-04  -3.8757839e-04  -3.1720143e-04  -9.3145896e-04  -6.0190336e-04  -6.2814046e-04  -2.9938176e-04  -2.8382917e-04  -6.8121275e-04  -5.8474700e-04  -5.6311470e-05  -3.8326636e-04   2.4267425e-05  -1.3460030e-04   1.8430426e-04  -1.8893644e-04  -1.9786297e-05   1.8725268e-04  -1.9317349e-04   1.2263708e-04  -2.8694197e-04  -3.4863054e-04  -5.2864011e-04
   3.4975086e-04   3.7974300e-04   1.1161497e-04   1.8257911e-04   1.7019753e-04   6.2659856e-05   1.0972184e-04  -4.1603658e-04   1.2769270e-03  -1.7727578e-04   1.6137706e-04   5.8730428e-05  -1.5204982e-04  -2.7159238e-04  -2.4387724e-04  -6.7161181e-04  -1.4368414e-04  -8.8460988e-04  -9.4786967e-04  -1.6496828e-04  -7.1148070e-06   1.7889160e-04  -6.4697218e-05  -1.6955449e-04  -3.2402546e-05  -8.5299835e-05  -1.5128312e-04  -2.8349319e-04  -2.5108832e-04  -3.0681523e-04   2.8587933e-04  -1.6351185e-05   2.7127124e-04  -2.3546041e-04  -2.4393812e-04  -7.6505175e-04  -6.6999410e-04  -6.4139727e-05  -3.3606461e-04  -1.9449639e-04  -9.4285220e-05  -1.1144672e-04  -2.8921885e-04   1.0993224e-04   1.0636554e-04  -1.0541058e-03   8.9247013e-05  -3.0294905e-04  -9.2744478e-05  -1.9208351e-04
   2.5922662e-05   6.8924179e-05  -2.1058426e-04  -1.8439493e-04  -7.3692223e-05  -8.8731547e-05  -2.0832106e-04  -4.5613170e-04  -9.5193402e-04  -3.9831959e-04   1.4339232e-05  -1.8838128e-04  -2.2775438e-04  -3.7582274e-04  -2.8050022e-04  -7.9767138e-04  -2.5224901e-04  -7.5660588e-04   1.6468167e-03  -3.5784274e-04  -1.7710247e-04   2.8509850e-05  -2.3636186e-04  -1.5192355e-04   1.7170771e-04   3.4957320e-06  -3.2302254e-04  -4.2829651e-04  -3.1469244e-04  -2.9694205e-04  -7.7457697e-04  -3.1585537e-04  -5.8953906e-04  -2.5701150e-04  -3.4864465e-04  -3.4889832e-04  -7.2892290e-04  -1.3212375e-04  -4.1474213e-04   3.0329172e-04  -5.9108814e-05  -2.5498690e-04  -2.3143976e-04  -5.3157198e-04   1.8685024e-04  -4.5662263e-04   4.6068986e-04  -2.4523953e-04  -6.2142726e-04  -2.3499010e-04
   5.1010813e-04   5.1040709e-04   2.3633199e-04   3.0273205e-04   2.3476167e-04   1.7991923e-04   2.6215866e-04  -1.5626979e-04   1.5444290e-04  -5.4545999e-05   3.4638966e-04   1.8927787e-04  -4.6004436e-07  -1.3224145e-04  -9.8188779e-05  -5.1535410e-04  -4.5286473e-05  -4.0805625e-04   3.3327570e-04   4.2487431e-05   3.9906747e-05   2.0774634e-04  -1.9047162e-05   1.2747823e-04  -2.3518538e-05   2.2632738e-04  -1.0208366e-04  -1.4523516e-04  -3.4230534e-04  -1.7582256e-04   5.7024605e-05  -2.1319521e-04   1.9764654e-04   3.9366059e-05  -1.0849567e-04  -1.9790858e-04  -3.3032516e-04  -1.1295190e-04  -1.3145831e-04   1.0400918e-04   3.9026691e-04   1.6249015e-04  -8.3010964e-06  -8.8422581e-05   5.6398421e-04  -1.5980135e-04   5.2439072e-04  -2.6626527e-05   1.1956074e-03  -9.2543742e-05
   4.6124455e-04   3.7642446e-04   1.9488171e-04   2.0578827e-04   1.3309962e-04   1.3235054e-04   1.3835676e-04  -3.7052089e-04   6.1520829e-04  -1.1078042e-04   3.0259826e-04   1.0671539e-04  -5.2927073e-05  -2.0224342e-04  -1.0579728e-04  -5.0441269e-04  -4.4278633e-05  -8.7722280e-04   3.1405731e-04  -1.3928155e-04  -1.4053995e-04   2.7258806e-05   7.9470330e-05   5.5078173e-05  -1.3401784e-04   5.2075091e-05  -1.6036663e-04  -1.7007868e-04  -2.7457674e-04  -2.0301489e-04   1.2826298e-04  -8.8541863e-05   8.2656901e-05   5.1901621e-05  -2.0496258e-04  -4.3289203e-04  -1.9244291e-04   2.2825043e-05  -3.5234806e-04  -3.0891306e-04  -1.1985840e-05  -1.3207814e-04  -1.5853501e-04  -5.4052798e-04  -7.8328208e-05  -5.5451551e-04   1.1194516e-04  -1.8177356e-04  -3.3198507e-04  -1.0833803e-04
  -1.6912456e-04  -1.2346129e-04  -2.5872755e-04  -2.9338215e-04  -1.2846763e-04  -8.5497646e-05  -1.3826159e-04  -4.4923255e-04   2.8668069e-06  -8.5618340e-05   2.5105927e-04   8.9628586e-05  -7.8389166e-05  -2.4100662e-04  -2.2478170e-04  -3.6059052e-04  -7.7703153e-05  -2.9547812e-04   1.2632868e-03   4.0500097e-05  -6.5105785e-05   6.3606574e-05   4.3164393e-05   1.9252161e-04  -1.2535004e-04   3.1793374e-04  -7.6098659e-05  -5.6882574e-05  -2.6628256e-04  -1.1106004e-04   1.2377185e-04  -8.7515728e-05  -5.5073627e-04  -1.5891285e-04  -1.4821776e-06   1.6872978e-05  -2.6068455e-04   2.2053922e-04  -9.2772272e-05  -1.9848068e-05   5.3492741e-04   3.2046507e-04   1.4766739e-04   2.4135012e-04   3.6681403e-04  -5.7820976e-04   2.7384484e-04   8.6713160e-05  -1.0888047e-03  -5.4252807e-05
   6.9139834e-04   5.5688334e-04   3.8728371e-04   4.1300574e-04   3.6401514e-04   2.4638069e-04   2.6960068e-04   1.3250624e-06   5.5799319e-04  -2.0713711e-05   3.7903173e-04   1.6063135e-04   9.8503340e-05   1.0199585e-05   1.4654653e-04  -1.8946466e-04   8.7560969e-05  -3.8523827e-04   9.9864311e-04   1.8574428e-04   3.9542614e-05   2.6378798e-04   9.6498901e-05   1.8748344e-04   1.7325570e-04   2.0113023e-04  -5.2144846e-05   4.1119500e-05  -2.6377750e-04  -5.8151592e-05  -2.3307283e-04  -1.0495832e-04  -2.2223720e-04  -2.3205812e-05  -2.3584424e-05   1.1655479e-04  -3.3860473e-04   9.1907577e-06  -3.4172929e-04  -6.9509188e-05   3.1988637e-04   1.2511479e-04   2.8327491e-05  -2.5265668e-05   2.0684052e-04   2.5499222e-04  -7.1458424e-05  -3.7902810e-05   5.7110394e-04  -1.0816642e-04
   2.6474471e-04   2.4032581e-04   4.7886180e-05  -1.7026125e-05   3.0659408e-05   1.1794816e-04  -4.0264404e-05  -6.9910195e-05   9.6008281e-04  -3.3323737e-04   1.6797667e-04  -4.7973914e-05  -2.1700147e-05  -9.2955561e-05   7.1144750e-05  -3.0882141e-04  -4.8650865e-05  -4.3219732e-04   2.6434267e-04  -6.4616594e-05  -1.3869177e-04   3.2018292e-05   3.5279438e-05   4.5597462e-05  -6.8541958e-05  -1.1339028e-04  -1.6349576e-04  -1.8097952e-04  -2.2189385e-04  -1.1162860e-04   6.1865823e-05  -3.1915613e-04   4.1906268e-04   1.2349797e-05  -5.5937191e-05  -2.5241176e-04  -6.1317463e-04   6.6999637e-05  -1.5078555e-04   4.8554479e-04   3.5429810e-04   3.3829038e-04   1.6857346e-04   7.9237419e-04   3.9181748e-04  -2.5563836e-04   4.9213297e-04   3.4236960e-04  -1.2167955e-03   4.4545039e-04
   8.1680482e-04   6.6335860e-04   4.5431659e-04   4.3965835e-04   3.4124777e-04   3.7220176e-04   4.1723211e-04   6.1643041e-05   1.3356664e-03  -7.1674469e-05   4.4677011e-04   1.7347887e-04   2.6897033e-04   1.7794572e-04   3.5397333e-04  -4.3824813e-05   1.4544903e-04  -5.5453356e-04  -1.0450342e-03   3.1228209e-04   8.9500551e-05   3.1996661e-04   4.1888017e-04   2.2987570e-04   2.1382625e-04   2.8453930e-04   5.2338233e-05   7.7587654e-05  -1.8520665e-04   4.4943507e-05   1.8889921e-04  -7.0799033e-05   1.6233117e-04  -7.4254363e-05   1.3452354e-04   3.7296448e-04  -3.1235712e-04   7.5092226e-05  -1.6464294e-04   3.8667899e-04   3.8892496e-04   3.1030574e-04   2.4435439e-04   3.6872827e-04   2.8856596e-04  -9.7807722e-05   2.6200005e-04   2.4835428e-04   1.5013436e-03   4.8076062e-04
