   1.2443140e-04  -5.3163268e-07   1.0661467e-04   1.5290293e-04   3.2831584e-05   5.9565715e-05   4.0435269e-05   8.7320084e-05  -1.0472832e-03  -1.2886374e-04   9.5348641e-06  -2.4071165e-05  -1.9642070e-05  -7.0358896e-05   2.0303903e-04   2.7973577e-04   7.9983738e-06   7.6757750e-04  -1.6455016e-04   6.6341709e-05  -3.4147739e-05  -2.4050549e-05   5.5489134e-05   7.6993660e-05  -1.0419751e-05  -2.3419289e-04   5.1424186e-06   7.5600212e-05   4.5586462e-04  -2.4299970e-05   7.5498124e-04   7.7854539e-04   6.4973196e-04  -2.2212127e-05  -1.9403478e-05   2.1955394e-04   3.4059619e-04   2.0653650e-04   8.8249464e-05  -6.4956293e-05   5.0975946e-06   1.8601492e-04  -4.0981136e-05  -2.6916125e-04   8.5710693e-05   5.8615790e-04  -1.6025407e-04  -2.3947106e-05   6.3391635e-05   7.5208931e-04
   1.0587522e-04  -7.3596948e-06   1.2338179e-04   1.4681545e-04   4.2232001e-05  -2.1848806e-05  -1.7062444e-05   2.3811107e-04  -3.0077153e-04  -1.3137126e-04   5.5185890e-05  -2.6261070e-05   1.5186153e-05  -7.3769479e-05   2.3373503e-04   3.4005073e-04  -1.0887532e-05   5.7072827e-04   2.6618969e-04   4.5353256e-05  -6.4707194e-05  -2.3637438e-05  -8.3826817e-05   1.1155750e-04  -1.2267038e-05  -3.6742300e-04   1.5658194e-04   8.8196306e-05   4.5757974e-04  -1.5201557e-05   4.3636907e-04   6.5927953e-04   1.5875097e-05   1.7912147e-05   1.0718833e-05   3.6410715e-05   4.5149538e-04   2.0765011e-04   1.0391064e-04  -5.5299632e-05   9.5221185e-05  -4.6866923e-04  -3.8999951e-05  -7.1830803e-04   1.0859022e-04   5.0422770e-04   1.6958779e-04  -1.9531488e-05   2.2408336e-03   5.1242555e-04
   1.6362983e-04   6.5058161e-06   1.0714513e-04   1.5948476e-04   8.4166182e-05   2.6094915e-05   7.1938310e-05   9.9548866e-05  -1.3650050e-03  -1.1066356e-04   3.9015409e-05   8.5561087e-06  -6.6349472e-05  -6.4654974e-05   1.7581797e-04   3.8978629e-04   3.4401321e-05   4.5695866e-04   4.9151958e-04   5.1567818e-05  -7.0650043e-05   5.7897312e-05   9.6071446e-05   1.3436275e-04   2.3246457e-05  -1.1982526e-04   1.7689423e-04   1.0145335e-04   4.3272044e-04  -3.0828633e-05   2.2683755e-04   5.3497800e-04   5.2866392e-04  -1.4443873e-04  -3.1172783e-06   5.2754622e-04   5.1139906e-04   2.2734884e-04   2.3188663e-04  -6.1730039e-05  -1.9232377e-04  -1.9429938e-04  -5.8641208e-06  -4.6238609e-04  -1.5740517e-04   1.2207751e-03  -6.0226532e-05  -9.8015507e-06   1.6775993e-03   5.1542197e-04
   1.4519488e-04  -6.3621551e-06   9.2901224e-05   1.4126206e-04   4.8169379e-05   3.5349556e-05   1.6224280e-04   1.9523538e-04   7.5259845e-04  -1.3722082e-04   3.8386639e-05  -9.6320690e-08  -5.6405470e-06  -4.1628711e-05   5.0934417e-05   4.2492821e-04   2.7596623e-05   5.8913504e-04   2.1327297e-04   5.5837874e-05  -9.0424219e-05  -1.7966287e-05  -5.8743455e-05   9.7479220e-05  -6.4720822e-05  -2.2134461e-04   4.4104003e-05   9.3032584e-05   4.0545186e-04  -2.4841884e-05   5.5643084e-04   3.7424226e-04   2.8119472e-04   1.7510963e-04  -3.3440538e-05  -3.7321262e-04   5.7446660e-04   1.9593452e-04   2.2354854e-04  -2.1839919e-04  -2.8825633e-04  -3.3420880e-04  -3.0727326e-06  -2.9999809e-04  -1.6195429e-04   6.6894386e-04   2.3211131e-04  -7.1539139e-06   1.5387447e-03   3.5704949e-04
   1.0057260e-04  -1.0926287e-05   1.1053812e-04   1.3761129e-04   5.7405654e-05  -7.1743648e-06   4.0397987e-05   1.3947353e-04  -5.5307877e-04  -1.3663020e-04   3.1062689e-05   3.6795191e-05  -1.1148645e-05  -1.0641635e-06   1.4680177e-04   4.5937722e-04  -1.1185368e-05   7.2561734e-04   2.2396483e-04   7.0540707e-05  -7.6050645e-05  -9.8391592e-06   9.2799404e-05   2.4021450e-04   1.7149591e-04  -2.5792784e-04  -4.0806157e-05   1.1060527e-04   4.1505118e-04  -2.0230420e-05   3.1679581e-04   6.8246876e-04   1.9787795e-04  -2.1850214e-04  -5.3418975e-05  -6.4091466e-04   3.0501987e-04   2.1276326e-04   1.6990934e-04  -4.3511158e-05  -1.1824122e-04   1.7561266e-04  -5.3298709e-07  -4.3942998e-04  -7.8589066e-05   1.8317689e-03   3.9712898e-04   1.0173779e-05   1.6880743e-03   7.1857916e-04
   1.3663321e-04   6.1410674e-06   8.8347508e-05   1.5544653e-04   5.9390291e-05   1.6357895e-05   8.4036015e-05   1.8007265e-04   8.3289016e-04  -1.5311142e-04   4.0884323e-05   1.7830989e-05  -2.9830329e-05   2.5586462e-05   1.2494760e-04   4.7565441e-04   3.9360242e-05   5.0040719e-04   3.3702300e-04   7.7176279e-05  -1.2277479e-04   3.0602921e-05   6.6580178e-05   1.8849337e-04  -1.4485026e-04  -1.5216779e-05   1.4692791e-04   2.3575072e-05   3.3305382e-04   3.8997700e-06   4.6519359e-04   3.8459004e-04   4.2861831e-04  -5.5354132e-05   3.3928893e-05  -3.7257698e-05   2.2629909e-04   1.0967728e-04   3.2970018e-04   1.6724625e-05   2.3346052e-04   1.4063703e-04   3.7376238e-05   9.8333061e-05   3.5138664e-04   9.6161122e-04  -1.7995395e-04   4.4600398e-05   1.0652188e-03   2.7576508e-04
   1.5029740e-04  -1.5314976e-05   1.1976557e-04   1.1966985e-04   7.3939089e-05   4.5557739e-05   8.4471292e-05   2.2893165e-04  -4.3244517e-04  -1.5742058e-04   3.8416652e-05  -3.3046312e-05  -3.4339198e-05   6.2275081e-05   1.3269705e-04   5.3134642e-04   3.8669361e-05   1.3095988e-03   1.0825503e-03   9.3537194e-05  -9.8216187e-05   5.0973900e-05   6.9302703e-05   2.7059275e-04  -1.9113101e-04  -2.4530984e-04   2.2748242e-04   1.0856566e-04   3.4552414e-04  -1.1412776e-05  -8.1977880e-05   3.2306332e-04   4.5565135e-05   7.1167349e-05   1.1951280e-05  -7.8345009e-05   1.4312557e-04   9.9585610e-05   2.6106838e-05  -1.0855213e-04   1.1455290e-05  -6.9620757e-05   4.2546428e-05  -1.7428209e-04  -3.9227592e-04   4.9223035e-04  -2.5008369e-04  -1.0506551e-05  -6.4350467e-04   6.4595597e-04
   1.1611271e-04  -1.0553278e-05   9.8798519e-05   1.4372374e-04   6.0127019e-05   5.2425377e-05   1.3312256e-04   1.8436376e-04   9.8224112e-04  -1.4535541e-04   6.9846581e-05  -9.9262477e-05   1.4602031e-05   6.6670509e-05  -2.1412718e-05   5.6683319e-04   5.3426942e-05   1.1246012e-04   4.9990340e-04   1.5543994e-04  -5.7956859e-05   1.4125125e-05   1.7337734e-04  -1.8611325e-05   3.8126673e-05  -3.5640554e-04   1.5660706e-04   7.0159636e-05   3.6967947e-04  -1.8646313e-05   1.6372555e-04   2.8578629e-04   1.8732926e-04   1.3905967e-04  -8.7540120e-06   7.2066861e-05   1.7990659e-04   1.1920593e-04   2.8327017e-04  -2.5429303e-04   9.3990398e-05  -2.4963755e-04   5.9814167e-05  -1.5786962e-04   1.6267340e-04   1.3772600e-03  -6.5465072e-05   1.1993095e-04   1.0862766e-03   1.0651217e-03
   1.1033559e-04  -2.0793583e-05   9.4600458e-05   1.3920537e-04   5.8732985e-05   4.6077879e-05   5.9495847e-05   2.8698693e-04   8.2106557e-04  -1.7029913e-04   6.7619796e-05  -7.4408003e-05  -7.9568035e-06   4.8805330e-05   1.4632258e-04   5.4139335e-04   3.0613763e-05   1.0888211e-03  -3.0553073e-04   1.2823143e-04  -6.0170612e-05   3.6415255e-05   5.4170796e-05  -5.3261712e-05  -1.2928659e-04  -3.5714911e-05   2.0479638e-04   1.1571361e-04   2.2241937e-04  -1.1521791e-05   5.1818904e-04   5.3011475e-04   2.0279604e-04   9.5561772e-05   2.7032090e-06   8.2536729e-04   8.4476276e-05   1.2392679e-04   8.8584660e-05  -5.1146076e-04  -1.8264489e-04   3.0303694e-04   5.3444550e-05   3.8536815e-05   1.0115610e-04   6.0438685e-04  -9.5017795e-06   1.0375531e-04   1.3813188e-03   7.8656228e-04
   1.1810310e-04  -3.4686931e-05   6.3219653e-05   1.1968959e-04   3.8338698e-05   5.2049454e-05   7.7042896e-05   2.1016017e-04   6.9777138e-04  -1.6809063e-04   7.2406168e-05  -7.8551522e-05   3.2069427e-05   7.8520483e-05   2.6600974e-04   5.3531281e-04   4.4693192e-05   6.2509940e-04   3.8368994e-04   1.3611108e-04  -3.0174479e-05   2.7443264e-05   7.2980751e-05  -1.2283655e-05  -9.3197537e-05   1.8371461e-04   1.3279286e-04   7.0964619e-05   3.6985261e-04  -1.6534261e-05   3.0123553e-04   5.3527131e-04   4.6040132e-04  -7.6957185e-05   4.0180257e-05   4.0062718e-04   1.9881137e-04   1.2035601e-04   7.5092139e-05   1.6130490e-04  -8.4484542e-05   2.9980845e-04   2.9142951e-05  -3.5769402e-04  -8.9132729e-05   1.1602419e-03  -3.5039554e-06   6.5315478e-05   3.7517626e-04   5.5194506e-04
   1.2354233e-04  -7.8818057e-06   6.7986140e-05   1.4905981e-04   8.5887732e-05   7.2160226e-05   5.2266372e-05   2.5151204e-04   3.0294692e-04  -1.8450989e-04   8.1216684e-05  -9.3732073e-05  -3.5109962e-05   7.6434124e-05   1.4172103e-04   4.8565914e-04   2.7621067e-05   7.5511087e-04   6.7752186e-04   1.3767254e-04  -3.1366821e-05   3.7261685e-05   3.0205469e-04   7.4764786e-05  -5.6992489e-05  -4.5956057e-04   2.1632621e-04   1.0410892e-04   3.0193222e-04  -5.8925041e-05  -1.2452052e-04   3.0824129e-04   2.1196803e-04   1.2391950e-04  -6.1579398e-05  -8.7939188e-05   1.2050516e-04   1.2032761e-04   9.2170536e-05  -1.5859440e-04   1.7153402e-04  -4.6863566e-05   1.0653011e-05   5.3010805e-05   2.7382383e-04   1.9791443e-03   4.5509641e-05   1.2803960e-04   1.2429085e-03   7.5879245e-04
   1.0702800e-04  -2.1533309e-05   7.4137424e-05   1.2652196e-04   5.8523048e-05   2.1123074e-05   7.9260528e-05   2.0351697e-04  -6.2562263e-04  -2.0795518e-04   5.5479253e-05  -9.4649695e-05   1.4845669e-05   9.3961920e-05   1.4249556e-04   4.6132144e-04   2.7072150e-05   5.7457003e-04   9.4554527e-04   1.3359718e-04  -2.9098650e-05   5.8241971e-05  -5.7989626e-05  -1.4558320e-04   1.3750790e-05   5.7121451e-05   1.5981449e-04   8.8632158e-05   4.1451986e-04  -1.2581711e-05   1.1756894e-04   7.2202325e-05   2.7300231e-04   1.4399900e-05  -1.0055485e-05  -2.0082672e-04   2.1919452e-04   9.1260910e-05   1.6978556e-04   2.4557221e-04   2.7800791e-06  -3.8397306e-04   9.9896224e-06  -1.7183846e-04  -2.7697120e-04   1.0577446e-03  -1.4293728e-04   1.0073893e-05   1.9573102e-04   8.8213227e-04
   1.3628931e-04   9.1203310e-06   6.4928761e-05   1.4961975e-04   7.8731406e-05   4.8018308e-05  -3.3487281e-06   2.3715179e-04   2.7380555e-04  -1.9761208e-04   6.5817418e-05  -9.1856164e-05   1.2250999e-05   7.3400442e-05   3.9589195e-05   4.1619531e-04   3.2427150e-05   8.8373105e-05  -1.3690746e-04   1.4549993e-04  -1.8366782e-05   5.0111939e-05   1.4121308e-05   1.8798704e-05   1.1366969e-04   5.8303722e-05   2.0579864e-04   8.0557540e-05   2.4424921e-04  -1.3976754e-05   3.3795208e-04   1.7807669e-04  -2.7193659e-04  -6.2387044e-05  -2.8715476e-05   3.3190077e-05   1.3793864e-04   8.7077591e-05   1.4710089e-04   2.3456693e-04   6.0415885e-05  -3.1623084e-04   1.1960798e-05   2.4472487e-05  -3.0870760e-05   5.1518774e-04  -2.7975930e-05   6.6236666e-05  -5.8001198e-04   9.0774969e-04
   1.1088260e-04  -9.6680542e-06   8.5489053e-05   1.1634752e-04   7.6319382e-05   4.6463880e-05   1.1940840e-05   2.5888838e-04  -2.2324333e-04  -2.1983762e-04   5.9874237e-05  -9.6353222e-05   1.8875000e-05   5.6567893e-05   9.2268827e-05   4.0901135e-04   3.8613063e-05   4.9904420e-04  -3.6108273e-04   1.2202615e-04  -3.7413134e-05   5.0155919e-05  -1.6896231e-05   1.6323067e-04   1.8189951e-04   9.3911833e-05   1.7838694e-04   8.5081323e-05   2.7421198e-04  -2.2246017e-05   2.4741690e-04   1.0119547e-04   2.0777792e-05   1.1112029e-04   3.8952625e-05  -1.2297677e-04  -6.7958470e-05   7.5933182e-05   9.3542782e-05   3.2746571e-04   1.6709042e-04   3.4489695e-04  -5.9817521e-06  -2.1159074e-04   2.2485580e-04   1.7363550e-03  -5.7259917e-05   2.0073685e-04   3.4712598e-04   6.2478270e-04
   7.0630209e-05  -2.6557645e-05   8.4953703e-05   9.1634109e-05   5.9131402e-05   7.0680129e-05  -1.1723295e-05   2.2157987e-04  -2.7704638e-04  -2.2504521e-04   4.9785685e-05  -9.7539945e-05  -3.0023409e-06   6.7373832e-05   4.5973335e-05   3.9710407e-04   2.1916017e-05   6.6835183e-04  -1.0436800e-03   1.1160788e-04  -2.5777699e-05   3.7500151e-05  -8.6720815e-05  -4.3643580e-05  -1.6525031e-04   1.1999124e-05   1.9217854e-04  -4.7720082e-06   1.3891220e-04  -1.3722564e-05   4.0469316e-04   2.7009693e-04   3.2200327e-04  -1.9550127e-04  -3.2837634e-05  -6.0430528e-05   2.5547726e-05   7.6769327e-05   4.8482620e-05  -7.1069717e-06   3.1223186e-04  -5.2016458e-05   2.8540542e-05   1.5090278e-04   2.5188574e-05  -1.7196831e-04  -9.5253097e-05   2.1678924e-04   3.7884535e-04   1.2583794e-03
   1.1123612e-04  -7.1040090e-06   5.1675856e-05   9.7008538e-05   8.1758211e-05   1.7596405e-05   2.7786546e-05   2.5637943e-04   9.4537390e-04  -2.3145933e-04   4.8376594e-05  -1.2860345e-04  -9.3449789e-06   6.2306914e-05   7.9639583e-05   4.0122363e-04   4.1041254e-05   3.4109317e-04  -4.1093005e-04   1.0943510e-04  -4.3950462e-05  -1.5830596e-05   1.1484630e-04   9.3610703e-05  -1.2359308e-04  -1.6606761e-04   2.1029994e-04   1.1478126e-04   2.2720714e-04  -2.0480122e-05   1.5827183e-05   2.4842640e-04  -2.8302515e-04  -4.1586489e-05   3.7314712e-05  -9.1201055e-06   1.1055615e-04   7.9712932e-05   2.5305557e-05   8.2408133e-06   3.4187909e-04  -1.1959818e-05   3.5574230e-05  -1.0421401e-04   2.5855534e-04   4.4345073e-04  -8.8742410e-05   1.1268468e-04   6.5214466e-04   2.4322241e-04
   9.6282747e-05  -1.9739993e-05   5.8077010e-05   1.1549664e-04   5.4515815e-05   1.0123034e-04  -4.7281210e-05   1.9047533e-04  -3.9420693e-04  -2.4414979e-04   4.6808564e-05  -1.5064627e-04  -9.1664488e-06   6.3698826e-05   3.0630439e-05   3.6774151e-04   1.3057656e-05   7.9752400e-04  -3.8126690e-04   9.8834622e-05  -6.3590734e-05  -1.0990592e-05   5.1766157e-05   1.4959705e-04  -3.5023619e-05  -8.2116239e-05   1.6655312e-04   7.2405259e-05   1.9107158e-04  -1.5022216e-05   2.2724023e-04   2.3425619e-04   2.8430123e-04  -3.0987976e-05   1.7160473e-05  -1.5048258e-04   6.4225977e-05   7.7338642e-05   1.0807416e-05  -4.4793716e-05   3.5256616e-04  -7.6560391e-06   1.6893087e-05   2.2929163e-04   4.2023367e-04   8.6141768e-04   2.6132041e-04   8.2338578e-05  -6.9095421e-04   6.7234994e-04
   1.2330443e-04  -1.5045923e-06   6.0244402e-05   1.1580873e-04   4.5738234e-05   3.4983418e-06   5.6458513e-05   8.9517103e-05  -8.7309553e-04  -2.3036337e-04   4.6314082e-05  -1.1057626e-04  -6.5543863e-06   6.1521067e-05   7.2100549e-05   3.4933619e-04   2.6102487e-05   5.7575584e-04   1.6610228e-03   1.3028207e-04  -3.2850287e-05   6.3692059e-05  -7.8243225e-05   8.6262276e-05  -2.5580357e-05  -1.6296079e-04   1.0318626e-04   8.8103312e-05   1.1914186e-04  -2.4881751e-05   6.1385348e-05   3.0130445e-04   2.5874437e-04  -5.0406729e-06   1.0198804e-05  -1.3184863e-05  -1.0876202e-04   7.5589647e-05   1.3037247e-04  -9.3898263e-05   9.0197049e-05   2.8113599e-04  -1.9493868e-06  -2.9520408e-04   1.3452020e-04   1.1873249e-03   6.6382025e-05   1.3071678e-04   1.0267035e-03   7.1423681e-04
   1.1655808e-04  -7.9080364e-06   4.1728257e-05   1.1007785e-04   3.3093318e-05   7.7915181e-05   4.6266327e-05   2.1335953e-04   1.5311818e-04  -2.5762923e-04   4.7962400e-05  -1.2949957e-04  -1.3996436e-05   3.9423649e-05   1.7369766e-04   3.0622492e-04   2.1939015e-05   4.8692149e-04   6.9826754e-04   1.0778897e-04  -4.8556467e-05   2.4446668e-05   4.1110285e-05  -8.7821281e-06   3.0389423e-05  -1.3987745e-04   1.5965605e-04   8.2841296e-05   2.5397373e-04  -8.3030282e-05   5.4542330e-04   1.6242149e-05   4.2840184e-04   7.2908282e-05   2.1134569e-05  -1.1603996e-04   5.2088224e-05   5.9266669e-05   3.8524337e-05   4.5259254e-05   6.0471182e-05   5.8498197e-05   9.4800653e-06  -2.0450715e-04   6.8547241e-05   1.1207764e-03  -2.0466841e-04  -6.2477948e-06   6.1910861e-04   3.6081678e-04
   8.9479974e-05  -2.4114210e-05   5.3790765e-05   1.1840014e-04   1.1844276e-05   5.6943027e-05   2.8482040e-05   5.9667182e-05  -2.1993414e-04  -2.7278980e-04   1.4965227e-05  -1.5792061e-04  -1.6736081e-05   5.6871970e-05  -2.9612429e-05   2.7562195e-04   2.1344890e-06   6.1380386e-04  -6.4734247e-04   7.7884484e-05  -5.1240437e-05  -7.8117882e-06  -6.7854642e-05   8.8143606e-05  -1.3935889e-04  -2.3337797e-04   9.1394351e-05   1.6077309e-05   1.8523277e-04  -3.7688660e-05   4.4239630e-04   2.6111995e-04   1.9662915e-04  -1.3014852e-04  -1.1085747e-05  -2.6125560e-04   2.9872512e-04   5.7958376e-05   8.8282672e-05   2.5029661e-04  -1.4609327e-04   7.3760049e-05   1.6668382e-05   1.0664904e-04   1.1743711e-04   3.1910124e-04   2.6147458e-05   5.9359307e-05  -2.0841717e-04   6.6598167e-04
   1.0927522e-04   6.2960075e-06   6.3404717e-05   1.1810551e-04   1.6815349e-05   1.6199117e-05   1.1030136e-04   1.0927854e-04   3.5479551e-04  -2.5305990e-04   4.5072629e-05  -1.2159545e-04  -6.3887633e-06   4.3106658e-05   4.4003940e-05   2.3946144e-04   6.2835475e-06   1.5685537e-04  -8.6157484e-04   9.8095938e-05  -4.4993376e-05   1.3353344e-06  -4.2281579e-05   8.3282976e-05   7.1513874e-05  -6.6505003e-05   1.0297904e-04   2.4889390e-05   2.1217846e-04  -7.9982805e-05  -2.9743990e-04   1.1498568e-04   2.5017839e-04  -2.1662812e-05   1.2912726e-05   1.8021090e-04   1.3996839e-05   5.7114285e-05   1.0120832e-04  -2.8679153e-04   3.8979917e-05  -3.2418116e-05  -2.2260543e-05   2.9007366e-04   4.8271686e-04   1.0299197e-03  -7.8908364e-05  -9.6346354e-05   7.2853221e-04   9.8698947e-04
   7.0602531e-05  -1.5058091e-05   4.7145291e-05   1.2066356e-04   3.8518334e-05  -6.9953877e-08   2.5316127e-05   9.8272045e-05   1.1904361e-03  -2.6209836e-04   1.1069456e-05  -1.2677882e-04  -2.0997746e-05   5.9709200e-05   8.4291503e-05   2.2958015e-04   1.8087421e-05   5.0651148e-04  -8.3586486e-04   9.5559888e-05  -6.4068816e-05  -2.0146315e-06  -7.5263626e-05  -1.7783601e-05  -2.2989878e-04  -2.1271764e-05   1.2609390e-04  -4.7826565e-05   3.5678028e-04  -3.7233236e-05  -2.4711605e-06   4.8387010e-05   2.2905244e-04  -8.7612083e-05   6.2475960e-06   3.8156937e-05   2.7369359e-04   3.7398288e-05   5.9549948e-05   6.7182707e-05   1.3403870e-04   2.3861659e-05  -3.5173958e-05  -3.1469950e-05   7.2021932e-05   1.2757829e-03  -2.9033385e-04   9.7426491e-06   6.2274380e-04   6.1499118e-04
   2.9401344e-05  -3.9876999e-05   4.8153623e-05   8.0149250e-05   1.2057872e-05   3.5629026e-07   1.1070904e-06   5.2087315e-05  -1.5030333e-04  -2.5783892e-04   2.5184187e-05  -1.3257720e-04  -4.0205527e-05   6.7364531e-06  -7.6608347e-05   1.7332197e-04  -8.7643521e-06   3.3106099e-04   1.6312515e-04   1.0748972e-04  -5.7837122e-05  -1.3895313e-05  -1.8274669e-04  -4.6079178e-05   1.8324077e-04   2.3554609e-05   1.8822476e-04   1.9178267e-05   2.0820423e-04  -2.4502304e-05   7.9190750e-06   3.6315099e-04  -1.0758185e-05   1.2044644e-05   2.4672419e-05   3.4607144e-04  -1.4308187e-05   3.9718478e-05   1.1343369e-04  -2.2828557e-04  -2.1711967e-04   4.2139258e-05  -3.1125305e-06  -4.3596659e-04   7.4083706e-05   8.0892444e-04  -1.6278721e-04  -3.9268154e-05  -9.3724334e-04   2.1995378e-04
   8.9419060e-05  -1.0420357e-05   5.2179512e-05   1.1047175e-04   3.5099405e-05  -1.9140098e-05   4.7418845e-05   5.3632972e-05  -1.3012214e-03  -2.6326699e-04   3.1471809e-05  -1.3296343e-04  -3.4106335e-05   1.4607059e-05   5.8524958e-05   1.7109302e-04   6.3860211e-06   8.5219748e-05  -1.2009951e-03   5.7234422e-05  -7.5938689e-05  -3.0675801e-06   1.1563021e-05  -2.4860119e-05  -9.5807096e-05  -8.6736211e-05   1.9825362e-04  -2.3025150e-05   2.2430574e-04  -6.3598338e-05   7.4704272e-05   2.3896128e-04   2.6189390e-04  -3.2646687e-05  -4.0016181e-05  -3.9433761e-04   1.2314404e-05   4.0930012e-05   8.2763298e-05   2.6449210e-05  -2.4033722e-04   4.2318679e-05   5.6833792e-06   3.8205998e-04  -9.1668589e-05   1.0541901e-03   1.4842302e-04  -1.4540500e-05  -1.9422952e-04   5.3492276e-04
   2.4188928e-05  -3.3598350e-05   4.4702316e-05   9.6222902e-05   2.1514488e-05  -3.1042833e-05   6.0909762e-05   7.2029761e-05   1.0234328e-03  -2.7835512e-04   2.7160353e-05  -1.3594836e-04  -2.9963518e-05  -9.4427378e-06  -6.9177353e-05   1.4220786e-04  -4.1066658e-05   1.4820771e-04   1.5812628e-03   5.4018958e-05  -9.7922646e-05   5.0327089e-06   6.0016173e-05   1.4220827e-04  -4.9028455e-05  -1.6656901e-05   1.6450504e-04   4.9260972e-05   1.9700914e-04  -7.5406424e-05  -3.5936691e-04   1.3209750e-04   1.0952311e-04  -7.8582554e-05   2.5304944e-05   2.0211520e-04   1.7642103e-04   1.5635333e-05  -9.2194095e-06   1.1665380e-04   1.5388877e-04  -8.5782885e-05  -2.2278973e-05  -2.7494293e-04  -2.4268165e-05   5.8547250e-04  -1.5985894e-05   6.4317169e-06   2.7204145e-04   2.2606684e-05
   3.6216366e-05  -1.0501654e-05   6.4141248e-05   1.0296106e-04   4.8905531e-05   1.6377631e-05   5.2171567e-06   5.1116938e-05   4.1826558e-04  -2.5869472e-04   1.3749342e-05  -1.3164521e-04  -2.6443988e-05   4.0121180e-05   1.1293331e-05   1.4723686e-04   5.4596489e-07   4.1470677e-04  -1.6160411e-04   5.1081275e-05  -8.7290166e-05  -6.3571992e-05   4.1116086e-06  -4.7370839e-05  -8.1314465e-05   8.1891318e-05   8.9399409e-06  -1.2448804e-05   2.4619649e-04  -4.5202134e-05  -9.8345023e-05   1.9513197e-04   3.6597179e-04   5.2095380e-05   1.7388977e-05  -4.0826600e-04   1.6799258e-04   4.6462479e-05   2.1482318e-05   3.2852553e-05  -1.0438648e-04  -1.2300145e-04  -2.6535687e-05  -9.6979384e-05   1.2510606e-04  -1.8907641e-04   3.2653922e-04  -4.6942041e-05  -8.9040893e-04   4.0675001e-04
   4.3893455e-05  -2.3090535e-05   4.5922909e-05   1.1377900e-04  -9.5709029e-06   7.8151324e-06   4.2782496e-05   7.4707023e-05   1.0429933e-03  -2.7473940e-04  -1.4803774e-05  -1.6114723e-04  -2.7944356e-05  -8.4364992e-06  -5.6545236e-05   1.6070639e-04  -1.4745171e-05   1.9136565e-04   6.6809013e-04   4.9615512e-05  -1.0216184e-04  -2.1632284e-05   3.8775168e-05   3.0605384e-05  -1.2954604e-04  -9.7436314e-05   9.5387673e-05   3.2823024e-05   1.9685144e-04  -6.1403945e-05  -4.5054714e-04   1.0859511e-04   1.4975164e-04  -2.5095182e-05  -1.8313478e-05   2.4919436e-04   1.3370278e-04   4.0450734e-05  -4.2462198e-05  -4.8983941e-04   2.3710437e-04  -3.1573494e-04  -1.3325740e-05  -1.6122185e-04   4.9414655e-05   2.0543532e-04  -2.8326127e-04  -1.4153520e-05  -3.3639377e-04   1.6749556e-04
   5.9727859e-06  -3.6112961e-05   4.9240760e-05   8.3866515e-05   4.8752199e-06  -3.2157630e-05  -4.3216496e-05  -4.5684275e-05   2.3498220e-04  -2.9004866e-04   7.0438355e-06  -1.6993648e-04  -3.8241367e-05  -4.9998172e-05  -8.3157385e-05   1.4853418e-04  -1.8639681e-05   3.1410926e-04   1.1754185e-03   1.9765292e-05  -1.0962009e-04   3.3346771e-07  -8.9211935e-05   2.4781279e-05  -4.5348534e-05  -1.3183677e-04   5.1548952e-05  -1.0114189e-05   2.0999851e-04  -9.5893971e-05   3.2410852e-04   7.6659999e-05   4.3895579e-04  -4.5519009e-05  -5.1942083e-05  -3.3587774e-05   2.7628287e-04   4.4847813e-05   1.2575039e-04  -3.7929352e-04  -1.0492451e-04  -3.2713602e-04  -2.0898022e-05  -1.3918185e-05   1.0503368e-04   3.7412337e-04  -3.3358909e-05  -8.1301878e-05   1.2105007e-04   9.1640902e-04
   7.5991673e-05  -1.6671027e-05   1.8087569e-05   1.2492845e-04   8.2001998e-06  -1.8233293e-05   6.3101390e-05  -4.4646757e-05   1.2652251e-04  -2.6566890e-04   5.8525261e-06  -1.5417991e-04  -1.7403463e-05  -2.6437972e-05  -1.2320533e-04   1.4295208e-04  -2.4468266e-06   7.7812198e-05   2.0063638e-04   4.1720348e-05  -1.0937789e-04   2.2930126e-05  -8.9942863e-05  -3.9880706e-05  -2.9557233e-04  -1.4392960e-05  -5.7756033e-06  -3.0436377e-05   1.6684727e-04  -8.2878578e-05   7.7281258e-04   1.4547711e-04  -5.3675938e-04   9.6887612e-05  -4.2347647e-06   4.3030937e-05   2.8784777e-04   4.5989738e-05   1.6138278e-05   1.8601091e-05   6.4900152e-05   4.4917051e-05  -2.2679311e-05  -2.5392370e-04  -3.1144349e-04   9.5429603e-04   2.0905612e-04  -9.6402640e-05  -7.3280698e-04   3.7825020e-04
   1.1031656e-05  -3.6383943e-05   5.3626143e-05   9.5983814e-05   1.6734722e-06  -2.1087117e-05  -2.1650423e-05  -4.9071536e-05  -5.3338369e-04  -2.8186521e-04   9.7111115e-06  -1.6443615e-04  -4.1996533e-05  -4.3711640e-05   9.5985190e-05   1.2947190e-04   1.5525826e-05   1.1508864e-04  -3.0428864e-04   4.5647517e-05  -1.2501619e-04   3.5377107e-05  -1.0453494e-04  -3.3356435e-05  -1.6097825e-05  -1.2605402e-04   2.1654836e-05   1.5641488e-05   1.9895894e-04  -6.8169240e-05   6.1785628e-04   1.6380347e-04  -1.9783880e-04  -1.5592299e-07  -5.0747332e-07   4.2014461e-04   3.6164478e-04   1.3984524e-05  -3.8269882e-06  -1.1179561e-04  -7.4043470e-05  -1.8721605e-04   8.0889549e-06  -2.1930531e-04   3.4962458e-04   5.0292362e-04  -1.6243427e-04  -5.1888535e-05   2.0834724e-04   5.8025349e-04
   6.2521707e-08  -5.4698197e-05   5.1398176e-05   7.6644123e-05   2.2553668e-05   1.5969856e-05   4.0149131e-05   7.6592376e-05   1.0297254e-03  -2.6206108e-04   2.5965032e-06  -1.7292953e-04  -3.4697401e-05  -4.9515624e-05  -5.2563660e-06   1.1373255e-04  -2.1999011e-05   3.2550388e-04   8.0084498e-04   1.7678161e-05  -1.1753402e-04  -5.1991043e-05  -5.8559443e-05  -8.5917435e-07   7.7089280e-05  -7.8302241e-07   8.0367543e-05  -3.2810938e-05   3.2141982e-04  -7.7455050e-05   3.4187009e-04   9.6438598e-05  -1.5495394e-05   7.0528673e-05  -1.2743990e-05   2.9382834e-04   1.6455134e-04   3.5799556e-05   2.3141505e-05  -2.2993263e-04  -2.1822235e-04   3.5178145e-05   1.5006297e-05   1.3263892e-04   5.3722844e-05   3.2396000e-04  -7.7882316e-05  -7.7905934e-05  -1.8435993e-04   2.2309563e-04
   1.6224994e-05  -3.2852902e-05   3.9197123e-05   1.1586163e-04   1.5207735e-05  -1.8293676e-05   6.0742153e-05   1.9930185e-05  -3.7145271e-04  -2.6962769e-04   6.8559361e-06  -1.5274677e-04  -5.0965085e-05  -2.4520068e-05  -8.5889100e-05   1.2617293e-04  -1.9525725e-05   9.2360213e-05  -7.7519141e-04   7.9105557e-06  -1.2016048e-04  -5.0784325e-05   4.4100187e-05  -3.3558877e-06  -7.9554829e-06   3.9019720e-05   1.0908571e-04  -9.1845533e-05   1.8431283e-04  -9.4630865e-05  -1.6544385e-04   3.7234434e-04  -5.3341650e-05  -4.1478688e-05  -4.4436358e-05   6.5714197e-04   8.2520586e-05   3.6826190e-05   7.0937262e-05  -2.0577849e-04  -8.2293984e-05   1.6363268e-04  -1.1703464e-05  -3.9833962e-05  -1.7497990e-04  -8.7364780e-04   1.7322526e-04   8.9459136e-06   2.3392003e-04   9.7318489e-06
   1.3970258e-05  -5.7413319e-05   3.8732247e-05   8.4928841e-05  -3.9472125e-05   3.2579577e-05  -9.0048270e-06   6.0623839e-05   2.3026475e-04  -2.8269971e-04  -1.5267846e-06  -1.7695194e-04  -2.2346900e-05  -7.3179792e-05  -1.0336216e-04   1.1055249e-04  -2.4332177e-05   4.7734781e-04   1.7864901e-03  -6.6429307e-06  -1.4191080e-04   8.2967836e-06  -7.1916300e-05  -2.0503168e-05  -9.1647162e-05  -2.0677937e-04   6.1391278e-05  -5.1899697e-05   8.6174128e-05  -8.1792918e-05   4.0585990e-04   1.3679829e-04   3.9887432e-06  -4.9853948e-05  -1.9528294e-05  -1.2594229e-04   2.9367753e-04   1.6394395e-05   1.2735440e-05  -2.9896828e-04  -1.9124935e-05  -5.2250514e-05  -1.7741848e-05  -3.4028821e-04   1.6979872e-04   6.2031281e-04   2.6647271e-05  -4.5678507e-06   2.3503536e-04   4.7913112e-04
   3.4771103e-05  -3.2167889e-05   4.9321538e-05   9.6519871e-05   2.6625628e-05   1.8142029e-05   8.3896284e-06  -4.6629702e-05   1.0517916e-04  -2.6476587e-04   7.0054780e-06  -1.8208110e-04  -4.9415026e-05  -4.8481394e-05  -2.9380140e-05   1.2881659e-04  -1.8566547e-05  -1.1771670e-05   1.4871932e-04   5.8412730e-05  -1.3610032e-04  -7.1113041e-05  -3.4083510e-05   1.2024405e-05   1.7577107e-04  -2.5992974e-04   1.4884004e-04   1.0811002e-05   2.6220579e-05  -9.3323761e-05  -2.7882771e-04   2.7687912e-04   9.5614696e-06   1.1912726e-05  -8.7692806e-06  -5.8884110e-04   1.4629841e-04   2.9915505e-05   9.5995492e-05   1.4004661e-04  -6.8470094e-05  -4.4305343e-06  -1.9645722e-05  -3.4985342e-04  -4.4396942e-04   1.3375988e-03  -1.8471113e-04   1.0911624e-05  -8.6346339e-04   3.4463307e-04
   2.7081123e-05  -4.0065988e-05   2.3737037e-05   8.5115935e-05  -7.4953418e-06  -3.8306476e-05   2.0983352e-05  -3.8009181e-05  -1.6723448e-04  -2.7009693e-04   3.4265158e-06  -1.5032933e-04  -4.5621823e-06  -5.8572059e-05   3.7331563e-05   1.2445373e-04  -6.6888256e-06   2.6352546e-04  -1.3077004e-03   1.3087795e-05  -1.2794478e-04  -6.6313100e-05  -2.2398470e-05   4.3664804e-05   3.7318234e-05  -1.4032205e-04   8.6080712e-05  -8.1883511e-05   2.1757245e-04  -7.5083721e-05   1.8987482e-04   5.2788464e-04   4.8825040e-04   4.3312361e-05   7.7383602e-06  -3.7794840e-04   2.1727962e-04   1.6863498e-05   6.3419066e-05  -2.1879615e-04  -2.1657090e-04  -1.0664173e-04  -4.3661206e-05  -4.3083256e-04  -2.3954814e-05   8.5815368e-04  -1.3215105e-04  -2.0738169e-05   8.5723543e-05   7.6540606e-04
  -3.0626445e-05  -6.1126186e-05   2.3092487e-05   4.5209752e-05   1.5981941e-05  -2.6372272e-05  -1.3338746e-05  -2.1286996e-05   5.2465673e-04  -2.7497180e-04  -3.3006056e-06  -1.5235935e-04  -2.4132969e-05  -4.9297440e-05  -7.3208852e-05   7.7749261e-05  -1.0086327e-05   4.4013362e-04  -1.5236724e-05   4.8588176e-05  -1.1407726e-04  -4.4187949e-05  -1.7918235e-05   1.7231079e-05  -2.9381152e-04  -1.6211133e-04   9.7514549e-06   6.4520386e-06  -1.8317725e-05  -6.8999019e-05   3.2106054e-04   7.7912686e-05   2.2244256e-04   1.3548095e-04  -1.8314269e-05  -2.2494413e-04   1.9812542e-04   1.8170527e-05   1.1868884e-04  -1.4991181e-04  -4.4652759e-04  -1.3876308e-04  -3.4334782e-05  -4.2477227e-04   8.2642851e-05   7.1064895e-04   2.2592099e-04  -6.7479319e-05  -9.5852750e-04   3.7825262e-04
   2.8144732e-05  -3.4078039e-05   3.4789879e-05   9.3914517e-05  -2.0958348e-06  -4.5442863e-05  -5.0344501e-05  -1.0142262e-05   1.5437664e-03  -2.7199971e-04  -1.8547047e-06  -1.2456346e-04  -5.0824579e-05  -4.9228820e-05   8.0086483e-07   8.7273402e-05  -6.0065304e-06   1.6388578e-04   1.8190037e-03   4.0338673e-05  -1.0317046e-04  -3.0588293e-05   1.4994274e-05   1.3544491e-04  -7.2801493e-05   3.8841818e-04   3.7521499e-05  -7.3608004e-05   5.5299974e-05  -5.3458934e-05  -8.7280860e-05   2.4258639e-04   1.0289714e-04  -1.0853628e-05  -2.2951050e-05   1.4856541e-04   8.0062753e-05   6.3333036e-06   4.0254279e-05   1.6948851e-04  -1.3836913e-04  -3.1304208e-04  -2.3183949e-05  -2.3941985e-04  -2.1390263e-04   4.6767070e-04   3.6465546e-05  -1.1920542e-05   6.8695127e-04   4.2594218e-04
  -1.4814446e-05  -5.1672967e-05   1.1212315e-06   6.6692293e-05   8.6624595e-06  -3.5070127e-05  -2.9884859e-05   5.1952038e-06   3.5122968e-05  -2.8762940e-04   3.5787621e-06  -1.6022785e-04  -5.5502833e-06  -5.4452426e-05  -1.4132488e-04   8.3269559e-05   1.8537467e-08  -8.2355618e-06   1.1079413e-03   3.9319784e-05  -1.2972101e-04  -1.6825767e-05   1.1628771e-04   6.0138467e-05  -7.6155273e-05  -1.5611945e-04  -6.5919717e-06  -1.7676886e-05   2.8530497e-04  -4.6087258e-05  -5.9626276e-05   8.0139624e-05   1.4623988e-04  -1.0013062e-04  -2.1553487e-05   4.8221264e-05   6.1623658e-05  -5.4912366e-06   8.1968835e-07  -2.8239598e-04   5.2568634e-05   1.7823516e-04  -5.4384313e-05  -1.7304925e-04  -5.3051514e-05   3.1504940e-04   1.0677211e-04  -1.0347210e-04  -1.0841248e-03   3.4266760e-04
   7.1107228e-05  -2.9210958e-05   4.8930135e-05   8.4914020e-05   2.4944300e-05  -2.8588993e-05  -5.8251067e-06  -3.7301368e-05   6.4477255e-04  -2.6706836e-04  -1.2054169e-05  -1.5420506e-04   1.3766050e-05  -4.7213249e-05   3.0895535e-05   2.5386593e-05  -1.6749833e-05   1.4266188e-04  -1.1509461e-04   3.1695003e-05  -1.2681793e-04  -3.8450915e-05   9.1148308e-05   3.5406825e-05  -1.9761688e-05   2.3161893e-04   2.7886836e-05  -4.1709496e-05   1.7670704e-04  -4.4866410e-05   2.0782716e-04   1.6393125e-04  -2.8818526e-04  -9.4506904e-05  -1.5300601e-06   8.4437401e-05   2.2823738e-04  -4.8289808e-06   5.5678211e-05   9.4569143e-05  -9.3734110e-05  -2.6706481e-04  -2.4398423e-05  -3.7341303e-04  -2.2512351e-04   1.4525831e-03  -5.1609932e-05  -1.2969067e-04  -3.5238452e-04   6.2576128e-04
   1.4221388e-05  -3.9847859e-05   2.5559872e-05   8.3866624e-05   2.3249662e-05  -8.6464233e-06   8.0053389e-05   7.4729533e-06  -6.1768520e-04  -2.8044634e-04   5.4594675e-06  -1.2119735e-04  -2.9997016e-05  -3.7315542e-05   7.4211639e-05   7.3326279e-05  -1.0370622e-05   6.2507133e-05  -5.1152753e-04   2.6620630e-05  -1.2826007e-04  -4.2224030e-05   3.8012007e-05   1.4790072e-04  -1.2891389e-04  -8.0869948e-05   1.1230473e-04  -8.7737935e-05   1.4438874e-04  -5.4040742e-05   2.6230005e-04   1.5109451e-04  -9.1613088e-05  -1.2352201e-04  -1.6391494e-05   3.2840766e-05   1.6828557e-04  -5.1999978e-06   4.5863755e-05  -9.4412877e-05   1.7765159e-04  -5.8734055e-05  -6.5872780e-05  -2.5107886e-04  -1.2061643e-04   3.7786385e-04  -2.3723178e-04  -3.9800234e-06   2.2487745e-04   5.5674149e-04
  -7.8928879e-06  -6.4119173e-05   2.8507913e-05   4.4916596e-05   3.9516064e-05  -4.2393331e-05  -2.4375648e-05  -3.8397429e-06   3.6170619e-04  -2.6132623e-04  -1.0201264e-05  -1.3058123e-04  -2.8875877e-06  -2.9898454e-05  -3.3625289e-05   1.1020881e-04   2.9735322e-06   1.3519602e-04   6.3224847e-04   2.7903918e-05  -1.3857269e-04  -3.8338636e-05  -4.8217877e-05   7.2135495e-05  -1.8797978e-04  -2.6130843e-05   1.0281969e-04   3.4758630e-06   1.4452673e-04  -9.8550314e-05  -4.4910758e-04   1.4165613e-04   1.9827906e-04  -1.1709155e-05  -2.3114570e-05  -7.1960378e-05   4.6304063e-05   1.3160364e-05   8.2018014e-05  -6.6693530e-05   2.0403297e-04   2.8361718e-04  -1.7930537e-05   7.2770381e-05  -1.4759501e-04   5.6615262e-04  -1.8236211e-05  -6.7376837e-05   9.7330048e-05   3.9984853e-04
   4.8326307e-05  -4.1232215e-05   2.9482426e-05   9.6347692e-05   1.7726163e-05  -4.8091912e-05   6.3964806e-05   2.5157336e-05   2.5757137e-04  -2.5418401e-04   3.9685594e-05  -1.4685642e-04  -3.3681608e-05  -1.3266629e-05  -9.7711607e-05   1.1129508e-04   3.4404355e-05   2.1998472e-04  -4.3207619e-04  -1.6746134e-06  -1.4263317e-04  -9.2344300e-05  -8.5170213e-05  -2.6600892e-06  -6.4651227e-05  -1.3710956e-04   1.3783523e-04  -6.7035566e-05   6.4726504e-05  -4.4817345e-05  -2.3267677e-04   9.1049180e-05   3.6051468e-04  -6.5815220e-05  -4.0553856e-05   5.3787633e-04   1.4053450e-04   2.6188753e-05   2.1015632e-05  -1.8564682e-04   1.5213786e-04   9.0024369e-05  -8.5525453e-06  -5.0556927e-04   3.0966694e-04   4.4156786e-04  -2.0700447e-04  -1.2222953e-04  -4.2467914e-04   3.0058803e-04
   1.9453888e-05  -5.3276282e-05   2.1493313e-05   5.6731209e-05  -1.3320378e-05   7.4764580e-06  -3.1362488e-05  -2.0134114e-07   1.2942281e-03  -2.7064612e-04   1.1639396e-05  -1.5794938e-04  -5.1458483e-06  -2.1402689e-06   9.6221440e-05   1.1876712e-04   2.0573702e-06   7.5177365e-04  -7.7662501e-04   1.2570439e-05  -1.5887484e-04  -6.5754655e-05   3.7989194e-05   5.1979994e-05   2.5651314e-05   9.9125347e-05   4.7098685e-05   6.1457126e-06   1.7179199e-04  -7.7928118e-05  -1.9093568e-04   3.6346359e-04  -2.1575032e-04   7.4121293e-05  -2.3699973e-05  -5.7781721e-04   2.3171209e-05   2.7433070e-05   2.1998289e-05  -3.6989350e-04   1.3742286e-04   1.9294504e-05  -9.9603667e-06   1.2227647e-04   1.6375163e-04   1.7539890e-03  -2.7195291e-04  -4.6862133e-05   1.3256987e-03   6.7927915e-04
   6.4026368e-05  -3.0916035e-05   4.0542409e-06   9.7108932e-05   1.7174047e-05  -9.5273055e-05  -6.6415832e-06  -4.1206353e-05  -1.0396998e-04  -2.5258813e-04   9.4648622e-06  -1.2490964e-04  -9.2205519e-06  -5.5625605e-05  -3.3253218e-05   1.7740230e-04   9.1557486e-06   1.3523185e-04   3.0792112e-04   4.2440893e-06  -1.3689505e-04  -1.0591365e-04   3.2845906e-05   5.9987513e-05   3.3054155e-05  -1.4859717e-04   1.0126931e-05  -4.4915007e-05   2.4901502e-04  -7.9081496e-05   3.2130640e-04   8.3014704e-05  -1.2258411e-04   6.9531765e-05  -1.1830100e-05  -4.5188193e-04   8.7938621e-05   4.8636768e-05   6.4232954e-05   2.1305683e-04  -4.4018820e-05  -1.2100275e-04   9.4067791e-06  -9.3901428e-05  -1.5919672e-04   6.1879668e-04   2.7883955e-04  -7.2486815e-05  -3.8757673e-04   2.9155309e-04
   5.1058825e-05  -4.4971352e-05   4.6306275e-05   7.0484522e-05  -6.7141118e-06  -6.5681102e-06  -3.3322169e-05   5.9843082e-05   4.2340800e-04  -2.6080321e-04   1.7761075e-05  -1.1923860e-04  -2.1747655e-06  -5.0488339e-05  -9.2710754e-05   1.9194564e-04   1.6434127e-05   3.9172711e-04  -5.0020783e-04   2.1807911e-05  -1.5096166e-04  -7.3450406e-05  -2.1449076e-05   7.4253236e-05  -3.0183315e-04  -3.0697853e-04  -9.2951988e-05   1.4954759e-05   6.3410225e-05  -6.6660366e-05   3.4155848e-04   3.4237403e-04  -2.6789259e-05   3.0022445e-06  -1.8510113e-05  -8.4055624e-05   4.0322124e-05   5.0238192e-05   4.7507434e-05  -1.3762795e-04   9.9317411e-05   4.6962508e-05  -1.3896467e-05  -4.1774115e-06  -4.6415103e-04   7.5493858e-04  -1.7558869e-04  -4.5031913e-05   1.6084622e-04   4.9873616e-04
   4.1177023e-05  -3.4671593e-05   4.5131004e-05   7.1654002e-05  -1.9203280e-05  -3.3453729e-05  -4.8836391e-05   7.7136283e-05  -1.3827087e-04  -2.4492128e-04   2.2671458e-05  -1.3153581e-04  -5.3307034e-05  -2.7619992e-05  -3.9518029e-05   1.7954693e-04   3.3056396e-05   2.7332144e-04   2.7823748e-04   2.1520300e-05  -1.2837240e-04  -2.7553913e-05   2.6194230e-06   1.9920224e-05  -2.7096525e-04   1.0866477e-05  -2.1119813e-05   5.7686630e-05   1.0623988e-04  -4.4976616e-05   4.4756013e-04   1.6091010e-04   1.5185704e-04   6.9632151e-05  -2.2051192e-05  -2.5382946e-04   7.7062454e-05   6.4172396e-05   1.4005466e-04  -2.7125767e-05  -2.3212280e-05  -1.0667114e-04  -3.0968589e-05  -9.7024073e-05   1.3968933e-05   1.4746484e-03  -8.8621018e-05  -3.6990583e-05  -1.9126367e-04   6.8986084e-04
   4.6005192e-05  -2.9002795e-05   5.5217341e-05   8.7487955e-05  -3.0472904e-05  -2.3427414e-05  -5.5074048e-05   1.1733454e-04  -5.0653826e-04  -2.6074244e-04   1.0672829e-05  -1.6709481e-04  -2.4436782e-05  -1.6948430e-05   2.0310878e-05   1.8746276e-04   2.2658172e-05   7.5895002e-04   3.4656678e-04   3.8296799e-05  -1.3268675e-04  -3.6715413e-05   6.2976163e-05  -5.0468192e-05   3.8034246e-05   2.3822766e-04   2.9132714e-05   9.6144386e-06   1.9627370e-04  -9.8328301e-06  -2.6297605e-05   4.7844034e-05  -1.3097233e-04   5.2260143e-06   3.4175056e-05   1.3207513e-04   2.5427609e-05   7.2546383e-05   1.0717996e-04  -4.6070512e-05   1.2492630e-04  -5.0846083e-05  -2.0319749e-05  -4.0430305e-04   5.9695267e-05   5.1809393e-04  -2.9182158e-04   2.9858469e-05   5.2389491e-04   7.5753132e-04
   3.4334153e-05  -4.2992164e-05   5.0297920e-05   1.0257705e-04  -2.9394578e-05  -1.4313644e-05   1.1427374e-05   3.2686912e-05  -5.1484688e-04  -2.8040598e-04  -1.2160382e-05  -1.3881261e-04   3.0085887e-06  -3.7110778e-05   5.8529124e-05   1.7868580e-04   2.3223725e-05   5.6264042e-05   1.7937458e-04   1.8988781e-05  -1.1416078e-04  -4.6038225e-05  -7.2154231e-05   1.5252641e-05  -1.6350715e-04  -7.5886164e-05  -1.7031738e-05   7.3668474e-05   1.9542672e-04  -5.1489144e-05   7.1236922e-04   3.1420244e-05   2.9785978e-04   8.5938873e-06  -6.6975801e-05   2.4805317e-04   1.0261976e-04   6.6913126e-05   8.0362421e-05   7.8243647e-05   7.5923439e-05   2.2588900e-05  -1.0279798e-05   3.6293035e-04  -1.1416311e-04   1.6822139e-03  -1.4101100e-04   4.5961318e-05  -4.5446686e-05   3.9058892e-04
   5.3790420e-05  -1.6233671e-05   4.3823256e-05   1.0615446e-04   1.2495224e-05  -2.4312947e-05  -1.1729037e-05   1.3689690e-04  -8.1681144e-05  -2.5412760e-04  -1.7143791e-06  -1.4593602e-04  -6.1360324e-06  -1.7376758e-05   5.3046908e-05   1.7035447e-04   1.9977710e-05   1.4802163e-04  -4.3557069e-04   3.0467763e-05  -1.1556875e-04   1.5796637e-05  -1.0459144e-04  -2.7061584e-05  -2.8899707e-05  -1.0817418e-04   4.1156589e-05  -4.0723194e-07   2.2437725e-04  -6.3404295e-05  -4.5698698e-04   3.0966336e-04  -1.3470148e-04  -1.6088363e-06  -5.3869022e-05  -1.6904122e-04  -7.1728697e-05   6.1954393e-05  -4.5436540e-05   1.4072214e-04   5.9113222e-06   5.6240980e-05  -1.8709288e-05  -4.5576508e-05  -3.4985536e-05   7.0618227e-04  -1.3286590e-04  -5.5889675e-05  -5.4624546e-05   7.8437594e-04
   6.0795257e-05  -2.4781202e-05   2.2558208e-05   6.8207475e-05   4.0211407e-06  -8.6280590e-05   4.4217457e-05   6.0343005e-05   7.7029230e-04  -2.8520689e-04   1.1260485e-06  -1.3290772e-04  -1.6127639e-07  -2.6656860e-06  -7.2925046e-05   1.5814538e-04   3.5533063e-05   3.4233253e-04   8.4002526e-04   2.9585393e-05  -1.3363267e-04  -5.8641221e-05  -1.1233497e-04  -2.5564445e-06   5.4540988e-06  -2.9852132e-05   7.4116826e-05   2.2286724e-06   1.9941875e-04  -2.3860381e-05   2.8933145e-04   1.7088336e-04   3.4125223e-05   3.7259113e-05  -2.9829724e-05  -4.0746102e-04   1.6563211e-04   4.4350963e-05   6.5776847e-05   1.3800328e-04   2.3377406e-04  -1.3471529e-04  -2.1227939e-05   9.9004290e-05  -4.0973697e-04   1.7657071e-04   2.7838591e-05  -6.8565860e-05  -2.1192180e-04   1.3193538e-03
   6.7130357e-05  -2.9852190e-05   5.0937011e-05   1.0338098e-04   3.7877369e-05  -4.3306587e-05  -2.2024389e-05   1.0193485e-04  -1.5364110e-03  -2.5436404e-04  -7.8695539e-06  -1.4768883e-04   1.6580731e-05   8.7314293e-06  -1.4121088e-05   1.8389865e-04   3.1245778e-05   3.1206597e-04   1.5417825e-04   5.2276126e-05  -1.1411006e-04  -3.1145210e-05  -2.6895867e-05   7.8970741e-05  -8.0691178e-05  -1.7005853e-04   2.5662219e-05  -1.5298194e-05   2.2470884e-04  -7.3918287e-05  -1.7092687e-04   2.7314216e-04   8.1420119e-05  -1.1814808e-04  -3.8587368e-05  -3.4813213e-04   2.4677063e-05   5.5165125e-05   4.1481126e-05  -5.6990693e-06   7.0958617e-05  -2.8166300e-05  -1.8759780e-05  -1.7279453e-05   2.2724635e-04   1.5567740e-03  -2.4509487e-05  -7.8015648e-05  -8.3245203e-04   6.8099325e-04
   5.5569726e-05  -1.5993397e-05   3.1705804e-05   1.1980837e-04  -1.3054404e-06  -5.7197256e-05   6.4321306e-05   7.2688963e-05   1.0632992e-03  -2.6986163e-04   7.7359200e-06  -1.1444763e-04  -2.5997206e-05   1.0466395e-05  -1.2803383e-05   1.6250489e-04   1.3171229e-05   2.9944372e-04   2.8090179e-04   2.2250790e-05  -1.0814663e-04  -1.6272679e-05   7.2396688e-06  -1.0903863e-04  -3.7713460e-05   4.8758371e-05  -8.0121165e-05   6.6681682e-06   4.4611425e-05  -2.9544888e-05   1.9413291e-04   3.3952709e-04   1.0568032e-05   1.5230305e-04  -3.2343465e-05  -2.1752514e-04   1.4509685e-05   5.2246432e-05   4.5925361e-05  -9.6869313e-05  -4.4531313e-05   1.0487227e-04   7.7227332e-06  -4.0034918e-04   3.2246198e-06   1.3084162e-03  -3.6608317e-06  -5.4649696e-05   6.0238002e-04   1.3389015e-04
   3.8649705e-05  -3.8322793e-05   2.7027689e-05   6.2971376e-05   9.6237827e-06   1.9498550e-07  -3.7790007e-05   5.8365942e-05  -6.8048004e-04  -2.8186577e-04  -1.4241700e-05  -1.2656889e-04   5.4123402e-06  -3.9651357e-05  -1.1792751e-04   1.8939754e-04   1.9309398e-05   7.8008328e-05   1.2362207e-03   5.2816513e-06  -1.2219604e-04  -4.8403446e-05   3.6912716e-05   5.3342283e-05  -1.0770853e-04  -5.1464482e-05   9.8310760e-05   9.5466094e-06   1.9553663e-04  -3.4284109e-05   7.3646363e-05   1.8934319e-04  -3.2705828e-04  -3.2843047e-05  -4.2562868e-05   3.0822409e-04   8.5199399e-06   4.5626475e-05   7.5899763e-05  -2.5262483e-04   1.7759887e-05  -4.0755342e-05   5.0619178e-06   1.0070342e-04   3.2996817e-04   7.4878184e-04  -1.0797476e-05   7.3390300e-05  -1.2126847e-03   6.9582928e-04
   8.7595625e-05  -5.7179959e-06   3.8912072e-05   1.2309621e-04   1.2293359e-05  -2.3430815e-05  -4.8441802e-06   6.5909859e-05   1.4261574e-04  -2.6677907e-04  -1.2675430e-06  -1.1160639e-04   5.6235963e-06  -6.2186757e-07   1.7790764e-04   1.4685621e-04   1.3510464e-05   3.4509960e-04   1.3161593e-04   1.3681252e-05  -1.1024779e-04   1.2795602e-05  -7.6175289e-05  -1.1536157e-04  -9.0622001e-05   1.9187429e-04   1.3255814e-04  -5.0553266e-05   1.7449577e-04  -4.3870630e-05   1.0987863e-04   3.7465466e-04  -4.7272874e-06  -1.0787921e-05  -5.7642115e-05  -2.0721862e-04   3.5527315e-05   4.6303579e-05   1.1500993e-04  -7.4303061e-06   7.6675642e-06   2.8438019e-04  -8.9672094e-06  -4.3166991e-04   2.1390912e-04   1.1922782e-03   1.6716348e-04  -8.3750470e-05   4.9928721e-04   1.5635922e-04
   4.9025653e-05  -1.5490728e-05   6.4935652e-05   1.0945014e-04   3.9793773e-05  -5.0887193e-06   9.0276444e-06  -2.8370393e-06  -4.6622410e-04  -2.7413457e-04   2.7601254e-05  -1.3512382e-04  -2.6580894e-05   7.0556589e-06   1.5403428e-05   1.4623164e-04   2.1690090e-05   5.0370401e-04   4.2659542e-04   1.8640052e-05  -1.1455960e-04  -2.3349832e-05   4.1878920e-05  -2.8645663e-05   1.2990051e-04   1.4778370e-05   2.8932058e-05   7.8029465e-05   2.4208463e-04  -1.6387572e-05   7.6043139e-06   2.8482251e-04   1.2257468e-04  -4.0385108e-05   1.9442614e-05   3.8240652e-04   8.7595683e-05   4.9350299e-05  -1.1926400e-06  -5.8357848e-05  -1.3372128e-05  -3.0809248e-04  -5.2962783e-05  -1.0729774e-04  -1.3671968e-05   7.2644587e-04  -2.3101733e-04  -3.8358095e-05  -5.7712966e-04  -3.7788483e-05
   6.5297805e-05  -2.5343400e-06   5.9876802e-05   1.0013337e-04   6.1911400e-05  -6.0988674e-05   6.2352025e-05   3.6265443e-05  -4.6129771e-05  -2.5817950e-04   3.8611732e-05  -1.4824163e-04  -3.0307046e-08  -3.3234450e-05  -6.5736509e-05   7.5757875e-05   3.7559719e-05   1.8086167e-04  -3.4880405e-04   4.9893835e-05  -7.1648028e-05   2.1947593e-05  -1.1723329e-04   1.9152352e-05   3.2122396e-05   1.9729655e-04  -2.8504846e-05  -6.1312589e-05   1.2752934e-05  -4.2504471e-05   4.6614590e-05  -2.5589068e-05   1.1446485e-04   2.1902006e-04  -1.5425361e-05  -1.0547739e-04  -7.3399817e-05   7.4296033e-05  -1.8700377e-05   2.3395802e-04  -7.2253599e-05  -1.7282213e-04  -2.3529270e-05  -2.9295183e-05  -3.5667949e-04   3.4807096e-04   7.5035874e-05  -9.0173176e-05   1.0244728e-03   2.1577641e-06
   9.7242635e-05   3.5191289e-05   8.0054109e-05   1.3888700e-04   5.0208626e-05  -2.7490725e-05   9.3037837e-05   6.7415589e-05  -5.2580656e-04  -2.5707271e-04   6.9258553e-05  -1.3036634e-04   1.8478415e-05  -3.7126403e-05  -7.2378069e-05  -1.8588178e-05   4.2605341e-05  -1.0008997e-04   7.6211500e-04   9.8082484e-05  -5.0222312e-05  -5.1547151e-05  -5.7401896e-05  -8.4404113e-05  -1.2851057e-04   1.2126569e-05  -7.9031095e-05  -4.1826541e-05   6.4523178e-05   1.6743488e-05   6.4513134e-04   1.0907021e-04  -2.4803335e-04   1.7714967e-05  -1.0128977e-05   6.1312207e-06   8.5405569e-05   1.1459011e-04  -3.0659005e-05   1.0518662e-04  -1.1906961e-05   1.6738654e-06  -7.0082526e-05  -4.9555165e-05  -7.2711628e-05   7.1983907e-04   5.6433015e-05  -8.9320070e-05   1.7586241e-04  -8.7636079e-05
   1.0337291e-04   7.0482267e-05   1.6189272e-04   1.6626356e-04   5.4955974e-05   2.9882778e-05   1.3164848e-04   2.0009214e-05   7.3907536e-04  -2.0520402e-04   1.5107969e-04  -6.7969115e-05   5.6166431e-05  -8.7162181e-05  -2.1044465e-04  -1.3469832e-04   5.1750390e-05   1.4379261e-04   3.1251272e-03   1.4563977e-04  -2.7545169e-05  -7.2765688e-05   4.9089234e-05  -3.7795426e-06  -1.3206032e-04   8.7182241e-05  -1.0987873e-04  -5.0405688e-05   1.4105286e-04  -7.3191054e-06   1.1147616e-04   2.8311069e-05   4.5737170e-06  -3.7913902e-05   3.2477765e-05  -3.6004960e-04   1.4984152e-04   9.1575603e-05   6.4972090e-05   8.9450885e-05   2.7770380e-04  -1.8627876e-05  -8.4626299e-05   2.7244180e-04  -1.4295902e-05   4.6143797e-04   4.7302594e-05  -1.5904884e-04   2.9908554e-04  -3.0315822e-04
   1.1917973e-04   9.5970609e-05   1.7372472e-04   2.0100205e-04   5.1373088e-05   1.3337155e-05   1.9012316e-04  -5.8776383e-05  -5.1018840e-04  -1.8639496e-04   1.9527526e-04  -9.6146607e-05   3.0482102e-05  -8.3887688e-05  -7.6114338e-05  -1.8107294e-04   6.2899460e-05   3.5475366e-04   6.5732532e-04   1.5381099e-04  -2.2788130e-05  -2.0716408e-05  -1.7441776e-04  -4.8976060e-05  -2.5761509e-04  -2.6303102e-05  -5.4939388e-05  -1.1220020e-04   1.2364598e-04   1.6225689e-05  -2.4808705e-04   6.7858404e-05  -8.0714926e-05   1.5558039e-04  -1.5205776e-05   3.3062490e-04   2.2218194e-06   9.4090559e-05   3.1772258e-06   2.2022537e-05  -5.5097738e-05  -1.8218823e-04  -1.0806997e-04  -2.7328727e-04   3.3596306e-04  -6.3045369e-04   2.8588253e-04  -1.2677438e-04   1.1880032e-03  -5.3266675e-04
   1.5970269e-04   9.9637677e-05   1.6032888e-04   1.7239377e-04   6.9418784e-05   1.7702387e-06   6.1243714e-05   4.9670431e-05   2.2042592e-04  -1.9662372e-04   1.5280629e-04  -1.1000974e-04   5.2481424e-05  -1.0983295e-04  -5.0017505e-05  -1.9785237e-04   5.0676317e-05  -1.1051805e-04   2.0430798e-03   1.0876111e-04  -5.2777563e-05  -7.2697680e-05  -2.0502346e-05  -1.7241454e-04  -1.6677195e-05   2.3572960e-05  -2.0859808e-04  -5.2162584e-05   5.3314532e-05  -8.0431073e-06  -5.8449601e-04  -9.3424853e-05  -2.9991730e-04  -7.1321534e-05  -3.1141801e-05  -1.5886353e-05   9.3803501e-05   7.2103096e-05  -6.7126683e-05  -2.8758633e-04  -1.2381720e-04  -2.9684478e-04  -1.1391808e-04   2.6470807e-04   3.1164303e-04  -6.5965566e-04  -2.1168856e-04  -1.5866318e-04  -3.5608068e-04  -1.2823247e-04
   8.7666886e-05   7.7383549e-05   1.5851269e-04   1.4311304e-04   7.0444301e-05   2.1095602e-05   7.2794719e-05  -6.0770497e-05   7.9610740e-04  -2.1191529e-04   1.2208500e-04  -1.1189816e-04   5.3689320e-05  -9.2013972e-05  -1.0394672e-04  -2.0160883e-04   3.8847273e-05  -2.9194797e-04   1.0648748e-03   1.0775102e-04  -4.5081666e-05  -5.5587290e-05   2.9791705e-05   7.4963464e-05  -7.3937881e-06  -1.4694763e-04  -1.6035450e-04  -3.9098530e-05  -2.8828455e-05   1.0182601e-05  -1.9622612e-04  -5.3299133e-05   1.8582007e-04   1.6287201e-04  -3.5891837e-05  -1.9066585e-05   2.9720535e-05   8.2352453e-05   1.9963220e-05  -4.0846027e-04   1.8845452e-04   8.8113688e-05  -6.7567067e-05  -1.0938012e-04  -3.2645772e-04  -6.1528909e-04   2.3191600e-05  -2.5020439e-05  -2.8419643e-04  -4.1639712e-04
   1.4437670e-04   1.0882477e-04   1.2357079e-04   1.9963810e-04   5.5447261e-05   2.2431179e-05   1.0493171e-04  -7.2024442e-05   1.0733455e-03  -2.0560480e-04   1.5095260e-04  -1.0326343e-04   1.3892061e-05  -1.2025068e-04  -2.0860374e-04  -1.7887523e-04   2.7041056e-05  -4.9693928e-05  -3.4760651e-05   1.1951962e-04  -4.3106193e-05   2.4806340e-07   6.8759240e-05  -4.1612839e-05  -1.0395493e-04   4.3203774e-05  -1.7430293e-04  -1.1166678e-04  -6.0817481e-05  -3.4976831e-05   3.5051980e-05   8.9560875e-05  -3.1593372e-05   1.6013872e-05   7.4516215e-06   2.1703719e-04   3.2262982e-05   5.7284149e-05  -7.0228642e-05  -2.5904886e-04  -7.9415149e-05   1.9238720e-04  -1.0436292e-04   1.5134698e-04  -5.6935265e-04  -2.0597402e-04   6.4051244e-05  -1.7442380e-04   9.0396183e-04  -2.8004512e-04
   9.2154733e-05   9.1239752e-05   1.2939930e-04   1.3278431e-04   8.3855710e-05   1.4479208e-06   6.4682907e-05  -8.1433602e-05   4.8038826e-04  -2.1874787e-04   1.2018242e-04  -1.4356847e-04   5.3785225e-05  -8.8388704e-05  -5.3257692e-05  -2.0247120e-04   3.0405272e-05   3.6310670e-05   1.0603677e-04   1.0940291e-04  -6.0978753e-05  -1.3753464e-05  -1.4249139e-04  -9.3119314e-05  -8.9619905e-05  -2.7664070e-04  -2.1528353e-05  -8.0334376e-06  -2.5043095e-05  -1.7185412e-05  -4.3853393e-05  -1.1474394e-04  -3.5119161e-04  -1.3065431e-05   2.0915781e-05  -1.1367239e-04  -2.0567355e-05   2.9879246e-05  -5.1540675e-05  -5.5666402e-05  -2.7187692e-04   2.0289739e-05  -9.8900811e-05  -1.3857245e-04   1.4191773e-04  -8.7028579e-04  -3.6861224e-04  -4.3877404e-05  -1.1015236e-03  -1.9848051e-04
   9.5215597e-05   8.6276719e-05   9.2951610e-05   1.3191742e-04   5.9091097e-05  -7.1679046e-05   5.1831568e-05  -1.1355196e-04   4.5997530e-04  -2.2326545e-04   9.3837109e-05  -9.9960700e-05  -1.9146848e-05  -8.6960310e-05  -1.9326904e-05  -1.6949537e-04   2.6542122e-05   2.9705270e-04   4.5844435e-04   7.7629767e-05  -6.8407600e-05  -4.6528676e-05  -1.0848985e-04  -9.4257091e-05  -5.0632574e-05   1.8790056e-04   2.3937657e-05  -9.2358830e-05  -2.0271282e-05  -3.6152633e-05  -3.5816236e-04  -4.0866646e-05  -1.7197593e-04   1.0437507e-04  -5.8197011e-06  -2.0717237e-04   6.3260422e-06   2.9226087e-05  -1.1329514e-04   3.4799543e-04   4.6493074e-05  -1.1865923e-04  -8.1316488e-05  -2.9951122e-04   4.7900976e-05  -7.5879251e-04  -3.2915963e-05  -1.7880781e-04  -6.4145605e-04  -8.2451821e-05
   9.5425712e-05   8.1184415e-05   8.0312515e-05   1.2699742e-04   5.3719144e-05  -3.4009295e-06   3.3043223e-05  -2.5243327e-05   6.0973561e-04  -2.3727785e-04   9.8420547e-05  -1.2079332e-04   2.6205455e-06  -9.0562135e-05  -1.3427013e-04  -1.7315421e-04   4.9941111e-05  -3.0211973e-04  -4.3714806e-04   3.2669392e-05  -8.8995788e-05  -7.0933769e-05  -5.5774886e-05   1.6707472e-05  -1.2369151e-04   8.1951381e-05  -5.6018056e-05  -6.0524537e-05  -6.3248030e-05  -3.1234631e-05  -1.4818460e-04  -1.4887527e-05  -7.9588172e-05  -2.1725893e-05   2.7367383e-05  -3.6184926e-04   5.2679334e-05   8.5564043e-06  -9.7032491e-05  -1.6704397e-04  -9.7694843e-05   4.2627985e-04  -7.0607690e-05   5.4556407e-05   7.9404388e-05   3.0101562e-04   8.8662040e-05  -1.4747628e-04   2.1346356e-03  -1.9548042e-04
   1.0323386e-04   5.6447920e-05   7.8176243e-05   7.4190575e-05   4.1094714e-05   2.3083480e-06   1.7325341e-05  -1.9926478e-05  -8.8345696e-04  -2.4452811e-04   7.4464406e-05  -1.1718816e-04   3.4446691e-06  -4.6030029e-05   2.3608149e-05  -1.7556112e-04   1.5764474e-05  -6.5535569e-04  -7.0130227e-05   5.2571999e-05  -9.7897493e-05  -3.5501180e-05   8.1004779e-05  -5.3254036e-05  -5.0140112e-05   8.0875841e-05  -1.9995599e-05  -9.5719224e-05  -4.5171510e-05  -3.4199278e-05   6.6391780e-04   1.1322559e-04  -3.6785286e-04  -9.1853020e-05  -2.4821798e-05  -2.5233653e-04   3.1047075e-05  -3.5926435e-06  -7.8526966e-05   6.6115108e-06  -4.3363310e-05   6.0021728e-05  -3.9057300e-05  -6.1759660e-05  -1.0333616e-04   2.8024934e-04   1.0337227e-05  -9.1964343e-05  -6.2314013e-04   1.5366053e-05
   1.0676949e-04   8.1833481e-05   6.0779759e-05   1.2434711e-04   4.4015353e-05   5.6502876e-07   2.9347002e-05  -5.5002583e-05   5.3570047e-04  -2.1481342e-04   8.3853934e-05  -9.7006894e-05  -9.8802220e-06  -3.0910109e-05   3.0331599e-05  -1.4343623e-04   3.1323587e-05  -1.9481051e-04   1.5522157e-04   2.5198555e-05  -1.0105463e-04  -6.7092500e-05  -9.3068076e-05  -4.8826267e-05   5.7145397e-05  -2.6582528e-04  -1.8021163e-04  -9.3980299e-05  -6.7956775e-05  -2.4296774e-05   4.1605500e-04  -1.4378419e-04  -4.4296823e-05   8.3558589e-05   1.9343146e-05  -6.5119250e-04   1.3455871e-04   2.4856488e-06  -1.0652688e-04  -9.2783819e-05  -2.1859696e-04   5.0776049e-07  -4.9488226e-05   3.3303775e-05   4.2336484e-05  -7.0446247e-04   7.3324896e-05  -5.6463799e-05   4.2406277e-06  -8.5548934e-05
   6.7607980e-05   5.6748941e-05   7.9198173e-05   8.2880928e-05   2.7787435e-05   1.3250070e-05  -1.5126105e-05  -7.6408942e-05   3.8560544e-04  -2.2708795e-04   6.6949695e-05  -1.0313246e-04  -5.0150388e-06  -6.8964364e-05   2.4803363e-05  -1.3568053e-04   1.5732890e-05  -5.7353429e-04   5.6448055e-04  -2.7971018e-06  -1.1605945e-04  -4.2221956e-05   4.8416157e-05   6.3772706e-05   1.0868235e-04  -3.0507774e-06   1.2321740e-05  -1.7273527e-05  -3.9732688e-05  -5.3675531e-06  -2.8076180e-04   2.1709947e-04   1.7829223e-04  -5.8356312e-05   1.8048102e-05  -1.0674991e-04  -4.3815697e-05  -3.9186625e-06  -5.4218846e-05  -2.5719200e-05   1.0845490e-05  -2.4004810e-04  -5.6909346e-05  -3.6951862e-04  -2.3344210e-04  -1.0639698e-03  -1.7955409e-04  -6.3982268e-05  -1.5519388e-03  -4.6817260e-04
   7.2016628e-05   6.5630666e-05   6.5663517e-05   8.8787259e-05   2.5721813e-05  -1.4419976e-05   7.7677410e-05  -2.6113741e-05   5.5445207e-04  -2.0747013e-04   8.4647894e-05  -7.8386256e-05  -1.7772025e-05  -8.0003781e-05   7.6485689e-05  -1.3421440e-04   8.5996680e-06  -1.7215834e-04   9.2938266e-05   2.4762405e-05  -9.0949885e-05  -4.9196005e-05  -6.1594488e-05  -7.7424811e-05  -4.4898748e-05  -2.5574394e-04   5.0373848e-05   7.9219017e-06  -1.0698065e-04  -3.2180542e-05  -3.2964512e-04   7.2336195e-05  -9.7571363e-05  -1.2189964e-04   3.4170411e-05   2.1917255e-04   1.9503167e-04   9.1471047e-06  -1.3395773e-05  -3.3457109e-05   1.5691678e-05   3.5305612e-04  -2.6972815e-05  -1.3190169e-04   7.1541952e-05   5.1633967e-04  -4.0421754e-05  -1.0805988e-04  -7.0557196e-04   7.9182573e-05
   4.1499890e-05   6.4357751e-05   5.4501445e-05   8.9001005e-05   1.2566534e-05   6.0937123e-06  -2.1972133e-05   4.1367497e-05   3.0799076e-04  -2.1013270e-04   5.5374490e-05  -1.1949510e-04   1.6283608e-05  -4.3240943e-05  -6.9260728e-05  -1.3429894e-04   2.4836827e-05  -2.8795053e-04   2.8130037e-07   5.0909788e-05  -9.9646488e-05  -2.6210173e-05   1.8930803e-05   2.3742114e-05   2.1456892e-05   2.3925520e-04  -9.8972101e-05   5.7716738e-07  -9.1164584e-05  -3.0737363e-05  -4.5197554e-05  -1.7342714e-04   1.8854222e-04   1.0631816e-05   2.0538891e-05   4.8832397e-04  -4.7393510e-06   1.4465282e-05  -1.6271943e-05  -4.3879059e-04  -6.6964355e-07   8.8621113e-05  -5.0104834e-05   2.3024724e-04  -3.0485197e-04  -3.9137376e-04   7.5097123e-05  -2.3959346e-05  -1.9533362e-04  -4.4984021e-04
   4.8958489e-05   4.5542463e-05   4.9287177e-05   6.9451729e-05   1.3194902e-05  -3.5320994e-05  -8.4394824e-06  -7.0600581e-05   3.3646863e-04  -2.2628457e-04   3.7244808e-05  -1.0741918e-04  -1.3496652e-05  -4.9324175e-05  -1.0681515e-04  -1.4035519e-04   1.2267144e-05  -2.7083312e-04  -5.3934148e-04  -4.0662226e-06  -1.0164839e-04  -1.4604135e-04   9.4140400e-05   7.0514725e-05   2.0053913e-04   1.1291307e-04  -3.5608184e-05  -4.0984036e-05  -7.5945594e-05  -5.6616823e-06  -1.9064777e-04  -7.9455967e-05   1.8311761e-04   7.0785609e-05   2.0680638e-05   5.8077429e-05   2.0038715e-05   1.7819053e-05  -2.5396719e-05   5.6862835e-05  -1.7982670e-04  -2.6909946e-04  -3.1780128e-05  -1.9952745e-04  -1.1484558e-04  -2.7389955e-04   2.1264343e-05  -6.9448659e-05  -2.3154750e-04   1.0251221e-04
   6.0681243e-05   6.7072942e-05   6.5761778e-05   8.8471563e-05   3.2371689e-05   2.1089763e-05   8.4861176e-06  -5.0257895e-05   6.6088064e-04  -1.9760276e-04   3.7007601e-05  -9.5807802e-05   1.3296502e-05  -3.4126067e-05   7.4493591e-06  -1.2398478e-04   1.6249533e-05  -2.0959503e-04   5.3253469e-05   2.8709163e-05  -9.3822789e-05  -3.8882594e-05  -1.5507718e-05  -3.1092215e-05   1.4452834e-04  -4.4757933e-05  -1.0714120e-04  -1.0330416e-04  -9.4919105e-06  -5.4905457e-05   6.5302193e-05   3.6592144e-05  -7.9515437e-04  -2.7773182e-05   5.7936530e-05  -1.7470219e-04   7.7092671e-05   1.4501347e-06  -5.3261723e-05   1.7004533e-05  -3.9343115e-05  -5.7566271e-05  -2.9066750e-05   3.0551336e-04  -2.8575829e-04  -3.9107725e-04   1.9389230e-05  -1.6380516e-04  -7.3131465e-04  -1.1970916e-04
   4.8238970e-05   5.1617266e-05   4.4691107e-05   6.1661318e-05   3.9524966e-05   3.3676832e-05   7.8068784e-05  -2.3581641e-05   2.2636318e-04  -1.9610688e-04   7.3899326e-05  -8.3446292e-05  -5.1943657e-06  -7.0731927e-05  -8.5984975e-05  -1.2527064e-04   2.4747418e-05  -1.7146980e-04   1.5117842e-04  -1.2011988e-05  -1.1234389e-04   1.5413945e-05  -4.8239279e-05   9.5065361e-06   4.4096118e-06   9.2491668e-05  -1.1740939e-04  -2.0646556e-05   1.1760809e-04   1.7775992e-05  -1.4804713e-04   1.0292501e-04  -9.9722427e-05   6.8840091e-05   6.7555607e-06  -2.0890379e-04   1.0296569e-04   1.2765816e-05  -3.2703600e-05   1.2051791e-04  -1.9930057e-04   3.2146025e-05  -5.9792619e-05  -6.8199137e-05   3.1790268e-04   2.7500960e-04  -6.0948179e-05  -2.7368842e-05  -2.0953969e-03  -1.6464524e-04
   6.3055690e-05   7.1493538e-05   4.8177029e-05   9.0956783e-05   3.4857399e-05   9.4662173e-06   1.2852131e-04  -5.7520738e-05  -4.1153116e-04  -1.7903745e-04   8.2181796e-05  -8.3632200e-05   3.0389274e-05  -1.6186024e-05  -1.1801653e-04  -1.2449181e-04   1.1555201e-05  -2.0518365e-04  -1.3020317e-04   2.0354699e-05  -8.8704444e-05  -2.6536307e-05  -6.1999010e-05  -1.9755678e-05  -6.3461797e-05   2.1765601e-04   6.3705329e-06  -4.1123920e-05   9.2814415e-05  -4.8218726e-06  -1.6532495e-04  -2.3791768e-05   9.2525654e-05  -2.1073181e-05   7.6231690e-06  -1.2531957e-04  -1.5474545e-05   2.1735366e-05   1.1402547e-05  -2.6540331e-05  -7.2347655e-05   6.5874083e-05  -4.2967949e-05  -8.0701699e-05  -2.1670037e-04   1.4359699e-04  -8.1487575e-05  -4.2349369e-05   6.4296485e-04   1.8973782e-04
   6.9501795e-05   6.3776613e-05   3.7884049e-05   8.3305145e-05   1.2492335e-05  -5.0036970e-06   7.7623423e-05  -9.2885282e-05   1.1454459e-04  -1.8466820e-04   4.2939530e-05  -6.7357141e-05  -1.7950482e-05  -4.2165713e-05   8.7120221e-05  -9.1833172e-05   3.1170584e-05  -1.7456792e-04   2.5720158e-04   8.8177416e-07  -9.9842458e-05  -2.0730547e-05   1.0677653e-04   1.0831273e-04  -1.2124918e-05   3.6018821e-05   7.8291996e-06  -1.2271675e-05  -6.4067863e-05   5.4030039e-08   1.2996256e-04   1.6970849e-05   1.5306163e-04   3.4059245e-05   1.3212951e-05  -2.7239596e-04  -1.5124816e-06  -3.5292935e-06  -5.4335931e-05   1.4702317e-04  -1.4099585e-04  -3.1402603e-06  -3.8695081e-05  -2.5086675e-04   3.3088334e-04  -4.8565061e-04   1.3902949e-04  -3.1132367e-05   1.3096250e-03   2.9016720e-04
   2.2918624e-05   3.4602923e-05   6.5795954e-05   2.6188398e-05   2.6819474e-05  -1.0140544e-05  -1.9900488e-05   1.1563402e-05   1.1940404e-03  -1.8286968e-04   4.5411358e-05  -6.4555126e-05   4.4112771e-06  -4.5885325e-05  -7.5643243e-06  -9.3404138e-05   2.8009707e-05  -1.0792850e-04  -2.0846371e-04   2.5036072e-05  -9.3795737e-05  -8.2832950e-05  -1.0869245e-04  -1.1593943e-04  -1.2838571e-04   1.1160471e-04  -6.7993227e-05  -4.2192180e-05  -7.7253469e-05  -5.9548952e-06  -7.3053082e-04   2.1780888e-04  -1.2234064e-04   1.2074684e-04   1.9741155e-05   4.1362774e-04  -2.0799172e-04   2.1135167e-05  -2.1872298e-05   6.3823521e-05   1.4299391e-04   6.6364446e-05  -2.4710027e-05   1.0649257e-04   7.2043513e-05  -2.0262864e-04  -1.0999953e-05  -8.0643651e-05   1.0274814e-03   2.0803603e-04
   5.8704387e-05   7.0289745e-05   5.6811954e-05   7.3285686e-05   3.6822958e-06  -2.4504605e-05   6.0389812e-05  -5.3935375e-05   1.2225613e-03  -1.6843897e-04   5.1751700e-05  -8.5068787e-05   1.9694393e-05  -1.8553874e-05   6.6406676e-05  -5.8684804e-05   1.8936978e-05   3.7013688e-05   4.7370966e-04  -9.4235211e-06  -1.1548798e-04  -8.0664839e-05   5.2080322e-05  -4.6486311e-05  -6.1051527e-05   1.1268916e-04  -1.2340532e-04  -7.9573518e-05   2.3436194e-05  -1.2058841e-05   1.4454575e-04  -8.0519916e-05  -7.3035371e-05   7.8134857e-05   7.7197919e-06   1.8599317e-04  -1.1850900e-05   2.4304316e-05  -8.3073355e-05  -1.2898515e-04  -7.5588243e-05   1.0388270e-04   4.2962747e-06   2.1721977e-05   7.7496188e-05   3.6297755e-05   6.4721935e-05   3.1930711e-05  -1.0573415e-03  -4.9886527e-04
   3.7309957e-05   4.7350422e-05   7.7604789e-05   6.0516973e-05   6.5020017e-06  -1.3804962e-05   7.6576507e-05  -1.1128043e-05  -1.2991294e-04  -1.7869061e-04   6.4898464e-05  -8.2659091e-05   1.9976582e-05  -4.5320387e-05  -2.1800186e-05  -6.3080071e-05   2.3518443e-05   3.5044955e-05  -1.0231674e-03   3.6885587e-05  -1.1273517e-04  -5.6879238e-05  -7.8530074e-06  -1.4573896e-04  -2.3858036e-07  -1.8457591e-04  -1.3203218e-04  -5.6237011e-05  -7.8989651e-05  -5.6292433e-06  -1.2867157e-04   6.3836225e-05   3.7236814e-04   2.3126444e-05   1.5921396e-05  -4.1960462e-04  -7.0978844e-05   3.0952808e-05   3.9038237e-05  -9.6210933e-06   2.7735450e-04  -9.4256648e-05  -5.9495822e-05  -2.2850549e-04  -2.0941610e-04  -3.7718890e-04   1.9576983e-05  -1.1302422e-04  -9.7987264e-05   1.9468231e-05
   4.1492211e-05   7.4777134e-05   5.6787456e-05   7.5071148e-05   3.3466626e-05  -2.5422164e-06   1.1161561e-04  -7.9754143e-05  -6.3876167e-04  -1.5308990e-04   5.9218153e-05  -5.2575582e-05   2.5737641e-05  -3.5594261e-05  -1.2063566e-04  -4.4877532e-05   2.8441644e-05  -2.0222091e-04   2.7136391e-04   5.8190864e-05  -1.0154794e-04  -2.8200544e-05  -8.6514417e-05   4.4299031e-05  -2.9619117e-04   3.3399214e-05  -2.5251658e-05  -2.8615839e-06   6.7888606e-05  -1.7539925e-05  -9.2388276e-05   1.6183124e-04   2.4497876e-04   2.7683151e-05   1.0889197e-05   1.6504402e-04   7.3470670e-05   4.9236696e-05   6.4779961e-05  -1.1925887e-04   1.1482272e-05   4.0154409e-05  -1.3920076e-05   3.9515493e-04   3.6986170e-05  -1.3732562e-04   1.5438837e-04  -9.6730539e-05   5.6235562e-04  -4.7840574e-04
   6.0001315e-05   6.0061659e-05   6.8947360e-05   7.1887793e-05   1.0387703e-05   3.6952202e-05   6.1430677e-05   2.4378174e-05   5.0604960e-04  -1.6136706e-04   7.1211485e-05  -7.7944402e-05   1.9542716e-05  -3.2970009e-05  -3.0481226e-05  -4.3195392e-05   1.9616054e-05   3.6029826e-04  -3.3624083e-04   1.6906342e-05  -1.1067343e-04  -5.3678286e-05  -4.4896937e-05  -8.0771562e-05  -1.6767005e-04  -1.7197592e-04   1.2146448e-04   5.9926010e-06   1.4547356e-04   5.0210242e-06   1.6264504e-04  -1.2570241e-04  -2.1505338e-04  -1.5228442e-04   5.3868131e-05  -1.0237828e-04   1.1009112e-04   4.5546483e-05  -4.9128332e-05  -1.1546900e-04   8.0690574e-05  -5.0361679e-05  -3.7769489e-05   3.3094315e-04  -1.6298135e-04  -2.5983073e-04  -2.6876156e-04  -1.5230954e-05  -1.9871365e-04  -5.0769636e-04
   4.6604360e-05   4.0491228e-05   5.3279298e-05   5.0964376e-05   1.1907351e-05   3.5440695e-05   8.7354914e-05  -1.7589036e-05   2.1103345e-04  -1.5126736e-04   4.9100741e-05  -5.8302157e-05   2.2938126e-05  -8.6145046e-06   7.1922681e-05  -4.9609048e-06   4.1592153e-05   7.3121621e-05  -1.2766792e-03   2.2374159e-05  -9.6658245e-05  -5.5532768e-05   5.1843563e-05   1.2523522e-04  -1.2881797e-05  -9.3544368e-06  -1.5978194e-04  -4.5731969e-05   1.0987402e-04  -2.0897021e-05  -5.8182359e-05   1.2969052e-04   2.5013581e-04   1.8463118e-04  -1.2202137e-05  -4.4742349e-04   9.2671711e-05   6.2787811e-05   4.1500236e-05   6.9179609e-05  -7.9112424e-06   8.5920190e-05   1.0014452e-05  -3.6093759e-04   2.2011875e-06  -8.5957447e-04   1.9110915e-04   1.4072768e-05   1.6101873e-04  -3.6231428e-04
   9.1888061e-05   6.3634718e-05   2.4951860e-05   7.0718648e-05   9.7280927e-06   2.3092277e-06   2.9415145e-05  -3.8189914e-06  -6.5469554e-05  -1.4578483e-04   6.9567017e-05  -5.4817825e-05   4.3354987e-05  -1.4789418e-05  -9.4550007e-05   2.8935572e-05   4.6788722e-05  -2.7860623e-04   9.8531076e-04   2.2151906e-05  -1.0186749e-04  -5.6453511e-05  -2.2084342e-04   9.4080890e-05  -4.4782824e-05  -1.2773278e-04  -3.1613745e-05   8.1239623e-06  -7.5617623e-05   1.8625666e-06   2.0390586e-04   3.1870915e-04  -6.6655259e-05  -1.1369431e-04   5.3973803e-05  -2.6342939e-04  -1.3465286e-04   6.7388937e-05  -3.8335392e-07  -7.3450021e-05   1.0254681e-04   2.2041537e-04   3.9052416e-06  -3.3481765e-04   6.2707397e-05  -5.1413655e-05   2.5362102e-04  -1.7985099e-05   8.9683868e-05  -6.2264409e-04
   7.1986338e-05   4.9807393e-05   6.4136868e-05   5.6972465e-05   1.1824229e-05  -2.8731909e-05   5.3017939e-05  -6.1392848e-06  -2.5514199e-04  -1.5440449e-04   5.8089689e-05  -8.6186134e-05   4.0544568e-05   1.3544327e-05   1.7435388e-05   4.1494779e-05   3.9163606e-05  -2.4910975e-04  -1.0102144e-04   2.2013321e-06  -1.2517670e-04  -8.8187204e-05  -1.3586302e-05  -1.3741548e-04  -1.2082758e-04   1.2944607e-04   4.3006778e-05  -1.7927036e-05  -2.2690889e-05   2.6466872e-05   1.5555635e-04  -3.6186633e-05   3.4632790e-04   2.2962944e-05  -2.3787743e-06   1.4600648e-04  -7.6718788e-05   7.0252441e-05   7.2865355e-06   4.4839438e-05   1.8147436e-04   2.5838723e-05  -9.2830560e-06   2.0983765e-05  -4.6646732e-04   2.7285313e-04  -2.6223221e-04   1.2552959e-04  -1.3357896e-03  -2.5470874e-05
   8.6793305e-05   6.7355846e-05   7.1115232e-05   7.5027965e-05   5.9097649e-05   3.2030028e-05   6.6060013e-05   3.1966611e-05   3.0497400e-04  -1.3111420e-04   9.2954411e-05  -5.6674180e-05   1.6239468e-05  -1.0908509e-05   1.0977063e-04   5.7209560e-05   3.0498883e-05   2.1434901e-04   9.1346866e-04   2.2434142e-05  -1.2565833e-04  -3.2385844e-05  -1.0354166e-04   7.4430507e-05  -1.2494066e-04  -5.8800539e-05   3.6475954e-05  -3.1438096e-05  -8.1149235e-05  -3.9219858e-09   1.1104275e-03   1.3782486e-04  -1.9279412e-04  -4.1629093e-05   1.3422884e-05   8.9220841e-05   1.4273218e-05   7.6174147e-05  -1.7893050e-05   8.1456645e-05  -1.2698556e-04  -3.1606385e-05   3.0652860e-05  -1.0920398e-04   2.5330173e-04   1.4041283e-04  -1.0830755e-04  -2.1004053e-05   7.6359510e-04  -1.7857183e-04
   1.1454055e-04   5.5814635e-05   7.2534640e-05   7.2456423e-05   2.0342342e-05  -1.9459349e-06   1.4085063e-05   1.6389872e-06   6.4367725e-04  -1.4211609e-04   4.5656536e-05  -6.9658308e-05   1.3864976e-05   1.1737918e-05   3.4477143e-05   9.5914453e-05   3.5169385e-05   4.9675012e-04   7.1232347e-04  -6.1106980e-06  -1.1422207e-04  -5.1354826e-05  -1.0603370e-05  -4.7470556e-05  -1.1136015e-05   1.9329082e-04   2.5085870e-05  -7.7310964e-05   8.9310401e-05   2.9506207e-06  -1.0953188e-04   9.3918199e-05   1.4862521e-04   2.6192905e-05   6.2320860e-06   2.4865664e-04  -9.6045027e-05   9.3626441e-05   1.0683372e-05   2.3027077e-04   3.3210788e-04   3.1435024e-04  -8.0819082e-06  -1.9907880e-04  -9.1926355e-05  -2.0599167e-04  -3.1901800e-04   5.9940176e-05   3.7806064e-06  -1.0520872e-04
   6.3336222e-05   3.8599122e-05   6.4432665e-05   7.2770308e-05  -2.6762371e-05   2.3141103e-05   7.7077493e-05   1.2526166e-04  -3.0051605e-04  -1.3889361e-04   7.3046576e-05  -5.1874573e-05   4.0387564e-05   1.3813581e-06   3.7374091e-05   1.3002323e-04   2.2220873e-05   1.3998765e-04   6.3461222e-04   3.6700221e-05  -1.1355276e-04  -6.9753682e-05  -1.7731612e-05  -2.2486200e-05  -1.4823859e-04   8.4042338e-05   1.4465798e-04  -2.9993285e-05   3.9455041e-05  -1.8396333e-05   1.2352718e-04   1.5727174e-04   5.5116694e-04  -1.7533550e-04   1.6457110e-05   8.9765046e-05  -1.2266966e-04   9.3991381e-05  -2.9561363e-05   3.4354355e-06   1.5253125e-04  -4.2645079e-06   3.8950326e-05   1.6820432e-04   9.5151145e-06   1.1280647e-04   2.2157456e-04  -6.3004984e-05  -1.6116395e-03  -2.6301498e-04
   1.0276807e-04   6.3344436e-05   6.0623763e-05   7.6945704e-05   3.9569932e-05   1.3947000e-05   6.4119085e-05   4.5973960e-05  -1.0797142e-03  -1.2748656e-04   7.8709207e-05  -5.2268068e-05   1.9814021e-05   6.4793371e-06   6.0880188e-06   1.0297302e-04   4.0534524e-05   2.5632029e-04  -9.6292188e-04   1.4823363e-05  -1.0277868e-04  -9.0138063e-05   5.7545778e-05   1.7160277e-05  -1.0579197e-04   7.8946643e-05  -4.1939144e-05  -9.2605105e-06  -4.7271620e-05   1.5421912e-05   1.6888302e-04   8.5283340e-05  -5.3789274e-05  -9.5640244e-05   1.7853412e-05   8.0404476e-05  -3.2306805e-05   1.0528745e-04   7.4812197e-06   7.9279278e-05  -7.5107324e-05   6.1510007e-05   2.7377942e-05  -2.8373286e-05   1.7602579e-04  -4.7863141e-04  -6.1502462e-05   2.9162376e-05   9.7089732e-04   4.7712043e-04
   1.0435023e-04   3.8506802e-05   7.2820854e-05   7.3749397e-05   5.6859008e-05   5.3685351e-05   1.1037051e-04   5.5851389e-05  -1.7468950e-04  -1.3820312e-04   7.4916315e-05  -7.5832511e-05   3.3456734e-05   8.7102489e-06  -7.9653946e-05   1.2817787e-04   5.6245455e-05   3.0774419e-04  -2.3572009e-04   1.8774251e-06  -1.0030218e-04  -5.3483658e-05   6.2161635e-05   1.6901336e-07   8.5920263e-05   1.9660919e-04  -2.3361305e-05  -4.0131330e-05   1.4448616e-05   5.7212701e-06  -3.5789155e-04   5.2609720e-04  -1.0795947e-04   4.9526097e-05   1.7007553e-05   2.2003928e-04  -3.7867696e-05   7.9799276e-05   5.8060300e-06   2.2841635e-04   1.0574541e-04  -3.5799228e-05  -1.7267917e-06   1.3684094e-04  -1.4787770e-05  -6.4040261e-04   1.2775668e-04   4.0461804e-05  -4.0742432e-04  -2.5288868e-04
   1.0158870e-04   6.1271669e-05   8.5368803e-05   5.6856305e-05   3.8796050e-05   4.8553287e-05   6.3342311e-05   9.7879136e-05   4.1902860e-04  -1.2436892e-04   9.9852114e-05  -1.4745459e-05  -2.4067900e-05   2.2029533e-06  -5.6848949e-06   1.3976159e-04   3.8430182e-05   6.5056774e-05   5.8107026e-04   1.8504405e-05  -9.9616045e-05  -9.0231311e-05   7.7291144e-05   2.0059691e-05   1.1972181e-05   2.4317997e-04   9.0804548e-05   4.1620966e-05  -3.6181107e-05  -1.0259905e-05  -5.6787238e-05   2.1281846e-04  -4.2621771e-04  -8.9620135e-06   1.6150070e-05   4.0563522e-05  -2.8258817e-05   7.8521000e-05   1.7654756e-05   5.6436005e-05  -1.0853387e-04   4.9691276e-05   3.6106634e-05  -9.9539247e-05  -2.3824646e-04   2.7123568e-04   1.7283130e-05   1.2113495e-04   3.1742803e-04  -2.2871663e-04
   7.7625227e-05   5.2107902e-05   2.5937708e-05   5.5142635e-05   3.9483089e-05   3.1468782e-05  -2.5030538e-05   5.3274234e-05  -3.5390060e-04  -1.3635270e-04   7.7974997e-05  -2.1759175e-05   4.0728992e-05   2.9634002e-05   6.1355399e-06   1.5651513e-04   4.9122824e-05   4.4684272e-04   4.4930037e-04   1.8884461e-05  -1.0679774e-04  -6.9446076e-05   7.8883662e-05   4.4658398e-05  -3.0388754e-05  -7.6234261e-05   1.5453645e-05  -9.4911384e-06   6.4179352e-05  -1.5629977e-05  -2.7877503e-04   1.6251196e-04  -4.3164520e-05  -1.2116920e-04   2.8955988e-05   9.8094628e-05  -7.1763985e-05   8.4173298e-05   3.6799702e-05   4.3444001e-05   2.1679704e-04  -4.9157508e-05   2.7881919e-05   1.9838604e-04  -2.8377690e-04   7.0780434e-04  -1.7029524e-04   5.3968648e-05  -6.7137065e-04  -6.9992500e-05
   3.0644536e-05   4.0810781e-05   6.0000155e-05   2.3024626e-05   1.2670553e-05   8.6133350e-06   6.7788365e-05   1.3893812e-04  -9.2262217e-06  -1.3035953e-04   7.6365846e-05  -3.4799665e-05   4.4790992e-05   6.0204227e-05  -4.6558300e-05   1.6344701e-04   8.8670213e-06  -4.8018625e-05   1.0866737e-03   1.9832883e-05  -9.4729949e-05  -4.0971358e-05   9.8479264e-05  -1.2935809e-04   7.4889074e-05  -1.8594404e-04  -1.1095437e-04   7.7637393e-05  -1.6541938e-04   1.9071904e-05   3.0796169e-04   1.4957180e-04  -3.4755285e-04  -1.3241476e-04   8.5651827e-06   4.3428889e-05   8.3967927e-05   1.0286510e-04  -2.0069472e-05   5.8405181e-05   2.9519756e-04  -3.6627425e-05   1.2174026e-05   3.0295976e-04  -1.9186133e-04  -6.6261139e-04   5.1894909e-05   2.9111554e-05   8.3259933e-05  -2.7932576e-04
   8.8866640e-05   5.5484070e-05   4.8546470e-05   7.5037184e-05   3.2735341e-05   1.2197846e-05   5.4656107e-06   8.5914646e-05   4.7517857e-05  -1.2551619e-04   8.1843020e-05  -3.2676715e-05   2.0749610e-05   3.7082569e-05  -1.2218140e-04   1.3271799e-04   5.0428662e-05   2.7438163e-04   8.9551450e-04   3.6771551e-05  -8.9869027e-05  -4.5620207e-05   2.2183665e-05   4.4627715e-05   2.4290610e-05   5.5419136e-05  -5.1494724e-05  -2.6759624e-05   1.8695628e-04  -1.9825937e-05   4.0828437e-04  -9.8688834e-05  -3.9922461e-04   9.2550545e-05   4.2930202e-05   1.2064986e-04  -9.4456162e-05   9.4751253e-05  -6.7342837e-05   2.0058067e-04   6.4957967e-05   2.6477507e-04   7.0394503e-06  -2.0674369e-04   2.5019681e-04  -7.3757040e-04   2.2878830e-04   6.4803885e-06  -4.7350620e-04  -3.8574822e-04
   5.9990802e-05   4.2872984e-05   4.4692431e-05   6.9608694e-05  -4.8949896e-06   3.2124011e-05   1.5844467e-05   1.2757082e-04  -7.4461765e-05  -1.3683114e-04   9.5969161e-05  -4.1766591e-05   4.8872596e-05   4.8056976e-05   1.0015716e-04   1.2185426e-04   5.7594047e-05   2.4812808e-04   6.0227042e-04  -2.4958817e-06  -1.1016305e-04  -5.3894506e-05   1.2956237e-04  -2.0069338e-05   2.2247397e-04   2.4875146e-04   4.4671547e-06   3.2124026e-05   1.6145741e-04   5.0074486e-05   5.0945535e-05   5.1980305e-06  -1.6302901e-04  -1.5992473e-04   3.6604146e-05   1.1953699e-04  -8.3536215e-05   8.6608983e-05   4.4005556e-05   3.4497941e-06   1.1230594e-04   1.3784520e-04   1.2047664e-06  -9.5411626e-05   1.2939441e-05  -5.5968307e-04   1.2355295e-04  -4.5160192e-05   3.1797474e-04  -1.6926006e-04
   9.3247982e-05   6.0221817e-05   6.0115759e-05   7.8349905e-05   3.8004666e-05   3.2462787e-05   9.9083154e-05   1.0516997e-04   1.2504857e-03  -1.1142107e-04   7.1065122e-05  -1.7183267e-05   1.1165076e-06   6.8900161e-05  -7.3873198e-05   1.1910006e-04   4.6046433e-05   2.9725331e-04   9.6547429e-04   2.7819522e-05  -7.9533464e-05  -4.7023899e-05   1.6070435e-04   3.6184847e-05  -1.4809858e-04   3.4353856e-04   2.0553396e-05  -7.1783088e-06   3.2303033e-05  -2.9322420e-05   4.2550289e-04   6.1680337e-05  -2.1010239e-04  -5.7709913e-05   7.2210469e-06   6.9575806e-05  -4.3072840e-05   9.5149982e-05   9.6095362e-05   3.5972110e-04   1.4584332e-06  -3.0819434e-04   3.8497798e-05  -3.7773955e-04   1.8805674e-04   2.6003823e-05  -1.0252112e-04   2.3547373e-05  -8.4535661e-04  -4.5126543e-04
   8.0446145e-05   5.1738880e-05   6.4198117e-05   6.2428750e-05   2.3205434e-05  -3.1064938e-05   8.0679063e-05   5.7968584e-05  -1.3942501e-04  -1.2210423e-04   7.6797347e-05  -1.9465309e-05   3.9974464e-05   4.8721311e-05  -8.7158398e-05   1.4638052e-04   4.6693080e-05  -1.2217621e-04  -1.8915869e-04   1.7725935e-05  -8.7503460e-05  -4.9360089e-05   4.7447975e-05  -8.1870916e-05  -1.9852527e-04   9.4170529e-05  -1.1509602e-04  -1.3990807e-05   7.8017430e-05  -1.8722085e-05  -2.0114999e-04  -2.4637632e-04   2.6204201e-04  -2.1098014e-05   3.2397762e-05  -3.4867175e-04  -3.2940810e-05   7.9995967e-05   5.5911819e-06  -3.8732204e-04  -1.5122985e-04   9.2780037e-06   8.5580186e-06  -1.7209166e-05  -1.1341788e-04   1.6206483e-05  -8.3319756e-05  -1.3762503e-05  -3.7214594e-04  -2.5022280e-05
   8.2186649e-05   3.0667710e-05   7.2016075e-05   4.1525647e-05   2.1666159e-05   6.6212415e-06   1.3688914e-04   1.2671671e-04   2.1843839e-04  -1.0601064e-04   8.7914188e-05  -3.8447652e-06   1.9383811e-05   3.6747988e-05   7.0969145e-05   1.0561589e-04   1.6438276e-05   1.3198010e-05   2.6155464e-04   1.5637275e-05  -8.4340230e-05  -3.8047365e-05   5.6573754e-05  -1.5519779e-04  -7.3255920e-05  -1.8426730e-05   7.0957467e-05   6.9080706e-05   3.8990082e-05   2.2596054e-05   1.6523413e-04   3.9837496e-06   2.7860596e-04   2.5729543e-05   4.9811474e-06   5.1375094e-04  -2.2030606e-04   8.5203923e-05   4.0536732e-05  -2.4104758e-05  -3.5723344e-05  -1.5002948e-05   2.8653410e-06   3.1378277e-04  -2.0907939e-04  -6.7086457e-06   5.6324911e-04   1.0209931e-04  -3.2389213e-04  -1.6376449e-04
   1.0508366e-04   6.6469933e-05   6.1918370e-05   8.5160296e-05   5.2990825e-05  -3.8573071e-06   5.0700841e-05   5.4342196e-05  -5.7733571e-04  -9.9028701e-05   9.7965618e-05  -1.7022927e-05   1.4586628e-05   4.8828879e-05  -7.9654368e-05   9.0491274e-05   4.6337456e-05   4.0507296e-04   8.7492175e-05   3.6613164e-05  -7.4983640e-05  -8.5682201e-05  -2.4152516e-06   1.1164102e-04   1.6970465e-04  -1.7621064e-04  -1.0366675e-04   4.3320028e-06   1.3933600e-05   1.7746122e-05  -2.1977224e-04  -1.4036772e-04  -5.3104639e-05  -8.0086822e-05   1.6203217e-05   2.6128941e-05  -7.0688642e-05   8.1001235e-05   5.0372044e-05   2.0550912e-04   1.1766505e-04   1.7366980e-05   1.6207852e-05  -1.9800733e-04  -4.6562598e-04  -9.4715913e-04  -1.7586525e-04   8.6212232e-05   9.2180190e-04  -8.7183209e-05
   9.0198642e-05   4.3858781e-05   4.5261299e-05   5.3357453e-05   9.4670877e-06   2.9382954e-05   9.0557296e-05   6.9573965e-05   2.7259599e-05  -1.0913719e-04   7.5388190e-05  -3.9523482e-05   3.0893832e-05   9.8471108e-05   7.7060453e-05   8.7710789e-05   3.2747485e-05   3.4600518e-05  -1.2132672e-04   3.7351139e-05  -8.4476975e-05  -1.4842332e-05  -8.1896527e-05  -4.2234558e-05  -2.0375765e-04   1.0265384e-04  -6.6479501e-05   2.2220671e-05   8.1968494e-05  -9.2506807e-06  -4.4742039e-05  -3.2548073e-07   1.9210188e-04   1.1168893e-04   1.4999861e-05  -2.4206329e-05  -9.6682954e-05   5.6441120e-05   1.0540430e-04   1.4707827e-04   1.4647869e-04  -2.1072321e-04   4.3727483e-05   2.3866851e-04   3.3533768e-04  -6.6544878e-04  -4.7523848e-05   3.7894290e-05   9.9324225e-04   9.7433644e-05
   6.2676954e-05   7.2902192e-05   7.4181560e-05   7.1685521e-05   7.8828336e-05   7.2215603e-06   1.4092814e-04   5.2969415e-05  -1.0217980e-03  -9.0862013e-05   1.0092702e-04  -4.0206955e-06   2.5216505e-05   5.2860021e-05  -1.4776718e-04   7.6506258e-05   4.9488353e-05   4.2144471e-04  -1.7220454e-03   4.7279937e-05  -7.7376157e-05   2.8451694e-05   1.2909992e-04   7.7267068e-05   2.7688640e-05  -6.0863833e-05  -6.1082836e-05   7.3530966e-05  -9.9010773e-05   3.2108561e-05   3.4966174e-04  -8.9961417e-05   3.6039954e-04   5.2514446e-05   2.1777618e-05  -4.4236847e-05  -1.3715150e-04   5.3932949e-05   4.9336188e-05  -1.4068511e-04   5.7082467e-05   2.9766368e-04   8.4478252e-06  -1.1123279e-04  -2.0196447e-04  -3.2962699e-04   4.1341380e-05   7.7959106e-05   1.3091771e-03  -4.8060721e-04
   8.8694433e-05   6.5237778e-05   8.3122490e-05   7.4559728e-05   2.5718828e-05   3.5752375e-05   9.0270434e-05   4.5186887e-05   2.1609922e-04  -9.4921939e-05   7.8368270e-05   7.6901051e-06   2.8892480e-05   6.3157895e-05   2.7299538e-05   6.7732952e-05   5.5532979e-05  -2.8642101e-04  -2.9685046e-04   1.5292060e-05  -8.6578300e-05  -1.8742683e-05   9.6354343e-05  -8.2488921e-05  -1.3707859e-04   2.6057861e-04  -1.0653103e-05   5.3013728e-06  -1.1259869e-05   1.4496911e-05   1.5557880e-04  -9.0942536e-05  -2.0178923e-04  -4.1636729e-05   5.3174212e-05   6.8629153e-05  -8.2123101e-05   4.1981286e-05   8.5027983e-05   2.8458066e-05   2.6316301e-04   2.7500585e-04   2.9603932e-05   2.4985240e-04   2.7317967e-04   3.0996517e-04  -1.3039046e-04   8.8807144e-05   8.6623197e-04   7.5491453e-06
   6.8640780e-05   4.6873072e-05   6.4589054e-05   5.0720071e-05   2.1420976e-05   7.0756156e-05   1.4987680e-04   1.0352679e-04  -2.5172145e-04  -7.1232971e-05   9.9646844e-05  -1.4378445e-05   4.9922561e-05   8.4004067e-05   2.3449174e-05   7.3082592e-05   3.6175927e-05   8.4635649e-05  -9.8490716e-05   1.9167559e-05  -7.1066133e-05  -1.0883571e-05   8.2286628e-05  -1.7399900e-05  -2.6052591e-04  -2.1562159e-04   6.3312007e-05   4.3036471e-05  -2.9393104e-05   2.8385379e-05  -2.2040799e-04  -1.0675676e-04   1.4075697e-04  -1.1479014e-04  -1.2006972e-06   3.9857771e-04  -1.0790407e-04   5.9626185e-05  -9.9978024e-05  -2.6832990e-04   1.3930649e-04  -7.5193027e-05   2.9090672e-05  -9.6391988e-05   9.6509379e-05  -6.2108814e-04   8.5168895e-06   6.0949493e-05  -1.1052619e-03  -4.0348122e-04
   1.2063588e-04   7.1095521e-05   8.0662438e-05   7.2657080e-05   2.9270675e-06  -6.4079418e-06   7.7000019e-05   8.0773600e-05   4.4178640e-05  -7.7336124e-05   8.8503330e-05  -2.0396959e-05  -3.0650388e-06   5.1773561e-05  -6.5642504e-05   6.0487910e-05   2.6580559e-05   5.1975655e-07  -1.3216367e-03   2.3672324e-05  -7.1953385e-05  -5.5669238e-06  -1.8083751e-05   2.3847932e-05  -1.4772280e-05  -1.2314531e-04   1.7027838e-05   3.4113104e-06  -1.5787780e-05   2.2174216e-05  -9.2311879e-05  -1.3285913e-04   2.2357965e-05  -3.4550147e-05   2.1429967e-05   2.2631268e-04  -1.1180646e-04   6.2261548e-05  -1.3222800e-06   9.1212394e-05  -6.7570663e-06  -5.6271012e-05   3.5711637e-05   1.2773713e-04   2.9473312e-04  -9.3772158e-04   1.0872050e-04  -3.6396741e-05  -6.7154336e-04  -3.2577358e-05
   7.5675467e-05   4.9916114e-05   7.9711492e-05   6.0114533e-05   2.8761668e-05   5.5651180e-05   1.1277321e-04  -3.4647113e-07  -6.2359840e-04  -9.2441565e-05   7.3682517e-05  -6.2525985e-05   2.2080572e-05   3.9272731e-05   1.2634108e-04   7.3277188e-05   3.8953389e-05  -2.1505677e-05  -2.9139768e-04   5.1006487e-06  -7.0774979e-05   2.0052208e-05   3.7037269e-05   8.2535218e-05  -5.8723572e-06   1.4312613e-04   1.3733878e-04   4.0971125e-05   4.9095470e-05   4.9047401e-05   1.2991125e-04   3.1006213e-05  -4.2453976e-04  -1.6850765e-05   6.4969972e-05  -3.6691665e-04  -2.0880753e-04   6.2927764e-05   1.1022382e-04  -2.7795164e-05   7.9268459e-05   2.5759701e-04   5.8572525e-05  -2.9483577e-04   6.3919593e-05  -1.4976040e-04   1.6393991e-04  -1.5511954e-05   3.7135347e-04  -1.3690545e-04
   8.6113454e-05   7.3355783e-05   9.5773794e-05   6.8629641e-05   1.8203767e-05   4.2522846e-05   6.6093970e-05   5.8425918e-05  -5.7404721e-04  -6.4779102e-05   8.8764878e-05   1.2128256e-05   3.1668819e-06   5.7963785e-05  -3.3397246e-05   5.3427404e-05   2.6729042e-05   7.1909722e-05  -1.2441074e-03   3.5431334e-05  -6.3550840e-05  -1.7724809e-05   4.8664369e-05  -5.1197454e-05   4.4623979e-05  -1.4241504e-04   3.1997275e-05  -1.4261146e-07   8.5177409e-05   1.8524614e-05   1.0308228e-04  -1.6259868e-06  -1.3970789e-04   1.7800950e-05  -1.8282257e-05   4.5043384e-04  -1.6672753e-05   6.4825072e-05  -1.0835051e-04   2.2665317e-04   2.1058696e-04   2.4275338e-04   4.2416654e-05   1.9628866e-05  -3.1074014e-04   2.3155818e-04   1.0164300e-04   4.2247924e-05  -6.8922085e-04   6.5312459e-04
   7.2195056e-05   5.7682220e-05   8.9330519e-05   6.4810112e-05   4.2383301e-05   4.4486686e-05   8.7284330e-05   6.2726984e-05  -3.6359488e-04  -7.7345190e-05   7.9060570e-05  -3.1105657e-05  -1.0689137e-05   7.5158321e-05   2.9824978e-05   4.6956193e-05   4.6070396e-05   4.5774071e-04  -1.0967625e-03   1.1060357e-05  -6.3896041e-05  -2.6524429e-05  -6.6806460e-05   6.9329973e-05   3.5243243e-05   1.8809180e-04  -5.7709887e-05   1.6169854e-05   5.5129544e-06   3.7907157e-06  -1.4914948e-04   1.8014044e-04  -1.1264047e-04  -2.0766900e-05  -7.4230493e-06   2.9137323e-04  -4.0054776e-05   4.8016700e-05   2.4840610e-05   1.1187631e-04   3.5612840e-05   1.5606549e-04   6.3817322e-07  -6.2463165e-05  -1.2523745e-04  -2.2510957e-04   5.4968135e-05   5.9072743e-05  -2.4566657e-04  -3.6410999e-04
   9.9482997e-05   7.5896314e-05   9.7535180e-05   6.7582296e-05   5.6120400e-05  -5.3961418e-08   1.4627207e-04   3.9286246e-05   6.2677500e-05  -5.4403128e-05   9.3401242e-05   1.2050333e-06   2.8317447e-05   5.1604915e-05  -4.9638453e-05   5.4692624e-05   3.9691622e-05   3.0396244e-04   3.1673751e-04   2.1888241e-05  -5.1601804e-05  -6.4591113e-05   1.9263474e-05   8.5892600e-05   2.7052886e-04   7.2662464e-05  -9.8918390e-06   2.4450059e-05  -3.0512792e-06  -9.5255346e-06   8.3482446e-04  -1.3855624e-04   2.0057813e-04   8.6066502e-05  -2.1188509e-06   2.1828440e-04  -3.1275937e-05   7.1743169e-05   3.4649656e-05   2.1180586e-04  -6.3780084e-05   1.5455716e-04   3.4996123e-05   7.7866818e-05   7.9130179e-05  -1.2572361e-04  -1.7204932e-04   6.9084417e-05  -5.5957941e-04   6.4288899e-05
   4.6564499e-05   6.8102163e-05   6.9598245e-05   6.6037021e-05   3.4307643e-05   1.0099423e-04   1.0647896e-04   8.6722983e-05  -2.1927137e-04  -6.4176435e-05   5.3305030e-05   3.5366497e-06   4.5653447e-05   6.9067610e-05   1.0029647e-05   2.3991286e-05   3.1129661e-05  -7.7242301e-05   1.1675492e-04   1.1370047e-05  -4.5518416e-05  -1.5231287e-05   9.8445096e-05   3.1127027e-05  -2.5795780e-05   5.5648063e-05   5.7918554e-05   3.0762698e-05   4.7870246e-05   1.4413804e-06   1.7130304e-04  -1.9313367e-04   3.6938240e-05   1.9876061e-05  -4.5470460e-05   2.0287259e-04  -3.4276178e-04   5.3828044e-05   4.6097586e-05   4.4517175e-05   1.3333473e-04  -4.4659606e-05   1.2718532e-05   3.1073968e-04   2.4912125e-04  -1.2834228e-04   8.1538119e-06   1.3894245e-05   8.5652061e-04  -2.7249308e-04
   8.1131373e-05   5.1637962e-05   4.8207581e-05   4.3858174e-05  -1.9254239e-05   4.0957024e-05   7.4797521e-05   8.3458935e-06   1.1228446e-03  -7.5039759e-05   7.3146985e-05  -1.4258792e-05   3.5190435e-05   6.1021288e-05   2.5282037e-05  -7.4427703e-06   3.4366221e-05  -7.2364652e-05   3.3599683e-04   1.4149654e-05  -4.1529245e-05  -4.3075343e-06  -1.3270731e-04   1.0878234e-04  -3.3308286e-05   1.1768545e-04   3.6723261e-05   1.7642002e-05  -5.6771190e-05   2.2117520e-06  -3.4173694e-04  -1.4278019e-04  -1.4510973e-04   8.8662724e-05   1.3431978e-05   5.4527796e-04  -1.5076247e-04   4.3758977e-05   5.3793814e-05   4.8409569e-05  -1.4629493e-04   9.3323477e-05   5.1957875e-07   4.4939129e-04   7.6447388e-05  -1.1629809e-03   3.1632817e-04   7.5589021e-05   1.0908023e-03  -5.6419638e-04
   1.2047679e-04   8.2042061e-05   5.3941490e-05   7.4734045e-05   4.9410632e-05   7.1059527e-05   1.2081723e-04   8.7287684e-05  -1.2884651e-04  -5.6317142e-05   7.2137787e-05   1.2133896e-05   3.1355019e-05   5.3621981e-05   2.7806036e-05   1.8263056e-05   4.9566872e-05  -8.0159472e-05  -1.1505259e-03   2.6500446e-05  -2.5051559e-05  -1.8749499e-06   1.2526843e-04  -9.2430033e-05   9.0700116e-05  -8.3484911e-06   1.0723264e-05   1.1038639e-05   4.4899778e-05   2.6043783e-06   6.0890429e-06  -1.7777956e-04  -2.3347654e-04   4.5670218e-05  -1.9906793e-05  -1.9191057e-04  -2.6593887e-04   4.9119291e-05  -4.3431639e-05  -2.1115542e-05  -3.7366961e-05  -2.5933130e-05   8.4759877e-06   5.7318419e-05  -2.0118932e-05   5.3286133e-04  -7.6973229e-05  -6.3393658e-05   1.0819273e-03  -3.5201121e-04
   7.0544302e-05   6.5544969e-05   7.3701936e-05   7.3130097e-05   6.5398082e-05   4.0609491e-05   2.9756144e-05   3.1784984e-05  -4.9691578e-05  -5.9956164e-05   6.7406298e-05  -1.3514220e-05   2.6866745e-05   5.9346494e-05  -1.2382159e-04  -8.8252928e-06   3.9666549e-05  -3.7443147e-05   1.1366544e-03   2.1548480e-07  -4.0458417e-05   1.5432932e-05   9.3231778e-05   2.6640426e-05  -1.4609398e-04   5.2108648e-05  -7.1064101e-06   2.0863155e-05  -1.1632454e-04   3.2600990e-05   4.0665924e-04  -1.4211289e-05   4.2835120e-05  -1.1973890e-04  -4.8706395e-05   4.3389789e-04  -2.3547618e-04   3.3996697e-05   4.7027792e-05   7.0588743e-05   3.7909826e-04  -1.3576538e-04   1.8848687e-06   4.5123175e-05   1.2217934e-04   8.1104336e-06  -2.0081432e-05  -1.6606722e-05   1.0398483e-03   4.3752851e-04
   1.3052131e-04   7.5632961e-05   4.6734142e-05   4.7402194e-05   3.4036977e-05   3.9000814e-05   1.3680560e-04  -1.6702790e-05   9.4268908e-04  -3.2773602e-05   4.9760682e-05   1.8983012e-05   1.6564465e-05   2.5486052e-05  -6.8063076e-05  -1.2469915e-05   5.0062452e-05  -1.3648855e-04   6.2014838e-04   2.0854362e-05  -2.2332153e-05   4.0452782e-05  -3.7173320e-06   1.5740286e-05   7.0434439e-06   5.7228048e-05  -1.0076292e-04  -3.9199109e-05  -2.4801893e-06   4.4011846e-05  -8.4617035e-04  -8.6156746e-05  -7.7255769e-05  -5.3348580e-05   4.0265391e-07  -8.2772580e-04  -3.0184790e-04   4.3679363e-05  -5.5993685e-05   1.0067201e-04  -3.6367791e-04  -1.6100271e-04   1.0094599e-05   1.0325017e-04   8.9805821e-05   2.7023282e-04   7.4276992e-05   7.5012125e-05   2.0124538e-04  -3.5950865e-04
   8.5971871e-05   7.5062759e-05   5.4248201e-05   8.2353166e-05   4.8800601e-05   4.0581548e-05   1.5630500e-05   7.2085641e-05   2.7247216e-04  -3.7213696e-05   5.0979361e-05   2.3327912e-05   8.4723879e-06   5.8378664e-05   4.1188694e-05  -1.5070873e-05   5.9494287e-05  -1.0364919e-04   6.4550369e-04   3.0420224e-06  -3.2198994e-05  -2.6270805e-05   7.0465088e-05  -2.3568013e-05   1.9654079e-04   8.3619070e-06   2.7587404e-07  -3.8115684e-06  -1.0411611e-04  -1.6635255e-05  -4.7420111e-04  -1.6532540e-05  -5.2621576e-04   1.7019721e-04   4.8434290e-06   2.5256680e-04  -6.1293831e-05   3.8741102e-05   2.3101482e-05   3.0827086e-04   1.5321215e-04   1.4862958e-04   1.6132213e-05   2.3443605e-05  -1.5605494e-04  -7.8386650e-04  -2.2668163e-04  -1.2282014e-05  -5.4668740e-04  -2.5255044e-04
   7.7963705e-05   4.8680162e-05   3.9534105e-05   3.5306319e-05   2.6428723e-05   4.6719022e-05   1.0469264e-04   3.1482581e-05  -3.1030117e-04  -4.8768379e-05   4.4819117e-05   3.5875129e-07   3.4367586e-05   5.7484071e-05  -9.2305425e-05  -1.1403993e-05   1.1310387e-05   6.4259599e-05   1.7464029e-03  -1.1585149e-05  -3.6796682e-05   1.2284592e-05   3.4305416e-05   2.0803401e-04  -6.2310450e-05   4.7855872e-05  -7.2404924e-05  -4.3939566e-05  -6.0478364e-05   1.3959298e-05   1.7756944e-05  -5.0592305e-05   5.6398776e-04   2.8633734e-05  -4.5234024e-06  -5.6567253e-04  -2.4051110e-04   4.4166085e-05   4.6252077e-05   2.6954466e-04   2.2019028e-04   6.3392974e-05  -5.2174937e-06  -1.0793430e-04   2.7526671e-04  -4.9932534e-04   2.1420654e-04  -1.1154740e-04  -2.0291182e-04   8.1602266e-06
   8.2813087e-05   8.0427730e-05   4.3496577e-05   8.9069283e-05   1.2546378e-05   2.1906828e-05   7.9961690e-05   7.8595684e-07  -6.0213171e-04  -3.2436266e-05   6.4809683e-05   6.8798035e-06   3.6079593e-05   3.3245091e-05  -1.9270123e-05  -5.6704489e-06   2.5515112e-05  -2.6601043e-05   5.8955222e-04  -1.7965576e-05  -2.4046345e-05   3.7489258e-06   5.7418369e-05   9.9224060e-05  -2.5882327e-04   1.9747182e-05  -1.2172628e-04  -2.7512047e-05  -1.1716763e-05   1.8035385e-05   3.1268080e-06  -1.7524981e-04  -4.1905441e-05   6.3095111e-05  -1.9997537e-05   4.7835423e-05  -8.5773543e-05   3.9610619e-05  -6.0316182e-05   9.0197347e-05  -7.8239464e-05  -2.3461494e-06   2.3140163e-05   3.6559402e-05  -3.5104790e-04  -1.3339417e-03  -5.1083985e-05  -1.2985503e-05   2.4328317e-04   1.1152090e-04
   7.7750199e-05   6.4462583e-05   5.3944848e-05   6.3804444e-05   5.4760094e-05   2.5922685e-05   5.8125457e-05  -1.3741578e-05   1.6272622e-03  -4.1898540e-05   3.7844726e-05   1.0851076e-05  -1.7566374e-06   4.5689696e-05  -1.5804025e-04  -2.7113307e-05   3.5148310e-05  -3.9786586e-04   2.0788354e-04  -1.6787935e-05  -3.2454300e-05  -2.4428749e-05  -1.3255852e-05  -1.3159504e-04   2.9226023e-05   3.0713866e-04  -6.9768462e-06  -8.5956242e-05   1.1532502e-05  -4.7247097e-05   4.3814053e-04   1.8205206e-04   3.3348781e-05   1.7640432e-05  -6.0108941e-06   4.7763602e-05  -1.3269833e-04   2.2298214e-05  -1.1936689e-04  -5.3229021e-05   1.2111536e-04  -1.1980537e-05   1.5792584e-05  -9.2399343e-05   5.3311211e-05   1.4829365e-04  -1.4683463e-04  -4.0406063e-05   1.2529947e-04   5.3676085e-05
   9.7506141e-05   6.7345973e-05   4.7296526e-05   5.5919754e-05   2.9555666e-05   4.7593141e-05   9.9503610e-05  -1.0008547e-05   1.9012396e-04  -1.7390741e-05   5.6046585e-05   1.2273940e-05   2.0793654e-05   8.8690802e-05   2.0910591e-05  -4.3344909e-05   5.2494350e-05   5.0912749e-05   1.2881841e-04   1.7446859e-05  -2.3519597e-05   1.2883858e-06  -6.4082931e-05   2.0246069e-04  -1.6427957e-05  -9.6645213e-05   2.9554018e-05   3.7020294e-05  -4.9809340e-05  -3.2909567e-05  -1.9951888e-06   2.1914337e-04  -4.2828666e-05  -1.0471669e-05  -1.8790925e-05   9.5515643e-05  -3.9362203e-04   5.0080529e-05  -9.1396381e-05   2.4522204e-04  -8.8406181e-05  -1.1133906e-04   1.5609021e-05   6.2753781e-05  -4.9527118e-04   3.6821995e-04  -2.1063843e-05   3.7555648e-05   7.1139948e-04   1.7234814e-04
   1.0511882e-04   6.7864959e-05   2.8155160e-05   5.7028363e-05   8.9621670e-07  -9.4838852e-06   9.4980671e-05  -7.7327650e-06  -2.7488350e-04  -2.5248146e-05   7.3381379e-05   1.9009865e-05   1.9714262e-05   4.3882941e-05   2.8948012e-05  -1.0814328e-05   3.5481091e-05   5.0540024e-05  -4.6179042e-04   5.1962538e-06  -3.0038151e-05  -7.7133546e-07  -7.8277473e-05  -4.9501186e-06   1.3384511e-04   3.2187821e-05   9.9211364e-05   6.3723208e-05   4.4940589e-06  -1.1108717e-05  -2.4301300e-04  -1.2439860e-04   2.7692260e-04  -2.6707203e-05  -1.1456771e-05  -5.2285599e-05  -2.1051875e-04   3.9959374e-05  -5.2680243e-06   1.7097988e-04   3.4134897e-05  -2.1893761e-04   1.0256940e-05   2.0833674e-04  -6.5122957e-05   5.1774252e-05  -2.1441690e-05  -7.5669799e-05  -4.0200754e-04   8.3492763e-05
   4.7493111e-05   4.9685626e-05   4.8655824e-05   3.0371919e-05   3.4311426e-05   4.6286434e-05  -5.9239352e-07  -1.4163030e-05   5.2198017e-04  -3.5788555e-05   4.3597800e-05   7.7809227e-06   2.7384327e-05   3.4063163e-05   8.0985876e-05  -3.6782931e-05   4.3427295e-05  -2.0474615e-04  -2.1231260e-04  -1.9522273e-05  -3.0012958e-05  -3.1372412e-07   1.5306008e-05  -3.4904009e-05   1.4266944e-04   5.2474315e-05  -8.9868729e-05   5.6175850e-05   3.6885813e-05   8.9933201e-06  -4.5857312e-05  -1.8163001e-04  -1.7631393e-04   2.5160918e-05   1.4884673e-05   3.1841174e-04  -2.6767771e-04   2.7127340e-05   4.9395592e-05  -5.0587634e-05   7.8216708e-06   5.3946962e-05   1.3424744e-05   5.7969373e-06  -2.2622566e-05  -3.5127040e-04   3.1641562e-04  -7.3240997e-05   1.2430795e-03  -3.5180128e-05
   7.7427583e-05   7.6543722e-05   4.0959902e-05   6.0290346e-05   5.5211258e-05  -1.5844735e-05   6.2999126e-05   2.4054629e-05  -6.0797232e-04  -1.0191087e-05   4.6202964e-05   1.5253720e-05   3.7907110e-05   8.2230126e-06  -2.6072890e-05  -2.5455309e-05   4.3485139e-05  -2.9324810e-04   7.3142449e-04   8.5844995e-06  -2.1098385e-05   1.2915119e-05   3.0374355e-05  -5.4500819e-05   5.5935674e-05   4.0818218e-04   9.4224612e-05   3.0644023e-05  -2.5481057e-05  -1.0527375e-06   1.7087947e-04  -2.7717304e-04  -4.3602809e-04  -1.0112022e-04   2.1162482e-06  -1.8203657e-05  -2.1153684e-04   2.2268056e-05  -1.0155620e-04  -1.6095539e-04  -1.3862483e-04   2.7590580e-04   3.9834733e-05  -7.8330813e-05   2.1111560e-05  -7.7709625e-04   2.0374442e-04  -5.1611019e-05   1.2963391e-03   1.0372921e-04
   5.0431096e-05   5.5395991e-05   3.6814683e-05   4.8386792e-05   4.5007455e-05   3.6738147e-05   9.7581606e-06   5.9106304e-05   1.5655611e-04  -2.7702354e-05   4.1433850e-05   2.5669673e-05   3.0679672e-05   3.5290264e-05   2.7496819e-05  -3.6074241e-06   3.7899583e-05   9.0958696e-05  -2.9148342e-04   1.0242921e-05  -2.6510483e-05   5.2044161e-05  -1.1260047e-04   2.9895662e-05   2.1462265e-04  -2.7139626e-05  -6.3470165e-05   3.0222644e-05  -9.2432099e-05   1.8070794e-05  -1.6941507e-04  -2.1426622e-05   3.1405981e-04   8.5871077e-05   1.6200556e-05  -2.9123077e-04  -2.1131997e-04  -1.1081017e-05  -6.1842235e-05   2.3027025e-04  -6.0441278e-05   5.1871048e-06  -2.5419454e-06   1.9367358e-04   2.5154337e-05  -1.7205799e-04   6.7395937e-05   7.7502023e-05  -7.2202104e-04  -3.7009615e-04
   3.5661127e-05   3.3292836e-05   4.3619995e-05  -3.4195332e-06   2.8371356e-05   2.6475258e-05  -3.1375948e-06  -3.1434154e-06   1.3822998e-03  -1.4811606e-05   4.8149650e-05  -3.6398544e-06   2.0783687e-05   5.4777891e-05   4.9866230e-05  -3.4779499e-05   3.8759634e-05   1.3693240e-04  -1.0810760e-03  -3.3054519e-06  -1.6991869e-05   4.9979553e-06   1.1875915e-04  -3.8531503e-05   1.0204985e-04  -1.5668901e-04   5.0839109e-05   5.5056782e-05  -6.2805993e-05   1.3780929e-05  -3.7304347e-04   7.8002900e-05   1.3545013e-05   1.8387937e-05  -2.6113559e-05   4.3758654e-04  -1.0319790e-04  -7.0510873e-06  -9.9895216e-05   2.4861959e-04   9.3718336e-05   6.5113301e-05   1.6419674e-05   1.3497204e-04   3.4686655e-05  -5.5069826e-04  -1.6950286e-04   1.1602807e-05   1.1492139e-03  -3.7233112e-05
   4.1550946e-05   5.5941160e-05   6.0027810e-06   2.7900211e-05   5.1640629e-05   5.9197428e-05   5.1474726e-05   1.0406043e-05   6.4756238e-04  -1.2992010e-06   5.4896467e-05   1.2352821e-06   4.7620611e-06   3.0855826e-05  -3.3446169e-05  -2.7379594e-05   4.2370688e-05   9.7619057e-05   3.3517249e-04  -1.0554018e-05  -1.3395672e-05  -8.7657872e-06  -9.9636745e-05  -2.5419986e-05   7.9003781e-05  -1.5777841e-05   1.3753089e-04   6.0820756e-05  -8.4663065e-05  -2.5515754e-05  -2.5013532e-04  -6.5150016e-05  -5.8395165e-04   2.1947833e-05   1.7622175e-05   2.0491653e-04  -2.2046143e-04  -1.0007904e-05  -3.4853521e-05  -1.4170875e-04   2.6482569e-05  -7.4761432e-05   3.9477217e-07  -6.8750975e-05  -6.4414678e-05   3.2214951e-04  -2.8074643e-04  -4.5351982e-05   1.3874021e-03  -2.5671293e-04
   4.2883879e-05   4.1933039e-05   2.4730472e-05   3.6368056e-05   5.6421730e-05  -1.1816172e-05   1.5044663e-05  -4.4302474e-06   1.6882998e-04  -7.9185738e-06   4.7457357e-05   1.1712858e-05   5.1631851e-05   4.8651644e-05   1.2593500e-04  -2.7744292e-05   4.8308219e-05  -8.5366875e-05  -1.9477723e-03  -2.2902814e-05  -1.6413653e-05   1.7167082e-05   1.1082769e-04   2.9372743e-05   5.0104518e-05  -1.5402288e-04   2.6589911e-05   5.1195704e-05   2.7371558e-05   1.6578882e-05  -1.2987919e-04  -8.4697094e-05   6.6502056e-05  -2.2712404e-05  -1.3159524e-05   2.8757038e-05   2.3617049e-05  -1.9740031e-05   4.0230960e-05   1.8543108e-04   8.0302372e-05  -1.5160444e-04   1.3979496e-05   1.7673800e-04  -9.7357763e-05  -1.1980555e-05   4.4158100e-05   1.6000999e-05   2.2396406e-04  -2.4892687e-04
   3.9885330e-05   6.4140797e-05   4.0000778e-05   4.6150028e-05   6.2287443e-05   6.8272646e-05   6.4589382e-05   1.2487403e-04  -7.4395712e-04   1.1033021e-05   5.1909115e-05   1.8470908e-05   3.8183280e-05   1.8303555e-05   1.3628764e-04  -4.9686092e-05   4.6220321e-05  -2.2023829e-04  -1.1407336e-04   1.8701587e-05  -5.1749403e-06   2.4200732e-05   1.1111614e-04   2.6322956e-05   1.9982201e-04  -1.7622422e-04   2.0937046e-05  -1.3774159e-05   1.7116676e-05   8.8180923e-06  -1.9614771e-04  -2.3601393e-04   1.9270353e-04   1.2286576e-04   4.7907171e-05   8.1064628e-04  -1.7680715e-04   1.0990217e-06   3.3023425e-05   3.2528507e-05  -1.5600977e-04   1.6566149e-04   1.9708161e-05  -1.6774307e-04  -2.3909262e-04  -1.3366850e-03   2.6896341e-05  -1.3315299e-05   6.5409543e-04  -3.7314012e-04
   3.4176814e-05   4.8250353e-05   2.4946856e-05   4.4665798e-05   3.4364828e-05   5.0365270e-05   3.6299425e-05   3.2252006e-05  -3.1933677e-04   1.8639612e-05   5.0761810e-05   1.0334659e-05   3.5593253e-05   1.9409519e-05  -3.8274437e-05  -1.6803635e-05   3.6368743e-05  -1.7716626e-04  -9.1497823e-05  -7.0521196e-07  -1.1242502e-05   2.4488991e-05   7.3197516e-05   7.1101676e-05   1.9270289e-04  -2.6555997e-04   1.0286385e-04   7.1402251e-06  -5.4206488e-05   3.3817571e-05   7.4214022e-06  -3.1947007e-04   2.1153729e-04  -1.9465182e-04   1.9708516e-06  -1.0694061e-04  -2.1713361e-04  -6.5010099e-06   3.4976005e-05  -1.1571686e-04  -7.1218368e-05  -2.5863032e-04  -1.7908833e-05   1.5058591e-04  -1.9705032e-04  -1.7464510e-04   1.4156172e-04   5.3145119e-05   4.2726591e-04  -1.0749620e-04
   2.4266918e-05   2.6118032e-05   1.5836860e-05   1.9237275e-05   6.4554915e-05  -1.1556381e-06   1.2322047e-04  -6.3850493e-05   3.1891768e-04  -4.4869525e-06   2.7977965e-05   4.0189756e-05   2.8323630e-05   4.5963763e-05  -5.4596359e-05  -4.0576953e-05   3.1174328e-05  -5.9117028e-04   5.2061916e-04  -3.4278967e-06  -3.1738323e-06   1.9163803e-05   4.8764981e-05   5.3206200e-05   2.7098011e-05  -1.7849683e-04   3.7288439e-05  -7.0917458e-06  -3.4165791e-05  -2.4905545e-05  -2.4030673e-04  -2.5599252e-04   1.9614368e-04  -4.1461835e-06   5.9440772e-05   1.9500854e-04  -1.9164805e-04  -8.8142788e-06  -4.0331157e-05   1.0721134e-04  -7.3394898e-05  -1.4511263e-05   1.6556893e-05  -3.5855934e-04   9.0966358e-05   6.6711014e-04   4.6354390e-07  -8.1424158e-05   1.0721077e-03   3.4459597e-05
   5.6169192e-05   5.1633491e-05   2.6018286e-05   3.3743454e-05   3.5561799e-05   5.1018440e-05   8.9744222e-05   1.5075359e-05  -1.8143728e-04   1.6295136e-05   5.7173344e-05   4.4933480e-05   4.1754156e-05   4.3147225e-05   1.0752452e-05  -4.9565344e-05   3.3496141e-05  -1.5588195e-04  -4.3325231e-04  -1.1152599e-05  -1.9477884e-06   5.4837961e-05   9.7982360e-05  -1.1584872e-04   6.2507752e-06   1.8937539e-04  -7.8453151e-05   3.6489462e-05  -1.2552328e-04   2.2782466e-05  -5.2916224e-04  -2.9439206e-04  -3.4313923e-04   1.6486105e-04  -3.4849189e-05  -1.2887076e-04  -2.1141203e-04  -1.4539331e-05   1.2569419e-05   1.1651523e-05   1.5554613e-04   4.8072274e-05  -9.5031919e-06   4.7593447e-05  -2.4726408e-04  -2.6376653e-04   7.0496731e-05   6.4988730e-05  -1.0266406e-03  -3.7945894e-04
   1.4086988e-05   3.3594351e-05   3.3117602e-05   1.1974071e-05   5.8388934e-05   1.0955181e-05   4.4709966e-05   2.4353969e-05  -1.7676318e-04   1.7672650e-05   8.1725138e-06   8.9096129e-06   3.8938986e-05   2.6918944e-05   4.1845278e-06  -5.3755695e-05   3.6665282e-05  -1.7180681e-04  -4.7866901e-04  -1.3110517e-05   3.2099678e-07   7.4311001e-06   1.1963736e-04   4.7627447e-05   4.5721108e-06   8.3022584e-05   9.2129601e-05   6.2488842e-05  -5.4477790e-05   2.6511692e-05   2.9364842e-04  -1.8302680e-05  -1.5929287e-04   1.9646834e-05   4.6240880e-06  -9.8330915e-05  -2.4645642e-04  -1.8496587e-05  -2.2216382e-05  -1.0680279e-04   6.0607515e-05   2.8871157e-04  -3.9337894e-05   2.2858348e-04  -1.3940658e-04  -5.7398214e-04   9.1687347e-05  -1.4041829e-05   4.7982624e-04  -6.9128181e-04
   6.8072928e-05   4.7450616e-05   3.1400697e-05   4.0037932e-05   3.4183544e-05   1.8409128e-05   1.0950273e-04   7.0913731e-05  -1.7695618e-05   3.8719128e-05   5.0145100e-05   3.1900880e-05   1.9460194e-05   1.4792408e-05  -3.1356427e-05  -5.7959394e-05   1.6428588e-05  -2.8248390e-04  -8.7249464e-05  -2.3403497e-06   1.0483137e-05   2.7748512e-05   1.6856984e-05  -4.3421373e-05   3.2113108e-04  -8.9270470e-05   3.2855976e-06  -2.6567599e-05  -5.7522742e-05   7.2696721e-06  -3.2878036e-04   2.7608481e-05   2.0454112e-05  -1.1266408e-05  -3.7735958e-06   3.5354268e-04  -2.8253198e-04  -8.1312219e-06  -4.4162094e-05  -3.9239218e-05   1.5302439e-04  -1.1857133e-04  -1.6970968e-06  -2.7122872e-04  -1.9751368e-04   4.4255110e-04  -2.9654312e-04   7.4671902e-05  -8.3710148e-04  -4.7152932e-04
   4.9845086e-05   3.6838865e-05   3.2491083e-05   2.5365129e-05   1.6668280e-05  -1.2060771e-05   4.7198875e-05   2.7772572e-05  -9.4184297e-06   2.5943529e-05   1.5800324e-05   3.4107510e-05   3.1190466e-05  -4.4471462e-06  -2.8847240e-05  -7.7662276e-05   3.2624408e-05  -3.4590459e-05   1.6378470e-03  -1.4992743e-05   1.0067849e-05   5.5251534e-05   1.4039539e-04   6.1384276e-06   2.1371094e-05   4.0788396e-05  -2.2932069e-05   2.3391643e-05   3.2109205e-05   4.5858706e-05  -3.2209326e-04  -1.7574252e-04  -4.4807018e-04   1.3652342e-04  -2.1470817e-06   4.1866142e-04  -2.5986423e-04  -1.8682453e-05  -3.6954607e-05   3.1781392e-04  -6.4684442e-05   1.6884009e-05  -2.5177142e-05   2.3475065e-04  -2.7943874e-04   5.3100870e-04   3.4628571e-05  -2.3308641e-05  -3.2358611e-04  -2.8843243e-04
   2.6186894e-05   1.2938155e-05   3.9057039e-05   9.1599932e-06   1.9552688e-05   2.2556982e-05  -3.7740272e-06   2.1761953e-05   9.2415581e-04   1.6955602e-05   1.7019163e-05  -1.3484971e-05   1.6435368e-05  -6.2213371e-06   8.2012790e-05  -5.1711391e-05   2.5247340e-05  -2.2159283e-04  -2.8341651e-04  -4.2785508e-05   8.9228115e-06  -1.4097809e-05   1.7696866e-04   2.1633703e-05  -2.3669596e-05   9.1800772e-05   1.9885149e-05  -3.3582251e-05  -1.2577449e-04   7.3467618e-06  -2.6537679e-04  -4.2015552e-05  -7.8249432e-05   1.0284325e-04  -5.8898013e-06  -2.7256802e-04  -1.2017092e-04  -2.4186518e-05  -2.2892977e-05   8.0525999e-05   6.7080167e-05   5.5214095e-05   1.5431853e-05   2.3074173e-04   5.7262649e-05   1.5678155e-05  -5.0262875e-05  -1.0846274e-04  -1.2219296e-04  -2.1267455e-04
   3.3185763e-05   4.2776250e-05   1.1699142e-05   2.2129896e-05   2.7526608e-05   2.7282498e-05  -1.5136377e-05  -7.9632555e-06  -2.3151997e-04   4.5692315e-05   2.1647289e-05   7.2672628e-05   4.4761414e-06   9.5681880e-06  -3.4296369e-05  -5.3738320e-05   1.1304632e-05   1.0696401e-04   1.1418455e-03   1.1880468e-05   9.2725095e-06   3.9140130e-05   9.8967294e-06  -8.0178703e-05   1.8771965e-04   1.8936937e-05   5.2660165e-05   3.7785594e-06  -1.5893542e-04   1.2962702e-05  -2.2170893e-04  -3.1207310e-04  -3.4661009e-04   1.0309967e-04   4.9684095e-06  -1.5414791e-04  -2.1722417e-04  -2.1770218e-05  -8.5580386e-06   2.5989604e-04  -2.2548516e-04   2.9923790e-06   4.1130434e-06  -2.6745576e-04   5.1708287e-04   7.3081366e-04  -6.5210857e-05   6.5975721e-05   1.5257736e-03  -3.2021353e-04
  -6.9713137e-06   2.2191316e-05   3.8530405e-05   8.8785000e-06   4.9252518e-05  -1.6309463e-06   4.4627297e-05   5.6828423e-05  -6.1529601e-04   4.5060260e-05   2.4181749e-05   3.7070622e-05   3.6705442e-05   1.0765764e-05  -5.6052049e-05  -5.3149717e-05   1.0402009e-05   4.7693436e-04   8.8737655e-04  -1.8353276e-05  -1.1537411e-06   5.3223608e-05  -9.8439530e-05   4.8875474e-05  -2.0745605e-05  -5.3422798e-05   5.7758611e-05  -4.0860832e-05  -9.2622409e-05   2.0719599e-05   5.3442793e-04  -7.7115124e-05   3.7029435e-04   7.9145662e-05   2.5856694e-05   3.4046287e-04  -1.3049897e-04  -2.8095372e-05  -1.8230654e-05   7.2457668e-05   3.1179188e-05   7.0265181e-05  -6.0509897e-06  -2.5842802e-04  -7.5718190e-06  -5.6919071e-04   9.7287833e-05  -1.1437430e-06  -1.2790036e-03  -1.4579050e-04
   2.5534908e-05   3.4766734e-05   4.6918081e-05   1.7079252e-05   4.3895125e-05   5.3854742e-06  -4.6683467e-06  -8.3401846e-06   1.0382432e-03   6.6956694e-05   2.7558479e-05   4.1050913e-05   4.4341927e-05   2.5492294e-05  -1.1381941e-05  -6.7846675e-05   3.5727742e-05  -2.5575442e-04   3.8663865e-04   1.6140302e-06   8.0759219e-06   5.2428870e-05   5.6721350e-05  -7.2929091e-05   1.3682092e-04   1.1309449e-04   1.7591416e-05   5.6051129e-05   2.2838616e-05   4.8407132e-05  -2.2438417e-04  -1.2973322e-04  -2.9191840e-05  -1.2516471e-05  -1.6747787e-05   4.4750588e-04  -5.8944403e-05  -7.8961693e-06  -2.6231457e-05   3.1764177e-04   6.8252033e-05  -1.6965259e-04  -8.3471568e-06   3.9048539e-04   4.8639512e-04  -2.0659284e-04  -1.0086587e-04  -3.7215563e-05   4.4535950e-04   1.0478908e-04
   5.0337578e-05   3.7828264e-05   2.0152414e-05   2.5622419e-05   1.0548695e-05   2.5171043e-05   7.8277726e-06   2.7463877e-05   5.4875237e-04   6.0079801e-05   2.2375585e-05   6.5517714e-05   4.3124019e-05   1.4840206e-05  -8.9407869e-05  -5.0592036e-05   1.1173372e-05   1.1490480e-04  -1.3586352e-04  -7.4044442e-06   1.3718201e-05  -8.0329446e-06   1.2219853e-04  -5.3054970e-05   1.4758894e-04   4.9113158e-05  -9.2174450e-06  -3.1215299e-05  -6.9912676e-05   6.9588241e-05   5.2259030e-04  -7.0331189e-05  -2.7858655e-04   2.8096840e-05   2.2186799e-05  -2.2717283e-04  -7.4859003e-05  -2.1038984e-05  -4.2997897e-05   9.4116942e-05  -8.7992412e-05  -1.6959297e-05  -5.9053923e-06  -3.9991728e-04  -7.4096366e-05   3.4947950e-06   1.9486979e-06   1.1238969e-05   7.6375494e-05   6.2562140e-05
   2.1837594e-05   1.7948614e-05   5.5520212e-07  -2.3135693e-05   1.3092179e-05   8.3570440e-06   3.5332490e-05  -7.4338226e-05   5.6719739e-04   5.1438146e-05  -1.3381150e-06   6.7016881e-05   6.5457563e-05   3.2580901e-05   5.2666102e-05  -5.6505640e-05   1.6446906e-05  -3.9352552e-04   1.0065852e-04  -2.3139790e-05   1.6173155e-05   1.3682868e-05  -7.0853406e-05   8.7772896e-05   1.3043049e-04   2.1702165e-04  -8.1547796e-06   2.9854958e-05  -8.5728498e-05   2.8879764e-05   1.3524099e-05  -2.0784351e-04   3.0745679e-04  -1.1219352e-04   8.6440859e-06  -2.0504887e-05  -6.7532659e-05  -1.6555396e-05   3.7345264e-05   4.0110431e-04  -2.8717521e-04  -4.7584663e-06  -1.9789699e-05   1.1689124e-04  -3.5787752e-04  -6.4075590e-05  -6.0614366e-06   5.0097209e-05  -1.1019232e-03  -8.4159302e-04
   2.7674176e-05   4.3864246e-05   2.9161236e-05   1.0168975e-05   3.6833459e-05   4.4130487e-05   1.3371476e-04   3.5286019e-05   1.7088314e-04   7.1645103e-05   4.0806877e-05   5.3949181e-05   4.3890177e-05   9.3978524e-06   9.0349502e-05  -6.9465190e-05   4.0611143e-05  -2.1548968e-04   7.2131625e-05  -1.8124711e-05   2.3175864e-05   5.4776756e-06  -4.0879026e-05  -7.1357652e-05   5.8208283e-05  -2.3171044e-04   3.3814347e-05  -4.4915501e-05  -7.2040028e-05   7.7979876e-06  -1.0160370e-04  -1.4431417e-04  -7.8019104e-05   4.1205632e-05   1.7569297e-05  -2.3649639e-04   2.3198609e-05  -1.5491712e-05  -5.6015680e-05   2.1582961e-04  -1.3385904e-04  -3.4881130e-04   9.5773930e-06  -2.2640890e-04  -4.9656785e-05  -1.4871694e-04   2.1266025e-04  -4.4095526e-05  -5.0242135e-04  -5.9347571e-04
   3.7841695e-05   2.2991817e-05   2.6129283e-05  -7.2528887e-06   3.6876922e-05   6.2266577e-06   2.4166426e-05  -2.6790982e-05   3.0982151e-04   7.1725866e-05   1.7875793e-05   5.4648281e-05   3.4632852e-05   1.8637545e-06   1.7608691e-04  -5.8785910e-05   6.5313152e-06  -2.0849986e-04   6.7539565e-04  -1.7698005e-05   3.1689302e-05   6.9195361e-05   1.3699878e-05  -4.0430430e-05  -1.9035964e-05  -6.5942986e-05  -2.4505709e-05   3.2777287e-05  -1.6354506e-04   2.9269331e-06   4.1703923e-05  -2.3955487e-04  -4.6009573e-04   9.4743300e-05   3.6105030e-05   3.9351098e-06  -7.2782699e-05  -1.6755585e-05  -3.3640597e-06  -2.0065345e-04  -5.6534482e-05   1.2363067e-04  -2.3008030e-05  -6.3799023e-05  -8.5622443e-05  -6.9774361e-04   1.2184298e-05  -1.6285790e-05  -8.1643157e-05   7.1490853e-05
   6.6907276e-05   4.6333040e-05   4.4638869e-06   2.2085662e-06   4.9460679e-05   1.7040609e-05   7.3886617e-06   5.7809317e-05  -3.5163157e-05   8.2679879e-05   2.6879778e-05   4.9920931e-05  -1.3408798e-07   4.1711504e-05  -6.1506027e-05  -9.8340191e-05   3.2198121e-05  -4.2801496e-04   1.2056886e-03  -7.0936367e-06   4.4743727e-05   6.9602524e-05  -1.4765224e-04  -6.9575735e-06   1.7857092e-04  -2.6053001e-05   2.3137402e-05  -2.9167612e-05  -8.1736456e-05  -6.4668839e-06  -3.6201210e-04   9.6657917e-05   4.7227961e-04   1.3673479e-04  -3.5539055e-05  -1.3923878e-04  -4.7383775e-05  -3.9724722e-07   2.8474125e-05   3.5456321e-04   8.8159060e-05   2.8718566e-04  -7.6213337e-06   2.5744169e-04   1.8631032e-04  -7.1822596e-04  -3.0801752e-05  -1.8374703e-05  -1.4011683e-03  -6.6506465e-05
   2.0415542e-05   3.0810730e-05  -1.1200862e-05   3.0177678e-06   3.0126687e-06   9.2932642e-06   7.6720258e-05   1.4992742e-05   6.1829796e-04   8.4610729e-05   7.8152316e-06   5.9107490e-05   2.3045188e-05   1.0402890e-05  -1.2071301e-04  -6.6065753e-05   1.3071070e-05  -1.2164768e-04  -2.0089587e-04  -2.8556708e-05   2.8222172e-05   5.3270305e-05  -5.3184915e-05  -1.4702026e-05   9.5711066e-06   5.2923882e-05  -7.1782597e-05  -9.6126769e-06  -5.4948385e-05  -7.7032619e-06  -1.9133939e-04  -3.1222656e-04  -1.2389424e-04  -2.0011848e-04   3.3964076e-05  -1.8300589e-04   2.6707015e-05  -1.7858018e-05  -6.2748601e-05  -1.8471520e-04   9.8855016e-06   1.1779378e-04   9.5250025e-06   4.0381925e-05  -6.5731365e-05  -9.0070785e-04  -1.0556414e-04  -1.7548669e-05   7.5259886e-04  -6.7212779e-05
   1.5471820e-05   1.1495553e-05   1.5252935e-05  -1.2451867e-05   3.9990173e-05   4.7962047e-05  -6.3289401e-05   2.0061068e-05  -2.9054483e-05   9.5457945e-05   1.2660721e-05   7.2234310e-05   8.7943072e-06   9.8601731e-06  -3.2125685e-05  -8.2705599e-05   2.4588315e-05  -2.0422995e-04   1.1018615e-03  -4.0751114e-05   3.8152884e-05   6.3447726e-05   6.0650047e-05   3.3842709e-05   1.6769934e-04   5.2064093e-05  -4.5610330e-05  -9.6168631e-05   2.6864489e-05   1.5050658e-05   5.7686522e-04   1.0082122e-04   6.0106057e-04   1.6433957e-04   2.4516590e-05   6.7153928e-04  -2.2759390e-04  -1.0443639e-05   3.9911243e-05   9.6242838e-05   1.9366945e-04  -2.5321767e-04   1.7349666e-05  -4.1533862e-05  -2.1014115e-04  -4.5257923e-04   2.0069188e-04  -4.4949382e-05   5.0281888e-05   1.7670231e-04
   4.3751810e-05   3.6932812e-05   1.8768545e-05   3.1980135e-06  -6.4319333e-06   2.8895847e-05  -3.2380271e-05   8.3456462e-06  -9.4518613e-04   9.9662800e-05  -9.4428145e-08   6.3632455e-05   3.6025169e-05   2.6938164e-05   2.2113956e-05  -7.2732371e-05   2.9864999e-05  -1.9206993e-04  -8.2950442e-05  -2.9880373e-05   4.0411629e-05  -3.3205897e-06   2.4379200e-05   1.4044228e-04   4.6369481e-05   2.4684769e-04   1.5032022e-05   1.4698289e-05  -1.2978673e-04   4.5844528e-05  -4.4417093e-04  -2.8810385e-04  -4.8945483e-04   4.0255811e-05  -1.6413211e-05   2.3526637e-04  -1.0456542e-04  -1.3870191e-05  -3.7781487e-05   1.1409183e-04  -6.8786270e-05   1.1288055e-04   2.5489735e-05  -1.9139163e-04  -9.9669604e-05   5.5798108e-04  -1.1183580e-04  -1.3047112e-04   4.8746802e-05  -4.4653582e-04
   5.9810907e-07   1.9836638e-05  -1.5650095e-06  -4.0471576e-05   1.0550751e-05   5.9930331e-05   7.0606184e-05   4.0299896e-05   4.7205389e-04   9.5445786e-05  -1.0716079e-05   8.3499479e-05   3.2525848e-05   8.4342864e-06   9.0203088e-05  -7.2035895e-05   4.6380019e-06   1.3668896e-05  -4.4058150e-04  -2.1593833e-05   1.2371033e-05   3.4742738e-05   1.3923086e-04   8.4787935e-05  -2.1722859e-04  -5.4232740e-05   9.3934403e-05   6.7522327e-05  -1.0440484e-04   1.8663695e-06   4.0620787e-04  -2.7006000e-04   2.7837380e-04  -7.9513440e-05  -1.4736152e-06  -2.3105823e-04  -4.1428033e-05  -1.8417293e-05  -3.8274076e-05  -5.1051396e-04  -6.4346226e-05   2.0648756e-04  -1.1037967e-05   4.9642869e-04  -1.0382647e-04  -2.2102582e-04  -6.2377076e-05  -2.1149455e-05   7.8622537e-04  -2.0942352e-04
   2.7138032e-05   4.3698139e-05   1.1302974e-05   1.2895553e-05   4.0145806e-05   5.4652130e-05   1.4140579e-05  -6.2945859e-05   1.4553816e-04   1.2323010e-04  -4.5409856e-06   6.1927953e-05   2.8615852e-05   1.7250335e-05   9.5821713e-05  -3.9988987e-05   1.2123928e-05  -2.7835660e-04  -1.1115908e-03  -2.4115498e-05   2.1560350e-05   9.0497451e-05   3.2660351e-05   4.1674371e-05   2.2948152e-05  -1.4614154e-04   8.4091698e-06   2.5031302e-05  -1.1549404e-04   5.0973518e-05  -4.0569573e-04  -1.7260107e-04  -5.1293761e-04  -1.0669804e-04   2.4438301e-05   3.5422313e-04  -2.1811326e-04  -3.2420510e-05  -2.0855485e-05   1.1751959e-04  -3.0698127e-04  -9.5929274e-05  -3.2281180e-06   1.5585960e-04  -1.9111756e-04   2.9908153e-05  -2.0377712e-04  -9.2232403e-05  -3.4872553e-04  -3.3102475e-07
   5.5169926e-06   2.5734749e-05  -4.4440596e-05   4.5676757e-07   3.7728121e-05   4.1579700e-05  -2.4821570e-06   8.2037164e-05   3.8570483e-04   1.3240517e-04   8.9132873e-06   6.3978601e-05   2.7232347e-05   1.0733405e-06  -1.3634908e-05  -2.7150012e-05   4.9241398e-06   5.5087625e-05  -5.6327757e-04  -5.7330060e-05   1.5133458e-05   1.0767671e-05  -9.5946300e-05   7.0601658e-05   8.5942964e-05   2.6462585e-06   4.6650348e-05  -4.1860971e-05   6.6004177e-05   9.7184893e-06  -4.0106315e-04   5.9704729e-05  -5.0518039e-04  -7.2202871e-05  -1.0489251e-05   1.2998834e-04  -5.0434167e-04   5.0462831e-06  -9.8293036e-05   3.4921643e-05   9.5439071e-05  -3.7616093e-05   1.1138850e-05   4.9092754e-04  -1.8476286e-04  -5.0875603e-04  -1.2515919e-04  -4.6067846e-05   1.1059560e-04  -2.5332408e-04
   2.7699009e-05   1.0527063e-05  -2.0645712e-05  -1.6677787e-06   3.3058222e-05   4.8706759e-05  -1.1222257e-05   6.2431885e-05   1.1428087e-03   1.4797093e-04   1.4157689e-07   7.6183809e-05   4.3545864e-05   3.7502443e-05   9.9732388e-05  -3.7639966e-06   3.2566688e-05  -2.4441589e-04   9.9310232e-04  -3.0040395e-05   7.4972377e-06  -4.9165656e-06  -3.1889947e-05   7.6407399e-05   1.6352069e-04  -2.6690858e-04   8.1658101e-05  -5.5170494e-05   3.6591096e-06   5.9139488e-06  -1.4868985e-04   1.3269478e-05   4.4357165e-04   2.4401001e-04  -6.7277149e-05   1.2743716e-04  -2.9472008e-04   5.4004962e-05  -8.9737834e-05   4.8470980e-04  -2.9474933e-05  -1.8116012e-05  -5.3737483e-07  -3.6705963e-04  -2.6388044e-04  -1.3764088e-04   2.3784196e-04  -1.9165316e-05   1.4469906e-03  -1.2598293e-04
   1.1231949e-05   2.5376139e-05  -1.2057033e-06   4.2661313e-06  -5.2661721e-06   2.8080394e-05   6.9606031e-05   4.3205186e-05   4.1292758e-05   1.4857585e-04   1.5010403e-05   9.7753298e-05   2.7526270e-05   1.9651618e-05  -2.8239943e-05  -2.0196208e-06   8.5549700e-06  -2.3549667e-04  -1.2240588e-03  -2.5942762e-05   3.6095578e-05  -2.4681585e-05   8.9778317e-05   9.9117984e-05  -5.6090179e-05  -8.8098364e-05   6.4356071e-05  -9.8458586e-05   1.1626589e-04   1.7975030e-05   1.3550246e-04   5.6207624e-05   2.4841263e-04  -8.0311860e-05  -1.3957855e-05   1.3030437e-04  -3.3210745e-04   9.5948844e-06   8.6134831e-05   6.0003291e-05  -5.9261088e-06  -7.0037648e-05  -5.4391239e-06   8.9815570e-05  -7.1257651e-05  -4.1088997e-04   1.2511603e-04   4.4614066e-05   9.2401409e-05  -2.0995647e-04
   9.3856561e-06   8.4505755e-06  -1.7961611e-05  -1.5559433e-05   3.5833378e-05   5.2655501e-05   4.3075113e-05  -1.9423438e-05  -8.4301754e-04   1.1733347e-04  -4.7778860e-05   5.9466096e-05   4.8367103e-05   2.2366126e-05   1.3392798e-05  -1.5961321e-05   6.9655580e-06   9.4825860e-05  -6.2395346e-05  -1.6247250e-05   3.0874624e-05   5.1982020e-06   1.0749432e-05   1.9982965e-06   3.3313630e-05   1.3809967e-04   5.4787288e-05   8.8266839e-05  -2.9074035e-05  -9.4923553e-06  -2.9281629e-04  -4.3759144e-05  -4.2166785e-04  -1.2344193e-04  -1.3805961e-05   1.8335799e-05   4.9643609e-06   2.1804004e-05  -4.7526941e-05  -2.9007276e-04  -7.5315926e-05  -1.3817364e-06   1.4702957e-05  -3.2787304e-04  -1.5406800e-04  -8.2620201e-05  -8.1274338e-05  -2.6131509e-05   1.0924917e-03  -5.2582577e-04
  -9.2745004e-06   2.9576511e-05   1.0858517e-05   4.4546587e-06   4.4443677e-05   1.1932562e-05   2.7810960e-05   1.0563555e-04  -1.0284217e-03   1.3445763e-04  -3.1870451e-05   9.5510404e-05  -1.1150403e-05   1.1297879e-05  -1.1147374e-04  -8.2676943e-06   9.7531474e-06   1.2527143e-04   6.4704282e-04  -3.4825407e-05   4.4812547e-05  -1.6859796e-05  -6.8494177e-05   5.3807980e-05   1.1347086e-04  -3.6707705e-05   4.4584340e-05   3.2772456e-05  -2.6272801e-05   4.8213265e-06   1.3586710e-04  -6.0880910e-05   2.4371509e-05   1.6918432e-04  -1.7964647e-05  -1.7320651e-04  -1.4407941e-04   2.0479612e-05   3.6851088e-05  -2.1823303e-06   9.9850578e-05  -1.3670689e-05   7.7710911e-06   5.8620804e-05  -5.7703754e-05  -2.5389090e-04   1.1658341e-04   4.7322577e-05  -1.5625075e-03  -3.2442517e-04
