  -6.0675247e-05   4.7351805e-05  -1.1033309e-04  -1.8087350e-04   2.1998851e-05   3.4156845e-05  -1.0443709e-04  -3.8878850e-05  -4.4228154e-04  -3.3189368e-04  -2.5377842e-04  -2.4078530e-05  -1.7809645e-04   4.6270266e-05   3.3465024e-06   1.8782653e-04   2.3113519e-04  -3.1168183e-04  -1.0662993e-03  -3.0815546e-04  -2.9002342e-04   1.6896872e-04  -5.8485050e-05  -1.6398766e-04   1.3841136e-04  -1.4291820e-04  -1.9699254e-04  -4.6031397e-05   1.1300519e-04   2.1215907e-04  -7.1467669e-04  -2.2012695e-04   6.5518351e-04  -1.7873956e-04  -1.3394978e-04   7.0795736e-06   3.1729712e-04  -1.6028636e-04   3.9569277e-05  -2.5262410e-04  -2.8727789e-04  -6.8082078e-04  -4.8454918e-04  -2.4452119e-04  -2.2049295e-04   9.3893107e-04   1.0625935e-04  -3.5786993e-04  -1.1558301e-03  -1.6411615e-04
  -1.0963927e-04   6.4631771e-05  -1.4064414e-04  -1.7595627e-04  -8.7382869e-06   5.7663760e-06  -4.7193600e-05  -8.5933010e-05   4.2630106e-04  -3.5023378e-04  -2.8523282e-04  -6.0686634e-05  -2.0838816e-04  -6.7670903e-06  -1.1205975e-05   1.3187378e-04   2.5021247e-04  -4.2843542e-04   6.8749202e-04  -2.8452664e-04  -2.7674090e-04   1.7430741e-04   2.0194628e-05   1.0035239e-04   1.1655933e-04  -1.0618117e-04  -2.8885185e-04  -5.5739283e-06  -3.2361546e-05   2.2078463e-04  -3.7833463e-04  -1.0830179e-04   5.3785776e-04  -3.1911032e-04  -1.4058605e-04   1.0544168e-04   5.8041136e-05  -2.1732287e-04  -4.4577671e-05  -1.4923386e-04  -3.8459033e-04  -4.0405660e-04  -4.9837393e-04  -2.9401190e-05  -6.3502125e-04  -3.9960860e-04  -3.4008545e-04  -6.0507550e-04   5.7605107e-04   1.1578517e-04
  -1.0482757e-04   5.4023458e-05  -1.5337621e-04  -2.2534293e-04  -2.2957092e-05   1.6346270e-05  -6.9664558e-05  -1.7747319e-05   6.9386041e-04  -3.7818757e-04  -3.0896431e-04  -1.1381162e-04  -2.0606571e-04   2.7952098e-07  -4.1515865e-05   1.1749086e-04   2.0388199e-04   1.7989474e-05  -3.6665428e-04  -2.8822888e-04  -2.9223226e-04   1.6283419e-04   1.2551972e-05  -9.0933238e-05   2.8303157e-05   1.7883959e-04  -2.1140146e-04   2.2634495e-05  -5.5178396e-05   1.6881197e-04   1.4268169e-04  -7.8240980e-04   7.6580280e-04  -8.1160804e-05  -1.3562461e-04   1.9849523e-04   2.0819929e-04  -1.5385833e-04  -7.5350152e-05  -7.3917436e-05  -6.1927066e-04  -4.8013972e-04  -5.5926834e-04   6.7639019e-05  -7.0268370e-04  -2.6588610e-04  -2.9378309e-04  -6.0440321e-04  -1.0043313e-03   1.0000533e-04
  -1.2413347e-04   7.7760298e-05  -1.5897880e-04  -2.1677927e-04  -2.6644145e-06  -4.3905402e-06  -9.5712858e-05  -1.5951201e-04  -2.0774867e-04  -3.5920262e-04  -3.0006244e-04  -6.1737250e-05  -2.4179979e-04  -2.2088032e-05   2.8344895e-05   1.0562281e-04   1.6861685e-04  -2.0675319e-04  -8.9518522e-04  -3.0541726e-04  -2.8290146e-04   1.1106150e-04   1.5744395e-04   3.8558370e-05  -3.0730647e-05   2.5595969e-04  -2.7957332e-04   1.6447339e-05   4.6171615e-05   1.7097739e-04  -2.4752476e-04  -4.1006450e-04   8.4031181e-04  -2.2530285e-04  -1.5032003e-04  -2.8635986e-04   1.7136606e-05  -1.5061141e-04   1.2579164e-05   7.0681577e-05  -8.2752435e-04  -6.3174615e-05  -5.3845422e-04  -3.7998433e-04  -9.4641851e-05  -1.3488919e-03  -3.3831311e-04  -5.5808050e-04  -6.7206728e-04   1.1828014e-04
  -1.1854520e-04   5.9795460e-05  -1.6930068e-04  -2.0880847e-04  -4.1727644e-06  -8.5197325e-06  -8.4013031e-05  -6.5040644e-05  -4.9583870e-04  -3.7189698e-04  -2.9854293e-04  -1.0390071e-04  -2.1929550e-04  -6.3600761e-05  -5.4279808e-05   5.4817436e-05   1.9280275e-04  -5.4666270e-06  -4.3296255e-04  -3.3003898e-04  -2.9852096e-04   1.2736637e-04  -3.9125429e-05  -3.8531427e-05   7.9060266e-07  -2.2545515e-04  -3.3518288e-04  -4.2151245e-05  -6.8327499e-05   1.6892524e-04  -2.9388862e-04  -3.9742360e-04   7.4735715e-04  -4.1030571e-04  -1.1464328e-04   2.2638598e-04   3.6428341e-05  -1.2994652e-04  -9.4504321e-05   1.7861819e-05  -3.1718580e-04  -2.5273819e-04  -5.0475809e-04  -1.6666976e-04  -1.9492391e-04  -4.2044141e-04  -4.0911592e-04  -6.1779941e-04   1.2022944e-03  -1.4246156e-04
  -1.2423929e-04   4.8237191e-05  -1.9543935e-04  -2.1336562e-04  -7.1760128e-06   5.0021608e-05  -6.8443995e-05  -1.9921987e-04  -3.1074518e-04  -3.4320483e-04  -2.7716797e-04  -1.0238187e-04  -2.0773949e-04  -3.7597561e-05  -7.6857177e-05   8.1901002e-05   2.1162345e-04  -4.8833789e-04  -1.9264000e-03  -3.1554187e-04  -2.9164983e-04   9.8533645e-05  -9.9437340e-05   8.9002664e-05   8.5563788e-06  -1.5020202e-04  -2.1182174e-04   1.2168331e-05   7.8956793e-05   1.3003931e-04   2.5089172e-04  -1.2753651e-04   7.8317476e-04  -2.7987474e-04  -1.5062089e-04  -5.5933400e-04   8.3384475e-05  -1.5098820e-04  -5.7015415e-05  -9.9881108e-05  -3.5277565e-04  -2.1899858e-04  -4.0871612e-04   3.6128977e-04  -8.3023413e-05  -1.0138728e-03  -1.8531420e-04  -5.4034940e-04  -1.0903056e-03   1.0139606e-04
  -6.1676190e-05   8.0640362e-05  -9.1026835e-05  -3.4773726e-05   1.3389279e-05  -3.8162732e-05  -5.1872968e-05  -6.6452856e-05  -7.0653978e-04  -2.4925143e-04  -1.7898178e-04  -5.5040218e-06  -2.0326383e-04  -3.0348385e-05   4.9330876e-05   1.2768197e-04   3.2252431e-04  -3.6344922e-04  -2.5699751e-03  -2.5972974e-04  -2.3786670e-04   2.1588770e-04  -3.0836709e-05   4.7502039e-05   1.0039547e-04   4.6079553e-05  -7.7327939e-05  -1.4850000e-04  -1.0906705e-05   2.0516785e-04   1.8673998e-04  -2.2437947e-05   4.0206857e-04  -3.4650046e-05  -9.5558280e-05   7.2012379e-05   3.6646095e-05  -2.0439943e-04  -5.3604672e-05   1.3635703e-04  -2.9722732e-04   3.2209049e-05  -2.5759361e-04  -1.9475735e-04  -5.9023109e-04  -7.8052888e-04   3.9609229e-05  -1.8324233e-04   8.6861063e-04  -6.4816285e-04
  -9.5121890e-05   4.7876398e-05  -8.3285988e-05  -5.2846648e-05   2.4851861e-05  -4.4942852e-05  -5.2993484e-05  -1.6421311e-04   6.8115955e-04  -2.3403189e-04  -1.5765699e-04  -2.4551950e-05  -1.7309858e-04  -1.6216789e-05  -4.2141823e-05   6.4637679e-05   1.8696171e-04  -3.7653494e-04  -1.1645586e-03  -2.5306278e-04  -1.8530111e-04   5.3425691e-05  -1.0516227e-04   9.9064164e-05  -5.5755405e-05  -2.2089944e-04  -2.7173155e-04  -4.5938817e-05  -2.5130421e-05   1.3135044e-05   4.9249409e-04  -1.6063184e-04   2.3770714e-04  -2.1031042e-04  -9.3784751e-05  -1.7880433e-04   1.0438196e-04  -1.3966378e-04   6.2582534e-05   4.2886975e-05   6.5847707e-05  -3.6384381e-04  -2.0845218e-04   1.8577446e-04  -2.6299711e-04  -4.1686424e-05  -2.9101627e-04  -1.2290676e-04   5.0171284e-04   9.8016950e-05
  -8.8260284e-05   4.8659113e-05  -1.2195334e-04  -7.9320736e-05   3.9553001e-06  -4.9402686e-05  -1.1430479e-04  -2.2089423e-04  -4.4035551e-04  -2.3377348e-04  -1.8007404e-04  -3.0185927e-05  -1.5720783e-04  -2.8241498e-06  -9.6052703e-05   7.0084316e-05   1.2470994e-04  -4.5934162e-04   3.8122825e-04  -2.3723766e-04  -1.8978771e-04   7.3077688e-05   1.7560800e-05   4.8844904e-05   6.2413252e-05  -2.3361419e-04  -5.9757938e-05   3.0904637e-05  -4.4407043e-06  -2.6828606e-05   9.1794609e-05   9.5805241e-05   9.7904003e-06  -1.0534885e-04  -8.5141182e-05   6.1679317e-04   3.7710348e-04  -1.1555263e-04  -5.2146661e-05   9.2242211e-05  -2.3876685e-04   5.0646231e-05  -1.9476490e-04  -9.7833890e-06  -3.2061394e-04  -8.3903101e-04  -2.5470374e-04  -1.7177608e-04  -1.5508458e-04  -4.4973314e-04
  -9.0609348e-05   3.1249296e-05  -1.3961110e-04  -9.6774260e-05   1.7428409e-05  -3.9912188e-06  -2.4262736e-05  -6.6888024e-05  -6.8896436e-05  -2.3663358e-04  -1.7104228e-04  -5.9285572e-05  -1.7470770e-04  -1.8873857e-06   1.3424426e-05   4.1005431e-05   1.2184260e-04  -1.3882061e-04  -1.7825490e-03  -2.1652995e-04  -1.8192576e-04   8.6712200e-05  -2.0443099e-04  -3.3037006e-05  -8.1132384e-06   4.5337805e-05   5.3463384e-05  -3.2381704e-05  -1.9584486e-04  -3.4505632e-07   2.1989268e-04  -3.8182762e-04   2.1866338e-04   1.6310238e-06  -7.7894452e-05  -2.2789541e-04   1.5694441e-04  -1.2258824e-04  -3.6743018e-05  -1.9695639e-04  -1.7075098e-04   4.3033335e-05  -1.7582157e-04  -2.2407291e-04  -2.0970292e-04  -3.8586700e-04  -2.3807460e-04  -4.9442006e-05   1.8845773e-03   2.3666344e-04
  -8.4234620e-05   2.7705837e-05  -1.2109302e-04  -1.1591694e-04   1.8691260e-05  -2.2727239e-05  -5.1842562e-05  -1.8047947e-04  -5.6059922e-05  -1.9967946e-04  -1.8255255e-04  -2.7897157e-05  -1.6776357e-04  -2.9745428e-05  -2.7938420e-05   4.6602875e-07   1.0074709e-04   2.5220003e-04  -1.1890390e-03  -2.4790206e-04  -1.3988270e-04   2.5946456e-05   2.8624513e-06   2.4437975e-05  -1.1264470e-04  -1.9483063e-04   4.1415358e-05   6.6895700e-05   2.7505856e-05  -2.1751928e-05  -1.7222481e-05  -8.4655825e-05   6.0570845e-04   2.5225730e-05  -9.9231605e-05   2.9109386e-04   8.3265906e-05  -4.1123632e-05   6.1763116e-05   8.6456457e-05  -4.3186187e-04  -7.5363132e-05  -2.1102335e-04  -5.9115733e-05  -6.2981824e-04  -2.0432231e-04   3.8162261e-04  -1.5470291e-04  -5.3390535e-04  -1.7376183e-04
  -9.0579371e-05   2.3365405e-05  -1.3032701e-04  -1.1785954e-04  -2.8298105e-05  -4.0450948e-05  -8.3540624e-05  -1.2409416e-04  -1.2464550e-03  -1.9853387e-04  -1.9716585e-04  -1.2937970e-04  -1.8223441e-04  -5.4771765e-05  -1.1934299e-05  -5.3236221e-05   8.3924373e-05  -4.7424209e-04  -2.4282037e-04  -2.4087010e-04  -1.6817213e-04   7.0230810e-05  -4.8246384e-05   9.4798786e-05   2.6293364e-05   7.5888156e-06  -2.7958826e-05  -6.8286317e-05   6.4253742e-05  -3.2869099e-05  -2.0079150e-04   1.6914774e-04   3.1131940e-04  -1.4984142e-04  -3.5556739e-05  -1.5235157e-05   1.2995144e-04  -6.1007668e-05  -4.0166644e-05   2.2229746e-04  -1.5247168e-04   3.3260050e-04  -1.7852453e-04  -3.0062173e-04   2.1883963e-04   1.7541624e-04  -1.0958403e-04  -1.1021610e-04  -6.1573711e-04   3.3462700e-04
  -1.1409122e-04   6.3385496e-06  -1.3082213e-04  -1.2791791e-04   7.2064776e-09  -5.6343022e-05  -7.7938101e-05  -1.5061056e-04  -1.5214265e-03  -1.8325711e-04  -2.0857237e-04  -7.8021490e-05  -1.6466138e-04  -4.1041258e-05  -1.0560689e-04  -3.1876760e-05   8.6447530e-05  -1.8440792e-04  -4.6740758e-04  -2.2670561e-04  -1.4331247e-04   5.5606342e-05  -1.1922170e-04  -6.9428672e-05  -7.8332596e-05  -2.3879778e-05  -7.5328498e-05  -1.7358814e-04   2.3808494e-05  -4.6630837e-05  -3.1768117e-04   4.2134292e-05   2.6454910e-04  -9.0459682e-05  -6.5889857e-05  -1.9161859e-04   7.7942197e-05  -1.5382082e-05  -9.0755827e-07  -4.3256176e-04  -7.5271746e-05  -1.8079829e-04  -2.0987102e-04  -1.9478404e-04   1.2604894e-04   2.0158720e-04  -1.6896502e-04  -1.3655252e-04   4.8388605e-04  -4.2291562e-04
  -9.9625358e-05   1.9545989e-05  -1.2939624e-04  -1.1604936e-04  -2.1618853e-05  -1.8785751e-05  -3.3679145e-05  -1.7648788e-04  -1.8274644e-04  -1.5221816e-04  -1.6623548e-04  -1.1356148e-04  -1.6701585e-04  -4.3043779e-05  -1.9002541e-04  -8.2978448e-05   5.5065339e-05  -3.4585738e-04  -7.0957921e-04  -2.4407580e-04  -9.7727869e-05  -5.6984932e-06  -1.9116445e-04  -1.4399395e-04  -1.0379091e-04  -8.5504849e-05  -2.1896596e-04  -8.2759079e-06   5.1702416e-05  -8.5697015e-05  -6.6772016e-05   1.2465143e-04   4.3707030e-04  -8.4626074e-05  -1.2091940e-04   1.2955413e-04   7.9000865e-06   1.1757115e-05  -1.3044912e-04   1.1225811e-04  -1.4333484e-04   4.9172508e-05  -2.2485078e-04  -2.8745810e-04   2.9699440e-04   2.7589378e-04   2.0206772e-04  -2.0392510e-04  -9.6367975e-04   4.4590975e-05
  -1.1832667e-04  -1.6434579e-06  -1.1377883e-04  -1.2187087e-04  -1.9460724e-05  -4.4655080e-05  -3.9621878e-05  -1.5267305e-04  -5.7816505e-04  -1.7332741e-04  -2.0452078e-04  -1.3337994e-04  -1.9722525e-04  -7.4329197e-05  -1.2399408e-04  -4.5067867e-05   6.9052716e-05  -6.0313754e-04  -1.8950782e-03  -2.5892881e-04  -1.6037347e-04   2.5991561e-05  -7.5001626e-05   1.1781818e-04  -5.8182031e-05  -7.6430770e-05  -2.4082799e-05  -9.4648836e-05   8.1964390e-06  -8.9021458e-05   1.7048068e-04  -1.1987282e-04   1.5611977e-05   2.4613346e-05  -8.7075881e-05  -1.7586330e-04   2.5401940e-04  -6.6559032e-06  -1.9754190e-04  -1.3458615e-04   1.1789774e-05   1.7514321e-04  -1.9607898e-04   3.5388941e-05  -2.2500068e-04  -4.7226041e-04  -7.5987067e-05  -2.2351099e-04  -1.0932905e-03  -2.1457090e-04
  -1.1294835e-04   2.0024692e-05  -1.1090545e-04  -9.2066613e-05  -1.6723294e-05   1.8658508e-07   1.7298215e-05  -1.8769983e-04   9.9179440e-04  -1.4646172e-04  -1.4420238e-04  -1.2108855e-04  -1.4569769e-04  -8.3935978e-05  -1.7415629e-04  -7.4763018e-05   9.6754164e-05   3.0492237e-04  -2.2332412e-04  -2.4166153e-04  -6.2507745e-05   7.0879651e-05  -3.7005633e-05   6.7226691e-05   2.9401908e-05  -1.5765993e-04  -2.1711661e-04  -1.6112735e-05   1.9316490e-04  -1.3750581e-04  -3.2959622e-05   5.3255433e-05   1.9539344e-04  -2.0190603e-04  -3.7840084e-05  -2.6317239e-05   6.3710992e-05   1.2249209e-04  -1.9080781e-04  -3.1981873e-04  -1.6931076e-04  -2.5673950e-04  -3.0138172e-04  -1.2213585e-04   1.9648038e-04  -1.8285055e-04  -1.0023676e-05  -1.6433420e-04  -4.2877491e-05  -7.3430288e-05
  -1.2264714e-04  -5.3154404e-06  -9.5479445e-05  -1.3143339e-04  -2.5294585e-05  -9.0992689e-06  -7.0853486e-05  -1.5226676e-04  -6.3227402e-04  -1.3575077e-04  -1.8293819e-04  -1.3346123e-04  -1.8846747e-04  -1.3635041e-04  -2.4432861e-04  -6.7271372e-05   4.6140980e-05  -2.0686143e-04  -1.0108963e-03  -2.7306253e-04  -1.0940068e-04  -4.6790610e-06  -8.6826287e-05  -2.6622964e-05  -2.7699841e-04  -1.1846503e-05  -3.1493028e-04  -3.7803424e-05   1.4420110e-05  -9.1853763e-05   3.4717866e-04   5.4332522e-05  -2.1625629e-04  -3.4177289e-04  -5.5817192e-05  -6.2670922e-05   3.6069483e-05   7.3081785e-05  -1.7072256e-04  -2.1001310e-04  -6.2024643e-05   1.3778345e-05  -2.7435477e-04  -3.1999097e-04   1.3376592e-04   5.4946277e-06  -2.7032424e-04  -8.4626314e-05   7.5239036e-04  -2.3432729e-04
  -1.0138097e-04   5.8371570e-06  -8.3742714e-05  -1.2072433e-04  -4.0960109e-05  -7.0060079e-05  -7.5225711e-05  -1.3189229e-04   7.9216581e-04  -9.8656797e-05  -1.6878197e-04  -1.5307989e-04  -1.6064469e-04  -1.2104314e-04  -1.3641299e-04  -8.0852675e-05   2.2484546e-05  -4.0408058e-04  -9.2976168e-04  -2.3448060e-04  -7.9681966e-05  -1.3919016e-05   5.8616064e-05   4.0207517e-05  -3.8085366e-04  -8.8840323e-05  -9.1409245e-05  -8.9977810e-05   2.2633637e-06  -1.1846502e-04   6.6394564e-06  -5.7087009e-06   2.8283638e-04  -2.0495760e-04  -1.2447494e-04  -6.1977416e-04   1.4800928e-04   9.6274700e-05  -1.5608130e-05  -2.1987555e-04  -2.3297544e-04  -1.6775848e-04  -2.6693533e-04  -2.9835515e-04   6.4810454e-05   6.1634295e-05   2.7948669e-05  -1.9300960e-04  -6.9836929e-04  -4.2065422e-04
  -1.1910943e-04  -8.7449698e-06  -8.9735920e-05  -1.4323833e-04  -4.3062668e-05  -1.6653752e-05  -2.3775197e-05  -1.6874001e-04   9.0718393e-05  -1.2887745e-04  -2.0601574e-04  -1.5948368e-04  -1.7816218e-04  -1.3770448e-04  -1.2419208e-04  -7.9706566e-05   3.0947987e-05   2.3625133e-05  -1.5643187e-04  -2.5470834e-04  -1.4674822e-04  -7.9049423e-05   2.0680012e-05  -1.1034703e-04  -3.7983871e-05   2.8204462e-05  -2.5056343e-04  -1.2752677e-04   2.8502653e-05  -9.3931681e-05   3.5698313e-04  -3.1645799e-05  -1.7240244e-06  -1.4304745e-04  -4.0048177e-05  -2.6051505e-04   1.9853060e-04   4.5665052e-05  -9.1607886e-05  -4.3285254e-05  -1.3289686e-04  -1.5252057e-04  -2.3151291e-04  -2.8656871e-04  -3.7002302e-04  -3.4465756e-05   1.0200741e-04  -7.5068790e-05   3.7071036e-04   3.4346962e-05
  -1.3229453e-04  -2.0691472e-05  -1.0135761e-04  -1.2773977e-04  -3.8729369e-05  -5.8399200e-05  -5.3063803e-05  -1.0894237e-04   1.1934856e-04  -1.4327963e-04  -1.7596707e-04  -9.2570175e-05  -1.5226983e-04  -9.4885356e-05  -6.9722839e-05  -5.8462392e-05   2.8122120e-05  -9.8289616e-05   4.3404553e-04  -2.2938557e-04  -1.5149404e-04  -6.1476247e-05  -2.0588508e-04  -4.3866599e-05  -1.0708725e-05  -2.6671198e-04  -1.1197182e-04  -6.9764588e-05  -9.0229951e-05  -4.6567326e-05  -3.4315613e-04  -2.4609000e-04   2.0537926e-04   1.3444059e-05  -4.5595694e-05  -4.3994855e-04   1.0997879e-04   1.3413188e-05  -4.9639621e-05   2.6512978e-04   2.1685631e-04  -1.1715318e-04  -1.3938523e-04   3.1053234e-05   1.1860130e-04  -9.3518163e-04  -5.2563300e-05  -9.6914897e-05  -2.0390288e-03  -2.3277110e-04
  -1.5338921e-04  -3.7404216e-06  -1.0902980e-04  -1.0266202e-04  -2.7114607e-05  -7.9962949e-05  -1.9315974e-05  -9.9306737e-05  -3.8970722e-04  -1.5273769e-04  -1.7936286e-04  -7.6793083e-05  -1.6420693e-04  -5.4332228e-05  -5.5010078e-05  -4.0424118e-05   4.2720319e-05  -6.0015034e-05  -6.4953747e-05  -2.4528467e-04  -1.5992673e-04  -3.8143400e-05  -4.4570341e-05  -1.5003821e-04   2.1569353e-05   2.1590127e-05  -2.7726599e-04  -7.2254556e-06  -6.0173912e-05  -5.8600690e-05  -7.8306679e-05  -9.0642417e-05   3.0772656e-04  -1.9624394e-04  -7.1198207e-05  -6.4217755e-05   6.9158268e-05  -2.3153329e-05  -4.6265701e-05  -2.9397089e-04  -3.2701192e-04   1.3534514e-04  -1.5866381e-04  -4.5818492e-04  -3.7218662e-04   2.0844278e-04  -6.1978008e-06  -1.0984402e-04  -1.7960655e-03   2.4511117e-05
  -1.0688622e-04  -1.1664321e-05  -9.3417635e-05  -1.2244984e-04  -1.7571449e-05  -4.5299690e-05  -8.7890789e-05  -2.6622709e-04  -7.0526206e-04  -1.8064953e-04  -1.8705557e-04  -8.1947968e-05  -1.3601845e-04  -7.1102237e-05  -1.3712423e-04  -3.3656317e-05   3.8149439e-05   2.8563425e-04  -1.0445135e-03  -2.5515736e-04  -1.7357885e-04   9.4396355e-06  -3.8121791e-05   2.9967498e-06  -1.3119326e-04   3.7406608e-05  -1.2308244e-04   1.2746782e-05  -3.2352233e-05  -5.2458217e-05   2.9297222e-04  -4.9448095e-04   1.5870019e-04   6.6998749e-05  -5.1971561e-05  -5.7012639e-05   1.4980049e-04  -3.9342045e-05  -1.3739978e-04  -1.4837224e-04  -2.6364633e-06  -2.7491292e-04  -8.9486100e-05  -4.4662338e-05  -4.1149333e-04  -8.8333205e-04   3.8262524e-04  -1.0176232e-05   1.2600429e-03  -1.4988330e-04
  -1.2390457e-04   1.0909216e-05  -1.1596993e-04  -1.0084464e-04  -5.0967388e-05  -3.5068657e-05  -1.3184296e-04  -1.6913345e-04  -5.5152946e-04  -1.6468286e-04  -1.6532965e-04  -6.9924281e-05  -1.3083052e-04  -4.6288493e-05  -6.8628215e-05  -5.7362599e-06   5.4589644e-05   1.0019215e-04  -7.7971694e-04  -2.5242113e-04  -1.7881265e-04   4.0186924e-06  -8.2505539e-05   6.2489430e-06   9.5317353e-07  -7.1755225e-05  -1.5059474e-04  -6.9495247e-05   8.6689251e-05  -2.2124495e-05   2.5866553e-04  -2.8015953e-04  -2.6129500e-04   1.5167732e-05   1.2303960e-06   4.7749133e-04   2.2113083e-04  -5.7582649e-05  -4.8414229e-05  -6.8565176e-05  -4.9332133e-04  -6.4331332e-05  -8.6162960e-05  -1.0105768e-04  -5.6791643e-04   2.6769846e-04  -1.4077131e-05  -1.9798985e-04   1.1157566e-03  -4.7384692e-05
  -1.4595376e-04   2.5761772e-06  -1.2072505e-04  -8.6498971e-05  -3.0308098e-05  -2.6055764e-05  -1.0982852e-04  -7.2709576e-05  -1.6103075e-03  -1.6726559e-04  -1.5274122e-04  -3.2385055e-05  -1.3986904e-04  -3.9927327e-05  -1.2852850e-04   3.9940892e-06   5.4501677e-05  -2.3502983e-04  -6.7293426e-05  -2.3627932e-04  -1.8885966e-04   2.1783642e-05  -6.1706705e-05   1.0510413e-05  -1.0477319e-04  -2.3286667e-04   4.9798931e-05   2.4510895e-05  -6.2718238e-05  -1.3490199e-05  -4.8962311e-04  -2.1893030e-04   5.1377335e-04  -7.9522324e-05   2.4351935e-05   1.3286559e-04  -1.2176598e-05  -4.6425146e-05   4.0350831e-05  -1.8171815e-04   1.0899129e-04   1.4888639e-04  -1.0882915e-04  -2.6408443e-04   1.7756908e-04   3.8570983e-04  -2.4466432e-04   6.8077352e-05  -2.2188708e-04   2.5638510e-04
  -1.1490575e-04   5.3567346e-06  -1.3819765e-04  -8.5525106e-05  -1.4671463e-05  -1.0673533e-04  -8.4901119e-05  -9.2835922e-05  -1.4704025e-03  -1.7059586e-04  -1.6742141e-04   6.9265134e-06  -1.4105538e-04  -4.9421986e-05  -6.5849374e-05  -4.2980741e-06   6.5909386e-05  -3.1268448e-04   2.8943064e-04  -2.0887275e-04  -1.7697661e-04  -2.2612108e-05   1.1581911e-04  -4.1802170e-05  -1.0392640e-04  -2.1231301e-04   5.0120456e-05  -1.9216397e-05  -7.6390417e-05  -5.5165823e-05  -4.1958969e-04  -2.4897014e-04   2.2726764e-04   2.0432711e-04   1.9615247e-05   4.5667015e-04   2.5994892e-05  -5.4037035e-05   5.3012544e-05  -1.6277915e-04  -4.2829830e-05  -9.4326242e-05  -1.0234148e-04   3.9279441e-04  -8.2715072e-05  -4.8163047e-04  -8.7667926e-05   6.8547815e-05  -8.1520202e-04   4.0106411e-04
  -1.1159401e-04  -3.2626990e-06  -1.4276651e-04  -1.1164729e-04  -5.4471337e-05  -9.2098977e-05  -9.0117566e-05  -1.2205115e-04  -1.1326125e-04  -1.6320501e-04  -1.3799132e-04  -5.1621446e-05  -1.3810258e-04  -4.5937111e-05  -8.9465037e-05   2.2508746e-05   6.5277825e-05  -3.2101836e-04   8.2315283e-04  -2.2598465e-04  -1.5169104e-04   3.7462043e-05  -1.0098152e-04  -5.2665423e-06  -3.5201734e-05  -3.0555148e-04   2.5635623e-05  -3.0378356e-05  -3.1070904e-05   2.3004786e-06   3.5605968e-05   5.5217646e-05  -5.5712295e-05  -2.2326094e-05  -3.5299421e-05  -5.2560899e-05   3.0726613e-04  -2.4847825e-05  -6.9154346e-05  -9.0671667e-05   9.9513316e-05  -2.0896330e-05  -9.3801173e-05   2.0769936e-04  -1.2231579e-04   3.5755249e-04  -1.1504733e-04   2.0377765e-05  -7.9279457e-04   2.9421618e-04
  -1.4808444e-04  -9.7855454e-06  -1.1744844e-04  -8.5261890e-05  -2.2289065e-05  -7.5711258e-05  -2.5113050e-05  -8.8539426e-05   6.0873927e-04  -1.3972378e-04  -1.4210319e-04  -2.6183632e-05  -1.7333055e-04  -1.0022112e-04  -1.4988975e-05  -6.3652391e-05   7.3469469e-05  -1.7448286e-04   4.4691793e-04  -2.2909435e-04  -7.9337879e-05  -3.3468139e-05  -1.2097622e-04  -3.9893835e-05  -1.7823771e-04   2.3932778e-05  -8.9018264e-05  -4.0217295e-05   6.1950515e-05  -6.5674525e-05  -3.5283316e-04  -8.2568207e-05  -9.1253860e-05  -9.6413447e-04  -5.2227155e-05  -1.2111953e-03   5.3284184e-05   5.8416077e-05   1.2497191e-05  -2.3977227e-04  -2.3333174e-04  -7.8878220e-05  -1.7895359e-04   3.6718044e-04  -6.7462330e-05   7.1395142e-04  -2.6602313e-05  -2.5680845e-06  -2.0789884e-03   1.9914070e-04
  -1.0586780e-04  -6.6830330e-07  -1.3103313e-04  -8.9551620e-05  -4.7299993e-05  -2.2099053e-05  -1.2745138e-04  -1.0697771e-04   9.7937707e-04  -1.3315443e-04  -1.5682582e-04  -4.7125097e-05  -1.4574775e-04  -3.2234049e-05  -1.2794661e-04  -1.0364073e-05   4.0883304e-05  -1.3763798e-04  -6.6185038e-04  -2.5147875e-04  -1.4017492e-04  -5.9744874e-05  -7.4209755e-05  -6.6538443e-05  -6.3136620e-05  -1.4539005e-04   6.8671310e-05  -9.8719953e-05   1.0214109e-04  -5.4605793e-05   2.1202408e-04  -2.8234441e-04  -6.4471815e-06   1.4482364e-04   6.6444363e-07  -2.7523292e-04  -9.4475661e-05   2.9347173e-05  -6.0115632e-05   1.6596298e-04  -3.7704909e-04   9.7749900e-05  -1.6279437e-04   1.7605473e-06  -9.8481221e-05   9.3152991e-04   1.0943416e-04   4.2334577e-06  -5.1932369e-04  -1.0879403e-04
  -1.2443693e-04  -1.1192708e-05  -1.2762136e-04  -8.8534041e-05  -1.7035007e-05  -7.5978038e-05  -6.4060718e-05  -1.8042473e-04  -1.9692413e-04  -1.5455279e-04  -1.7862473e-04  -4.2975757e-05  -1.4843233e-04  -3.7823160e-05   2.6775477e-05  -5.2603423e-06   8.8757552e-05  -1.0723484e-04  -8.3937665e-04  -2.0123229e-04  -1.4710553e-04   2.6904781e-05  -1.4770444e-04  -7.8683006e-05  -1.2555625e-04   3.6429970e-05   4.0479690e-06  -7.0727932e-05   6.7525025e-06  -3.6542031e-05  -2.8860956e-04  -1.6549512e-04  -5.7394402e-05  -1.0174240e-04  -5.1729457e-05  -3.8302585e-04   5.1123901e-05   1.1086541e-05  -1.3081156e-04   3.0509866e-04  -1.0916260e-04   2.0697898e-04  -1.3730816e-04   2.4861257e-04   3.2092523e-04   4.4240733e-04  -1.5963068e-04  -7.7044366e-05  -4.7789159e-04  -4.2820051e-05
  -1.4781392e-04   4.4185804e-06  -9.9149314e-05  -9.4021249e-05  -2.0653446e-05  -4.3218013e-05  -2.0442096e-05  -7.4168172e-05   5.2771176e-04  -1.4761089e-04  -1.3752801e-04  -4.2537969e-05  -1.2987685e-04  -5.8683829e-05  -1.1765096e-04  -3.7286456e-05   4.9254075e-05  -2.2951365e-04  -1.0393014e-04  -2.4488955e-04  -9.1205256e-05   1.2308326e-05  -9.8619501e-05  -1.7632413e-04  -1.3092345e-04  -3.0286974e-05  -3.3225177e-05  -1.3194245e-04  -3.6741621e-05  -5.5143892e-06  -1.3089938e-04  -1.8965265e-04   3.0121426e-04  -6.8162044e-05  -6.7339519e-05  -3.2873254e-04  -1.2752457e-04   6.8567235e-05   1.9581605e-06   6.9532121e-05   3.1902313e-05  -6.4816748e-05  -1.4256511e-04   1.2855176e-04  -5.4427300e-04   6.4866699e-04  -2.7046946e-04  -9.9280609e-05   4.7419057e-04   6.0147810e-05
  -9.8560267e-05  -1.2958691e-05  -1.1901774e-04  -9.2496179e-05  -6.2664708e-06  -6.8354093e-05  -6.6439366e-05  -1.2957746e-04   7.5731491e-04  -1.4553225e-04  -1.4455452e-04  -8.3577332e-05  -1.1974135e-04  -9.0706395e-05  -1.7737529e-04  -5.2943891e-05   4.6836911e-05  -4.2027896e-04   2.1397187e-04  -2.4573659e-04  -1.2999923e-04  -1.2285531e-05  -6.0306273e-05  -1.6657471e-04   2.0535725e-05  -1.5178144e-04  -9.2888316e-05  -9.5452015e-05   2.9094726e-05  -3.6457866e-05  -4.9179529e-05  -3.9825830e-04   1.0600028e-04   7.2326761e-06  -7.4431482e-05   4.3731779e-04   1.7040140e-04   3.6014306e-05  -9.4032352e-05  -1.8434548e-04   9.7476826e-05   1.0814401e-04  -1.1454937e-04  -1.2642851e-04  -2.7722344e-04  -3.5867623e-05  -4.2704825e-05  -1.1316886e-04   6.6961930e-04  -5.0227705e-04
  -9.2702125e-05   3.2378859e-06  -7.8337100e-05  -6.3007668e-05  -3.1366904e-05  -3.9209262e-05  -1.8771867e-05  -1.7971716e-04  -1.0262217e-03  -1.2949899e-04  -1.0564637e-04  -4.0864375e-05  -1.3186698e-04  -7.7623568e-05  -2.1398302e-04  -3.9845694e-05   5.5339733e-05  -3.5130366e-04  -1.4637378e-03  -2.1821685e-04  -1.3034072e-04  -8.2694769e-06  -1.4118271e-04  -1.1222963e-05   3.6274774e-05  -4.8520942e-05   6.8063412e-07  -9.7286204e-05  -4.3848308e-05  -6.3411142e-05  -5.3053763e-04   1.1162309e-04   3.5612390e-04   1.1280117e-05  -5.6022716e-05  -4.1833549e-04   1.2838444e-05   2.7003196e-05   1.3252285e-05  -2.3945210e-04   5.7877951e-05  -1.8419301e-04  -1.3045705e-04  -6.7635832e-05   6.7155306e-05   9.1982359e-04  -7.3552837e-05  -6.3526699e-05  -7.2349707e-04   2.7026207e-04
  -1.0590306e-04  -1.2353093e-05  -1.1854911e-04  -5.8412741e-05  -5.1937299e-05  -8.4795392e-05  -1.0168255e-04  -1.1785806e-04  -5.6433721e-05  -1.6842427e-04  -1.4335019e-04  -2.2584927e-05  -1.0483006e-04  -8.7450448e-05  -2.6570291e-05  -4.3120937e-05   7.8066863e-05   1.2743656e-04   1.5473507e-04  -1.8692993e-04  -1.4022563e-04  -4.3338125e-05  -1.2312584e-04  -5.3242078e-05  -3.5343604e-05  -5.3978230e-05  -7.7322969e-05   6.8379600e-06  -8.9906134e-05  -7.6010015e-06  -3.0482092e-04   1.4074436e-04  -6.3042011e-05  -2.4120997e-04  -4.7572707e-05   5.0004077e-04   2.4120136e-06  -2.1010433e-06  -1.0830347e-04  -2.7845553e-04   3.7208651e-05  -3.0717877e-04  -1.1373821e-04  -4.4161233e-04  -4.1068284e-04   1.2170904e-03  -4.1661318e-05  -9.5380899e-05   1.5846731e-03   3.4224833e-04
  -8.0219208e-05   4.7604467e-06  -1.0044361e-04  -7.2907438e-05  -2.0644466e-05  -7.9034420e-05  -6.2573774e-05  -1.2755232e-04  -9.0706284e-04  -1.4374417e-04  -1.1302165e-04  -3.3756518e-05  -1.1560959e-04  -5.0118520e-05  -1.5726591e-04  -1.8298730e-05   1.0051985e-04  -2.8295320e-04   9.7952296e-05  -1.9466678e-04  -1.3378746e-04  -1.3890599e-05  -6.1389110e-05  -4.9349575e-05   1.0622882e-04   1.4931436e-04  -1.4633157e-04  -1.6413922e-04  -1.5754708e-04  -7.3021838e-05  -3.7434010e-04  -1.1385307e-05   1.8279749e-04   1.1085578e-04  -5.8422946e-05   4.3344370e-04   2.5322628e-05  -2.6199667e-05  -1.1008685e-04  -1.6756577e-04   5.0891998e-05  -2.9395826e-04  -5.1338619e-05   1.5921963e-04  -2.1432276e-04   2.1085155e-04  -2.8518488e-04  -1.4324561e-05  -5.0146575e-04   4.4635785e-04
  -8.6621316e-05   1.2100005e-06  -1.2133989e-04  -5.8491802e-05  -3.9248607e-05  -7.2734343e-05  -1.1400564e-04  -9.7596792e-05  -1.8473014e-05  -1.6771311e-04  -1.2038359e-04  -2.0780886e-05  -1.2529061e-04  -5.9381073e-05   1.4324036e-05   7.5065527e-06   9.6121083e-05   2.9658535e-04   1.9081174e-03  -1.8124998e-04  -1.4480962e-04   3.9692943e-05  -1.7168673e-05   9.2479553e-05  -1.4077808e-04  -4.2522329e-06   9.4802803e-05  -6.3791405e-05  -8.1558617e-05  -3.7189759e-05  -7.0186588e-04  -2.2544595e-04   1.7477115e-04  -5.3580712e-05  -2.1077147e-05  -1.0182525e-04  -1.4646513e-05  -4.9816310e-05   6.6405046e-06   2.1262860e-04  -2.7255235e-05   1.6010624e-04  -5.4658183e-05   7.0022914e-05  -1.7804711e-04   4.7473196e-04  -2.9396644e-05  -1.7181361e-05   1.0422876e-03  -6.0185645e-04
  -1.2784974e-04  -6.7614433e-06  -8.4746425e-05  -4.3885331e-05  -2.6104348e-05  -8.2038627e-05  -5.7706613e-05  -9.9439065e-05  -8.9680933e-04  -1.4627693e-04  -1.3027253e-04  -7.0409956e-06  -1.0710591e-04  -5.1029550e-05  -2.6185473e-05  -2.2801198e-05   7.6634569e-05  -1.6295564e-04   5.8179506e-04  -2.0010959e-04  -1.3734472e-04   2.8871813e-05  -1.2392132e-04  -3.2599983e-05  -1.2490741e-04  -8.3013365e-05   1.2429738e-05  -1.9405146e-05  -4.6931891e-05   1.1754633e-05  -3.0977905e-04  -5.9546339e-05  -3.4370908e-04  -1.2524519e-04  -1.6314491e-06   5.2478822e-04   5.1228220e-05  -5.8316167e-05  -1.4605850e-05  -3.8847825e-04  -9.6421296e-05  -5.7017951e-05  -6.3860083e-05   2.7047703e-04  -5.7339802e-04  -8.7271188e-04   4.7528363e-05  -1.0938968e-04  -2.5266423e-03  -9.3348017e-06
  -9.6410782e-05   4.8564448e-06  -1.0267048e-04  -5.5971454e-05  -3.3057382e-05  -3.3930857e-05  -2.8037193e-05  -2.3684028e-04  -3.1721027e-04  -1.5781102e-04  -1.1375608e-04  -1.5465248e-05  -1.3162121e-04  -3.3413311e-05   1.3281193e-05   2.9064363e-06   6.8238784e-05  -1.4266720e-04   2.0353707e-05  -1.8735531e-04  -1.4330231e-04   6.9507762e-05   4.4188593e-05  -6.1583145e-05  -7.5862670e-05  -6.5516520e-05   2.1940868e-05  -1.0081052e-04  -4.2919073e-05  -1.7506087e-05   2.9973697e-04   7.8600795e-05  -2.0436147e-04  -2.1852336e-04  -1.1730393e-05  -3.0993553e-05  -1.5249972e-04  -7.1335860e-05  -6.5303335e-05   2.4227156e-04   1.6869073e-04   2.4214259e-04  -6.5600201e-05  -1.3998259e-04  -2.1336721e-04  -2.7279725e-04  -1.8142428e-05   6.3660707e-05   9.3109161e-04  -2.8830441e-04
  -1.0220939e-04  -5.5505147e-06  -9.3993927e-05  -6.6077657e-05  -6.7151700e-06  -4.6121790e-05  -1.0476652e-04  -1.8151014e-04  -4.0341972e-04  -1.7197632e-04  -1.3123258e-04  -2.2948929e-05  -1.0045210e-04  -7.3725103e-05  -1.3345131e-04  -2.3045583e-05   5.9507580e-05  -3.5146246e-04  -1.1181942e-03  -1.8376231e-04  -1.3979804e-04  -2.4414442e-06  -1.2247391e-04  -1.8001730e-05  -6.1752362e-05  -1.0880288e-05  -3.0032306e-05  -3.0911509e-05  -1.5402336e-04  -3.8008970e-05  -4.7947633e-05  -3.9150444e-04   1.9412208e-04  -2.8627881e-04  -6.7054339e-06  -4.1017510e-04  -1.0594106e-04  -6.6052860e-05  -5.3761622e-05   6.8317640e-05   3.3295084e-05   2.5949068e-04  -8.7337503e-05  -1.0028598e-04  -5.5339781e-04  -5.1745877e-04  -2.1437451e-04   3.5389949e-05  -1.0424266e-03   2.6171899e-04
  -7.6579738e-05   7.1245786e-06  -8.2970721e-05  -4.7361591e-05  -4.8527876e-05  -5.9619611e-05  -2.5884097e-05  -7.7189805e-05   6.4450095e-04  -1.4191768e-04  -1.2266693e-04   7.8562971e-06  -1.0533106e-04  -5.1149895e-05  -1.4457085e-04  -5.0009494e-05   7.3291485e-05   5.2278920e-05  -1.1771360e-04  -1.7775617e-04  -1.2480536e-04   3.9146180e-05  -7.0360889e-05   1.3560002e-05  -3.0771311e-04  -1.7303164e-04   8.4833533e-05  -1.2151703e-04  -5.2634958e-05  -1.0862846e-05   1.1185047e-04  -1.5992420e-04   2.4389873e-04   4.6460344e-05  -2.9975817e-07  -2.3512821e-05  -2.9602225e-04  -6.8543050e-05  -3.3650544e-05  -1.8691973e-05  -1.6742176e-04   2.2562520e-04  -5.5966961e-05   1.2775802e-04   1.3138101e-04   5.2490541e-05  -2.7461803e-05   4.9722606e-05  -1.9419903e-04   1.6394825e-04
  -9.1049478e-05  -2.6363327e-06  -8.8594352e-05  -5.1992312e-05  -4.3232943e-05  -3.1311400e-05   2.9745839e-05  -9.5987503e-05  -3.3617168e-04  -1.4927266e-04  -1.1844082e-04   2.6628626e-05  -1.2204862e-04  -7.1106333e-05  -1.8867526e-05  -6.8528454e-05   3.6402915e-05  -1.3933961e-04   1.5637093e-03  -1.9005517e-04  -1.3850832e-04   2.6124892e-05  -6.0695871e-05  -4.0493316e-05  -9.7830402e-05   1.1803336e-04  -2.1619682e-04  -5.9679442e-05   3.2048606e-06  -5.4623465e-06   7.8841875e-04  -4.2505329e-04  -3.3221670e-04  -1.6811905e-04  -3.2201762e-05  -1.1439763e-04   6.0368122e-05  -3.4889537e-05   1.4510512e-05  -1.6330252e-05  -1.9957541e-04   1.6121037e-04  -1.4045519e-04   1.0476135e-04  -1.3810493e-05   1.6344951e-04   1.5071555e-04  -7.3664611e-05   1.7496498e-03  -3.3682850e-04
  -8.8222558e-05  -1.7119486e-05  -8.3916202e-05  -5.9478851e-05  -3.1112690e-05  -7.5461234e-05  -1.0023834e-04  -1.0249124e-04  -2.7079307e-04  -9.4802337e-05  -1.0142862e-04  -1.8706476e-05  -1.1284547e-04  -1.0255702e-04  -1.8226582e-04  -7.7168625e-05   5.4151911e-05  -5.8027933e-04   2.5850302e-05  -1.5543787e-04  -7.7109384e-05  -1.2535965e-05  -9.1000657e-05   9.2421913e-05   9.4883610e-05  -7.4735908e-05  -5.4371758e-05  -1.2157246e-04  -1.0087041e-04  -4.2103005e-05   8.1230341e-05  -6.0749135e-05   3.2859170e-04  -3.8559367e-05  -4.4596956e-05  -3.9640255e-04   1.1907814e-05  -1.4247809e-05   5.5685530e-05  -4.3171458e-04   2.3142568e-06   2.9319839e-04  -8.5761705e-05   1.2716057e-04  -2.8646382e-04   1.2015273e-03   1.5437174e-04  -1.8841389e-04   1.1859364e-03   2.9651652e-04
  -9.1790556e-05  -4.4745934e-06  -9.6045020e-05  -4.5387635e-05  -5.0459268e-05  -5.6907400e-05  -8.4269028e-05  -9.4929128e-05  -5.3650182e-04  -1.0926851e-04  -1.1722272e-04  -2.9190121e-05  -1.1183134e-04  -1.2709186e-04  -1.0480137e-04  -1.1487418e-04   2.8637622e-05   2.5612346e-04  -7.0398772e-04  -1.9492712e-04  -8.2158309e-05  -9.4542856e-06  -1.9722235e-04  -1.2771397e-04  -1.4676273e-04  -1.1089994e-05  -2.0186159e-04  -6.8335969e-05   5.2020409e-06  -7.9745485e-05   8.2178776e-05  -1.5659857e-04   8.2861987e-04  -1.8723526e-04  -6.8842703e-05  -2.3204628e-04  -1.4001776e-04   5.0420062e-05  -3.2860786e-05   3.4369827e-05  -3.5627829e-04   3.0701002e-04  -8.1101447e-05  -1.0021417e-04   1.8786469e-04   8.3920888e-05  -4.4591387e-05  -1.4132424e-04  -1.7560389e-03  -1.8413644e-04
  -8.7571440e-05  -3.2019107e-05  -9.3533650e-05  -8.2785184e-05  -4.9287930e-05  -8.1071383e-05  -4.6314421e-05  -1.9521857e-04   1.6292966e-04  -1.1989216e-04  -1.1572735e-04  -9.5087205e-05  -1.2033971e-04  -1.2788374e-04  -1.6000051e-04  -1.3535820e-04   1.0581214e-05  -1.6412840e-04  -4.2649708e-04  -1.8867134e-04  -7.9981677e-05   1.1213169e-05  -2.7325976e-04  -1.6731428e-05  -2.5226275e-04  -8.7441018e-05  -8.3924650e-05  -1.1682333e-04  -1.0009341e-04  -3.5741879e-05   3.8207130e-05   1.5254917e-04   3.9172932e-04  -3.5855359e-05  -3.4004526e-05   3.7720200e-04  -2.7351873e-04   5.4155879e-07  -3.7494170e-05   3.6278328e-05   1.0927922e-04   2.1097485e-04  -9.8047582e-05   4.0371434e-04  -2.6098618e-05  -1.7405258e-03   2.4753954e-04  -6.2944513e-05  -7.4353779e-04  -1.9217665e-04
  -9.5510790e-05  -1.8776904e-05  -9.0059853e-05  -8.0585101e-05  -2.2406897e-05  -6.5682449e-05  -2.9202969e-05  -1.6139216e-04  -7.2786352e-04  -1.1381453e-04  -1.2325717e-04  -8.8603905e-05  -1.4391694e-04  -1.5373135e-04  -1.7505762e-04  -1.6033853e-04  -1.0825397e-05  -2.3242853e-04   8.5386931e-04  -1.9171351e-04  -9.0857808e-05  -7.6721881e-05  -5.6720291e-05  -1.7535337e-04  -2.1475754e-04  -1.1667779e-04  -2.3269469e-04  -1.3890908e-04  -1.5342415e-05  -6.2300387e-05  -3.0241325e-04  -5.5906661e-05   3.6901831e-05  -1.2161661e-04  -4.1470252e-05  -5.1946793e-04  -8.2219660e-05   2.6944659e-05  -1.2312160e-04   8.6320855e-05  -1.2650818e-05   6.7476838e-05  -1.4012078e-04  -4.3514327e-05   4.9892718e-05  -7.0078834e-04   2.8849900e-04  -1.9349510e-04   4.6649843e-04  -1.0484268e-04
  -1.2983443e-04  -2.5491714e-05  -8.2858656e-05  -7.1898423e-05  -5.9128040e-05  -6.6015731e-05  -4.1443174e-05  -1.4189081e-04  -2.0784307e-04  -1.2258187e-04  -1.6020163e-04  -8.0283258e-05  -1.1501596e-04  -1.5483629e-04  -1.8857133e-04  -1.0916092e-04   1.0981566e-05  -1.6055930e-04  -8.7938493e-04  -1.9167991e-04  -1.0367947e-04  -9.9804283e-06  -8.3601899e-06   9.2765404e-06  -1.1778667e-04  -2.7715709e-05  -4.7217705e-05  -1.1799377e-04  -5.1641986e-05  -2.9777962e-05  -3.0598708e-04  -1.8733184e-05   4.3902520e-04  -1.3283457e-04  -5.6986511e-05  -7.1067840e-04  -1.6930575e-05  -1.8691901e-05  -1.3658512e-04  -4.2841572e-04  -2.4012808e-04   1.5728865e-04  -8.2557883e-05  -1.9360933e-04   4.6058797e-04  -5.7342764e-05  -7.7176235e-05  -1.7933344e-04  -1.5890333e-04  -3.8529676e-04
  -8.3202460e-05  -1.4505165e-05  -7.5320568e-05  -5.7837438e-05  -4.9849357e-05  -7.5627919e-05   1.0440118e-05  -1.7792459e-04   1.5248334e-04  -1.2837649e-04  -1.3471485e-04  -7.8058591e-05  -1.4250664e-04  -1.4309528e-04  -6.1818784e-05  -1.3722942e-04   1.2867574e-05  -1.3207585e-04   2.1173900e-04  -1.7511391e-04  -1.1011658e-04  -4.4500307e-06  -8.8813897e-05  -8.8213390e-05  -1.6930154e-04  -1.9574526e-04  -6.5725850e-05  -5.0099537e-05   2.8073304e-05  -7.5917451e-05  -7.8505249e-04  -1.7774607e-04   2.7325668e-04  -6.2966566e-05  -8.7890643e-05  -7.3620155e-05   8.7467182e-05  -4.6240384e-05   1.0374517e-05  -2.4157613e-04  -5.4598480e-05  -8.9235044e-05  -8.9756235e-05  -4.8633595e-04  -4.4576393e-04  -8.6030304e-05   4.0488210e-04   2.9800884e-05  -9.9850225e-04   2.6274042e-04
  -8.3994179e-05  -1.1907799e-05  -7.9155165e-05  -7.4709547e-05  -4.8624112e-05  -6.7214125e-05  -3.9754785e-05  -1.2047354e-04  -5.5593275e-04  -1.4154571e-04  -1.5013065e-04  -3.8301714e-05  -1.2738208e-04  -1.1439178e-04  -1.4467642e-04  -8.1199250e-05  -2.5010488e-06  -7.5168951e-05  -5.3939794e-04  -1.8586015e-04  -1.1762275e-04   6.3364978e-06  -1.0833461e-04  -9.3714953e-05  -1.9124809e-04   4.0178104e-05  -7.2095092e-05  -8.6116801e-05  -1.3178971e-04  -1.6982842e-05   1.4107238e-04   1.2286461e-04   6.3947182e-06  -1.8864039e-04  -7.5785210e-05  -5.7548913e-04  -9.4328010e-05  -5.5985358e-05   1.9523579e-05  -3.2430144e-05  -6.0351238e-05   1.9841119e-04  -2.7497779e-05  -3.7753294e-04  -4.0727406e-04  -4.6043048e-04   1.9446835e-04   1.2281399e-04   6.7507708e-04  -3.3220131e-04
  -7.0914401e-05  -2.6029293e-05  -8.6207925e-05  -7.4806238e-05  -1.7641692e-05  -5.3902681e-05  -8.1505146e-05  -1.6780665e-04  -1.5101850e-04  -1.3994052e-04  -1.1614836e-04  -4.7576359e-05  -1.0645494e-04  -1.3422017e-04  -7.9980338e-05  -1.0789411e-04  -1.5709358e-07  -8.2391183e-05   5.2727661e-05  -1.7406860e-04  -1.1523379e-04   3.7935042e-05  -9.3982642e-05  -5.0955274e-05  -2.2296107e-04  -9.4702609e-06   3.0755909e-05  -6.4808897e-05  -1.6065342e-04  -5.6895129e-05   1.0492098e-04   1.2568032e-04  -2.9359717e-04  -1.8769000e-05  -6.0635186e-05  -3.1715972e-04  -1.4707098e-04  -8.0931917e-05  -5.4792519e-05   1.1433141e-04  -5.0316896e-05   1.7349199e-04  -4.4224384e-05  -1.9805256e-04  -2.9012418e-04   1.1382544e-03  -5.2029514e-05  -1.1442498e-04   6.2489905e-04   1.4776941e-05
  -1.0733387e-04  -8.5749825e-06  -6.6795532e-05  -5.7589419e-05  -7.8136720e-05  -7.4715121e-05  -8.8099718e-05  -1.2598900e-04  -1.3317115e-03  -1.3119266e-04  -1.3227391e-04  -5.3297463e-05  -9.1313843e-05  -1.2631755e-04  -6.6912646e-05  -1.2435202e-04  -2.9103356e-05  -1.1942638e-04   6.8695092e-04  -1.7353187e-04  -1.0905116e-04   2.1233272e-06  -1.1540161e-04   1.6269838e-05  -1.3246955e-04  -1.5114469e-04  -5.6753182e-05  -1.2212872e-04  -1.5948899e-04  -1.6708798e-05   8.2069972e-05  -3.2292103e-04   1.7696343e-04  -1.4550952e-05  -6.8113906e-05   6.2692692e-05  -3.2573957e-05  -7.5988180e-05  -4.6573066e-05  -3.6200508e-04   7.1661365e-05  -7.8754201e-05  -7.2767107e-05   2.4942987e-04  -2.3042301e-04   5.3819100e-04  -2.0263674e-04   2.5439891e-05   1.0643172e-03  -1.9471301e-05
  -1.0545975e-04  -2.3498333e-05  -8.3832252e-05  -7.6082462e-05  -1.8378158e-05  -5.9523663e-05  -9.1804526e-05  -7.5912008e-05  -5.3509988e-04  -1.3905062e-04  -1.3113476e-04  -3.5134541e-05  -1.1085116e-04  -8.6386062e-05  -1.3405461e-05  -1.1911063e-04  -2.6967751e-05  -3.3293612e-04  -1.6275805e-04  -1.7977615e-04  -1.0801527e-04   2.1440246e-05   1.6923468e-05  -3.5885394e-05  -2.0245772e-05  -9.9482386e-05  -9.5682626e-05  -3.3857217e-05  -1.1056040e-04  -7.4237291e-06  -7.7106797e-06   2.4042133e-04   2.9125938e-04  -2.6901811e-04  -3.4410168e-05   7.3552440e-04   1.6215521e-04  -9.0667156e-05  -1.2189946e-04  -2.6936704e-04  -1.6367423e-05   3.1537798e-04  -8.0256759e-06  -1.1516215e-04  -4.7671358e-05   5.3748518e-04  -1.6382334e-04   7.5407283e-05  -7.3422992e-04  -4.8639448e-04
  -8.5497231e-05  -1.2973772e-05  -7.8472694e-05  -4.6304889e-05  -2.9776415e-05  -6.6917230e-05  -6.1388942e-05  -2.2220815e-04  -8.9477375e-04  -1.2021008e-04  -1.2481383e-04  -3.7745434e-05  -1.1805043e-04  -1.5056346e-04  -2.5296272e-04  -1.3966834e-04   5.8654336e-06  -1.8202404e-04  -1.4623030e-03  -1.7145126e-04  -7.9295387e-05   2.5204203e-05   2.6665793e-05   1.8567960e-05  -2.9993031e-04   5.1906169e-05   1.0947150e-05  -7.2290721e-05  -7.8105324e-05  -2.5883823e-05   3.2070387e-04  -1.1343701e-04   1.8176537e-04  -1.6163627e-04  -7.4149139e-05  -3.6751753e-05   2.7877162e-05   7.0780020e-06   2.5243500e-05  -9.7859585e-05  -5.7097172e-05   4.7505277e-04  -8.5921514e-05  -1.8978828e-04   6.0630071e-05  -9.4170816e-04  -4.2404499e-05  -9.7592274e-05  -1.3488014e-03  -3.5777088e-04
  -1.0241703e-04  -3.1235464e-05  -8.6087362e-05  -6.1239232e-05  -3.7348367e-05  -1.0972608e-04  -8.5414576e-05  -1.9116004e-04   6.0000934e-04  -1.1620959e-04  -1.3597329e-04  -5.4674751e-05  -1.2412162e-04  -1.8981486e-04  -2.5337291e-04  -1.2193583e-04  -1.1949262e-06  -2.0709742e-04  -1.5244894e-03  -1.7901073e-04  -5.5819281e-05   3.0093747e-06  -2.8845583e-04  -3.7176669e-05  -1.5328627e-04  -3.7207847e-05  -1.4939485e-04  -6.9484835e-05  -1.6324034e-04  -6.2350307e-05  -9.5445554e-05  -3.6661484e-05   1.7152520e-04  -1.9271315e-04  -6.1004426e-05  -2.8576222e-04   1.7323512e-04   3.4374047e-05  -1.2955445e-04  -1.0788363e-04   8.7677690e-05  -1.5671947e-04  -1.1041328e-04   1.2046253e-04   1.5468011e-04  -4.0528708e-04   3.8657170e-05  -5.9806043e-06  -2.7459729e-04  -1.7622065e-04
  -8.0074678e-05  -2.6963848e-05  -5.9024365e-05  -7.7911580e-05  -5.6326830e-05  -7.7884681e-05  -3.2471249e-05  -1.9782649e-04   7.2288228e-04  -1.0393961e-04  -1.4936109e-04  -5.9640926e-05  -1.2914877e-04  -1.8304304e-04  -2.1943953e-04  -1.4528861e-04  -2.6920859e-05   4.9068459e-04  -2.5950633e-03  -1.8454963e-04  -4.7286547e-05  -6.5205640e-08  -8.1228543e-05  -3.6980888e-05  -3.9126963e-04   1.5320318e-05  -1.2238605e-04  -3.5786841e-05  -7.3704425e-05  -9.1186477e-05  -5.5187504e-04  -6.1719002e-05  -3.1430271e-05  -2.7631717e-05  -8.6308013e-05   5.1134184e-04  -2.1912651e-04   5.4364489e-05  -1.1006070e-04   7.7581615e-05  -2.3708014e-04   6.9582798e-05  -1.0678425e-04  -2.1893208e-04   2.5180978e-04   4.5822017e-05   1.7424222e-04  -3.6775582e-05  -1.9665980e-03  -1.5190910e-04
  -9.1953356e-05  -3.8532569e-05  -7.3148280e-05  -6.1200612e-05  -6.7886765e-05  -1.1239938e-04  -9.7369448e-05  -1.5792853e-04  -1.0425065e-03  -1.1138303e-04  -1.4517496e-04  -7.0644099e-05  -9.6502336e-05  -1.8147078e-04  -5.8342030e-05  -1.1022380e-04  -1.8450615e-05  -7.9262431e-04  -4.7729255e-04  -1.8322469e-04  -8.3035862e-05  -3.4501230e-05   2.9174262e-06  -4.8534581e-05  -3.1837064e-04  -3.6105621e-04  -1.9210752e-04  -1.5909587e-04  -6.9401045e-05  -5.4037213e-05  -4.4163363e-04   1.1535452e-04  -1.1674184e-04  -2.4644194e-06  -4.6211524e-05   4.7732479e-04  -1.6297998e-04   2.5990867e-05  -4.4161014e-05  -2.5368037e-04  -2.1975697e-04  -1.3912786e-04  -1.1529323e-04  -2.3921046e-05  -3.0178239e-04  -2.2574584e-04  -1.6648910e-04  -5.2496493e-05  -5.3643686e-04  -9.2606439e-05
  -1.3605705e-04  -4.9012222e-05  -7.0316630e-05  -1.3207906e-04  -3.5366007e-05  -8.7311790e-05  -9.5309530e-05  -1.2246487e-04  -1.0573216e-04  -1.2198064e-04  -1.5967514e-04  -6.7879439e-05  -1.1881996e-04  -1.8432904e-04  -1.5162489e-04  -1.2501441e-04  -3.0019191e-05  -3.9459926e-05  -8.6313562e-04  -1.7693218e-04  -4.3914140e-05  -4.4523160e-05  -1.9084978e-04  -1.5460094e-04  -1.3793603e-04  -1.7347430e-04  -2.3208519e-04  -9.6517200e-05  -1.5642679e-04  -5.2418414e-05  -3.0916790e-04   2.2763829e-04   6.0114482e-05   6.1342711e-05  -7.7843870e-05  -2.8414204e-04  -7.2564675e-05   5.4248139e-05  -9.1454625e-05  -1.8548533e-04  -2.8641077e-04   8.4497413e-05  -1.0851431e-04  -1.0632072e-04   2.2550808e-04  -3.8144691e-04  -1.4223873e-04  -5.7837202e-05   6.2555911e-05  -2.2790760e-04
  -9.4406772e-05  -3.8148366e-05  -8.3048028e-05  -1.0138048e-04  -6.9552822e-05  -1.0032135e-04  -1.1440437e-04  -1.9337752e-04   3.0271019e-04  -1.1400811e-04  -1.1481058e-04  -4.1779840e-05  -1.4084665e-04  -1.4567155e-04  -1.2092746e-04  -1.4153226e-04  -1.2703968e-05   1.1336337e-04  -1.4868836e-03  -1.7121524e-04  -4.6603342e-05  -6.1456885e-05  -1.4773247e-04  -1.3925020e-04  -5.3112406e-05  -2.6891885e-05  -1.2306162e-04  -2.0092314e-04   1.6645597e-05  -8.7738634e-05  -1.9237417e-04   1.1945690e-04  -1.7383107e-04   2.7265134e-05  -1.0204111e-04   2.5603658e-04   1.5128059e-04   6.7114328e-05  -1.8411172e-05   1.6781969e-05   2.2539879e-04   1.2851974e-04  -1.4119242e-04   2.8978691e-05  -1.6570724e-04  -7.4201595e-04  -1.9165575e-04  -1.2593219e-04  -6.0567335e-04   1.7246170e-05
  -1.1590857e-04  -4.8605321e-05  -5.9568923e-05  -9.4443174e-05  -3.1264783e-05  -7.4787997e-05  -1.8597979e-04  -1.4864728e-04   1.7126479e-04  -1.1659195e-04  -1.3870878e-04  -6.7722947e-05  -9.9519893e-05  -1.8198094e-04  -1.1343008e-04  -1.2352662e-04  -3.0671064e-05  -4.6371558e-04   3.8153451e-04  -1.6733007e-04  -6.2573366e-05  -3.6362555e-05  -1.1503538e-04  -1.9399564e-04  -2.4273158e-04   1.5486400e-04  -1.9692168e-04  -1.3504385e-04  -1.3927211e-06  -6.2889194e-05   1.6164333e-04   2.9683881e-04  -1.1777847e-04  -1.4305387e-04  -8.4292347e-05   4.4153698e-04  -2.0418091e-04   2.0341517e-05  -5.9711645e-05   5.5758585e-04  -1.6127285e-04  -8.6915788e-05  -1.1089502e-04  -1.4279793e-04  -1.1381284e-05  -4.1745102e-04  -1.2356603e-04  -8.1713042e-05  -3.3482024e-04  -3.0287376e-04
  -9.4068142e-05  -3.4417812e-05  -6.0783121e-05  -7.6631681e-05  -7.6190241e-05  -8.0417914e-05  -1.1251223e-04  -1.7330564e-04   2.2751118e-04  -1.0689641e-04  -1.2172491e-04  -4.8105499e-05  -1.0026375e-04  -1.4567812e-04  -8.9012297e-05  -7.6795266e-05  -3.1051994e-05  -6.6941616e-04  -4.9100776e-04  -1.6182548e-04  -7.2837931e-05  -4.8722591e-06  -2.0526075e-04  -3.0434267e-05  -6.7777488e-05   2.2847658e-04  -1.7940770e-04  -1.5518027e-04  -8.1155376e-06  -5.2635925e-05  -4.5749872e-05  -2.2862119e-05   2.0835493e-04  -2.9409141e-04  -7.1627590e-05  -3.1724840e-04  -6.6321700e-05  -1.9426201e-05  -8.0540907e-05  -1.9533400e-04  -7.3611598e-05   7.8581534e-06  -5.9059330e-05  -1.3960661e-04  -2.0154617e-04   1.7773379e-04  -2.0187310e-04  -4.4525317e-05  -6.4763990e-05   9.3083188e-05
  -1.3797139e-04  -3.9183884e-05  -7.3648065e-05  -6.9532100e-05  -5.2364998e-05  -7.9245925e-05  -1.0112322e-04  -9.4522344e-05  -6.8020332e-04  -1.1617376e-04  -1.1809535e-04   6.2551121e-06  -6.2070205e-05  -1.2183159e-04  -1.2859717e-04  -6.8871108e-05   3.3462888e-06   1.3771863e-04  -5.6484714e-04  -1.5268258e-04  -1.0081279e-04   8.5581305e-06  -1.0136752e-04  -1.7597256e-04   1.0289750e-07   3.3021304e-05  -1.4444717e-04  -6.4886946e-05  -1.0666996e-04  -4.1369382e-05  -1.6926721e-04  -1.3494083e-04  -1.0185158e-04  -2.4573121e-04   1.6725834e-06  -2.6994481e-04  -8.2868653e-05  -4.6497789e-05   1.5517035e-06  -2.0450949e-05  -8.0066326e-05  -2.0853055e-04  -2.6378037e-05  -4.3740816e-04   3.7626032e-04  -8.5535500e-04   1.7055841e-04  -3.3580360e-05  -1.0442171e-03  -4.1987677e-04
  -7.0036265e-05  -2.6641394e-05  -7.9731151e-05  -7.4298914e-05  -7.2178365e-05  -9.8765740e-05  -5.6718723e-05  -1.6422114e-04   7.9780812e-06  -1.0127523e-04  -9.6469899e-05   5.0732360e-06  -6.8117020e-05  -8.3513565e-05  -9.8882861e-05  -7.2330390e-06   2.5781395e-05  -3.0582427e-04   3.8030016e-04  -1.3333154e-04  -9.4496616e-05  -2.0510239e-05   2.1240943e-05  -3.3750042e-05  -1.9861622e-04  -9.5943833e-05  -1.2098998e-04  -7.5206604e-05  -1.1299533e-05   4.6859341e-06  -2.5260990e-04  -7.6541646e-06   2.1108669e-04  -1.5358895e-04  -4.6172925e-05   4.5063067e-04   7.7245852e-05  -5.0094273e-05  -6.9015208e-05  -8.3302031e-05   2.6934445e-05  -2.0166888e-04  -4.1347663e-05   4.5286572e-05  -3.4150883e-04  -2.3179734e-04   1.4688529e-04  -1.0774798e-04   1.7136555e-04  -3.2812290e-04
  -1.1878344e-04  -3.0268819e-05  -7.0904665e-05  -6.4844469e-05  -1.8911554e-05  -1.1875812e-04  -3.0802985e-05  -1.2783534e-04  -9.9421002e-04  -1.4740830e-04  -9.9927151e-05   2.0702601e-05  -6.4926979e-05  -7.2757815e-05  -1.8371618e-05  -2.0104384e-05   8.7536673e-06  -6.4522166e-05   7.4414484e-04  -1.4907570e-04  -1.0497254e-04  -2.8206197e-05  -2.7819880e-04  -9.5298885e-05   1.8259401e-04  -2.2726769e-04  -8.4549167e-05   1.7463715e-05  -7.3053059e-05  -3.1527394e-05  -5.6923891e-04  -7.0024558e-05  -1.1591467e-04   3.8643175e-05  -1.2503039e-05   2.0693376e-05  -5.8030578e-06  -6.2292493e-05   2.1747024e-05  -5.8065023e-05   6.1612758e-05   2.4389014e-04  -3.4100074e-05   1.0846591e-04  -4.7520373e-04   1.1637858e-03  -2.0089545e-04   7.1755785e-05   7.9562102e-04  -1.9149731e-04
  -9.3600436e-05  -3.7887286e-05  -1.0013919e-04  -7.1799041e-05  -5.4824759e-05  -9.3762290e-05  -1.3716852e-04  -9.3889314e-05   1.1752550e-03  -1.2444446e-04  -9.8841418e-05   4.4396933e-05  -3.7318816e-05  -7.8926707e-05  -1.6340749e-04  -4.4975450e-06  -1.9523004e-06  -4.3965288e-04  -2.4432203e-04  -1.2231884e-04  -7.6777738e-05   7.7865960e-05  -8.9709763e-05  -1.0631318e-04  -2.0986248e-04  -3.7477796e-05  -8.4331950e-06  -3.3114935e-05  -2.2915270e-05  -5.4098894e-07   1.5646596e-04   5.6292189e-05  -3.7817168e-04  -7.3386873e-05  -1.5123127e-05   4.4305847e-04  -8.3279992e-05  -5.6695433e-05   7.5414700e-06   1.0492658e-04   9.6614887e-05   1.0741033e-04  -3.0343574e-05  -3.5882022e-04   3.2658502e-04   6.7094015e-04   8.4618448e-05   1.1676754e-04   1.7075264e-03  -7.4205556e-05
  -1.0290962e-04  -2.3929613e-05  -7.4230753e-05  -5.1390245e-05  -4.9216022e-05  -9.9074867e-05  -2.8688337e-05  -7.5775344e-05  -1.2188052e-03  -1.3510004e-04  -8.9315879e-05   4.3980574e-05  -8.3967534e-05  -6.4957960e-05  -1.6171308e-04  -4.2254305e-05   2.9554280e-05   2.3452504e-04   2.1769629e-05  -1.1380679e-04  -8.6220476e-05   6.7254936e-05  -1.0348704e-04  -8.0028010e-05  -1.0698241e-04   5.1311614e-05  -1.9212250e-05  -2.2578688e-05  -7.4407973e-05  -9.9517038e-06   3.2098091e-04  -2.9134919e-04   1.1409609e-04  -1.2645799e-04   4.2027063e-05   2.6018682e-04   2.8023866e-04  -4.7130110e-05  -7.2866146e-06   1.1862237e-04   1.7855603e-04  -4.5746510e-04  -5.1137718e-05  -8.3794708e-05  -3.1616070e-04   6.3087384e-04  -2.3898825e-05   2.0224245e-05  -7.9509459e-04  -2.4388752e-04
  -1.0159485e-04  -3.5786939e-05  -5.7426991e-05  -5.6456196e-05  -4.2226566e-05  -5.7434219e-05  -1.0298035e-04  -8.0150785e-05  -4.8199561e-04  -1.4710969e-04  -6.1486659e-05   1.0069927e-05  -6.8410525e-05  -9.7311371e-05  -1.2514491e-04  -1.7173164e-05   4.5761866e-05   8.3946034e-05  -4.8079659e-04  -1.3348274e-04  -8.5377062e-05   2.8675468e-05   5.1041970e-05  -3.7145051e-05   7.5629818e-05  -2.1118636e-05   7.0290313e-05  -6.4881511e-05  -9.4900643e-05  -1.4348229e-05  -2.8738726e-04   1.9307465e-04   1.1178452e-04  -7.0451650e-05  -7.3155143e-06  -3.1617348e-04  -2.3907160e-05  -5.0403927e-05  -1.3704433e-05  -1.3561953e-04   7.6803526e-06   3.8108515e-04  -1.5361399e-08   6.1191444e-04   2.6483562e-05   5.6045724e-04   1.3103613e-04   1.4599125e-04   1.0558705e-04   1.5917221e-04
  -8.1209117e-05  -2.8202168e-05  -7.4810756e-05  -3.9560990e-05  -4.0076768e-05  -9.4122486e-05  -1.0241628e-04  -7.7045559e-05  -1.8425891e-04  -1.3400042e-04  -8.6656946e-05   2.9641014e-05  -4.5622186e-05  -2.8683857e-05  -1.2856977e-04   1.5446798e-05   3.1844902e-05  -2.1349626e-04  -2.0820770e-04  -1.0853080e-04  -6.1141596e-05   4.6491827e-05  -1.0428837e-04  -1.0702986e-04  -1.7277234e-04   1.3269777e-04   7.9339108e-05   1.3449818e-05  -7.5840799e-05  -1.4326854e-06  -3.7077622e-04  -1.9353155e-04   2.2823690e-04   2.9652694e-05  -2.1037748e-05  -1.7129931e-05   1.3463154e-04  -4.1666179e-05  -2.5677241e-06   1.0126548e-04   1.7259619e-04  -7.4883224e-05  -4.3941644e-05  -3.4367022e-04  -2.3316465e-04  -3.5965707e-06  -2.1317806e-04   1.3551647e-04  -2.5202503e-04   2.3773116e-04
  -6.7798537e-05  -3.8062793e-05  -8.3969768e-05  -5.9584843e-05  -5.9355192e-05  -1.1260547e-04  -2.5569632e-05  -3.5384870e-05  -1.1491813e-03  -1.2498080e-04  -5.6766316e-05   2.6189367e-05  -3.5344383e-05  -6.6060857e-05  -1.8110490e-04  -1.0775343e-05   3.8858387e-05   1.8487188e-04   6.7417539e-05  -1.1733467e-04  -4.5035980e-05   5.0388106e-05   7.5669552e-05  -1.1107189e-04  -7.2409937e-05   2.1775879e-04  -7.9240541e-05  -2.0315234e-05   8.7954708e-05  -4.1369535e-06   6.6346087e-04   4.6861928e-04  -1.2105650e-04  -1.8946271e-06  -2.8704659e-05   6.1218991e-05   1.4950552e-04   5.3313903e-05   1.0036616e-05   9.5426032e-05   1.1093107e-05  -3.2209404e-04  -6.4794935e-05  -8.4728876e-05   2.9562201e-04   5.2601926e-04  -6.3547945e-05  -3.1637599e-05  -1.2057248e-03  -3.0133300e-04
  -9.5282390e-05  -2.9400788e-05  -5.9392889e-05  -6.8106005e-05  -2.6694135e-05  -9.4824791e-05  -1.0765425e-04  -2.7449263e-05  -2.1820841e-04  -1.0583039e-04  -6.0970633e-05  -3.5470155e-05  -6.8969624e-05  -8.2943159e-05  -2.6509725e-04  -1.6524751e-05   5.0083236e-06   2.6564882e-04   4.2734412e-04  -1.1539013e-04  -2.7023018e-05   4.6822450e-05   6.0540737e-05  -1.5812931e-05  -1.0934474e-04  -6.8165711e-05   9.1727779e-06  -8.2762388e-05  -1.1735359e-04  -3.0131367e-05  -6.0180882e-05   9.6065385e-05   2.3147266e-04  -4.7059984e-06  -4.0143030e-05  -7.2464562e-04  -1.8422813e-04   3.0439985e-05  -4.1247858e-05  -3.9027783e-04  -8.9833651e-05   7.8384772e-05  -5.6913326e-05   9.8666089e-05  -2.4907073e-04  -2.4315187e-04   8.0182064e-05   1.7701090e-05   1.4552684e-03  -1.9317791e-04
  -8.0974904e-05  -4.4981462e-05  -6.7552653e-05  -5.3754695e-05  -5.3164189e-05  -5.7292706e-05   6.9030425e-06  -1.0789988e-04  -4.7136072e-04  -1.1224480e-04  -6.4169508e-05  -3.6732090e-05  -7.1639857e-05  -7.1448718e-05   1.8500134e-05  -2.4602707e-05   7.8952253e-06  -1.6363387e-04  -5.4376089e-04  -1.2094312e-04  -4.5517703e-05   7.0082351e-05  -7.8071680e-05  -1.0200478e-05  -1.9739788e-04   1.2375772e-04  -1.7748706e-04  -2.5475654e-05  -3.0251475e-05  -5.3309093e-05  -1.9148599e-04   1.3902402e-06   4.1345737e-04   5.2208572e-05  -5.7700843e-05  -5.6659995e-04   1.5658460e-04   5.8194517e-05   6.0668813e-06   4.0309092e-06   3.4450291e-04  -2.1454029e-05  -5.2986499e-05  -1.3265277e-04   2.8592703e-04  -7.6485425e-04  -2.0003354e-05  -6.1233448e-05   1.7659414e-03   1.4081075e-04
  -1.0056684e-04  -5.5556076e-05  -9.9164274e-05  -9.2707465e-05  -3.4994770e-05  -2.5832380e-05  -5.1395025e-05  -1.7167053e-04  -4.1075505e-04  -1.0271781e-04  -5.6001882e-05  -2.3547698e-05  -6.9017835e-05  -8.8301858e-05  -1.2440217e-04  -4.3175558e-05  -1.0144008e-05  -4.7407512e-04  -2.9682490e-04  -1.1186679e-04  -2.6044590e-05  -1.6485554e-05  -1.2386522e-04  -1.3983835e-04  -5.2240794e-05  -8.5337444e-05  -8.9575449e-05  -1.1171435e-04   1.1549871e-04  -4.2047897e-05   1.4065740e-04   1.7025178e-04   3.2580228e-04   1.2698535e-04  -3.6669040e-05   2.2281258e-05  -8.5069347e-05   5.9777256e-05  -7.7836426e-05  -4.5231172e-05  -2.5299180e-04  -2.4149177e-04  -6.1361330e-05   2.8354424e-04  -3.9492047e-04  -4.0107840e-04   5.3767122e-05  -7.7380928e-06   2.4660339e-04  -1.3958264e-04
  -6.8662353e-05  -4.8970353e-05  -6.9977570e-05  -7.3353396e-05  -7.5516131e-05  -9.6093652e-05  -5.4405384e-05  -5.0128467e-05  -1.0404384e-03  -1.1366032e-04  -1.0719688e-04  -2.5910664e-05  -7.6791417e-05  -9.8350640e-05  -1.7432778e-04  -3.1540552e-05   6.3472116e-06  -4.2875452e-04  -8.0620544e-04  -1.1081633e-04  -4.9441900e-05  -1.2633145e-05  -5.5869798e-05  -1.6392052e-05  -6.9478963e-05  -2.1193788e-04  -3.9728107e-05  -1.0550655e-04  -8.8307152e-06  -3.6066282e-05   2.9436449e-04   8.5800102e-06   2.0815014e-04   2.9821773e-05  -7.0968774e-05   8.4758147e-05  -5.0810067e-05   4.3390013e-05  -6.5103573e-05  -4.2833525e-04   1.2890405e-04   9.3178060e-06  -6.6564535e-05  -9.6841461e-05   7.5082608e-05  -9.3329902e-04  -1.0621348e-04   5.4109547e-05   1.9545841e-03  -5.7975285e-06
  -9.7032098e-05  -4.8826805e-05  -6.4122374e-05  -7.0121823e-05  -5.7918456e-05  -7.0366848e-05  -1.9688105e-05  -1.2314238e-04  -2.1402453e-04  -1.3700682e-04  -6.5636537e-05  -1.0115552e-04  -2.7585496e-05  -7.4768388e-05  -6.3905587e-05  -1.4644560e-06   2.0225014e-05  -2.3804787e-04  -3.0873745e-04  -1.1293246e-04  -8.1892584e-05   4.7725665e-05  -3.9732258e-05  -1.5301979e-04  -1.3231818e-04  -2.6978515e-04   1.5577642e-05  -1.9790052e-06  -1.5448045e-04  -5.3372380e-05  -9.2476184e-05  -2.2322783e-04   1.8264567e-05  -6.9978247e-05  -2.1726477e-05   5.3544791e-04   1.2646503e-04  -1.0299859e-05   6.9748385e-05   3.9964216e-04   1.3496747e-05   2.8368288e-05  -4.5822195e-05   2.7421254e-04   8.2048704e-05   5.4606382e-04   4.4004300e-05  -1.5340624e-05  -1.6414138e-03  -4.7764370e-05
  -8.0695281e-05  -3.3339591e-05  -3.4246757e-05  -5.7736430e-05  -4.8811009e-05  -8.9033427e-05  -4.0042520e-05  -3.6282348e-05  -6.2306943e-05  -1.4906042e-04  -8.0920887e-05  -2.5336762e-05  -7.4141346e-05  -7.3200805e-05  -5.1402163e-05  -3.2215892e-05   2.3870383e-05  -1.0924674e-04  -1.2564807e-03  -9.5280040e-05  -7.5112963e-05   7.6033689e-06  -5.8482063e-05  -4.5725224e-05  -3.7325060e-06  -2.0952977e-04  -6.3967796e-05  -3.4235072e-05  -9.0050555e-05  -2.5551402e-05  -3.4560937e-05   9.5857307e-05  -4.5830477e-04  -1.1269365e-05  -2.5328067e-05  -2.5518782e-05   5.4661119e-05  -2.9211571e-05   8.0754389e-06   1.7064592e-04   3.9207156e-05  -4.2556403e-05  -4.2105683e-05   4.7360016e-05   9.5392543e-06   2.3789391e-04   3.6125042e-04   4.9753638e-05  -6.2267721e-04   4.1472456e-05
  -6.5090695e-05  -4.1251096e-05  -5.4308799e-05  -6.7471956e-05  -4.6165198e-05  -8.3066836e-05  -4.1662232e-05  -1.1026587e-04   1.5032843e-04  -1.6159432e-04  -7.8078803e-05  -1.0717697e-05  -6.7584093e-05  -7.0459311e-05   1.3991575e-05  -2.0586509e-05   8.4169342e-06  -9.2909300e-05   3.2655164e-04  -1.0086998e-04  -8.9497677e-05   2.7275893e-05  -1.3306996e-04  -2.5228195e-05  -9.8337143e-05  -1.2880773e-04   5.2549589e-05  -3.2073982e-05  -1.0335126e-04   1.3391154e-06   4.0361611e-04  -2.1972611e-04   3.6063747e-04  -1.0258426e-04  -2.3987284e-06   9.3777780e-05   2.2885566e-04  -4.6101304e-05   3.1527536e-05  -8.8234017e-05   1.6601991e-04  -1.8888764e-04  -5.9267888e-05   5.2664109e-05   3.2590516e-04  -1.7504414e-04  -2.6616812e-04   8.5230698e-05  -1.8636259e-03  -1.6850232e-04
  -8.5158412e-05  -4.4250712e-05  -4.7423393e-05  -7.6403565e-05  -5.7238100e-05  -8.8202636e-05  -8.6658307e-05  -7.2346360e-05   6.2028324e-04  -1.5509475e-04  -5.3053667e-05  -1.7113975e-05  -8.1880818e-05  -5.6384913e-05  -3.5656256e-05  -2.6093796e-06   6.8866912e-06  -3.5324079e-04   7.8172627e-04  -9.9504396e-05  -8.7880515e-05   1.3270302e-05  -5.8011574e-05  -1.3039741e-05  -8.4776417e-05   2.4821021e-04   5.8540903e-05  -8.5667416e-05  -1.1477903e-05  -2.3857490e-05  -2.2739793e-04  -9.1886119e-05  -1.7831956e-04  -6.8901303e-05   3.0476231e-06  -3.4801103e-04   2.1789492e-04  -4.4637429e-05   2.5289180e-05   1.5293960e-04  -2.2911014e-04  -1.8319937e-04  -3.4119905e-05  -2.3001165e-04  -1.9507542e-04   5.0069188e-04  -2.9060096e-05  -1.9324505e-04   1.4283301e-03  -3.5784583e-04
  -6.8503592e-05  -3.7369300e-05  -6.7707806e-05  -4.2161162e-05  -4.6095593e-05  -9.0639362e-05  -7.0432769e-05  -4.2194013e-05  -1.0086300e-03  -1.6245939e-04  -7.4342031e-05  -7.2804487e-06  -4.6901565e-05  -6.5471708e-05  -1.7822182e-05  -1.6962780e-05  -2.1988608e-06  -3.5963490e-04   1.5761392e-04  -9.2465336e-05  -9.6691976e-05   5.0873354e-05   8.4503801e-05   2.4501043e-05  -2.5086205e-05   1.2423130e-04  -1.3318199e-05  -5.3299969e-05  -5.5154222e-05  -1.4870254e-05  -3.4822972e-04  -2.8191003e-04   6.6226540e-04  -9.3073075e-05   6.5857871e-06   7.7608519e-04   9.1013251e-05  -5.8212190e-05   3.9414736e-05  -2.8173791e-04   1.3600898e-04  -2.1522911e-04  -6.4025247e-05   3.2641369e-04   2.8098118e-04  -3.2932768e-04  -4.0296967e-05   7.0259142e-05  -6.5625284e-04   4.4259473e-04
  -7.4482377e-05  -4.7562280e-05  -4.6260575e-05  -8.8302622e-05  -4.5946257e-05  -8.8316381e-05  -1.2491544e-04  -5.9612121e-05   1.6516537e-04  -1.8383004e-04  -4.8118578e-05  -4.9941144e-05  -3.9877912e-05  -5.5546050e-05  -5.4186028e-05  -4.1468524e-05  -1.6080467e-06   6.6166467e-05   4.1584580e-04  -1.0452545e-04  -9.5811403e-05   8.5937445e-06  -1.7717726e-05  -5.8206027e-05  -1.0285612e-04   1.0042165e-04  -3.9404596e-05  -2.9942550e-05  -1.1902326e-04  -3.8588441e-06   1.8039758e-04   7.4935415e-05   3.4929215e-04  -4.8866721e-05   1.8099923e-05  -7.4795978e-05   2.1148338e-04  -5.3037846e-05   3.0793632e-05  -1.5356884e-05  -4.7211241e-04   4.8824781e-04  -5.1478564e-05  -4.2657900e-04   2.9441566e-04  -1.0122503e-03  -1.1037409e-04   5.1541079e-05   1.3565054e-03  -1.2888080e-04
  -7.3918607e-05  -2.6403613e-05  -5.0486829e-05  -4.4648001e-05  -4.3790147e-05  -1.1020297e-04  -7.3862313e-05  -1.2460577e-04   1.9163574e-04  -1.6095665e-04  -5.5823810e-05  -1.4850214e-05  -2.7257120e-05  -2.9052691e-05  -6.3195475e-05  -4.9967162e-05   2.3674382e-05  -8.5058446e-06  -1.7655827e-04  -8.7739871e-05  -8.9949637e-05   2.2636248e-05  -1.9086929e-04  -5.0843402e-05   5.4163760e-05   3.0278905e-05  -1.9076981e-05  -3.9012022e-05  -1.2641079e-04   5.1192224e-06   1.6411094e-04  -4.4381432e-04   1.4745940e-04  -9.3038383e-05   4.7401027e-05   2.9750832e-04   2.8938774e-05  -6.2328392e-05   8.8842949e-05  -7.4885211e-06   2.6500790e-04   1.7684697e-05  -4.4577828e-05  -8.2142571e-05   4.0693576e-05   4.6699035e-05  -2.6652159e-04  -9.1788417e-05  -5.9295382e-04  -8.5997177e-05
  -8.3472245e-05  -2.8817569e-05  -5.2389485e-05  -3.4214299e-05  -3.3076263e-05  -5.6891280e-05  -7.8683624e-05  -3.9357299e-05  -9.4037285e-05  -1.5501649e-04  -9.0316207e-05  -1.0123068e-05  -1.7381364e-05  -3.8663962e-05   3.8925122e-05  -2.1318589e-05   2.6253907e-05  -3.1917385e-04  -1.8282891e-03  -6.2653024e-05   5.2264670e-05   3.5474095e-05  -1.2272337e-04  -1.1180869e-04  -1.0641522e-04   1.9195044e-05  -8.7233246e-05  -1.8707529e-05  -8.0228347e-05   1.2429131e-05   3.2156162e-04  -3.0442193e-04   7.1798661e-04  -3.0355319e-05   4.9337850e-05  -4.8117089e-04   1.8448946e-04  -1.2943521e-04   1.6765942e-05  -1.4197196e-04   1.2925924e-04  -2.6595080e-04  -3.0134643e-05   1.3304618e-04   1.3555348e-04  -1.5770014e-04  -5.8187703e-05  -7.4048723e-05   6.2818005e-04  -2.0217561e-04
  -4.6136443e-05  -1.6031274e-05  -4.6337114e-05  -2.8887031e-05  -2.8107072e-05  -5.1439220e-05  -2.7285070e-05  -6.1154769e-06   3.1547699e-04  -1.4707087e-04  -6.4620079e-05  -9.4177440e-06  -3.1900145e-05  -6.8725960e-05  -1.4899610e-04  -4.5940327e-05   1.9068317e-05  -4.5816915e-04  -5.4126891e-04  -5.8018366e-05   1.7476143e-06   5.4923137e-05  -6.8355141e-05   3.7044014e-05  -1.3962350e-04   2.4926703e-04  -4.1926025e-05   1.9164163e-05  -1.2334152e-04   3.4900535e-05   1.2840889e-04   4.2078056e-05  -1.0820205e-05  -6.1618324e-05   6.6483553e-05   2.0370841e-04   2.0779035e-04  -6.9353140e-05  -5.8388596e-06   6.4818385e-05   2.9488610e-05  -1.5503095e-04  -2.5780289e-05   2.1174461e-04   3.3006119e-04   5.1477033e-04   5.5271976e-05  -2.6938655e-05   9.2683338e-05   1.6209076e-05
  -8.1596510e-05  -3.0234414e-05  -3.6624515e-05  -4.1351203e-05  -6.4723310e-05  -2.3035604e-05  -1.4470900e-04  -7.7229721e-05   5.0858950e-04  -1.8031454e-04  -3.9644729e-05  -1.9094816e-05  -4.9104005e-05  -8.7207103e-05  -8.9523339e-05  -8.9924870e-05   1.0521464e-05  -3.7298469e-05  -7.9476164e-04  -7.2736810e-05  -6.3449050e-05  -2.1823787e-05  -2.8413597e-05  -6.2780433e-05  -2.0888567e-04  -2.9826455e-04  -1.8567751e-04  -2.9229112e-05   2.3975774e-05  -2.2274764e-05  -3.4396775e-04  -2.5931859e-04   1.4295352e-04   3.9017987e-06   6.3594278e-05   3.8599136e-04   2.2913945e-04  -3.6082849e-05  -1.6238366e-05   2.2526320e-04  -3.8299502e-05  -1.8325727e-04  -4.1357795e-05  -2.8998917e-04  -4.4807766e-05   1.0007066e-03   1.6281359e-04  -1.7606108e-04  -1.3136343e-03  -3.7158572e-04
  -5.9301623e-05  -4.8757935e-05  -5.6929370e-05  -6.6409892e-05  -3.7188329e-05  -5.5368175e-05  -1.4546623e-04  -8.1557773e-05  -1.2236049e-03  -1.4942334e-04  -7.6191085e-05  -5.4116430e-05  -3.6953967e-05  -1.0856288e-04  -1.7754821e-04  -1.1427926e-04  -2.9215542e-05  -6.4510258e-04   1.2953717e-03  -3.0932006e-05  -5.8615009e-05   5.6482422e-06  -2.4255572e-04  -5.4816352e-05  -7.7632787e-05   1.9599855e-04  -9.3929528e-05   8.3249406e-06  -1.8414520e-04  -4.1050960e-05   2.7609302e-04  -5.1260926e-04   1.5980996e-04  -1.2005535e-04   1.4586322e-05  -3.2182038e-04   1.0073537e-04  -1.4088870e-05   2.3677705e-05   5.2679741e-05   1.3809495e-04  -2.5893812e-04  -6.1114719e-05  -2.2825449e-04  -2.9485452e-04   1.6617060e-04  -5.2532785e-05   2.5621672e-05   1.0736466e-03  -8.9504734e-05
  -5.7200741e-05  -3.3215085e-05  -4.4622651e-05  -4.4469216e-05  -4.8143454e-05  -6.2284598e-05  -7.4253781e-05  -1.6659075e-04  -1.3469355e-03  -1.5830816e-04  -6.1862644e-05  -5.2183452e-05  -4.6471563e-05  -8.7227803e-05  -4.1613519e-05  -9.4261595e-05  -4.7725607e-06  -4.8374961e-05  -5.9565221e-04  -5.6281602e-05  -9.4352938e-05   7.8722551e-06  -8.7146473e-05  -2.8912045e-05  -1.3534498e-05   1.4389130e-04  -1.1815409e-04  -9.1537186e-06  -6.2508509e-05  -3.2661723e-05  -6.4488332e-04   9.5282856e-05  -3.3727392e-05  -3.7263863e-04   4.3021028e-05   4.0084319e-04   1.4394800e-04  -3.4208773e-05  -3.1146512e-05  -1.5602901e-04   3.7946407e-05   1.6572251e-04   1.9741549e-06  -3.9314280e-05  -5.7355757e-04  -7.8130927e-04   3.0077994e-04  -4.3994492e-05   1.4782455e-03  -3.0826809e-04
  -6.1581777e-05  -4.2559608e-05  -2.5072237e-05  -6.1210383e-05  -5.0653674e-05  -5.9683658e-05  -9.5865973e-05  -8.7636028e-05   2.6698835e-04  -1.8775693e-04  -7.4983051e-05  -5.7316305e-05  -5.5513592e-05  -8.6160842e-05  -1.4930381e-04  -1.0964392e-04  -3.1202642e-05  -5.3106237e-04   1.2973174e-04  -7.8888501e-05  -8.8074587e-05  -3.9976538e-05  -5.8460133e-05  -3.7742608e-05  -9.9752440e-05   9.1531838e-05  -3.3491651e-05  -2.2332502e-05  -1.2911748e-04  -2.8826158e-05   1.9172083e-04   1.6045749e-04   1.5426381e-04   8.0128899e-05   2.8522447e-05  -4.4907036e-05   1.2081488e-04  -5.2279731e-05  -2.9104343e-05   1.0181091e-04  -5.2986777e-04   2.3847241e-04  -3.5314006e-05   2.2438313e-04   2.8225784e-06   1.4325643e-03   1.7809971e-04  -1.0720177e-04  -1.1335852e-04  -3.3222468e-04
  -4.0230090e-05  -2.5477228e-05  -4.0832027e-05  -2.9189359e-05  -5.3466163e-05  -3.4044249e-05   2.2963516e-06  -5.7771475e-05  -9.6495009e-05  -1.7186246e-04  -5.1473467e-05  -2.9148383e-05  -4.2161802e-05  -7.7321805e-05  -1.2978651e-04  -8.4800165e-05  -1.2716876e-05   1.1634678e-04  -1.6154596e-04  -5.8851576e-05  -9.5995543e-05  -5.5844252e-05   5.3420688e-05  -3.0923478e-05   2.8704191e-05  -7.9103440e-05  -1.7420988e-04  -2.5500427e-05  -1.4660611e-04  -1.8066954e-05  -2.6025606e-04  -1.6507389e-05  -2.8608128e-04  -6.4126732e-05   5.4431173e-05  -1.3051125e-04   2.1079023e-04  -6.6228007e-05   1.1163625e-04  -1.9221198e-04  -3.1798172e-05  -2.8212520e-04  -2.9618937e-05   1.8945117e-04   1.1462621e-04   1.9325114e-04   1.7247617e-04  -1.9324632e-04   4.1397722e-04   1.1794792e-05
  -4.6408033e-05  -2.9642702e-05  -6.1160186e-05  -2.3204102e-05  -4.8934078e-05  -4.4321918e-05  -5.7037498e-05  -6.5415108e-05   3.0078110e-04  -1.8308792e-04  -6.4371823e-05  -3.0340752e-06  -6.8924506e-05  -8.8153662e-05  -4.0969699e-05  -6.6736058e-05  -3.5877001e-05   6.4368491e-05   5.5324909e-04  -4.1136558e-05  -1.1341231e-04   2.0842348e-05  -4.7216877e-06  -1.9528503e-05  -3.5948880e-05   1.5378777e-04   1.1978083e-04  -8.3384975e-06  -2.1021800e-04  -1.6260923e-05   4.0411440e-04  -1.1675106e-06   1.6434750e-04   1.0774696e-04   9.7434262e-05  -3.3840476e-04   4.0874587e-04  -7.2372364e-05  -4.4616492e-05  -8.9483277e-05   1.9266784e-04   3.7915845e-04  -1.4296050e-06  -1.3225876e-05   9.5351432e-05  -2.8364445e-04  -2.7043841e-04  -2.6266163e-05   1.7326765e-04  -2.9655279e-05
  -5.1537969e-05  -1.1442709e-05  -2.9397577e-05  -1.7465436e-05  -3.6579084e-05  -2.8816643e-05  -5.3632142e-05  -1.3383527e-05   2.8953247e-04  -1.6988139e-04  -5.6722409e-05  -6.1283145e-06  -1.1192693e-05  -5.7132798e-05   1.7137783e-05  -1.0070098e-04  -2.5832172e-05  -1.1473379e-04  -1.9910860e-04  -6.8857000e-05  -9.9389523e-05  -6.2329593e-05  -1.2540440e-04  -5.6156561e-05  -2.1280441e-04   1.3574716e-04  -7.4002201e-06  -1.9410352e-05  -1.8618959e-04  -1.4055039e-05   2.4015480e-04   4.5062465e-05  -6.7075592e-04   6.1357176e-05   7.6969198e-05  -9.5889316e-04   2.6312677e-04  -9.0946953e-05   7.2306029e-05   2.0628728e-04   7.9864214e-05   2.2100352e-04  -5.6605381e-06  -2.4449176e-04   1.3154638e-06  -3.9552676e-04  -1.3439071e-04   5.7938796e-05  -1.5631013e-03  -2.8244837e-04
  -5.4604356e-05  -1.6951286e-05  -2.8508020e-05  -3.2335956e-05  -3.8562914e-05  -4.3518045e-05  -3.1454965e-05  -1.1409207e-04  -4.8814042e-04  -1.7585121e-04  -3.2662458e-05  -1.1018952e-05  -1.1177829e-05  -7.0945200e-05  -6.6770641e-05  -7.3272837e-05   1.6698796e-06  -5.0824642e-04   1.2263429e-03  -6.1790073e-05  -1.0929041e-04  -1.1658665e-05  -9.0165595e-05  -2.6945281e-05  -5.0660914e-05  -7.3264899e-05   3.8016972e-06  -9.1279173e-05  -1.5766204e-04   1.1078534e-05  -4.3973941e-04  -2.5223842e-04   7.6738390e-05  -1.5742870e-04   1.0726431e-04  -5.2880085e-05   3.1723175e-04  -8.7572182e-05   7.0702881e-05  -1.2290677e-04   2.7436959e-05  -2.2153086e-04   3.7116264e-05  -2.2055874e-04   4.3387571e-04  -2.9192734e-04   3.2993833e-06  -1.0543653e-04   2.0970206e-04  -5.9702923e-04
  -9.2321272e-05  -2.0925876e-05  -4.9031409e-05  -3.4799057e-05  -5.3549111e-06  -1.2242334e-05   5.7214729e-06  -4.9275932e-05  -2.1950646e-04  -1.6187229e-04  -3.2128133e-05   1.6886420e-06  -3.7665577e-05  -5.6581914e-05  -1.6119799e-05  -8.9761874e-05   1.4925293e-05  -2.2262146e-04  -7.7156589e-04  -5.4250366e-05  -9.5350144e-05  -2.0273743e-05  -7.7422243e-05   1.8625765e-04   9.0300156e-05  -1.9110170e-04  -4.9436858e-07   5.8475332e-05  -1.2346474e-04  -1.2582934e-05  -3.2758689e-04  -3.6223093e-04   2.9801445e-06  -2.2148193e-05   1.1496082e-04   3.5348366e-04   5.0626637e-04  -1.2258741e-04  -8.2634833e-06   2.4193357e-04   1.2344607e-04   2.3068309e-04   7.7721388e-06   1.1444472e-04  -1.0275051e-04  -6.0496159e-04  -2.7015139e-04  -5.0537594e-05   9.5645909e-04  -2.0646228e-04
  -5.8581394e-05  -9.6935337e-06  -1.6790120e-05   4.2295333e-06  -3.5714798e-05  -7.3209005e-05  -6.9918802e-05   2.2966857e-05   5.4317387e-04  -1.5620071e-04  -3.0018035e-05  -1.0260567e-05   1.5781832e-06  -4.6584079e-05  -1.6525490e-04  -6.6388864e-05   2.2026685e-05  -1.5388819e-04   8.5796794e-04   2.7334434e-05   6.6406028e-05   3.5918974e-06   2.6406740e-05   1.1663208e-04   1.8188306e-04   4.1249914e-05  -1.0899706e-05   6.1588733e-05  -7.3553718e-05   5.4598490e-06  -3.0831504e-04  -3.5358785e-04   4.5545094e-04  -1.3778680e-04   5.7555430e-05  -4.6206382e-04   1.1890238e-04  -6.9340800e-05   1.9845458e-05  -1.2896826e-04   1.6725299e-04   1.2582677e-04   4.7442899e-07  -5.2600979e-05  -5.1485578e-04   2.4830250e-04   3.9187633e-04  -2.9189850e-05  -1.6022024e-03  -2.9490853e-04
  -5.6057128e-05  -2.4503497e-05  -4.0797724e-05  -5.3239997e-05  -4.7280988e-05  -8.9679124e-05  -1.9768560e-05  -3.2526543e-05  -6.2431348e-04  -1.6142189e-04  -4.9756698e-05  -2.2513421e-05  -2.3698090e-06  -1.2389383e-04  -1.7932843e-04  -1.1123389e-04  -2.9454095e-05   1.9504200e-04   5.1034364e-04  -1.9457235e-05  -8.9119358e-06  -6.6005370e-05   6.5118926e-05   3.0897529e-05   3.9261781e-06  -1.9328807e-04  -7.1351809e-05   8.9560141e-05  -1.4787249e-04   1.7420341e-05   1.8320295e-04   2.7990382e-05   8.6258660e-05   8.0895559e-05   7.5209529e-05  -7.5150665e-04   1.9489882e-04   1.8176610e-05   3.5577876e-05   3.1187814e-05   1.9429380e-04  -4.4368871e-04  -3.3758868e-05   1.4530236e-05   2.2344988e-04   4.3396001e-05  -7.2639072e-05  -8.1631260e-05  -1.5149037e-03  -1.7257425e-04
  -1.3408383e-05  -8.8426623e-06   4.3578481e-07  -2.2593898e-05  -1.5936748e-05  -2.7994351e-05  -2.8599570e-05  -1.2386668e-05   1.0734997e-04  -1.4561308e-04  -2.3350172e-05  -4.5611843e-05  -1.7904276e-05  -7.4128016e-05  -8.7893939e-05  -8.2419705e-05  -9.3742910e-06  -3.8494976e-04   1.9066510e-03  -3.9653232e-06  -3.6799524e-05  -2.2064846e-06  -1.1319735e-04  -2.7803795e-05  -5.7771569e-05   2.7727086e-05  -9.9494428e-05  -3.7898484e-05  -1.4021163e-04  -2.7906846e-05   3.3325952e-05  -1.7153821e-04  -3.6389290e-04  -7.5952063e-05   2.3747411e-05  -1.2930049e-04   2.5301738e-04   6.3875865e-05  -6.0392984e-05   1.4648424e-04   7.8510493e-05   3.3283697e-05  -3.1283977e-05  -7.3823030e-05   6.2636170e-04   3.3943198e-04  -1.1616928e-04  -6.7740242e-05  -1.6428120e-03   5.1379972e-04
  -4.9761380e-05  -3.0076102e-05  -4.2582229e-05  -4.9408052e-05  -5.3556905e-05  -5.6523029e-05  -8.5665641e-05  -1.7072141e-05  -8.3443464e-04  -1.6131869e-04  -2.4679468e-05  -4.5846260e-05  -1.2280098e-05  -8.9782588e-05  -8.9795336e-05  -9.6225725e-05  -1.7192240e-05  -3.9231189e-04   1.1708378e-03   3.1489583e-06  -6.8187335e-05  -5.4741144e-05  -1.4698468e-04  -1.9651150e-05  -3.4293051e-05   1.2718525e-06  -1.7883445e-04  -5.2071573e-05   4.5897999e-05  -3.6968506e-06   1.7104087e-04   2.0405056e-04   4.0514674e-04  -6.4797481e-05   5.8632711e-05  -8.7543996e-04   2.4285527e-04   3.4168341e-05  -1.5191923e-05   1.2068282e-04   3.7803475e-05  -3.0037202e-06  -5.7450769e-05   1.5254064e-04  -4.8741754e-04  -3.5836309e-04  -4.1270370e-04  -9.0977475e-05  -5.2038056e-04  -2.5689075e-04
  -5.3441086e-05  -1.5548976e-05  -1.3862880e-05  -2.0657504e-05  -5.8660760e-05  -5.8087888e-05  -1.4411855e-05  -5.4314087e-06  -3.6562217e-04  -1.4405743e-04  -2.7072205e-05  -5.8969112e-05   2.4444978e-06  -4.9983446e-05  -7.4008822e-05  -6.9743139e-05  -1.4837489e-05  -2.1231484e-04  -4.3042193e-04  -1.7741651e-06  -6.3428619e-05  -5.7359761e-05   6.3727595e-05  -7.9821157e-06  -1.1134655e-04  -3.6717222e-05  -1.2071151e-05   8.5761487e-05  -6.8615955e-05  -3.9757964e-05  -6.2790303e-04  -9.2111120e-05  -2.9083405e-04   5.0318940e-05   3.6095182e-05  -1.2272384e-04   4.6295868e-04   2.7377522e-05   1.8349518e-04  -1.6242679e-05  -1.8223643e-04  -4.3186103e-04  -1.8172825e-05   1.9273059e-05   5.1634497e-04  -6.1399583e-04   2.1853649e-04  -3.6839397e-06   2.9268626e-03   4.5996261e-04
  -3.9874329e-05  -2.5457206e-05  -3.7016820e-05  -6.3811422e-07  -3.6749563e-05  -5.3567594e-05   7.4316250e-07  -3.3371169e-05   4.9315251e-05  -1.5254866e-04  -3.0222496e-05  -6.9187015e-05   1.3668357e-05  -7.0334027e-05  -4.4051259e-05  -5.0563780e-05  -1.8142993e-05   2.0235799e-04   4.0909485e-04   1.1244033e-05  -8.6444881e-05  -1.6848198e-05  -4.6941754e-05  -1.6699368e-04   6.8018424e-05  -1.0068477e-04   1.7339997e-05  -9.4729958e-06  -1.6225955e-05  -2.8339029e-05  -4.6626618e-04  -1.1753126e-04  -3.7436129e-04   1.3329006e-04   6.3405270e-05  -1.6123415e-05   1.4007116e-04  -4.0186592e-06   4.4458735e-05  -2.0622615e-04  -3.9296745e-05   1.3661463e-04   2.2081260e-05   5.8444646e-05   6.7727623e-04  -4.8775808e-04   3.6551544e-05  -6.9971480e-05  -1.2287592e-03  -4.7062911e-04
  -3.4710913e-05  -3.3021755e-05  -4.1559517e-05  -2.4881607e-05  -2.2388265e-05  -5.7447807e-05  -4.5968707e-05   4.9080583e-05  -8.1037771e-04  -1.4386739e-04   1.2887867e-05  -3.0843992e-05   1.2151895e-05  -4.0296294e-05  -2.4344077e-05  -3.5815290e-05  -6.0439365e-06  -1.3428971e-05  -2.7791222e-04   9.3212502e-06  -8.8723893e-05  -5.5225824e-05   1.1731969e-05   3.6704553e-06  -6.6226581e-05  -2.1309713e-04   1.4434636e-04  -8.3068301e-08   3.8773528e-06  -3.4867680e-05  -2.6540173e-04   1.0002559e-04  -2.5977186e-05  -5.1032807e-06   8.2802799e-05   7.3429263e-05   4.8275568e-04  -2.0456204e-05   7.6494813e-05  -2.6323847e-04  -1.0854283e-04  -9.7471617e-05   3.4197667e-05  -7.2549301e-05   4.3837426e-04  -1.2828448e-03   3.1053647e-04  -8.5070562e-05   3.3811052e-04   4.8267415e-05
  -3.5182682e-05  -1.0096370e-05  -4.3245411e-05  -4.9733299e-06  -4.9855629e-05  -4.5502271e-05   5.3819349e-06  -1.9186786e-05  -8.2368490e-05  -1.5746437e-04  -2.6442973e-05  -9.9474983e-06   3.1004918e-05  -2.2361153e-05   7.3412135e-05   4.1327939e-06   1.6678676e-05   1.5094393e-04   2.3054342e-04   1.0703349e-05  -9.9574754e-05  -6.7371511e-05   9.3669223e-05  -1.0692107e-05  -3.7775608e-05   2.0116930e-04   1.3236438e-04   1.8947358e-05  -7.2486742e-05  -9.4979168e-06   6.8228517e-04  -1.0071164e-04   5.3162890e-05  -8.0969803e-06   5.7054382e-05  -4.9949239e-04   1.9212921e-04  -2.1891297e-05  -4.4579672e-05  -2.8719543e-04  -9.1777489e-05   4.1755811e-05   5.5307086e-05   3.3127569e-04  -7.4718271e-05  -2.3932365e-04  -1.0472698e-04  -2.5933001e-05   5.2320806e-04   2.8032434e-04
  -7.7669656e-06  -2.3461194e-05  -3.3071115e-05  -5.2890764e-06   1.1634777e-05  -5.9975100e-05  -9.0092668e-05  -5.7786356e-06  -7.2111248e-04  -1.6796213e-04  -1.4044224e-05  -3.7956372e-05   1.3552310e-05   4.3313698e-06  -2.0019301e-05  -3.2387863e-05   1.7407059e-05   4.0524854e-05  -3.3617270e-04   1.9711082e-05  -1.0610587e-04  -4.7594829e-05  -7.7407640e-05  -4.6113586e-05   5.8102643e-05   1.2465070e-04  -1.4513159e-04   3.4087810e-05  -1.8237351e-04   1.3735354e-05  -1.6355750e-04   6.4423912e-05  -2.4832995e-04   1.3705564e-04   7.2830982e-05  -2.0165800e-04   2.8080295e-04  -3.8508668e-05   4.7918482e-05   2.2447581e-04   2.4102486e-04  -1.5062407e-04   2.9338496e-05  -2.9643250e-04  -1.5279072e-04  -1.0313812e-03  -2.8414757e-04   4.7221241e-05   1.3827038e-04   2.3112379e-05
  -1.6315653e-05  -4.3017021e-06  -3.1224907e-05   3.3289241e-06  -3.6501409e-05   8.8377838e-06  -1.9415460e-05   3.0830564e-05  -3.5795267e-04  -1.4773573e-04   1.3505371e-05  -4.0357754e-05   4.7535909e-06   4.3449600e-06   6.0734569e-06  -1.0979620e-05  -3.9686088e-06   1.0012129e-04   1.6618202e-03   2.2629374e-05  -1.0103721e-04  -8.2015373e-05   1.0211545e-04   9.0444948e-05  -1.1156476e-04   3.6948215e-05  -1.1369269e-04   4.0275609e-06  -1.4101605e-04   1.4859000e-05  -8.3299157e-05   1.8925570e-05  -1.9709049e-04  -1.9165326e-04   8.2351900e-05  -1.1152053e-04   2.4049688e-04  -3.9361072e-05   8.1296930e-05  -1.9163376e-04   4.0633121e-04   8.8242137e-05   9.7706150e-05  -1.1278295e-04  -9.1402349e-08  -4.9285914e-05   7.8165816e-05   3.8886930e-05  -7.4632338e-04   3.2392782e-04
  -4.9089886e-05  -1.5998665e-05  -2.2550841e-05   1.0216094e-05  -2.7254166e-05  -3.3790246e-05   5.1796769e-06  -1.4983335e-05   7.1677484e-04  -1.5519858e-04  -1.7170889e-05  -1.6438027e-05   4.9977174e-05   3.3236543e-06   4.9498114e-05   2.0419832e-06  -1.1966003e-05   2.1928843e-04   5.7792326e-04   2.9649136e-05  -1.0019623e-04  -2.2037626e-05   6.2623796e-05   7.0257556e-05   2.2201563e-04   3.0067531e-04  -1.0533571e-04   4.0668579e-05   6.5654535e-06   1.8308887e-05  -1.8229612e-04  -1.0111825e-04  -1.7992852e-04  -1.9719241e-04   5.6632078e-05   1.2682086e-04   2.8680760e-04  -2.1073904e-05   1.3091843e-04  -6.1130530e-05  -1.1198350e-04  -1.7440153e-04   3.7425179e-05  -5.7984784e-05   1.0668897e-04   5.1011099e-04   2.6803825e-04  -5.4560627e-05  -7.6322426e-04  -4.0538327e-04
   1.6424575e-08  -2.0938956e-05  -4.1922031e-06  -2.4670278e-05  -3.6676651e-05  -3.3575216e-05   2.1001142e-06  -3.2696520e-05  -1.8354332e-04  -1.0961125e-04   2.2567096e-05  -6.0710645e-05   2.0735657e-05  -3.0605683e-05   1.2832295e-05  -2.1068176e-05  -2.4350777e-05   2.2168952e-04   8.1995029e-05   2.6499949e-05  -3.1856500e-05  -7.2658986e-05   6.8219902e-05   4.0236977e-05  -1.5674050e-04   3.5524982e-04  -1.0138746e-04   5.0469953e-05   3.0423653e-05   1.0392921e-05  -6.7344937e-04  -2.2828710e-04  -1.0810150e-04  -1.5723909e-04   2.5573941e-05  -5.4874783e-04   2.3789448e-04   8.5961045e-05   2.8771889e-05  -1.3357542e-04   1.9088863e-04  -1.1655041e-04  -3.0334486e-05  -1.4607102e-04  -2.9155321e-05   1.0563525e-03  -1.4664608e-04   9.0863883e-05  -2.7559604e-04  -4.1917676e-05
  -2.2403303e-06  -1.5017604e-05  -4.8801421e-06  -3.5458327e-06  -1.9478164e-05  -1.9658207e-06   8.2895167e-06  -6.7673085e-05  -4.9043994e-04  -1.1135264e-04   1.6309963e-05  -1.6184251e-05  -2.9179780e-06   4.9255112e-05  -1.2318893e-05   4.2256424e-06  -1.2114652e-05  -5.7168538e-05   8.4502774e-04   2.1212967e-05  -9.8865741e-05  -2.2789241e-05   2.4797542e-05  -7.3664691e-05  -9.4670104e-05  -7.0945439e-06   1.0297069e-04   1.4095589e-05   7.6712007e-05  -1.4425807e-05   4.9589609e-04   9.5327225e-05  -4.5714751e-04  -6.7636553e-05   1.1187254e-06  -1.3137719e-04   2.6209131e-04   8.1596049e-08   5.4752061e-05   1.5182294e-04   3.0670554e-04  -1.1626153e-04   3.7427533e-05  -6.1815452e-05   3.4932476e-05  -9.7989017e-05  -4.4784148e-05   9.7495853e-05   2.9327389e-04   1.4192297e-04
  -2.2234755e-05  -1.9296464e-05  -3.2217758e-05  -2.6884036e-06  -1.1038276e-05  -2.7957758e-06   9.1737875e-06  -3.5076340e-05   1.0538427e-03  -1.2862025e-04   2.3882163e-05  -8.1958715e-05   6.6899233e-06  -3.7652742e-05  -1.3517038e-04  -1.8698500e-05  -2.9073997e-05   3.8300327e-04   1.4217400e-04  -6.4687792e-06  -7.0389120e-05  -4.2463304e-05  -1.9535239e-05  -2.9661474e-05   1.0201951e-04   4.7979494e-05  -6.3288207e-05  -3.0150914e-05   1.8776871e-05  -4.6225727e-05   9.4917241e-06   2.2282556e-04   1.9730522e-05  -1.9485604e-05   1.0725438e-05  -1.0926788e-04   1.1296933e-04   3.6926707e-05   9.1488910e-06  -2.1211443e-05   4.3833179e-06   2.7540719e-04  -7.7418272e-06  -1.3085319e-04   2.9497527e-04   1.5745909e-03   2.1429070e-04   6.3376050e-05   1.0912461e-03  -1.7722443e-04
  -2.9500930e-07  -9.3449689e-06   2.4588323e-06  -3.9449733e-06  -4.5526082e-05   5.9071181e-06  -5.8410387e-05   1.5318171e-06   5.8681530e-06  -1.2933461e-04   5.5135279e-06  -7.2291696e-05   7.1779727e-06  -5.2177395e-05  -8.0261118e-05  -2.9204142e-05  -2.9764335e-05  -4.9248885e-04  -7.4301625e-04  -5.7750508e-06  -5.7396799e-05  -3.9568626e-05   8.7619075e-05  -1.5153602e-04  -1.0962509e-04   6.5439126e-05   3.5969028e-05  -4.5052759e-05   5.2791336e-05  -3.4166034e-05  -1.6759067e-04  -1.6862139e-04  -2.3687161e-04   3.8519438e-06  -1.6225131e-05  -5.4766197e-04   3.8174272e-05   8.2519902e-05   2.0229252e-05  -3.5066306e-04   2.2858578e-04  -9.2453120e-05  -9.3449698e-06   2.1150682e-04  -1.1248783e-04   1.2224945e-04  -1.1857662e-04  -8.7905442e-05   4.8835599e-04  -2.5687687e-04
   1.3529847e-05  -3.1364405e-05  -1.2183262e-05  -3.4162589e-05  -2.4037334e-05  -4.2822761e-05   1.4770386e-05   3.0939067e-05   8.2633174e-05  -1.3488201e-04  -1.1113822e-05  -6.6652960e-05   7.7785285e-07  -3.6619196e-05  -1.2418282e-05   1.8036797e-06  -1.9931187e-05   2.8826465e-04   1.4717337e-03   2.5730094e-05  -9.0940302e-05  -7.1121234e-05  -1.7059570e-04   1.1649306e-05   1.2977453e-04  -2.1830821e-04   1.3878141e-05  -4.7271551e-06   7.8928890e-05  -1.9700092e-05  -9.2396040e-05  -1.7493906e-04  -1.0768246e-04  -1.1552130e-04  -5.5515834e-06   1.2070494e-05   1.0494736e-04   3.5871053e-05   1.4567761e-05  -2.1246035e-04  -7.1667280e-05  -2.1648482e-06   1.4601811e-05  -1.8497191e-04  -2.2682702e-04   9.3750008e-05   3.6702873e-04   8.0413884e-05  -1.2643572e-03  -4.7256064e-05
  -4.0275223e-05  -4.4507102e-05   7.3691120e-07  -1.9135719e-05  -7.9139045e-06  -2.5629970e-05  -7.2188828e-05  -9.6786869e-05   2.2377947e-04  -1.2147163e-04   1.6764301e-05  -4.0125127e-05   1.8956989e-05  -8.9968189e-06   6.6134300e-05   2.4687959e-05  -1.0673295e-05  -1.8016450e-04   4.2356300e-04   2.7499325e-05  -9.0346926e-05  -4.1021507e-05   4.4042877e-06   4.8557555e-05  -1.3014729e-04  -1.4151086e-04   1.0650019e-04  -7.4755926e-06  -4.2755189e-05  -2.0712123e-05  -6.3726839e-05  -1.1766009e-04  -7.0065784e-05   2.2104814e-05   1.4656896e-05  -3.9074210e-05   1.9526460e-04   7.7721643e-06   1.5328827e-04  -4.0010898e-05  -1.8214840e-04   1.1492417e-04   1.2518728e-05   1.3928462e-04   5.4468692e-04  -3.0210370e-04   1.0007745e-04  -3.3850527e-05   3.9781485e-04   1.6272797e-04
  -1.2050684e-05  -1.7784456e-05  -3.1083400e-06   1.1048072e-05  -2.4051058e-05  -2.8901957e-05  -8.0665850e-05  -4.8738824e-05  -2.4686215e-05  -1.4204752e-04   1.5107153e-05  -3.4564742e-05   3.4844459e-05  -2.5630441e-05   1.0317229e-04   1.0872244e-05  -6.2558414e-05  -8.5717409e-05   7.2778150e-04   1.0780647e-05  -1.0244711e-04  -2.1804020e-05   1.8452383e-04  -1.1401480e-04   1.1243408e-05   5.3768159e-05   4.2307616e-05   3.0788797e-05  -8.9248824e-05   4.3252698e-05   3.2860198e-04  -2.0597150e-04   1.7726335e-04   1.2591835e-04   8.1447201e-05   2.9616299e-04   4.3991513e-05   3.3922606e-07  -1.2291188e-05   1.6159839e-04  -1.5601206e-04  -7.4544485e-05   1.2776818e-05  -3.1470504e-04   1.6056738e-04  -1.4876486e-03  -4.0882827e-05  -7.9625979e-06  -3.3925654e-04   1.0166487e-04
  -2.5057887e-05  -2.9380715e-05  -2.1426684e-05  -2.1171691e-05  -1.5599231e-05  -7.7139275e-06   1.7211598e-05   2.5846852e-05  -1.6462289e-04  -1.5438588e-04  -2.4760573e-06  -5.2248877e-05  -4.0445747e-07   8.7974604e-06   4.2635406e-06   8.3880150e-06  -2.5559842e-05  -2.4832845e-05   2.4198744e-04   3.8014787e-05  -1.1690253e-04   7.8473604e-06  -3.4002405e-05   7.6125607e-06  -1.2272473e-04   3.9234648e-05  -9.9051169e-05   5.4158831e-05  -6.9079695e-05  -9.4855413e-06   3.0609057e-04  -2.7516860e-04   5.8831462e-05  -5.1642319e-06   4.9573464e-05  -3.8406462e-04  -6.9397094e-05  -2.0764663e-05   3.5724868e-05  -7.8868361e-05   3.0609412e-05  -4.2452168e-04   4.1319596e-05  -2.0866957e-05  -2.9378355e-04   4.8727711e-04  -1.2833088e-04   8.9763762e-06  -1.0321963e-03   1.0206947e-04
  -1.6762897e-05  -1.1963039e-05  -6.0123392e-07   5.8309297e-06  -1.4147734e-05   3.2471104e-05   1.0610820e-04  -2.3026196e-05  -8.7279064e-04  -1.4445635e-04   9.5118585e-06  -4.1421576e-05   4.8009424e-05   3.3456790e-06   4.8641032e-05  -4.3577875e-06  -2.3303824e-05  -1.5861263e-04  -7.0294907e-04   1.9989520e-05  -1.0596856e-04  -4.9160724e-05  -1.3535305e-04   4.3989799e-05  -1.6109090e-05  -1.9161488e-04  -8.7507586e-05   8.0552374e-05   6.8121713e-05  -3.3881617e-05  -3.7643948e-04  -9.6713911e-06  -9.8240878e-07  -7.2933130e-06   3.6754845e-05  -2.6264309e-04   1.5695074e-04  -1.6369180e-05   1.0847087e-05   6.5012260e-05  -3.7612841e-05   1.3594888e-04   2.8030458e-05   6.2227780e-05  -1.8134600e-04   1.0694172e-03  -4.7985304e-05   2.9675844e-05   1.1230279e-03   3.0380691e-04
  -2.0065505e-05  -2.3054585e-05  -1.5079039e-05   4.9393961e-06  -3.5093261e-05  -5.7941329e-06  -1.2911126e-05   1.0333221e-04   5.0845253e-04  -1.5666365e-04   9.2981927e-06  -4.0206131e-05   1.9656960e-05   3.1960761e-05   1.8474544e-05  -1.6944259e-05  -2.5104364e-05  -2.0324709e-04  -9.5070619e-04   3.2115720e-05  -1.0289552e-04  -9.0196263e-06  -2.4123843e-05   8.7645421e-06   2.0440202e-04   1.7504174e-04   2.6959611e-05  -1.4950509e-05  -1.9396113e-05  -1.5350537e-05   3.2838230e-05  -5.3308941e-05  -3.8697945e-05  -1.2735868e-04   1.3814319e-05   2.0350255e-04   1.3936491e-04   4.1105650e-05   4.9106857e-05  -1.4171092e-04   2.7145143e-04  -7.7230769e-05   4.5108118e-06   1.1962985e-04   7.8216618e-07  -9.9318114e-04   2.2831801e-04  -1.0396104e-04   2.7154293e-03   1.6598137e-04
   2.6665532e-06  -3.3711967e-05   1.4848313e-05  -5.1091934e-06  -9.1662632e-06  -1.5767368e-06   1.1565618e-05  -7.9972291e-05  -6.5396377e-04  -1.2664455e-04   2.4387029e-05  -6.2995117e-05   2.0767815e-05  -2.9651415e-05  -1.1356219e-05  -4.6170040e-05  -2.4386001e-05   1.0960774e-05  -9.5638790e-04  -9.1086704e-06  -6.2548126e-05  -5.4285079e-05  -2.2371007e-05   1.2893764e-04   1.4424363e-04  -1.4401409e-04  -1.5194750e-04  -5.6429668e-05   1.7801642e-05   1.8125600e-05  -1.4340183e-04   3.9583360e-04   4.9908227e-05   9.0884772e-05   4.2866122e-05   6.3420529e-04   2.5612093e-04   5.6256711e-05  -1.0875436e-05  -6.0688748e-05  -2.7334559e-04   4.9130991e-05  -3.2769265e-05  -8.8744942e-05   1.9655892e-04   3.1554453e-05   6.5148750e-05   5.5548878e-07   1.6500034e-03  -3.5804301e-04
  -2.6830248e-05  -2.5654619e-05  -1.6284950e-05  -9.2329365e-06  -2.0836274e-05  -1.8062985e-05  -2.4264920e-05  -4.0191571e-05   2.9131098e-04  -1.2738210e-04   2.5360561e-05  -8.6168999e-05  -5.3498106e-06  -3.9295383e-06  -1.6778831e-05  -7.2397837e-05  -9.8404807e-06   2.7898292e-04  -4.1841547e-04   5.5734308e-06  -7.1063143e-05  -3.9055660e-05   4.5795627e-05  -1.0903174e-04  -2.4518365e-04   6.8164532e-05  -6.7215173e-05  -3.1904401e-05   1.5853309e-05  -1.7413067e-05  -1.3893729e-04  -2.8781171e-04  -4.6980393e-04  -1.5808176e-04  -4.4113785e-06   7.2705542e-04   1.6063926e-04   4.2337069e-05  -1.3649712e-04  -2.4917286e-05   3.9327970e-06  -2.3096734e-04  -1.7110589e-05   2.9704647e-04   3.0309724e-04   8.2587398e-04  -7.7456178e-05  -1.4754709e-05   2.4765159e-04   2.0305708e-04
  -1.9226574e-05  -3.5621488e-05   1.4206556e-05  -5.2309856e-06  -2.1953980e-05  -5.6453275e-05  -1.9191752e-05   2.0692751e-06  -5.1837839e-04  -1.3457384e-04   1.9781053e-05  -1.2251786e-04   1.3203245e-06  -8.5761130e-06  -7.8633748e-05  -9.1038208e-05  -3.5294663e-05   2.8379977e-04   7.8726449e-04   4.9256128e-06  -8.1156715e-05  -9.7692689e-05   4.7220692e-05   1.1073531e-05  -4.2310963e-05   2.3732664e-05  -7.1923925e-05  -6.5833738e-05  -8.3188599e-05  -2.2377222e-05  -6.1161852e-05  -1.2685063e-04  -2.9764515e-05   2.0469351e-04   4.2643260e-05  -2.5222453e-04   1.9768237e-04   2.8101398e-05   2.6923086e-05   1.4285459e-04  -2.1404980e-04  -1.4401908e-04  -9.3550716e-06  -1.0846967e-05  -1.2903172e-04  -6.1431644e-04  -2.9533689e-05   2.2960621e-05  -4.5246666e-04  -2.6535804e-04
   1.0451919e-05  -2.0840051e-05   1.8574839e-05   5.2541777e-06  -9.3118815e-06  -2.6004409e-05  -3.4236444e-05   3.2349766e-05   7.2276470e-04  -1.0562760e-04   1.0712641e-05  -8.9218549e-05   1.6225138e-05  -5.2057479e-05  -3.8019778e-05  -7.0116352e-05  -7.7065248e-05   3.1624376e-04   8.9181436e-04   2.8397308e-05  -7.6364107e-05  -5.8529036e-05  -9.5912226e-05  -6.6803223e-05  -2.4243283e-04  -2.8074373e-04   3.1778939e-06  -1.3206661e-05  -1.2821094e-04  -7.0768838e-05  -7.8568090e-04   6.9287569e-05  -1.7688115e-04   2.1110842e-05   3.3418990e-05   5.8410276e-04   1.6045035e-04   4.5021079e-05   8.8122215e-06  -1.4957323e-04   2.0760020e-04   4.8182337e-05  -3.2494412e-05   2.1018033e-05  -8.9653702e-05   6.9394836e-04   2.1190399e-04  -2.0066673e-05   1.1809426e-03  -1.1268182e-04
  -1.2679441e-05  -2.5950891e-05   1.6395192e-05  -1.0116926e-05  -3.7127468e-06  -3.3852633e-05  -8.9819463e-05   1.1087145e-05  -5.8342394e-04  -1.2079010e-04   1.1053457e-05  -9.7887787e-05   1.4963591e-05  -2.5468862e-05   4.0152197e-05  -6.6587476e-05  -4.5598921e-05  -1.4536221e-04   1.8666788e-04  -1.1497396e-05  -9.0742964e-05  -6.3167339e-05  -1.0236782e-06   2.6377027e-05   8.6688724e-06   3.0661051e-04  -1.6225288e-04  -2.2717715e-05   8.6919987e-05   5.4429605e-05   3.0884513e-04  -1.0073131e-04  -8.1017351e-05  -2.8111139e-05   7.2888070e-05   1.1496246e-04   2.6413624e-04   2.3119557e-05   4.9869348e-05  -9.7063654e-05   2.8399047e-05  -7.9097517e-05   1.8250739e-05   1.2099903e-05   8.7294989e-05  -1.9370395e-04  -7.6364566e-05  -5.0677329e-05  -1.5464763e-03  -2.3409484e-04
  -1.0099478e-05  -3.6088019e-05  -2.1248763e-05  -1.9822186e-05  -3.2591761e-05  -5.3679312e-05  -2.7820091e-05  -1.5548463e-05  -3.4822646e-05  -1.0002826e-04   3.1409149e-05  -6.9969807e-05   1.9149356e-05  -3.8212125e-05  -1.0804130e-05  -9.3431096e-05  -4.9702900e-05  -1.3298169e-04   6.5169838e-04   2.5831430e-05  -9.5807525e-05  -3.6607009e-05  -1.0371213e-04  -1.6452842e-04  -9.1333190e-05  -2.0890007e-05   8.4941654e-05   3.8465274e-05  -5.9219219e-05  -2.8312081e-05  -3.8357064e-04  -1.3712577e-04  -5.6736480e-05   7.0160771e-05   9.8488948e-05  -2.9358326e-04   2.3709804e-04  -1.8933662e-07   7.7841862e-05   3.4354118e-05  -1.7433031e-04  -4.1844713e-05   5.2288331e-05  -1.4883578e-05  -4.0092844e-05  -3.1012070e-04   3.9002157e-06  -1.3098310e-04  -7.2576542e-04  -3.7329999e-04
   1.1921060e-05  -2.7836351e-05   1.4976881e-05   2.3739693e-05  -1.7089180e-05  -2.6511598e-05   1.0230106e-05   2.9460485e-05   7.0269662e-04  -1.1217828e-04   3.5421843e-05  -7.5829666e-05   2.3381621e-05  -4.6208283e-05  -5.0574661e-05  -7.2293689e-05  -3.5074972e-05  -4.0695904e-05  -8.4420288e-04   1.7242728e-05  -9.3049253e-05  -5.4078922e-05   8.5891821e-05  -7.5977026e-05   1.9519262e-04   2.8871309e-05   1.4571022e-05  -8.1151593e-06  -1.1856107e-04   1.7560718e-05  -3.6946487e-05  -1.0847252e-04  -1.8493120e-04  -1.1048520e-04   4.9933697e-05   4.0787586e-04   2.4742848e-04  -2.1002201e-05  -1.6543781e-05   1.5428584e-05  -8.7734421e-05  -3.6935101e-04   4.7314887e-05  -7.0061666e-05   2.9960653e-04  -3.0560631e-04  -1.2930404e-04  -7.1067509e-05   2.8665588e-04  -3.8209517e-04
   3.0864951e-05  -2.2525674e-05   6.5815284e-06  -1.6946851e-05  -1.5393956e-05  -2.3272534e-05   4.4922713e-06  -5.5984283e-06   1.0238191e-04  -1.2497301e-04   1.1938454e-05  -5.1133684e-05   5.1248312e-06   9.1080001e-06   1.1737632e-06  -5.5445093e-05  -2.6559776e-05   8.8773697e-05   1.5542468e-03   4.3061900e-05  -9.3930197e-05  -7.3292540e-05   6.5623011e-05   9.1376882e-05   2.9216513e-05  -3.4993232e-04   7.1612840e-06   3.3812074e-05  -1.0271374e-05   2.3357572e-05   1.6214595e-04   1.6766471e-04  -1.3492374e-04  -1.8702338e-04   9.2034286e-05  -7.4129384e-05   4.8541231e-05  -3.7713253e-05   1.2768529e-04  -2.0616500e-04   1.0144244e-04  -1.0366269e-04   5.5108852e-05  -2.7667327e-04   1.6445616e-04   2.6576134e-04   1.0653689e-04   4.6714402e-05   8.6801047e-05   2.6275695e-04
  -7.4034716e-07  -1.3282049e-05   2.4429241e-05   5.5524990e-05  -6.0010152e-06  -3.3260912e-05   1.4729852e-05  -6.9957736e-07  -1.3792727e-05  -1.1159119e-04   3.5804987e-05  -4.8245449e-05   3.7956612e-05  -1.8839106e-06  -4.6659574e-05  -7.9216508e-05  -6.2640036e-05   2.1587088e-04   3.8972864e-04   2.2042826e-05  -1.0020592e-04  -2.4133740e-05   4.5415756e-05  -2.6931626e-05   1.5859291e-04  -7.2992741e-05   1.0127646e-04  -4.7876809e-05  -5.5733941e-05   1.8094765e-05  -3.6425417e-04   3.1395775e-04  -4.3633374e-04   1.0747135e-04   5.0155570e-05  -7.1924711e-05   3.3966391e-04  -4.3835113e-05   2.3476316e-05   8.7281951e-05  -3.9108640e-05  -1.2640908e-04   7.4379517e-05   5.8850877e-05   5.4249330e-04   1.7092806e-04  -7.8884259e-06  -7.4100237e-05   2.5525544e-04   6.0629525e-05
   1.8225610e-05  -3.2083815e-05   1.3239270e-06   3.7743172e-05   6.6913526e-06  -4.2646298e-05  -3.5453959e-05   8.0222868e-05   7.2259463e-05  -1.0372412e-04   3.9691738e-05  -7.4217269e-06   3.9310962e-06  -2.9773701e-05  -2.5266179e-06  -6.1728140e-05  -3.5141202e-06  -2.9831709e-04   1.1119061e-03   2.1964037e-05  -8.8944646e-05  -8.6199798e-05   1.6737949e-05  -6.6387824e-05   2.6419404e-05   1.3626664e-04   1.8777642e-04   1.4360952e-05   7.7689720e-06   3.2289307e-05   3.1559091e-04  -1.3018287e-04  -5.1597843e-04   1.8387404e-05   7.2570823e-05  -2.2924742e-04   1.5229579e-04  -3.9059112e-05   1.2259833e-04   5.1966956e-05   6.9349117e-05   3.0178306e-04   4.7177728e-05  -3.3490756e-04  -2.6042535e-04  -3.7891645e-04  -4.8397738e-05  -4.6819434e-05  -1.6652020e-03  -1.4595450e-04
   8.9658306e-06  -1.0301800e-05   3.3808425e-05   3.6114103e-05  -1.6326952e-05   1.0580860e-05  -3.1357969e-05   6.2081112e-06  -4.2481723e-04  -8.4259751e-05   5.9012713e-05  -1.1384524e-05   1.2091074e-05   4.1003668e-06   2.7140873e-06  -4.7917420e-05  -1.3321313e-05   2.2789591e-04   3.6563017e-04   5.0343242e-05  -8.5789172e-05  -1.1709427e-05  -7.5862772e-05  -1.1866458e-04  -1.0303942e-04  -9.1928632e-05  -2.6523008e-05   2.9728448e-05  -5.9853628e-05   4.9540272e-06   1.8226891e-04   4.9270911e-05  -5.2183622e-04  -8.9646499e-05   8.4511375e-05  -6.5552129e-04   1.6122223e-04   1.2140777e-05   8.1486367e-05   4.0867494e-04   6.2269486e-05   2.4734923e-04   1.5583604e-05   1.6692896e-04  -4.1031666e-04   3.4516539e-05  -3.6583100e-05  -6.0704129e-05   9.5419289e-04   7.4702029e-06
   1.2356422e-05  -1.2054176e-05   2.8585331e-05   1.5519312e-05  -3.7358834e-05  -3.2499577e-06  -5.6523563e-06  -4.0158029e-06   2.8816055e-04  -9.0516725e-05   1.1724416e-05  -4.8600687e-05   7.4742024e-06  -3.9866998e-05  -6.5004679e-05  -8.7242443e-05  -4.3793152e-05  -3.4628581e-05  -1.7277456e-05   3.4862525e-05  -6.3766136e-05  -5.2463591e-05   4.1214465e-05  -1.6577380e-04  -3.6105036e-04   9.7192402e-05  -4.8213558e-05  -4.3963599e-05   2.0110379e-05   5.0428665e-05   3.5865139e-04   1.4543022e-05   1.1680750e-04  -8.1686660e-05   5.4733835e-05   5.6387216e-04   1.7950914e-04   2.6511116e-05  -1.4377122e-04   1.7640347e-04   4.9154231e-05  -1.4019691e-04   4.9563580e-05   2.3850869e-05  -1.7236581e-04   1.3314078e-03   3.4034529e-05   1.5687914e-05  -1.1403542e-03   3.0236206e-05
  -3.3805936e-05  -3.0636304e-05   1.8331431e-05   2.6065889e-06  -1.9451583e-05   4.6279169e-05  -4.1852145e-05   1.0467083e-05   2.7561848e-04  -1.0239537e-04   2.1820473e-05  -3.8535687e-05   2.0357718e-05  -2.6943593e-05   1.6246138e-05  -9.0200490e-05  -5.1461077e-05  -5.7672525e-05   8.3254802e-04   3.0817439e-05  -7.7501943e-05  -6.0955044e-05   2.6390544e-05   3.1891308e-05   7.3617623e-05   7.9277350e-05  -9.8312630e-05   2.4463212e-05   2.8016346e-05   2.3533834e-05   4.5510777e-05   1.7897871e-04  -4.1560654e-04   1.5311074e-05   4.7994487e-05  -7.9272068e-05   1.0333629e-04   1.7764341e-05  -7.4787327e-05   1.0590727e-04  -3.1951957e-05  -1.6530981e-05   2.5736423e-05   1.3189290e-04  -1.7898546e-04   8.9162594e-04  -2.4210931e-04   1.0974039e-04  -8.8829070e-04   3.1077716e-04
   5.1201467e-05  -2.0081123e-05   3.7865993e-05   2.1160962e-05  -8.7856215e-06  -6.0293892e-06   5.1055868e-05  -4.2459025e-05   3.3798275e-04  -6.8684945e-05   4.6630183e-05  -6.7607354e-05   4.1253719e-05  -5.9319209e-05   1.1589573e-04  -1.1282928e-04  -4.9401537e-05  -4.9699168e-04  -2.9679731e-04   2.4943110e-06  -5.6345223e-05  -5.3511896e-05  -1.7421585e-04  -1.1278324e-04  -2.3297129e-05  -2.2322121e-04  -8.3881641e-06   4.5697878e-05   8.0874299e-05  -1.6383567e-05   5.4268062e-04   4.0421939e-05   1.6836239e-04  -3.3645021e-05   4.8542253e-05   9.5195239e-05   4.3673288e-05   1.8498366e-05  -9.1681204e-06  -1.0815056e-04  -3.3295713e-05  -1.3727631e-04   1.5858428e-05   1.0372191e-04  -4.8980064e-04   3.4520795e-04   1.7505462e-04  -5.8997546e-05  -4.6992380e-05  -2.2716426e-04
  -1.4035068e-05  -2.4921303e-05   3.8541049e-05   3.0077430e-05  -1.6029627e-06  -2.9498675e-05  -1.7406246e-05  -4.5452231e-05   2.8664360e-04  -5.9971160e-05   4.0214378e-05  -8.7654196e-05   3.0238953e-05  -2.6101990e-05  -7.8957055e-05  -9.9975237e-05  -6.0943192e-05   6.2760744e-05  -1.4213073e-03   4.2813772e-05  -6.8156085e-05  -7.4457683e-05   7.9157900e-05   4.6554211e-05  -9.4636154e-05   2.8297602e-04  -7.7394252e-05   4.2198029e-05  -9.9749886e-05  -9.3792587e-06   4.4849177e-05   1.1157339e-04   2.5137569e-04  -4.1454950e-05   1.0592946e-05   1.6702242e-04   1.4121922e-04   3.0723822e-05  -1.0726069e-05   2.2503913e-04   1.9212301e-04   2.4319951e-04   1.7432321e-05   2.2876586e-05   5.7740702e-04   4.0018727e-04  -2.2740118e-04  -4.5030656e-06  -1.5802060e-03   4.0793817e-05
   1.3558613e-05  -1.6469439e-05   3.0960284e-05   1.8553623e-05  -2.3607836e-05  -7.1609620e-06   5.0259841e-05  -1.4461883e-04  -6.5751746e-04  -3.8965671e-05   4.2854761e-05  -4.9418646e-05   3.3047098e-05  -2.9133045e-05   5.5999277e-05  -7.9166268e-05  -4.5414534e-05   3.7896345e-04   1.3152923e-04   3.9111717e-05  -6.6955574e-05   1.4900903e-05   7.6442382e-05   1.5697713e-04  -7.5715805e-05   7.9892474e-05   1.8067016e-05  -8.7044900e-06  -3.5372774e-05  -2.2244314e-05  -1.8410636e-04  -1.9069425e-04  -2.2230792e-04  -6.5924527e-05   6.4727363e-05   1.9473865e-04   1.7231112e-04  -1.0084784e-05  -8.8525478e-05   3.2402852e-05   4.3359938e-05  -2.3152996e-05   6.6103916e-05   1.9298356e-04   2.4426045e-04  -2.7258589e-04   1.0691432e-04   1.1064518e-04   4.6047126e-03  -2.9160865e-04
   2.4633957e-05  -1.1511846e-05   9.8722485e-06   2.6014190e-05   1.1721633e-05   2.1486545e-05   2.0921445e-07   5.8096948e-06   3.6990721e-04  -5.2345942e-05   3.6595418e-05  -6.3117644e-05   2.6537506e-05  -2.3330551e-05   3.6288973e-05  -5.4708471e-05  -3.0534822e-05  -5.5868301e-04   4.2222042e-04   5.8275882e-06  -8.5857529e-05  -8.4764906e-05  -1.0391777e-04   1.8893465e-05   1.2871376e-04  -9.6856020e-05  -5.8456502e-05   1.2230499e-05  -7.7825156e-05  -1.1176631e-05  -5.4447277e-04   2.4280514e-04  -6.8244321e-05  -1.1117003e-04   7.5831194e-05   4.8796492e-04   1.0338600e-04  -3.3954708e-05   8.5352898e-05  -2.2581342e-04  -3.0935851e-05  -8.0607033e-06   2.8421751e-05  -4.0024650e-04   6.6068646e-06   1.3570250e-04  -1.2343512e-04  -2.8826606e-05  -9.6538628e-04  -4.8731879e-04
   1.1389277e-05  -2.1563206e-05   3.6402380e-05   3.3210606e-05  -4.4666402e-07   3.2075437e-05  -9.1392158e-06   4.3926251e-05   3.2242827e-04  -3.3926168e-05   4.2007585e-05  -3.2973607e-05   3.9463866e-05  -1.1515899e-06   7.0331873e-05  -4.0175746e-05  -2.1795227e-05   2.4722851e-04   4.8340260e-04   5.6777459e-05  -6.7268265e-05  -1.3735822e-05   4.8646165e-05  -2.3103485e-05  -2.1781525e-05   7.4731106e-05   5.2100961e-05   3.9567032e-05  -1.6649270e-04   1.1851715e-05   6.8608526e-04   2.1742532e-04  -1.6634657e-04   8.8458277e-05   4.1823845e-05   4.9897993e-04   1.9746310e-04  -3.5674228e-05   8.8109795e-05   2.0153873e-04   3.4930420e-04   1.5133712e-04   8.6874294e-05   9.6081123e-05   4.4346845e-04   6.0385977e-05   1.9860327e-04  -3.0866722e-05  -4.6076649e-04   5.2653864e-04
   2.6441965e-05  -9.4612442e-06   4.4573753e-05   4.1166146e-05  -3.5004909e-06  -4.1416897e-05   1.2590028e-05   4.0517927e-05  -1.1821883e-05  -4.8853293e-05   4.3583175e-05  -8.7670214e-06   2.7765744e-05  -8.1985963e-06   4.5309807e-05  -3.0015482e-05  -8.9685091e-06  -2.0231870e-04  -1.7151209e-03   4.3171949e-05  -8.0248763e-05  -4.7393380e-05  -1.1115181e-04   1.5185861e-04  -8.9396461e-05   5.5752298e-05   6.6914414e-05   1.7295875e-05   9.2560011e-05   2.1883299e-05  -3.2538021e-04   1.0158549e-04  -2.7456749e-04   1.0300529e-04   1.0262925e-04   2.3400113e-04   2.8440051e-04  -4.2911252e-05   1.0088362e-04  -8.4582854e-05   1.0539369e-04  -1.5319198e-06   8.7715525e-05   1.8638391e-04   2.9750881e-04   1.2312599e-03  -7.7022029e-05   1.2800212e-04  -5.5359141e-04   3.3527968e-04
   5.8541056e-05  -2.2522174e-05   5.2910262e-05   3.8844089e-05   6.3143566e-06  -5.1050789e-05   2.5511914e-05   2.1617427e-05  -1.9480618e-04  -6.7594796e-05   5.7727932e-05  -1.6596830e-05   3.5275421e-05   1.0299314e-05   1.0112119e-04  -4.8039386e-05  -3.8888025e-05   2.7655149e-04   6.5339194e-04   4.0855692e-05  -8.3610830e-05  -2.4265210e-05  -4.8080983e-05   1.4460057e-05  -1.0157747e-04   3.0238662e-05   3.3943994e-05  -2.5896502e-06  -1.7086568e-04   1.5924135e-05  -2.5083302e-04   3.0082496e-04   4.0126451e-05   5.1053203e-06   7.0106886e-05  -1.3127339e-04   1.0141416e-04  -3.6644953e-05  -3.0221778e-05   3.7566046e-04   9.1538801e-05  -2.4709836e-05   6.2924599e-05  -1.6821636e-04   6.0430990e-04   5.7635421e-04  -9.8883829e-05  -2.1901784e-05  -9.9180453e-04   2.0267573e-04
   3.3367181e-05  -6.6729235e-08   4.0251351e-05   5.5319848e-05   1.6531741e-05   4.8125716e-05   2.2719652e-05   5.4822340e-05   8.7222236e-04  -4.1271935e-05   7.2425493e-05   1.2644401e-06   6.8019523e-05   1.2142809e-05   1.9057716e-04  -2.6895275e-05  -1.7772612e-05  -5.3867807e-05   7.2661845e-04   5.1976916e-05  -7.5975753e-05  -2.4384548e-05   4.8422651e-05  -2.5767749e-05  -5.4761340e-06   1.4453419e-04   1.2404578e-04  -8.6464734e-06  -9.3671079e-05   1.2189484e-05   1.7438729e-04   6.2335726e-05  -4.8881292e-04   1.1485678e-04   5.9930284e-05   2.6666161e-04   1.2626256e-04  -5.7700294e-05   9.7435819e-05   1.6924029e-04   8.0097743e-05  -3.1066801e-07   1.0271916e-04  -1.7959689e-04  -1.1710022e-04  -5.0618075e-04   2.5805699e-05   6.5764958e-05   1.5520412e-04   7.5981679e-04
   4.4564054e-05  -1.5013057e-06   4.3271441e-05   3.5546702e-05   9.2912742e-06   2.3144170e-05   7.5924254e-05  -2.2239426e-05  -2.5938509e-04  -5.6552861e-05   3.3160195e-05  -3.3635235e-05   5.8862966e-05   1.0052458e-05   1.9485289e-05  -2.3073417e-05  -9.6650592e-06   1.0848918e-04  -6.4461486e-04   4.9950722e-05  -6.5812164e-05   1.8298140e-05   1.0358009e-04   8.4832478e-05  -4.4820292e-05   1.6821417e-04   1.6172940e-04   1.4074183e-07  -4.2593845e-05   3.8844278e-06  -6.3357176e-04   1.5345275e-04  -2.2566736e-04   4.5650278e-05   6.2201791e-05  -2.1574760e-04   4.9632010e-05   8.4475287e-06  -3.1985717e-05  -5.5083465e-06   1.2808206e-04   8.3732020e-06   7.3147916e-05  -1.8465047e-04   2.8782076e-04  -1.2499689e-03  -7.3875541e-05  -3.2925665e-05  -5.8335188e-04   2.9590452e-04
   2.5536248e-05   5.2130099e-07   5.8841739e-05   3.5766094e-05   7.4003351e-06   2.2257560e-05  -3.0012230e-05  -4.1427174e-06  -1.1963026e-03  -2.2693650e-06   4.6725607e-05  -2.7810291e-05   6.9118665e-05  -1.3000874e-05  -2.8921899e-05  -3.1778229e-05  -1.7270306e-05  -4.8853515e-04  -1.4347670e-03   4.9104277e-05  -9.8399396e-06  -6.2992811e-05   5.6137171e-05   3.5911176e-05  -1.3695896e-05  -1.4337100e-04  -1.1878418e-04  -3.8953026e-06   9.6936317e-05   1.9548135e-05  -3.3570934e-05  -2.7377078e-05   1.2133431e-04   3.7248476e-04   6.7081441e-05  -2.8554167e-04  -1.2701591e-04   4.2932272e-05  -5.1531853e-05  -1.4315818e-04  -6.4027063e-06   3.0087397e-04   7.5422642e-05   2.8875610e-04   3.1231524e-05   9.5623778e-04  -3.6273658e-04   1.5077869e-04  -4.5043998e-04   3.3419224e-04
   2.3488485e-05  -7.5859325e-06   4.3719818e-05   4.7928865e-05  -2.7818280e-05  -5.0716255e-05   5.0943454e-05   9.2205119e-05  -1.2759517e-04  -7.8151124e-06   3.9114700e-05  -4.8308142e-05   4.0783114e-05   1.6067410e-06  -3.4649569e-05  -3.7695459e-06  -1.4599853e-05  -2.1193146e-04  -1.5813212e-03   5.6004839e-05  -3.6257097e-05  -5.3083091e-05  -3.3294044e-05  -8.9311525e-06   3.0319811e-06  -1.2564998e-04  -8.2725455e-05  -1.1236225e-05   6.6722343e-05   6.9739740e-06  -4.0488914e-04   2.7819554e-04  -4.9414212e-04  -1.7083889e-04   3.3500037e-05   2.3005682e-04  -3.1552045e-05   2.4301838e-05   2.6810745e-05   1.4777786e-04   7.2439172e-05  -8.0493723e-05   8.7264329e-05   1.3080564e-04   4.4672244e-04   5.3150032e-04  -3.6880194e-04   3.4456054e-05   1.1448349e-03   2.0726188e-04
   5.5031862e-05  -1.6606373e-05   5.6661869e-05   2.9412520e-05   1.8818402e-05  -1.8736333e-05   6.9686270e-05  -2.1662358e-05   9.1717963e-04  -1.1889701e-05   4.7590001e-05  -7.1605471e-05   3.9033643e-05  -1.6543851e-06   4.4322242e-05  -6.8311674e-06  -4.0208324e-05  -7.5940858e-05  -2.5096949e-04   5.8040001e-05  -2.7530108e-05  -3.8773342e-05   1.0872983e-05   4.1993233e-05  -1.7913026e-04  -8.1710241e-06   8.7301516e-05   2.3140759e-05  -4.6245015e-05  -3.9914466e-05   7.0147630e-04  -9.5574251e-05   2.9085312e-04   1.6480823e-04   6.2315485e-05   3.3169973e-04  -1.0629047e-05   5.8257410e-05  -4.4279292e-05  -2.3180472e-04  -9.0695539e-05  -9.4260991e-05   4.9196522e-05  -1.6285605e-05  -4.9132545e-04   1.9143027e-04   2.1882981e-04   1.2700794e-04  -1.7173395e-03   2.9330835e-04
   4.5141442e-05  -4.6662503e-06   6.0306964e-05   3.8666101e-05  -9.4077350e-06   5.6633129e-05   2.9890798e-05   6.6199093e-05   6.4251403e-04  -1.3452583e-05   5.8401205e-05  -6.2693412e-05   5.8729809e-05   2.1804497e-05  -3.0956919e-05   1.0520387e-05  -3.6128717e-05   1.5186500e-04   4.1436145e-04   5.1738818e-05  -4.6391277e-05  -1.5959225e-05   1.9836092e-05   1.1232898e-04   1.8732033e-05   1.1749773e-04  -2.8048766e-05   9.6352327e-05   7.2060662e-05   1.0861412e-05  -7.0308030e-05  -1.1168558e-04   4.8491227e-05   5.8295205e-05   2.4490955e-05   6.8210525e-04  -7.8936551e-05   7.9288126e-05  -7.6203840e-05   1.5922380e-05   2.2058700e-04   8.2109349e-05   1.3956858e-05  -1.4406943e-04   7.5667347e-05  -7.5307256e-04  -6.2876666e-06   8.6220673e-05  -2.2460596e-04  -9.2513808e-05
   4.4569755e-05  -1.2686356e-05   6.0282706e-05   4.9043083e-05   1.0038850e-05   1.8664196e-05   5.8179085e-05   1.4288633e-05   3.6842909e-04   2.2363831e-06   4.5461795e-05  -5.6749792e-05   8.1334387e-05   1.3824199e-05  -4.1628486e-05   1.5401014e-05   6.2060269e-07   4.4241286e-05   4.4575831e-04   7.5334799e-05  -5.2704345e-05  -7.3155461e-05   5.8866535e-06  -1.8907870e-06  -1.2551490e-04   1.0371490e-04   4.1101386e-05   6.8200636e-05  -5.2035251e-05  -7.7016639e-06   2.3986331e-04  -5.2732816e-05  -4.1124455e-05   1.7015007e-04   2.7041353e-05  -1.0351883e-04   1.3211198e-04   1.3464552e-05  -1.0777801e-06   7.9810306e-05   1.0658791e-04  -1.0656478e-04   6.5634697e-05   2.4590758e-05  -3.3038810e-05   2.7020271e-05  -3.5743389e-05   1.0142887e-04  -1.1987252e-03   3.2884208e-04
   3.1966680e-05  -4.4991148e-06   5.6746623e-05   4.6459609e-05   5.3156023e-06   2.7297723e-05   3.5987671e-06   1.2692723e-04  -2.3525489e-04  -1.6628243e-05   6.6789020e-05  -8.7872677e-06   7.1780458e-05   4.6603058e-05   3.1941596e-05   5.9174145e-05  -1.9237950e-05   3.5949619e-04   6.7447772e-06   5.0866380e-05  -4.7960737e-05  -6.7158478e-05  -1.0168986e-04  -1.2363534e-04   1.2264746e-05  -8.1436352e-05   5.0341754e-07   8.9235662e-05   1.3358638e-04   1.6591903e-05   4.1826212e-04  -1.4175741e-04  -1.0525597e-04   2.0998064e-04   4.5377608e-05  -2.4408102e-04   3.7498019e-05   1.9213521e-06   4.5987304e-05   1.7549882e-04  -1.5992128e-04   3.0655760e-04   1.1277700e-04   2.3967704e-04  -1.9734152e-04  -8.5334107e-04  -7.5612734e-05   7.6739983e-05  -1.8723202e-03  -9.1813483e-05
   5.7482252e-05  -3.0174158e-06   3.9770170e-05   4.7935151e-05   9.6983267e-06   1.0652069e-05   9.8364784e-05   5.9969901e-05  -9.2176888e-05  -1.2482909e-05   6.0369781e-05  -3.0579664e-05   5.3268694e-05   5.2829910e-05   2.1467624e-04   5.2164301e-05  -5.3455213e-05   2.9187524e-04  -5.5222260e-04   6.3766645e-05  -5.3699310e-05  -1.1516638e-05   4.9417198e-05  -1.9481529e-05  -1.8073832e-04   7.5032898e-05  -1.4125419e-05   6.8759357e-05  -3.4889748e-05   2.2069631e-05  -5.0598237e-04   1.1114228e-04  -1.2871393e-04   1.5350057e-04   6.2797197e-05  -1.7914746e-04  -7.8381687e-05  -1.1620717e-07   1.5830246e-05   1.1292366e-04  -9.5535790e-05   1.9650592e-04   1.1163500e-04  -6.9017624e-05  -3.5466310e-05  -8.3080860e-04   7.2194438e-05   1.1040281e-04   1.0766295e-03   4.3677856e-04
   2.7737276e-05  -1.2632896e-05   4.5477929e-05   3.7205551e-05   1.1212696e-05   2.3364986e-05   1.3483553e-06   3.9833820e-05   1.5992161e-06  -1.9345151e-05   5.8774665e-05  -2.4684959e-05   4.4944711e-05   6.0333699e-05   1.2797749e-04   4.3657681e-05  -2.6314765e-05  -2.8106329e-05  -3.6117638e-04   5.9870759e-05  -5.8787831e-05  -5.4800115e-05   1.4335292e-05   9.5061296e-06   2.0744480e-04   6.4432439e-05  -1.2318468e-04   2.5174645e-06  -1.4569706e-05   1.9538635e-05   3.0179895e-04   2.3708917e-04  -3.9878080e-04  -1.1803494e-05  -1.5715783e-05   1.5263062e-04  -1.6950544e-04  -2.2116596e-05   7.9808888e-05   1.6249534e-05  -4.3744294e-06   1.5161266e-04   1.3429250e-04   1.2502979e-04   3.7723553e-04  -1.3664176e-04   2.0068564e-04   2.5016491e-04   1.0469607e-03  -2.0028808e-04
   8.0602491e-05   1.2978945e-05   3.4487864e-05   6.7140463e-05   2.3875053e-05  -3.7634818e-05   5.0143779e-05   7.0189060e-05   3.5977011e-04   2.9947955e-06   7.6265154e-05   1.8109193e-05   7.3172254e-05   2.9650530e-05   7.4737844e-05   9.6856427e-05  -2.6791935e-05   5.6570883e-05   2.9214241e-05   8.2937637e-05  -5.6232522e-05  -4.1962890e-06   1.5354497e-04   8.3435752e-06   1.2022560e-04   2.5761416e-04  -2.4921803e-05   5.7019755e-05  -3.3290358e-05   3.4145123e-05   1.1614319e-04   1.8987300e-04   8.7597386e-05   8.3319719e-05   4.0912455e-05  -3.6651714e-04  -1.3547984e-04  -2.1799313e-05  -1.9182780e-06   1.2545532e-04   3.8155814e-04   2.3619138e-04   1.0980302e-04  -5.9135789e-05   1.6040199e-04   3.5395904e-04   1.3320714e-04   1.5012102e-04   1.1394878e-03  -6.7628803e-06
   3.7730624e-05  -5.0210747e-07   5.3479540e-05   4.9697388e-05   6.1982182e-06   5.3256545e-06   5.3219293e-05   6.9475507e-05   3.1677635e-05   5.0856970e-06   1.0253617e-04  -3.4529010e-06   5.8812246e-05   7.7753488e-05   5.7841062e-05   6.9047259e-05  -1.3995594e-05   1.9557220e-04   3.1011025e-04   7.6264099e-05  -4.8011090e-05  -5.4741027e-05  -6.1087514e-05  -6.7779540e-05   7.9958489e-05   2.5693930e-04   7.0955968e-05   8.0916026e-05  -1.5373742e-05   6.5318251e-05   3.6515179e-04   1.7651355e-05  -2.6786351e-04   7.4013801e-06   3.7788435e-05  -5.8105146e-04   3.2996493e-05   7.5558733e-06  -4.1432198e-05   1.1891079e-04  -7.5184253e-05  -1.0947333e-04   9.4303199e-05  -1.6636126e-04   3.2964436e-04   4.5580225e-04   1.5837485e-04  -2.7257660e-05  -6.5014709e-04  -1.5080896e-05
   6.0506267e-05  -1.2202348e-05   4.7295089e-05   2.8319939e-05   1.8454899e-05   1.2807635e-05   5.8214260e-05   8.1815502e-05   2.1221313e-04   2.9417501e-05   7.8589939e-05  -5.0527651e-06   7.8519341e-05   2.7605560e-05   6.8041430e-05   3.6208527e-05  -3.0867275e-05   2.7474838e-05  -1.5879908e-04   9.8638244e-05  -2.9909823e-05  -6.4550390e-05   1.2340804e-04  -1.7908879e-04   1.4521807e-04   1.6239088e-04  -9.4631097e-05  -5.7350502e-05  -1.1966933e-04   2.2712484e-06  -1.3109227e-04   2.9940962e-05  -2.1043519e-04   7.3860465e-05   1.0329189e-05   2.1982673e-04   6.1388979e-05   3.6980615e-05  -1.0311832e-05   1.3848623e-04   2.2395367e-04  -3.6078959e-04   7.0412621e-05   1.6988204e-04   2.3898383e-04  -4.0470235e-04   6.9287875e-05   1.8914849e-04   2.0334088e-04   4.7135173e-04
   5.8743030e-05   1.0820994e-05   5.9603106e-05   4.6334782e-05  -4.4083395e-06   6.0720373e-05   1.3145639e-04   1.7176170e-04   7.9998682e-04   4.3978565e-05   6.8134061e-05  -5.5059350e-06   5.7449139e-05   5.7412402e-05   1.5184647e-04   3.6263802e-05  -2.6776524e-05   5.4509987e-05   1.1337376e-04   8.5406267e-05  -1.8099699e-05  -5.5780103e-05  -1.2748519e-05   3.4830537e-05   2.0977479e-04  -4.3093460e-05   1.0742549e-04  -2.1045948e-05   4.0573468e-06  -9.5563200e-06  -1.3668577e-05  -3.5139707e-05  -4.3452741e-04   8.2938735e-05  -5.2638470e-06   5.7724002e-04  -1.3327481e-04   6.5048429e-05   3.2905689e-05   6.5817760e-05  -1.7478905e-04   4.6443255e-04   6.6573892e-05   1.0436994e-05  -6.3249586e-06   8.1010243e-05  -3.7681402e-04   2.1375516e-04   4.4556306e-04   4.6021031e-04
   5.5771088e-05  -9.5452306e-06   4.6998026e-05   2.2366137e-05  -1.5967511e-05   3.9811301e-05   4.9177172e-05  -1.3313248e-05  -3.2736393e-04   6.5843305e-05   5.9715574e-05  -2.0198078e-05   7.3142655e-05   2.8331164e-05   2.5520405e-05  -1.9563564e-05  -2.7365537e-05  -1.4672644e-04   5.9764972e-04   1.0410106e-04  -3.0871975e-05  -9.1272334e-05   2.1881191e-05   2.4339504e-05   7.0255759e-05   8.2999955e-05   1.5009131e-05  -1.7015886e-05   7.2056784e-05  -6.1868190e-07  -4.9375801e-04   4.8516602e-05  -3.9940025e-04   4.9335773e-05   2.9972523e-05   2.5496914e-04   4.3197248e-05   2.9201838e-05  -1.0072470e-04   2.7229798e-05   3.5310240e-04  -1.4389722e-05   5.2197913e-05  -2.2081357e-04   1.0780327e-04  -6.9328584e-04   2.2731516e-04   3.9645864e-05   2.3557458e-03  -6.3159634e-05
   2.8765877e-05   2.5410618e-06   3.1009251e-05   3.6347552e-05   2.5291505e-05   3.4422592e-05   9.8314245e-05  -1.9578129e-06  -2.3603899e-04   8.2431456e-05   8.4467196e-05  -7.5657922e-06   5.5322715e-05   7.3780648e-05  -1.0933365e-05   2.2162711e-05  -4.5968645e-05   2.4903493e-04  -3.1011208e-04   8.9459092e-05  -2.1509117e-05  -1.4373488e-05  -2.7871050e-05   3.1515094e-04   3.7620517e-05   1.8003557e-04   4.0145318e-05   2.6323909e-05  -1.4409305e-04  -2.0560457e-05   5.4795988e-04  -5.4824581e-05  -2.2101081e-04  -3.0265817e-05   4.4682278e-05   9.7763295e-05  -3.9340499e-05   4.4548135e-05   1.6765767e-05   1.9480372e-06   8.6727458e-05  -6.2595878e-05   2.8547052e-05   9.4840529e-05  -1.7828695e-04  -1.0398772e-05   1.2925391e-04   1.1876879e-05   1.7253698e-03   7.5729731e-05
   4.7819140e-05  -3.5873591e-06   2.7201697e-05   4.0303246e-05  -1.8570763e-05   1.4094298e-05   1.8084011e-05   1.1391221e-04   8.6968794e-04   7.6014621e-05   1.2118920e-04  -1.8806189e-05   8.2691149e-05   6.0016202e-05  -8.2644481e-05   3.9178969e-05   1.6512796e-06   2.6588413e-04   1.0426860e-04   1.1833924e-04  -5.4224729e-05  -5.5105062e-05   5.2540568e-06  -7.3758318e-05   1.3812027e-04   1.2232035e-05   1.5433904e-04   6.3037774e-06  -5.5383996e-05   8.0317586e-06  -2.6925229e-06   8.6141335e-05  -2.5130287e-04   4.9883762e-05   3.5360899e-05  -3.9351423e-04  -1.8589584e-04  -1.4520678e-05   7.4987009e-05   1.6838176e-05   1.0841528e-04  -5.5732518e-05   8.1038983e-05   3.3730519e-04   1.1736750e-04  -1.9898392e-04  -2.6446837e-04   8.6022694e-05  -5.3034734e-04   2.5499827e-04
   3.5042507e-05  -9.5730466e-06   4.6359975e-05   4.7152425e-05   1.2521542e-05   2.3421642e-05  -1.0007563e-05   5.4656808e-05  -3.5616636e-04   4.8165432e-05   1.1538681e-04   4.1826352e-05   9.8098441e-05   5.6285779e-05   2.2339927e-04   2.4077804e-05  -3.4733261e-05   3.8749957e-05  -2.5975812e-04   8.4318744e-05  -4.6961890e-05  -1.4341303e-05   1.7840598e-06   6.3148662e-05   1.3597001e-04   1.0154447e-04   6.6042965e-05   2.2393164e-05   6.6047462e-05   4.2126831e-05   1.7864726e-04  -4.4109993e-06   4.7087899e-05   1.5035243e-04   4.5156572e-05  -2.4546677e-04   2.1352489e-05  -3.1796171e-05   2.6491221e-05  -1.3536590e-04   7.9430698e-05   2.8248816e-05   9.0426496e-05   3.4486642e-04   1.9277853e-04  -3.4174428e-04   5.3816129e-05   1.2830837e-04  -1.1514480e-03   2.7803562e-04
   1.0346594e-04   9.1718157e-06   6.0259736e-05   7.3804964e-05   2.4046067e-05   4.7345518e-05   7.9277881e-05   1.0673170e-04  -1.2013480e-04   6.9804679e-05   1.1337642e-04   2.7703505e-05   9.5021933e-05   6.5254950e-05   8.8757814e-05   2.9238850e-05  -2.7429940e-05   1.1442369e-04   7.1506575e-04   9.5082898e-05  -3.0578318e-05  -8.1369275e-05  -9.1274822e-05   1.8682111e-05  -3.4461700e-05   8.6841319e-05   2.8169028e-05  -4.4200962e-05  -5.5685920e-05   2.6202684e-05  -9.0600828e-05  -1.8298251e-04  -6.6165987e-05   6.6508481e-05   9.1243237e-05  -1.3255507e-04  -1.5451346e-04  -4.8431710e-05   1.5656179e-04  -4.4712313e-05   1.2442231e-04   6.1237573e-05   9.9948171e-05  -3.6683992e-05  -1.1610817e-04   1.1722703e-04   9.8131139e-05   7.1070535e-05   1.8538056e-03   4.3755898e-04
   4.1829102e-05   4.6463119e-06   5.9116614e-05   3.9501319e-05   1.8301205e-05   3.0217232e-05  -4.4097237e-06   6.4047199e-05   1.1699949e-04   6.2767540e-05   1.2247165e-04   3.0236433e-05   9.2597307e-05   4.3278869e-05   2.0387486e-04   2.7510589e-05  -3.1158455e-05  -1.6178592e-04  -1.4955045e-03   7.3756572e-05  -4.1338466e-05  -3.0643379e-05  -1.5801288e-05   5.6451838e-05   3.1472398e-05   1.0544879e-04   4.3036263e-05   7.0672897e-05  -2.1789705e-05   5.7473950e-05  -9.4280995e-06   1.0471632e-04  -1.7553598e-04   1.7367836e-04   1.0188116e-04   2.7643933e-04  -1.3701138e-04  -4.7133144e-05   7.5842392e-05   7.8094832e-05   2.6743094e-04  -8.3486622e-05   1.1024805e-04  -1.6932440e-04  -6.7558423e-05   9.9105819e-04  -8.5193233e-06  -6.5769353e-05   2.3524277e-04  -3.6673882e-05
