   1.1014089e-05   1.4502889e-05   5.2722691e-05   1.1056080e-05   2.9956675e-05   4.7934009e-05  -3.0847307e-06  -2.4446703e-05   4.1420799e-04  -1.3039427e-04   1.1874684e-04   1.7760447e-05   8.8099572e-05  -7.3556614e-05  -1.1595811e-04   2.0596477e-05   6.3979205e-05   5.4389049e-05  -2.9015451e-04   4.9229788e-05  -1.4597701e-05  -7.7002420e-05   2.4977686e-05   1.0971441e-04  -3.1728654e-05  -1.6154256e-05   8.0202699e-05  -5.7055182e-05   5.4739627e-05   1.0848074e-04   8.5842540e-04   3.5152337e-04  -3.7354392e-05   1.0268502e-04  -2.7220449e-05   2.0165184e-04  -9.4085030e-05  -6.3433275e-05   4.7298672e-05  -7.6228105e-05  -1.6209194e-04   3.9994029e-05  -4.9525115e-05  -1.8043407e-04  -2.3091373e-04  -6.8745052e-05   4.0557126e-05  -1.0778506e-04  -5.8522756e-04  -4.5820978e-04
  -1.7726973e-06   1.4256671e-05   2.8011682e-06   1.2792688e-05  -3.8824278e-06  -1.0473117e-05   3.2121290e-05   2.1147131e-05   1.1878157e-03  -1.3723724e-04   1.1529544e-04  -2.8338151e-05   5.6542438e-05  -3.9970510e-05   7.0247836e-05   2.5488547e-05   6.0544044e-05  -1.5886426e-04  -4.2581622e-04   6.0410239e-05  -2.1986061e-05  -1.0546914e-04   7.3181567e-05   1.2630680e-04  -1.1023925e-04  -1.0741431e-04  -6.5168373e-05  -9.4614252e-06  -3.9449646e-05   8.1763770e-05  -2.2360742e-04   3.6381066e-04  -4.6063127e-04  -8.0289923e-05   1.0024652e-06  -1.6372290e-04  -1.6817819e-04  -5.5711866e-05  -4.3632281e-05  -2.3998997e-04  -7.1466224e-05   1.7794852e-04  -4.5482047e-05   1.1906396e-05  -4.5956852e-04  -1.0980963e-04   2.9359540e-04  -3.3196247e-05  -1.1072027e-03  -3.3231324e-04
  -1.1002461e-05  -4.9415044e-06   4.8504726e-06  -1.2871638e-05   2.4901776e-05  -2.4578490e-05   3.1761690e-05   3.0196968e-06   3.2118964e-04  -1.3295180e-04   1.2650862e-04  -4.0747189e-05   5.4349512e-05  -2.7669197e-05  -5.2061125e-05   3.4540404e-05   3.5830079e-05  -1.7494585e-04  -6.4439175e-04   5.2598210e-05  -1.9379037e-05   1.4750743e-05   1.3425892e-04   2.1359431e-04   2.9362744e-04  -2.1510260e-04   1.6347763e-04  -2.5600135e-05   9.6909236e-05   6.0850714e-05   7.5029855e-04   1.8270736e-04   4.9481478e-05  -4.3408261e-05  -1.3684740e-05  -3.8104021e-04  -2.8212217e-04  -5.1042025e-05   5.3477282e-07  -2.8255742e-04  -3.9771129e-04   2.5525471e-04  -3.2263277e-05   9.0753829e-06  -4.7201014e-04  -1.7579937e-04   1.0589125e-04  -1.4407596e-05  -4.3200405e-04  -3.1892845e-04
   2.5118494e-05   6.8157747e-06  -7.6300666e-06   4.2213983e-06   1.2205310e-05  -3.4342102e-05   5.5912347e-05   6.0601102e-05   3.8997372e-04  -1.3795985e-04   1.2049030e-04  -3.4978762e-05   8.2786508e-05  -2.7521990e-05   4.4832948e-05   5.0013656e-05   3.6920588e-05   3.3396416e-04   1.0032372e-03   3.9743198e-05  -1.0670236e-05  -1.0891830e-04   1.2865117e-04  -4.1780462e-05  -2.0883816e-05  -3.4802531e-05   1.9463423e-05  -2.9898947e-05  -6.8456848e-06   8.3559302e-05   2.7599308e-05   3.0984572e-04  -6.0402189e-04  -4.2955438e-05  -1.2338464e-05  -4.1929763e-04   3.0652957e-06  -4.4995806e-05  -4.2533457e-06  -2.8799503e-04  -2.4209230e-05   1.4044298e-04  -4.5777604e-05  -1.9504821e-04   4.6911609e-06   3.0491705e-04   7.9984886e-05  -4.1543160e-05  -4.1767914e-04  -6.0203840e-04
  -1.3810752e-05  -6.4272552e-07   8.9564128e-06  -4.2957749e-06   3.9527502e-05  -8.0663597e-07   3.9987381e-06   3.2654538e-05  -1.1820241e-03  -1.3804712e-04   1.2015597e-04  -4.0635856e-05   8.9962530e-05   3.8994676e-06   8.3740961e-06   4.6126872e-05   6.2275394e-05  -2.4295723e-04  -1.1273006e-03   1.2191937e-05  -3.0524607e-05  -7.2756688e-05   3.7351132e-05  -8.3234823e-07   9.6830016e-05  -1.0988047e-04  -3.9957635e-05   2.0499121e-05   3.9199589e-05   1.0951886e-04  -7.1519207e-05   4.1583090e-04  -6.4622272e-06  -2.6219524e-05  -1.3731154e-05  -8.2729605e-04  -1.8057773e-04  -5.2673924e-05   4.8295064e-05  -7.3946940e-05   5.1758791e-05  -2.7897026e-04  -4.2789794e-05  -4.5647455e-04  -8.8618202e-05  -6.7848962e-04  -1.1819695e-04  -5.3378055e-05  -7.3159178e-04  -2.1347530e-04
   3.0508738e-05   1.9923513e-05  -1.4300871e-05   3.1955453e-05   2.2797709e-05  -3.2319908e-06   2.6684902e-05   5.0014929e-05   2.1071678e-04  -1.3323099e-04   1.2119753e-04  -1.9711295e-05   8.2243656e-05  -4.2345455e-05   9.0547655e-06   8.5050247e-05   8.8003944e-05   6.0153954e-05   1.2808052e-04   4.6522251e-05  -2.3597477e-05  -7.1364069e-05  -6.0760289e-05   6.5641138e-06   2.6857358e-04   9.0642556e-05   9.6632168e-05  -6.5283407e-06   1.2129841e-04   5.7794030e-05   3.1732445e-04   2.8507531e-04   5.9469494e-05  -1.1160417e-04   9.9856170e-06   3.8052475e-04  -1.3017455e-04  -5.4823315e-05   2.6729676e-05  -2.1560362e-04  -2.3256437e-04   2.6493390e-05  -1.7508411e-05   1.3093345e-04  -1.8556038e-04  -7.0107175e-04   3.2096705e-04  -3.9576396e-05   2.2545045e-04  -3.3214386e-04
   1.6614882e-05   3.4859552e-06  -7.7288479e-07  -4.9404348e-06   3.9193819e-05   3.7656824e-05   4.3157659e-05   4.9954509e-05   4.2645360e-04  -1.4440110e-04   1.0583593e-04  -3.6592741e-05   6.6150518e-05  -5.0938837e-05   7.2295050e-05   7.9915735e-05   8.6627428e-05  -2.3177007e-04  -1.2807329e-03   7.5949392e-05  -3.3460943e-05  -2.4728699e-05   7.5892291e-05   4.5664638e-05   1.2262996e-04   9.1353206e-05   1.5413818e-04  -2.2276558e-05  -3.0119121e-05   1.0351252e-04   3.4211722e-04   3.2720715e-04  -2.5273775e-04  -1.9841047e-05  -2.6898038e-05  -6.4383075e-04  -3.0888111e-04  -5.4668657e-05  -6.8468304e-05  -7.4534969e-06   4.6717058e-05   2.3855425e-04  -5.3957327e-05  -2.1615186e-04  -7.0769638e-05   5.4686953e-04   1.9269176e-04  -3.8631712e-05  -8.9037232e-04   3.8393420e-05
   1.5381189e-05   3.2267885e-06   2.1069018e-05  -1.7264742e-06  -1.2707833e-06  -1.5084437e-05   2.0207513e-05   6.4303385e-05   1.3236454e-03  -1.2191116e-04   1.1938379e-04  -2.7546374e-05   7.9053054e-05  -5.6017370e-06  -7.9488746e-05   1.0099878e-04   6.5704946e-05  -4.4308102e-04   1.2979667e-03   7.9519334e-05  -2.1906242e-05  -1.0646846e-04   1.2851343e-04  -5.5418670e-05   3.5724722e-04  -1.5025563e-04   1.0661975e-04  -2.8929011e-05   3.8065511e-05   9.1133414e-05  -3.0367168e-05   3.8538969e-04  -2.9633140e-05   8.8755194e-05   1.1315812e-05   6.5462157e-04  -1.1281503e-04  -3.8736991e-05   1.1000919e-05   1.9301861e-04  -2.5830528e-04  -2.1650884e-04  -3.0947522e-05  -5.1570842e-05  -4.2249952e-04  -9.0864673e-04  -1.8925923e-04  -1.3165332e-05   4.1672956e-05  -3.2022686e-04
   3.5971912e-05   1.2462177e-05   3.6017067e-05   2.5717414e-05   4.6487206e-05   2.1766205e-05   6.3822707e-05   1.9151934e-05  -1.6782880e-05  -1.3835011e-04   1.2162803e-04  -2.4049734e-05   8.9919806e-05  -1.9299307e-05   2.0361877e-05   7.8140009e-05   6.8903923e-05  -8.5946776e-05   8.8216545e-04   7.4273332e-05  -2.8085047e-05  -8.3527069e-05   6.7362133e-05   3.0592524e-05   3.4113960e-05  -1.1170874e-04  -8.7101034e-05  -6.6248926e-05   1.7138358e-04   1.1207985e-04  -2.5166557e-04   2.8608841e-04  -2.1809171e-04  -1.9270317e-04   8.6078999e-06  -3.2728576e-04  -2.7112424e-04  -5.0060858e-05   4.8546524e-05  -3.9367947e-05  -1.3520446e-04  -1.0841739e-04  -1.4604907e-05  -1.5774727e-04  -6.4449949e-04   3.2862365e-05  -2.6534166e-04   5.3023748e-05   2.9801461e-04   1.2309620e-05
   2.8327500e-05  -1.2582914e-06   6.6329017e-06  -1.0796589e-05   3.2770444e-05   3.4791305e-05   4.5964400e-05   9.0297333e-05   3.5121141e-04  -1.4619378e-04   1.2822832e-04  -4.2836262e-05   9.2469818e-05  -2.7621294e-05  -6.9999180e-05   8.5668893e-05   5.7257537e-05   9.5152005e-05   2.8421242e-05   5.9428123e-05  -3.5073786e-05  -1.0731839e-04   1.9322430e-04   4.4967197e-05   2.6353277e-04  -2.7204977e-05   7.1429778e-05   4.0015719e-05  -6.9515925e-05   4.9362439e-05  -2.4656591e-04   1.9193850e-04  -1.6705590e-04  -2.6879265e-04   8.3940040e-06  -8.2105648e-04  -1.0085826e-04  -4.6270154e-05   7.1448223e-05   3.0294873e-04  -1.5644760e-04   1.0191072e-05  -1.3611550e-05  -1.7979169e-04  -3.7161162e-04   4.9769686e-04   1.9956558e-04  -3.1086303e-05  -9.3191862e-05  -1.5523870e-04
   2.0636562e-05   1.2550421e-05   4.0178307e-05   8.6216432e-06   7.1743540e-07  -1.5535274e-05   3.0256953e-05   6.1318970e-05   8.9360273e-04  -1.2976762e-04   1.3243637e-04  -5.4582346e-05   7.4897922e-05  -3.0963081e-05   2.6551634e-05   9.6477830e-05   6.5433051e-05   1.6084318e-04   3.3638931e-05   9.2572627e-05  -2.9184535e-05  -1.0988107e-04  -1.0409814e-04   1.3336420e-04   3.4536883e-05  -4.1906758e-05  -5.8889669e-05   4.6783131e-05   5.1483727e-05   9.2629678e-05   4.0518041e-04   3.6725582e-04   1.2867077e-04  -1.5106074e-04  -3.3030312e-05   1.3541749e-04  -2.6509803e-04  -3.3846612e-05   2.3231254e-05   9.0134372e-06  -9.9251854e-05   1.7879313e-05  -1.0623727e-05   1.4778681e-04  -3.9495315e-04  -1.0191835e-04  -4.0025674e-04  -3.0597312e-05  -1.0080785e-03   8.3907034e-05
   1.9635807e-05   1.3059889e-06   1.8865589e-05   2.4003255e-06   3.7946505e-05   1.7482816e-05   1.2254965e-05  -1.3271853e-05   4.3351247e-05  -1.4185310e-04   1.2590400e-04  -5.0744206e-05   4.8726848e-05  -3.4024735e-05   2.0758123e-05   9.5110670e-05   5.6429039e-05   3.3494711e-05  -3.4783028e-05   7.4282965e-05  -3.4464203e-05  -8.2184401e-05   3.2438165e-05   6.5611450e-05   4.0554276e-04  -3.4610417e-05   1.0349610e-04  -6.7556524e-05   5.5076456e-05   1.1868149e-04  -3.5706334e-04   2.4559873e-04  -2.7392220e-04   8.3928964e-05  -3.9426272e-06   1.4631060e-04   1.3210495e-04  -5.7967140e-05   1.9440999e-05  -9.0358109e-05  -2.1554886e-04   1.1041409e-05  -1.0132342e-05   1.3658425e-04  -1.7107576e-04  -1.5681556e-04  -3.8661125e-05   4.6521494e-05  -2.9855399e-04  -3.2144514e-04
  -1.6136854e-06   6.3917032e-06   3.2537100e-05   1.6660710e-05   6.1494080e-05   5.0521940e-06   4.1518142e-05   9.1360591e-05   1.0641738e-03  -1.0673347e-04   1.3035546e-04  -5.1112253e-05   4.5097811e-05  -4.2717165e-05  -4.3996042e-05   9.5370495e-05   7.4722775e-05  -5.1838177e-04   2.0845462e-05   5.2905139e-05  -3.0068424e-05  -6.7621673e-05   7.1656582e-06   9.8386256e-05  -1.5613745e-04  -6.4026986e-05  -3.5145807e-05  -4.5003046e-05   3.3430602e-05   7.9280187e-05   1.8599963e-04   5.1513850e-04   2.2622777e-04  -3.4599550e-05   5.8387614e-06   2.4232575e-04  -3.0232171e-04  -3.9195780e-05   5.8718001e-06  -2.7829374e-04   1.0304747e-04   6.9382048e-05   2.5595496e-05   1.2205818e-04  -2.8388790e-04  -2.5676910e-04  -2.2404855e-04   3.5715824e-05   3.6234144e-04  -2.5919979e-04
   3.9537783e-05   1.4026808e-05   2.8237646e-05   1.2706488e-07   1.3325169e-05  -1.5025250e-05  -3.6233337e-06   3.8664795e-05   3.3856495e-04  -1.2211440e-04   1.1459728e-04  -4.0053797e-05   6.4216816e-05  -1.1915917e-05  -3.0378038e-05   1.3891127e-04   5.6272442e-05   1.5442922e-04   2.0930020e-03   4.8378028e-05  -5.3813324e-05  -1.0025196e-04   6.7128776e-06   1.3116906e-04   8.6335975e-05  -1.9135473e-04   3.8403985e-05  -2.5116926e-05   3.1148982e-05   4.9207800e-05   3.3889435e-05   5.2058464e-04  -2.9159011e-04  -2.6853208e-04   1.0813141e-06   2.4440390e-04   7.7767429e-05  -2.0353988e-05   1.3413734e-04  -1.0381791e-04   3.1936544e-04   2.1183099e-04   4.8347509e-05   1.0222720e-04   1.7387253e-04   3.4986361e-04  -2.3700178e-04   5.4464905e-05  -7.0162880e-04   1.5398010e-04
  -6.3753268e-06  -1.0896907e-05   2.4432080e-05  -4.8529059e-06   5.3007949e-05   1.3451299e-05   1.3823934e-05   7.8970130e-05  -1.2028378e-05  -1.3360741e-04   1.2857431e-04  -5.9576923e-05   7.6124488e-05  -2.4736695e-05  -7.4332720e-06   1.2556683e-04   6.2759093e-05   2.2807115e-04   6.2456407e-04   4.4891174e-05  -5.8387795e-05  -1.3597572e-04   2.0230254e-05  -1.1516756e-04   6.3730979e-05   2.2999845e-04  -5.3673233e-05   4.3503180e-05   1.6405156e-05   6.8620298e-05   2.8690529e-05   4.0739257e-04  -3.6361227e-05   2.0703008e-05   5.9247322e-06  -9.2815462e-05  -5.5310902e-06  -2.0955864e-05  -4.2858650e-05  -4.6266585e-05  -8.1281301e-05   1.2448597e-04   2.9270392e-05   3.8107370e-05   1.8267988e-04  -1.6068632e-04   3.5750094e-05   5.8774342e-05  -5.8291818e-04   2.0450808e-04
   3.0463958e-05   2.4698738e-05   3.2358810e-05   3.7536895e-05   3.4498647e-05   3.9593469e-05   4.7663358e-05   1.3555141e-04   6.3236681e-04  -1.1208993e-04   1.2370104e-04  -5.6044915e-05   6.6926332e-05  -2.9283798e-05   5.3937283e-06   1.7725260e-04   5.8757108e-05   8.5083841e-05  -1.1575529e-03   6.1158447e-05  -6.0778770e-05  -8.5955842e-05  -1.0739976e-05   3.5024048e-05  -1.9928410e-05  -1.7829816e-05   6.0381313e-05   4.4773144e-05   4.7665199e-05   4.0480743e-05   2.3950408e-04   6.5522513e-04   8.2125756e-05  -1.5556475e-04  -1.9210200e-05  -2.4797989e-04  -2.2709639e-04  -1.4377069e-05   5.4072021e-05  -4.6980495e-04   1.2530117e-04  -8.6218366e-05   7.2123788e-05  -2.5184234e-05  -1.0629279e-04  -2.7608545e-04   1.1600598e-04   8.9586872e-05  -2.0638124e-04  -3.2550126e-04
   4.6577334e-06   1.0358267e-07   2.6303533e-05   1.4750420e-05   1.9742669e-05   4.2217916e-06   4.0709525e-05   1.1857970e-04   5.1079463e-04  -1.1637786e-04   1.3784031e-04  -3.5351568e-05   7.3714735e-05   1.4418777e-05  -2.0400639e-05   1.9885582e-04   5.6391913e-05   2.3023449e-05  -3.6066721e-04   4.8755865e-05  -8.1808466e-05  -1.5606918e-05  -1.7233937e-06   2.9220271e-05  -6.4727115e-05   8.1481172e-05  -4.7445330e-05   5.7077035e-05  -2.6400588e-05   6.7084591e-05   4.2700747e-05   2.0148601e-04  -2.3038748e-04  -1.7115135e-04  -1.5792719e-05   4.4179651e-05  -1.3620872e-04   7.4831587e-06   1.0823624e-04   9.1100868e-05   1.1606647e-04  -3.1670599e-05   7.2300172e-05  -9.4125637e-05  -1.9144590e-04  -4.8072726e-04   5.1540468e-05   1.3613445e-04  -7.8485918e-04  -1.2251920e-04
   2.0877871e-05  -1.6539703e-05   4.8829301e-05   2.6591439e-05   1.7027884e-05  -1.5317493e-05   2.8167398e-05   1.1517214e-04   1.5129285e-03  -8.7125634e-05   1.6211114e-04  -3.6957474e-05   1.0152093e-04   4.5473771e-05   5.3451640e-05   2.1403407e-04   4.5654357e-05   5.2747026e-04  -2.4853504e-04   6.0573755e-05  -6.3311665e-05  -2.4472374e-05  -2.3148696e-06   1.5607093e-05  -5.1862204e-05  -1.1416055e-05   8.5293750e-06   2.8544355e-05   1.1079015e-04   3.6914727e-05  -1.9408202e-04   1.1596949e-04   5.4403266e-04   6.1280502e-05  -2.6883806e-06  -3.6735750e-05  -1.6267582e-04   2.8187826e-05   3.4921653e-05   1.8032928e-04  -1.6546634e-04  -1.8959622e-04   1.1135844e-04   1.3514608e-04  -1.6512396e-04  -1.5030344e-04  -1.0798068e-04   1.1114869e-04  -4.7101069e-04  -3.5433177e-04
  -9.5904443e-07   7.8000021e-06   2.9631055e-05   2.3095407e-05   4.3410306e-05   8.0350683e-06   1.9316538e-05   9.5413656e-05   5.4728275e-04  -9.4411633e-05   1.6366249e-04  -2.3514400e-05   8.0743601e-05   7.8536696e-06   9.9243414e-07   2.1779037e-04   5.6182973e-05  -6.3274172e-05  -5.3118356e-04   6.1881743e-05  -6.1272214e-05  -6.7844885e-06   5.5947996e-05   3.0372674e-05   9.5434858e-05  -9.7317446e-05  -6.4048331e-06   1.7093642e-05  -3.0031470e-05   4.4063032e-05  -7.9995218e-05  -3.5554840e-05   7.8121659e-05  -3.9224429e-05   9.5774285e-06  -5.5030239e-04   2.5746127e-05   2.6238265e-05   8.4603758e-05  -2.1178524e-04  -3.8917995e-05   2.7053521e-04   9.3161696e-05   3.5527340e-04  -6.6667511e-05  -1.6518899e-04   4.5815967e-05   8.8742650e-05   1.1496353e-04  -3.5690764e-04
  -2.2644472e-06  -4.9614118e-06   1.0668356e-05   2.2839073e-05   2.8336817e-05  -1.7746055e-06   1.8036637e-05   1.5005626e-04   9.4647275e-04  -9.2121481e-05   1.4491376e-04  -3.0531617e-05   9.4450479e-05   2.4286690e-05   5.9023827e-05   2.5327422e-04   6.0035327e-05   2.5679171e-04   3.2066113e-05   4.5843382e-05  -8.1166145e-05  -1.9725435e-06  -8.6361193e-05   8.5641172e-05   2.9323841e-04   7.5902302e-05   3.6346391e-05  -1.6050464e-05   1.7834124e-04   7.6278680e-05  -4.5217187e-04   3.9262685e-04  -2.5447670e-04   2.1528540e-05   7.5378989e-06   7.8379133e-05   2.6393498e-04   2.1982683e-05   4.2993379e-05   5.8356993e-05  -2.3101488e-04  -6.6789558e-05   7.3935647e-05  -8.8495253e-05   5.3008138e-05   8.3842769e-04   8.1737409e-05   1.0065932e-04   1.1301247e-03  -3.8271665e-04
   1.4212967e-05   2.0811089e-05   2.8924527e-05   3.4633256e-05   3.0057154e-05  -5.8777318e-06   8.6088461e-05   1.9055721e-04   1.6385008e-03  -7.7628247e-05   1.4590245e-04   6.3498442e-06   8.7050801e-05   3.8001570e-05   5.7274410e-05   2.3773845e-04   6.8423826e-05   3.0932680e-04  -5.1961676e-04   6.1753570e-05  -4.5247187e-05  -1.4406056e-05   6.7660658e-05   1.2785911e-04  -1.5722771e-04  -5.3304492e-04   1.0830879e-05   3.2034983e-05   6.9279813e-05   6.0485134e-05   1.5311562e-04   3.3930599e-04   2.1712323e-04  -7.5398741e-05  -1.2978972e-05  -4.1308481e-04  -2.7059831e-04   4.0916217e-05   4.4262200e-05  -1.8989541e-04   3.5013587e-04  -9.2257607e-05   6.6802400e-05  -3.3462880e-04  -2.1701799e-05   3.4150211e-04   1.0975562e-04   1.4826264e-04   6.2242115e-04  -5.4960919e-04
   1.6432983e-05   5.7141924e-06   1.0619618e-05   4.3925571e-05   1.1664044e-05  -3.0264096e-05   6.5583372e-05   1.3357910e-04  -9.4747322e-04  -8.5311403e-05   1.3558289e-04  -3.7847287e-05   8.9775713e-05   6.8947709e-05   1.9349467e-05   2.3090414e-04   5.4452579e-05   3.5094513e-04  -4.0881787e-04   4.5922341e-05  -5.7984547e-05  -2.8090406e-05   6.1787119e-05  -2.7292270e-05   2.1306597e-04   1.5304336e-06   1.3608992e-04  -5.8437574e-05   3.7922488e-05   6.0281895e-05   5.5804005e-04   3.6942796e-04  -3.7143115e-04   3.6769394e-05  -5.9102418e-05  -2.4076911e-04  -2.8100023e-05   2.9167024e-05   2.7121008e-05  -1.0131652e-04   8.3433959e-05  -2.0283944e-04   6.1193648e-05  -2.2378610e-04  -8.7636749e-05   2.7937876e-04   8.4768226e-06   1.6648350e-04  -5.9695990e-04   4.3100670e-05
   1.8685569e-05   3.5190391e-07   1.5928204e-05   3.3842349e-05   1.9958150e-05  -2.5919728e-05   2.8257384e-06   1.0948475e-04   2.6535985e-04  -7.4098381e-05   1.4534048e-04  -2.1028081e-05   8.2076062e-05   7.3660602e-05  -2.4945919e-06   2.3788011e-04   5.1112311e-05   1.3067029e-04  -3.5050744e-04   7.3964053e-05  -4.6335110e-05   4.9650836e-05  -6.2197537e-06   2.1669248e-05  -5.0012906e-05  -1.4506513e-04  -3.3446180e-05  -9.5380865e-06   4.0020514e-05   3.9140003e-05   3.0225309e-04   3.5073928e-05  -2.1799775e-04  -8.2381448e-05   1.7897513e-05   4.0197291e-04  -1.4930876e-05   4.2105799e-05   1.0420355e-04   8.3409883e-05   3.2549788e-04  -1.6984907e-04   5.6976278e-05  -1.4748587e-04   1.3931876e-04  -2.6311257e-04   6.8853587e-05   3.0166034e-06   2.7166476e-04  -1.4807765e-05
   1.0809455e-05   1.8342507e-05   4.4774122e-05   3.3400585e-05  -9.5139976e-06  -1.0369863e-06   6.1603845e-05   1.3536945e-04   4.6481495e-04  -7.1866038e-05   1.8015080e-04  -2.1832818e-06   1.0012821e-04   6.1543091e-05  -6.3390680e-06   2.3833034e-04   6.4519234e-05   1.4822235e-04   9.6940639e-04   7.8091005e-05  -4.3579086e-05   6.4527019e-05   9.9708617e-05   6.3128805e-06   1.0030359e-04   1.0992107e-04   6.4894513e-05  -3.2889664e-05   1.8227976e-05   3.6499307e-05   3.7477125e-04   1.9413327e-04  -3.4732482e-05  -3.3755899e-05  -1.4019759e-05  -2.4652210e-04  -2.5896594e-04   5.1346444e-05  -3.3682070e-05  -1.0317775e-04   2.5972803e-04   1.6591624e-05   5.9696555e-05   1.7797560e-05  -2.9123554e-04  -4.6554991e-04  -1.4535805e-04   7.7588564e-05  -1.0388190e-03   1.5265998e-04
   1.2539308e-05   1.3614631e-05   2.7735234e-05   2.4135166e-05   2.0644689e-05  -2.7097678e-06  -9.7498223e-06   1.4821997e-04   3.2640522e-04  -8.2754254e-05   1.4179944e-04   5.6649496e-06   7.9498845e-05   7.8760873e-05   3.3278226e-05   2.0892093e-04   6.2865060e-05   5.3971878e-04  -3.2424952e-05   5.0905048e-05  -4.7606925e-05   1.0857066e-05   1.4123006e-04   1.3497996e-05   4.3384327e-05   6.4318032e-05  -1.4256369e-04  -2.6240812e-05   1.6970046e-04   2.1184533e-05   4.2259155e-04   2.8929510e-04   1.3926982e-04   8.6420521e-05  -4.5874276e-06  -2.0054157e-04  -2.3835039e-04   4.6397752e-05   3.2116452e-05   9.6560623e-05  -5.4083797e-05   1.4363554e-04   2.4741006e-05   4.2040603e-05   5.8629358e-04  -3.3079216e-04   2.4080626e-04   4.4058597e-05   1.2479239e-04  -8.2078469e-07
   4.4580247e-05   2.3124801e-05   2.3918374e-05   4.6925263e-05   2.4310020e-05   2.3502811e-05   1.2000362e-04   1.6101981e-04  -1.0483704e-03  -5.8143949e-05   1.4006515e-04  -7.9860120e-06   9.4355164e-05   8.1115308e-05   3.4024353e-05   2.2454339e-04   9.1993883e-05  -3.3295473e-05  -1.0085354e-03   8.4273925e-05  -3.2447995e-05  -3.2053922e-05   7.7217710e-06   7.6232660e-05   1.5187885e-04   1.1018120e-04   1.0151946e-04   1.6850365e-05   1.4093947e-05   4.8448775e-05  -1.3148622e-05   1.3509879e-04  -1.1609802e-04   1.5193432e-04  -3.3374006e-05  -3.6869467e-05  -2.5706820e-04   4.8238064e-05  -6.5061972e-06  -1.7829987e-04   2.0869706e-05  -5.7530833e-05   6.5182656e-05   1.5442583e-04  -2.6305057e-05  -2.0039352e-04  -2.3364843e-04   1.2607891e-04   2.2431703e-03  -3.5350671e-04
   3.7132115e-05   8.6601003e-06   3.9058239e-05   4.6757843e-05   2.2804581e-06  -1.1654939e-05   5.9630653e-05   1.3959344e-04  -2.9306512e-04  -7.2352479e-05   1.4980620e-04  -4.3325414e-05   7.3938565e-05   7.1856994e-05   3.7548089e-05   2.3272232e-04   6.8284338e-05   1.4335742e-04   1.9608822e-05   4.7832888e-05  -4.6688958e-05  -1.7486971e-05  -1.6368611e-05   5.0083207e-05   1.3597807e-04   7.4467192e-05   1.0038061e-04   3.3215219e-05  -4.6958689e-06   4.2017000e-06   1.1597114e-04   1.9829348e-04  -1.7644947e-04  -1.8365174e-05  -5.9768932e-05   3.8129307e-04   3.9496052e-05   4.3429820e-05   3.5419849e-05  -1.4828680e-04   8.8422727e-05  -5.9771821e-05   3.9770777e-05  -1.7649305e-04  -5.1586982e-04  -1.6068343e-04   1.3971343e-04   1.1022917e-04   9.9286670e-04  -6.3846281e-05
   1.4533473e-05  -7.9058764e-06   2.5403979e-05   2.9052429e-05   4.6729092e-06  -1.2046117e-05   8.4310312e-05   1.3649759e-04  -4.0287335e-04  -7.5855845e-05   1.4095634e-04  -3.0900494e-05   6.8614310e-05   5.5067281e-05   1.1326800e-04   2.3261512e-04   6.2095613e-05   1.1167329e-04  -6.7638414e-04   7.2981202e-05  -3.6351303e-05  -4.7899135e-05   4.6953512e-05   7.7359524e-05   7.2756466e-06   1.0766430e-04   6.4693877e-06  -1.6498147e-05   1.0135523e-04   3.1362131e-05   5.7361199e-04   2.3792061e-04  -1.7434763e-04  -2.8574750e-05   2.0901920e-05   3.5287460e-04   9.2183829e-05   3.4950801e-05  -1.0049040e-05  -1.0953038e-04   1.5565104e-04  -5.9510174e-05   7.8851721e-05  -2.7190187e-04  -1.1253326e-04  -5.2776912e-05   4.4153789e-05   1.2624328e-04  -5.4870150e-04  -4.7214507e-04
   3.1008800e-05   4.0120681e-06   2.0189724e-05   2.5959989e-05   3.9642036e-05  -2.7844224e-05   5.5799406e-05   1.8428094e-04  -4.6529318e-04  -8.0009035e-05   1.2465552e-04  -6.8314071e-06   7.1513234e-05   6.8530135e-05   5.5911547e-05   2.2111039e-04   5.3192427e-05   4.2048233e-04   2.9995557e-04   9.5294672e-05  -3.4443936e-05  -1.5222174e-06   1.1088272e-04   1.5361891e-04  -1.1500434e-04   1.4996913e-04   1.2783437e-04  -6.0624418e-05   5.9594397e-05   3.5382611e-05  -2.2773671e-05   1.8623547e-04   4.2625226e-04  -1.8124953e-04  -5.0439343e-05  -9.8706078e-05  -2.2326910e-04   4.2149095e-05   2.3313043e-05   6.8854497e-05  -2.5468081e-04  -1.2492952e-04   4.8649570e-05  -2.4820396e-04  -5.6185530e-05   1.5917442e-04   6.5393593e-05   1.6592587e-04  -3.0021658e-04  -2.4217935e-04
   2.8183867e-05   8.7050461e-07   2.6232741e-05   2.2840809e-06   2.9448363e-05   5.1856359e-06  -3.5801077e-05   1.3739248e-04  -6.5393798e-04  -8.9090034e-05   1.2587623e-04  -2.9946867e-05   7.6999306e-05   5.4721280e-05   1.9203009e-04   2.2613467e-04   6.4035936e-05   2.1357067e-04  -3.2077346e-04   4.2973046e-05  -5.1735013e-05   1.9085286e-05   8.6757791e-05   7.9053796e-05   8.0208840e-05  -3.2765543e-04   1.3786911e-05  -1.8145603e-05   8.8960798e-05   3.8569378e-06   9.4037307e-05   9.2454131e-05   1.5426078e-04   6.6535555e-05  -8.3743791e-05  -3.8441867e-04  -1.3959076e-04   3.9506773e-05   2.8160364e-05  -1.0376885e-04  -6.3865424e-05  -5.7139689e-05   5.0710911e-05  -1.7590584e-04  -4.0151586e-05   4.7173619e-04   2.1339151e-04   5.7297973e-05  -8.4527135e-05  -4.9968704e-04
   4.9976716e-05   1.3938055e-05   2.3585564e-05   1.7023714e-05   3.5886198e-05  -2.5898333e-05   6.0696540e-05   1.3571423e-04  -2.9577332e-05  -7.0772716e-05   1.3154901e-04  -1.5939599e-05   9.6634765e-05   6.8541929e-05  -5.1766292e-05   2.0572726e-04   4.9286675e-05   4.0932224e-04   9.5255015e-04   5.8690279e-05  -3.4498597e-05   5.3291144e-05   1.7964006e-04   5.8826921e-05   1.2431399e-05  -1.5066825e-05   2.7345310e-05  -2.3196353e-05  -5.9798076e-06   9.4450834e-06   2.0305290e-04   1.2596122e-04  -1.4883220e-04   1.5174926e-04  -3.6159534e-05   1.0439656e-04  -2.9220304e-04   5.1045812e-05  -3.8720307e-05  -1.2156604e-04   2.9131133e-04  -5.5006887e-05   5.0051603e-05  -4.5053570e-05  -2.0098794e-04   3.4397168e-04  -4.1155788e-05   3.6703045e-06  -1.2020816e-03  -2.6638273e-04
   3.4142104e-05  -2.0861273e-06   5.6649724e-06   3.8891652e-05   3.5349244e-06  -9.5156628e-07   7.0903596e-05   1.5492660e-04   3.2286480e-04  -9.2452108e-05   1.1440378e-04  -4.5681943e-05   5.1915416e-05   4.9653037e-05  -4.5403998e-05   1.9349284e-04   6.0665952e-05   2.8730070e-04  -8.7500573e-04   6.5309810e-05  -4.0129093e-05   7.1728650e-06   3.8710084e-05   2.6552254e-05   1.9225378e-04   9.8258970e-05  -1.1897046e-04   2.6152282e-05   4.5483554e-05  -2.2243958e-05  -4.5905315e-04   2.4198815e-04   5.3795130e-04  -2.1689084e-05   1.1872963e-06  -2.4584384e-05  -4.6301539e-05   4.2701056e-05   7.2075396e-05  -3.6458479e-04   1.0257666e-04  -1.1269601e-04   1.4382170e-05  -4.8153452e-04  -2.1298550e-04   3.1941236e-04  -2.3368390e-04   1.0258756e-04   1.5313261e-03  -8.4679573e-07
   3.2841253e-05  -1.8972685e-05   1.0065820e-05  -1.8886276e-05   6.6148218e-06  -3.5202444e-05  -1.2751658e-05   1.1338115e-04   1.1281400e-03  -8.0199541e-05   8.9159854e-05  -4.6479850e-05   7.6596742e-05   3.7220623e-05  -1.4359602e-05   1.8179031e-04   3.4108099e-05   1.1512064e-04  -3.7171677e-04   6.6829140e-05  -2.5334048e-05  -5.4149870e-05   5.5049153e-05   5.9335576e-05   1.9838930e-04   3.0918856e-04   7.0014896e-05  -3.8220678e-05   2.9510289e-05   2.4106419e-05   1.9831418e-04   9.1913884e-05  -1.4955485e-05   2.8137665e-05  -2.3821645e-05  -6.9892185e-06  -8.7420864e-05   4.4874982e-05  -7.1555638e-05  -7.9583508e-05   1.8598481e-05  -5.9344664e-05   1.1487914e-05  -1.9336837e-04  -3.0510770e-05  -8.8855223e-04  -5.6153121e-06   1.0519320e-04  -1.0872795e-03  -1.3840097e-04
   3.3020529e-05  -1.5758478e-06   2.3313235e-06   1.8622433e-05  -1.2997451e-05   3.5359237e-05   1.9400477e-05   1.1739859e-04   4.0955425e-04  -8.6923283e-05   1.1451878e-04  -5.9980412e-05   7.8003599e-05   5.6910903e-05  -7.2430288e-05   2.3579768e-04   2.7229831e-05   9.2918963e-05  -2.5625722e-04   4.0756284e-05  -4.2689928e-05   2.0321701e-05   2.7014412e-05   5.8011352e-05   3.2242754e-04   6.4416876e-05   7.8636287e-05  -2.7142352e-05   6.2413194e-05  -7.4900834e-07   7.8159814e-05   1.6554417e-04   2.7112872e-04  -2.7710385e-05  -5.1480183e-05  -7.2886833e-05  -1.4493971e-04   3.9047503e-05   3.6386606e-05  -1.8214746e-04   1.9987176e-04   8.1202288e-06   1.8032839e-05   2.8104580e-04  -7.5596552e-05   8.4392447e-04  -4.1020081e-05   3.3122997e-05  -8.6243683e-04  -3.8810741e-04
   2.4323337e-05  -1.5746871e-05   8.6176924e-06  -5.7099560e-06   2.1440206e-05  -8.8656789e-06   4.3313677e-05   6.8740760e-06   6.5267656e-04  -8.9958550e-05   8.8362271e-05  -4.9670358e-05   7.0231872e-05   1.4629659e-05   1.6435150e-05   2.0372415e-04   4.2844815e-05   1.0649412e-04   8.8296988e-04   3.2793618e-05  -5.6954428e-05  -6.9632811e-06   9.7627933e-05  -3.3162498e-05  -3.2118089e-05   2.4201923e-04   1.2628319e-04  -1.3989890e-05   7.6798227e-05   1.5888365e-05   2.6761583e-04   1.3532030e-04   2.8121084e-04  -1.7596063e-05  -5.6262776e-05   1.6741302e-04  -3.3015289e-04   3.7278507e-05  -3.7424456e-05  -1.1552829e-04   1.3187125e-05  -1.4432476e-04   2.1044723e-05   2.3951600e-04  -9.4866897e-05   3.0322434e-04   5.4744855e-06   5.0834351e-05  -2.3459095e-04   1.6792529e-04
   1.9617117e-05  -2.5167624e-06   1.5578389e-05   2.0948573e-05   1.1746105e-05  -2.4047002e-05   3.1022839e-05   8.3198043e-05   8.5890194e-04  -7.7830955e-05   8.0880571e-05  -4.1199433e-05   5.5552891e-06   3.8321155e-05   1.8373032e-05   1.9516358e-04   2.9599112e-05   1.6299635e-04   4.6686258e-04   5.3627104e-05  -3.2693610e-05  -1.1374542e-05  -6.2789986e-06  -4.2900636e-05  -7.8645564e-05   3.2130050e-04   1.4609839e-05  -4.8834885e-05   6.2136358e-05   1.2993429e-05   1.1847799e-05   1.4571185e-04  -3.0559680e-04   3.5775032e-05  -7.5733420e-05  -4.2335779e-04  -5.7386442e-05   5.3886142e-05   2.0142978e-05  -1.9976780e-04   7.3136769e-05   2.9231029e-04   2.9070012e-05  -1.2812686e-04   4.6985417e-05  -2.5189723e-04  -3.0988985e-04   1.2876505e-04  -9.3362556e-04  -5.6222998e-05
  -1.9566103e-07  -1.3939151e-05  -7.8132871e-06  -3.5526029e-06   1.0795990e-05  -1.2292111e-05  -3.1092655e-05   3.8433715e-05   2.1313312e-05  -8.7495369e-05   1.0797922e-04  -6.1258659e-05   5.9254329e-05   4.5528763e-05  -6.9272777e-05   1.9071456e-04   3.8802064e-05   3.4784814e-04  -6.5465376e-04   5.7176629e-05  -5.1970019e-05   1.3900425e-06   4.6512337e-06   2.8582695e-05   9.4891009e-05   2.0251586e-04   2.0020403e-04  -4.0895415e-05   1.9554525e-05   6.4469145e-06   3.7169328e-04   3.9091255e-04   2.5653024e-04  -2.2134987e-04  -8.1407430e-05   1.0619793e-05   3.2301312e-05   3.7956586e-05   1.7668828e-05   3.0213216e-04   4.2249172e-04  -1.2961690e-05   4.8125661e-05  -1.2826177e-04  -4.1873290e-04  -5.5872666e-04   1.8736466e-05   7.1315102e-05   5.5979326e-04   2.5021739e-04
   3.7320879e-06  -2.3062432e-05   1.4307937e-05  -7.9753527e-06   5.6147765e-06  -3.7670776e-05  -4.8005977e-06   1.1560089e-04   6.1486947e-04  -7.4519274e-05   7.8853103e-05  -5.0345443e-05   2.7780914e-05   3.8402366e-05   3.9917373e-05   2.2065410e-04   2.8837396e-05   2.6045222e-04  -8.1910571e-04   4.3487977e-05  -3.0233050e-05   5.8930955e-06   9.7175274e-05   1.2252344e-04   2.1066649e-04  -7.6816017e-05   1.1445884e-04  -1.1436033e-05   3.2021871e-05  -2.6661926e-05   5.9817987e-04   1.4822821e-04   5.1097042e-04  -5.0565277e-06  -7.5371820e-05  -3.6188739e-04   1.2604997e-04   4.8914990e-05   1.9672894e-05   1.3261600e-04   2.9526356e-05  -4.2170766e-05   1.6635608e-05  -3.6389686e-04   1.0577594e-04  -7.5327305e-05  -2.5743602e-05   1.0083710e-04  -6.3344737e-04  -1.4841098e-04
   1.7361459e-05   3.3807765e-07   9.0826579e-06  -8.8834377e-06   2.6603670e-06  -4.4179596e-05  -3.1945347e-05   1.3340189e-04  -7.7975143e-05  -9.2176604e-05   8.9422188e-05  -5.8557711e-05   4.2585445e-05   9.4845163e-06   2.6676313e-05   1.8923750e-04   4.8915648e-05   1.4306325e-04   2.0319437e-04   3.4557215e-05  -4.1714302e-05  -1.0566461e-05  -4.9019691e-05  -7.6633623e-05  -4.1533047e-05  -5.2718649e-05   7.9222178e-07   4.4379998e-05  -6.2315681e-05   5.7904288e-07   1.9559247e-04   2.4239346e-04  -1.1988563e-04   3.6917616e-05  -9.9319506e-05  -2.0176757e-04  -2.1693048e-04   4.9732746e-05  -4.0998901e-05  -1.6982855e-05  -4.0735042e-05  -1.4910787e-04   6.0965699e-06  -2.5380219e-04  -1.8910298e-04   3.1853747e-04   2.2159843e-04   4.5319306e-05   1.0823885e-03   2.0412054e-04
  -4.8420388e-06  -2.1635557e-05   1.5268728e-05   1.1574183e-06   1.2997210e-05   5.1733282e-06  -1.4124016e-05   1.0299822e-04   5.0901261e-04  -9.5513271e-05   6.7079971e-05  -8.1235623e-05   4.0031951e-05   2.9650950e-05  -1.1324591e-04   1.9419617e-04   2.0416057e-05   5.7179059e-05  -1.9489959e-04   3.4041939e-05  -4.5027780e-05  -2.7497741e-05  -8.0246464e-05   7.2720172e-06   3.2990001e-04   3.7955648e-05   1.2818853e-05  -1.8252227e-05   2.7022512e-05   2.9905373e-06   1.8115166e-04   4.9310952e-04  -3.1827518e-04   5.3568539e-05  -3.0333029e-05  -1.4622152e-04  -4.3925691e-05   5.6690620e-05  -2.6991422e-05  -2.2211153e-04   3.6731730e-05   4.8747879e-05   1.5075363e-05  -2.2157814e-04  -1.7375726e-04   3.4303122e-04   1.1485137e-04   1.4745390e-04  -1.0220964e-03  -1.3799872e-04
   1.9408772e-05   5.4214933e-08   2.9526622e-05   1.7934633e-05   1.0713578e-06  -6.3135121e-06   5.6400051e-05   1.8046531e-04  -2.0389377e-04  -7.7159311e-05   9.2266593e-05  -3.5226807e-05   3.3469805e-05  -2.9083183e-06   2.1002979e-05   1.6693481e-04   2.7278993e-05   4.4178960e-04  -2.9378512e-04   2.5558145e-05  -3.5585948e-05   3.9519953e-05  -1.5969061e-05  -8.2038488e-05   3.6685200e-05   6.7180175e-05   1.3930310e-05  -2.3550969e-05  -1.1941214e-05  -2.0317319e-05  -6.0140705e-05   2.0328305e-04   1.8579114e-04   3.1027903e-05   2.5783722e-06  -3.6848799e-04  -1.4827694e-04   5.4023225e-05  -9.3969493e-06  -1.5524436e-04   2.2384025e-04   8.1665406e-05   1.3225037e-05  -7.8268022e-06   7.8628342e-05   8.3143942e-07   2.1933526e-04   7.7105287e-06   3.0631199e-04  -2.9008143e-04
   1.8140787e-05  -7.5046219e-06   8.7370627e-06   1.6639083e-06   4.2486561e-05  -4.4716497e-05   3.9693146e-05   1.0566053e-04  -6.6580490e-04  -9.3864161e-05   6.7768728e-05  -7.0889946e-05   3.3044638e-05   5.3434169e-06  -4.2630795e-06   1.8892379e-04   1.0143390e-05   3.0531053e-04  -1.1691714e-04   1.6993916e-05  -4.2691983e-05  -8.2244242e-06   1.6065216e-05   9.8805394e-06   1.3032893e-05  -2.3439661e-05  -5.1015180e-05  -3.8123781e-05   3.7893944e-05  -3.6156893e-05  -3.2053120e-04   1.6720976e-04   3.4122696e-04   2.1447579e-05  -3.3263579e-05   1.6638654e-04  -4.2818625e-05   4.5945097e-05  -6.2882413e-05   4.4265191e-05   5.4400334e-05   1.7550767e-05  -3.6027141e-06  -5.3159554e-05  -7.6810153e-05  -4.7191992e-04  -1.5161851e-05  -6.8343752e-06  -3.0407935e-04  -1.4100590e-04
  -2.3046194e-05  -3.2121061e-05   1.0385057e-05  -3.9769195e-05  -7.3281135e-06  -1.3533599e-05   4.8973136e-05   8.6028616e-05  -4.8946752e-04  -8.1577229e-05   7.8886427e-05  -6.0833183e-05   9.0340536e-06   1.3499921e-05  -6.1091989e-05   1.5160395e-04   9.3392555e-06  -8.3627696e-05   8.2641235e-04   4.6546669e-05  -2.8469849e-05  -3.4488443e-05   2.2787050e-05   1.6110878e-05  -1.4143005e-04   3.0582110e-04  -8.6132553e-05   2.1891328e-05   5.6480509e-05   3.6430123e-05  -3.7909643e-04   7.2936331e-05  -4.3112959e-04  -4.9256058e-05  -2.3822871e-05   5.6924002e-04  -2.7041175e-05   3.6857557e-05   7.7095647e-06   1.6626398e-04   5.2385349e-05  -1.3198725e-04   1.1128641e-05  -8.7542408e-05   2.2204593e-05  -7.3800399e-04   2.2360303e-04   4.3831802e-05  -4.5956051e-05   1.5476817e-04
   5.5074756e-06  -1.1342920e-05  -2.1200353e-06  -1.6001810e-05   1.3883781e-05   3.2477943e-05   2.3498173e-05   8.5854654e-06  -6.2589148e-05  -8.6249209e-05   5.5184326e-05  -6.5248474e-05   3.4411245e-05   2.4932891e-07   2.4080065e-05   1.9904254e-04   3.5913901e-05  -7.9742123e-05   7.2428951e-04   3.2492302e-05  -4.5834415e-05   5.3187341e-05   1.5470349e-04  -1.7582201e-05  -1.3130774e-04  -1.5119193e-04   6.2967416e-07  -6.0723487e-05  -3.2752378e-05   9.9490780e-09  -1.2278816e-04   1.7806175e-04   6.9567272e-05   1.6905199e-04  -4.9688570e-06  -2.9558653e-04  -1.2807349e-04   3.7792252e-05  -9.2164941e-05   3.5654457e-04  -1.6152248e-04  -1.6959906e-05  -1.9472063e-05  -9.4563120e-06  -1.6594047e-04  -7.8209775e-04  -1.1526363e-04   5.7939273e-05  -1.4952812e-04   2.2243713e-04
  -1.6889020e-05  -2.9802717e-05  -1.2558522e-05  -1.7186358e-05  -2.0252575e-05  -3.2665583e-05  -7.3807583e-05   9.6800344e-05  -1.5236381e-04  -9.1242488e-05   6.0664239e-05  -3.5373945e-05   8.8652978e-06  -4.7362305e-06   4.0385716e-05   1.7684852e-04   1.4362231e-05   4.5779947e-04   6.6352071e-04   3.8376547e-05  -3.9670627e-05  -2.5880689e-05  -7.2966599e-05  -2.6005006e-05  -7.1246322e-05  -2.1591448e-04   5.6426688e-05  -1.0149217e-04   2.2729188e-05  -3.3582673e-05  -1.7102089e-04   3.3970491e-04  -4.3300120e-04  -3.9802220e-05  -4.2525578e-05  -1.8459237e-04  -1.5934829e-04   3.3175958e-05   7.8619625e-05  -5.8952188e-05  -1.8683428e-05  -8.6209671e-05   3.6282995e-07  -6.0386374e-05  -3.8539048e-04   3.5753477e-05  -1.6714669e-04   1.2530830e-04  -1.9555916e-03  -4.0545146e-05
   2.6486756e-05  -2.5120551e-06   1.4049265e-05   7.5804104e-07  -7.4687846e-06  -3.1357838e-05  -3.1160260e-05   6.6877015e-05  -4.3630353e-04  -7.5547308e-05   7.7987970e-05  -5.1833493e-05   9.8999444e-06  -2.0703590e-05   1.8502991e-05   1.4504667e-04   2.1765070e-06   1.6047721e-04   1.0130426e-03   1.9040588e-05  -2.9584238e-05  -1.2329463e-05   3.5653888e-05  -1.2427704e-04   1.9432176e-04   1.4264105e-04   4.0188443e-05  -1.4018625e-06  -1.2410729e-04  -3.2920932e-05   3.0438017e-04   1.3776786e-04   5.7606731e-04  -1.0277775e-05  -3.1140396e-05  -5.1545594e-05  -9.2407288e-05   3.6210105e-05  -4.3267941e-05  -2.0416468e-04  -4.0930048e-05   3.3972625e-05  -1.0254173e-05  -2.9354627e-04   6.5631415e-05   4.0188181e-04  -5.9597845e-05   7.4802659e-07  -8.2769006e-04  -3.8059932e-04
   3.4199247e-06  -1.7398992e-05   2.6121281e-06  -6.0728726e-06  -3.2968787e-06   2.2083628e-05  -2.5988073e-05   6.3138876e-05  -4.4063322e-04  -7.9491532e-05   4.7958751e-05  -5.2366202e-05  -2.0518746e-05  -1.3471423e-05  -1.2334796e-04   1.3510931e-04   1.0594364e-05  -3.0461981e-05   5.1263720e-04   9.9257932e-06  -3.3858283e-05   6.8205632e-06  -6.7121218e-05  -2.4417312e-05   1.0291244e-04  -1.3161577e-04  -2.5183192e-05  -2.7362499e-05   8.9135283e-05  -2.8593859e-05   2.9316283e-04   2.1576231e-04  -5.5495184e-04  -2.1701384e-05   1.0498002e-06  -2.6595508e-04  -8.3156461e-05   1.8043749e-05  -2.3331697e-05  -1.4786561e-05   3.8631551e-06   1.0536975e-04  -2.3463805e-05  -1.6327520e-04  -1.3273583e-04  -4.7311489e-04  -1.3739950e-04   3.3591263e-05   1.2393965e-03  -9.9655648e-05
   3.3067172e-06  -2.8281494e-05  -8.6259843e-07  -5.2871928e-05   1.3302707e-05  -1.7529110e-05  -2.6773441e-05   1.7309940e-05   6.3949800e-04  -8.0814600e-05   5.2004791e-05  -5.7718709e-05  -1.1773612e-05  -2.2703698e-06  -6.3411440e-05   8.8878900e-05   8.0797163e-06   8.9548972e-05  -2.9638913e-04   2.1828697e-05  -1.8860988e-05  -2.1062472e-06  -1.2089326e-05  -2.1264095e-05  -9.6507301e-06  -3.0576155e-06   1.1356787e-04   9.1942302e-06   4.9559694e-06  -6.3908912e-05   9.4678086e-05   1.2503883e-04   2.8122886e-04  -2.7846185e-05  -7.2501869e-05  -1.5789460e-04  -1.9610085e-04   3.4937941e-05  -1.7498081e-05   6.7737936e-05   5.8207996e-05   2.3971468e-05   3.4430691e-06  -8.7223125e-05   1.5160619e-04   3.9967557e-04   2.2968120e-04   3.1388750e-05   1.5667827e-03   8.1280734e-05
  -1.4444957e-05  -1.0000759e-05  -4.5702200e-06   8.3132072e-06  -9.6438853e-06  -4.7839090e-05  -3.1058586e-05   5.1492134e-05   4.5529663e-04  -6.7524692e-05   6.0663628e-05  -3.2911281e-05  -2.4817618e-05  -2.2309443e-05  -5.8459095e-06   9.6401433e-05   1.2583985e-05   1.5564423e-04  -2.2313034e-04   1.3172167e-05  -2.7057768e-05   6.8719100e-06   3.2467902e-05  -3.0033279e-05  -9.4988260e-05   9.7727454e-05   8.6718195e-05  -8.2823630e-05   5.8828220e-05  -3.0415233e-05  -1.9079699e-04  -1.3824508e-05   4.3771518e-04   3.9223352e-05   1.3123483e-05  -5.4363790e-04   8.5522777e-05   1.4826445e-05  -7.2703806e-05  -2.1147043e-04  -1.1806186e-04   6.5982043e-05  -1.9258028e-05  -2.8467411e-04   1.1625498e-04  -1.4825775e-04  -1.6724848e-04  -2.0629481e-05  -1.2525989e-03  -4.7607420e-04
  -2.4438554e-05  -2.2844877e-05  -6.1562014e-06  -1.9089821e-05  -1.8056151e-05  -5.6291719e-05  -5.5184246e-05   2.6653381e-05   5.0816283e-04  -7.7415491e-05   2.3574748e-05  -5.8501100e-05   2.7275189e-06  -3.0737283e-06   7.0455171e-05   1.0139446e-04  -1.9407909e-05  -2.0032956e-05   9.0283062e-04  -7.3686406e-06  -3.5429453e-05  -3.0963904e-06  -1.4425977e-04  -3.2480926e-05  -4.7030135e-05  -4.4911667e-05   5.8016940e-06  -6.9110691e-05   3.8194623e-05  -3.9178092e-05   1.1811943e-04   2.2596474e-04   4.1962438e-05  -1.4600059e-04  -3.4951809e-05  -4.2503516e-04  -3.6370071e-05   1.0405181e-05   2.7894870e-05   8.3884239e-05  -7.8456273e-05   4.1404954e-05  -1.8878467e-05   1.1289019e-04   3.1625695e-04  -8.1454891e-05   1.6705401e-04   4.0722691e-05  -1.9160809e-03  -2.1948709e-04
  -6.4321521e-06  -2.8749780e-06   1.5303805e-05  -5.2558403e-06  -3.0586725e-05   1.4742058e-05   2.1701293e-05   6.1458617e-05  -2.8184286e-04  -6.5637134e-05   3.7205318e-05  -1.7177194e-05  -1.2803272e-05   1.8180192e-05   2.5569334e-05   8.5168344e-05   1.1315496e-05  -9.5434063e-07  -2.0989806e-04   9.5257692e-06  -2.2671051e-05   1.5705500e-05  -4.9641709e-05  -8.9280053e-05  -2.4720648e-05   1.0874699e-04   2.3427208e-05  -1.0263781e-05  -1.4027070e-05  -2.9865249e-05   3.0284832e-04  -1.2622387e-04  -2.8749459e-04   4.9384733e-05  -5.1981493e-05  -4.6596199e-04   9.1759699e-05   1.4855060e-05  -8.0351936e-05   1.1773572e-04   2.5268988e-05  -1.3698255e-04  -3.4228906e-05  -1.1913767e-04  -5.4798296e-05   6.5827329e-04   2.1823471e-04  -1.0739667e-05  -4.9302031e-05   2.0538742e-05
  -1.0201402e-05  -8.2953666e-06  -6.8637974e-06  -1.3553687e-05  -3.5942598e-05  -3.2300716e-06  -1.7276163e-05   4.1760501e-05   4.1118352e-04  -7.8205376e-05   4.7345773e-05  -6.9929825e-05  -2.2364480e-05  -1.8263592e-05   8.8570602e-07   8.9973189e-05  -3.7519276e-06  -1.4254771e-04   1.1425824e-03   2.2539671e-05  -3.1020412e-05  -4.2697266e-05  -4.5440964e-05   2.5415229e-05   3.1025098e-05   1.5325964e-04   1.7799870e-05  -8.3242237e-05   9.7990960e-06  -4.5064146e-05   2.9127777e-04   1.3916705e-04   2.8569458e-04  -8.4359444e-06  -1.3070976e-05  -1.2778226e-04  -1.7932229e-04   2.4567216e-06   2.7775701e-05   2.2072840e-04   2.8531031e-05  -2.0100657e-04  -3.1287887e-05   1.2254097e-04   1.0478545e-04   3.9829221e-04  -3.7558228e-05  -1.4260451e-05  -4.0818314e-04  -4.1254927e-04
  -1.7807843e-05  -2.9466280e-05  -1.9525936e-05  -3.5557638e-05   1.5484518e-06   1.9702426e-05  -3.6608188e-05   6.4264626e-05  -5.3059754e-05  -7.6257922e-05   3.1920321e-05  -6.1009403e-05  -2.6966087e-05  -1.0093628e-05  -4.2707238e-06   3.0458994e-05  -7.2996249e-06  -1.7781591e-05   1.4805613e-04  -3.2072689e-06  -2.5187133e-05   4.0290365e-06  -4.6819514e-05   1.2330707e-04   1.7418654e-04  -1.8591445e-04   1.8045119e-05  -5.6746132e-05  -4.0618484e-06  -6.4006228e-05   2.2878706e-04   2.7275044e-05   2.4473364e-04  -1.9011275e-05   3.7436926e-06   3.1653931e-04  -1.3436380e-04   2.9834866e-06  -7.9776095e-05  -2.1285360e-04   7.2813833e-05  -1.9302270e-04  -1.5046533e-05  -1.7272212e-04  -2.5006389e-04   9.1702212e-05  -7.9769583e-05   3.5496610e-06   7.5736683e-04   1.4991555e-04
  -7.6884344e-06  -1.0506210e-05  -1.1200023e-05   9.9082918e-06  -6.9522898e-06  -1.0130597e-05   1.3576942e-05   2.6399428e-05   2.8267375e-04  -5.7536490e-05   4.6113717e-05  -5.0263203e-05  -3.2019940e-05  -1.3932038e-05   6.6926164e-05   5.3228356e-05   1.1317963e-05   1.9169363e-04  -5.6641974e-04  -1.8683523e-06  -2.6464724e-05  -2.1537646e-06  -1.1078145e-04   1.5022025e-05   2.8240115e-06  -1.2789380e-04   5.4230368e-06  -9.3631599e-05  -3.6343907e-05  -3.9043956e-05   1.6776142e-04   1.6967906e-04   1.4274649e-04  -6.9100228e-05  -6.7266528e-06  -6.5209297e-06  -2.2994338e-04   7.5483599e-06  -2.8357299e-05   1.7858692e-04  -7.6502020e-06  -8.0054197e-05  -6.0620014e-06  -2.4691920e-04   1.4366931e-04  -4.4553439e-04   2.2970386e-04   8.3523164e-06   2.1120631e-03  -2.5827877e-04
  -3.4305969e-05  -2.6169544e-05  -2.6276191e-05  -2.4820440e-05  -1.7498772e-06   1.8358694e-05  -1.8118606e-05   7.6852077e-05  -6.4337580e-04  -7.0580420e-05   7.3294177e-05  -3.7225156e-05  -1.7915154e-05  -2.5203544e-05  -6.1058890e-05   2.5992218e-05  -7.2106432e-06   1.1818498e-04  -7.8993227e-04  -1.9935680e-05  -2.8500683e-05  -1.1236387e-05  -3.7332786e-06  -7.0393739e-06   4.4066586e-05   9.7052834e-06  -1.2256159e-04  -1.3698662e-05  -2.7081354e-05  -2.4021985e-05  -1.3510707e-04   7.2698727e-05   2.6014770e-04   4.1523130e-05  -3.0677376e-05   6.9498274e-05  -8.5680178e-05  -1.0469364e-05  -2.1542242e-05  -2.6492978e-04   1.9236650e-04  -2.6727279e-04  -2.5421481e-05  -1.9954934e-04  -1.5177524e-04   2.4153550e-04   3.8426640e-04  -5.4300668e-05  -6.8974379e-04   1.5584556e-04
  -3.8296826e-06  -1.4811841e-05  -3.1082488e-06   4.7284493e-06  -4.8478782e-06  -1.4026057e-05  -2.2625753e-05  -4.7119134e-05  -5.0927181e-04  -4.5772726e-05   3.6247544e-05  -6.7467430e-05  -1.8883155e-05  -2.2689330e-05  -6.7747002e-05   3.0217978e-05  -9.2483597e-06   3.8649705e-05   4.0524616e-04  -6.0393759e-06  -2.0664425e-05   7.9946585e-05   1.1908822e-05   2.6335629e-06   1.1934295e-05   2.2115609e-04  -4.2915275e-05  -1.0442813e-04   1.0893254e-04  -5.1673171e-05   1.6522505e-04   1.4901040e-04   2.2811296e-04  -5.6102232e-05  -8.6735508e-06   5.1926530e-04  -2.6764063e-04  -6.7986998e-06  -6.3763662e-05  -7.8421348e-05  -2.8361368e-04  -5.0768012e-06  -2.7516553e-05  -1.3982602e-04   1.4768976e-04   6.1219005e-05  -3.4442561e-04  -5.2591640e-06   5.4464173e-05   2.8107295e-04
   1.2616038e-05  -1.0929198e-05  -9.2066903e-06  -1.1078456e-05  -1.4627692e-05  -4.9694234e-05  -5.2034869e-05   5.4384553e-05  -1.5517253e-04  -6.2982763e-05   5.2877167e-05  -2.6896294e-05  -2.3608804e-05  -3.4266923e-05  -9.1853857e-05   3.6357142e-05   3.1773765e-05   1.8299742e-04  -4.8406684e-04  -2.1325845e-05  -3.3197375e-05   1.1334735e-05  -1.1447156e-04  -8.7276028e-05  -3.6306112e-05  -1.5231076e-04   1.2912371e-04  -5.5569144e-05  -7.1822746e-05  -1.1471509e-05   6.6592424e-05  -1.3958174e-05   3.5206226e-04   4.0058130e-05  -3.4503144e-05  -9.7384385e-05   1.4801274e-04  -2.3806617e-05   6.2663385e-05  -2.1349973e-04   8.8733970e-05   8.3018102e-05  -1.3734235e-05  -7.6602402e-05   7.9615573e-05   3.5078116e-04   8.9441361e-05  -4.3100288e-05  -1.8980824e-04  -3.0688001e-04
  -2.9584469e-05  -3.2186996e-05  -2.7900162e-05  -3.7149279e-05  -2.1176975e-06   8.4670946e-06  -7.1128065e-06   2.1648946e-05  -7.5561268e-04  -5.3738157e-05   2.6806809e-05  -6.4619511e-05  -2.1025669e-05  -4.0403927e-05   3.8735096e-05   2.9345640e-05  -6.0311972e-06   1.2504132e-05  -2.8129364e-04   7.3545216e-06  -2.3625980e-05  -2.4886373e-05  -7.2804367e-05  -9.3904848e-05   9.6664138e-05  -3.3624866e-04  -7.6190307e-05  -7.7661192e-05   6.2588762e-05  -1.9907529e-05   1.8012362e-04  -3.0861935e-05  -1.8793583e-04  -2.0590266e-04   2.0465868e-05   2.4116805e-04  -2.6682360e-04  -7.6852875e-06  -8.2131002e-05   4.5748056e-05   6.0900704e-05  -4.5796568e-07  -2.5408724e-05   7.8380537e-05  -5.7889534e-05   4.8570426e-05   9.4914714e-05  -1.6559328e-05  -9.1686880e-04  -1.5313602e-04
  -5.1474085e-06  -9.8552955e-06  -1.6254524e-05   6.7435633e-07  -1.1783821e-05   5.2267401e-06  -1.3138413e-05   2.9439923e-05  -4.5209908e-05  -5.6041816e-05   4.5801949e-05  -3.0651874e-05  -4.8787530e-05  -6.8810055e-05  -8.3732040e-05   2.2722279e-05  -1.2863566e-06   3.6867244e-05  -9.6145301e-04  -3.5387515e-05  -3.2558815e-05  -5.3600153e-05  -3.0019659e-05   4.8164875e-05   2.4463952e-04   4.3415206e-05  -3.3303124e-05  -1.0317135e-04   3.5299963e-06  -1.0427184e-05  -4.5357333e-04   2.6942213e-04   3.4217158e-04   1.7488924e-04  -1.7966688e-06   3.4229885e-04  -1.4040517e-04  -1.1586064e-05  -2.3744979e-05   1.1029334e-04  -5.4929271e-05   5.8931430e-05   3.2271687e-06  -2.3155908e-04  -1.7529300e-04   4.2701513e-04   2.5746028e-06  -6.8443354e-05  -4.6408863e-04   1.2691761e-04
  -1.5850406e-05  -3.4782704e-05  -3.5699493e-05  -1.3374626e-05  -4.1313142e-05   9.9620174e-06  -4.2268684e-06  -7.2547016e-05  -3.1808854e-04  -6.5943823e-05   3.1048363e-05  -5.1433904e-05  -2.1475524e-05  -3.4273373e-05  -1.1502211e-04   3.2487220e-05   5.3158155e-06  -4.5903449e-04  -6.8568211e-04  -5.7054117e-06  -3.4418870e-05  -6.8612069e-05  -6.2852159e-05   1.3151782e-05   1.1413394e-04  -1.4631155e-04  -1.3234720e-04  -7.3995368e-05   5.8827068e-06  -1.3637241e-05  -4.3976610e-04   3.2513044e-04  -2.9246788e-04  -6.0945564e-05  -8.6507571e-06  -1.2203119e-04  -1.0937089e-04  -2.1485968e-05  -4.0062252e-05   1.3537872e-04  -6.1305342e-05   4.2273787e-05  -1.9693103e-05  -2.6658506e-04  -4.7862271e-05   2.0673191e-04   1.1482638e-04  -3.6739835e-05   1.4333330e-03  -2.5256933e-04
  -1.9354457e-05  -8.7699891e-06  -4.1374715e-06  -2.3216564e-06  -1.1107106e-05  -2.4950636e-05   1.4823181e-05   6.0437092e-06   5.0452573e-04  -4.9615632e-05   5.6416637e-05  -2.7172460e-05  -1.4551007e-05  -1.7453893e-05   2.1322772e-05   3.0483583e-05  -1.3913721e-06   3.0345557e-04  -1.0771519e-03  -1.9784606e-05  -2.4514622e-05   3.4227173e-06  -2.1350916e-05   4.5679360e-05   1.7397334e-04   8.6339103e-05  -4.3941825e-05  -6.2858708e-05  -1.0013761e-05  -3.2684893e-05  -5.9490954e-04   2.3793025e-04  -7.6575088e-05   1.6287084e-04   1.0414861e-05   3.9351205e-04  -2.6527736e-05  -9.9550307e-06  -3.0080799e-05  -6.5719076e-05  -7.9010046e-05  -1.8689646e-04   7.8311587e-06  -3.8374466e-04  -2.9243523e-04  -3.3458543e-04  -4.2636915e-05  -1.1853944e-04  -7.4635027e-04  -2.2161784e-04
  -2.7342952e-05  -3.2032996e-05  -7.7905470e-06  -3.5768153e-06  -2.9672821e-05  -1.2939635e-05   1.0388932e-05  -5.6758810e-05  -4.1802859e-04  -5.7289242e-05   1.0976121e-05  -3.1776854e-05   1.7090746e-05  -5.9159109e-05  -7.3007992e-05   2.2426520e-05   1.9013637e-06   4.2779426e-05   4.9895019e-04  -2.8571798e-05  -2.3944807e-05  -4.0844016e-06  -8.1830935e-05   4.0123719e-05  -6.7619454e-05  -3.0010252e-04  -5.8351770e-07  -1.0388235e-04   1.6192056e-05  -9.2314249e-06   2.0405000e-04   9.4517047e-05   2.5892619e-04  -8.2231458e-07  -2.8403467e-05   2.0570766e-05   5.8783346e-05  -1.8936198e-05  -7.7218683e-05  -4.9500071e-05  -7.6927245e-05  -2.5533044e-04  -5.0096653e-05  -2.0487915e-04  -3.1363638e-04  -2.9391333e-05   3.4493623e-05  -8.6318491e-05  -1.1363999e-05  -6.4549287e-04
  -2.3525965e-05  -2.3135737e-05  -1.9452933e-05  -1.6273263e-05  -4.8035208e-06  -1.2565087e-05   1.8352514e-05   2.3018509e-05   7.7068852e-04  -3.2534248e-05   4.4803022e-05  -1.3477620e-05  -3.7602109e-05  -3.7487443e-05  -5.4887456e-05  -1.0710720e-05   1.0648369e-05   2.5473646e-04   1.0777080e-03  -1.6480122e-05  -1.6537258e-05   7.2398463e-05  -1.3427529e-04  -1.0848462e-04   1.5080190e-04  -2.0545122e-04   1.6807058e-05  -9.6205207e-05  -5.6222663e-05  -2.3854975e-05  -3.7810809e-04   1.3402534e-04  -2.4169906e-04   1.2573649e-04   2.7773624e-05  -2.6298085e-05   4.2150550e-05  -3.2987348e-06  -8.1938364e-05  -6.1293824e-05  -3.5299250e-05  -4.6569447e-05  -2.8677288e-05  -1.6984834e-04  -1.0801214e-05   5.4857653e-04  -1.5510454e-05   4.1721018e-05   2.0751586e-04  -2.0846968e-05
  -1.2940845e-05  -2.3114868e-05  -1.8444325e-05  -7.8961803e-06  -3.9559338e-05  -9.9940580e-06  -4.5542762e-05   5.7151348e-05  -9.6706506e-05  -5.8280388e-05   1.3431324e-05  -5.0166571e-05  -3.6872825e-05  -3.8530219e-05   3.1933563e-05   6.0758871e-06   2.3132940e-05  -3.9217066e-05   7.5743948e-05  -6.3257703e-06  -2.5928788e-05   1.0335020e-05  -4.0047613e-05   7.8733858e-05   1.8944607e-05   1.0548921e-04   1.2262998e-04  -8.0609374e-05  -2.6356889e-05  -3.1767482e-05   4.5517590e-04   1.9076666e-05  -1.8440196e-04   1.7450944e-06   1.2671090e-05   3.8755639e-05  -5.5958863e-05  -2.5709326e-06   2.8872690e-05   1.5444421e-04  -3.5259538e-05  -1.0494718e-04  -3.0912688e-05   1.0160108e-04  -1.1292037e-04  -4.6667937e-04   2.3491439e-05   2.8699316e-05   4.8742641e-04  -5.8950204e-04
  -4.2502383e-05  -3.9456267e-05  -2.8187742e-05  -5.3346430e-05   1.1996322e-05  -6.7200664e-05   1.7640157e-05  -1.2752544e-05   6.7252055e-04  -7.0448077e-05   9.9280987e-06  -6.4625972e-05  -3.0531573e-05  -5.2736290e-05  -4.4472257e-05   6.2641352e-06  -4.2424163e-06  -5.1208764e-05  -1.1296705e-04  -1.7542998e-05  -2.1658259e-05  -1.3521138e-05  -2.8866241e-05   6.6907043e-05  -2.3904370e-04  -1.1190287e-04   4.9281266e-06  -1.2486963e-05  -1.6489625e-05  -3.2716493e-05  -3.3647227e-04   1.0503601e-04   8.5441323e-05   2.7740383e-05   9.3620047e-06  -1.4238653e-04   1.3669522e-04  -8.0352838e-06  -1.0296705e-04  -8.1247366e-05   8.7335669e-05  -1.0674731e-04  -2.8445399e-06  -3.1344651e-05  -1.3968484e-04   3.3089897e-04  -7.1052120e-05  -3.6392078e-06  -2.2077604e-04   5.1140563e-05
  -1.2232010e-05  -1.7783583e-05   2.6599182e-07  -1.5078666e-06  -4.6988275e-06  -2.1133797e-05  -1.3848565e-05   3.0337447e-05  -4.7140926e-04  -5.6424651e-05   9.4530415e-06  -6.2328858e-05  -3.4727993e-05  -3.7220663e-05  -8.2127786e-05   5.9038389e-06   2.1582257e-05  -7.6388214e-06   1.9298923e-04  -1.2471176e-05  -1.9974081e-05  -2.2380531e-05  -3.7529171e-06   4.3076077e-05  -1.9391341e-04  -2.1985408e-04  -2.2119388e-05  -3.7135807e-05  -1.6000624e-05  -2.4108516e-05  -5.4205699e-05   1.9225685e-05   3.4383669e-05   1.2700518e-05  -3.5869969e-05  -2.1490132e-04   1.1619765e-04   3.4870757e-07  -7.0743154e-05  -2.1089596e-05   3.1640223e-04   1.0746092e-05  -3.1397733e-05  -3.1088805e-04  -1.9599506e-04  -1.2226729e-03  -4.8561269e-06  -5.6671702e-06   1.6488207e-03  -2.1840721e-04
  -1.8330555e-05  -4.1908381e-05   6.9962666e-06  -2.5044264e-05  -1.8159964e-05  -5.5012093e-05  -6.2992267e-06   3.5070334e-05  -1.1305261e-04  -6.7791232e-05  -2.7173314e-06  -4.1030828e-05  -2.7663838e-05  -2.7494238e-05   1.3204014e-05  -1.2935232e-06  -1.6130612e-07   4.8942707e-04   2.2989263e-05  -2.2757549e-05  -3.9078426e-05  -6.9121429e-06   8.0331913e-05  -8.9932924e-05  -1.8205934e-05   7.1616611e-05  -7.2382711e-05  -2.1322167e-05   2.1604486e-05  -1.9749834e-05  -2.2163523e-04  -7.4081312e-05  -1.8951203e-05  -7.3406387e-05  -1.5627342e-05   2.9601867e-04   6.4930879e-05  -6.8577383e-06  -4.9264152e-05   1.6786192e-04  -1.3188856e-04  -1.4418678e-05  -1.4885039e-05   3.7693325e-04   1.6300780e-04   1.0768624e-04   1.8019280e-04  -4.3385626e-05  -5.6901458e-04  -1.5285575e-04
  -2.1968839e-05  -2.2426952e-05  -9.1256343e-06  -6.4728029e-06   6.9823454e-06  -2.2612423e-05   3.1717063e-05  -4.6882080e-05   6.1288441e-04  -3.6198348e-05   1.0742385e-05  -3.4191158e-05  -4.9131388e-05  -5.9055645e-05  -7.9539808e-05   1.5427813e-05   1.1858467e-05   3.3696961e-05   1.1537196e-04  -1.2367909e-05  -1.9610903e-05  -1.3454520e-05   6.5404180e-05  -9.7213742e-05  -1.2270613e-05  -1.7770889e-04   2.7709479e-05  -5.7793342e-05   4.5890298e-05  -5.7371337e-05   1.8324201e-04   3.7442482e-04   1.2279046e-04   7.0260947e-05  -4.1345153e-05   1.1597859e-04  -7.7949997e-05  -1.1711615e-05   4.3768658e-05   4.8158836e-05  -1.3347164e-04  -7.0700422e-05  -1.4122364e-05  -1.4312810e-04  -2.9999595e-05   1.1568562e-04   2.1715921e-04  -1.1734912e-04  -4.6844070e-04  -1.3467745e-05
  -2.7878112e-05  -3.4151650e-05  -3.8314134e-05  -3.0878930e-06   7.7625515e-07  -6.8011805e-06  -1.6545429e-05   4.3906828e-05  -5.7823764e-04  -5.0946368e-05  -1.4100843e-05  -4.6971138e-05  -4.8752849e-05  -4.9663275e-05   1.6386075e-05   9.2892578e-06   2.6479415e-06  -8.6978347e-05   1.0928594e-03  -1.4664163e-05  -2.5578727e-05  -5.4437714e-06  -4.1670872e-05  -3.0179703e-05  -6.9993475e-05   4.8785394e-05  -1.7683396e-04   1.2329197e-05  -5.0211158e-05  -3.8950813e-05  -9.3810377e-05   3.3909190e-04   4.7666184e-05   6.9581809e-05  -4.9159014e-05  -2.8359494e-04   5.8734595e-06  -6.8562990e-06  -8.9040979e-05  -1.7720857e-04   6.3159139e-05  -1.5381959e-04  -1.8438955e-06  -4.8634673e-05  -1.0111187e-04  -2.4296339e-04   1.7942558e-04   5.1641116e-05   5.4911338e-04  -1.1024617e-04
  -3.5750698e-05  -4.2985430e-05  -3.9352262e-06  -4.1846532e-05  -1.7420201e-05  -2.2010625e-05  -2.5738487e-05  -1.0984478e-07   8.9542074e-05  -5.6278808e-05  -1.5804575e-08  -6.3425869e-05  -2.5211313e-05  -6.9108981e-05  -1.2262669e-04   9.0946633e-06  -9.2856581e-06   6.8151632e-05  -1.3403291e-03  -1.8385850e-05  -3.1785981e-05  -2.1582497e-05  -1.1738454e-04  -1.8949354e-04  -1.0504985e-04  -1.9647865e-04   1.0049504e-04   2.3719192e-06   7.2272160e-05  -1.8074224e-05   4.6766007e-05   2.1476491e-04  -5.4764235e-04  -5.7097990e-05  -1.3319127e-05   1.2350520e-04   8.0358201e-05  -2.6628348e-07   1.4957984e-05  -2.7348270e-04  -1.4699719e-04   6.7583755e-07  -4.5565293e-06   5.5510693e-05  -3.6354773e-04  -2.3550808e-04   3.5488987e-04  -3.6906469e-05  -6.0588791e-04  -4.1512783e-05
   6.1863625e-06  -3.3034088e-05  -1.1005962e-05  -1.3829259e-05  -4.7013971e-05  -6.4972992e-05   4.4452107e-05   3.9432787e-05   3.1218139e-04  -5.6320343e-05  -8.1849366e-06  -3.2853462e-05  -2.5308809e-05  -3.0162033e-05  -1.2499704e-04   2.0116115e-05  -1.5019073e-05   4.1104875e-05  -3.0145538e-04  -1.6428210e-05  -2.9885130e-05   9.0006870e-06  -7.1299932e-05   1.2050092e-04  -1.2055144e-04  -1.5232102e-04   6.6600449e-05   6.8631057e-06   5.8873960e-05  -4.3265340e-05  -3.6466456e-04   1.6130424e-04  -1.2692795e-04  -1.3650420e-05  -5.1815085e-05  -1.7025977e-05  -9.4762043e-05   4.5171814e-06  -2.1627438e-05   1.9025391e-04  -9.3826297e-05  -1.5233093e-04  -2.3950826e-05   1.8441890e-04  -5.0567667e-04  -2.4249993e-04   1.3339492e-04   4.8681446e-05  -9.0157316e-04   3.1051529e-04
  -3.6364789e-05  -4.8513219e-05  -1.7471837e-05  -3.5517682e-05   6.4168114e-07  -3.8390070e-05  -4.0735365e-05   1.9743693e-05  -7.3841505e-04  -6.6107023e-05  -1.8292829e-05  -5.9129045e-05  -1.7216826e-05  -6.2338506e-05  -5.4120428e-05   1.6918058e-05   8.5698986e-07  -1.2992116e-04  -4.3419268e-04  -5.0601495e-05  -3.1325158e-05   9.7572024e-07   2.2126196e-05   2.0693815e-05   4.7716650e-05  -1.2250883e-04   3.5157911e-05  -4.0504492e-05   9.4977695e-06   1.7431301e-05  -4.8790066e-04   1.4710962e-04   3.1230040e-04   6.0419959e-05  -3.4537894e-05  -6.3616819e-05   1.5500495e-04  -2.4793664e-05  -1.0934789e-04  -1.3757202e-04  -1.3264059e-04   3.6173475e-05  -3.7371583e-06  -7.5414770e-05  -7.9199686e-05  -2.1370664e-05  -7.5814438e-05  -2.6689834e-06   3.0811928e-04   1.9081464e-04
  -3.0652860e-05  -3.7200440e-05  -2.0973954e-05  -3.0552717e-05   3.8452572e-06   1.2457526e-05  -8.6135318e-05  -2.4188505e-05  -3.6631525e-04  -4.6927929e-05  -6.9511757e-06  -4.7246940e-05  -5.0943119e-05  -5.2087584e-05  -6.6052031e-05   1.3681627e-05  -1.2920562e-05   4.0198377e-04   1.1348756e-03  -3.7956364e-05  -2.5566311e-05   2.1885542e-06   5.3134787e-05  -8.7133340e-05  -2.2159508e-04   8.7212728e-05  -6.6152985e-05  -4.6143567e-05   2.7062148e-05  -3.0580268e-05   1.0198104e-04   1.0921985e-04   2.2143855e-04   1.6259019e-04  -6.4832857e-05   4.9130849e-05  -4.9095939e-05   8.7624658e-06  -9.9596225e-05   2.5051332e-04   2.8894281e-05  -2.1669907e-04  -2.0611549e-05   6.6102613e-05  -4.0030118e-05   9.0053520e-04   1.4544258e-04  -4.3463566e-05   4.5136909e-04   5.0283514e-05
  -2.2658514e-05  -3.2434917e-05  -2.8614152e-06  -1.3517050e-05  -1.8478162e-06  -4.0742485e-05  -4.0879499e-05   3.4041263e-05   3.5987893e-04  -6.0301387e-05  -3.5103465e-06  -5.1524501e-05  -2.5526699e-05  -5.1713341e-05  -3.7293310e-05   9.4647057e-06  -1.1494621e-05   3.9781872e-04  -4.4173017e-04  -3.6805792e-05  -4.1688727e-05   1.4245153e-05   4.0893356e-06  -4.5616947e-05  -1.0564648e-04  -1.3084260e-04   1.7139342e-04  -3.8483915e-05  -1.3253227e-05   6.8787404e-06   1.7153902e-04   1.9858900e-04  -4.1097708e-04   1.4138639e-04  -8.1482631e-06  -5.4570171e-04   1.3576995e-04  -1.7359973e-06   2.5687716e-05   1.1263875e-04   1.4861458e-04   3.3813866e-04  -1.3872979e-05  -1.2654725e-04  -1.2445588e-04  -1.4440178e-04  -1.6579249e-04  -5.4912445e-05  -2.3513538e-04   4.2911062e-05
  -4.4558910e-05  -5.4157106e-05  -1.6782195e-05  -6.8789304e-05  -3.3583876e-06  -4.0977502e-05  -6.3288331e-05   1.5392894e-05   8.4515737e-04  -7.1251081e-05  -1.5446822e-05  -5.9223948e-05  -4.8530677e-05  -4.4199751e-05  -2.7538446e-04   2.5555479e-05   1.7885582e-06  -1.2806053e-05   4.9201719e-04  -6.6276989e-05  -4.6494570e-05  -4.8732854e-05  -2.6351918e-04  -1.3197096e-04  -3.0458471e-04  -1.0211726e-04  -1.4580130e-04  -6.9601333e-06   9.1629408e-05  -3.9207429e-05  -5.4877113e-05   1.3180324e-04  -1.1586489e-04   9.9048928e-05  -3.7520349e-05   1.9772171e-05   2.5855264e-04   7.0683650e-06  -4.1559861e-06  -2.3035405e-04  -1.7626495e-04  -8.3351129e-05   8.2728156e-06  -2.7045090e-04  -1.2846435e-04  -4.2756731e-04  -2.8318516e-04  -4.5582219e-05  -2.9813513e-04  -5.8331616e-06
   1.6105960e-05  -2.6490743e-05  -8.4076582e-06  -1.4331185e-05   9.2916134e-06  -2.0304064e-05  -7.7790166e-05  -1.2597753e-05  -3.7708211e-05  -4.6653306e-05   4.9232985e-06  -6.5758533e-05  -5.5269538e-05  -3.9961928e-05  -1.6786266e-04   2.4863328e-05   5.6009849e-06  -4.3976589e-04   8.8298766e-05  -4.4245571e-05  -3.2698721e-05  -3.4644449e-06  -1.0195746e-04  -1.2276413e-04   1.0354265e-04  -3.4015040e-05   2.6268282e-05  -2.2028342e-05  -6.2484709e-05  -1.5792193e-05  -7.5149263e-05   3.2023247e-04   4.2527233e-04   8.1514736e-05  -4.1599818e-05   1.9363502e-04  -2.9624919e-06   2.2220045e-05  -3.1216707e-05   8.3105588e-05   3.0052633e-04  -3.1611905e-04  -1.6451015e-05   2.1230265e-04   8.0417805e-05  -1.4079153e-05  -1.9066247e-04   3.8305905e-05  -1.3962723e-03   8.4745800e-05
  -4.5336812e-05  -5.1883595e-05  -3.4856497e-05  -4.6815865e-05  -2.5671758e-05  -6.3266358e-05  -2.9963569e-05   3.0167861e-05   3.8539784e-04  -6.7525987e-05  -1.6789574e-05  -5.4220167e-05  -3.2659194e-05  -5.0272458e-05  -2.0918545e-05   1.3242452e-05  -3.7273696e-06   2.0987714e-04  -1.4291479e-03  -4.4704699e-05  -4.1704749e-05  -4.4054192e-05  -5.7006687e-06  -3.9229551e-05   6.3736130e-05  -6.5977380e-05   3.2429034e-05  -9.5058977e-06  -3.6474572e-05  -3.6839014e-05   2.2493894e-04   1.9329044e-04   4.5391251e-04  -1.3676517e-04  -2.5438280e-06  -2.8507595e-04  -6.6194159e-05  -3.4670070e-06  -4.0638126e-05  -3.4260060e-04   9.7827025e-05   9.2878363e-05  -2.5739891e-05   4.8699844e-04   1.3192758e-04  -7.2711630e-04  -5.2305772e-05  -1.4472450e-05  -4.2590813e-04   4.2941599e-04
  -3.3689808e-05  -5.8365760e-05  -1.7831695e-05  -5.8932197e-05  -2.1362906e-05   2.0593046e-05  -3.8215519e-05  -1.1125426e-04  -6.2109838e-04  -5.7046123e-05  -2.4191590e-05  -5.7222478e-05  -4.1654010e-05  -3.9454546e-05  -8.1464976e-05   1.8354403e-05   5.3222643e-06  -2.0564337e-04   1.7858792e-05  -3.5936984e-05  -3.9472376e-05   1.5100800e-06  -4.6919344e-05  -1.2337194e-04  -7.9357793e-05   1.4213668e-04  -2.8874119e-05  -3.8932532e-05   5.3133510e-05  -3.7327889e-05   2.3516591e-04   1.3850168e-04   4.0552055e-04   1.6446787e-04   8.7199930e-07   6.4388936e-05   1.7777577e-04   1.0282847e-05   2.9204228e-05   1.6668990e-04   3.2136432e-04   2.0575697e-04  -1.3057161e-05  -6.6755529e-05  -2.5631153e-04  -7.4252905e-04  -5.2185752e-04  -8.7350410e-05  -9.1328337e-05   1.0262570e-04
  -1.1272746e-06  -3.4317527e-05  -1.8873508e-05  -1.8579369e-05  -2.3396162e-05   2.4698938e-06  -5.0762417e-05   4.3081989e-05   6.7461486e-04  -5.8650414e-05   3.7722007e-06  -7.7556222e-05  -2.1566842e-05  -2.7718355e-05  -6.2473919e-05   3.4122455e-05   8.0766276e-06   4.3143716e-04  -7.8647182e-04  -5.8847956e-05  -3.9370771e-05   1.8729885e-05  -6.3124753e-05  -9.4248589e-06   4.2775013e-05   6.5497501e-05  -1.1698220e-04   1.6425984e-05  -6.9705944e-05  -2.8929115e-05   3.8331633e-05   1.2394936e-04   4.0017287e-04  -7.5053763e-06  -3.5540150e-05   1.7455750e-04   1.5418651e-05   3.9529241e-06  -5.7886842e-05   1.7584347e-05  -6.5926812e-05   6.8237605e-05  -1.2065721e-05  -3.7391037e-05   4.5310045e-04  -4.1368927e-04  -3.3933914e-04   3.4779110e-05  -1.2572020e-03  -1.7116635e-04
  -4.1050076e-05  -5.2651194e-05  -3.2302876e-05  -4.9310092e-05   6.7646156e-06  -3.3422359e-05  -6.7168934e-05   2.9036657e-05  -5.9731986e-04  -7.4883312e-05  -1.6230637e-05  -2.1692171e-05  -2.9023200e-05  -5.3050950e-05   2.8310695e-05   3.7183820e-06   1.2930074e-05   2.6911090e-04   4.8919313e-04  -4.1162803e-05  -5.3247855e-05  -4.3691507e-05  -1.6855409e-04  -9.7961878e-05  -3.8387119e-05   7.4383635e-05  -1.2312786e-04  -9.3602219e-05   1.3766731e-05  -3.3892666e-05  -3.8494647e-04   1.6453765e-05  -2.7755470e-04   5.6799487e-05  -4.1164309e-05   3.9213026e-04  -1.2558019e-04   1.2831901e-05  -3.1838303e-05  -1.2193796e-04  -5.3994616e-05  -1.0926054e-04   1.6467941e-06  -1.7714471e-04  -2.5755903e-04   3.6524501e-04  -1.9915492e-04  -2.3066503e-05  -4.0067252e-04   1.2525725e-05
   4.1379012e-06  -3.1103584e-05   9.4393945e-06  -3.0585878e-05   3.7633522e-06  -4.2203592e-05   3.5610465e-05   6.5404583e-06   5.5838563e-04  -5.8079713e-05   3.6872702e-06  -3.9194925e-05  -2.6443797e-05  -5.5196360e-05   3.0528443e-07   2.0101650e-05  -5.8738437e-06   2.1447384e-04  -2.1521237e-05  -5.2594733e-05  -3.6416517e-05  -1.6395723e-05  -3.6706409e-05  -8.2772676e-05  -6.2525978e-05   9.6340009e-06   7.0325572e-05  -3.7029648e-05   8.5096844e-06  -4.6238030e-05   3.7294228e-04   4.8844926e-05   1.6146165e-04  -2.2497947e-05  -3.3481323e-05  -5.4740289e-04   4.2303342e-05   9.1307011e-06  -1.9600760e-05  -9.7123084e-05  -7.1167182e-05   2.0460426e-04  -3.1266296e-05   1.2259744e-04  -6.3495623e-05  -1.0457232e-03  -1.8866094e-04   2.8132887e-05  -6.7766814e-04   1.3138045e-04
  -3.8289039e-05  -4.9440139e-05  -4.4417091e-05  -2.8710523e-05  -1.7334363e-06   5.0822919e-06  -6.0346712e-05   1.9120991e-05   7.6413540e-05  -6.7130946e-05  -9.4959696e-06  -4.0432082e-05  -4.8707585e-05  -4.7709382e-05   4.8222075e-05   1.0115826e-05   4.6919322e-06  -1.6968194e-04   3.0536600e-04  -6.4380161e-05  -4.5052257e-05  -3.5670357e-05  -7.6307777e-05   7.4068150e-05   1.2329970e-04  -2.5026100e-05  -4.3526466e-05  -9.6014774e-06   2.1033522e-05  -1.9706338e-05  -2.8941937e-04   2.4022398e-04   3.1345189e-04  -6.9001930e-05   3.5818794e-05  -1.1995160e-04   8.0682737e-05  -8.5371958e-06  -1.4231555e-04   5.0097548e-05   7.9129022e-05  -1.4154016e-04  -1.4511306e-05  -6.6635424e-05   1.7460475e-04  -5.8280380e-04  -1.6822020e-04  -1.7638271e-05  -1.7936474e-04  -6.6503249e-05
  -1.5723646e-05  -5.6916579e-05  -1.0665266e-06  -5.8850390e-05  -1.7231567e-05  -4.5457953e-05  -4.1910203e-05  -3.0219453e-05  -4.1996220e-05  -7.8436955e-05  -2.9177745e-05  -5.1363448e-05  -2.8338472e-05  -3.1023126e-05  -2.1849959e-05   2.3365497e-05  -1.9039779e-05   3.0306523e-04  -1.0618703e-03  -5.3065265e-05  -4.3966527e-05  -2.7646367e-06  -4.3200900e-05   2.7019898e-05   2.9335326e-05   1.2085604e-04  -1.8445181e-04  -4.8523420e-05   1.1314906e-04  -2.0311623e-05  -6.7510031e-04  -2.6600830e-05   2.8612712e-04   1.3271646e-05  -4.0992905e-05   4.4130703e-04  -6.4653817e-05   4.9032417e-07  -1.0637600e-04   1.4468362e-04  -3.3737697e-06   5.4417640e-05   7.7470977e-06  -2.0463319e-04   4.1000171e-06  -5.1569985e-04  -1.0418369e-05   7.0369781e-05  -1.3327175e-03   2.9826141e-04
  -4.2240143e-05  -4.8194186e-05  -2.0673957e-05  -3.4129913e-05  -8.7116377e-06  -3.8072580e-05  -8.4208332e-06   5.2435967e-06  -5.5245537e-04  -6.0042719e-05   1.9367817e-05  -3.6911693e-05  -1.6083624e-05  -1.6716182e-05  -8.0565536e-05   2.4490375e-05  -7.0565643e-06   2.2102492e-04  -2.5309558e-04  -4.5471981e-05  -4.4999131e-05  -2.8775836e-05   9.4240560e-05   5.2760675e-05  -1.9235995e-04   1.1136264e-04   1.3606239e-04  -7.4366733e-05   6.6654080e-05  -4.1576401e-05   1.2016230e-04   9.6960837e-05   1.6507413e-04  -2.3418130e-05  -3.5690653e-05  -3.9789238e-04   7.3180832e-05  -7.2784763e-07  -7.5402022e-05  -8.6636413e-05  -2.1570761e-04  -2.0209885e-04  -1.2317194e-05   5.9716313e-05   4.6465539e-05  -1.2684439e-04   9.9451376e-05  -4.0158188e-06   1.7233334e-03   2.9687892e-04
  -1.5502597e-05  -6.2358769e-05  -1.2720931e-05  -5.1111918e-05  -1.8417879e-05  -2.0188960e-05  -5.1849158e-05   1.4146241e-05  -9.7203229e-05  -6.7494664e-05  -8.1840553e-06  -4.5787412e-05  -2.5023155e-05  -2.8015433e-05  -1.0654200e-04   2.2767756e-05  -3.1773918e-06   5.8948946e-05   4.2118618e-06  -6.3793595e-05  -5.8646128e-05   1.7005168e-05  -9.6271360e-05  -6.1230830e-06  -1.8335477e-05  -1.1015125e-04  -2.0824617e-05  -6.1135164e-05   4.6624351e-05  -4.7868148e-06   5.7289947e-04   1.1037744e-04  -2.7644736e-04  -1.8127634e-04   5.8729561e-06   3.1591384e-04  -8.0065387e-05  -1.3147593e-05   1.3201839e-05   4.2557549e-05  -6.2169842e-05   9.6096745e-05  -4.2697789e-05  -7.2810035e-05  -1.5038419e-04  -2.5315203e-05  -1.8851752e-04  -2.1636024e-06  -5.9556618e-04  -1.3799762e-04
  -1.9478139e-06  -3.3804739e-05  -2.0500618e-05  -2.7757687e-05  -1.7389502e-05   1.0354284e-05  -2.1722128e-05  -5.6360008e-05  -4.8479749e-04  -5.7238598e-05  -5.0705821e-06  -1.8875164e-05  -2.3027633e-05  -5.2601030e-05  -1.3175837e-04   3.0619889e-05   2.2939083e-05   3.5734737e-04  -4.8841728e-04  -4.7112218e-05  -3.8646165e-05  -2.6803093e-06  -4.1058873e-05   9.3113726e-05  -1.0667149e-04   1.1386923e-04  -6.3825290e-05  -5.8225447e-05   1.0466320e-04  -6.3248568e-05   1.5515070e-04   2.1780441e-04   3.4145196e-04   1.0098437e-04   3.1204014e-05   3.3591251e-04  -7.3074705e-05  -5.0648096e-06  -4.4010052e-05  -3.1692060e-05  -2.0518975e-04   7.6584780e-05  -3.5510111e-05  -1.4975887e-04   9.8897372e-06  -4.5826816e-04  -2.2027465e-04   1.7877550e-05   2.9756894e-04  -2.1563804e-04
  -3.8271370e-05  -4.9138449e-05  -1.9988167e-05  -3.5175872e-05  -1.3864485e-05  -2.2034012e-05  -4.0728552e-05   2.9950323e-05  -9.5859886e-04  -6.3923319e-05  -4.6328778e-06  -4.4713517e-05  -4.5176766e-05  -2.5375957e-05  -7.5669341e-05   5.8365272e-06  -2.6307855e-05   4.7013359e-04   2.4101819e-04  -4.9235445e-05  -4.2817817e-05   8.6220516e-06  -1.6942391e-05  -1.2538779e-04  -9.1761271e-05  -4.6108675e-05   4.3382643e-06  -3.7012531e-05  -6.6648776e-05  -3.3200289e-05  -1.8125867e-04   1.7428135e-04   2.7586319e-04   1.1288088e-04  -2.1954011e-05   1.3472885e-04   5.0701119e-06  -3.0469389e-06  -4.7169317e-05   3.2568994e-04   9.7312695e-05  -3.2177448e-04   1.2464810e-06  -2.1846429e-04  -4.4500103e-04  -6.6311524e-04  -2.7365590e-04   1.8327226e-05  -1.0979420e-03  -4.1635860e-05
  -3.4512872e-05  -6.9489666e-05  -1.7132368e-05  -7.1670824e-05   6.0490779e-06  -6.7882080e-05  -6.8410263e-05  -9.1364542e-05  -9.5000607e-04  -5.9998758e-05  -1.6142027e-05  -4.2033018e-05  -4.2498323e-05  -4.8003562e-06  -6.3734289e-05  -1.5154183e-05  -1.3426260e-05  -3.6292570e-04  -2.0885693e-05  -3.2153312e-05  -3.7798272e-05  -4.3836467e-06  -4.5821084e-06   5.4892695e-05  -6.3660300e-05  -8.5201995e-05   3.1441234e-06  -5.9992555e-05   5.0726667e-05  -4.0473496e-05  -2.4692883e-05  -3.6884801e-05  -1.8263992e-04   9.4629329e-05  -1.9676017e-05  -2.8141125e-04   1.0527948e-04   6.1686960e-06  -4.0313833e-05  -1.6282890e-04   3.2215382e-04  -2.1555848e-04   4.2374309e-06  -3.2027176e-05  -2.7710345e-04   5.9160363e-04  -1.9735082e-04   3.6249279e-05  -2.7586648e-04  -1.6211967e-04
  -3.0846528e-05  -4.5098324e-05  -6.0840571e-06  -2.3214010e-05  -5.2206447e-06  -2.7589202e-05  -2.1900340e-05  -9.3551726e-06   4.0632181e-04  -5.1168285e-05   2.6297511e-09  -2.1070957e-05  -2.0561500e-05   2.3742216e-06   1.7347715e-05  -2.6443729e-06   1.5282436e-05  -2.9034499e-04  -5.2498741e-04  -3.4443143e-05  -3.8024078e-05   6.8229415e-06  -1.6434149e-04   3.9624949e-05   8.7065428e-06  -1.0478964e-04  -7.9976613e-05  -6.0666345e-05   1.0353166e-04   1.5931830e-05   1.2970476e-04   3.5005934e-05  -1.2460389e-04  -3.6532678e-05  -2.5729343e-05   3.9118069e-04   4.1470430e-05  -3.8453454e-06  -3.0097777e-05  -1.1038734e-04  -3.4517670e-05  -2.4170907e-04  -1.1727682e-05  -1.5755366e-04  -2.1130526e-04   6.5613049e-04   1.3183874e-04   7.8503190e-06   6.2180805e-04   1.2187842e-05
  -2.1597330e-05  -5.7169811e-05  -2.2241769e-05  -5.8392452e-05  -3.1541411e-05   6.6328575e-06  -5.3614171e-05  -6.1769322e-05  -4.7661411e-04  -7.4732750e-05  -3.6862928e-06  -4.8381451e-05  -3.9146466e-06  -2.8187969e-05   3.7216760e-05  -1.9123903e-05   9.4067918e-06  -2.1815058e-04   2.5831863e-05  -4.4896708e-05  -5.7475136e-05  -1.0509740e-05   8.2635561e-05   6.1511077e-05   3.3403037e-05   2.8422207e-04  -1.8576298e-04   4.4711192e-05  -1.2290627e-05  -6.8838922e-06   1.7247940e-04   3.9621806e-04  -6.9288551e-05   6.2353654e-05   9.6672438e-06  -2.8779081e-04  -5.9386904e-05  -1.4296572e-05  -3.5508820e-05   3.7199928e-04  -1.0420712e-04   2.8078130e-04   8.7702438e-06  -2.4576648e-04   2.8897967e-04   3.1777503e-04  -1.5163425e-04  -1.3459742e-05  -1.2916428e-03  -2.6772561e-04
  -5.0425742e-06  -3.9584727e-05   1.6139946e-06  -2.5070191e-05  -1.5737858e-05  -4.5452442e-05  -6.3517822e-05  -9.8176006e-06  -2.5973510e-04  -5.1251060e-05   1.0422428e-05  -4.6051227e-05  -8.5525071e-06  -2.0482059e-05   4.4245520e-05  -1.2657881e-06  -2.0019872e-05  -9.5503674e-06  -1.6404927e-04  -3.3764598e-05  -4.2403935e-05  -1.8349541e-06  -8.9048517e-05  -1.5383548e-05  -1.5451234e-04   4.8317647e-06  -1.5766121e-04  -1.1220844e-04   1.3498867e-04   3.6992418e-07  -1.6442168e-04  -1.6019367e-05   9.7149590e-05  -4.7078487e-05  -4.2460448e-05   4.5270153e-04   4.4397722e-05  -1.3709783e-05  -3.5807232e-05  -2.9306024e-05   5.2908810e-05  -4.4892753e-05  -4.1169487e-06  -2.2894767e-04  -3.6395217e-05  -6.1629748e-04  -5.8054520e-05  -2.4417011e-05  -9.3389140e-04  -1.0067357e-04
  -3.2364289e-05  -5.2416191e-05  -1.9553354e-05  -4.9549802e-05  -4.4700464e-06  -1.3469609e-06  -6.4476779e-05   1.7796763e-05  -5.3833425e-04  -6.2023311e-05  -2.3409848e-05  -1.2260055e-05  -7.0394094e-06  -1.2896402e-05  -3.0227361e-06   7.5353205e-06   1.6665092e-05   9.2684073e-05  -5.5410061e-04  -3.5574725e-05  -5.8806389e-05   4.9453279e-06  -1.4212448e-04  -4.8611673e-05  -3.1216467e-05  -2.7880742e-04  -2.8027778e-06  -4.8360784e-05  -7.5149896e-05   8.4307811e-07  -3.7497483e-04   2.5698572e-04  -2.2882907e-04   1.2874845e-04   2.9961826e-05  -9.9686942e-05  -1.2727495e-05  -2.3020933e-05   1.2166399e-05   4.5727810e-04   1.3097863e-04  -2.4019166e-04   9.0348385e-06   2.1939295e-04  -3.4790495e-04   9.5210626e-04   1.6701924e-04  -1.1305338e-04   2.8779995e-04   1.0257500e-04
  -2.3411487e-05  -4.3420267e-05   1.8429529e-06  -3.4691770e-05   1.2087956e-05   1.9015653e-05  -7.0927425e-05   2.2249646e-05   4.5852314e-04  -4.7347166e-05  -2.8739456e-05   1.3923111e-05  -1.6472952e-05  -1.5556372e-05  -1.5448843e-05   1.2898360e-05   7.0947872e-06   2.1244897e-04  -8.5121457e-05  -3.4806137e-05  -4.4293934e-05  -2.1364174e-05  -1.6994184e-04  -3.8462651e-05  -1.8628102e-04   1.5465132e-05  -8.2035156e-05  -8.6069422e-06  -6.9439404e-05   1.8100871e-05  -3.5063858e-05   1.6029189e-04   8.9107298e-06  -4.9533151e-05   1.1155602e-05   3.4021377e-05   2.4282963e-05  -1.6904287e-05  -7.0805995e-06   8.9003595e-05   2.7348267e-04  -1.4181179e-04  -5.5290157e-06   1.6680978e-04   1.6797433e-04  -3.0991167e-04  -3.0284369e-04  -3.1642301e-06   8.9143112e-04  -1.5464869e-04
   8.3157984e-06  -4.5810179e-05  -9.4597353e-06  -2.7735856e-05  -1.3139599e-05  -9.5060677e-06   5.3995795e-06   2.8357616e-05   3.7669795e-04  -5.6075027e-05  -2.2423070e-05  -2.7809332e-05  -4.3824173e-05  -6.9828934e-06   9.8423579e-06   2.6640320e-05   2.0734937e-05  -4.7882891e-04  -5.6203303e-04  -4.4344091e-05  -6.1650688e-05  -5.3206117e-05  -1.3469679e-04  -3.0148385e-05   4.6609464e-05   1.6184100e-04   9.4625975e-05   3.1114621e-06   6.0039118e-05  -6.3803150e-06   1.5317950e-04   2.0931935e-04   1.9810107e-04  -4.8525926e-05   7.8176081e-06  -2.2225647e-04   7.3989737e-05  -2.9723955e-05   3.5626275e-05   3.1058655e-05   5.5701908e-06   1.1615211e-04  -7.1329496e-06   1.5521738e-04   3.8008078e-04   5.0350203e-04  -7.9138241e-05   1.5543794e-05   5.0342432e-04   3.9268893e-04
  -3.0789422e-05  -6.6057059e-05  -2.1510199e-05  -5.5536620e-05   6.4318647e-07  -3.7160899e-05  -8.3789644e-05   1.1300616e-05   2.9588386e-04  -4.5116489e-05  -8.7921062e-06  -2.3321576e-05  -4.3887703e-05  -1.3812014e-05  -5.6502253e-05   2.5114930e-05  -7.6438755e-06   4.1041036e-05  -1.3154343e-03  -3.9853621e-05  -5.0466719e-05  -1.4355875e-05  -5.3887681e-05  -1.4379366e-04  -1.4436670e-04   1.3005908e-04  -1.5054307e-04  -3.2387750e-05  -4.0348561e-05  -3.6834008e-05   8.3528430e-05   3.7502698e-05   3.8137677e-04   1.1472928e-04   4.8950405e-06   1.4058614e-04  -6.6359840e-05  -1.6454556e-05  -5.9573897e-05   2.2173372e-04   1.0082165e-05  -2.6333032e-04   2.1363783e-05  -1.0128876e-05   9.8717697e-05   2.3830206e-04  -2.7121868e-04   3.4477471e-05   5.3306844e-04  -2.0775119e-04
  -3.3823882e-05  -5.2286159e-05  -1.0973357e-05  -4.6207042e-05   1.6572594e-05  -4.3575896e-05  -3.9724669e-05   1.5883867e-05   1.0136840e-03  -5.7135523e-05  -2.3885586e-05  -9.5681271e-06  -4.8239141e-05  -2.7723054e-06   5.3511023e-05   2.6308586e-05   1.2332091e-05   1.5164737e-04  -4.0846757e-04  -3.6849626e-05  -6.3146508e-05   3.8371429e-05  -3.0885934e-05   6.6618572e-06  -5.4557255e-05   1.0904825e-04  -1.5811302e-05  -4.0102991e-06   6.1726962e-05  -1.0111695e-05  -1.7048433e-04   1.4682300e-04  -9.2532457e-05  -1.7218602e-04  -4.3480077e-07  -4.2459337e-04  -5.8035810e-05  -1.2458184e-05   4.1535091e-05   5.5006101e-05   6.1386061e-05  -1.7714843e-05   2.0130239e-05   4.9861650e-05  -1.8415283e-04  -5.7961610e-05   3.0843777e-04   1.4045239e-04   8.2555617e-04  -5.0845585e-04
  -9.7570291e-06  -6.8892878e-05  -8.8209636e-06  -6.2734092e-05   7.4905111e-06  -5.3429787e-05  -7.3640193e-05   9.1482965e-05   2.9086755e-04  -6.4686035e-05  -3.1038035e-05  -4.4151198e-05  -2.2344822e-05  -1.7562166e-05  -4.0944610e-06   4.7169215e-05  -9.8984256e-06   4.6988032e-05   7.8823790e-04  -5.8044396e-05  -7.2433992e-05  -5.5040058e-05  -1.0301022e-04   9.0122310e-05   1.2692868e-06   1.1005597e-05  -6.3981606e-05  -4.7499430e-05  -7.5280499e-05  -1.9889938e-05  -1.7697527e-04   8.1888466e-05   3.1543685e-05  -1.2852372e-04   3.1283605e-05   2.3762566e-04   7.4029963e-06  -8.3029718e-06   7.8411513e-06  -1.9199385e-04  -7.2592702e-05  -1.5616440e-04   3.3180928e-05  -3.4952893e-05   1.2080176e-04  -3.6819419e-04  -1.6574863e-04   2.8083041e-05   7.1239315e-06   1.2820504e-04
   1.6437008e-06  -4.6715260e-05  -1.2242501e-05  -4.7193920e-05  -1.5859430e-05  -3.0834931e-06   2.9218503e-05   1.0323002e-05   8.3957164e-04  -5.5159890e-05  -2.5689360e-05  -2.6348260e-05  -3.6016205e-05   6.1196938e-06   3.6870231e-05   2.3323475e-05  -2.0847533e-06  -2.1809557e-05   2.1850849e-03  -8.0853380e-05  -6.3814485e-05  -5.3960921e-05  -9.5691852e-05   5.4210421e-05  -2.0932866e-04   1.2349754e-04   2.3246976e-05  -2.8771829e-05  -8.9580644e-05  -1.0103617e-05   2.2733267e-04   1.3658578e-04   3.7081967e-04   1.6368476e-05  -3.9178060e-05   1.8039020e-04  -1.8575527e-04  -7.8297071e-06  -4.4052969e-05  -2.6139626e-04   1.9769731e-04  -8.6177788e-05   3.6754286e-06   7.7497847e-05  -2.4035215e-04   3.1836887e-04   4.6869227e-05   1.4138776e-05   8.8100659e-04  -1.1509381e-04
  -3.5291043e-05  -5.9946993e-05   1.4259418e-05  -3.1977626e-05  -1.6511904e-05   5.5504410e-07  -7.3630566e-05  -4.8461803e-05   2.8598437e-04  -7.1239374e-05  -5.6452950e-06  -2.9003248e-05  -2.2831440e-05   7.4074110e-06  -9.3418912e-06   2.4301249e-05   2.6368418e-05   1.8110459e-05   2.0619119e-04  -6.2165869e-05  -6.8912515e-05  -4.0316980e-05  -3.8980426e-05  -1.3728543e-05  -1.6425007e-04   1.2411345e-05   6.4050939e-05   4.6459036e-06   4.3076929e-05  -5.0491285e-06  -2.3837962e-05   2.9377613e-04   3.6887868e-05  -9.8854243e-06   4.1240060e-06  -2.7225440e-04  -1.1687011e-04  -1.5512336e-05  -2.2706379e-05   7.9741905e-05   6.2290252e-05  -1.9094234e-04   5.7689249e-07  -6.3522064e-05   7.9433354e-05   1.5032894e-04  -7.2366267e-05  -8.4976928e-05   1.4184117e-03  -2.9423126e-04
  -8.2544157e-06  -4.8131562e-05   1.0097968e-05  -3.7944825e-05  -3.2995427e-05  -2.0767608e-05  -3.7445494e-05   2.0859345e-05  -2.1572977e-04  -4.8881098e-05  -2.1683167e-05  -4.2132931e-05  -4.2461241e-05   1.6056094e-05  -4.2018677e-05   4.2043073e-05  -1.6565937e-05   3.0243002e-05  -1.4805496e-03  -5.1391238e-05  -6.3002743e-05  -4.8958940e-05  -3.6399932e-05  -3.6104415e-05   1.0080292e-05   1.5793803e-04  -3.7978573e-06   1.8602967e-05   8.0818187e-05  -3.2850392e-05  -6.1167601e-05  -8.1212187e-05   1.0610658e-04   7.3549381e-05  -2.9902794e-05  -1.4718150e-04  -2.4792467e-05  -5.6470908e-06  -4.2498967e-05   8.2522592e-06   2.8652939e-06   5.4561813e-05   3.2123187e-06  -9.0862566e-05  -3.4409284e-04  -4.1266510e-04   8.6628761e-06   1.1455700e-05  -6.8459398e-04  -7.9803984e-05
  -4.6089350e-05  -5.3630421e-05  -2.0384276e-05  -3.9994058e-05   2.1732412e-05  -4.8893700e-05  -3.8008966e-05   4.0338087e-05  -4.1704209e-04  -6.4282416e-05  -4.5006036e-05  -3.2860411e-05  -4.1080693e-05  -7.3930946e-06  -1.9691979e-05   4.1971205e-05   9.9180406e-06  -1.3491766e-04  -8.8612281e-04  -6.9120986e-05  -6.9881622e-05  -6.0248753e-06  -4.1901840e-05  -1.1135981e-04  -2.2752734e-05   1.0229726e-05  -5.5878256e-05  -3.5594876e-05  -2.3728284e-05  -4.1429754e-05   2.9159745e-04  -9.1427210e-05   5.4829754e-04   1.3437060e-04   2.2969900e-05  -5.5682405e-05  -2.3725134e-04  -6.6759917e-06  -1.6357201e-04  -2.3965261e-04  -1.7703912e-04  -3.4754899e-05   9.1174334e-06   2.5255492e-04   2.1805745e-05  -2.2197915e-04  -2.9880294e-04  -7.3367577e-05  -4.0235394e-04   5.0782890e-04
  -2.7719616e-05  -7.3843636e-05  -2.5013802e-05  -6.7352492e-05  -1.5435661e-06  -1.5212643e-05  -7.1876064e-05   3.6903108e-05   1.6830983e-05  -6.1772487e-05  -2.8270922e-05  -2.4469773e-05  -2.3228453e-05   1.4459314e-06   7.8812191e-05   2.0207866e-05  -1.7737357e-05  -1.7208360e-04  -3.8300126e-04  -5.8353853e-05  -6.3607578e-05  -4.7735954e-05  -2.4686791e-05   1.2238837e-04   1.3803043e-04   3.9013696e-05  -9.5038602e-05  -3.5506921e-05   5.2325620e-05   1.2497972e-05   7.5879454e-04   1.1130502e-04   1.8699882e-04   1.8115623e-04  -3.0623316e-05   7.1062623e-06   5.2197098e-05  -3.7425752e-06   4.7989917e-05   3.0795502e-04   1.4717822e-04   6.5044267e-05  -6.6599587e-06   2.5876323e-04   3.2979689e-04  -8.4841426e-04  -1.2194132e-04   3.1669362e-05  -4.9610995e-04   1.6703301e-04
  -3.6419155e-05  -5.3009349e-05  -3.7624595e-05  -4.7782920e-05  -1.1017444e-05  -5.0094248e-05   3.4998782e-05   2.3413022e-05   1.5434199e-04  -6.4606269e-05  -2.8407734e-05  -5.4706506e-05  -8.3074747e-06   3.3164666e-05   4.2379802e-06   3.5578007e-05   1.0860828e-06  -2.0716275e-04  -6.8360596e-04  -7.1152739e-05  -7.1614275e-05  -1.4783104e-05  -2.4341566e-04   2.5059529e-05  -1.4834672e-04   2.2863540e-04  -7.0462804e-05  -2.2589284e-05   1.0248373e-04  -4.5753237e-05  -1.9299556e-04   2.4751908e-04  -2.1798829e-04  -5.3685486e-05  -4.6903069e-06   5.4965611e-04  -5.5262230e-05  -1.0113548e-05  -1.7202714e-05  -2.3265916e-04   1.5631122e-04  -1.2737936e-04   7.1967679e-06   2.9829915e-05   8.3481493e-05  -3.9028653e-04   1.3721153e-05   1.5601989e-05  -4.6513064e-04   2.8207071e-06
  -2.4688177e-05  -6.7794768e-05  -1.0306129e-05  -4.2284595e-05  -1.1855263e-05  -2.9110837e-05  -6.0570310e-05   4.6999874e-05   6.0631060e-06  -7.9172532e-05  -2.2833012e-05  -6.4390413e-05  -1.1880281e-05  -2.0373365e-05   8.0295351e-05   3.1524080e-05  -5.8149294e-06   1.5021837e-04   4.4354846e-04  -7.7738128e-05  -8.5001891e-05  -1.4304011e-05  -3.4254048e-05   1.1455524e-04   1.0415088e-04  -2.0693366e-05  -3.6122565e-06  -4.2009546e-05   6.7166161e-06  -3.0538329e-05   2.7007546e-04   2.5159674e-04  -2.1163218e-05  -3.4282013e-05   3.6253459e-05   2.1218408e-04   1.1307429e-04  -5.8904043e-06  -8.8765250e-05  -2.1665570e-05  -4.4108616e-05   1.6502605e-04   2.2605631e-05  -3.9823211e-05   3.5244011e-04  -4.4873828e-04   4.3644346e-07  -2.2857495e-05   3.9248716e-04   2.2405117e-04
  -1.1245324e-05  -4.7125694e-05  -2.0157190e-06  -2.5519204e-05   7.8422609e-06  -1.0190982e-05  -2.1040021e-05  -3.5520388e-05  -1.1858794e-04  -7.0972215e-05  -3.4062290e-05  -6.0949551e-05  -3.9198610e-05  -1.4441441e-05   2.4303867e-05   3.2146483e-05  -3.3930035e-06   3.3065968e-04  -1.8182812e-04  -6.3951200e-05  -8.4839492e-05  -2.0870075e-05  -1.8729729e-04  -3.0318753e-05  -2.3784309e-04  -5.7447778e-06   7.8831681e-06  -7.8927660e-05   1.6626722e-05  -3.6713122e-05   2.9884386e-04   2.5920963e-04   2.3064655e-04   3.1190659e-05  -5.1607517e-06  -9.6950636e-05   1.2404245e-04  -3.0224396e-06  -6.9036076e-05   1.7975882e-04   2.1807232e-04   2.5154886e-06  -2.9351108e-05   2.9613593e-04   1.7500332e-05  -2.7466976e-04  -3.8063423e-05   7.5493608e-06   1.3175344e-03  -3.4281076e-04
  -1.5521719e-05  -6.1095867e-05  -1.0047078e-05  -4.3719992e-05   7.5062926e-06  -5.8996770e-06  -3.2629723e-05   3.7904014e-05   7.5087795e-04  -8.2723585e-05  -3.8178536e-05  -3.5394445e-05  -1.8555120e-05   2.8256401e-05  -2.6766937e-05   2.8364873e-05  -1.0116166e-05   2.3047171e-05  -2.8939178e-04  -8.1087790e-05  -9.2951006e-05  -5.5907622e-06  -1.9376155e-05  -2.2592274e-05  -7.4653384e-05   3.2804755e-04  -1.8643061e-04  -2.9477846e-05   2.0539623e-05  -1.6121168e-05  -2.9672598e-04  -9.2558279e-05  -1.7780603e-04  -1.0114956e-05   1.1650379e-05  -3.8015321e-04  -1.5699974e-04  -1.4630551e-05   7.6315679e-05   7.1701113e-05  -1.6076594e-04  -1.0567914e-04  -2.5295296e-06  -1.8122460e-04   2.1430863e-04  -1.4807349e-04  -2.3960529e-05  -8.6639142e-05   3.8192887e-04  -8.1810409e-05
  -2.2774955e-05  -6.5507258e-05  -1.0943467e-05  -6.2118976e-05   4.1012972e-05  -2.3729252e-05  -4.1587202e-05   6.3110529e-06  -6.0673367e-04  -6.4406828e-05  -2.5405538e-05  -3.7827765e-05  -2.9091496e-05   8.1755343e-06  -3.0778487e-05   6.1697443e-05   1.3702370e-05   7.6673263e-05   1.1807912e-04  -6.4068838e-05  -8.0075610e-05  -6.1849532e-05  -4.3795906e-05  -1.3083002e-05   1.0592837e-04  -9.1424088e-05  -9.9171295e-05   6.7158653e-05   1.2714030e-04   1.2283837e-06  -6.6221459e-04   2.4234309e-04  -1.2066665e-04   1.0882357e-04   2.1794782e-05  -3.6847926e-04  -1.5536325e-04  -6.6987727e-06  -1.8609378e-05   1.6991248e-04  -2.2055568e-05   3.1827955e-04   9.5853727e-07   1.1966544e-05  -7.9474630e-05  -8.0889638e-04  -1.6470698e-05  -1.4008251e-05  -1.3782856e-03  -7.9907513e-05
  -1.8052031e-05  -5.0428367e-05  -1.6123617e-05  -4.2000807e-05  -9.1243692e-06  -1.9442601e-05  -3.5273715e-05   1.4500867e-05  -7.0260261e-04  -7.6233111e-05  -2.8345303e-05  -3.4366480e-05  -6.1442734e-05   3.1840882e-05  -1.0651354e-04   4.0515533e-05  -1.1922561e-05   1.9319355e-04  -2.0618328e-04  -6.2040679e-05  -8.1101185e-05  -4.4507051e-06  -2.4448047e-05   3.1988424e-05   2.3203848e-04  -1.3836035e-04   1.1516951e-05   1.2330246e-05  -2.5310661e-05   5.2848509e-07  -6.9324218e-05   1.6432958e-04   5.3997635e-05   6.0091639e-05   1.7084636e-05  -2.0846458e-04  -5.6551180e-05  -1.7725290e-05   3.7899033e-06   1.6518266e-05  -6.5773267e-05  -9.4704315e-05  -7.9915817e-06  -3.1491611e-05  -1.2139360e-04  -6.3662831e-04  -1.0965013e-04   1.0884915e-04   5.2532885e-04  -1.8387585e-04
  -3.4276443e-05  -6.7758796e-05  -1.6013967e-06  -5.2842188e-05  -6.1187243e-06  -5.8854279e-05  -1.0033840e-04   3.4870245e-05  -3.7108964e-04  -8.7698703e-05  -3.6730729e-05  -1.6912729e-05  -4.0116291e-05   1.2739009e-05   9.8640558e-05   3.4411434e-05  -5.3536910e-06   4.9833558e-04   7.9988677e-04  -6.5313368e-05  -9.1580732e-05  -1.5077852e-05   3.8913720e-05  -3.8042454e-05   2.5884106e-05   8.8884612e-05   8.1445171e-05  -1.6738057e-05   1.3185310e-04  -1.6577307e-05  -3.3590823e-04  -7.3696407e-05  -2.7171217e-04  -1.1113068e-04   2.8042389e-06   1.1465511e-04  -1.4279819e-04  -8.4466492e-06  -3.0638774e-05  -2.2281597e-04  -3.6608524e-04  -2.2896033e-04  -1.2029783e-07   2.1149375e-05   6.1437138e-05   6.3000369e-04  -2.2751412e-04  -1.5877841e-06   1.8055491e-03   5.8544247e-04
  -1.4372096e-05  -4.0078285e-05  -2.0245018e-06  -3.7425758e-05  -8.6265463e-06  -1.6874279e-05  -5.0030667e-05   3.4762612e-05  -4.9593073e-04  -7.3907067e-05  -1.2870794e-05  -3.5858364e-05  -2.5902316e-05  -8.7766157e-06  -1.1007036e-04   4.5757435e-05  -6.0962184e-06   2.9249827e-04  -3.0929755e-04  -6.3525156e-05  -7.7508557e-05  -5.5338269e-06   3.6531619e-05   1.2220201e-04  -2.1273315e-04  -1.0576084e-04  -1.0363475e-04  -9.0015834e-05   7.1849026e-05  -5.7180390e-05  -6.6071916e-05   1.0993747e-05  -1.3682050e-04  -2.0828766e-06  -2.8553914e-05   4.7131925e-04  -1.0641015e-04   2.8417864e-07   3.8305796e-05   1.5337687e-04   7.4281401e-05   2.4197586e-06   2.1363421e-05   3.3718508e-05  -9.7204029e-05  -3.5999139e-04  -4.5935401e-05   2.6336174e-05   1.8873654e-04  -1.3471552e-04
  -2.8827208e-05  -5.6890611e-05  -1.0709320e-05  -4.7430160e-05   2.5554698e-05  -2.1582426e-05  -3.1106003e-05  -1.5664729e-05   9.7711512e-04  -8.9793735e-05  -5.3739743e-05  -3.3518500e-05  -1.2981790e-05   1.0097655e-05  -9.7746524e-05   4.9530125e-05  -2.5815792e-05   2.8059880e-05   9.2716020e-04  -9.1271795e-05  -8.0331723e-05  -3.6080433e-05  -7.6190139e-05  -1.9046875e-05   2.4533649e-06  -2.0898052e-04   1.6234759e-06   1.8211440e-05  -5.7105306e-05  -3.3122305e-05  -1.1713467e-04   5.8563000e-05   4.3511961e-04   2.1339485e-05  -1.2437866e-06   8.6317872e-05  -2.5448044e-05   2.3997933e-07  -3.0424348e-05   5.0783678e-06  -2.6361449e-04   1.1023230e-04  -1.4199384e-05  -2.8628029e-04  -4.6891146e-06   1.1777373e-04   4.3625940e-05   2.1992701e-05  -1.0177824e-03   1.1999921e-04
  -3.0915227e-05  -4.7827874e-05  -1.0398996e-06  -3.3592685e-05  -1.7647393e-05  -2.9145242e-05  -1.8932967e-06   2.0704481e-05  -7.5292267e-04  -5.9509177e-05  -3.5747442e-05  -3.3433844e-05  -6.1062470e-05   1.6415264e-05   9.4230221e-05   1.7625407e-05  -7.5184739e-06  -7.9945297e-05   1.8926556e-03  -3.3751705e-05  -6.1982690e-05  -1.8905093e-05  -5.2681131e-05   1.5978358e-05   4.3267210e-05  -9.3271592e-05   1.3109315e-05  -1.9678017e-05  -5.5238001e-05  -3.1459898e-05   1.8157468e-04   1.4200737e-04  -2.9243008e-04   3.3388518e-05   1.0052797e-05  -9.6279418e-04   4.6008867e-05   1.8448969e-06   2.5524740e-05   1.2612379e-05   3.2500408e-05  -6.7988702e-05  -5.9503795e-06  -2.3498073e-04  -4.4391672e-05  -9.4588067e-05  -1.5278532e-04   7.9733931e-05   2.2101216e-04  -2.2050353e-04
  -1.7894992e-05  -3.7265032e-05  -1.3090181e-05  -4.2595053e-05   7.3163105e-06  -8.5379186e-05  -3.3328906e-05   1.2488797e-05   7.5174472e-04  -7.6393168e-05  -3.2939512e-05  -2.1905635e-05  -3.6362981e-05   2.0530302e-05   5.5276476e-05   3.7207381e-05  -8.0989239e-06   1.0087908e-04  -4.3060991e-04  -6.2226412e-05  -7.2117335e-05  -3.4906800e-05  -1.0353637e-04  -6.6549364e-05   2.0571757e-05  -7.4788913e-05  -2.5642466e-05  -5.3873995e-05   1.6418708e-05  -8.3484923e-07  -1.4877833e-06   6.4164087e-05  -2.8078604e-04   5.5396362e-05   2.3376020e-05  -3.0999960e-04  -1.6514694e-05  -1.6608374e-05  -1.0766184e-04  -1.9257182e-04   2.2845002e-04  -7.6305070e-05   1.7316928e-06   1.5634950e-04  -8.0532627e-05  -2.6548016e-04   4.7954181e-05  -3.3906090e-05   4.2805311e-04  -1.8452985e-04
  -5.2718377e-05  -6.5071392e-05  -1.5971249e-05  -7.8263125e-05   3.2145876e-05  -2.5000309e-06  -2.1832497e-05   4.3120450e-05  -2.6375852e-05  -9.1910522e-05  -3.0188876e-05  -3.5639052e-05  -1.8557299e-05   3.3652512e-05   6.6849163e-05  -2.4920860e-06  -1.3582461e-05  -3.1295224e-04  -7.4053061e-04  -7.3450952e-05  -7.6993696e-05  -4.2621854e-05  -4.5696081e-05   2.5174468e-06  -8.1843418e-06   5.4242053e-05  -5.7999467e-05  -2.2305676e-05   4.4120578e-05  -1.4615594e-05   1.9786091e-04   2.0246896e-05   3.5790208e-04   4.9266517e-05   1.2989213e-05  -5.0444569e-04   9.1984475e-05  -1.4777600e-05   6.6090070e-05  -8.3422805e-05   5.9966038e-05  -1.9954596e-04  -3.9386388e-05   2.9136421e-04   2.5831442e-04  -8.2965544e-04   4.5539800e-05  -7.6869997e-05   1.8990242e-03  -4.0979616e-04
  -3.6482135e-07  -4.3292854e-05  -1.8795650e-05  -9.8678420e-06  -7.0444230e-06  -2.4684088e-05   2.2671737e-05   2.7450382e-05  -2.1910149e-04  -6.8197347e-05  -3.6328598e-05  -3.6478930e-05  -3.8455895e-05   2.1053758e-05   6.9382979e-05   2.8302489e-05   1.2236626e-05   1.3160733e-04   8.2361855e-04  -7.3244344e-05  -6.6837863e-05  -1.8025374e-05  -1.7724268e-04  -1.1736238e-04   8.3537852e-05   1.4153501e-04   9.4113129e-05   4.1639662e-05   1.3359590e-05  -5.3149426e-05   2.1366122e-04  -2.8518409e-05   5.7330155e-05  -1.9759094e-04   3.1084070e-05   2.2745215e-04   1.4602659e-04  -5.2112568e-06  -5.0419028e-05  -9.6007730e-05  -1.4126619e-04  -7.1167080e-05  -1.6708251e-05  -3.1439090e-04   4.8289969e-04   1.3431077e-04  -2.7465718e-04  -8.3543824e-07   9.6764439e-04  -5.0440448e-04
  -1.6160251e-05  -5.7854610e-05  -6.5898234e-06  -4.8197260e-05   3.0941959e-05   5.1434158e-06  -3.4655408e-05   3.7073048e-06   3.8352597e-04  -7.3282899e-05  -2.8700439e-05  -6.2422121e-05  -2.1105558e-05   1.6834860e-05   3.9789295e-05   3.9765051e-05  -1.1139783e-05  -1.6518057e-04   1.5056523e-03  -8.3024024e-05  -8.1000544e-05  -7.8225221e-06  -2.0690426e-05  -8.8709523e-05  -2.3942921e-04  -1.9725867e-05  -5.6873723e-05  -3.0237577e-06   6.5461259e-06  -1.1304463e-05   2.4665808e-04   2.4498109e-04   1.2058573e-04  -4.1000716e-05   7.7023769e-06   1.2111733e-04   5.6614674e-05  -1.1711199e-05  -7.5361015e-05   1.7233376e-04   2.4085086e-05   6.3652711e-05  -2.1052723e-05  -3.0444612e-04   5.2375341e-04  -6.3277059e-04  -8.7224635e-06   7.2914641e-05  -1.9986157e-03  -2.6163805e-04
   2.6355094e-05  -4.1098858e-05  -1.6495840e-05  -2.9512054e-05   2.7396634e-05   4.4411449e-06  -4.9903632e-05  -4.8396714e-06  -3.2224823e-05  -5.9396152e-05  -5.1545245e-05  -5.5309993e-05  -4.2299915e-05   1.6547987e-05  -1.0820068e-04   5.0774473e-05  -2.6898395e-05   6.6652792e-05   2.3936953e-04  -6.0628950e-05  -5.4854216e-05  -1.5837264e-05   7.3811891e-05   8.9318462e-05  -1.5419436e-04  -8.1331928e-05   1.1491802e-04   2.4702900e-05   1.2538731e-04  -4.3552362e-05  -4.6136625e-05  -4.1360963e-05  -2.8136373e-04   1.2631401e-04   2.8689794e-05  -5.9772567e-05   5.1414383e-05  -4.2090701e-06   5.3398355e-05  -4.8035730e-05  -4.5028577e-05  -4.2601318e-05   4.7899675e-06  -3.2207376e-05   3.4254754e-04   6.0466747e-04   9.0316229e-05   1.5948945e-05   7.8681059e-04   9.5202755e-05
  -1.8783501e-05  -5.1139763e-05  -3.4303353e-05  -3.1582229e-05   9.6994027e-06  -1.4952638e-05  -1.6447981e-05   1.7123972e-05  -5.8964110e-04  -6.0946677e-05  -2.5374346e-05  -2.9200135e-05  -4.2243257e-05   1.3373145e-05  -1.0272510e-04   2.9065272e-05   2.2454527e-05  -1.1276721e-04   3.2849470e-04  -8.2166633e-05  -7.0323200e-05  -4.4678338e-05  -1.3415854e-05  -1.1500048e-04   1.4644886e-04   4.7215006e-05   9.7776894e-05  -5.4462638e-05   6.0087368e-05  -1.3863720e-05  -2.8417338e-04  -4.9076032e-05  -1.0865017e-04  -1.4178346e-04   1.4513769e-05   2.8809354e-05  -3.4502424e-05  -5.6207687e-06  -2.7856397e-05  -1.0981262e-05  -1.8784482e-04   9.9817235e-06   1.8620263e-05   1.4254941e-04  -1.4278058e-04  -1.2365149e-04   1.4564273e-04  -1.5954225e-05   3.3743380e-04   2.3851135e-04
  -9.9635554e-06  -6.4977074e-05  -2.7220178e-06  -5.5445438e-05   1.3171652e-05  -3.7046819e-05  -3.9249546e-05  -5.3680436e-05  -6.6377077e-04  -6.7344212e-05  -4.9896829e-05  -6.1925595e-05  -3.8383390e-05   4.8023830e-05  -5.8517096e-05   5.9652641e-05  -4.6076002e-06   2.1903742e-04   5.0680107e-04  -6.9864756e-05  -6.0662649e-05   3.8813942e-05   3.3517506e-05  -7.5640215e-05  -7.2239869e-05  -6.2705905e-05   4.1316507e-05   4.8976683e-05   2.4637167e-05  -2.3067385e-05   1.4430660e-05   1.0762383e-04  -8.6630047e-05  -5.2075749e-05  -5.3985950e-06   7.6696619e-05   4.0565268e-05   8.0476657e-06   4.3010190e-05   2.8714273e-04  -4.1207815e-05  -3.0639450e-05   1.8860916e-05  -1.0477373e-04   7.8118930e-05   9.3555595e-05   1.3867373e-04  -1.2650462e-05  -9.4113249e-04   1.9630812e-05
  -2.5491881e-05  -4.8615839e-05  -1.7886297e-05  -4.0270632e-05   9.6490894e-06  -6.1110266e-05  -3.0143392e-06   3.4930996e-05   1.0213410e-04  -6.5048604e-05  -4.0486699e-05  -3.5448895e-05  -1.4367107e-05   3.6365102e-05  -8.4314321e-05   7.0403716e-05   1.0552039e-05   4.3293397e-04   1.0403641e-04  -7.2012670e-05  -5.6442983e-05  -1.7197634e-06  -1.1807666e-04  -2.4444918e-05  -1.1865317e-04   1.8007838e-04   3.9005943e-05  -7.1552777e-06   9.0566915e-05  -1.0648434e-05   4.3779772e-04   4.6147338e-06  -1.3680263e-04  -4.3054846e-05  -1.0678774e-05   1.4111512e-04   3.9271461e-05   3.5250048e-06   1.8793740e-05   3.9145042e-04  -1.3116553e-05  -1.3978784e-04   6.3596754e-06   1.2637857e-04   9.3060582e-05  -3.1254019e-04  -3.9828444e-04   1.1492791e-05  -8.0297521e-04   2.3788859e-06
  -2.1460452e-05  -6.2545456e-05  -2.5561892e-05  -4.4265893e-05   3.8497424e-06  -2.8402972e-05   1.3573821e-05   4.9076032e-05  -2.6197033e-04  -7.5621661e-05  -5.0735249e-05  -1.8287325e-05  -5.8813461e-05   5.0636583e-05   4.5463592e-05   1.0256153e-04  -1.3846575e-05   1.7318377e-04  -2.5669928e-04  -8.0728765e-05  -6.8058020e-05   1.8672592e-05  -3.7820741e-05  -1.2192234e-04  -1.5885100e-05  -4.2201340e-05  -7.4694894e-05  -1.2329925e-05   2.3452698e-05  -1.6581895e-05  -7.7734469e-05   1.2985044e-04   3.6855502e-04  -9.6530646e-05  -2.7725926e-06   1.1066739e-04  -1.0845769e-04  -3.1087814e-06  -1.6192985e-06   4.6551839e-05   4.2332572e-04  -2.9098010e-05  -1.4663413e-05  -1.7743038e-04  -5.0551194e-04  -8.1772967e-05   5.7297293e-05  -8.2232245e-06  -7.2320114e-04   2.2916784e-04
  -3.7652003e-06  -4.6705576e-05  -1.4783663e-05  -2.6946114e-05   3.9611000e-06   2.1613639e-06   1.5894615e-05   3.3425575e-05  -5.3724572e-05  -5.9463840e-05  -6.8233501e-05  -4.5208086e-05  -3.7878570e-05   5.9698988e-05   9.8853561e-05   7.4227297e-05   6.9379503e-06   3.3071078e-04  -3.1518526e-04  -6.3544765e-05  -5.9229158e-05  -4.4060296e-05  -7.1779978e-05  -5.6475392e-06   1.9285019e-04  -3.7622979e-04   1.6818906e-04  -5.3281448e-05   4.5718512e-05  -1.5614682e-05   1.3137970e-04   1.0079062e-04   1.8363178e-04   7.2023300e-05  -1.5193832e-06  -5.4411567e-04   2.5672551e-05   1.2541186e-06  -3.1734508e-05   2.2204612e-04   9.2760944e-05   2.2799803e-05   1.1161080e-05  -1.7718565e-05   2.5714678e-04  -6.9294352e-04  -8.6055727e-05  -1.0505088e-05  -6.2229490e-04   2.4481004e-04
   4.9752693e-06  -5.2986259e-05  -2.6974043e-05  -4.6140594e-05   2.3067136e-05  -1.9582943e-05  -5.8612492e-05   6.3768122e-05  -1.6066416e-03  -7.2834970e-05  -5.3557280e-05  -6.2979772e-05  -4.7408132e-05   6.7804503e-05   1.4108792e-04   9.7131458e-05  -8.5151487e-06   2.8575285e-04  -4.9319689e-04  -8.0161051e-05  -6.6291053e-05  -1.7195245e-05  -2.0898453e-05   7.7537312e-05  -5.1950195e-05  -3.7640639e-05   3.4260447e-05   5.3244167e-07   1.1422678e-04  -3.1649099e-05   3.8973918e-05   1.6433436e-04  -5.2935281e-04   8.8320703e-05   3.1790376e-05  -1.8310433e-04  -2.9359877e-04   2.3728110e-06   5.5430181e-05  -4.8043954e-04   7.3950003e-05  -2.2444527e-05  -1.7187987e-05   1.1751438e-04  -1.1734668e-04  -5.7943212e-04  -3.6082532e-05  -6.0223105e-05   8.4223873e-05   2.5713132e-04
  -4.7838461e-05  -7.0396323e-05  -4.1920088e-05  -6.8172187e-05   3.7617228e-05  -1.8435541e-05  -3.0128036e-05   1.3829622e-05  -3.6825667e-04  -4.8077112e-05  -6.6155488e-05  -7.4412565e-05  -6.2458246e-05   4.4867847e-05   1.2613430e-04   8.8393586e-05  -1.3802821e-05   4.4649438e-05  -7.3714211e-04  -5.7171925e-05  -6.5437562e-05  -1.8737324e-05  -3.1530560e-04  -3.6696234e-05   1.6566763e-04  -3.2832671e-04  -4.7865557e-05   3.0752468e-05   7.0924092e-05  -1.8980360e-05   5.1790148e-06   6.5799882e-06  -3.4315229e-04   1.0862963e-05  -5.0782688e-05  -2.4585426e-04  -3.7702618e-04   1.5086953e-05  -2.6426711e-05  -2.2437955e-04  -1.6052340e-05   1.5944890e-04  -9.4395755e-06  -1.9421864e-04  -1.2100639e-04   1.4705220e-04   1.7618706e-05  -1.8173998e-05  -3.7441825e-04  -5.5182521e-05
  -2.9599611e-05  -5.0630741e-05  -5.9599447e-06  -4.1270683e-05  -2.0935186e-05   1.5749441e-06  -8.5841188e-05   5.7286987e-05  -3.3459958e-04  -4.9537910e-05  -7.2642899e-05  -3.8741775e-05  -2.9335974e-05   5.6651177e-05  -1.3478589e-05   1.2278713e-04  -2.9301718e-05   4.9839978e-04  -1.0372677e-03  -6.9471142e-05  -5.2777210e-05  -1.0778625e-05   1.0283780e-04  -2.8403598e-05   6.2851318e-06  -2.1192511e-04   9.0094058e-05   2.7598646e-05   6.2373598e-05  -4.4432531e-06  -4.3995798e-05  -5.3551094e-06   2.9131613e-04  -1.3551497e-04  -4.5711240e-05  -1.8423799e-04  -1.0132965e-04   1.8157205e-05  -6.6246044e-05  -2.0366369e-04   7.2418457e-05  -2.3574151e-04  -3.3001747e-06   2.0304964e-04  -1.1714188e-04   1.5682072e-04  -5.0093189e-05  -2.5541893e-05   7.5220800e-04   1.1979458e-04
  -9.1100892e-06  -6.5172535e-05  -2.2095621e-05  -5.4644872e-05  -3.1675958e-05   2.6143704e-05  -3.5097622e-05   8.8112436e-05  -7.0955587e-04  -7.1927308e-05  -6.9362846e-05  -4.7377711e-05  -4.4555767e-05   6.1775136e-05  -1.5791235e-06   1.0428327e-04   3.0854039e-06   3.1032093e-04   1.2358726e-04  -9.3195624e-05  -7.4961310e-05  -1.9489265e-05  -2.3371296e-05  -8.7474225e-05   1.9974214e-04   1.5291689e-05  -3.5709851e-05  -4.2593350e-05  -1.5319150e-05  -8.0455447e-06  -5.5532961e-04   1.1602329e-04  -4.0867417e-05   1.4979976e-04   1.8416995e-05  -4.8223016e-04  -2.1834412e-05  -4.8128354e-06  -3.6729693e-05  -4.0614057e-05   1.4544798e-04   1.0119248e-04  -2.1091233e-05  -5.2968320e-04  -3.3085450e-04   6.5748580e-04   1.3895225e-04   1.0841066e-05   8.1234772e-05  -2.3167582e-04
   1.3440421e-05  -4.2509419e-05  -1.0602867e-05  -2.9585290e-05   2.1447575e-05  -1.6278838e-05   9.7004286e-06   1.3736069e-04   6.4274302e-04  -4.5595189e-05  -2.2325474e-05  -3.1544922e-05  -2.6800255e-05   8.1693528e-05   1.8764877e-04   1.1855741e-04  -1.0069338e-05   4.6710795e-04  -8.1817637e-04  -7.7874647e-05  -6.8590583e-05  -9.0751528e-05  -1.0950040e-04  -9.4426678e-06  -1.7131757e-04  -1.8664236e-04   5.8786220e-05   7.0585971e-05   1.4892998e-04  -4.9745639e-05   1.8552615e-04   3.9367643e-04   5.2878930e-04   4.0785217e-05  -5.8816277e-05   1.1323965e-04  -4.6135272e-05   2.2497594e-05  -1.6030273e-05   2.5096169e-04   1.8800420e-05   3.2188116e-05   3.6900256e-05   5.3871691e-04   1.7070968e-04  -6.2047946e-04   2.2254750e-04   6.9685237e-05  -8.1192004e-05  -3.4146415e-05
  -2.0410478e-05  -5.6147652e-05  -2.3752460e-05  -4.7133130e-05   3.3999200e-05   1.6479129e-05  -3.7542908e-05   1.1781410e-04  -1.0629400e-03  -5.7839545e-05  -7.2267714e-05  -6.1095729e-05  -5.2439238e-05   5.5922334e-05   5.9813596e-05   1.1519068e-04  -2.2186465e-05   2.9944457e-04  -5.1656732e-04  -1.1660279e-04  -7.7486475e-05  -3.3546090e-05  -1.2012360e-04  -5.5601089e-05  -1.4149278e-04  -9.4849733e-05   1.5319749e-05   4.2077227e-05  -1.6540218e-05  -1.4009117e-05   1.2158246e-04   3.4567024e-04  -4.8608243e-04   1.0094077e-04  -5.7411209e-05   2.9874270e-04  -1.9722208e-04   1.0992521e-05  -5.8033384e-05  -7.6119410e-05  -7.1966673e-07  -3.2753972e-04  -8.0428827e-06  -8.2710481e-05  -1.5743382e-04  -6.2809029e-04  -9.7560151e-05   7.4405012e-05  -1.3631894e-03   4.4331048e-04
  -1.9774590e-05  -7.0140450e-05  -5.4435364e-05  -6.2864776e-05  -1.6398335e-05   8.4164031e-07  -5.2270436e-05   9.8305456e-05   8.7391498e-05  -6.2587547e-05  -6.8318848e-05  -8.9657173e-05  -6.1194587e-05   5.3939850e-05  -4.6086011e-06   9.2818475e-05  -3.1121508e-05  -4.6790297e-05   3.8348717e-04  -1.0030220e-04  -6.4234249e-05  -1.2225914e-04  -1.3008331e-04   5.1607603e-05   2.3178387e-04  -3.6354573e-04   1.1807067e-04  -5.7950056e-05   9.4932911e-05  -9.5837522e-06  -3.1632866e-04  -9.9439370e-05   1.1625555e-04  -2.0471354e-05  -1.0483013e-04   5.5259548e-04  -4.9054732e-05   2.9338014e-05  -4.1640074e-06   7.2942763e-05   1.7968398e-04  -1.7914215e-04   2.0088639e-05   1.7361695e-04  -7.8698649e-05  -6.8196218e-04   3.3186795e-04  -6.3463203e-06   2.2400622e-03   7.0202732e-05
   1.9800742e-05  -3.9536226e-05  -3.7316386e-05  -3.6239824e-05  -7.6559954e-06   1.1564964e-05  -2.6505071e-05   7.1333685e-05   2.7373523e-04  -4.5389337e-05  -7.1919305e-05  -3.0743318e-05  -4.1324140e-05   5.1814193e-05   4.8448892e-05   1.2601988e-04  -6.5433596e-06   1.9575193e-04  -7.2572351e-05  -7.1033595e-05  -6.8896734e-05  -2.6970050e-05  -6.5420281e-06   1.7340288e-06  -2.1662534e-04   1.5733787e-04   3.9950693e-05  -1.5721755e-05   1.2695877e-04  -6.2062929e-05   3.7671583e-05   1.1951834e-04  -8.8519973e-06   4.6144367e-05  -2.0736015e-05  -6.2030379e-04   9.0497299e-05   2.6213036e-05   7.1767332e-05  -3.9702547e-05   2.5146813e-04  -4.8525835e-05   1.9787314e-05  -5.0127695e-05  -3.4405300e-04  -2.1084088e-04   8.5096370e-05   5.3367381e-05  -3.1686167e-04  -3.1274508e-04
  -3.3256081e-05  -6.6476219e-05  -2.7605822e-05  -4.8953032e-05  -2.0365424e-05  -1.4272469e-05  -1.4124160e-04   8.4799292e-05   1.5939711e-04  -6.0127099e-05  -7.2052200e-05  -5.8944530e-05  -6.9399743e-05   6.2814404e-05  -8.0304046e-05   1.0980957e-04  -2.4916455e-05   2.2844497e-04   1.8017839e-03  -9.0831934e-05  -6.8087771e-05  -1.1383136e-05  -1.7168366e-04   1.6345568e-04   4.3265904e-05   2.1184010e-04   1.0579925e-04   2.5812678e-05   8.1164755e-05  -3.1444109e-05   2.6020801e-04   2.5537831e-04  -3.4779764e-04  -8.3510356e-05  -5.0568215e-05   2.1001929e-04   8.4504842e-05   1.4788387e-05  -6.8597342e-06   1.2928274e-04   1.6862967e-04   3.9195453e-04   2.0606481e-05  -1.8992090e-04  -3.9758641e-05   6.8913621e-04   1.9670266e-04  -2.0435322e-05   5.6631229e-04  -2.1011746e-04
  -1.7100378e-05  -5.6894758e-05  -4.3252690e-05  -5.8286074e-05   4.5447191e-06  -1.9605643e-05  -2.2926477e-05   1.2459299e-04  -5.0167338e-04  -3.9171937e-05  -5.1947845e-05  -2.3792849e-05  -3.0749143e-05   5.7496516e-05   1.0346512e-06   1.0006076e-04  -4.2416887e-06  -6.3028926e-07   2.3773953e-04  -8.3456485e-05  -5.4142281e-05  -3.5717538e-05  -9.5577037e-05  -4.8979913e-05   9.4073279e-05  -1.5165811e-04   8.7198510e-05   1.1900941e-05   1.7885244e-04  -3.3867855e-05  -1.0316039e-04  -4.6644189e-05  -8.0871774e-05   1.5616558e-04  -2.2772749e-06  -4.0519983e-04   7.1712544e-05   2.6142336e-05  -3.0493931e-05  -2.5743607e-04  -4.4809043e-05  -2.6345951e-04  -2.1183319e-05   5.4514059e-04  -6.0487502e-05  -3.7036443e-04  -2.6671853e-04   1.9587555e-05   4.0742039e-04  -7.9622383e-05
  -2.5907271e-05  -5.3786418e-05  -3.0947311e-05  -3.5672128e-05  -1.3193795e-05  -7.3969868e-06   8.0916916e-06   2.0317191e-05  -1.0942525e-03  -4.6962548e-05  -6.3240514e-05  -4.5280307e-05  -2.7175058e-05   3.9924784e-05   8.2980776e-05   1.0461227e-04  -1.3408087e-05   4.5967983e-05  -2.9581899e-04  -7.7427176e-05  -6.3614920e-05   1.2447340e-05  -1.6609571e-04   3.7263333e-05  -4.6203153e-05   1.8095556e-05   5.0326045e-05  -6.1958133e-07   1.7276577e-04  -3.7878905e-05   3.7836484e-04  -1.8904889e-04  -1.4671980e-04  -1.6872876e-04  -1.6816897e-05  -1.5240899e-04  -1.5857315e-04   2.1137355e-05  -1.0083152e-04   1.7220013e-05  -2.4593071e-04  -3.3302487e-05   3.9101596e-06  -1.4312580e-04  -7.3835676e-05  -3.1421537e-04   4.7412519e-05  -6.2926527e-05   7.9661520e-04  -5.3286451e-05
  -4.6082023e-05  -7.2300543e-05  -3.3166074e-05  -6.1686333e-05   1.6179491e-05  -6.9996975e-05  -3.3166525e-05   1.2105783e-05  -3.5939251e-05  -5.7528916e-05  -5.1052702e-05  -6.1406186e-05  -6.9948997e-05   6.0963139e-05   2.3321681e-04   8.5541215e-05   5.4977386e-06   1.9776305e-04  -5.5531604e-04  -1.0903643e-04  -7.5341297e-05  -6.9997775e-05  -4.0902320e-05  -9.3418559e-05  -8.2018065e-05  -1.1599020e-04   2.7867260e-05   8.5744950e-06   1.3425270e-05  -7.7072291e-05  -4.0490733e-04  -1.0736522e-04   1.9412124e-04   2.0079060e-04  -3.3668271e-05  -3.4881741e-04   3.2915534e-05   1.6916281e-05  -6.7839894e-05  -4.5184392e-05  -1.7469715e-04  -1.6645000e-04   8.3881096e-06   1.4058351e-04  -2.7374882e-04   1.3752465e-04   1.2236476e-04   5.9308142e-05  -1.3384272e-04   7.1346258e-05
  -5.4340030e-06  -3.7772781e-05  -5.1608436e-05  -5.8355261e-05   1.0738366e-05   8.7654353e-06  -1.0719204e-04   7.6600154e-05  -6.8148866e-04  -3.9472197e-05  -5.8446065e-05  -3.5848017e-05  -6.9392023e-05   6.4851287e-05  -5.8323287e-05   8.3409635e-05  -5.8480982e-06  -5.7802921e-05   1.6279874e-04  -7.1937488e-05  -4.9800579e-05  -3.3547018e-05  -3.8111753e-05  -8.6280415e-05  -9.3340059e-05  -5.4266642e-05  -6.7504794e-07  -4.3712695e-05   8.2910301e-05  -4.8241865e-05   3.9258035e-04   1.9736531e-04   4.3003549e-04   3.4329605e-05  -3.9899329e-05   2.1256712e-04  -2.6363498e-04   2.1390804e-05   3.1552281e-05   1.2344337e-04   1.4298735e-04   5.8929520e-05  -7.4968520e-06  -1.9782208e-04   4.6248833e-04  -1.0771487e-03  -1.3090183e-04   4.6425685e-06   1.0236485e-04  -2.1864157e-04
  -5.0008228e-05  -5.8568781e-05  -3.7866252e-05  -4.1044819e-05  -9.1971306e-06   9.2956961e-06  -7.1263064e-05   6.9805181e-05   2.9426807e-04  -5.3073054e-05  -7.1496775e-05  -4.5634781e-05  -7.8071469e-05   6.0043134e-05   5.8602331e-05   6.1927240e-05   7.0601063e-06  -1.9938736e-04  -1.8025859e-04  -1.0549361e-04  -6.8584995e-05  -2.0564308e-05  -1.3407417e-04   3.7234619e-05   1.4839508e-04   1.3381224e-04   7.1275776e-06  -2.6581240e-05   7.2055736e-05  -7.5694203e-05   3.0960143e-04   3.5977547e-04   2.6618724e-04  -2.3850322e-05  -2.7993594e-05   2.9246468e-04   1.4880711e-04   1.8555721e-06  -4.1885400e-05   2.8577182e-04   1.1965555e-04   2.4608301e-04   2.1849082e-05  -5.1048948e-05  -1.2284663e-04   2.0938563e-04  -3.1829157e-04   4.3084743e-05   6.7546888e-04  -1.0547892e-05
  -5.7387588e-05  -7.3460062e-05  -2.1316071e-05  -7.8369201e-05   3.7921532e-06  -2.1525873e-05  -2.7674765e-05   7.8896046e-05  -7.6102704e-04  -4.8865633e-05  -8.8489869e-05  -3.7297996e-05  -9.0459667e-05   5.0213188e-05   4.9529995e-06   4.7792309e-05  -2.0929618e-05  -2.1419370e-04  -1.1245382e-03  -8.9357600e-05  -5.1023882e-05  -2.5668811e-05  -6.5327200e-05  -2.0356380e-05   6.1778504e-05  -2.2254633e-05  -2.7991206e-05  -1.9896012e-05   2.5229176e-05  -2.1591970e-05   3.4633884e-04  -6.6153123e-05   4.0746012e-04  -3.6810077e-05  -2.9416698e-05  -1.4110543e-04   1.5482243e-05   8.5030633e-06  -6.9424095e-05  -1.5454381e-04   8.5711072e-05  -1.7091645e-04   8.0027276e-06   1.4402831e-04  -2.5905896e-04  -8.4565952e-04  -5.2725572e-05   2.8116190e-05  -1.3986373e-04  -3.4798827e-04
  -4.2132768e-05  -4.7549889e-05  -1.7520350e-05  -5.3614818e-05   1.8181296e-05  -3.4228866e-05  -2.5075331e-05   6.4515756e-05  -4.7496022e-04  -3.7187961e-05  -5.7249454e-05  -5.4983902e-05  -9.4361334e-05   2.4539488e-05   1.9572581e-04   3.3476997e-05  -1.4363896e-05   6.6691835e-05  -1.1533645e-03  -7.7940924e-05  -5.8184218e-05  -1.3473757e-05  -6.8101028e-05   4.2634216e-05   1.2311141e-04   1.2157860e-04   1.3292143e-05  -6.1897234e-05  -2.6154723e-06  -5.6276291e-05   1.5365760e-04   1.3300599e-04   2.4348528e-06  -5.8600676e-06  -5.2245749e-05   5.9782324e-04  -1.4898616e-05   9.0040630e-06  -8.1638456e-05   4.0572078e-04   5.3196284e-04  -7.9976409e-05   2.1946320e-05   1.1772273e-04  -1.3348086e-04   5.3028751e-04  -7.8318088e-05   1.0646626e-04   1.8750118e-03   7.3501673e-05
  -8.4170038e-05  -6.4305292e-05  -3.9809700e-05  -5.1802042e-05   6.4006399e-06  -3.7015561e-05  -2.2197271e-05   2.4645225e-05  -2.1525388e-04  -4.7786187e-05  -7.3888252e-05  -8.7099615e-05  -7.9953017e-05   2.0359083e-05  -1.3577498e-05   2.3529556e-05  -4.8597136e-05   2.6144143e-04  -1.1316387e-04  -1.0995122e-04  -7.3106727e-05  -2.7106686e-05  -6.8441790e-05  -6.8472225e-05  -2.0134001e-04  -4.5299719e-05  -2.6099194e-06   1.7334432e-05  -6.4841275e-05  -6.0036542e-05  -1.5598960e-04   1.4564813e-04   4.5569632e-05   7.9529425e-05   1.9651807e-05   7.0843112e-04   1.1183473e-04  -2.0662501e-05  -2.7223547e-05   1.4565547e-04   1.1715931e-04   5.6568897e-05   2.5153111e-05  -6.0866401e-05  -5.6110334e-04  -5.5946824e-05  -1.4847080e-04  -7.9557401e-05   1.5924961e-03  -1.3797914e-04
  -3.2701435e-05  -4.9394719e-05  -1.8292476e-05  -5.6021294e-05  -1.9399757e-05  -2.0417787e-05  -3.5188907e-05  -1.3929748e-05   4.4320896e-04  -8.6034579e-06  -7.1904033e-05  -5.2524563e-05  -8.2680504e-05   8.6229265e-06   7.1670493e-06   1.0017926e-05  -8.7330454e-06  -1.6139928e-04  -3.9789642e-04  -1.1168460e-04  -5.1173258e-05  -5.0467093e-05  -1.5068028e-04   6.4615568e-05  -3.2033207e-05  -3.3524200e-05  -9.3835901e-05  -2.6284913e-06  -4.6408903e-05  -5.7417739e-05  -2.7478460e-04   2.8808299e-04   1.9671393e-04   4.5659162e-05  -3.1795513e-05  -1.1122187e-04  -2.9082423e-05   8.5592774e-06   7.7313380e-05  -2.8853168e-04   1.7467981e-05   2.0558880e-05   3.1213168e-07  -2.8641737e-04   3.4465676e-04   2.0845905e-04  -1.1790977e-04   1.1149409e-05  -6.2473951e-04  -7.6434830e-05
  -5.5346514e-05  -4.8572878e-05  -5.4729702e-05  -3.4573961e-05   8.4515585e-07  -1.6414537e-05  -6.4545929e-05  -3.4141103e-05  -1.9271731e-04  -2.9671859e-05  -5.5523757e-05  -4.5419492e-05  -1.1115302e-04   4.4092303e-05   6.6213659e-05  -3.0345322e-05  -1.5884658e-05   1.4319130e-04   3.4075734e-04  -8.2961044e-05  -5.6216642e-05   1.0886396e-06   1.2116496e-04  -1.1852908e-04  -3.2709391e-04   3.0458163e-04   8.0011847e-07  -2.3569068e-05   3.3917669e-05  -4.9102568e-05  -1.9139485e-04   2.1619133e-04  -6.8609725e-06   1.2050039e-04  -7.1058111e-07   2.4206204e-04   2.0271821e-04  -3.6342067e-06   1.2701206e-05   6.7921232e-05   2.5579444e-04   4.1014131e-04  -1.5184850e-05   1.3054181e-04   3.9591431e-04   3.3874181e-04  -4.7887101e-05  -6.3952524e-05  -4.4950077e-04   8.3157604e-05
  -4.6920715e-05  -6.4068023e-05  -4.0300940e-05  -7.2065253e-05  -1.0807545e-05  -5.1671603e-05  -8.0781960e-05  -4.4541186e-05  -1.2883928e-04  -3.9466580e-05  -8.3555351e-05  -5.0831946e-05  -7.5128497e-05   3.0670220e-05   1.0184780e-04  -4.4606608e-05  -2.9099707e-05   2.6528511e-04  -8.8946130e-05  -1.0409836e-04  -6.1799336e-05  -5.5439570e-05   2.7302824e-05  -6.9579582e-06  -2.4705509e-05   5.5120487e-05   9.4284107e-05   2.4811670e-05  -7.3873096e-05  -6.2864929e-05  -4.4993343e-04   1.1192853e-04  -3.1128214e-04  -5.4346976e-05   4.3776759e-05   3.6847952e-04  -1.3663124e-04  -1.2514100e-05  -2.5486115e-05   5.1720260e-04   8.1939899e-05  -1.3531651e-06  -2.1228427e-06   3.3502827e-05  -2.3640513e-04   6.3560961e-04   4.8932224e-04  -3.1636228e-05  -1.3999636e-03   1.2844699e-04
  -4.1707208e-05  -3.5701491e-05  -2.1613945e-05  -3.0709278e-05  -3.2778717e-05   2.3492305e-05  -3.5114172e-05  -1.2597368e-05  -2.6659860e-04  -1.4004045e-05  -6.3663821e-05  -2.0798600e-05  -8.8420151e-05   2.1988071e-05  -5.3206652e-05  -6.8040245e-05  -2.7801703e-05  -6.1111539e-05  -9.0209488e-04  -9.0616173e-05  -4.4313532e-05   2.2505624e-07  -6.8196008e-05  -1.1445997e-04   4.5232333e-05   8.2249273e-05  -2.9272065e-05  -2.0031514e-06  -1.0118237e-05  -8.3737395e-05  -1.9298517e-05  -2.3056211e-05  -3.1701129e-04   1.1473128e-04  -1.3541373e-05  -3.9456409e-04   1.1795591e-04  -1.0767838e-05   3.6223577e-05   2.3784873e-04   3.0293815e-05   1.3778196e-04   3.9006577e-06   2.1610336e-04  -1.3312361e-04   9.8611275e-04  -2.0339426e-04  -1.4583893e-06  -3.1259019e-04  -1.2686590e-04
  -3.8115468e-05  -5.2245305e-05  -3.0673709e-05  -4.3212382e-05  -2.7847867e-05  -1.4021036e-05  -2.5293624e-05  -1.2711866e-05   5.2244961e-04  -2.5845813e-05  -6.6936904e-05  -4.2615433e-05  -6.7568464e-05   1.9351357e-05   1.0634852e-05  -6.6335000e-05  -2.7587037e-05  -4.4290504e-05  -5.2904949e-04  -9.3214941e-05  -6.0029328e-05  -2.8023320e-05  -1.6694466e-04  -7.3272815e-05  -1.0751062e-04   1.6466960e-04  -1.6212025e-04  -1.5527121e-05  -1.1807590e-05  -4.6372701e-05  -3.8926961e-04   8.6817636e-05  -1.9914717e-04   4.5094821e-05   2.3690968e-06   6.4981316e-04   1.0157292e-04  -2.2872335e-05  -4.2321308e-06   4.6612426e-05   1.0840307e-04  -4.0092695e-04  -2.0889474e-06  -1.5230865e-04   3.7863749e-05  -1.8863083e-04  -1.7507680e-04  -8.6739441e-05  -5.7440647e-04   4.7708815e-04
  -5.4876586e-05  -6.2202482e-05  -5.1392879e-05  -6.1247541e-05   1.6650396e-05  -8.8025208e-06  -9.1672176e-05  -9.6797914e-05  -3.4853091e-04   1.0995407e-06  -6.2885585e-05  -2.4183028e-05  -6.8200126e-05   5.0840367e-06   2.1329422e-05  -8.9925292e-05  -4.6340756e-05   2.3009906e-04  -1.2513671e-04  -9.8313198e-05  -4.3456686e-05  -1.8278399e-05  -6.3307933e-05  -1.7196262e-04  -5.5177752e-05   7.3970390e-05   4.5785386e-05   2.0755533e-05   6.7619352e-05  -3.7259473e-05  -2.5043648e-04  -1.5141532e-05   3.3125866e-04   3.3815511e-04  -1.4294548e-05   5.9062766e-04   7.2331648e-05  -9.1070287e-06  -8.6157743e-05   1.2751512e-04   3.5010085e-05  -2.0837839e-04  -2.2879875e-07   7.6276927e-05   1.0087944e-06  -3.2730455e-05  -1.6924929e-05  -8.2731480e-05  -2.9443525e-04  -6.0291284e-05
  -3.0381314e-05  -4.9701237e-05  -3.7814541e-05  -4.6630699e-05  -1.2814136e-05  -1.6127993e-05   1.3443322e-05   1.7990673e-05  -8.9519669e-04  -4.3966520e-06  -7.5479846e-05  -1.1352101e-05  -8.3226427e-05   2.6815669e-05   2.0841097e-05  -8.0542668e-05  -1.6161326e-05   4.2619527e-04  -3.5860001e-05  -8.3141116e-05  -6.3174208e-05  -9.3292321e-05  -1.1077683e-04  -5.6121040e-05  -1.6001321e-04  -7.7069591e-05   1.2493497e-04  -7.2964984e-05   6.8735517e-06  -8.0677120e-05   5.7390082e-04  -4.5817793e-05  -2.6378769e-04   1.8514137e-04   2.1769529e-06  -3.5341898e-05  -7.5645781e-05  -1.9194955e-05   2.0628337e-05   1.7773019e-04   1.4240782e-04  -4.4208595e-05   9.8759992e-06   3.3053750e-04   8.7717308e-05  -7.4635878e-05  -2.0947949e-05  -2.6365557e-05   3.5914083e-05   2.5050173e-04
  -5.9195467e-05  -5.6830097e-05  -4.4753469e-05  -5.2868818e-05  -2.5531619e-05   1.7943086e-05  -1.9280709e-05  -6.0701288e-05   5.7089230e-04  -7.0762121e-06  -5.4721211e-05  -9.8879127e-07  -3.2003241e-05  -1.1241813e-05  -4.8072539e-05  -9.3151568e-05  -2.4422863e-05   6.5172462e-05  -7.8946899e-04  -1.4227451e-04  -7.2132323e-05  -8.7508139e-05  -1.6153022e-04  -3.6601100e-06   1.3908942e-05   8.7463006e-05   7.6223179e-05   2.8295301e-05   4.6552130e-05  -6.0843191e-05  -9.9196834e-05   1.7439319e-04   3.8273819e-04   5.0258899e-05   3.2124666e-05   6.4791238e-04   6.5151929e-05  -2.0856023e-05  -1.7194457e-08   3.0868160e-04   1.6186801e-04   4.9823542e-05  -1.5462945e-05  -2.0654310e-04  -2.8263783e-04   3.1683681e-04  -9.4373063e-05  -1.2677272e-05  -6.5183564e-04  -1.1767085e-04
  -1.2757801e-05  -3.8330199e-05  -2.9250130e-05  -5.0634597e-05  -6.3792054e-06   7.0017923e-06   9.8774708e-06  -5.8100413e-05  -2.0769209e-04   1.1674814e-05  -7.1816779e-05  -6.3157891e-06  -5.9737147e-05  -2.8183731e-05   1.0297079e-04  -9.9208170e-05  -4.6431464e-06  -6.9332222e-05   3.8556010e-04  -9.4306473e-05  -4.7171077e-05  -1.4862098e-05  -1.2059425e-04  -1.1109320e-04  -1.6957412e-04   3.3584543e-05  -8.1159262e-05  -3.1477848e-05   3.2455639e-05   1.0645642e-06  -3.3218111e-04   7.6853357e-05  -2.0489676e-04   1.4720736e-04   3.5986246e-05  -1.7418628e-05   2.0855138e-04  -2.2434762e-05   1.2825825e-05  -1.2172532e-04   3.0662697e-05  -9.5698873e-05   3.0596466e-06  -8.5126019e-05  -4.0640199e-04   1.9197694e-04  -2.5245862e-04  -1.0250143e-05  -1.5161590e-03  -3.2303706e-04
  -6.5375512e-05  -5.7763300e-05  -3.9794402e-05  -4.2592026e-05  -7.1249960e-06   1.2400591e-05  -8.4248793e-05  -6.2534680e-05  -1.0233389e-03  -2.4492281e-06  -7.8190809e-05  -5.3715772e-05  -5.5819874e-05  -1.3267712e-05  -6.2130253e-05  -1.1893126e-04  -2.7825667e-05   5.5252018e-05   9.1943709e-04  -1.1523553e-04  -5.0082879e-05  -1.4242425e-05  -6.2162100e-05  -8.1262624e-05   1.9874357e-04   8.9278685e-05  -2.4383262e-05   1.5189410e-05   8.3479383e-05  -5.2079788e-05   1.9295166e-04   1.7989738e-05  -6.1177190e-05   1.8754556e-05   5.8654714e-05  -5.5136264e-04   2.0790413e-04  -2.7630293e-05  -3.0776668e-05  -1.4515537e-04   1.3742104e-04  -1.5654018e-04  -9.2355358e-06  -8.5612555e-05   3.1165546e-05  -5.4682797e-04  -1.7252218e-04  -8.8168723e-05  -4.0680112e-04  -1.5007376e-04
